161 0.017951
150 0.001994
103 0.001994
60 0.001994
36 0.002999
35 0.002996
38 0.002987
43 0.002992
54 0.002991
66 0.001994
71 0.002044
73 0.002895
81 0.002996
89 0.002993
98 0.002992
107 0.001995
118 0.001995
126 0.001997
132 0.002003
139 0.001988
147 0.001972
154 0.002028
159 0.001979
167 0.002001
152 0.001995
107 0.001995
60 0.001994
34 0.001036
26 0.001029
25 0.001019
28 0.000998
37 0.000997
50 0.001994
62 0.001995
67 0.001993
71 0.001999
82 0.001966
93 0.000981
104 0.001995
113 0.000998
124 0.000998
132 0.000998
139 0.000997
146 0.001029
154 0.001001
161 0.000986
167 0.000998
173 0.000997
170 0.000996
132 0.0
80 0.000994
45 0.000968
31 0.000979
28 0.000953
28 0.000997
33 0.000999
45 0.000995
57 0.001046
67 0.0
70 0.0
80 0.0
90 0.0
99 0.0
110 0.0
119 0.0
131 0.000998
140 0.0
147 0.000996
154 0.0
159 0.0
169 0.000996
175 0.00103
174 0.0
138 0.0
88 0.0
52 0.0
37 0.0
33 0.0
34 0.0
39 0.0
50 0.0
61 0.0
68 0.0
71 0.000997
82 0.0
92 0.000998
106 0.0
112 0.0
123 0.0
130 0.000973
137 0.000995
146 0.0
152 0.0
157 0.0
163 0.0
169 0.0
158 0.0
118 0.0
73 0.0
42 0.0
37 0.0
34 0.000997
36 0.000997
49 0.0
60 0.0
69 0.0
73 0.001033
75 0.000997
86 0.000998
96 0.0
110 0.0
118 0.001024
126 0.001021
133 0.00101
141 0.000996
148 0.000991
157 0.000966
163 0.0
166 0.000944
173 0.000998
181 0.000997
163 0.0
116 0.001995
60 0.000997
41 0.001062
34 0.000999
31 0.002029
31 0.000998
42 0.000999
56 0.000999
66 0.000997
71 0.001004
80 0.000994
88 0.001942
98 0.00093
110 0.000979
119 0.000969
128 0.000998
135 0.001997
142 0.001935
153 0.000962
160 0.000993
163 0.001994
168 0.002003
178 0.000997
184 0.002027
185 0.002043
143 0.001
92 0.001961
55 0.001997
41 0.00298
35 0.002994
28 0.001995
29 0.001955
40 0.002
58 0.001959
69 0.002962
74 0.002056
80 0.001955
93 0.001997
104 0.001998
113 0.00198
121 0.002994
129 0.003006
140 0.002009
148 0.002009
156 0.001999
163 0.002979
172 0.002027
180 0.001994
186 0.003992
192 0.002991
194 0.002992
173 0.002993
110 0.002006
72 0.002992
55 0.002994
52 0.001948
52 0.001996
55 0.001992
71 0.001994
81 0.00298
85 0.004031
87 0.003951
94 0.00303
105 0.002989
115 0.002993
125 0.003951
135 0.003989
145 0.00302
152 0.002993
160 0.002992
172 0.003017
178 0.002994
184 0.003999
190 0.003989
198 0.002994
203 0.00399
204 0.002948
177 0.004054
127 0.004025
82 0.003991
56 0.002943
52 0.002993
52 0.004006
55 0.004
71 0.00399
82 0.00399
89 0.002959
93 0.002972
98 0.004042
106 0.003996
116 0.004955
131 0.00399
139 0.004038
147 0.003989
160 0.003981
166 0.003992
174 0.005018
180 0.005023
185 0.00399
193 0.003989
196 0.004062
199 0.00403
175 0.004987
126 0.004988
80 0.004992
56 0.004989
49 0.004988
50 0.003992
54 0.005017
65 0.00502
74 0.003984
76 0.004988
80 0.00399
85 0.005022
94 0.004989
103 0.005015
114 0.004006
122 0.004009
135 0.005029
143 0.004056
150 0.004987
156 0.006005
161 0.005986
170 0.004987
175 0.004997
166 0.004987
128 0.004987
82 0.005995
51 0.005013
38 0.00502
37 0.00499
39 0.006029
48 0.005003
63 0.006021
70 0.005984
73 0.005018
76 0.006029
86 0.004944
97 0.006019
106 0.005984
118 0.005001
126 0.005038
139 0.005029
147 0.004934
154 0.004987
160 0.006981
164 0.006932
171 0.006046
175 0.006018
158 0.006011
113 0.006023
65 0.005969
37 0.006016
26 0.006038
20 0.005986
21 0.006019
35 0.005933
46 0.006958
54 0.006982
57 0.006018
62 0.006023
70 0.005966
82 0.007048
92 0.007022
105 0.006026
113 0.006021
125 0.005978
132 0.006947
139 0.007027
144 0.006979
150 0.006982
156 0.006979
162 0.007053
160 0.007046
128 0.007028
61 0.006932
27 0.006987
15 0.006017
14 0.007979
17 0.007028
28 0.007014
41 0.007015
51 0.007957
53 0.00798
57 0.007035
63 0.007009
72 0.006945
87 0.007979
96 0.00705
107 0.005977
117 0.007979
125 0.007944
134 0.006981
143 0.007009
146 0.007954
154 0.00798
164 0.007972
160 0.00697
126 0.006983
59 0.008
28 0.00798
18 0.00698
14 0.007979
18 0.006978
32 0.006971
45 0.006988
54 0.007016
58 0.006972
64 0.007013
66 0.007974
80 0.007947
91 0.007979
105 0.007995
111 0.007974
130 0.007979
136 0.007013
144 0.007032
155 0.006982
160 0.00698
166 0.006984
174 0.006977
177 0.006973
182 0.006993
177 0.00701
141 0.006965
67 0.006982
27 0.006978
17 0.006981
14 0.005991
11 0.006017
20 0.006004
35 0.006981
48 0.006979
57 0.007003
62 0.006966
69 0.007011
78 0.006969
90 0.007029
108 0.006996
118 0.006985
130 0.007011
139 0.005983
146 0.006023
153 0.005982
159 0.006031
167 0.005968
173 0.005986
181 0.006014
186 0.005982
177 0.005984
99 0.006054
57 0.006033
38 0.006985
34 0.007024
35 0.006006
38 0.005984
49 0.006018
66 0.005974
74 0.00597
76 0.005972
78 0.005984
85 0.006017
103 0.005977
114 0.005019
126 0.005019
135 0.004994
143 0.004986
151 0.004848
159 0.005017
168 0.004978
173 0.00496
181 0.005018
187 0.005019
177 0.005984
102 0.004978
62 0.00507
44 0.004985
42 0.006059
41 0.005986
43 0.006068
55 0.006027
72 0.005018
80 0.005034
84 0.004986
88 0.005027
97 0.004986
116 0.005006
126 0.004987
140 0.005032
148 0.004996
157 0.005031
165 0.005016
174 0.00402
183 0.00399
188 0.003996
194 0.003996
199 0.004036
206 0.005017
184 0.005053
131 0.005036
80 0.004962
50 0.005015
43 0.004006
38 0.005023
36 0.004963
45 0.003967
64 0.004017
74 0.004021
79 0.004031
84 0.00399
96 0.004022
106 0.004041
118 0.003982
131 0.005026
141 0.004997
149 0.004989
157 0.004001
163 0.003967
170 0.003988
176 0.004025
181 0.003989
187 0.004015
195 0.003992
173 0.003948
121 0.003976
62 0.003994
46 0.00395
43 0.002943
43 0.002963
45 0.002963
60 0.002959
73 0.002999
81 0.003997
85 0.002999
92 0.003955
103 0.00399
114 0.003959
128 0.003951
139 0.00398
147 0.003024
155 0.003009
162 0.002961
172 0.002993
179 0.003025
185 0.002993
191 0.003027
203 0.001988
211 0.00298
208 0.002991
154 0.003022
102 0.003022
70 0.002966
60 0.003005
59 0.003026
58 0.002998
64 0.002991
78 0.003023
93 0.003052
104 0.002025
108 0.002991
114 0.002965
125 0.002982
141 0.003037
151 0.001995
161 0.001995
169 0.003002
177 0.001997
187 0.001994
195 0.001996
202 0.002008
211 0.002018
218 0.003005
226 0.003024
229 0.002998
195 0.001995
138 0.001988
92 0.001997
73 0.00199
69 0.001977
67 0.002029
69 0.002025
79 0.002007
101 0.00198
108 0.001971
111 0.001995
116 0.000998
129 0.001028
140 0.000995
152 0.002015
161 0.001994
169 0.002054
181 0.002049
188 0.001994
195 0.001994
204 0.001991
209 0.002019
216 0.001956
222 0.002005
227 0.001017
203 0.000993
150 0.001011
100 0.001022
76 0.001033
73 0.001019
75 0.000998
80 0.000997
98 0.001031
108 0.000974
114 0.001029
115 0.001002
122 0.000984
131 0.000994
141 0.001002
151 0.00099
162 0.000978
174 0.001001
182 0.001042
190 0.000996
201 0.0
208 0.0
212 0.0
218 0.0
224 0.0
229 0.001029
202 0.000994
145 0.001027
95 0.000954
70 0.000997
65 0.000997
66 0.000998
75 0.0
89 0.0
101 0.0
110 0.0
113 0.0
120 0.0
129 0.0
140 0.0
151 0.0
160 0.0
169 0.0
176 0.0
187 0.0
194 0.0
199 0.0
204 0.0
209 0.0
217 0.0
222 0.0
201 0.0
147 0.0
91 0.0
56 0.000997
52 0.001
50 0.000997
54 0.000998
72 0.0
84 0.0
90 0.000997
95 0.001068
100 0.001032
108 0.000999
118 0.0
132 0.0
144 0.001011
153 0.000999
166 0.001049
175 0.001013
183 0.0
188 0.0
193 0.0
200 0.001
206 0.000997
210 0.0
186 0.0
131 0.001029
79 0.001997
54 0.001996
53 0.0
58 0.000997
64 0.000998
78 0.0
88 0.0
93 0.0
97 0.000998
101 0.002019
113 0.0
125 0.000999
136 0.0
146 0.001965
160 0.001002
168 0.001994
176 0.001993
186 0.000995
192 0.001029
197 0.0
204 0.001955
210 0.001995
192 0.0
141 0.001956
87 0.0
58 0.001991
51 0.001029
54 0.001994
57 0.002014
73 0.000948
85 0.000997
92 0.000999
97 0.002022
100 0.002055
111 0.000996
122 0.001002
133 0.001035
143 0.002992
159 0.001983
167 0.003007
174 0.002993
184 0.001994
190 0.001995
195 0.002037
200 0.002992
207 0.002965
202 0.001044
160 0.000998
102 0.001022
60 0.001996
43 0.001997
42 0.003003
43 0.002997
53 0.001998
67 0.001962
77 0.001995
83 0.003028
86 0.002993
94 0.001997
104 0.002029
115 0.002009
125 0.002945
139 0.002994
149 0.001996
156 0.00399
163 0.003024
172 0.001996
177 0.002031
183 0.002025
188 0.002992
194 0.003025
180 0.001998
128 0.002032
73 0.00204
36 0.002028
34 0.003002
36 0.003931
40 0.00399
56 0.002994
69 0.002991
76 0.002993
78 0.003991
81 0.003989
91 0.003063
102 0.00313
113 0.003991
129 0.00204
138 0.002991
146 0.002994
153 0.00399
164 0.002993
169 0.002992
176 0.002992
183 0.003956
187 0.00399
153 0.002954
99 0.003036
58 0.003038
39 0.00399
40 0.004025
42 0.005019
48 0.005025
66 0.00404
77 0.004012
83 0.003991
86 0.005006
93 0.004988
105 0.004021
118 0.004047
129 0.004027
145 0.003026
154 0.002992
161 0.005007
169 0.003984
180 0.003999
185 0.003975
192 0.003947
199 0.005032
206 0.004987
208 0.004029
175 0.004031
115 0.00398
48 0.003991
37 0.003947
35 0.003944
35 0.004988
38 0.004984
55 0.00397
68 0.00399
76 0.004023
79 0.005037
84 0.005031
96 0.004025
107 0.005026
127 0.005023
138 0.004987
147 0.004952
154 0.006091
161 0.005988
168 0.004997
177 0.004987
182 0.004986
188 0.005027
194 0.004986
200 0.004971
170 0.004956
78 0.004956
47 0.005017
38 0.004964
38 0.006011
40 0.005984
52 0.004993
66 0.004987
75 0.004999
80 0.006035
82 0.005984
88 0.006011
99 0.00601
119 0.005988
126 0.005987
139 0.004998
147 0.006005
154 0.005985
164 0.004987
170 0.004987
178 0.004987
186 0.006973
193 0.007012
172 0.00598
119 0.006034
51 0.005986
41 0.006045
41 0.006036
44 0.006983
49 0.007017
66 0.006022
74 0.007041
85 0.006034
90 0.006983
95 0.006982
107 0.00602
119 0.006017
141 0.006026
152 0.005929
163 0.005956
173 0.006043
181 0.006983
190 0.007017
198 0.006003
204 0.006046
211 0.00601
215 0.00703
220 0.007016
191 0.007032
90 0.00799
53 0.007062
41 0.006998
40 0.007063
39 0.00798
42 0.007978
56 0.005963
68 0.007018
75 0.007042
77 0.007975
80 0.007958
91 0.005992
112 0.007948
124 0.005962
131 0.007016
141 0.007009
153 0.007938
163 0.007979
172 0.007986
175 0.007979
179 0.006982
185 0.007977
192 0.007979
185 0.007044
103 0.007973
56 0.007014
31 0.00701
30 0.007014
32 0.006959
34 0.006979
51 0.006982
64 0.006984
71 0.007035
74 0.007015
75 0.007979
86 0.006947
105 0.00797
120 0.007011
131 0.00701
140 0.006973
150 0.007026
158 0.006987
169 0.006983
176 0.007034
181 0.007015
187 0.007012
194 0.007014
178 0.007009
109 0.006963
50 0.007027
34 0.006006
31 0.00701
29 0.006934
29 0.006982
38 0.006981
55 0.006981
64 0.006981
67 0.006968
70 0.007013
78 0.007017
97 0.00701
107 0.005988
119 0.006011
127 0.006038
135 0.006009
141 0.005985
148 0.005973
158 0.006015
163 0.006981
169 0.007022
177 0.007031
184 0.005987
154 0.006046
103 0.005974
52 0.006025
37 0.006015
31 0.006021
25 0.006034
26 0.006009
42 0.006034
56 0.006007
66 0.00597
70 0.005978
73 0.006031
89 0.005983
101 0.005019
115 0.005012
124 0.005984
135 0.005987
145 0.006014
153 0.00602
164 0.005983
172 0.005947
179 0.006032
187 0.006015
195 0.005963
200 0.005979
170 0.004944
112 0.005034
88 0.00497
78 0.005019
73 0.004973
68 0.005031
71 0.005018
82 0.00603
94 0.005038
101 0.005041
106 0.005986
114 0.004997
123 0.005022
133 0.004984
144 0.004993
152 0.005019
158 0.005029
165 0.004986
172 0.005018
181 0.005019
187 0.00402
193 0.004021
197 0.005034
208 0.00397
211 0.003993
197 0.004038
147 0.005032
122 0.003981
111 0.003929
107 0.00502
103 0.004995
102 0.00505
109 0.005019
119 0.00502
124 0.004027
126 0.003995
129 0.004043
135 0.003992
144 0.003998
151 0.004024
157 0.003966
164 0.004033
169 0.00402
177 0.00403
183 0.003981
189 0.002993
193 0.002993
200 0.003003
206 0.004034
212 0.003988
207 0.003978
177 0.004017
148 0.003989
135 0.004039
133 0.003033
132 0.002991
133 0.00304
137 0.003026
146 0.002992
154 0.002984
155 0.004006
155 0.004054
160 0.00398
168 0.004015
174 0.004024
180 0.004007
184 0.004024
193 0.002994
198 0.003007
202 0.003032
206 0.003023
213 0.003044
218 0.002995
223 0.002986
229 0.00299
223 0.001941
194 0.002943
165 0.001995
152 0.002992
151 0.004033
149 0.002989
147 0.001994
150 0.002986
163 0.003015
168 0.003024
169 0.002998
169 0.003031
174 0.002983
179 0.003026
185 0.001994
190 0.003026
196 0.00203
202 0.001995
207 0.002992
212 0.002003
219 0.00203
223 0.001946
227 0.001996
113 0.001961
237 0.001973
241 0.001993
232 0.002992
197 0.001995
169 0.001995
155 0.001999
153 0.002007
153 0.001995
151 0.001949
156 0.00203
162 0.001993
166 0.001995
165 0.001934
165 0.001995
167 0.002004
172 0.00199
177 0.000972
186 0.000998
191 0.000999
196 0.000999
203 0.001056
207 0.002025
212 0.002058
216 0.001983
220 0.001991
225 0.001948
229 0.001964
222 0.000997
190 0.001001
149 0.000998
134 0.000997
132 0.000998
132 0.00099
135 0.000992
141 0.000959
147 0.000985
150 0.001029
150 0.002004
151 0.000998
155 0.000998
161 0.001042
167 0.000997
176 0.000998
182 0.000998
190 0.001024
196 0.001045
201 0.000995
206 0.001045
210 0.000998
217 0.000982
222 0.000998
224 0.000998
208 0.000998
169 0.0
127 0.0
114 0.0
111 0.0
111 0.0
114 0.0
122 0.0
128 0.0
128 0.000997
126 0.000997
129 0.000998
135 0.000997
143 0.0
153 0.000994
160 0.000961
172 0.001024
178 0.0
184 0.000998
190 0.000986
196 0.0
202 0.0
207 0.0
212 0.0
216 0.0
208 0.0
156 0.0
117 0.001052
93 0.000989
92 0.000997
92 0.000995
97 0.0
106 0.0
114 0.000969
119 0.000964
120 0.0
123 0.0
130 0.0
138 0.001007
145 0.001004
157 0.001985
165 0.001008
173 0.000937
179 0.000989
185 0.001004
190 0.001039
196 0.001065
201 0.0
205 0.0
210 0.0
206 0.0
175 0.000999
105 0.0
87 0.000998
83 0.000948
87 0.000998
90 0.000999
96 0.001039
104 0.001036
110 0.000998
113 0.000967
114 0.000997
119 0.001036
125 0.001995
138 0.0
145 0.001031
152 0.002018
160 0.001028
165 0.001019
171 0.001033
176 0.001994
180 0.001995
187 0.001021
191 0.001012
175 0.001995
136 0.002033
84 0.001047
77 0.00197
79 0.001957
82 0.000997
89 0.002074
98 0.000995
105 0.001994
109 0.001996
111 0.000989
115 0.001996
122 0.002028
131 0.003018
143 0.000995
149 0.003024
156 0.002992
164 0.001049
170 0.001026
175 0.001018
180 0.001993
185 0.001995
191 0.000998
182 0.001027
143 0.001
98 0.001995
62 0.00199
60 0.002992
59 0.002992
61 0.00204
70 0.002011
80 0.001995
87 0.003042
90 0.003004
93 0.001943
99 0.001986
109 0.002056
118 0.002043
133 0.002955
140 0.001939
148 0.002939
155 0.002989
163 0.002037
168 0.001993
173 0.001963
178 0.002997
185 0.003037
183 0.001996
151 0.002011
104 0.00196
56 0.001984
53 0.001946
52 0.004022
51 0.004021
57 0.002971
67 0.002984
76 0.003024
80 0.00399
82 0.003989
88 0.001981
96 0.002026
105 0.002038
119 0.002961
127 0.002959
133 0.003991
139 0.003989
147 0.003031
152 0.003035
156 0.003065
159 0.004023
165 0.003989
166 0.003039
141 0.004025
96 0.003971
45 0.003992
40 0.002992
39 0.003991
39 0.004062
45 0.002986
55 0.003003
64 0.003026
68 0.004026
71 0.004038
78 0.003038
87 0.003989
98 0.003959
114 0.003993
122 0.004002
129 0.00499
136 0.004989
145 0.003949
154 0.00404
161 0.003992
167 0.00488
170 0.004955
136 0.004021
93 0.004022
65 0.004014
56 0.003933
56 0.00399
57 0.004021
66 0.005041
80 0.005024
92 0.004037
96 0.004034
99 0.00402
105 0.005984
115 0.005984
130 0.005017
139 0.004034
152 0.003983
160 0.003987
170 0.004024
179 0.00503
186 0.005019
195 0.004022
201 0.003981
199 0.005026
169 0.005981
119 0.006017
75 0.005027
64 0.00502
56 0.005026
55 0.004999
62 0.005023
76 0.005982
87 0.005984
94 0.004031
98 0.005007
104 0.005017
113 0.005974
124 0.006028
139 0.004969
147 0.004992
161 0.004954
168 0.004956
175 0.004987
182 0.005984
189 0.006031
196 0.005966
202 0.005028
208 0.006018
206 0.007022
171 0.006984
102 0.004966
69 0.005019
55 0.00496
51 0.004921
50 0.005041
58 0.005999
72 0.005982
86 0.005994
92 0.005984
97 0.005977
104 0.006983
113 0.007015
126 0.006023
137 0.006067
152 0.00602
159 0.005949
166 0.005915
174 0.007012
181 0.006981
187 0.007971
195 0.005983
201 0.005984
206 0.005975
212 0.006981
214 0.00702
174 0.005991
103 0.00702
64 0.006984
57 0.006981
56 0.007046
55 0.007979
57 0.007995
74 0.006886
85 0.007025
91 0.005966
96 0.006986
103 0.007981
111 0.006016
129 0.00801
140 0.006953
149 0.00698
158 0.006993
167 0.007977
173 0.007978
182 0.006945
188 0.006982
194 0.00698
198 0.007979
203 0.007979
210 0.007054
208 0.007953
171 0.006983
115 0.007019
72 0.00703
51 0.007977
52 0.007021
56 0.006987
62 0.007
74 0.006978
83 0.007014
87 0.007988
88 0.007002
95 0.007974
107 0.005987
117 0.006952
128 0.007001
140 0.007978
148 0.007015
158 0.007016
165 0.007015
172 0.006984
179 0.007039
184 0.007011
191 0.006971
198 0.006979
195 0.006935
157 0.007
103 0.006976
55 0.006976
46 0.007035
48 0.006981
54 0.007026
61 0.006984
72 0.007012
81 0.007013
86 0.007013
92 0.006972
99 0.007006
112 0.007027
122 0.006035
131 0.006015
140 0.006019
148 0.006044
157 0.006035
164 0.00602
171 0.007023
177 0.007019
183 0.00701
190 0.007007
196 0.006019
189 0.005932
143 0.005986
86 0.006017
46 0.006033
32 0.006022
32 0.006029
34 0.006029
38 0.006018
50 0.006016
61 0.00603
70 0.00502
74 0.005019
83 0.005032
93 0.005022
105 0.006028
116 0.006028
126 0.006029
136 0.005998
145 0.006014
153 0.006014
160 0.005019
168 0.004986
177 0.005033
183 0.005012
191 0.00502
180 0.005014
134 0.004985
78 0.004992
42 0.00502
27 0.005022
27 0.005984
28 0.005986
33 0.005025
44 0.006027
62 0.005047
66 0.005017
72 0.004956
78 0.005004
89 0.00502
99 0.005019
109 0.005062
119 0.00498
130 0.005018
137 0.005029
144 0.005017
152 0.003987
162 0.004023
170 0.003987
171 0.00399
127 0.004025
75 0.00404
39 0.005005
25 0.005028
25 0.005021
28 0.005046
33 0.004986
47 0.005033
57 0.004036
64 0.00402
69 0.003991
76 0.004056
90 0.004001
102 0.004018
112 0.004034
122 0.003991
131 0.003987
142 0.003955
149 0.00399
157 0.00404
165 0.004022
173 0.00405
151 0.004045
98 0.00402
37 0.00402
21 0.003991
20 0.003991
21 0.003991
24 0.004021
39 0.00402
53 0.003019
61 0.002992
66 0.00399
75 0.003039
84 0.004018
96 0.004005
110 0.003991
119 0.003991
128 0.00399
137 0.004042
145 0.003027
154 0.004016
160 0.002993
166 0.003004
174 0.002993
167 0.003017
119 0.002992
61 0.002992
25 0.002992
13 0.002992
12 0.002992
13 0.003028
20 0.002037
36 0.002034
55 0.003061
62 0.003022
65 0.002047
77 0.002993
89 0.002992
100 0.002993
111 0.002992
123 0.002992
132 0.003012
139 0.003028
147 0.003027
154 0.002992
161 0.003
168 0.001992
175 0.002025
164 0.001989
113 0.00205
59 0.001995
30 0.001943
23 0.002027
25 0.002027
28 0.002992
39 0.00303
54 0.001999
67 0.001995
70 0.001995
74 0.002033
87 0.002026
99 0.002001
111 0.001954
122 0.001995
134 0.001995
142 0.002014
150 0.002036
158 0.000999
166 0.000999
176 0.000997
181 0.000966
171 0.000998
87 0.002026
47 0.002
32 0.001996
32 0.001995
34 0.002074
41 0.002034
57 0.001995
73 0.000998
83 0.001032
87 0.000998
92 0.000998
101 0.000997
120 0.001031
131 0.000998
141 0.000997
149 0.000998
158 0.000998
168 0.001996
176 0.000999
182 0.000997
188 0.001003
195 0.000999
204 0.000997
194 0.000997
100 0.00103
53 0.000998
34 0.000997
31 0.000997
29 0.000997
33 0.000998
47 0.0
64 0.0
78 0.0
85 0.0
92 0.0
100 0.0
118 0.0
131 0.0
142 0.0
150 0.0
158 0.0
169 0.0
176 0.0
182 0.0
189 0.0
194 0.0
203 0.0
207 0.0
149 0.0
88 0.0
50 0.0
39 0.0
41 0.0
43 0.0
51 0.0
70 0.0
81 0.0
86 0.0
89 0.000994
95 0.000997
111 0.000986
123 0.000997
137 0.0
147 0.0
155 0.0
163 0.001028
170 0.001028
179 0.0
186 0.0
193 0.0
193 0.000997
160 0.001033
71 0.000998
45 0.001076
41 0.000998
48 0.0
54 0.0
67 0.0
82 0.000998
92 0.001032
97 0.000997
102 0.0
110 0.0
121 0.002028
141 0.0
152 0.001029
161 0.00103
172 0.0
180 0.0
185 0.0
191 0.001053
196 0.00199
204 0.002016
210 0.000967
199 0.000998
147 0.001996
56 0.001028
36 0.002033
32 0.002006
32 0.001006
35 0.000947
48 0.000942
64 0.001053
75 0.002036
83 0.000957
87 0.001024
96 0.000931
107 0.002065
128 0.000969
139 0.002026
149 0.001994
160 0.000976
169 0.000967
176 0.000956
182 0.003036
188 0.001996
197 0.002036
202 0.002034
193 0.002021
146 0.003019
53 0.001976
31 0.003027
27 0.002991
29 0.000995
34 0.001992
44 0.001984
56 0.001995
61 0.002035
60 0.000998
60 0.002027
66 0.001879
75 0.003034
95 0.001995
106 0.002997
117 0.003028
128 0.001047
133 0.002014
139 0.002041
146 0.002056
155 0.003026
165 0.002992
153 0.00208
102 0.002045
50 0.001956
20 0.001995
23 0.00202
29 0.004033
37 0.003989
58 0.002056
70 0.002005
77 0.001984
82 0.003989
88 0.00399
102 0.001994
114 0.001951
126 0.002031
145 0.00197
154 0.002048
163 0.003958
172 0.003992
183 0.003035
190 0.003031
196 0.003036
204 0.003997
208 0.004032
163 0.003076
98 0.003024
51 0.001985
30 0.001995
31 0.001998
33 0.002992
42 0.003994
63 0.003014
75 0.003002
83 0.003027
86 0.00402
92 0.004017
106 0.003067
118 0.003044
129 0.003028
145 0.003989
155 0.003989
163 0.004987
172 0.005008
182 0.003031
189 0.00297
195 0.003008
201 0.004041
207 0.00404
200 0.002997
150 0.002992
84 0.003009
30 0.003017
26 0.003998
24 0.005022
23 0.005018
29 0.004032
40 0.004037
48 0.004023
51 0.004985
54 0.004986
62 0.004987
77 0.003022
89 0.003
110 0.004027
120 0.004025
130 0.003999
139 0.005027
148 0.004989
158 0.003996
165 0.00403
172 0.004018
181 0.005049
188 0.004991
164 0.005024
106 0.005054
28 0.005028
16 0.005033
19 0.003977
24 0.005992
31 0.005984
49 0.004032
64 0.003974
78 0.004018
88 0.005036
98 0.005032
116 0.004005
131 0.004973
152 0.005004
160 0.00499
167 0.004996
176 0.005984
185 0.005984
195 0.005012
201 0.00502
208 0.005031
214 0.005984
220 0.005981
209 0.006
157 0.005003
63 0.004981
42 0.005005
38 0.004981
41 0.006047
42 0.005985
57 0.005976
73 0.005008
84 0.004987
88 0.006014
92 0.007023
102 0.006005
112 0.005943
131 0.006042
142 0.004947
150 0.006006
159 0.006981
167 0.006981
178 0.004995
185 0.004999
191 0.004988
197 0.004992
204 0.007021
212 0.006981
194 0.005977
115 0.007015
52 0.005982
36 0.005997
32 0.006032
31 0.007017
34 0.007018
52 0.006009
68 0.006018
79 0.007005
83 0.007961
86 0.007979
94 0.005988
112 0.007957
124 0.006004
134 0.006008
141 0.005989
149 0.006981
156 0.007978
165 0.00599
171 0.006982
176 0.006981
181 0.007978
188 0.007979
195 0.006984
146 0.007986
67 0.006981
34 0.006029
25 0.006015
29 0.007977
31 0.007012
44 0.006932
57 0.006971
63 0.006963
67 0.007015
67 0.00795
72 0.006955
90 0.007014
102 0.006998
116 0.006975
125 0.006976
135 0.007013
144 0.007013
156 0.007025
162 0.007002
167 0.00697
178 0.007013
186 0.007012
173 0.006953
82 0.007011
40 0.006988
24 0.00699
23 0.006991
25 0.007019
30 0.007005
45 0.007012
63 0.006982
70 0.006959
74 0.006967
79 0.007014
89 0.007012
110 0.007013
121 0.007027
133 0.006976
143 0.006014
154 0.006987
163 0.007012
171 0.006011
179 0.006014
184 0.006016
190 0.006009
198 0.006974
189 0.007072
97 0.007048
50 0.00702
27 0.006988
24 0.006981
23 0.006979
26 0.006019
40 0.006018
62 0.005986
73 0.005984
80 0.006044
85 0.006017
95 0.005979
116 0.006011
127 0.005978
142 0.005984
152 0.005018
160 0.006019
168 0.005982
174 0.005042
183 0.006039
190 0.006026
196 0.006036
202 0.005995
189 0.006031
97 0.006017
54 0.006045
39 0.006018
40 0.006017
40 0.005974
47 0.005056
61 0.005025
80 0.005021
86 0.005029
88 0.005029
93 0.005032
102 0.005017
122 0.004992
136 0.006027
149 0.006024
155 0.005031
162 0.005014
170 0.00502
177 0.005039
183 0.005017
190 0.00502
200 0.005033
200 0.005019
166 0.005026
73 0.005019
46 0.004024
42 0.004021
46 0.004021
51 0.004022
63 0.004972
78 0.003995
89 0.005019
96 0.005015
100 0.004967
108 0.004997
119 0.004995
141 0.004985
151 0.004989
160 0.004037
171 0.004014
180 0.003996
190 0.004024
197 0.00399
201 0.003993
210 0.003961
217 0.004035
222 0.003932
208 0.00395
108 0.005015
57 0.003996
36 0.003989
30 0.004021
28 0.00402
30 0.00399
42 0.004006
57 0.003994
73 0.004021
79 0.003992
84 0.00399
93 0.003965
115 0.003029
128 0.002994
140 0.002992
152 0.002993
162 0.002992
170 0.002994
177 0.002992
185 0.003991
194 0.003991
200 0.004033
206 0.003958
210 0.002993
143 0.002994
79 0.002992
42 0.002992
33 0.002998
35 0.002992
37 0.002992
46 0.003029
61 0.004021
78 0.004041
85 0.00399
87 0.004029
91 0.002057
110 0.002994
123 0.002994
135 0.002994
144 0.003988
155 0.003039
164 0.002046
172 0.002031
179 0.002049
186 0.002993
196 0.003052
203 0.00305
192 0.003026
97 0.003026
52 0.002992
36 0.003025
37 0.00203
44 0.001999
51 0.001995
67 0.001995
81 0.002029
90 0.002025
96 0.001995
102 0.001993
110 0.001968
131 0.002015
144 0.002007
156 0.003002
164 0.001988
175 0.002027
185 0.001995
193 0.001995
199 0.001995
204 0.001995
214 0.001997
219 0.002055
206 0.001996
101 0.001959
50 0.001997
31 0.001996
29 0.00105
30 0.000997
35 0.000998
49 0.000998
65 0.000998
78 0.000991
83 0.000999
87 0.001028
95 0.002054
114 0.001997
126 0.001995
137 0.001991
145 0.001963
156 0.000998
165 0.001025
172 0.000973
179 0.000973
186 0.000991
195 0.001038
202 0.001027
203 0.000982
118 0.002031
57 0.000997
29 0.000997
24 0.000998
27 0.00103
33 0.000999
46 0.000998
62 0.000966
73 0.0
76 0.0
80 0.0
87 0.0
107 0.0
120 0.0
132 0.0
142 0.000997
152 0.001012
163 0.001012
171 0.001003
179 0.000997
187 0.0
196 0.0
199 0.0
162 0.0
63 0.0
36 0.0
34 0.0
39 0.0
44 0.0
59 0.0
77 0.000998
93 0.000997
97 0.000998
102 0.0
110 0.0
121 0.000982
142 0.0
152 0.001034
163 0.0
172 0.0
181 0.0
189 0.00103
197 0.001034
205 0.0
212 0.0
219 0.0
219 0.001004
178 0.000965
69 0.001
39 0.000985
32 0.0
34 0.0
35 0.000999
49 0.002004
67 0.002036
82 0.00203
93 0.0
97 0.0
102 0.0
112 0.001015
134 0.0
145 0.002035
155 0.002029
167 0.000962
174 0.0
183 0.0
189 0.001031
196 0.001036
204 0.0
209 0.000998
219 0.000941
213 0.002027
112 0.0
57 0.000998
36 0.000965
38 0.0
43 0.0
46 0.000998
60 0.001002
74 0.000957
85 0.001011
87 0.0
91 0.0
99 0.001964
122 0.002037
136 0.001967
146 0.002029
159 0.001054
167 0.001039
176 0.001016
184 0.001993
193 0.002015
205 0.001042
202 0.000997
157 0.002022
91 0.002985
37 0.000994
37 0.003037
44 0.003026
55 0.000988
70 0.000993
87 0.001992
99 0.00202
100 0.001995
104 0.000999
115 0.001996
127 0.001983
139 0.002992
158 0.000975
167 0.003025
175 0.003035
186 0.001026
196 0.001018
205 0.000976
210 0.003003
183 0.002974
95 0.000993
48 0.00198
32 0.002006
33 0.0
41 0.002
51 0.002016
70 0.003053
86 0.002992
97 0.002018
100 0.002028
107 0.002004
117 0.00304
130 0.004005
149 0.002015
161 0.002
172 0.001032
187 0.001971
196 0.001961
205 0.00399
213 0.004027
223 0.002019
190 0.001998
223 0.00197
166 0.002992
93 0.003036
40 0.002992
33 0.00295
35 0.001944
39 0.002042
52 0.002061
70 0.004012
85 0.003989
97 0.002032
101 0.002036
109 0.002039
121 0.004027
135 0.005024
155 0.001995
169 0.00301
180 0.00296
195 0.002976
204 0.00299
212 0.004021
219 0.003988
229 0.003004
238 0.002995
243 0.00298
214 0.004031
140 0.003945
60 0.002971
40 0.001999
39 0.003022
45 0.003039
55 0.002993
72 0.003991
90 0.004041
105 0.003989
110 0.003989
116 0.002985
126 0.004987
139 0.004989
158 0.004019
171 0.002996
182 0.003
199 0.00302
209 0.003001
218 0.004987
226 0.005042
233 0.004986
242 0.002989
249 0.002989
255 0.004001
249 0.004945
193 0.005938
96 0.003994
59 0.003991
56 0.004032
63 0.003989
72 0.004007
86 0.004996
99 0.00499
108 0.004005
111 0.004022
115 0.00399
124 0.005985
136 0.006017
154 0.004038
167 0.003971
184 0.003972
194 0.003995
202 0.003989
210 0.005984
218 0.005984
229 0.004053
237 0.003979
184 0.004
168 0.006022
132 0.005978
93 0.004988
84 0.004992
88 0.004956
92 0.004943
98 0.005004
105 0.006021
111 0.006039
114 0.005041
117 0.004983
121 0.004029
126 0.007032
132 0.006984
141 0.004955
146 0.005
154 0.004983
158 0.005026
162 0.004961
166 0.006052
170 0.005994
175 0.004985
176 0.004959
161 0.004018
125 0.006017
94 0.007009
79 0.005003
79 0.005011
83 0.005037
89 0.004965
97 0.005019
103 0.005023
107 0.006982
109 0.007014
113 0.004994
118 0.004993
125 0.005011
134 0.007987
139 0.007972
144 0.005984
152 0.007045
158 0.005981
162 0.005993
166 0.005973
169 0.006981
170 0.006982
142 0.004974
108 0.006008
86 0.005986
80 0.007984
83 0.007991
87 0.005945
96 0.00794
105 0.005989
109 0.00599
111 0.005993
113 0.008001
117 0.006994
124 0.006984
131 0.006982
137 0.006982
144 0.007988
153 0.007981
161 0.006952
170 0.007975
176 0.005946
181 0.006077
173 0.005982
122 0.00798
95 0.00798
70 0.005982
70 0.006944
76 0.006949
85 0.00801
91 0.007979
102 0.007006
108 0.007979
110 0.007005
115 0.007013
122 0.006988
130 0.007978
141 0.007978
148 0.007088
154 0.006981
162 0.006965
168 0.007012
173 0.006984
178 0.006932
188 0.006973
189 0.005994
165 0.006971
103 0.006974
72 0.007011
62 0.006981
62 0.00703
65 0.006918
71 0.00699
77 0.006983
89 0.007
94 0.007001
98 0.00703
103 0.007039
111 0.00698
122 0.006958
129 0.006997
136 0.007048
143 0.006033
151 0.005986
157 0.006016
162 0.00599
167 0.005969
172 0.006016
179 0.007015
157 0.007038
98 0.006989
70 0.006948
62 0.006993
63 0.007014
65 0.005994
72 0.005978
81 0.005965
90 0.006014
95 0.006015
99 0.006013
105 0.006017
113 0.005023
123 0.006019
131 0.005987
138 0.004974
145 0.004987
151 0.004996
159 0.005991
164 0.006002
169 0.006013
174 0.005984
179 0.006014
165 0.00602
124 0.006032
78 0.005975
67 0.005986
69 0.006018
73 0.005027
78 0.004992
91 0.004964
99 0.005033
104 0.004985
106 0.005022
109 0.004961
119 0.004987
127 0.006036
138 0.005945
145 0.00502
152 0.005984
158 0.005939
163 0.006013
168 0.005014
174 0.005018
179 0.005034
183 0.005017
188 0.00504
158 0.005038
111 0.005032
76 0.005018
62 0.00502
64 0.00502
67 0.004988
71 0.003931
81 0.004
93 0.004048
98 0.00399
102 0.004054
106 0.003983
118 0.004988
127 0.005035
135 0.004989
147 0.005003
154 0.005017
161 0.004021
168 0.004021
174 0.003988
181 0.004021
186 0.003976
191 0.003937
195 0.004024
164 0.004003
116 0.00404
80 0.00399
65 0.004022
66 0.00399
69 0.002955
74 0.003968
84 0.003938
97 0.003987
103 0.00401
106 0.004087
109 0.003974
120 0.00399
129 0.004029
138 0.004
148 0.003973
155 0.004024
162 0.002992
168 0.002975
173 0.003027
181 0.002998
185 0.003027
190 0.002954
196 0.002988
194 0.003997
156 0.003982
108 0.003989
73 0.003991
70 0.003952
74 0.002992
80 0.003026
87 0.003021
97 0.002958
105 0.00299
107 0.003004
109 0.003024
117 0.002992
125 0.002992
134 0.002958
143 0.001996
153 0.001997
159 0.003005
165 0.002023
171 0.002991
176 0.001961
181 0.003023
185 0.002996
190 0.001997
193 0.002992
164 0.002993
117 0.002991
81 0.003023
67 0.002034
70 0.001993
75 0.001984
82 0.002028
91 0.001995
101 0.001984
104 0.002019
106 0.001026
114 0.001992
122 0.003014
132 0.002992
140 0.00202
149 0.001991
156 0.002018
163 0.001996
168 0.002028
174 0.001975
180 0.001997
184 0.001969
188 0.002046
195 0.001987
183 0.001995
138 0.001979
91 0.001964
61 0.002006
58 0.001996
60 0.001007
64 0.000931
70 0.000998
82 0.001002
89 0.001022
93 0.001046
99 0.000998
105 0.000998
114 0.000997
122 0.002065
134 0.001998
141 0.001995
147 0.002003
153 0.001961
160 0.001032
167 0.000975
171 0.001055
176 0.000965
184 0.001997
178 0.000998
140 0.001997
94 0.001002
66 0.0
56 0.002004
59 0.0
64 0.000997
70 0.0
80 0.0
90 0.0
95 0.001013
100 0.000998
106 0.000989
113 0.00103
122 0.000997
130 0.001004
139 0.0
146 0.0
152 0.0
158 0.0
163 0.0
170 0.0
174 0.0
181 0.0
186 0.0
181 0.0
147 0.0
101 0.0
64 0.0
59 0.0
63 0.001008
66 0.0
72 0.0
84 0.000996
90 0.0
94 0.0
97 0.001018
104 0.0
112 0.0
120 0.0
131 0.000995
137 0.002027
144 0.000997
150 0.0
155 0.0
159 0.001029
163 0.002026
169 0.001038
173 0.000999
178 0.001011
172 0.000992
133 0.0
89 0.0
64 0.003049
58 0.0
64 0.0
69 0.000997
77 0.002046
84 0.002046
89 0.0
89 0.00204
92 0.002038
99 0.0
107 0.0
116 0.0
123 0.000999
130 0.002005
137 0.0
142 0.0
147 0.0
152 0.002023
159 0.000945
164 0.002004
168 0.000954
145 0.000967
102 0.0
68 0.0
55 0.00197
54 0.002038
59 0.001021
64 0.000966
73 0.000964
83 0.00202
90 0.0
92 0.00202
96 0.002043
106 0.0
115 0.000963
123 0.0
130 0.001994
137 0.001953
144 0.0
150 0.0
156 0.0
161 0.002993
167 0.0
172 0.001997
177 0.002045
169 0.00095
129 0.001983
84 0.000992
60 0.001979
53 0.003005
54 0.0
55 0.000945
61 0.0
71 0.003066
85 0.001991
88 0.00204
91 0.001995
99 0.002001
107 0.002049
115 0.000998
123 0.002963
131 0.002992
139 0.0
145 0.0
150 0.0
156 0.002992
163 0.002005
167 0.003044
171 0.002992
177 0.002988
172 0.0
136 0.0
91 0.002974
64 0.003025
55 0.004001
56 0.001032
58 0.002023
64 0.002025
81 0.001992
88 0.001994
92 0.003
94 0.002992
101 0.001935
109 0.001988
117 0.002028
125 0.003991
132 0.002995
142 0.0
147 0.002004
153 0.001965
161 0.001968
165 0.001965
169 0.00399
173 0.003991
179 0.002003
177 0.001006
146 0.001977
100 0.004031
70 0.003999
61 0.002045
65 0.003035
70 0.003015
82 0.003017
90 0.003003
95 0.003998
96 0.004021
100 0.002934
105 0.00299
113 0.002016
121 0.005043
130 0.005137
138 0.001961
144 0.00296
150 0.002949
158 0.00301
162 0.002983
167 0.004987
172 0.00502
176 0.002961
161 0.002946
120 0.002992
82 0.005027
63 0.004039
60 0.002055
63 0.003032
66 0.002952
81 0.002985
88 0.002984
93 0.005028
96 0.005043
99 0.005047
107 0.002978
116 0.002992
124 0.001997
131 0.004988
136 0.005986
144 0.00401
150 0.003948
158 0.003952
163 0.002989
166 0.003005
171 0.004989
176 0.00499
153 0.003996
109 0.003026
73 0.002953
57 0.004989
54 0.005986
55 0.003953
58 0.003977
74 0.003983
84 0.002992
90 0.003996
93 0.005986
97 0.005967
107 0.003967
115 0.005015
124 0.004046
132 0.005993
139 0.005019
147 0.004966
153 0.003989
161 0.003993
166 0.004997
169 0.00501
174 0.005982
179 0.005984
172 0.004957
132 0.004953
90 0.004948
67 0.005984
62 0.005957
64 0.004011
67 0.004016
81 0.004984
91 0.004987
97 0.004991
99 0.005984
102 0.006982
110 0.004986
118 0.004983
127 0.004947
136 0.007015
142 0.007019
149 0.004986
155 0.004944
163 0.00499
167 0.004987
172 0.004983
177 0.00497
174 0.006983
143 0.006984
89 0.004988
70 0.006006
67 0.004988
70 0.006984
74 0.006982
84 0.006018
98 0.007069
105 0.004978
108 0.004983
111 0.004988
117 0.006982
128 0.007977
137 0.005985
144 0.004989
151 0.005984
159 0.007978
164 0.006981
170 0.004994
178 0.007017
183 0.006
186 0.00598
192 0.005986
195 0.006982
177 0.006982
113 0.006017
78 0.005985
64 0.006005
63 0.007981
65 0.007981
69 0.005969
85 0.007969
94 0.005955
100 0.005986
103 0.005952
109 0.006981
117 0.007011
126 0.006951
135 0.006958
144 0.006952
152 0.00798
158 0.007949
167 0.006952
177 0.007975
183 0.006944
186 0.006939
191 0.006948
198 0.007012
195 0.006972
162 0.006954
112 0.006951
78 0.006956
67 0.007013
70 0.006991
74 0.006957
81 0.007978
96 0.006984
105 0.007006
107 0.006982
110 0.006965
116 0.006982
124 0.007012
133 0.006957
142 0.006948
152 0.006972
158 0.006974
164 0.006946
173 0.007012
178 0.006982
184 0.006016
188 0.006016
193 0.006015
188 0.00603
153 0.00598
93 0.007056
76 0.006983
69 0.006989
73 0.007054
78 0.00702
92 0.006958
100 0.007019
106 0.006957
107 0.006966
109 0.006981
117 0.005981
126 0.006017
138 0.006016
146 0.006026
153 0.006011
158 0.006014
164 0.006029
173 0.006013
177 0.006014
184 0.004971
187 0.005983
188 0.005029
161 0.00502
113 0.006012
71 0.006014
63 0.005984
65 0.006031
68 0.00602
71 0.006008
87 0.006017
94 0.00602
99 0.00603
102 0.005038
108 0.005004
115 0.005034
124 0.004985
135 0.00498
141 0.00502
147 0.005016
153 0.00499
159 0.00503
167 0.005985
171 0.005061
178 0.004987
182 0.00602
170 0.00601
128 0.006028
85 0.005028
64 0.005039
60 0.004986
62 0.004949
65 0.005016
72 0.004997
90 0.005047
97 0.005035
100 0.005046
105 0.003954
112 0.003974
120 0.004975
128 0.004018
136 0.003989
145 0.004042
151 0.00403
156 0.003987
162 0.003956
169 0.003952
174 0.004934
178 0.005017
173 0.005017
136 0.003989
93 0.003986
71 0.005002
68 0.003989
73 0.003989
78 0.003987
86 0.004019
96 0.004061
105 0.003991
105 0.003978
107 0.002993
115 0.002939
124 0.003959
132 0.002991
140 0.002991
147 0.003955
154 0.002948
159 0.003989
163 0.003995
169 0.004045
174 0.00395
154 0.003987
113 0.003999
75 0.003949
70 0.003966
72 0.003991
77 0.00304
83 0.00299
96 0.002999
104 0.003023
108 0.003035
109 0.003018
116 0.003988
124 0.002989
132 0.003989
142 0.003959
148 0.002993
154 0.002992
160 0.00299
165 0.003027
170 0.00299
175 0.002992
179 0.002993
183 0.00296
150 0.002963
105 0.002992
75 0.003991
65 0.003022
64 0.001995
65 0.001996
69 0.00299
79 0.003019
90 0.00197
100 0.003039
103 0.002962
106 0.002991
117 0.003013
126 0.001961
132 0.003023
140 0.002994
148 0.001982
154 0.001987
159 0.001996
165 0.002026
169 0.002026
175 0.001992
180 0.002036
172 0.001995
106 0.002008
77 0.001982
69 0.000985
70 0.001032
73 0.001027
79 0.001022
91 0.002052
102 0.002016
109 0.001966
111 0.002024
115 0.002025
122 0.002034
137 0.001967
144 0.001037
150 0.001997
156 0.001011
164 0.001959
170 0.00103
176 0.001067
182 0.001003
188 0.001026
192 0.001002
170 0.000998
129 0.001997
88 0.002025
87 0.001994
91 0.002018
95 0.001034
104 0.002037
115 0.002019
122 0.002017
126 0.001993
127 0.000996
131 0.000998
141 0.001041
150 0.001016
162 0.000992
169 0.001994
175 0.000953
181 0.001028
186 0.000987
193 0.001038
196 0.0
200 0.0
205 0.0
208 0.0
179 0.0
134 0.0
92 0.0
89 0.0
91 0.0
93 0.0
97 0.0
112 0.0
121 0.0
126 0.001005
128 0.000996
131 0.001027
140 0.000965
149 0.0
163 0.0
170 0.0
176 0.0
182 0.0
187 0.0
194 0.0
197 0.0
201 0.0
205 0.0
210 0.00099
197 0.000941
156 0.001991
99 0.00101
91 0.0
95 0.0
98 0.001004
106 0.0
115 0.001958
124 0.000992
130 0.0
131 0.0
135 0.0
141 0.002017
148 0.002032
162 0.002034
168 0.002046
174 0.0
179 0.0
185 0.000976
189 0.002038
192 0.002005
196 0.000983
200 0.001037
187 0.0
147 0.0
109 0.001991
90 0.0
95 0.002008
101 0.002005
110 0.0
119 0.0
125 0.0
128 0.002991
129 0.00203
134 0.0
141 0.0
149 0.0
157 0.002034
167 0.0
172 0.002031
178 0.002036
184 0.0
188 0.0
191 0.000999
197 0.001992
195 0.001994
152 0.0
110 0.001001
86 0.0
82 0.001984
87 0.0
90 0.001994
98 0.001948
111 0.0
116 0.0
118 0.002026
121 0.001996
126 0.002988
136 0.000965
144 0.000965
151 0.000965
157 0.002996
166 0.0
171 0.001994
175 0.001973
181 0.0
185 0.0
189 0.0
181 0.001041
145 0.003025
93 0.001024
77 0.000993
76 0.000998
79 0.003031
85 0.00096
95 0.002926
105 0.002992
113 0.000997
115 0.0
118 0.000957
123 0.002994
131 0.001992
139 0.003045
149 0.00104
155 0.000972
160 0.001989
168 0.0
171 0.001985
175 0.00298
179 0.003001
183 0.001981
171 0.001996
134 0.002011
94 0.002992
76 0.003005
78 0.000993
83 0.002032
89 0.001945
105 0.0
112 0.002029
115 0.004035
116 0.003978
120 0.000979
127 0.001053
135 0.002021
143 0.004026
149 0.003992
157 0.001995
162 0.001993
168 0.001024
175 0.001995
179 0.001967
184 0.004015
181 0.004022
134 0.001998
96 0.000999
78 0.002043
76 0.004023
82 0.004066
88 0.001992
96 0.002997
107 0.002996
115 0.001996
117 0.003018
120 0.00502
126 0.004994
137 0.002943
144 0.002952
152 0.00205
158 0.003992
163 0.00399
170 0.003022
175 0.001986
179 0.002032
186 0.002003
190 0.002997
186 0.004986
152 0.004989
93 0.003032
72 0.002036
69 0.002032
72 0.00502
75 0.004989
79 0.005022
93 0.002001
102 0.002992
108 0.002997
111 0.002983
116 0.002992
124 0.005002
133 0.004987
143 0.002979
151 0.002992
157 0.002991
163 0.005985
169 0.005019
176 0.002992
180 0.002992
187 0.002992
190 0.003989
177 0.00399
133 0.005991
90 0.005953
68 0.003979
69 0.003989
72 0.003018
76 0.004949
83 0.005049
96 0.003001
103 0.004011
108 0.004007
112 0.003983
118 0.004002
127 0.00604
136 0.005986
145 0.004002
152 0.004001
158 0.003994
163 0.005985
168 0.005986
173 0.003985
178 0.003984
184 0.002991
165 0.004024
121 0.003978
84 0.006983
70 0.005974
74 0.004006
80 0.004956
86 0.004034
95 0.006982
104 0.006988
109 0.003988
112 0.003982
119 0.005005
127 0.003977
135 0.00402
143 0.005948
149 0.005988
157 0.004996
163 0.004952
168 0.004958
172 0.004958
177 0.006985
181 0.007024
186 0.004998
173 0.007016
115 0.005988
80 0.005995
66 0.005977
67 0.006983
71 0.007968
75 0.005952
85 0.005983
96 0.005949
101 0.00695
104 0.006942
108 0.00504
117 0.006955
128 0.006005
135 0.004987
143 0.006013
149 0.006947
154 0.006983
161 0.005952
166 0.006028
171 0.005953
174 0.007981
179 0.007979
181 0.005985
140 0.007981
82 0.00598
62 0.005966
61 0.006976
64 0.007032
67 0.007993
76 0.005952
87 0.006037
95 0.00697
99 0.007949
100 0.007973
105 0.005968
119 0.007974
128 0.00695
136 0.006012
143 0.006005
150 0.00796
155 0.00797
160 0.005992
165 0.00696
171 0.006956
162 0.006984
124 0.00698
84 0.00599
61 0.007026
65 0.006967
67 0.006953
71 0.005936
84 0.006939
93 0.006947
98 0.00696
99 0.006019
102 0.006994
111 0.006973
119 0.00703
125 0.007989
140 0.006965
146 0.007021
151 0.006938
158 0.006974
161 0.006933
166 0.007027
171 0.00702
176 0.006959
179 0.006982
165 0.005971
120 0.00603
79 0.005963
56 0.006036
55 0.006027
55 0.005987
59 0.006974
70 0.006015
81 0.007024
87 0.006984
90 0.006983
95 0.006016
102 0.00599
110 0.006017
119 0.006018
132 0.005984
138 0.006014
145 0.006035
152 0.006015
157 0.005972
161 0.005984
165 0.006006
171 0.005018
175 0.005019
170 0.005987
134 0.006033
90 0.004967
59 0.006016
58 0.005016
60 0.005981
63 0.006023
73 0.006045
84 0.005983
92 0.006039
95 0.005955
99 0.005996
106 0.005972
114 0.006032
123 0.006027
135 0.004978
141 0.004986
148 0.005028
153 0.004986
158 0.005026
162 0.005006
167 0.006014
171 0.005036
177 0.00495
183 0.004955
183 0.005952
157 0.005995
87 0.005018
70 0.005043
68 0.005042
72 0.005019
75 0.005021
83 0.004989
95 0.00504
103 0.005019
109 0.004975
112 0.00502
116 0.005019
124 0.005017
139 0.00399
147 0.003966
153 0.003986
161 0.004027
167 0.004024
172 0.004964
178 0.00399
182 0.005004
187 0.004058
192 0.003987
197 0.003991
200 0.005024
147 0.004021
102 0.004027
79 0.00401
75 0.004018
77 0.003981
80 0.003982
86 0.004016
97 0.004078
109 0.003971
113 0.004041
115 0.004025
120 0.003965
133 0.003024
141 0.003959
149 0.00398
158 0.00402
164 0.003973
170 0.004028
175 0.004013
179 0.003956
184 0.00398
188 0.003943
193 0.004023
197 0.004038
178 0.00399
132 0.002993
93 0.003001
76 0.002982
78 0.003024
83 0.003029
88 0.003023
98 0.00403
106 0.002988
112 0.002992
112 0.003992
115 0.003991
126 0.003024
135 0.003048
143 0.002992
150 0.002992
158 0.003012
164 0.002991
169 0.003021
174 0.002975
178 0.002994
184 0.003026
189 0.003026
185 0.003028
121 0.002967
87 0.002007
75 0.00205
75 0.002034
80 0.00205
86 0.001959
95 0.00201
104 0.001999
109 0.001957
113 0.001999
116 0.002995
122 0.002954
135 0.003003
142 0.002989
150 0.002981
156 0.00203
163 0.002026
168 0.002049
174 0.002044
178 0.001959
181 0.002011
187 0.001995
190 0.001995
172 0.001999
100 0.001993
77 0.002007
71 0.002015
73 0.001023
76 0.001029
82 0.001008
92 0.002041
101 0.002036
106 0.001996
107 0.002029
111 0.002053
117 0.002025
131 0.000998
137 0.001013
143 0.000996
149 0.001046
156 0.001994
161 0.001045
165 0.001997
169 0.001997
173 0.0
177 0.002014
164 0.002041
123 0.001992
72 0.002032
67 0.001003
70 0.000999
74 0.001038
78 0.001027
91 0.000967
98 0.000978
101 0.00099
101 0.000998
104 0.000997
112 0.001028
121 0.000997
134 0.000997
139 0.000979
144 0.0
150 0.0
155 0.0
160 0.0
166 0.0
168 0.0
152 0.000962
112 0.0
72 0.001006
64 0.000997
68 0.001023
71 0.001028
78 0.000974
89 0.0
97 0.0
103 0.0
104 0.0
108 0.0
115 0.0
123 0.0
133 0.0
139 0.0
147 0.000965
152 0.000968
158 0.000961
163 0.001036
166 0.000961
172 0.0
176 0.0
150 0.0
106 0.0
82 0.0
62 0.000997
62 0.002037
62 0.001033
67 0.002987
78 0.0
88 0.000959
95 0.000951
99 0.002031
102 0.000995
109 0.002031
117 0.001001
128 0.0
135 0.0
141 0.002036
150 0.0
156 0.003036
161 0.00204
167 0.0
171 0.0
176 0.0
180 0.001998
179 0.001985
134 0.0
92 0.000955
71 0.0
66 0.002018
68 0.0
70 0.00198
78 0.001981
94 0.0
101 0.0
104 0.0
106 0.002029
112 0.001996
122 0.0
131 0.0
138 0.00102
145 0.002058
155 0.0
160 0.002062
165 0.001995
171 0.000987
174 0.0
179 0.001029
184 0.001917
187 0.001999
153 0.0
109 0.0
82 0.0
76 0.002026
82 0.000984
86 0.003025
95 0.002007
109 0.0
115 0.000955
117 0.0
118 0.004018
123 0.002994
134 0.0
142 0.000995
150 0.0
157 0.002003
166 0.00099
172 0.003011
177 0.003028
183 0.0
187 0.0
191 0.000959
196 0.002992
201 0.00199
187 0.001997
144 0.001994
101 0.001989
81 0.001999
79 0.002032
81 0.0
84 0.002923
93 0.003015
107 0.0
114 0.000977
116 0.002989
119 0.002992
125 0.002992
136 0.002
144 0.002004
153 0.001996
164 0.0
170 0.000965
176 0.002946
182 0.004001
188 0.001
192 0.001994
196 0.000965
202 0.004023
204 0.003983
173 0.001077
123 0.002027
88 0.002046
76 0.003001
79 0.001996
83 0.003958
89 0.004018
104 0.000951
113 0.001993
117 0.002006
119 0.003989
122 0.00399
132 0.001979
142 0.002011
150 0.002011
163 0.001973
169 0.001984
175 0.004026
180 0.00404
186 0.001988
191 0.002012
195 0.001981
200 0.00399
204 0.003999
192 0.002993
147 0.002992
103 0.001995
78 0.001997
83 0.001999
89 0.004002
95 0.005048
109 0.004047
118 0.002992
121 0.00304
122 0.004986
125 0.005046
134 0.00198
143 0.002019
152 0.001992
165 0.003027
171 0.002992
178 0.003987
183 0.005044
189 0.004942
195 0.003024
199 0.002981
203 0.002987
209 0.004026
206 0.004021
153 0.002939
104 0.002994
73 0.004006
76 0.002964
81 0.002971
87 0.005987
96 0.004975
110 0.00399
115 0.003012
118 0.002992
120 0.004986
126 0.004986
137 0.00399
147 0.002992
161 0.003957
167 0.003038
173 0.00302
180 0.005984
186 0.006027
193 0.003977
198 0.002999
204 0.003001
209 0.006019
201 0.005028
139 0.003986
93 0.004
67 0.004004
70 0.004011
75 0.003995
80 0.005985
90 0.005954
103 0.004988
107 0.005021
110 0.004004
112 0.005979
118 0.00598
130 0.003954
139 0.004042
152 0.00401
158 0.003957
165 0.00401
171 0.006044
176 0.006035
182 0.003984
186 0.004012
191 0.003985
179 0.005986
135 0.006017
78 0.003989
61 0.003989
64 0.005972
74 0.004954
82 0.004993
92 0.004945
100 0.006982
103 0.006983
105 0.004011
109 0.004035
116 0.004023
125 0.007014
135 0.00698
146 0.004986
155 0.006992
163 0.004977
168 0.004983
172 0.004984
178 0.003031
180 0.007977
154 0.005971
106 0.00499
70 0.005985
56 0.007981
61 0.007962
68 0.005016
81 0.007931
91 0.004938
97 0.004957
100 0.005984
102 0.007031
106 0.007951
116 0.005953
126 0.005954
134 0.00596
144 0.007945
148 0.007976
157 0.005957
165 0.007979
171 0.005995
177 0.005954
181 0.005954
169 0.00798
107 0.007028
67 0.005034
51 0.005998
51 0.005967
56 0.007964
60 0.007949
70 0.005985
84 0.00799
92 0.005993
95 0.005947
98 0.006021
108 0.007007
117 0.007003
126 0.005989
136 0.00601
143 0.005972
152 0.007017
158 0.007017
163 0.005995
172 0.007006
175 0.00603
156 0.005985
110 0.006962
69 0.006981
52 0.006969
54 0.007017
57 0.006976
65 0.006971
74 0.006975
85 0.007011
91 0.006984
95 0.007011
99 0.007027
107 0.005984
119 0.005984
128 0.006
136 0.006032
143 0.006017
149 0.006981
154 0.006988
160 0.00697
166 0.007008
170 0.007013
155 0.00703
110 0.00701
64 0.005982
57 0.006979
59 0.005993
65 0.006018
71 0.006019
85 0.005991
93 0.005966
95 0.00601
96 0.006019
99 0.005946
111 0.006018
120 0.006994
128 0.006964
137 0.005996
143 0.006028
149 0.005972
153 0.00602
160 0.005984
166 0.005983
169 0.005952
154 0.005978
111 0.00601
60 0.005961
56 0.005958
61 0.00601
64 0.005019
71 0.005016
82 0.005025
91 0.005021
96 0.004987
98 0.005032
103 0.004988
110 0.006025
118 0.006037
132 0.006021
139 0.005991
144 0.004962
152 0.005011
157 0.005018
162 0.005023
166 0.005023
171 0.005015
173 0.005018
146 0.00502
99 0.004974
65 0.004029
53 0.004981
55 0.003989
58 0.00399
69 0.004045
81 0.004987
91 0.003982
96 0.005042
98 0.005016
104 0.005019
112 0.003989
121 0.005016
129 0.005016
142 0.004987
148 0.004059
154 0.003951
160 0.004024
165 0.004069
170 0.004022
174 0.00399
179 0.003989
162 0.003988
117 0.003988
79 0.003988
65 0.004023
69 0.003967
74 0.004031
81 0.00399
95 0.003989
103 0.003993
106 0.003961
106 0.004069
110 0.003993
120 0.003991
129 0.002992
137 0.002994
144 0.002953
155 0.003981
161 0.003952
165 0.003989
171 0.003989
176 0.003988
181 0.003999
179 0.004027
152 0.00399
95 0.003956
72 0.004032
70 0.003993
75 0.003947
83 0.004041
93 0.003025
103 0.002971
110 0.002955
113 0.002992
116 0.003002
121 0.002997
130 0.002988
138 0.002992
149 0.003913
155 0.003963
162 0.003991
171 0.002002
176 0.003022
180 0.002993
184 0.003029
190 0.003029
193 0.002992
173 0.003018
127 0.002992
86 0.002992
69 0.003991
71 0.003018
74 0.002992
84 0.003014
95 0.002024
105 0.002047
111 0.001954
113 0.001996
117 0.002041
123 0.002058
132 0.002993
141 0.003037
152 0.002992
159 0.003028
165 0.001961
174 0.002056
178 0.000949
182 0.002017
186 0.001994
192 0.001995
187 0.002052
149 0.001973
103 0.002058
78 0.002045
75 0.002031
81 0.001996
87 0.001995
103 0.001994
112 0.001026
116 0.001049
117 0.000943
121 0.001949
128 0.000997
137 0.000998
146 0.002027
154 0.001953
163 0.002
170 0.000997
175 0.001994
184 0.000993
189 0.001995
193 0.001003
194 0.000991
169 0.000998
108 0.001972
82 0.001
77 0.000998
83 0.001026
90 0.000997
100 0.00202
111 0.002028
122 0.001025
124 0.001025
126 0.001015
131 0.0
140 0.00103
151 0.000997
160 0.000998
167 0.000997
173 0.000997
179 0.000997
186 0.002039
190 0.000997
198 0.000993
202 0.0
193 0.0
152 0.0
106 0.0
76 0.000998
76 0.0
80 0.0
84 0.0
91 0.0
105 0.0
113 0.0
119 0.0
122 0.0
129 0.0
137 0.0
145 0.0
156 0.001003
162 0.000997
168 0.000114
173 0.0
178 0.0
183 0.000999
186 0.0
194 0.003031
190 0.0
153 0.0
106 0.0
78 0.00101
73 0.0
78 0.002028
84 0.000991
89 0.001
103 0.001007
111 0.001995
113 0.002998
116 0.002052
123 0.0
131 0.003039
142 0.0
149 0.0
155 0.0
160 0.002027
166 0.002029
172 0.0
176 0.0
179 0.0
184 0.002031
188 0.0
164 0.002031
117 0.002031
76 0.0
70 0.0
75 0.0
80 0.002031
87 0.002031
101 0.0
109 0.0
113 0.0
114 0.003023
121 0.000961
129 0.003034
138 0.002018
148 0.00198
154 0.0
161 0.0
167 0.002038
172 0.003026
178 0.0
182 0.0
185 0.0
189 0.001981
194 0.000945
178 0.001989
132 0.002029
79 0.0
67 0.0
67 0.000951
71 0.002978
74 0.00203
85 0.0
95 0.0
102 0.0
103 0.002031
107 0.0
114 0.001959
123 0.003027
134 0.0
140 0.0
146 0.0
151 0.00199
156 0.00196
162 0.0
166 0.0
171 0.0
175 0.001964
163 0.0
122 0.002961
84 0.002959
66 0.002992
67 0.002009
71 0.003014
75 0.0
84 0.002638
95 0.003959
104 0.001992
106 0.001988
108 0.001983
118 0.00096
127 0.002987
137 0.002991
144 0.003025
152 0.001995
159 0.00298
164 0.002942
168 0.002941
173 0.003026
178 0.003024
183 0.001962
188 0.002029
176 0.001046
132 0.000997
89 0.004002
68 0.004036
66 0.002026
68 0.001995
70 0.001986
77 0.00407
89 0.004024
100 0.001992
105 0.001991
107 0.002976
116 0.002973
124 0.001041
133 0.003031
140 0.003041
149 0.001996
155 0.002004
161 0.001995
166 0.003951
171 0.003956
175 0.001989
179 0.003025
183 0.001996
189 0.00298
174 0.004019
129 0.003948
86 0.004001
64 0.002984
63 0.002989
65 0.002991
67 0.003989
74 0.004044
88 0.002999
96 0.002024
98 0.001973
102 0.002037
108 0.002961
117 0.005018
125 0.005019
133 0.005018
141 0.002014
147 0.002004
152 0.001985
156 0.004023
161 0.004023
166 0.003005
170 0.003011
178 0.003959
173 0.003975
138 0.002978
93 0.00501
68 0.005029
65 0.002992
70 0.002031
74 0.002961
82 0.005983
92 0.00603
102 0.002951
104 0.003011
107 0.003006
113 0.004019
122 0.002967
130 0.005069
138 0.005073
147 0.003045
153 0.003059
158 0.003069
164 0.005022
168 0.006028
173 0.003998
178 0.003
178 0.002959
146 0.003042
101 0.003041
72 0.006029
65 0.006016
68 0.002995
71 0.002987
77 0.004003
89 0.006023
99 0.006033
106 0.003999
107 0.003984
115 0.003996
123 0.004032
132 0.003995
140 0.006004
146 0.006027
154 0.002978
160 0.003995
165 0.003983
170 0.007063
174 0.007012
179 0.003991
182 0.003978
191 0.003983
192 0.003953
164 0.003988
114 0.006049
77 0.006018
61 0.003998
62 0.004979
65 0.004999
68 0.005005
78 0.006995
89 0.006983
99 0.00399
102 0.007031
107 0.004051
114 0.004036
123 0.00399
132 0.007948
140 0.007956
148 0.004946
154 0.005007
159 0.004987
164 0.006989
168 0.007013
173 0.004987
179 0.007039
185 0.004958
190 0.004944
182 0.004987
142 0.007029
95 0.007027
67 0.005005
67 0.005005
72 0.004985
77 0.007016
85 0.006946
98 0.004955
107 0.00798
108 0.005025
112 0.005983
117 0.004954
129 0.007979
139 0.007987
147 0.004987
154 0.004997
160 0.004991
166 0.007957
171 0.008007
177 0.00498
183 0.007979
188 0.005955
193 0.005975
199 0.005984
195 0.007936
157 0.007005
105 0.005976
75 0.006
66 0.00599
72 0.007976
77 0.007996
84 0.006002
102 0.007971
109 0.006005
113 0.006977
114 0.005997
120 0.007964
129 0.006977
138 0.007017
147 0.00695
156 0.006955
161 0.005994
169 0.006935
175 0.006939
183 0.007012
187 0.007012
191 0.005981
196 0.006961
202 0.006948
204 0.006973
177 0.007012
122 0.005983
80 0.006953
62 0.00697
66 0.007015
71 0.006982
81 0.006986
92 0.007029
101 0.005982
105 0.005999
106 0.005987
111 0.006024
118 0.005985
130 0.005978
140 0.005979
147 0.005975
154 0.005979
160 0.005981
169 0.006986
173 0.006984
178 0.006978
183 0.006934
187 0.005949
188 0.006023
162 0.006056
96 0.006986
67 0.00597
60 0.005989
67 0.005985
74 0.00706
89 0.006017
99 0.005022
105 0.005985
105 0.004986
107 0.004987
112 0.006014
121 0.006019
133 0.005991
141 0.00599
148 0.005984
155 0.006015
161 0.006016
170 0.005029
174 0.005023
180 0.004977
184 0.00495
168 0.004973
123 0.005023
80 0.004956
58 0.004996
59 0.004988
65 0.005977
69 0.005961
78 0.005991
94 0.005985
99 0.00601
101 0.006007
105 0.005977
112 0.004977
121 0.004971
130 0.005019
138 0.005019
146 0.00499
153 0.004959
158 0.004987
163 0.005018
171 0.004994
175 0.004969
174 0.004988
128 0.00399
82 0.00399
58 0.004987
53 0.004021
56 0.003987
59 0.004999
66 0.004986
78 0.004999
88 0.004999
95 0.004981
97 0.00399
102 0.005044
113 0.004025
121 0.003997
130 0.004009
137 0.003991
144 0.004026
151 0.004033
156 0.003975
160 0.00402
164 0.004989
172 0.004047
175 0.004035
155 0.00399
93 0.004023
64 0.003992
57 0.004021
61 0.004026
66 0.004021
76 0.004044
86 0.004023
95 0.004022
99 0.004068
102 0.004024
106 0.002992
114 0.00302
126 0.003057
134 0.004003
141 0.00406
146 0.003962
152 0.004019
159 0.004024
163 0.004023
168 0.00296
173 0.004003
169 0.004024
133 0.003028
89 0.002992
66 0.002993
64 0.003003
69 0.002986
74 0.003027
82 0.004028
93 0.002971
102 0.003965
105 0.002992
107 0.003992
117 0.001994
125 0.00301
135 0.002992
142 0.002991
152 0.003036
158 0.003024
163 0.002968
169 0.003025
173 0.003034
178 0.003025
182 0.002959
187 0.002026
180 0.003026
136 0.002029
88 0.001995
64 0.002048
60 0.002003
63 0.002026
65 0.001996
72 0.002002
84 0.002036
97 0.002023
102 0.001997
103 0.001005
112 0.002994
120 0.002033
129 0.001995
138 0.002028
148 0.00201
154 0.001995
159 0.002028
164 0.001995
169 0.001989
174 0.002005
178 0.002048
183 0.001977
176 0.002027
133 0.001994
88 0.002029
66 0.001033
64 0.000998
69 0.001032
75 0.002004
83 0.000998
95 0.001
105 0.000997
107 0.001007
108 0.002026
117 0.002015
126 0.001083
135 0.002036
143 0.002042
150 0.002
158 0.001
163 0.000997
167 0.000998
172 0.000997
176 0.000998
182 0.001995
187 0.001988
157 0.002025
108 0.000998
74 0.000998
64 0.000997
67 0.0
74 0.0
79 0.0
90 0.0
100 0.000998
106 0.000997
109 0.000997
112 0.000998
125 0.000998
134 0.000997
143 0.0
150 0.0
156 0.0
165 0.0
170 0.0
175 0.0
179 0.0
183 0.0
189 0.0
193 0.0
145 0.000998
95 0.0
68 0.0
62 0.0
64 0.000999
68 0.0
74 0.0
85 0.0
95 0.0
101 0.0
104 0.0
107 0.0
119 0.002039
128 0.002029
137 0.000957
146 0.001
152 0.000971
158 0.002022
163 0.002025
169 0.001034
173 0.0
177 0.0
182 0.0
181 0.003036
118 0.0
79 0.003023
64 0.003033
67 0.0
73 0.0
79 0.0
89 0.003029
99 0.002029
105 0.0
106 0.0
109 0.0
114 0.002026
129 0.0
137 0.002042
145 0.002021
153 0.0
160 0.0
166 0.000995
170 0.002033
174 0.002029
182 0.000981
184 0.001007
167 0.0
122 0.003026
71 0.0
68 0.003051
71 0.003024
77 0.0
85 0.000965
97 0.00095
104 0.002028
110 0.002025
113 0.0
117 0.000961
124 0.0
132 0.002029
145 0.000938
152 0.003039
159 0.003022
169 0.0
175 0.0
180 0.0
184 0.002999
189 0.003008
194 0.001
186 0.0
142 0.001002
94 0.001994
63 0.0
64 0.001997
67 0.001992
74 0.000948
84 0.000984
95 0.0
102 0.00199
105 0.002995
107 0.0
113 0.0
121 0.0
130 0.0
145 0.0
151 0.0
157 0.003038
162 0.002994
168 0.0
173 0.0
178 0.0
181 0.003051
162 0.003001
104 0.002007
75 0.001996
69 0.0
79 0.002981
88 0.002959
98 0.002993
109 0.003003
115 0.0
114 0.001981
115 0.002992
119 0.004046
127 0.004025
140 0.002002
149 0.001995
155 0.001962
166 0.001994
171 0.0
177 0.003986
182 0.004049
164 0.002955
120 0.001993
86 0.0
73 0.004032
75 0.003942
85 0.002023
91 0.002066
103 0.002998
116 0.002015
119 0.001998
120 0.004024
124 0.00401
134 0.002999
142 0.003001
150 0.002023
157 0.00399
164 0.004025
171 0.002992
177 0.002994
182 0.003026
190 0.002989
193 0.002995
176 0.003975
129 0.004023
78 0.001984
66 0.001993
67 0.002025
70 0.004038
73 0.004022
81 0.005027
96 0.002014
104 0.002992
109 0.001998
112 0.001987
118 0.001993
127 0.004987
136 0.005062
147 0.002996
154 0.003006
159 0.002976
165 0.003977
171 0.005036
178 0.002995
182 0.002998
183 0.002955
151 0.001981
105 0.001982
75 0.005021
67 0.005013
68 0.002998
70 0.002003
76 0.001988
88 0.005021
100 0.006018
109 0.002965
112 0.003988
119 0.00299
127 0.002997
136 0.003041
144 0.005957
152 0.006052
160 0.003014
166 0.00396
172 0.004004
176 0.004982
181 0.006028
187 0.003958
191 0.00304
164 0.002999
116 0.003009
83 0.002989
73 0.006015
76 0.005985
84 0.004
91 0.002991
101 0.002963
110 0.006983
115 0.006017
115 0.001971
119 0.003974
130 0.003994
139 0.003934
147 0.003992
154 0.006015
160 0.006041
168 0.004004
173 0.003961
178 0.004
183 0.007014
188 0.00699
177 0.004015
136 0.004014
86 0.006047
74 0.003997
80 0.003982
86 0.003986
95 0.005947
105 0.007142
114 0.003959
117 0.004001
118 0.004013
123 0.007991
127 0.007981
139 0.004955
150 0.007025
159 0.004976
165 0.005004
171 0.005
177 0.007014
182 0.006975
188 0.003981
193 0.004982
194 0.003991
170 0.007013
120 0.007988
74 0.004997
68 0.007979
72 0.005002
77 0.004986
86 0.004997
98 0.007965
106 0.007039
111 0.004989
114 0.004977
119 0.003974
126 0.007014
135 0.00798
147 0.005996
159 0.007947
165 0.004988
172 0.004983
178 0.004955
183 0.007987
188 0.007972
195 0.004983
197 0.004022
171 0.004982
121 0.008012
76 0.007988
69 0.005994
77 0.007931
83 0.005988
93 0.005986
103 0.005995
112 0.007908
114 0.007969
117 0.006011
122 0.005955
129 0.004975
140 0.007938
148 0.00697
157 0.005986
168 0.006955
174 0.00696
179 0.005978
184 0.005994
189 0.005957
195 0.007058
190 0.006981
153 0.006001
106 0.006004
79 0.005949
75 0.007977
83 0.007008
99 0.006981
107 0.007972
117 0.006954
118 0.006983
118 0.00695
122 0.006984
128 0.007033
137 0.005981
146 0.006017
154 0.005981
163 0.007013
169 0.007012
179 0.006983
183 0.005985
190 0.005984
191 0.005966
165 0.005974
116 0.005987
81 0.007027
68 0.006983
71 0.006978
78 0.00615
89 0.006998
100 0.006982
110 0.006985
112 0.007028
115 0.006981
118 0.005986
128 0.00595
138 0.006035
146 0.006017
155 0.005964
162 0.005979
169 0.005977
175 0.006023
180 0.006014
188 0.005989
191 0.005985
155 0.005009
104 0.004957
71 0.006009
60 0.00604
63 0.00602
70 0.005969
77 0.005935
87 0.006016
96 0.005019
102 0.00498
107 0.004989
112 0.005019
121 0.005013
132 0.00497
140 0.004945
149 0.005034
156 0.005022
162 0.00502
169 0.004946
174 0.003947
179 0.006024
183 0.005998
188 0.005971
165 0.006028
117 0.004964
71 0.005022
64 0.004986
68 0.00494
75 0.005019
83 0.005
97 0.004987
104 0.004986
108 0.004988
108 0.004987
116 0.004987
125 0.005001
134 0.004005
144 0.00399
151 0.003989
157 0.00399
163 0.004988
168 0.005013
175 0.004982
179 0.004991
185 0.004973
186 0.004996
131 0.004986
89 0.003992
69 0.00399
71 0.003975
78 0.004027
86 0.003984
96 0.003991
106 0.004037
111 0.003989
112 0.004988
114 0.002992
120 0.003964
133 0.004049
141 0.004025
148 0.00399
156 0.004018
162 0.004035
168 0.003989
174 0.004074
178 0.004053
183 0.004006
188 0.003958
191 0.003957
177 0.003
98 0.002977
67 0.002993
60 0.002992
63 0.002996
70 0.003023
76 0.002923
87 0.003022
96 0.002992
100 0.004015
104 0.002017
107 0.003031
114 0.001999
129 0.00399
137 0.00399
145 0.003978
151 0.002995
159 0.003019
166 0.003026
171 0.00302
176 0.003037
180 0.002996
186 0.003027
191 0.003048
189 0.00299
120 0.003027
78 0.00299
61 0.002992
61 0.002992
68 0.003024
73 0.002989
83 0.001995
93 0.002001
100 0.001997
103 0.00204
107 0.002036
112 0.002011
126 0.002026
135 0.002039
143 0.002027
150 0.002004
158 0.003027
164 0.002028
169 0.002028
173 0.002032
178 0.002029
183 0.002979
188 0.001969
178 0.001993
106 0.002057
75 0.001959
68 0.00203
74 0.002067
85 0.002043
94 0.001962
104 0.001956
110 0.001994
112 0.002027
113 0.000986
117 0.001986
124 0.001047
139 0.000954
147 0.000998
154 0.001003
160 0.001
166 0.002028
173 0.002041
178 0.002026
182 0.002037
186 0.001015
190 0.001994
168 0.000957
119 0.001045
69 0.000999
66 0.000997
72 0.002042
79 0.0
86 0.002045
99 0.002055
105 0.002029
108 0.0
109 0.001041
114 0.0
123 0.0
132 0.000999
146 0.000997
153 0.000996
159 0.000998
164 0.001054
170 0.000997
176 0.0
180 0.0
184 0.0
188 0.0
182 0.0
126 0.0
83 0.0
60 0.0
63 0.0
68 0.0
74 0.0
84 0.0
97 0.0
102 0.0
104 0.0
107 0.000963
113 0.0
124 0.0
133 0.0
145 0.000997
152 0.0
158 0.000997
163 0.0
168 0.000997
174 0.000998
178 0.003025
182 0.000966
178 0.001028
141 0.00097
95 0.002977
69 0.002999
67 0.0
73 0.00203
80 0.002027
94 0.000995
102 0.0
105 0.0
106 0.002992
108 0.003021
117 0.001024
123 0.0
135 0.0
142 0.002996
152 0.0
158 0.003061
164 0.003019
170 0.000954
173 0.0
178 0.0
182 0.002028
177 0.002943
125 0.0
84 0.0
65 0.0
65 0.001996
76 0.0
83 0.001996
93 0.001988
104 0.001021
107 0.000953
109 0.0
112 0.003028
119 0.003011
131 0.000964
139 0.0
147 0.001995
153 0.003033
163 0.0
169 0.002934
175 0.003023
180 0.0
183 0.0
188 0.0
192 0.002027
185 0.003988
143 0.001988
81 0.000967
61 0.000974
59 0.002982
66 0.0
72 0.003022
82 0.003057
95 0.0
101 0.0
103 0.0
107 0.002964
113 0.003959
124 0.0
133 0.0
141 0.001995
148 0.00305
158 0.000993
164 0.003036
169 0.003036
173 0.002032
179 0.0
183 0.000964
187 0.000997
181 0.002996
143 0.003986
82 0.000999
63 0.001011
63 0.00094
73 0.0
80 0.0
91 0.002993
100 0.003037
105 0.00302
106 0.0
110 0.0
117 0.002958
125 0.004021
136 0.000994
144 0.0
150 0.001005
160 0.00098
165 0.0
170 0.002979
175 0.002992
180 0.001994
185 0.0
183 0.002994
153 0.00303
105 0.003991
69 0.0
66 0.000998
73 0.0
85 0.002949
95 0.002999
104 0.003962
109 0.00503
110 0.00304
113 0.00299
120 0.002994
129 0.003991
137 0.005033
149 0.0
156 0.0
162 0.0
172 0.003001
177 0.000956
182 0.003991
186 0.00403
192 0.001979
186 0.00203
147 0.002986
97 0.00404
68 0.00405
61 0.003009
66 0.002991
71 0.004026
85 0.002992
94 0.002949
101 0.004984
105 0.004963
109 0.002989
115 0.001999
123 0.00298
132 0.002986
140 0.00399
148 0.00502
156 0.003974
162 0.002983
171 0.002991
176 0.003032
179 0.003057
183 0.004946
187 0.004959
160 0.00293
109 0.002987
72 0.003076
60 0.004987
63 0.005004
72 0.002992
80 0.003005
97 0.002991
103 0.002991
104 0.002984
106 0.004978
110 0.005011
121 0.002988
130 0.003029
139 0.002983
146 0.005952
153 0.006017
161 0.003976
166 0.003002
173 0.003002
176 0.002008
182 0.00203
186 0.004931
174 0.004963
115 0.001988
77 0.002991
64 0.004027
67 0.006005
76 0.005986
87 0.003007
99 0.003999
108 0.00299
109 0.003009
111 0.004011
116 0.005015
123 0.006018
135 0.003051
144 0.003952
151 0.003993
158 0.005991
164 0.005984
171 0.003948
176 0.002993
184 0.002994
189 0.004001
194 0.003054
188 0.006004
149 0.006021
84 0.002994
62 0.003924
61 0.003951
67 0.004008
74 0.006983
83 0.006982
96 0.003991
103 0.007013
104 0.003987
107 0.003984
113 0.00404
120 0.007011
129 0.006976
140 0.004954
146 0.005025
152 0.00399
159 0.007026
165 0.006983
173 0.005026
182 0.006984
195 0.00399
190 0.004012
149 0.004001
106 0.00699
85 0.006949
83 0.003965
87 0.004008
92 0.004991
104 0.007969
110 0.007979
115 0.005003
114 0.007945
116 0.004999
121 0.005005
131 0.004987
139 0.007972
147 0.007063
155 0.004984
161 0.004987
167 0.00502
173 0.007937
179 0.007979
174 0.004983
103 0.007984
70 0.00498
61 0.004986
63 0.004991
69 0.007941
75 0.007955
89 0.00499
100 0.005987
106 0.005978
108 0.006963
112 0.006994
118 0.005953
134 0.007001
142 0.006008
151 0.006006
157 0.005021
165 0.006991
171 0.007014
176 0.004989
181 0.00595
186 0.005967
191 0.006
166 0.006966
114 0.006974
64 0.006987
61 0.006979
64 0.00596
67 0.006017
72 0.005013
87 0.006011
97 0.007012
102 0.006945
103 0.006956
106 0.005957
115 0.007018
125 0.006991
140 0.006979
148 0.006968
155 0.005992
161 0.005995
167 0.005991
174 0.007009
178 0.006983
184 0.006028
189 0.006013
191 0.006016
163 0.005961
112 0.005968
64 0.005985
61 0.006977
64 0.006002
67 0.005985
77 0.005983
88 0.007008
96 0.006974
103 0.006014
109 0.006028
116 0.005957
126 0.006013
135 0.005957
150 0.006017
158 0.006013
168 0.00499
174 0.005986
177 0.005978
183 0.006978
188 0.00602
196 0.005982
201 0.005959
207 0.006012
207 0.005994
177 0.005984
94 0.006011
74 0.006016
73 0.005979
75 0.005987
79 0.006026
89 0.006032
101 0.005018
110 0.004962
112 0.004953
114 0.004954
119 0.006066
127 0.004965
141 0.006018
149 0.00604
157 0.005987
165 0.006015
171 0.005979
176 0.005033
180 0.005013
183 0.005033
187 0.005015
193 0.005012
196 0.00502
178 0.00505
101 0.004987
76 0.004992
72 0.004976
80 0.004948
87 0.004956
97 0.004038
107 0.004038
113 0.003989
114 0.004944
115 0.005012
120 0.005049
127 0.004986
142 0.005017
150 0.005021
157 0.004988
166 0.004982
173 0.003966
178 0.00399
183 0.00399
187 0.004008
193 0.002941
199 0.003989
201 0.004029
181 0.003989
104 0.004034
80 0.003992
75 0.003937
81 0.003947
87 0.004993
97 0.00399
106 0.003999
112 0.003962
116 0.004021
117 0.003988
122 0.004028
130 0.003988
145 0.00398
153 0.003993
160 0.004025
168 0.003959
174 0.003024
180 0.003971
185 0.002999
189 0.00302
195 0.003989
199 0.004036
191 0.00399
151 0.004106
85 0.003957
74 0.002992
76 0.003959
82 0.002994
91 0.004039
101 0.004033
110 0.003988
116 0.003025
118 0.003028
121 0.002991
127 0.003024
134 0.002976
147 0.003002
153 0.002994
160 0.002992
166 0.002992
173 0.003004
177 0.002997
182 0.003014
187 0.002958
188 0.002044
151 0.00302
108 0.001998
82 0.002005
