106 0.022951
108 0.006966
115 0.006988
125 0.00701
132 0.006977
139 0.006981
145 0.007016
149 0.006981
157 0.006943
161 0.006986
168 0.006944
163 0.005997
119 0.005984
80 0.006021
66 0.006021
72 0.006023
80 0.006981
87 0.006993
95 0.007026
104 0.006996
110 0.006994
109 0.007019
112 0.007976
120 0.00604
128 0.005963
135 0.006023
143 0.005983
151 0.005985
157 0.00598
163 0.006005
168 0.005948
172 0.005988
182 0.005984
179 0.006976
110 0.005971
74 0.005938
65 0.005982
71 0.005988
79 0.005984
86 0.005985
95 0.005986
104 0.005974
109 0.005995
110 0.005989
112 0.006973
117 0.004943
127 0.004985
135 0.004983
142 0.004983
150 0.005942
156 0.006015
163 0.006017
168 0.006015
173 0.005981
178 0.005952
184 0.006016
177 0.004988
112 0.004948
62 0.004987
59 0.004953
69 0.004986
78 0.005015
83 0.005023
96 0.00499
104 0.005983
107 0.005984
108 0.005972
109 0.005975
119 0.005985
127 0.004987
138 0.004987
147 0.005019
153 0.005025
160 0.004987
161 0.004981
165 0.005024
175 0.005021
184 0.00502
191 0.004988
183 0.004983
80 0.004987
58 0.005984
60 0.005026
74 0.005001
81 0.004988
90 0.004986
99 0.004987
103 0.004987
101 0.00498
101 0.005054
104 0.005022
111 0.005023
125 0.005038
133 0.005026
141 0.004997
152 0.004996
159 0.004986
166 0.004988
173 0.004956
175 0.005033
108 0.00402
57 0.00399
41 0.00399
54 0.003993
63 0.00399
72 0.005024
83 0.004995
89 0.004987
87 0.004987
86 0.004987
89 0.004987
96 0.003989
107 0.00399
116 0.00399
124 0.003993
134 0.003989
141 0.003991
147 0.003954
153 0.004956
139 0.004954
76 0.004984
34 0.003984
24 0.003984
29 0.003986
40 0.003958
45 0.003953
54 0.003951
67 0.003954
68 0.003966
69 0.003963
73 0.003964
83 0.004944
93 0.002956
102 0.003934
110 0.002991
117 0.003989
125 0.003993
131 0.004036
137 0.003989
147 0.003954
125 0.003957
64 0.004022
24 0.003954
18 0.003996
26 0.002991
31 0.00296
34 0.002961
44 0.002972
57 0.002999
61 0.002994
61 0.002994
70 0.003971
79 0.003993
88 0.00405
98 0.003966
109 0.003956
116 0.002992
122 0.003004
128 0.003001
135 0.002991
141 0.003035
148 0.00299
120 0.002994
34 0.00399
22 0.003004
28 0.003965
37 0.00402
41 0.003993
52 0.00399
63 0.003975
70 0.002989
70 0.002992
71 0.002992
79 0.003008
87 0.002971
103 0.003962
111 0.002993
119 0.002985
125 0.002992
130 0.002958
136 0.004015
143 0.002992
146 0.002992
110 0.002026
54 0.001995
25 0.002997
31 0.002992
45 0.003
51 0.002992
64 0.003054
75 0.002992
79 0.002992
78 0.001994
82 0.002003
89 0.002013
99 0.002959
110 0.002991
122 0.002959
129 0.003008
140 0.002997
146 0.002951
152 0.001996
158 0.002035
149 0.00203
75 0.001995
39 0.001994
32 0.001994
40 0.002034
47 0.001961
52 0.001962
65 0.001963
83 0.002994
86 0.000997
87 0.001997
92 0.001995
100 0.001995
114 0.002034
124 0.001995
133 0.001995
141 0.001993
149 0.001995
153 0.001996
160 0.001996
168 0.002006
171 0.001966
132 0.002005
70 0.001995
40 0.000998
41 0.000955
48 0.000955
53 0.001007
59 0.001995
72 0.001996
86 0.002016
90 0.001995
95 0.002028
101 0.001996
111 0.000958
122 0.000965
132 0.001954
144 0.000959
152 0.000997
160 0.001049
166 0.000998
171 0.000998
179 0.001011
188 0.000994
193 0.000997
129 0.000998
69 0.000947
47 0.00096
52 0.000998
62 0.002
69 0.001953
76 0.000997
88 0.000997
95 0.000997
97 0.001009
100 0.001033
108 0.000998
120 0.000997
131 0.000997
141 0.000998
149 0.000997
156 0.000997
166 0.000997
171 0.000997
178 0.000998
185 0.001996
191 0.0
112 0.000997
62 0.000998
52 0.001007
63 0.000997
71 0.00101
76 0.000997
88 0.000998
102 0.000998
106 0.000997
106 0.001006
108 0.000997
116 0.0
134 0.0
145 0.0
159 0.0
169 0.000998
178 0.0
185 0.0
193 0.000993
203 0.0
210 0.0
217 0.0
197 0.000998
114 0.000998
51 0.0
54 0.0
66 0.0
69 0.0
76 0.0
88 0.0
98 0.0
101 0.0
104 0.0
109 0.0
118 0.0
129 0.0
147 0.0
158 0.0
171 0.0
180 0.0
188 0.0
196 0.0
203 0.0
212 0.0
219 0.0
224 0.0
199 0.0
107 0.0
43 0.0
50 0.0
59 0.0
65 0.000998
78 0.0
87 0.0
94 0.0
96 0.000954
99 0.000998
109 0.0
119 0.0
134 0.0
145 0.0
157 0.0
173 0.000999
183 0.0
192 0.0
201 0.0
207 0.0
214 0.000998
220 0.001028
217 0.0
148 0.0
57 0.001011
46 0.0
53 0.0
65 0.001024
77 0.000999
88 0.001002
98 0.0
99 0.0
98 0.0
99 0.001035
107 0.000997
120 0.0
137 0.000998
153 0.0
164 0.0
173 0.0
181 0.000997
189 0.002032
198 0.001002
200 0.001041
164 0.001031
79 0.002037
36 0.002032
35 0.0
52 0.000999
62 0.001996
77 0.0
86 0.0
90 0.001029
89 0.001995
91 0.000998
99 0.001049
109 0.000999
122 0.001965
135 0.002009
149 0.000998
163 0.001996
174 0.000998
179 0.000998
186 0.001006
193 0.000998
162 0.000998
51 0.001047
16 0.001004
16 0.001008
27 0.001995
34 0.002029
43 0.000972
56 0.002029
64 0.000978
64 0.001001
66 0.000998
73 0.001995
82 0.001993
94 0.002027
105 0.002026
115 0.002029
128 0.001997
137 0.001991
148 0.001018
158 0.002003
167 0.001038
123 0.000998
44 0.000994
6 0.001999
3 0.002992
15 0.002025
21 0.002022
24 0.001994
39 0.00198
48 0.002045
52 0.002028
56 0.001994
66 0.000986
76 0.001031
88 0.00103
100 0.003004
110 0.002992
121 0.002028
131 0.001988
138 0.002027
144 0.003026
151 0.003003
160 0.002052
140 0.002029
64 0.002028
16 0.002053
6 0.003033
18 0.002026
25 0.002993
30 0.002992
45 0.002026
55 0.001981
57 0.002026
58 0.002992
64 0.003015
78 0.002992
89 0.00399
100 0.003027
110 0.003028
119 0.003025
128 0.003023
134 0.002992
142 0.001995
149 0.002049
155 0.002031
127 0.003023
28 0.002025
12 0.002992
19 0.004035
33 0.003022
39 0.00303
50 0.003023
62 0.002978
68 0.003028
69 0.003024
70 0.003024
76 0.003032
91 0.002994
110 0.001981
120 0.004029
129 0.003989
140 0.003022
147 0.00299
153 0.002973
161 0.00399
169 0.003989
165 0.002992
102 0.003001
41 0.002997
20 0.002991
28 0.002991
38 0.002958
42 0.002977
54 0.004032
66 0.00399
73 0.003987
76 0.003994
80 0.004023
92 0.003026
103 0.003028
115 0.003053
125 0.00399
141 0.003023
150 0.003987
158 0.003989
166 0.003024
172 0.00402
176 0.00402
187 0.003989
194 0.003986
172 0.00402
69 0.002986
32 0.002984
30 0.003991
44 0.003032
48 0.003989
57 0.004988
72 0.00404
79 0.004027
82 0.00402
85 0.005018
91 0.005139
105 0.004022
116 0.003987
127 0.003979
137 0.003985
150 0.004029
162 0.004023
169 0.005032
178 0.00399
184 0.004023
191 0.004021
199 0.005019
198 0.004987
110 0.004024
48 0.003974
32 0.004003
39 0.003983
52 0.004028
59 0.004022
71 0.003989
81 0.004986
87 0.005018
90 0.005031
93 0.005021
103 0.004987
115 0.004986
131 0.003993
144 0.003977
156 0.003985
172 0.00403
181 0.004024
187 0.004858
194 0.006015
203 0.004026
202 0.005018
158 0.005015
60 0.005023
37 0.005035
46 0.003992
57 0.003981
66 0.003995
86 0.004024
93 0.004032
96 0.005023
97 0.006
103 0.005017
114 0.004997
127 0.005
140 0.005984
151 0.005984
166 0.004969
176 0.004975
187 0.005019
195 0.005023
199 0.004061
158 0.004987
76 0.006036
35 0.004991
41 0.005033
52 0.00502
60 0.00602
68 0.005985
85 0.005019
92 0.00498
95 0.005017
97 0.005023
104 0.004987
119 0.005991
131 0.005984
144 0.006029
160 0.005014
170 0.005019
179 0.005993
187 0.005984
197 0.004955
194 0.004957
78 0.005019
40 0.005
38 0.005021
49 0.006982
59 0.006981
70 0.005992
83 0.006035
92 0.00602
100 0.005984
103 0.006033
108 0.004991
116 0.005949
134 0.006019
145 0.006017
155 0.006017
164 0.007019
171 0.006982
178 0.006019
184 0.006014
192 0.00602
185 0.005985
120 0.006018
48 0.004987
38 0.004985
50 0.006016
61 0.006016
70 0.006014
82 0.007013
92 0.006981
97 0.006022
98 0.006015
103 0.006037
112 0.006024
123 0.006981
133 0.006975
147 0.005979
158 0.006014
165 0.00602
172 0.007022
180 0.006019
186 0.006982
181 0.007015
98 0.006017
52 0.006027
42 0.006041
51 0.007015
62 0.007017
71 0.005989
86 0.007849
97 0.00698
98 0.007014
99 0.006002
104 0.006982
111 0.006977
126 0.006023
136 0.005996
145 0.006032
152 0.006982
158 0.006983
166 0.006014
175 0.007979
170 0.007014
113 0.007013
60 0.007023
42 0.007979
49 0.007977
61 0.006981
71 0.007015
78 0.007022
95 0.006981
102 0.006949
101 0.006008
106 0.007002
117 0.006965
128 0.006981
139 0.006988
148 0.007978
157 0.007979
167 0.007015
172 0.007016
178 0.006981
185 0.007978
189 0.007979
137 0.007017
61 0.007979
45 0.007926
57 0.006939
65 0.006928
71 0.007978
81 0.007979
98 0.006966
105 0.007019
107 0.007013
112 0.007934
120 0.007978
134 0.007945
149 0.007014
162 0.006983
170 0.006982
177 0.007014
182 0.007948
189 0.007991
193 0.007979
203 0.006981
206 0.006957
137 0.007983
94 0.007943
63 0.007972
76 0.007022
86 0.006982
93 0.007014
106 0.006946
117 0.006951
122 0.007008
124 0.007979
129 0.00798
137 0.007989
144 0.007979
155 0.007978
175 0.007017
183 0.007016
192 0.006945
199 0.006985
205 0.00703
209 0.006982
215 0.006988
223 0.006932
202 0.006994
129 0.007022
92 0.006966
74 0.007033
95 0.006985
103 0.006949
111 0.007028
125 0.006982
131 0.007018
132 0.006992
132 0.007017
136 0.006976
148 0.006982
159 0.006982
169 0.007016
178 0.006982
191 0.007015
197 0.006982
203 0.006973
212 0.006983
216 0.007972
207 0.007978
122 0.006043
81 0.006741
79 0.006984
94 0.006982
105 0.006981
114 0.006983
133 0.007015
138 0.006937
138 0.007038
139 0.006019
146 0.006983
156 0.006017
167 0.005973
177 0.006018
191 0.006982
199 0.006017
206 0.005984
213 0.005983
225 0.005956
225 0.004986
171 0.005948
85 0.004991
69 0.004929
77 0.005946
90 0.006017
98 0.00599
109 0.005985
120 0.00599
127 0.00607
129 0.005983
131 0.005982
139 0.006107
148 0.006
162 0.006003
172 0.005951
180 0.005947
187 0.005946
194 0.005979
203 0.006016
209 0.006006
213 0.005023
180 0.005028
73 0.005029
58 0.004945
67 0.00502
84 0.004988
90 0.005035
99 0.004956
109 0.006024
115 0.006032
116 0.006011
119 0.005993
126 0.005949
142 0.005983
151 0.005023
159 0.004988
167 0.005014
175 0.005027
180 0.005021
185 0.004988
192 0.005081
192 0.005043
123 0.004987
72 0.004988
58 0.005018
78 0.006017
88 0.006032
95 0.005038
106 0.00499
114 0.004988
114 0.005028
114 0.005038
117 0.004988
125 0.005023
134 0.005016
147 0.005022
155 0.004983
165 0.005023
170 0.004991
176 0.004025
181 0.005027
174 0.004026
101 0.004014
65 0.00401
59 0.005023
71 0.005033
84 0.004978
96 0.004968
108 0.005022
117 0.004949
117 0.004999
118 0.004988
123 0.00396
132 0.003976
146 0.003989
154 0.004021
160 0.004049
166 0.003975
172 0.004027
179 0.005019
184 0.005047
143 0.005
85 0.004966
57 0.003991
59 0.003991
70 0.00399
82 0.004033
89 0.003937
100 0.004017
109 0.00399
111 0.003991
111 0.003981
115 0.003952
129 0.004986
139 0.004978
148 0.003991
155 0.004008
161 0.003958
168 0.003992
172 0.004027
177 0.003991
182 0.003957
164 0.003953
84 0.004042
52 0.003992
59 0.004009
70 0.003994
76 0.002992
85 0.004041
96 0.003034
103 0.004005
104 0.003991
106 0.003992
112 0.003991
120 0.003992
133 0.003992
142 0.004018
155 0.00399
161 0.00399
165 0.002993
170 0.004048
175 0.00399
179 0.00399
152 0.003036
90 0.00403
54 0.004026
50 0.00399
68 0.00399
77 0.003989
91 0.00399
101 0.004001
106 0.00395
106 0.004024
106 0.003024
114 0.004003
123 0.003991
133 0.00399
142 0.003989
149 0.002992
156 0.002995
164 0.002992
171 0.002991
177 0.002993
173 0.003001
124 0.003022
72 0.00303
52 0.002991
64 0.003026
80 0.003046
89 0.002992
100 0.002991
111 0.002958
115 0.004045
114 0.001998
119 0.001996
128 0.001995
139 0.002029
149 0.002038
157 0.002026
166 0.00203
172 0.002027
178 0.002991
183 0.002991
189 0.003029
158 0.001997
94 0.001995
58 0.002992
65 0.002974
78 0.003005
89 0.003036
96 0.002992
111 0.001998
119 0.001967
121 0.001995
121 0.003025
124 0.003026
138 0.001994
149 0.001994
161 0.002004
169 0.001995
176 0.001995
182 0.001996
188 0.001962
195 0.001995
201 0.001995
189 0.002002
124 0.002004
72 0.000997
64 0.000998
79 0.000998
93 0.001995
100 0.002007
112 0.001992
119 0.002034
122 0.002027
123 0.001995
128 0.002031
136 0.001995
147 0.002036
156 0.001995
171 0.000997
180 0.002008
188 0.001026
194 0.000998
201 0.000998
206 0.001031
212 0.000998
172 0.000998
98 0.002043
61 0.000998
61 0.001998
75 0.001996
97 0.002045
106 0.000995
118 0.001037
122 0.001995
122 0.000998
122 0.000998
126 0.001012
138 0.000998
149 0.000997
159 0.001005
168 0.001
177 0.000997
187 0.000996
194 0.000985
201 0.000966
204 0.001338
153 0.000986
84 0.001003
56 0.001999
61 0.000997
83 0.001956
98 0.000998
112 0.000998
122 0.000998
123 0.001
120 0.001001
121 0.000997
133 0.000997
143 0.000992
154 0.000997
164 0.000998
173 0.000997
182 0.000997
189 0.000998
196 0.000997
203 0.000998
141 0.0
73 0.0
48 0.0
59 0.0
76 0.0
88 0.0
98 0.001009
109 0.000997
113 0.000998
112 0.000998
112 0.000997
124 0.0
135 0.0
145 0.0
155 0.0
166 0.0
173 0.0
180 0.0
186 0.0
191 0.0
159 0.001034
83 0.000998
41 0.000997
45 0.0
60 0.0
68 0.0
76 0.0
88 0.0
93 0.0
95 0.0
97 0.0
102 0.0
114 0.0
124 0.0
134 0.0
146 0.0
153 0.0
159 0.0
164 0.000998
168 0.0
129 0.0
62 0.0
28 0.0
28 0.0
46 0.0
54 0.000999
65 0.0
79 0.000998
84 0.0
85 0.0
88 0.0
97 0.000998
106 0.000997
117 0.0
129 0.0
135 0.0
143 0.001032
149 0.001045
157 0.0
164 0.000999
117 0.0
56 0.0
29 0.0
32 0.00101
45 0.000997
54 0.000997
64 0.0
76 0.0
83 0.001
84 0.001997
84 0.0
94 0.001036
103 0.000998
116 0.0
125 0.0
132 0.0
138 0.000999
144 0.001029
151 0.00102
152 0.000928
113 0.0
57 0.000997
30 0.001995
42 0.001995
53 0.002007
64 0.0
76 0.0
85 0.0
88 0.000997
88 0.000963
92 0.0
101 0.000978
112 0.000994
122 0.001029
130 0.002008
140 0.001951
147 0.001996
155 0.00099
159 0.001002
137 0.000986
77 0.001988
36 0.001995
31 0.001052
38 0.001037
47 0.0
51 0.000999
64 0.001029
83 0.001996
84 0.001995
86 0.001025
93 0.000998
103 0.000998
114 0.001996
124 0.001995
135 0.000996
141 0.000998
147 0.000998
152 0.001995
157 0.002012
163 0.002029
124 0.001986
49 0.000998
31 0.000988
38 0.000999
47 0.002047
50 0.001996
62 0.000998
78 0.000998
87 0.002028
90 0.002996
94 0.001937
102 0.002991
113 0.002996
126 0.00098
136 0.001033
143 0.001012
150 0.002028
156 0.001996
162 0.001003
167 0.002024
174 0.001998
175 0.002992
92 0.001997
55 0.003025
50 0.002992
64 0.001032
70 0.002031
72 0.002049
88 0.001995
100 0.001995
104 0.001036
104 0.000995
109 0.002041
118 0.002992
135 0.002025
144 0.003031
152 0.003025
161 0.002039
166 0.00203
171 0.002037
177 0.001027
182 0.002991
180 0.002992
118 0.001994
76 0.002001
65 0.002025
81 0.00206
87 0.00199
93 0.003022
107 0.002992
120 0.001996
121 0.001981
122 0.002027
127 0.002992
135 0.003986
149 0.003
157 0.003023
165 0.002023
177 0.002024
182 0.001995
186 0.003037
190 0.003025
196 0.001995
202 0.001997
201 0.00299
154 0.003032
98 0.003996
74 0.002986
82 0.002977
91 0.002987
97 0.002996
108 0.001998
121 0.002991
126 0.002992
127 0.001998
131 0.002004
138 0.002992
147 0.004003
156 0.003984
168 0.002991
175 0.002989
182 0.003022
191 0.003036
197 0.002038
201 0.003982
206 0.003987
213 0.003026
211 0.003025
162 0.002992
107 0.003981
86 0.00399
95 0.00302
106 0.002993
111 0.002996
124 0.003024
134 0.002997
138 0.00399
138 0.003989
141 0.00301
148 0.004027
157 0.004028
166 0.004987
175 0.004987
184 0.002973
190 0.003025
195 0.003039
201 0.002989
206 0.002996
210 0.00399
212 0.003989
155 0.002987
105 0.004021
90 0.004018
98 0.004991
112 0.005046
122 0.00402
132 0.004037
145 0.003002
146 0.003
144 0.002996
147 0.003991
154 0.004021
166 0.003995
175 0.003993
184 0.00386
190 0.004987
197 0.004987
201 0.004987
208 0.004031
214 0.004989
218 0.003029
184 0.002956
122 0.003989
91 0.005984
89 0.00498
106 0.004014
114 0.003971
119 0.003979
128 0.005019
137 0.005019
141 0.004022
142 0.004986
148 0.003982
156 0.00399
165 0.004022
174 0.006016
181 0.005971
191 0.005019
196 0.00502
201 0.003991
205 0.005012
210 0.004987
217 0.003991
205 0.004986
118 0.003992
81 0.005032
76 0.004986
90 0.005999
102 0.005984
110 0.004986
119 0.004984
128 0.005022
131 0.005985
132 0.005986
135 0.004987
144 0.005983
156 0.003987
165 0.004951
174 0.004986
181 0.005983
188 0.005973
195 0.004982
199 0.005013
204 0.004984
209 0.005987
212 0.005984
144 0.005021
74 0.006976
69 0.004969
84 0.005968
97 0.004991
106 0.007014
116 0.005984
122 0.004997
122 0.004986
120 0.004998
121 0.006018
128 0.005984
140 0.005016
152 0.005987
162 0.004984
169 0.004992
175 0.00502
180 0.007016
186 0.006998
193 0.006019
178 0.006035
111 0.005025
61 0.006019
48 0.006044
65 0.00502
83 0.006981
96 0.005987
106 0.004988
110 0.006039
108 0.006982
107 0.006984
112 0.005978
122 0.006016
132 0.005987
141 0.007024
150 0.006982
161 0.00602
170 0.006979
177 0.004987
182 0.005003
188 0.005985
172 0.005996
100 0.007028
46 0.007025
33 0.006017
47 0.005981
60 0.006002
66 0.007014
75 0.007023
88 0.006972
90 0.006979
92 0.005985
97 0.006017
105 0.006022
115 0.007027
126 0.007986
138 0.007016
146 0.005997
153 0.005986
158 0.006986
167 0.005955
172 0.006967
178 0.006974
147 0.005993
74 0.005983
31 0.00697
26 0.007979
40 0.007978
55 0.006954
60 0.007016
71 0.007015
81 0.007979
86 0.005983
88 0.006959
94 0.006951
106 0.005984
117 0.006984
127 0.006998
137 0.007948
146 0.007978
154 0.007031
160 0.007014
165 0.006962
170 0.007979
178 0.006986
123 0.006974
57 0.006978
29 0.006982
34 0.006981
49 0.007015
60 0.00798
67 0.007979
81 0.006981
87 0.006979
88 0.006982
89 0.007978
96 0.00695
106 0.007945
117 0.007953
130 0.006949
139 0.007015
147 0.007016
154 0.007015
159 0.006983
167 0.006951
169 0.006997
130 0.006952
64 0.006983
30 0.007
46 0.007959
56 0.007967
71 0.007
82 0.006984
93 0.007016
95 0.006987
94 0.007013
98 0.00704
106 0.006984
117 0.006952
127 0.006984
141 0.006969
148 0.007936
157 0.007939
164 0.006967
171 0.006983
176 0.007015
157 0.007021
88 0.007012
40 0.006982
33 0.006981
46 0.006982
55 0.007016
67 0.007013
80 0.007011
88 0.00703
89 0.006979
91 0.006982
97 0.006975
103 0.00798
118 0.006019
128 0.006931
140 0.006981
147 0.007026
153 0.007016
161 0.00702
167 0.007008
172 0.007015
145 0.007012
57 0.005974
28 0.005988
30 0.005974
42 0.006025
49 0.006018
57 0.005984
70 0.005984
80 0.00601
84 0.005968
87 0.007023
93 0.007013
103 0.006983
118 0.006949
128 0.006027
136 0.006026
144 0.005985
150 0.005981
156 0.006015
162 0.006016
172 0.006019
177 0.006015
140 0.00598
71 0.005981
32 0.006017
34 0.00602
47 0.005948
54 0.006003
59 0.006014
72 0.006033
85 0.006017
88 0.005983
91 0.005983
97 0.005984
107 0.005987
118 0.00602
129 0.006019
141 0.006019
147 0.004998
153 0.004988
158 0.004987
162 0.005004
170 0.005986
177 0.005985
124 0.006017
59 0.006017
33 0.006017
38 0.006018
52 0.005021
63 0.005034
73 0.005019
85 0.005027
91 0.005998
90 0.004988
92 0.004987
98 0.004991
115 0.00502
126 0.006017
136 0.005986
145 0.006012
151 0.005027
158 0.00502
163 0.005034
169 0.005029
174 0.005058
148 0.004999
62 0.004988
32 0.005035
39 0.005018
55 0.005027
61 0.005018
72 0.004946
84 0.005014
91 0.00399
92 0.004016
94 0.005027
100 0.005019
111 0.004983
123 0.005014
136 0.00502
149 0.005024
158 0.005024
164 0.004999
169 0.004987
173 0.005014
180 0.005036
179 0.004988
118 0.003991
53 0.004024
29 0.004045
34 0.00403
50 0.003989
58 0.003974
73 0.003986
84 0.004042
89 0.005022
90 0.005024
94 0.005004
104 0.004957
116 0.004958
126 0.00502
138 0.003943
146 0.003992
157 0.003991
165 0.004006
172 0.00399
177 0.00399
183 0.003931
188 0.003955
149 0.00399
60 0.005029
36 0.004955
42 0.00399
57 0.003989
66 0.004038
77 0.003991
92 0.003991
99 0.003997
100 0.00399
102 0.004002
109 0.00399
119 0.004022
134 0.004043
144 0.003992
153 0.003026
161 0.00399
167 0.00399
173 0.004025
179 0.00399
187 0.00399
193 0.003961
175 0.002962
104 0.003024
53 0.002993
46 0.003991
62 0.00299
77 0.003023
84 0.003028
96 0.004057
106 0.004056
105 0.00399
104 0.00399
110 0.003989
120 0.00303
131 0.003024
140 0.002993
152 0.002989
159 0.00297
165 0.002994
170 0.003025
176 0.004031
185 0.002967
169 0.003023
82 0.003973
45 0.00399
42 0.003026
57 0.002995
72 0.002975
86 0.00299
97 0.00399
105 0.002993
107 0.002938
105 0.002991
111 0.002993
121 0.00299
132 0.002992
146 0.002992
156 0.00298
163 0.002988
169 0.002991
175 0.001995
180 0.001995
186 0.002008
190 0.002029
153 0.001995
48 0.002033
34 0.001995
45 0.001995
65 0.001991
71 0.003026
80 0.00303
91 0.003043
97 0.003023
98 0.001995
99 0.002996
105 0.00203
114 0.001995
132 0.003024
141 0.002032
150 0.001995
159 0.001995
164 0.002032
168 0.001996
173 0.001995
177 0.001995
183 0.002034
144 0.001996
72 0.002047
33 0.002965
41 0.00204
56 0.002027
65 0.001995
76 0.002032
86 0.001996
92 0.001987
92 0.001995
92 0.001998
102 0.002994
112 0.002022
122 0.001999
133 0.001996
148 0.001994
155 0.001042
160 0.000975
167 0.000951
172 0.000999
176 0.000998
181 0.001018
157 0.001007
70 0.002039
38 0.001996
38 0.002026
53 0.001995
69 0.001964
79 0.001994
88 0.001995
93 0.000998
92 0.001004
92 0.000998
98 0.000998
107 0.000998
120 0.000961
131 0.002004
141 0.000997
148 0.000994
155 0.001995
160 0.001995
165 0.001954
167 0.002004
118 0.000989
61 0.000998
39 0.000998
46 0.000978
67 0.000997
80 0.000998
94 0.000997
113 0.000997
113 0.001033
109 0.00199
111 0.001995
120 0.000998
133 0.000999
146 0.000996
155 0.000999
162 0.001012
167 0.000997
172 0.000962
176 0.000955
163 0.000957
105 0.000998
59 0.000998
48 0.001996
60 0.0
79 0.001041
88 0.0
102 0.0
114 0.001033
117 0.000997
114 0.000986
115 0.000998
125 0.000997
135 0.000997
144 0.000998
154 0.0
163 0.0
172 0.0
179 0.0
184 0.0
184 0.0
147 0.0
66 0.0
42 0.000997
56 0.000998
67 0.000998
74 0.000997
85 0.0
98 0.0
108 0.0
108 0.0
109 0.0
115 0.0
124 0.0
138 0.0
148 0.000997
164 0.000997
172 0.0
178 0.0
185 0.0
191 0.0
181 0.0
119 0.0
68 0.0
54 0.000992
64 0.000999
80 0.0
86 0.000998
107 0.000998
118 0.000998
122 0.0
124 0.0
127 0.000998
140 0.00204
152 0.000958
166 0.0
175 0.000994
182 0.0
189 0.002044
195 0.002044
205 0.000991
206 0.000993
149 0.0
93 0.0
72 0.0
78 0.001015
93 0.000998
105 0.0
115 0.0
124 0.000965
134 0.001996
134 0.000998
135 0.002028
142 0.002027
157 0.0
167 0.0
176 0.0
184 0.00103
191 0.00101
200 0.0
206 0.0
204 0.0
156 0.000997
97 0.000997
73 0.002029
85 0.000997
98 0.0
105 0.0
118 0.0
129 0.0
134 0.001051
134 0.001029
137 0.0
144 0.0
153 0.0
163 0.001063
175 0.000997
186 0.000999
193 0.002037
201 0.0
205 0.0
182 0.0
116 0.002029
72 0.002033
68 0.000971
80 0.0
89 0.000965
102 0.0
115 0.0
123 0.001031
124 0.001964
125 0.000995
131 0.000996
139 0.001997
149 0.001995
158 0.001992
170 0.001034
176 0.000998
183 0.001003
193 0.001012
198 0.000998
175 0.001029
108 0.002036
59 0.000967
61 0.001004
73 0.000999
83 0.001995
90 0.001995
107 0.002011
114 0.000997
116 0.00203
116 0.001006
123 0.001029
133 0.002028
142 0.002993
155 0.000997
162 0.000995
167 0.001011
172 0.002
178 0.002028
184 0.000968
171 0.000997
115 0.000964
58 0.001031
63 0.00098
75 0.003019
85 0.003025
98 0.001
109 0.000995
115 0.001002
114 0.002029
114 0.001995
121 0.001021
129 0.000966
138 0.000985
152 0.00198
159 0.001002
165 0.003023
171 0.003031
178 0.002002
178 0.002025
137 0.000956
83 0.003029
58 0.002993
66 0.001031
79 0.001023
86 0.000999
105 0.000952
114 0.001999
116 0.003034
116 0.003063
118 0.002002
126 0.001995
136 0.002012
145 0.002029
152 0.002992
159 0.002992
167 0.002026
172 0.002031
180 0.001995
168 0.002001
113 0.001997
66 0.003987
53 0.003995
67 0.001996
77 0.001978
82 0.001993
92 0.002992
105 0.003028
112 0.003004
113 0.002992
118 0.003046
127 0.001987
137 0.001983
146 0.003989
154 0.00399
163 0.001991
169 0.002024
174 0.002
180 0.002993
185 0.004008
146 0.001997
88 0.003032
57 0.003026
70 0.003023
82 0.003039
88 0.003993
98 0.00399
113 0.00201
118 0.001993
119 0.001963
121 0.00399
127 0.004026
139 0.003
152 0.003991
164 0.002993
171 0.002986
176 0.003028
181 0.00399
186 0.003992
193 0.003035
194 0.003025
155 0.002003
94 0.003989
64 0.00399
73 0.002982
93 0.004974
105 0.002994
116 0.002992
124 0.002984
126 0.003988
124 0.003982
126 0.002994
134 0.002997
145 0.002027
156 0.004023
164 0.003989
174 0.003025
182 0.003984
190 0.002972
195 0.002981
195 0.00302
152 0.004987
94 0.003977
68 0.003005
80 0.002992
96 0.002988
107 0.003995
118 0.017993
132 0.003993
135 0.004995
134 0.003983
137 0.003999
146 0.002984
157 0.004986
168 0.005007
180 0.002991
187 0.002993
193 0.002992
198 0.003988
204 0.00604
209 0.003991
169 0.004984
88 0.003994
67 0.003983
76 0.003987
92 0.004984
103 0.004993
111 0.005004
126 0.002994
132 0.00299
135 0.003024
135 0.006018
139 0.00602
152 0.004981
162 0.004988
175 0.00396
183 0.003988
190 0.003951
196 0.004999
201 0.005985
208 0.003954
212 0.003983
173 0.00502
106 0.005994
72 0.005985
83 0.005947
99 0.005984
112 0.003992
123 0.003992
132 0.003986
136 0.004956
137 0.004997
138 0.004016
144 0.003936
153 0.004958
162 0.006024
172 0.005984
186 0.005984
193 0.005985
201 0.004005
206 0.003988
212 0.003987
213 0.00497
161 0.004988
80 0.002999
65 0.005004
76 0.004989
94 0.006015
108 0.006031
128 0.006016
133 0.006038
129 0.003986
127 0.003991
130 0.003987
137 0.006018
148 0.00599
161 0.005006
169 0.004988
176 0.004995
183 0.006018
189 0.005984
199 0.005986
195 0.005991
110 0.004991
61 0.004988
52 0.004983
67 0.005983
85 0.006984
102 0.004998
114 0.004977
121 0.005021
121 0.006981
118 0.004986
122 0.005985
131 0.006002
145 0.004984
155 0.005001
163 0.004989
170 0.005985
177 0.006984
185 0.006004
190 0.004973
191 0.005992
142 0.006951
46 0.005023
39 0.007978
54 0.007976
73 0.004984
80 0.006001
91 0.005961
100 0.00695
102 0.006984
100 0.005982
104 0.005997
111 0.005984
122 0.007016
139 0.005995
148 0.004973
154 0.006979
161 0.006981
169 0.004988
174 0.005994
178 0.005991
152 0.007964
82 0.006979
33 0.006004
37 0.005986
52 0.005991
68 0.005968
78 0.00501
90 0.006976
95 0.006983
95 0.005985
97 0.005987
103 0.005983
112 0.007975
126 0.007973
136 0.005984
144 0.005986
151 0.005998
161 0.006001
167 0.005985
172 0.006981
154 0.006982
68 0.005984
35 0.006979
36 0.006979
56 0.007974
66 0.007975
76 0.005964
88 0.007024
93 0.006016
91 0.005968
92 0.005982
100 0.006956
113 0.007968
124 0.007003
133 0.006983
141 0.00698
150 0.007978
157 0.007973
164 0.007007
166 0.007016
130 0.007032
41 0.005984
35 0.00696
45 0.007978
61 0.00701
74 0.006979
83 0.006978
93 0.00695
97 0.007946
96 0.007947
99 0.006985
108 0.006994
118 0.00698
139 0.006983
144 0.00699
154 0.007015
160 0.006958
168 0.006973
173 0.006969
155 0.006979
90 0.006978
41 0.007994
31 0.006985
42 0.006982
53 0.006025
66 0.006978
78 0.006963
91 0.006974
92 0.007017
93 0.006977
97 0.006971
109 0.00698
120 0.007011
130 0.006997
142 0.006978
147 0.006985
158 0.00597
163 0.006981
172 0.00699
168 0.007014
115 0.007012
42 0.00698
30 0.006988
41 0.006966
52 0.006991
59 0.007014
73 0.00698
86 0.006947
93 0.006014
94 0.006013
99 0.005984
108 0.007
118 0.007036
129 0.007029
143 0.006973
151 0.006976
158 0.007006
164 0.007016
168 0.007017
173 0.006954
183 0.006017
183 0.006016
123 0.00601
57 0.006006
34 0.006017
42 0.006015
60 0.006971
67 0.00698
78 0.007013
88 0.007011
93 0.006015
92 0.006003
95 0.005982
107 0.005981
118 0.006016
128 0.006012
138 0.005984
146 0.005985
155 0.006019
161 0.006016
167 0.005973
173 0.005938
178 0.005987
134 0.00698
56 0.006021
40 0.006981
52 0.006016
66 0.005985
74 0.006017
85 0.006018
99 0.006016
102 0.00598
101 0.006017
105 0.00602
113 0.006015
128 0.005989
142 0.006014
153 0.005979
161 0.005021
168 0.005018
173 0.006019
179 0.006003
187 0.006034
185 0.006024
129 0.006016
62 0.005979
34 0.00598
42 0.006015
58 0.00602
66 0.005978
79 0.005018
91 0.004985
95 0.004987
94 0.005026
100 0.005039
108 0.005988
119 0.005988
130 0.006039
141 0.006028
153 0.006017
164 0.006025
172 0.006017
177 0.005033
184 0.005054
190 0.005021
185 0.00502
93 0.00499
41 0.004989
30 0.005019
43 0.00502
56 0.005057
64 0.004988
81 0.005067
94 0.004991
95 0.005031
96 0.005017
101 0.005036
110 0.00603
125 0.005019
137 0.004023
148 0.005022
158 0.005039
166 0.005019
175 0.00502
183 0.005036
189 0.005019
199 0.004977
185 0.004999
107 0.003992
48 0.005017
33 0.003945
51 0.003979
65 0.004022
74 0.004023
87 0.004027
98 0.004029
97 0.003991
96 0.004026
103 0.005005
113 0.005022
126 0.005026
137 0.00409
146 0.004042
158 0.005034
165 0.005023
171 0.00403
179 0.004027
184 0.003988
132 0.004013
59 0.00399
26 0.00402
38 0.003984
54 0.004013
66 0.003989
78 0.004036
93 0.004002
96 0.004979
94 0.004027
95 0.003037
108 0.004023
120 0.004028
132 0.003991
147 0.004025
156 0.004046
164 0.004021
171 0.00399
178 0.003985
187 0.004022
188 0.004031
136 0.003991
56 0.003957
17 0.002955
29 0.003998
41 0.004034
50 0.004042
62 0.00399
72 0.002997
77 0.003991
78 0.00403
82 0.004022
91 0.003988
102 0.003962
114 0.003989
132 0.004019
141 0.004041
149 0.002992
158 0.002992
164 0.003063
172 0.003046
172 0.003991
118 0.003991
30 0.003957
12 0.002992
21 0.00399
34 0.003026
45 0.003023
58 0.003991
70 0.003989
75 0.003948
75 0.004029
79 0.004003
88 0.00399
100 0.004029
115 0.002992
126 0.003026
135 0.002991
143 0.002992
154 0.002991
160 0.002993
167 0.002992
174 0.004021
133 0.003019
58 0.003027
19 0.003024
19 0.003023
37 0.003024
45 0.002038
54 0.001955
67 0.002032
76 0.001994
75 0.002991
77 0.002992
84 0.002994
100 0.002015
111 0.003025
121 0.003047
129 0.002992
137 0.002991
146 0.003028
153 0.003025
160 0.00299
155 0.003033
90 0.001986
33 0.001995
16 0.001995
30 0.002026
42 0.002014
50 0.001992
63 0.002029
76 0.002019
81 0.001995
81 0.001989
84 0.002026
100 0.002022
112 0.002019
123 0.003008
134 0.002034
146 0.002029
154 0.002046
160 0.002025
166 0.001995
173 0.002019
181 0.001997
148 0.002027
36 0.001997
20 0.002033
29 0.001042
40 0.000997
46 0.001031
60 0.000998
75 0.000998
83 0.002026
84 0.002012
86 0.001995
96 0.001995
107 0.001992
127 0.001996
138 0.002001
147 0.001989
156 0.001996
163 0.000999
170 0.000987
176 0.001011
183 0.000997
190 0.000997
192 0.001995
111 0.002004
45 0.002044
29 0.001996
41 0.001995
50 0.001995
56 0.000994
68 0.000957
83 0.000998
87 0.000998
88 0.001
92 0.000959
100 0.001996
116 0.002
127 0.001995
145 0.001998
154 0.002002
163 0.000998
170 0.000998
176 0.000998
184 0.000999
190 0.000997
197 0.000998
205 0.000998
213 0.000999
163 0.00203
74 0.0
28 0.0
40 0.0
54 0.0
61 0.000965
71 0.0
83 0.000996
91 0.000998
91 0.000997
93 0.000998
100 0.000996
111 0.000997
128 0.000998
144 0.000998
158 0.000997
167 0.0
174 0.0
180 0.0
186 0.0
193 0.000998
200 0.0
209 0.000997
209 0.000997
146 0.000997
50 0.000999
36 0.000998
57 0.0
69 0.0
80 0.0
94 0.0
100 0.0
98 0.0
97 0.0
103 0.0
113 0.0
125 0.001007
142 0.0
156 0.0
168 0.0
175 0.0
182 0.0
188 0.0
195 0.0
198 0.0
145 0.0
66 0.0
31 0.000949
32 0.000998
51 0.001
67 0.0
80 0.000998
91 0.000967
96 0.000984
95 0.0
98 0.000998
109 0.002009
120 0.001995
137 0.0
148 0.0
158 0.0
172 0.0
178 0.0
184 0.001003
191 0.001
198 0.0
182 0.00099
77 0.000995
32 0.001006
27 0.002038
44 0.0
54 0.0
61 0.0
81 0.0
87 0.0
89 0.002028
91 0.002017
100 0.0
110 0.0
122 0.0
133 0.001044
143 0.001017
156 0.000958
163 0.0
169 0.0
177 0.000997
184 0.0
190 0.000997
162 0.002026
62 0.0
28 0.0
27 0.0
41 0.0
51 0.00203
58 0.002037
74 0.0
83 0.0
86 0.000997
89 0.0
96 0.0
106 0.002032
117 0.002029
132 0.0
141 0.0
149 0.0
156 0.001997
162 0.002026
168 0.0
174 0.0
184 0.001015
187 0.0
144 0.000968
70 0.002022
32 0.002027
34 0.0
48 0.0
58 0.0
66 0.00203
78 0.002039
87 0.0
89 0.0
92 0.000966
100 0.000965
110 0.0
122 0.002037
134 0.001995
145 0.0
153 0.001017
160 0.001028
164 0.00206
169 0.001998
176 0.000996
182 0.000988
157 0.001007
87 0.000995
46 0.001001
40 0.002001
54 0.003
71 0.000966
80 0.000966
93 0.001994
100 0.002006
101 0.001996
99 0.001993
103 0.001024
119 0.001024
130 0.001011
140 0.000978
150 0.003026
157 0.003027
165 0.001
171 0.001995
176 0.000996
182 0.003026
183 0.003006
116 0.001991
63 0.001988
51 0.001993
66 0.001994
78 0.002005
86 0.003022
99 0.002989
111 0.000979
112 0.000996
111 0.000999
114 0.003
123 0.002999
137 0.001991
148 0.002003
163 0.00202
171 0.001997
177 0.001993
182 0.003023
186 0.003027
194 0.001003
190 0.000988
135 0.001005
75 0.002961
50 0.003026
58 0.000996
73 0.002993
79 0.003989
94 0.001012
105 0.002013
109 0.001998
109 0.003994
111 0.003995
120 0.001995
130 0.001995
142 0.001995
151 0.002996
159 0.002995
171 0.002985
176 0.003992
182 0.002026
187 0.001993
193 0.001993
178 0.003987
114 0.00398
55 0.002001
50 0.00201
61 0.002003
73 0.003949
78 0.002997
97 0.002992
106 0.00299
109 0.003007
110 0.001996
115 0.001963
124 0.003985
135 0.003959
149 0.001962
157 0.002018
165 0.001963
171 0.003988
177 0.003998
186 0.003988
192 0.005022
190 0.002992
138 0.002988
82 0.002996
58 0.003989
63 0.004985
82 0.003008
91 0.002987
101 0.002993
113 0.004
119 0.003995
119 0.004023
120 0.003989
129 0.002
139 0.002013
150 0.002962
159 0.00499
166 0.004989
175 0.002996
180 0.001996
185 0.001949
191 0.003978
192 0.004006
112 0.004981
74 0.004986
71 0.002992
86 0.00299
98 0.002985
108 0.00499
120 0.004988
130 0.002992
130 0.002997
129 0.002999
133 0.004
140 0.004987
158 0.003987
168 0.004987
180 0.004006
187 0.003991
192 0.003993
197 0.005002
204 0.004988
209 0.002991
184 0.003011
120 0.002994
78 0.004986
70 0.004967
91 0.005024
99 0.005984
110 0.00399
122 0.003993
130 0.003957
132 0.004986
132 0.004993
135 0.005016
147 0.002982
157 0.002987
167 0.003002
176 0.00497
190 0.003001
196 0.006035
201 0.005987
209 0.003991
213 0.003981
195 0.004019
130 0.004995
82 0.004986
73 0.002972
87 0.00299
99 0.003019
113 0.003019
126 0.003979
135 0.005977
136 0.006016
135 0.003991
140 0.003986
148 0.003993
157 0.005983
168 0.005984
182 0.003004
191 0.00399
198 0.00399
206 0.005005
212 0.004986
218 0.005983
218 0.005985
147 0.003943
90 0.003989
72 0.004005
81 0.006003
98 0.005987
112 0.003972
123 0.003985
134 0.004987
139 0.004986
136 0.004987
137 0.00602
143 0.005984
156 0.003971
166 0.003982
174 0.004981
181 0.006978
188 0.005979
195 0.003968
201 0.004955
206 0.004955
144 0.005003
87 0.004985
66 0.007017
75 0.006983
98 0.006025
110 0.005032
122 0.005028
133 0.005994
135 0.005953
132 0.004952
132 0.004989
138 0.00396
154 0.005026
164 0.004982
173 0.007019
180 0.006983
189 0.004987
195 0.004985
201 0.004989
205 0.006978
170 0.00698
79 0.004987
51 0.00499
55 0.005003
78 0.006006
86 0.005981
97 0.006982
109 0.006981
115 0.004971
115 0.004009
117 0.004988
122 0.00698
131 0.006982
146 0.004986
156 0.004986
164 0.006002
175 0.005982
182 0.005968
188 0.005968
191 0.00697
155 0.006961
68 0.004994
42 0.004948
47 0.004986
69 0.007954
74 0.006977
86 0.005978
100 0.005992
112 0.005985
112 0.005987
113 0.005948
119 0.007979
132 0.007976
142 0.004992
153 0.005984
161 0.004996
169 0.006964
176 0.007975
184 0.005988
190 0.005983
160 0.006003
88 0.005988
47 0.005978
43 0.007979
65 0.007976
80 0.005986
89 0.005992
104 0.005019
113 0.007971
113 0.007965
110 0.006013
113 0.004952
128 0.005983
138 0.006006
148 0.006
157 0.007978
165 0.007974
173 0.00598
180 0.005984
183 0.005018
121 0.007057
61 0.00701
39 0.006023
53 0.007979
74 0.006976
86 0.006982
100 0.006974
109 0.007979
111 0.007968
110 0.005983
113 0.006978
121 0.006985
135 0.007969
146 0.007012
157 0.00698
167 0.007023
174 0.006974
180 0.006981
183 0.006983
118 0.00701
54 0.007015
29 0.00697
36 0.006982
52 0.006976
61 0.008013
70 0.007948
91 0.006978
98 0.007013
98 0.006955
101 0.006975
109 0.006979
120 0.007015
131 0.007016
141 0.006982
149 0.006952
158 0.006964
166 0.007012
171 0.007011
168 0.006972
85 0.00602
27 0.006978
26 0.005986
40 0.00695
51 0.006982
58 0.006983
76 0.006979
88 0.006978
92 0.006965
92 0.00698
95 0.006985
103 0.006017
122 0.006992
133 0.006047
145 0.006989
153 0.007005
161 0.005981
167 0.007017
173 0.007042
176 0.006987
151 0.006968
80 0.006963
32 0.007013
36 0.007012
59 0.00602
68 0.005972
86 0.005991
97 0.005988
100 0.005986
99 0.005988
100 0.005968
111 0.005992
122 0.005983
129 0.006971
142 0.006981
151 0.006036
162 0.005986
168 0.005986
175 0.006016
169 0.005984
111 0.005979
54 0.00602
35 0.005986
50 0.005989
64 0.005989
75 0.005968
90 0.005061
102 0.005986
105 0.005019
105 0.005028
111 0.005101
121 0.005981
133 0.005984
143 0.005983
153 0.005998
163 0.005987
169 0.005988
176 0.006029
182 0.005981
185 0.006057
96 0.006015
45 0.004956
36 0.004989
51 0.005035
61 0.005022
69 0.004988
83 0.005022
98 0.005016
101 0.005374
100 0.004951
103 0.004985
118 0.005016
129 0.004988
141 0.004988
154 0.005018
162 0.004985
169 0.005019
175 0.003985
181 0.004044
188 0.005994
170 0.004984
97 0.005016
43 0.005023
38 0.006027
53 0.005026
63 0.005019
76 0.005986
92 0.006025
101 0.006036
104 0.005025
105 0.004987
111 0.005019
121 0.004026
133 0.003961
145 0.00402
163 0.005046
172 0.005986
179 0.004988
185 0.004988
192 0.004989
199 0.004997
201 0.00499
150 0.004988
74 0.005022
39 0.003983
51 0.003954
68 0.00399
85 0.004005
100 0.005027
111 0.004995
112 0.003956
110 0.003958
113 0.004051
121 0.005016
133 0.005022
145 0.004957
160 0.004024
169 0.003991
176 0.00399
186 0.003991
192 0.003958
199 0.003958
182 0.003968
83 0.00399
42 0.003939
40 0.003957
57 0.003989
74 0.004988
90 0.00399
106 0.004032
114 0.005024
113 0.002993
113 0.004031
120 0.005037
130 0.003046
147 0.003035
159 0.003033
170 0.004005
179 0.004031
185 0.003022
194 0.00399
201 0.003989
204 0.004022
97 0.003992
41 0.003988
29 0.003929
43 0.002995
61 0.003022
71 0.003999
86 0.003026
98 0.003003
103 0.002982
103 0.003989
105 0.00399
113 0.002968
133 0.004028
145 0.004012
157 0.003004
168 0.004044
178 0.003953
186 0.00399
193 0.002991
200 0.002987
184 0.003023
76 0.003029
29 0.003033
25 0.003023
52 0.002991
63 0.003026
75 0.002992
89 0.002992
98 0.002996
99 0.003996
100 0.003991
106 0.002028
117 0.003007
134 0.003029
147 0.003042
158 0.003024
174 0.002992
182 0.002987
189 0.002994
195 0.003028
201 0.003028
149 0.003029
64 0.001977
26 0.001998
27 0.001996
50 0.002026
62 0.001995
79 0.002992
93 0.002992
95 0.002992
93 0.002998
94 0.001995
101 0.002027
116 0.003061
127 0.001995
138 0.002029
148 0.00204
155 0.002032
163 0.002024
169 0.001995
175 0.002029
138 0.001995
61 0.002047
19 0.002016
17 0.002042
37 0.001995
50 0.000999
62 0.002988
76 0.001995
81 0.002049
80 0.002001
82 0.002026
94 0.002033
105 0.002036
116 0.001997
125 0.002034
134 0.002029
143 0.002039
150 0.000992
156 0.00103
160 0.002045
136 0.00202
45 0.001032
7 0.000998
18 0.000998
30 0.001997
37 0.001995
49 0.001996
64 0.002022
72 0.001997
72 0.002045
74 0.00195
81 0.001028
93 0.001027
108 0.000998
122 0.000999
132 0.000997
139 0.001001
144 0.00204
148 0.000964
152 0.000994
124 0.002005
56 0.002049
14 0.00202
9 0.002033
21 0.000997
33 0.000998
46 0.000997
67 0.000996
76 0.000998
77 0.001958
79 0.001999
85 0.001029
100 0.001994
111 0.001028
123 0.001991
133 0.001986
142 0.001995
150 0.000997
159 0.0
166 0.000998
172 0.00101
174 0.001016
129 0.001014
63 0.000997
28 0.001006
36 0.000997
49 0.001004
57 0.000998
66 0.000997
86 0.002026
95 0.002041
95 0.0
99 0.0
107 0.0
118 0.0
130 0.000998
141 0.001022
152 0.000998
160 0.000997
167 0.000998
172 0.000997
176 0.000997
185 0.000997
192 0.0
169 0.0
100 0.0
55 0.0
48 0.0
60 0.0
78 0.0
86 0.0
100 0.0
110 0.000997
111 0.000997
110 0.0
116 0.0
129 0.0
141 0.0
151 0.0
160 0.0
168 0.0
176 0.0
180 0.0
185 0.0
191 0.0
160 0.0
99 0.0
65 0.0
67 0.0
83 0.0
94 0.0
105 0.0
123 0.0
129 0.002044
127 0.000998
128 0.001022
132 0.0
149 0.001012
163 0.0
172 0.000957
181 0.002043
188 0.000965
194 0.0
199 0.0
204 0.0
209 0.002031
193 0.002004
106 0.0
67 0.0
72 0.0
85 0.0
92 0.0
101 0.001995
115 0.001032
127 0.001007
128 0.000962
128 0.0
134 0.002031
143 0.002031
158 0.0
169 0.0
184 0.0
192 0.0
198 0.0
202 0.002026
207 0.002028
214 0.0
219 0.0
191 0.0
120 0.00103
76 0.001055
73 0.001011
88 0.0
102 0.0
112 0.0
126 0.0
135 0.002046
137 0.002044
139 0.000949
145 0.0
155 0.000958
166 0.002024
177 0.001965
190 0.0
199 0.0
208 0.001024
215 0.0
218 0.001001
224 0.001004
229 0.002042
234 0.002033
176 0.0
106 0.0
77 0.0
82 0.001993
99 0.001996
115 0.0
130 0.002
141 0.0
141 0.0
139 0.0
140 0.002022
146 0.001987
159 0.0
171 0.0
180 0.0
188 0.002003
195 0.002034
203 0.0
209 0.002026
214 0.0
217 0.0
184 0.0
110 0.002035
69 0.002031
70 0.0
87 0.0
100 0.000972
110 0.002029
123 0.002065
131 0.0
129 0.001997
130 0.0
138 0.001993
148 0.002001
159 0.002027
169 0.002028
181 0.002008
189 0.002946
194 0.000999
200 0.003023
204 0.002993
212 0.002992
197 0.002993
97 0.002001
52 0.001035
47 0.0
60 0.003022
74 0.002029
84 0.0
95 0.001997
105 0.000997
110 0.002993
109 0.003034
114 0.003024
122 0.003025
138 0.001993
149 0.0
157 0.000983
167 0.003025
174 0.002992
181 0.001988
186 0.002
192 0.001993
198 0.002025
187 0.001977
67 0.002035
35 0.003033
43 0.000983
58 0.000982
67 0.000998
76 0.002992
89 0.00299
100 0.001995
101 0.001996
102 0.001995
107 0.00299
115 0.002992
135 0.003012
147 0.002993
159 0.001996
167 0.001007
173 0.000999
178 0.002993
183 0.003019
192 0.001994
185 0.001995
119 0.001995
55 0.002992
34 0.002989
54 0.002001
68 0.003989
76 0.004028
92 0.001986
99 0.00199
98 0.001989
95 0.003033
97 0.004023
110 0.001996
120 0.001034
131 0.001989
141 0.003994
153 0.001997
159 0.004024
164 0.00399
172 0.001998
173 0.001997
126 0.001998
57 0.003989
26 0.00399
35 0.002012
49 0.001991
60 0.002008
72 0.003991
90 0.002005
90 0.003982
88 0.00402
92 0.001992
102 0.001994
113 0.002007
125 0.004023
136 0.003991
146 0.002013
153 0.001996
159 0.001997
164 0.003992
173 0.003003
160 0.004989
90 0.005018
22 0.003025
17 0.002993
29 0.001994
39 0.003957
45 0.003989
62 0.00203
74 0.002
79 0.001996
79 0.003991
86 0.00299
97 0.00402
108 0.005029
123 0.002962
133 0.001995
142 0.002985
149 0.004987
154 0.004983
161 0.001999
168 0.002996
173 0.001989
91 0.002027
34 0.002978
19 0.005017
28 0.005019
42 0.002962
48 0.002976
60 0.002995
75 0.004987
83 0.004987
85 0.002992
87 0.002996
95 0.003016
115 0.003012
127 0.003042
138 0.004988
147 0.004986
157 0.002994
164 0.002993
169 0.002977
174 0.004987
179 0.004987
189 0.002992
196 0.003974
165 0.00298
46 0.002987
27 0.003982
38 0.006016
52 0.004987
62 0.002975
73 0.003025
87 0.003026
94 0.003034
95 0.004986
96 0.004944
103 0.002935
114 0.002948
135 0.002994
146 0.002989
155 0.003987
162 0.005984
168 0.005984
174 0.003996
178 0.003989
184 0.004003
191 0.006019
186 0.005984
95 0.002992
44 0.002994
43 0.002991
58 0.004017
69 0.003995
81 0.005984
95 0.006018
102 0.00399
100 0.003993
100 0.003989
107 0.005985
117 0.006021
135 0.004991
146 0.003994
161 0.004999
169 0.003988
175 0.003989
181 0.006022
187 0.006004
195 0.003992
182 0.003995
110 0.003992
49 0.006034
32 0.005984
49 0.003983
62 0.003984
78 0.005012
92 0.004957
101 0.004985
103 0.006986
103 0.006982
110 0.003978
121 0.004019
133 0.004039
145 0.006026
156 0.005984
168 0.004
176 0.002997
186 0.004989
192 0.004985
200 0.004975
202 0.007013
151 0.006972
53 0.004973
31 0.00499
39 0.004984
53 0.006983
62 0.006982
75 0.004989
89 0.004984
101 0.004997
101 0.004985
105 0.004969
113 0.006981
124 0.006981
142 0.00497
153 0.004969
163 0.004981
172 0.007038
180 0.006982
187 0.004983
193 0.004986
204 0.005987
201 0.004985
133 0.004979
56 0.007016
29 0.006979
41 0.004985
56 0.004995
64 0.004992
75 0.007002
89 0.006978
100 0.00499
101 0.007979
106 0.005944
115 0.00599
127 0.005981
139 0.006001
155 0.007942
162 0.006981
173 0.005105
180 0.005033
186 0.005029
191 0.006981
198 0.007019
191 0.007042
87 0.007971
37 0.005988
30 0.005985
46 0.005977
62 0.007978
76 0.007986
91 0.006008
99 0.004986
99 0.005038
96 0.007978
101 0.006981
119 0.007975
131 0.007983
142 0.005998
152 0.005979
161 0.005983
169 0.00799
174 0.007979
183 0.005987
188 0.005985
160 0.005976
81 0.007978
31 0.007979
37 0.007015
53 0.007016
64 0.005983
78 0.005968
91 0.006015
96 0.007979
95 0.007979
97 0.005987
105 0.005985
116 0.006981
134 0.007999
145 0.007012
160 0.007015
168 0.007023
174 0.006981
180 0.006015
187 0.005984
175 0.007984
98 0.007968
34 0.005985
14 0.005967
24 0.005987
42 0.006982
48 0.007012
70 0.006981
81 0.00698
84 0.007012
84 0.006986
90 0.006982
100 0.007016
112 0.006981
123 0.006981
134 0.00602
146 0.006968
152 0.006016
157 0.007016
168 0.007013
172 0.007035
120 0.006824
69 0.006964
21 0.006966
125 0.007018
124 0.007018
124 0.006962
124 0.006952
124 0.006017
124 0.006949
124 0.006016
124 0.006015
124 0.006949
124 0.006946
124 0.006949
124 0.006994
124 0.006947
124 0.006948
124 0.006975
133 0.006975
140 0.006969
149 0.006935
153 0.007014
57 0.006966
0 0.006025
0 0.006024
0 0.005982
12 0.005955
23 0.006989
44 0.006016
59 0.005986
62 0.006007
62 0.005991
70 0.006995
93 0.00599
102 0.006977
120 0.005987
132 0.005949
145 0.005978
153 0.005992
161 0.00599
171 0.005986
175 0.005986
105 0.005852
38 0.005985
11 0.005938
32 0.006003
46 0.005978
58 0.006012
79 0.00601
97 0.006006
100 0.005012
100 0.004952
106 0.005027
117 0.005986
138 0.00508
152 0.004986
164 0.004989
180 0.004988
188 0.005962
196 0.006001
203 0.006029
213 0.005953
204 0.005974
134 0.005975
61 0.004989
35 0.006005
49 0.005019
61 0.004988
67 0.004994
93 0.005018
110 0.004975
116 0.004984
117 0.006028
123 0.005953
135 0.005953
148 0.004961
161 0.006034
174 0.00502
188 0.005034
197 0.004983
204 0.004993
213 0.004991
221 0.005002
229 0.005005
227 0.00499
134 0.005952
68 0.003994
49 0.003992
60 0.00601
74 0.005012
83 0.004996
97 0.004988
115 0.005029
127 0.004988
128 0.00499
132 0.004941
142 0.006017
161 0.006031
174 0.004987
185 0.005017
197 0.005022
207 0.005034
216 0.005036
223 0.004003
229 0.005023
240 0.00399
247 0.005041
248 0.005048
185 0.005018
81 0.005034
58 0.004986
70 0.00502
86 0.005029
95 0.005038
105 0.005025
128 0.005056
136 0.005025
136 0.00399
139 0.004987
148 0.00503
162 0.00499
176 0.003986
192 0.004988
203 0.004027
211 0.004026
217 0.004975
221 0.003989
229 0.004989
235 0.003991
239 0.004023
175 0.004989
98 0.004992
66 0.004056
73 0.003991
99 0.003983
112 0.003987
127 0.003955
142 0.004036
149 0.004017
147 0.00399
146 0.003997
162 0.00399
175 0.003983
190 0.00399
201 0.003992
212 0.004014
224 0.005021
221 0.00399
236 0.003997
187 0.003042
190 0.004034
169 0.003992
114 0.004024
95 0.004021
102 0.002994
111 0.003031
117 0.003003
122 0.004055
134 0.002993
138 0.004023
138 0.003031
138 0.002992
141 0.00399
148 0.003991
158 0.004026
167 0.004005
173 0.00395
177 0.00396
181 0.002985
184 0.002992
188 0.00299
191 0.002993
195 0.002991
190 0.002981
145 0.002992
95 0.00298
90 0.002995
104 0.003985
110 0.003002
114 0.002992
122 0.001994
129 0.002991
132 0.002999
132 0.00296
134 0.002984
139 0.003028
146 0.003027
155 0.003048
163 0.002986
171 0.002993
175 0.002995
179 0.002992
182 0.002993
186 0.002027
190 0.003024
193 0.002036
166 0.002994
114 0.001995
87 0.002028
88 0.001997
103 0.003024
111 0.003029
118 0.001996
126 0.001995
130 0.001995
130 0.003049
129 0.001995
134 0.002993
140 0.003028
147 0.00203
154 0.001996
161 0.001995
170 0.001958
175 0.001963
179 0.001956
182 0.002003
186 0.001959
187 0.001998
157 0.002035
95 0.002028
79 0.001994
85 0.001995
98 0.000998
108 0.001045
122 0.001028
127 0.001992
126 0.002952
125 0.000998
126 0.001995
130 0.001995
137 0.001998
148 0.002
154 0.00201
160 0.002041
165 0.001995
169 0.002006
175 0.000995
178 0.00204
156 0.000998
105 0.000998
76 0.001989
74 0.000995
85 0.000998
97 0.000997
104 0.001003
113 0.000998
118 0.002023
119 0.001995
118 0.002027
121 0.002036
130 0.002036
137 0.001005
143 0.001002
149 0.000998
154 0.000998
160 0.000997
163 0.000998
167 0.001995
170 0.00202
124 0.002034
80 0.002039
62 0.002026
69 0.001996
78 0.002035
82 0.001996
88 0.001996
97 0.000993
103 0.000906
103 0.001024
104 0.000998
107 0.000997
119 0.002
126 0.000997
133 0.002039
139 0.0
144 0.000997
147 0.004036
151 0.002036
155 0.0
147 0.002029
105 0.001042
69 0.0
59 0.0
71 0.001009
76 0.000998
81 0.000998
94 0.000976
102 0.000995
103 0.000997
103 0.0
105 0.000999
114 0.0
122 0.0
129 0.0
135 0.0
144 0.0
148 0.0
152 0.0
156 0.0
161 0.0
153 0.0
112 0.000953
78 0.000997
69 0.000997
78 0.0
86 0.0
90 0.0
106 0.0
111 0.0
112 0.0
113 0.0
116 0.0
122 0.0
130 0.0
138 0.0
144 0.0
150 0.0
155 0.0
158 0.0
163 0.0
166 0.0
162 0.0
125 0.0
83 0.0
79 0.0
91 0.0
96 0.001032
104 0.0
113 0.0
119 0.002042
119 0.000992
119 0.001
122 0.0
132 0.000983
139 0.0
144 0.00203
150 0.00304
155 0.0
159 0.0
163 0.0
166 0.002015
166 0.002012
127 0.0
85 0.002043
82 0.0
91 0.0
98 0.0
103 0.002026
112 0.002032
120 0.000965
122 0.000997
121 0.000998
123 0.002027
128 0.002028
138 0.0
147 0.002055
154 0.0
158 0.0
161 0.0
164 0.002026
167 0.00203
171 0.0
165 0.0
125 0.0
89 0.002029
78 0.002026
86 0.000995
93 0.002032
98 0.0
108 0.0
116 0.0
118 0.001995
118 0.002027
122 0.0
127 0.0
135 0.0
141 0.002043
147 0.002026
156 0.002032
160 0.002027
163 0.0
166 0.000978
170 0.0
173 0.003038
165 0.002022
124 0.002022
83 0.0
80 0.0
89 0.0
95 0.002006
103 0.0
113 0.001996
117 0.001997
120 0.0
120 0.0
124 0.0
132 0.003017
142 0.002028
154 0.0
162 0.0
169 0.0
175 0.002001
182 0.0
185 0.002029
189 0.002029
196 0.0
193 0.0
143 0.0
89 0.002033
70 0.002043
81 0.00101
93 0.000964
100 0.0
109 0.002995
124 0.0
125 0.002037
123 0.002028
126 0.0
133 0.0
143 0.0
152 0.002042
160 0.002027
169 0.002014
174 0.002
178 0.0
181 0.00296
188 0.0
188 0.002982
144 0.003015
78 0.0
67 0.0
78 0.0
92 0.003005
101 0.002993
116 0.001984
126 0.001991
129 0.001993
127 0.002992
130 0.00095
137 0.002999
147 0.002962
159 0.002003
167 0.001997
175 0.001995
180 0.002993
185 0.00295
190 0.002002
194 0.002019
198 0.001994
184 0.003008
86 0.002007
61 0.002951
67 0.002954
85 0.001999
92 0.001991
99 0.001994
110 0.002994
118 0.003027
120 0.002
120 0.002006
124 0.002
132 0.004047
149 0.001975
158 0.003985
165 0.00298
175 0.002
180 0.001991
184 0.002964
188 0.003111
191 0.003034
197 0.002
201 0.002993
167 0.002988
99 0.003989
56 0.001989
68 0.001999
81 0.003987
89 0.002982
101 0.001944
111 0.001995
117 0.001987
118 0.003988
118 0.002992
124 0.001939
134 0.002001
150 0.001995
159 0.002069
167 0.001997
174 0.002987
180 0.002993
186 0.002003
190 0.001998
196 0.001993
201 0.004028
197 0.003991
119 0.002991
72 0.002989
70 0.002
86 0.001993
97 0.002031
106 0.003989
118 0.004987
126 0.003022
126 0.002014
125 0.001999
127 0.00399
134 0.00399
147 0.001994
157 0.001995
171 0.003001
177 0.001991
182 0.003008
187 0.003989
190 0.00399
195 0.003025
190 0.002009
135 0.002032
80 0.004986
61 0.005124
76 0.00201
92 0.00296
110 0.002993
120 0.003001
124 0.002986
122 0.004958
119 0.005019
124 0.003002
132 0.003004
141 0.002992
151 0.004987
159 0.005018
167 0.001997
173 0.002
182 0.002985
187 0.001999
183 0.001994
131 0.003969
73 0.004026
50 0.002994
61 0.003001
75 0.001985
83 0.005025
93 0.004987
106 0.002992
109 0.002984
107 0.001994
110 0.001995
117 0.002021
126 0.005996
135 0.005026
147 0.002979
153 0.003005
158 0.002954
164 0.005025
168 0.004984
173 0.002981
159 0.002995
62 0.002993
39 0.003004
44 0.002996
58 0.004985
67 0.00599
76 0.003991
88 0.002984
95 0.002993
96 0.005987
96 0.005984
102 0.002989
110 0.002993
122 0.004978
133 0.00299
141 0.002993
147 0.003999
152 0.005984
157 0.005984
164 0.003982
166 0.003025
135 0.003016
76 0.005984
44 0.005988
47 0.002995
63 0.005984
72 0.003991
83 0.003958
95 0.003992
99 0.005985
99 0.006017
102 0.003994
108 0.003994
116 0.003995
127 0.006019
136 0.00604
146 0.003992
154 0.006973
160 0.002995
165 0.003992
169 0.00396
170 0.007019
133 0.005984
65 0.003993
48 0.003976
58 0.002996
72 0.005984
80 0.00602
97 0.005987
106 0.005971
107 0.003003
105 0.002025
107 0.00399
114 0.006981
123 0.007012
135 0.003973
142 0.003989
149 0.004022
154 0.007012
158 0.006997
165 0.006032
166 0.005945
118 0.003985
68 0.004996
50 0.003982
58 0.006985
71 0.007013
81 0.004988
93 0.004986
105 0.003987
110 0.006981
108 0.006979
110 0.006987
121 0.007971
131 0.003992
140 0.004992
148 0.004988
155 0.006981
161 0.006979
166 0.00499
171 0.004991
175 0.005002
175 0.007071
138 0.006984
57 0.00698
50 0.00698
64 0.004951
72 0.004955
76 0.004998
89 0.006968
100 0.006981
105 0.005981
105 0.004972
108 0.004954
115 0.007018
125 0.007013
141 0.006985
149 0.006981
158 0.005039
162 0.004934
167 0.004985
171 0.005986
175 0.007973
181 0.007979
176 0.004988
123 0.004987
71 0.005007
53 0.007978
69 0.004991
76 0.007979
80 0.007976
96 0.003987
106 0.00499
108 0.006005
108 0.007971
113 0.007981
121 0.005985
131 0.005982
141 0.005987
152 0.007959
161 0.004971
168 0.007978
170 0.007977
175 0.004984
180 0.005995
184 0.005986
190 0.007979
180 0.007958
100 0.005985
62 0.005993
59 0.006005
71 0.007978
85 0.006976
90 0.007978
103 0.007978
112 0.006959
111 0.005957
114 0.006973
121 0.00695
130 0.006997
140 0.006021
149 0.005999
157 0.005984
166 0.007947
173 0.004946
176 0.007979
180 0.007978
186 0.006981
191 0.005984
186 0.006973
131 0.006981
77 0.006983
59 0.005984
68 0.006026
81 0.005997
94 0.005037
106 0.005975
116 0.007972
115 0.007035
113 0.004983
115 0.00598
123 0.006965
135 0.006983
145 0.007024
155 0.006971
161 0.006947
164 0.005984
171 0.005973
175 0.005983
180 0.006989
167 0.005982
92 0.005984
59 0.00601
55 0.00695
71 0.005984
84 0.00704
97 0.005984
106 0.006984
115 0.006968
114 0.006005
113 0.00698
119 0.00701
129 0.00598
142 0.00597
151 0.005986
159 0.005985
165 0.005977
170 0.005985
177 0.00695
182 0.006973
181 0.005955
95 0.006969
65 0.006962
49 0.00698
62 0.006987
74 0.005969
83 0.005967
95 0.00598
104 0.005943
108 0.006003
106 0.005962
109 0.005948
115 0.005955
132 0.005975
142 0.006023
147 0.004975
157 0.005983
163 0.006014
170 0.005986
174 0.005988
179 0.006022
166 0.00593
105 0.005985
47 0.005936
43 0.005932
60 0.005962
70 0.004984
78 0.004983
91 0.00502
98 0.006034
100 0.005988
100 0.005991
104 0.006017
113 0.005985
123 0.006018
136 0.005968
144 0.006949
155 0.005941
161 0.004959
167 0.004988
171 0.005017
175 0.006037
130 0.005995
69 0.005005
42 0.005953
44 0.005984
59 0.005018
70 0.005985
79 0.005985
97 0.005984
99 0.004986
99 0.004987
100 0.004991
106 0.005018
118 0.004994
128 0.00402
137 0.00499
145 0.004986
151 0.004988
157 0.004984
163 0.006023
170 0.005034
156 0.003987
97 0.004957
51 0.005037
41 0.003988
56 0.005001
68 0.00503
78 0.005033
90 0.005002
98 0.004947
98 0.005004
96 0.004953
104 0.004989
113 0.004953
123 0.004958
133 0.004955
141 0.003989
149 0.005027
155 0.004985
160 0.00498
165 0.005036
163 0.005017
99 0.005017
46 0.004025
46 0.004995
60 0.004949
70 0.004959
80 0.005007
93 0.004949
100 0.005028
102 0.004989
101 0.004954
105 0.003989
113 0.003998
124 0.002984
140 0.002943
148 0.004025
156 0.004025
161 0.004046
166 0.003966
170 0.003989
175 0.004031
139 0.004024
77 0.005003
44 0.004966
44 0.004017
57 0.005043
69 0.004988
78 0.003026
95 0.004003
100 0.003954
100 0.004014
101 0.004003
106 0.004027
119 0.003993
130 0.00394
139 0.004044
148 0.003989
155 0.003993
163 0.003023
168 0.00299
175 0.003992
174 0.003956
130 0.002994
73 0.003991
47 0.003967
54 0.004022
67 0.003989
74 0.003993
82 0.003994
95 0.003989
106 0.002976
106 0.003023
109 0.002994
116 0.002992
127 0.003003
137 0.00303
147 0.00298
157 0.003954
163 0.002978
167 0.00399
171 0.00403
175 0.004023
183 0.00402
175 0.002989
96 0.002995
55 0.002998
50 0.003023
63 0.003025
74 0.002993
85 0.004028
97 0.002994
106 0.002986
107 0.003022
105 0.002992
110 0.002996
119 0.002991
132 0.002991
141 0.003012
149 0.002975
154 0.003038
158 0.002992
165 0.003027
169 0.003057
172 0.002032
151 0.001983
94 0.001995
50 0.001995
58 0.001997
74 0.001985
83 0.001992
96 0.002977
105 0.003027
108 0.002995
105 0.002046
107 0.002028
115 0.002993
125 0.002023
135 0.002003
148 0.001972
154 0.002033
159 0.001997
166 0.00195
170 0.001993
172 0.001976
140 0.002021
81 0.002039
46 0.002028
53 0.000998
64 0.001944
78 0.002
91 0.002002
102 0.001996
106 0.002003
105 0.002
108 0.002011
116 0.001994
126 0.001996
136 0.002032
147 0.001961
155 0.000997
161 0.000999
169 0.000998
173 0.000999
178 0.000998
171 0.001995
96 0.001964
57 0.002026
51 0.002043
61 0.00202
70 0.001995
78 0.002036
91 0.000987
104 0.002033
109 0.001989
110 0.001047
114 0.001039
123 0.000998
136 0.000967
145 0.000997
154 0.001985
161 0.002054
167 0.001
173 0.00203
177 0.002021
182 0.001036
186 0.000998
143 0.000999
83 0.00103
55 0.000988
62 0.000994
75 0.000997
81 0.001003
89 0.001039
103 0.001003
114 0.001998
114 0.002028
115 0.0
124 0.001028
134 0.002027
144 0.001992
153 0.001001
164 0.001029
170 0.000999
174 0.000953
178 0.000998
182 0.000997
188 0.001998
193 0.0
173 0.002028
76 0.0
57 0.0
65 0.0
78 0.0
91 0.0
103 0.0
114 0.000998
117 0.000998
115 0.000997
116 0.000997
122 0.000998
132 0.000997
148 0.001125
157 0.0
164 0.0
170 0.00103
176 0.0
180 0.0
186 0.0
186 0.001057
146 0.0
86 0.0
56 0.000998
64 0.001001
85 0.000999
94 0.0
108 0.0
118 0.0
120 0.0
118 0.0
121 0.0
128 0.0
138 0.0
148 0.0
161 0.0
169 0.0
178 0.0
183 0.0
188 0.0
193 0.001016
194 0.001024
130 0.0
73 0.0
53 0.0
61 0.0
76 0.0
87 0.0
97 0.0
115 0.0
118 0.0
118 0.0
122 0.0
130 0.0
140 0.000997
150 0.002987
163 0.0
171 0.0
178 0.0
183 0.002029
191 0.000984
196 0.001996
202 0.003046
171 0.0
99 0.001006
60 0.000997
56 0.002027
71 0.003031
89 0.0
98 0.0
111 0.0
120 0.003031
123 0.0
124 0.002025
128 0.002032
139 0.0
151 0.000965
161 0.0
171 0.003027
180 0.002995
189 0.0
195 0.0
199 0.000947
204 0.003028
212 0.0
183 0.002995
109 0.003035
63 0.0
67 0.0
84 0.0
99 0.003033
111 0.00198
126 0.0
129 0.0
126 0.0
124 0.002042
132 0.0
141 0.001998
151 0.002027
165 0.0
173 0.0
180 0.0
186 0.001995
192 0.003991
199 0.0
200 0.0
153 0.0
88 0.002026
59 0.0
72 0.003023
89 0.00303
101 0.003025
118 0.0
124 0.0
125 0.0
122 0.001992
123 0.002043
132 0.0
143 0.000965
153 0.001025
168 0.000982
175 0.0
182 0.002038
188 0.003025
195 0.0
199 0.0
172 0.0
101 0.003008
58 0.002039
56 0.0
70 0.0
81 0.0
97 0.001005
108 0.000964
113 0.002023
112 0.00296
114 0.000962
121 0.0
129 0.00099
139 0.003026
149 0.002979
160 0.0
167 0.0
173 0.0
182 0.0
187 0.0
189 0.002036
147 0.001989
69 0.0
51 0.000992
59 0.0
72 0.003005
82 0.00303
95 0.000969
107 0.0
112 0.0
112 0.0
115 0.0
122 0.002987
131 0.003026
146 0.0
155 0.0
162 0.000965
168 0.002993
174 0.002993
180 0.0
185 0.0
175 0.0
115 0.002023
66 0.001984
54 0.003008
65 0.00299
84 0.002003
93 0.001996
106 0.001988
115 0.003955
115 0.003988
112 0.00199
115 0.001996
128 0.002996
138 0.003084
147 0.002994
155 0.002955
161 0.002995
168 0.002033
173 0.001988
179 0.002994
182 0.002979
158 0.002999
79 0.00197
53 0.001977
66 0.001994
78 0.002984
87 0.003002
100 0.003986
111 0.003951
113 0.002026
111 0.002994
113 0.001986
120 0.002991
129 0.003951
139 0.004026
151 0.0
161 0.003983
168 0.001994
173 0.001997
178 0.001994
182 0.003991
175 0.003994
97 0.003001
54 0.001992
46 0.001992
57 0.002998
68 0.004024
76 0.002994
93 0.003987
104 0.00199
105 0.00299
105 0.002015
110 0.003991
118 0.004024
132 0.001981
142 0.002993
151 0.001994
159 0.00399
164 0.004978
170 0.002989
177 0.004988
183 0.003017
184 0.002995
141 0.001984
77 0.003998
49 0.003988
56 0.001987
67 0.001997
75 0.003004
84 0.005016
97 0.004987
108 0.002028
109 0.004993
112 0.002997
119 0.002991
129 0.002992
139 0.00399
149 0.003988
160 0.002012
167 0.002001
172 0.002006
177 0.004993
181 0.00503
187 0.002998
194 0.005009
149 0.003007
84 0.002006
55 0.002982
58 0.00499
72 0.00497
85 0.002998
95 0.002992
108 0.002997
114 0.005955
113 0.006017
112 0.002995
119 0.004949
132 0.002019
142 0.001995
152 0.002974
160 0.004989
165 0.004987
172 0.001998
176 0.001982
180 0.002035
184 0.004987
187 0.005021
128 0.002991
60 0.005998
53 0.002033
67 0.002007
80 0.002999
90 0.004953
103 0.005
113 0.00203
112 0.002011
111 0.00296
114 0.004997
122 0.004986
139 0.004987
151 0.006
162 0.002992
169 0.002991
175 0.002987
179 0.006982
183 0.005987
189 0.002996
193 0.002993
164 0.003
93 0.002007
52 0.005017
54 0.003991
66 0.005985
73 0.00598
87 0.002958
98 0.002956
104 0.003004
105 0.005988
106 0.005991
113 0.002994
122 0.002986
133 0.002986
144 0.006988
158 0.003988
164 0.005987
170 0.005971
176 0.00298
180 0.003993
185 0.003016
190 0.005983
166 0.005971
75 0.002999
44 0.00298
45 0.004001
58 0.006981
73 0.00399
83 0.006989
95 0.006974
102 0.003993
102 0.004006
104 0.00399
110 0.005979
119 0.005984
133 0.002988
144 0.003989
152 0.003984
159 0.007012
169 0.003988
173 0.006982
177 0.006987
184 0.003036
186 0.003991
145 0.003996
76 0.005963
44 0.005945
48 0.002989
62 0.003987
71 0.003981
81 0.007013
97 0.003959
97 0.006988
95 0.006986
98 0.004006
106 0.004005
116 0.004004
126 0.006984
135 0.006979
145 0.004978
150 0.004998
155 0.004988
160 0.006982
168 0.00497
167 0.006983
117 0.007002
45 0.003988
32 0.003987
41 0.003988
53 0.006985
62 0.006983
79 0.004987
88 0.004988
91 0.004986
89 0.007974
94 0.004985
103 0.006969
113 0.006982
127 0.004984
135 0.003988
142 0.003978
149 0.007966
154 0.007958
158 0.00296
163 0.005009
166 0.004951
107 0.007968
36 0.004992
25 0.00797
35 0.007977
43 0.007974
49 0.004004
60 0.004958
72 0.003972
78 0.006965
78 0.007966
81 0.004992
88 0.004989
98 0.004975
115 0.004985
123 0.004979
133 0.007977
137 0.007973
143 0.004981
148 0.005987
154 0.00595
156 0.007966
136 0.007967
58 0.005954
28 0.005981
34 0.004987
43 0.004967
49 0.00399
66 0.007943
75 0.007978
84 0.003985
84 0.00499
86 0.004972
95 0.006965
106 0.00698
117 0.005994
126 0.005986
138 0.006015
145 0.005988
149 0.005982
155 0.006983
160 0.00797
167 0.004992
171 0.005989
140 0.004988
60 0.00798
35 0.007971
39 0.005989
51 0.006003
64 0.005985
77 0.005986
89 0.005977
93 0.005982
91 0.006978
94 0.005992
101 0.005987
111 0.005969
121 0.007964
133 0.00695
140 0.005999
146 0.006982
154 0.005971
160 0.005946
165 0.005992
156 0.006978
100 0.006982
54 0.005983
41 0.005979
50 0.005984
65 0.006981
75 0.005982
94 0.00696
103 0.005979
105 0.006983
104 0.005958
111 0.006992
121 0.006989
131 0.007013
141 0.005995
150 0.005997
157 0.005988
165 0.006995
170 0.007013
175 0.005978
180 0.005984
144 0.005975
80 0.005984
47 0.005988
46 0.006012
58 0.006007
70 0.005989
78 0.005982
92 0.005938
103 0.006048
107 0.007016
108 0.005983
112 0.005984
127 0.005976
138 0.005946
148 0.005986
158 0.005985
165 0.005981
171 0.005977
177 0.005979
182 0.005964
187 0.005951
193 0.005981
185 0.006015
101 0.005987
52 0.006032
58 0.005997
71 0.005989
79 0.005988
88 0.006015
103 0.006022
115 0.006014
116 0.006008
117 0.005979
122 0.006018
131 0.005977
145 0.005956
159 0.005949
171 0.004987
178 0.004986
184 0.004989
188 0.005979
193 0.005998
199 0.005994
205 0.005988
207 0.005986
151 0.005949
84 0.005021
59 0.004024
73 0.005044
91 0.005983
102 0.005967
115 0.005997
124 0.006016
125 0.006014
122 0.005983
125 0.005985
133 0.005971
143 0.005018
155 0.005019
170 0.005022
177 0.005018
184 0.004987
189 0.003989
194 0.005986
199 0.0051
196 0.00501
118 0.00499
69 0.005997
57 0.004986
70 0.005019
85 0.004983
106 0.004988
121 0.004986
129 0.004988
127 0.00508
125 0.005084
129 0.004971
138 0.005028
153 0.004985
163 0.005001
173 0.004955
181 0.005005
188 0.005022
197 0.005024
201 0.005029
208 0.005005
189 0.00398
114 0.003999
63 0.004034
52 0.004021
69 0.004006
82 0.003995
91 0.004964
104 0.005021
115 0.004965
120 0.005022
119 0.004988
126 0.004987
135 0.005007
145 0.003989
156 0.004023
166 0.004022
176 0.003989
183 0.003984
189 0.003986
194 0.003989
199 0.00403
202 0.003996
149 0.003988
79 0.004023
49 0.004949
59 0.004988
75 0.003974
85 0.004036
95 0.004003
111 0.004002
116 0.003982
117 0.00395
116 0.004024
127 0.004043
137 0.004095
148 0.003969
160 0.003984
169 0.003992
176 0.00399
181 0.00402
186 0.00399
193 0.002966
199 0.003983
199 0.003005
151 0.002991
58 0.002959
52 0.003981
65 0.003025
82 0.003989
91 0.00399
105 0.00399
114 0.003991
116 0.003981
114 0.003995
117 0.004015
124 0.003012
134 0.003026
152 0.003026
161 0.00402
168 0.002983
176 0.002958
180 0.002989
184 0.002994
188 0.003028
193 0.003036
168 0.003988
98 0.00299
57 0.002987
52 0.003046
76 0.003028
88 0.003039
100 0.002992
114 0.002997
115 0.002989
111 0.003004
112 0.002989
118 0.002991
129 0.002985
140 0.002985
150 0.002978
162 0.002992
168 0.001998
172 0.003027
176 0.003023
182 0.002986
186 0.001996
173 0.002012
109 0.002032
59 0.002059
48 0.003003
62 0.003002
74 0.002971
93 0.002997
104 0.002026
109 0.002026
108 0.003001
108 0.001979
114 0.001997
123 0.001966
134 0.00197
144 0.001995
155 0.002964
161 0.001984
167 0.001981
175 0.001995
179 0.00208
184 0.001962
170 0.002038
86 0.002
51 0.002002
49 0.001994
60 0.001988
70 0.002027
77 0.002025
94 0.001987
104 0.001994
108 0.002032
109 0.002001
114 0.001985
123 0.002042
133 0.001987
146 0.002991
155 0.001985
161 0.002084
167 0.002029
172 0.001994
179 0.001987
184 0.002011
172 0.002025
110 0.000998
65 0.00096
54 0.000998
63 0.000998
79 0.002032
86 0.001993
98 0.002003
110 0.002028
116 0.002028
117 0.001993
119 0.002023
132 0.002026
143 0.001006
152 0.001993
161 0.00103
169 0.000999
178 0.001012
182 0.002007
186 0.002011
191 0.00203
196 0.001993
200 0.001995
162 0.001994
79 0.001998
71 0.000998
83 0.001995
96 0.000997
104 0.000998
119 0.001998
127 0.000957
130 0.001958
128 0.001959
129 0.002042
138 0.00197
147 0.000964
163 0.002044
171 0.002026
177 0.0
183 0.0
188 0.0
194 0.00204
198 0.0
184 0.0
130 0.0
92 0.000999
86 0.001005
99 0.000969
116 0.001035
128 0.00104
139 0.000998
143 0.000997
142 0.000997
142 0.001004
147 0.00096
155 0.000967
164 0.000983
173 0.0
183 0.0
191 0.0
196 0.0
201 0.0
206 0.0
207 0.0
173 0.0
106 0.0
87 0.0
91 0.0
103 0.000997
111 0.000998
121 0.000992
135 0.0
139 0.0
138 0.0
140 0.0
146 0.0
154 0.0
163 0.0
173 0.0
179 0.0
185 0.0
191 0.0
195 0.0
201 0.0
188 0.000998
122 0.002993
92 0.001003
89 0.001015
100 0.000997
112 0.00201
119 0.002039
130 0.0
139 0.0
138 0.0
137 0.000967
143 0.0
151 0.000963
158 0.00195
166 0.00299
172 0.0
178 0.0
183 0.000978
187 0.002039
191 0.001994
180 0.00101
135 0.0
99 0.00097
93 0.000948
104 0.0
114 0.001997
122 0.003061
135 0.0
139 0.0
138 0.0
136 0.00296
140 0.003025
149 0.0
156 0.0
164 0.0
175 0.0
181 0.0
185 0.003028
190 0.002996
195 0.0
182 0.001011
137 0.0
102 0.001994
91 0.001987
101 0.000996
109 0.000964
115 0.0
