146 0.013962
150 0.001992
158 0.001995
161 0.001953
164 0.002003
161 0.00199
74 0.001995
30 0.001995
38 0.001995
68 0.000997
88 0.001007
103 0.000995
114 0.00304
114 0.001995
108 0.001996
107 0.001994
113 0.00203
123 0.00296
137 0.001966
148 0.001995
153 0.001995
156 0.001994
162 0.001996
165 0.002004
171 0.002028
160 0.002033
66 0.000986
33 0.001993
39 0.001994
60 0.001996
96 0.001002
109 0.001996
118 0.001994
119 0.001994
114 0.002
112 0.00197
120 0.002934
131 0.003031
145 0.002011
155 0.002054
161 0.001933
166 0.001941
171 0.001995
176 0.002028
179 0.002013
184 0.00104
179 0.001031
119 0.002029
62 0.001968
50 0.002994
65 0.002992
101 0.001993
120 0.001995
132 0.001995
137 0.002039
126 0.001961
119 0.001995
124 0.001995
132 0.002045
142 0.002992
149 0.002992
158 0.00298
164 0.002992
169 0.001995
173 0.000997
176 0.001995
184 0.002991
175 0.002985
92 0.002964
61 0.003033
71 0.002055
97 0.001996
122 0.002049
140 0.002992
151 0.003032
150 0.002028
143 0.001958
138 0.001906
142 0.002029
150 0.002026
161 0.002974
168 0.002992
172 0.003041
179 0.002029
184 0.002046
186 0.00298
189 0.003003
193 0.002047
158 0.002026
90 0.002025
62 0.002027
82 0.002993
108 0.003996
128 0.003989
142 0.002992
148 0.001994
148 0.002998
139 0.002992
138 0.002992
142 0.002993
151 0.001992
163 0.001961
169 0.001995
173 0.003071
176 0.003989
180 0.002992
184 0.003025
187 0.003023
189 0.002992
111 0.0
91 0.002991
61 0.002985
73 0.002995
109 0.002992
131 0.002991
144 0.002978
150 0.003015
146 0.002991
141 0.002964
140 0.002992
146 0.002659
154 0.003997
161 0.004003
168 0.003066
173 0.002968
179 0.003011
180 0.003015
184 0.002992
187 0.003973
162 0.002992
103 0.003047
74 0.003028
78 0.003034
112 0.003066
134 0.00399
147 0.00399
155 0.003991
148 0.002991
139 0.002992
141 0.003025
147 0.003041
154 0.003991
161 0.002994
164 0.004017
170 0.00403
172 0.003991
176 0.003989
170 0.003025
117 0.003039
61 0.002993
69 0.002944
96 0.003026
121 0.003991
136 0.004001
146 0.003043
146 0.002984
139 0.002992
133 0.003989
135 0.004024
141 0.004015
147 0.004014
155 0.004064
159 0.004068
162 0.003991
163 0.003994
169 0.003994
133 0.003035
69 0.002992
39 0.002992
47 0.003959
71 0.004038
102 0.003989
111 0.00399
126 0.004024
123 0.00399
119 0.002992
120 0.003985
127 0.004023
139 0.002992
146 0.002992
152 0.002992
156 0.004955
162 0.003988
165 0.00404
170 0.003974
128 0.003956
84 0.003988
51 0.003989
57 0.003954
83 0.00399
113 0.002993
120 0.004006
132 0.003036
131 0.003989
125 0.004988
122 0.004026
128 0.00399
141 0.004019
148 0.00399
153 0.004019
158 0.004025
163 0.004987
166 0.004987
169 0.003989
173 0.00301
173 0.00402
132 0.003989
73 0.003989
61 0.004938
83 0.004991
113 0.004015
125 0.004022
131 0.004014
128 0.004987
118 0.004941
111 0.004032
112 0.00403
120 0.004021
128 0.003967
134 0.004987
140 0.004992
143 0.005036
145 0.003989
148 0.003989
149 0.004018
151 0.004986
149 0.005021
81 0.00399
36 0.003977
30 0.003978
49 0.004987
74 0.004974
102 0.00502
109 0.004986
108 0.004018
104 0.004019
100 0.004026
106 0.004987
113 0.004986
125 0.00402
132 0.004986
138 0.005007
142 0.005985
146 0.006036
152 0.00495
155 0.004961
156 0.004981
158 0.003971
116 0.00402
51 0.004986
26 0.006014
39 0.004053
63 0.004034
82 0.004026
93 0.005986
101 0.006017
104 0.004961
100 0.005016
101 0.004938
109 0.004986
118 0.004984
131 0.004987
139 0.004987
145 0.004035
150 0.004033
153 0.004987
157 0.006023
159 0.005984
164 0.005979
168 0.005981
167 0.004969
95 0.004021
59 0.00499
43 0.004956
61 0.005004
93 0.004052
103 0.004989
116 0.0
135 0.0
154 0.005034
157 0.004981
161 0.005018
166 0.004027
167 0.004032
169 0.006114
169 0.005953
175 0.005985
168 0.005952
93 0.004982
61 0.004963
64 0.004953
87 0.006031
111 0.005984
130 0.005025
137 0.005019
139 0.005027
131 0.004986
124 0.006016
130 0.005933
138 0.005979
147 0.004974
154 0.005029
157 0.004993
161 0.006016
162 0.005984
167 0.004986
170 0.005033
174 0.005028
152 0.006027
90 0.005979
48 0.005984
65 0.005945
90 0.005938
114 0.00497
126 0.004963
130 0.006016
127 0.005984
120 0.004981
121 0.004988
127 0.005025
137 0.005984
150 0.005993
155 0.006979
158 0.006984
165 0.006002
167 0.005985
172 0.006028
166 0.005984
112 0.006025
59 0.006985
47 0.005015
64 0.005032
87 0.006029
109 0.00592
118 0.00698
120 0.006976
119 0.005965
117 0.005988
122 0.005984
126 0.005969
139 0.005984
147 0.005984
156 0.005035
162 0.005015
166 0.005019
172 0.005044
178 0.004986
160 0.005979
100 0.005995
56 0.005015
65 0.005968
90 0.005984
110 0.006981
121 0.006982
129 0.00602
125 0.005987
121 0.006051
117 0.005955
123 0.006002
131 0.007014
138 0.006948
147 0.005946
153 0.005984
156 0.005984
161 0.005984
166 0.006982
170 0.006982
170 0.007016
127 0.006985
57 0.006023
72 0.005973
97 0.007029
115 0.007001
127 0.005979
131 0.005981
128 0.005984
118 0.007937
116 0.007947
121 0.006938
130 0.007065
135 0.007011
147 0.005985
153 0.005984
157 0.007056
162 0.006938
159 0.006002
112 0.00598
65 0.006032
55 0.00702
73 0.006954
104 0.006021
120 0.006031
132 0.007055
131 0.006972
126 0.006975
122 0.006914
127 0.006964
136 0.006983
144 0.00603
151 0.006007
156 0.007045
160 0.006844
164 0.005971
168 0.006047
153 0.007028
68 0.006978
31 0.006967
43 0.007945
66 0.006941
84 0.007021
97 0.005991
105 0.006015
106 0.007016
104 0.006943
104 0.00698
109 0.006982
120 0.006983
135 0.006979
142 0.00695
148 0.007935
155 0.007945
159 0.007015
164 0.00701
158 0.007057
84 0.00798
45 0.006981
44 0.007014
73 0.006981
102 0.006983
110 0.006992
115 0.00697
116 0.007945
113 0.007945
115 0.006951
121 0.006989
126 0.007028
137 0.006981
145 0.007979
154 0.007999
156 0.006981
164 0.00698
171 0.0
135 0.000998
126 0.007973
128 0.007978
121 0.006981
111 0.006996
116 0.006942
125 0.007026
133 0.007946
141 0.007933
149 0.006996
154 0.006
158 0.00706
164 0.007979
136 0.007009
62 0.006983
46 0.007014
57 0.007925
83 0.007944
107 0.006948
118 0.007943
124 0.007934
120 0.006958
115 0.007033
117 0.007003
126 0.007017
133 0.006982
142 0.007017
146 0.007979
152 0.007951
157 0.007945
165 0.007946
149 0.007952
62 0.007956
33 0.006947
39 0.006997
62 0.006981
87 0.006927
98 0.007027
109 0.006982
110 0.007026
107 0.007939
109 0.007983
110 0.007958
119 0.007978
132 0.007946
141 0.007965
148 0.006977
153 0.007018
159 0.007014
164 0.006983
136 0.007003
59 0.006982
48 0.006982
60 0.007918
85 0.007922
110 0.007054
122 0.007978
129 0.007017
123 0.007012
117 0.007027
119 0.007008
127 0.007015
135 0.006983
141 0.006982
147 0.007027
156 0.007013
159 0.00794
162 0.007978
149 0.007979
92 0.007979
48 0.007013
62 0.007046
90 0.007015
109 0.007015
122 0.006982
131 0.007015
123 0.00703
119 0.007027
123 0.006014
132 0.005984
142 0.007028
149 0.007002
158 0.007018
165 0.007015
169 0.007016
173 0.006982
158 0.007013
73 0.006981
39 0.006988
58 0.007025
83 0.006965
100 0.007026
111 0.006945
116 0.006981
115 0.007014
111 0.00697
111 0.00698
115 0.006982
124 0.007012
139 0.007028
146 0.007013
150 0.006966
153 0.006983
158 0.006031
159 0.005984
122 0.005985
46 0.007004
32 0.007051
47 0.007027
74 0.006955
96 0.006997
115 0.006951
119 0.007014
118 0.007032
116 0.006016
118 0.006015
126 0.006019
136 0.005986
148 0.006017
154 0.006981
160 0.007023
165 0.007014
171 0.006981
183 0.007017
175 0.007028
97 0.006014
58 0.006018
60 0.00601
82 0.005984
108 0.005984
131 0.006016
142 0.005984
143 0.005984
135 0.006982
128 0.006982
132 0.007013
138 0.007029
148 0.006994
154 0.006045
158 0.006015
164 0.005984
169 0.005977
175 0.006017
169 0.005986
121 0.006049
69 0.00601
57 0.006982
93 0.007017
118 0.006981
140 0.005984
146 0.006031
144 0.00597
136 0.005984
134 0.006033
140 0.006034
148 0.005974
159 0.005949
166 0.006019
172 0.006019
180 0.006017
185 0.00703
188 0.000998
50 0.0
97 0.005997
117 0.007037
128 0.006017
132 0.005987
131 0.005987
123 0.005975
128 0.005973
136 0.006029
145 0.006055
155 0.006023
160 0.006023
165 0.006064
173 0.005984
177 0.006006
182 0.006016
171 0.00599
110 0.006026
45 0.006025
56 0.005019
93 0.006033
113 0.006034
125 0.005972
131 0.005984
130 0.006016
124 0.005984
122 0.005989
129 0.006024
136 0.006016
146 0.006015
157 0.006016
163 0.005991
169 0.005982
172 0.005018
178 0.005036
168 0.004986
113 0.005973
53 0.006035
54 0.006013
79 0.006017
108 0.005984
132 0.006015
138 0.005971
135 0.005034
128 0.005067
126 0.00499
133 0.004956
141 0.005017
151 0.005109
160 0.004987
167 0.004988
173 0.005028
176 0.005016
187 0.005984
180 0.005997
129 0.006025
77 0.006016
69 0.005047
93 0.004987
116 0.005026
132 0.005036
145 0.004988
147 0.004987
138 0.005034
130 0.005053
134 0.005949
142 0.005984
150 0.006034
158 0.005013
168 0.00603
172 0.005014
177 0.004958
177 0.005017
133 0.005058
67 0.004995
59 0.004955
77 0.005009
118 0.004954
132 0.004979
143 0.005024
140 0.005996
127 0.004933
126 0.004977
129 0.005021
134 0.005034
142 0.00499
151 0.005026
157 0.005045
162 0.005021
171 0.005034
146 0.005035
78 0.004987
36 0.004998
40 0.005026
66 0.005037
89 0.005015
103 0.004987
113 0.005031
114 0.005056
109 0.005012
106 0.004997
115 0.004986
124 0.005016
133 0.004033
142 0.00402
151 0.00399
155 0.005045
160 0.004957
151 0.004983
97 0.004986
38 0.005055
39 0.004987
62 0.005025
101 0.005019
112 0.00502
115 0.005035
114 0.005028
107 0.004031
106 0.004039
112 0.004036
122 0.003989
130 0.005036
141 0.005053
146 0.004985
151 0.005024
157 0.005018
158 0.005031
123 0.004987
65 0.004988
40 0.004042
58 0.00404
85 0.004034
104 0.004022
115 0.004024
119 0.005045
111 0.004988
104 0.005004
109 0.00502
117 0.003977
128 0.004023
135 0.004037
141 0.003941
146 0.003981
151 0.004019
155 0.00403
154 0.00394
91 0.003976
47 0.004053
39 0.004006
74 0.00399
95 0.005056
109 0.00499
116 0.004976
113 0.004026
110 0.004037
110 0.003988
115 0.003933
124 0.003995
136 0.004025
142 0.003992
148 0.004025
153 0.00393
156 0.00399
158 0.011967
156 0.000966
31 0.0
99 0.004027
96 0.004021
97 0.004028
103 0.004031
112 0.003037
126 0.002937
135 0.004057
140 0.003991
147 0.004048
152 0.003992
156 0.004033
163 0.004024
138 0.00399
75 0.004025
42 0.004036
45 0.002979
67 0.003026
94 0.002993
105 0.002994
113 0.003962
116 0.003992
110 0.00399
109 0.004011
116 0.004001
131 0.004028
140 0.003976
148 0.004023
154 0.003001
158 0.002994
160 0.002947
162 0.002992
164 0.002993
167 0.002994
168 0.003989
131 0.003993
58 0.004026
49 0.00399
82 0.004014
104 0.004045
117 0.003024
126 0.002993
124 0.002992
116 0.003062
115 0.004011
120 0.00399
131 0.004037
143 0.004125
155 0.004022
163 0.004021
165 0.00399
169 0.004018
174 0.004021
176 0.004022
179 0.002994
137 0.003038
72 0.002995
44 0.002992
52 0.003026
72 0.002993
96 0.004033
110 0.002992
116 0.002937
116 0.00402
115 0.00299
112 0.002969
123 0.002953
131 0.002994
146 0.003001
148 0.003003
160 0.00295
159 0.002924
168 0.002995
171 0.002989
181 0.002993
172 0.002978
111 0.003959
55 0.002993
44 0.002994
67 0.002993
89 0.003028
107 0.003028
116 0.002992
123 0.002992
121 0.003977
124 0.003992
125 0.002992
141 0.003027
145 0.001995
159 0.002995
166 0.003063
173 0.003005
175 0.002994
180 0.002027
185 0.002965
187 0.002962
175 0.002951
115 0.002977
59 0.002992
66 0.003032
89 0.002995
113 0.002987
127 0.002984
140 0.002992
137 0.002993
132 0.002945
125 0.001995
129 0.001995
145 0.002993
154 0.00303
166 0.00299
170 0.00293
174 0.003026
179 0.003023
183 0.001995
187 0.003039
153 0.001995
85 0.001995
55 0.001995
63 0.002027
106 0.002994
124 0.002994
137 0.002992
139 0.003051
134 0.003024
127 0.003023
128 0.00301
138 0.001996
145 0.001995
154 0.001995
162 0.002012
167 0.001995
174 0.001999
179 0.002961
184 0.002021
185 0.001995
135 0.003037
69 0.001007
45 0.002992
63 0.002992
93 0.003024
113 0.001973
123 0.001997
130 0.002026
126 0.001995
121 0.001985
124 0.002
134 0.001995
141 0.001996
150 0.001996
156 0.013963
162 0.0
164 0.002014
66 0.001995
51 0.001995
78 0.001995
105 0.001995
120 0.002062
133 0.001995
137 0.001996
132 0.002038
126 0.002041
126 0.001995
133 0.002004
143 0.002002
158 0.002034
166 0.001005
174 0.000999
179 0.001004
183 0.002029
163 0.001996
101 0.001995
57 0.002027
66 0.002011
91 0.001995
116 0.001994
131 0.002048
141 0.00206
139 0.002015
131 0.000998
136 0.000998
143 0.000998
153 0.001004
162 0.001989
169 0.001995
174 0.002045
176 0.001991
179 0.001964
185 0.00206
142 0.002034
84 0.000998
62 0.001006
79 0.001037
106 0.000993
125 0.000998
139 0.000997
143 0.000997
132 0.001921
123 0.002058
123 0.002079
137 0.002021
145 0.001994
154 0.001995
159 0.000998
165 0.000999
171 0.000992
168 0.000998
122 0.000997
70 0.000998
56 0.000998
76 0.000997
103 0.001995
134 0.000993
142 0.001994
136 0.001996
128 0.002031
125 0.000998
131 0.001006
138 0.001026
146 0.000997
152 0.000999
161 0.000997
165 0.00097
172 0.000997
140 0.001
74 0.00099
44 0.000997
49 0.000956
83 0.000976
103 0.000997
118 0.001002
124 0.000998
125 0.000996
117 0.000997
116 0.000997
121 0.001002
136 0.000998
144 0.000997
149 0.000998
154 0.000998
159 0.000997
163 0.000997
164 0.000999
117 0.001037
61 0.000998
44 0.000999
65 0.001013
91 0.000997
118 0.000997
126 0.000997
126 0.000998
124 0.001004
119 0.000998
124 0.000998
135 0.000997
143 0.000998
151 0.0
160 0.0
164 0.000997
167 0.000999
179 0.000998
179 0.000997
133 0.000997
77 0.000998
63 0.00106
85 0.000997
114 0.000998
132 0.0
143 0.0
143 0.0
134 0.0
125 0.000999
131 0.000997
140 0.000998
152 0.000962
159 0.000998
165 0.000998
169 0.000997
170 0.0
176 0.0
181 0.0
134 0.0
79 0.0
64 0.0
98 0.0
122 0.000991
138 0.000998
148 0.00101
144 0.001022
134 0.0
129 0.0
133 0.0
142 0.0
152 0.0
159 0.0
166 0.0
172 0.0
175 0.0
180 0.0
182 0.0
122 0.000997
61 0.0
52 0.015958
48 0.0
87 0.0
111 0.0
122 0.0
128 0.0
122 0.0
118 0.0
118 0.0
128 0.0
140 0.0
148 0.001003
156 0.000966
161 0.0
165 0.0
171 0.0
174 0.0
175 0.00103
126 0.0
64 0.0
43 0.0
56 0.0
91 0.0
112 0.00101
124 0.0
129 0.0
127 0.000997
123 0.000997
121 0.000998
133 0.000998
143 0.0
154 0.0
165 0.0
171 0.0
176 0.0
184 0.0
188 0.000919
192 0.0
201 0.0
191 0.0
132 0.001002
63 0.0
72 0.001032
98 0.000998
120 0.000997
133 0.000961
139 0.0
135 0.002044
126 0.001033
121 0.0
125 0.0
135 0.0
142 0.001005
155 0.0
159 0.001056
163 0.000997
171 0.0
172 0.000982
178 0.00096
171 0.000998
124 0.000996
70 0.0
58 0.0
79 0.0
107 0.000997
136 0.0
144 0.000998
139 0.000998
127 0.0
125 0.0
127 0.000945
138 0.000997
149 0.001
158 0.000998
166 0.0
171 0.0
175 0.001044
188 0.0
192 0.00103
151 0.001009
62 0.0
42 0.0
56 0.0
80 0.001
99 0.000998
110 0.000997
116 0.0
114 0.0
109 0.001047
112 0.0
118 0.001031
126 0.00103
141 0.0
148 0.0
153 0.0
156 0.001029
161 0.000997
164 0.000998
168 0.0
173 0.0
152 0.002052
47 0.0
28 0.00103
41 0.001034
77 0.0
94 0.0
105 0.0
111 0.000999
109 0.000998
103 0.0
103 0.0
108 0.000972
118 0.002022
134 0.0
142 0.00203
150 0.002043
157 0.00093
161 0.001049
165 0.000952
168 0.001049
171 0.001
181 0.000973
168 0.000994
106 0.001078
45 0.000997
57 0.000998
83 0.001953
105 0.001961
116 0.001025
120 0.0
117 0.000981
108 0.000996
104 0.001027
113 0.001031
123 0.001037
132 0.001003
143 0.001041
147 0.000996
153 0.001995
158 0.001996
162 0.001002
165 0.001008
138 0.0
77 0.001034
44 0.001029
56 0.001035
82 0.001
106 0.001071
124 0.000999
128 0.001052
121 0.002024
113 0.002025
115 0.001038
121 0.000989
131 0.0
139 0.002026
148 0.001999
155 0.000991
159 0.00097
164 0.001013
170 0.001015
174 0.001022
145 0.001992
70 0.002024
29 0.001001
35 0.000993
62 0.001014
80 0.002076
96 0.001995
101 0.001994
106 0.000955
103 0.000997
108 0.000996
117 0.002985
128 0.003049
141 0.000993
147 0.000988
152 0.000964
155 0.002025
161 0.002038
166 0.001054
170 0.001032
157 0.001005
56 0.000993
34 0.001995
46 0.002981
75 0.003026
98 0.002992
111 0.000984
116 0.000997
118 0.001004
113 0.001995
110 0.001995
117 0.001015
128 0.000999
145 0.002027
152 0.002041
157 0.001996
160 0.003035
163 0.003024
168 0.001996
173 0.001025
172 0.001043
141 0.002055
80 0.002029
49 0.002038
63 0.000995
105 0.001972
121 0.002069
131 0.001995
131 0.002997
124 0.003049
117 0.002016
120 0.000999
127 0.002071
137 0.002994
146 0.001994
157 0.001
163 0.000994
170 0.002058
174 0.001995
178 0.001962
182 0.003036
160 0.003026
70 0.002048
37 0.001051
41 0.00105
67 0.003034
91 0.003025
106 0.00203
114 0.002008
112 0.001997
108 0.001958
105 0.002005
112 0.003024
122 0.003037
135 0.002014
144 0.001996
151 0.001991
156 0.003936
160 0.002992
165 0.002032
171 0.004032
159 0.002008
93 0.001989
42 0.001969
34 0.003021
52 0.003035
87 0.001964
104 0.002031
114 0.002013
118 0.003025
114 0.002984
108 0.002024
110 0.003967
122 0.001994
134 0.001987
144 0.001993
152 0.003021
158 0.003073
163 0.001949
169 0.001963
172 0.002028
177 0.003027
181 0.004054
141 0.002005
59 0.003011
47 0.002025
69 0.003023
99 0.001994
118 0.002997
126 0.002993
133 0.002049
126 0.001988
116 0.001994
116 0.00399
123 0.003988
136 0.00303
147 0.00399
156 0.003018
161 0.001995
167 0.001996
170 0.002953
172 0.002963
171 0.001995
131 0.001996
71 0.002009
48 0.004043
60 0.003947
97 0.002985
124 0.003973
142 0.003019
141 0.003035
134 0.003033
126 0.004025
127 0.003988
137 0.001994
148 0.003008
158 0.001995
167 0.004044
174 0.003975
180 0.00305
185 0.003989
189 0.002992
164 0.003068
88 0.003026
40 0.004956
37 0.003988
69 0.001998
96 0.002992
113 0.002025
122 0.003985
125 0.003989
120 0.003003
115 0.00399
122 0.002989
132 0.002989
142 0.003002
153 0.003989
160 0.003994
167 0.002997
170 0.019947
176 0.0
184 0.003985
179 0.003973
98 0.001969
43 0.00501
57 0.003005
88 0.002989
110 0.002995
123 0.003989
130 0.003992
128 0.003003
122 0.002985
118 0.00299
121 0.003992
129 0.004956
146 0.002
159 0.004988
172 0.002989
174 0.002989
178 0.003007
181 0.003993
184 0.00399
184 0.003024
137 0.003948
74 0.002975
52 0.004007
65 0.005009
110 0.004051
125 0.004987
137 0.004947
136 0.003002
126 0.00299
117 0.002996
117 0.004018
124 0.004009
139 0.002985
148 0.002994
155 0.002987
161 0.005063
171 0.003991
177 0.005015
179 0.004987
121 0.002988
64 0.002996
48 0.003
63 0.003997
93 0.003991
123 0.002987
136 0.002981
142 0.004032
135 0.004955
123 0.00402
124 0.004987
130 0.004985
146 0.003024
155 0.003048
162 0.002997
169 0.003973
175 0.003987
181 0.004057
186 0.004023
157 0.004022
81 0.005019
31 0.004007
47 0.005021
74 0.004987
102 0.00299
112 0.002985
117 0.003
114 0.003989
111 0.003951
108 0.004022
115 0.003949
126 0.003992
136 0.004987
150 0.004023
156 0.004986
162 0.004987
170 0.00294
171 0.002975
132 0.003966
64 0.004993
33 0.005996
49 0.004042
78 0.003993
100 0.003985
111 0.00499
118 0.004018
112 0.004987
111 0.005017
112 0.004049
120 0.004002
132 0.003993
140 0.004973
149 0.006015
157 0.004005
160 0.003975
165 0.003994
170 0.004986
136 0.003987
72 0.005029
43 0.005022
55 0.004035
84 0.003975
107 0.003995
121 0.006034
129 0.006011
123 0.003992
114 0.003987
112 0.004004
117 0.004973
136 0.004004
146 0.004987
153 0.004982
161 0.003995
166 0.003998
170 0.003939
169 0.005986
124 0.005982
44 0.003966
30 0.003988
48 0.00399
76 0.006007
106 0.003988
114 0.005034
114 0.006025
107 0.004022
104 0.005036
107 0.004975
117 0.005977
129 0.005991
142 0.004991
149 0.003984
155 0.004987
160 0.006014
166 0.004029
171 0.004987
144 0.005035
57 0.004002
32 0.004954
36 0.005004
66 0.005985
87 0.005991
106 0.004959
113 0.005024
111 0.004003
104 0.004041
110 0.00399
118 0.005034
128 0.004989
145 0.00399
149 0.0
162 0.003989
169 0.005994
172 0.004946
180 0.004975
181 0.003955
178 0.004037
118 0.004025
57 0.005979
37 0.006016
60 0.004979
92 0.004994
115 0.003989
127 0.005985
128 0.005985
120 0.004002
112 0.004998
112 0.004937
129 0.005048
138 0.005019
146 0.005983
157 0.005999
162 0.004016
166 0.004989
169 0.004989
171 0.005986
169 0.005952
177 0.004988
173 0.005016
127 0.004972
59 0.005017
65 0.005013
93 0.006987
118 0.006997
137 0.004986
154 0.004991
155 0.004957
145 0.005965
135 0.005983
136 0.005992
144 0.004986
155 0.004945
169 0.004957
173 0.00502
175 0.005021
178 0.006982
181 0.007012
189 0.004988
181 0.004957
126 0.004988
62 0.005964
43 0.005996
65 0.004964
95 0.004976
123 0.005017
132 0.006037
134 0.004991
127 0.007015
124 0.006981
128 0.005001
136 0.005005
148 0.004993
158 0.005933
163 0.006996
173 0.004989
187 0.004987
197 0.005051
187 0.004993
133 0.006014
65 0.006982
41 0.006981
51 0.004957
77 0.005043
98 0.005034
109 0.006982
119 0.006022
118 0.005005
109 0.004993
109 0.005983
119 0.005982
132 0.006015
138 0.006981
146 0.006985
156 0.005993
163 0.00599
172 0.004985
180 0.006947
153 0.007947
74 0.004979
50 0.006018
75 0.00605
102 0.005987
121 0.006038
136 0.007011
141 0.007033
131 0.005966
120 0.005983
118 0.005931
122 0.006974
132 0.006983
146 0.005981
156 0.006981
165 0.005988
171 0.005998
159 0.006002
98 0.007034
52 0.007012
52 0.005983
74 0.005968
99 0.005957
118 0.006965
134 0.006982
141 0.005989
128 0.007979
121 0.00598
122 0.005976
128 0.005983
138 0.006981
147 0.006982
159 0.005992
169 0.005991
178 0.00595
142 0.006978
73 0.007949
34 0.005994
50 0.007979
82 0.005986
100 0.005984
113 0.005947
116 0.006982
114 0.006983
107 0.005983
110 0.006987
115 0.005981
125 0.007942
136 0.007947
147 0.006996
155 0.00795
169 0.006002
152 0.005978
83 0.005977
41 0.007012
35 0.007046
59 0.005981
86 0.005983
104 0.005984
116 0.007968
116 0.007981
111 0.00699
105 0.007979
115 0.006006
126 0.006026
138 0.006002
148 0.007978
156 0.007015
159 0.006019
164 0.006985
158 0.006998
102 0.007948
43 0.007945
30 0.006965
56 0.007979
85 0.005988
100 0.006054
110 0.005968
106 0.007992
98 0.007978
96 0.013013
103 0.001958
116 0.005975
133 0.007979
142 0.007014
152 0.006954
164 0.007979
170 0.006941
124 0.006993
58 0.006971
31 0.007979
37 0.007979
71 0.007031
92 0.006981
117 0.00698
122 0.007007
113 0.007013
103 0.005985
110 0.007021
130 0.006922
142 0.006939
154 0.006998
163 0.007979
169 0.007944
178 0.006913
170 0.006968
109 0.006977
55 0.006981
42 0.007901
63 0.006973
90 0.007016
102 0.006994
109 0.006987
111 0.006991
119 0.006991
123 0.007984
129 0.007924
139 0.006986
148 0.006947
159 0.006989
169 0.00795
181 0.006953
179 0.007038
136 0.007012
58 0.006976
46 0.006992
54 0.006992
80 0.007979
104 0.007915
129 0.007001
136 0.006978
134 0.006981
129 0.007013
134 0.006948
149 0.007008
163 0.007026
171 0.007048
176 0.006976
184 0.006967
188 0.007012
192 0.007981
168 0.006986
77 0.007016
56 0.006937
66 0.007013
102 0.006992
119 0.006984
131 0.006984
136 0.006949
130 0.006933
131 0.00695
137 0.007013
142 0.007016
147 0.006987
158 0.007039
167 0.00698
183 0.00703
201 0.006951
180 0.006984
109 0.006985
61 0.005983
70 0.006992
98 0.006935
126 0.007015
141 0.007005
150 0.005994
140 0.006981
126 0.006982
117 0.007015
126 0.006996
137 0.006939
155 0.006988
173 0.006983
190 0.006951
203 0.006987
211 0.006981
186 0.007033
105 0.006982
57 0.006016
62 0.005984
75 0.005983
110 0.006175
124 0.007003
133 0.005986
123 0.006948
116 0.006951
115 0.007026
134 0.00695
152 0.006982
175 0.006979
201 0.00592
213 0.006026
222 0.006018
235 0.006984
214 0.007049
144 0.007025
76 0.00704
77 0.006983
100 0.006949
119 0.007009
126 0.006984
133 0.005987
128 0.006015
117 0.005987
111 0.006038
128 0.007019
138 0.005987
144 0.007025
150 0.006977
156 0.006984
161 0.005986
167 0.007033
171 0.00603
110 0.006028
52 0.005971
39 0.005988
52 0.005984
94 0.00602
111 0.006982
122 0.007038
123 0.006984
115 0.006983
115 0.007046
121 0.006035
130 0.005914
138 0.00602
149 0.006044
158 0.006018
169 0.00603
185 0.006014
186 0.005985
177 0.024981
83 0.0
34 0.004982
47 0.006978
73 0.006006
95 0.005987
112 0.006033
118 0.006035
118 0.006019
114 0.006034
117 0.00591
127 0.006009
140 0.006019
154 0.006993
162 0.005985
173 0.005068
183 0.006025
189 0.00594
165 0.005984
88 0.005986
45 0.006018
57 0.006019
85 0.006018
108 0.006021
122 0.005984
136 0.005985
136 0.006018
128 0.005019
121 0.006001
124 0.004966
138 0.00502
148 0.006042
156 0.005983
167 0.006026
174 0.005985
175 0.005985
131 0.006023
66 0.00599
38 0.006017
52 0.005993
77 0.00499
96 0.004982
114 0.005068
124 0.015959
129 0.00495
126 0.002984
128 0.005985
138 0.006089
152 0.006053
168 0.004987
184 0.004953
189 0.005017
190 0.005057
196 0.004958
158 0.005007
70 0.00502
54 0.004987
93 0.005024
124 0.005023
144 0.004985
158 0.004986
158 0.005022
145 0.005023
139 0.004929
144 0.004987
154 0.006017
165 0.004981
176 0.005028
183 0.005989
190 0.005969
187 0.005936
136 0.00502
79 0.005033
65 0.004935
91 0.004988
123 0.005047
147 0.00503
165 0.005018
168 0.005034
155 0.005033
148 0.004991
154 0.005985
164 0.005987
173 0.005034
184 0.005985
192 0.004987
201 0.005037
198 0.005018
134 0.00502
70 0.005023
54 0.005035
80 0.005018
111 0.005052
142 0.005016
149 0.004987
147 0.003992
141 0.005016
135 0.005016
141 0.003992
150 0.003945
158 0.005037
167 0.005027
174 0.005036
181 0.00502
188 0.005005
159 0.004956
84 0.005038
45 0.005026
50 0.005013
75 0.004949
113 0.004036
130 0.00399
140 0.004023
137 0.004976
128 0.005019
122 0.004989
132 0.005062
145 0.005057
157 0.005004
167 0.004989
173 0.005034
179 0.00399
190 0.004992
188 0.004989
139 0.004029
72 0.005014
48 0.005057
68 0.005035
107 0.004987
134 0.005025
147 0.004022
144 0.003991
133 0.004006
123 0.004988
127 0.00403
137 0.004997
145 0.00399
154 0.004023
161 0.005041
171 0.005008
177 0.004988
172 0.004988
116 0.00399
64 0.004988
51 0.004995
71 0.004947
111 0.003992
135 0.003992
150 0.003988
154 0.003986
142 0.004019
129 0.004027
133 0.005035
149 0.005026
161 0.00494
168 0.005019
176 0.003992
179 0.003992
184 0.00399
175 0.003975
108 0.004044
47 0.004022
32 0.004023
60 0.003974
99 0.003961
121 0.003992
129 0.004987
126 0.004988
119 0.00399
115 0.000962
114 0.001964
133 0.00394
145 0.004017
154 0.003955
161 0.003991
170 0.004021
176 0.003991
179 0.004009
137 0.004032
62 0.003991
31 0.004024
37 0.003959
75 0.00399
100 0.003991
114 0.003855
121 0.004035
120 0.004031
112 0.003992
112 0.003994
123 0.002993
135 0.004038
148 0.002999
157 0.002993
164 0.003023
169 0.002958
175 0.003992
179 0.004043
168 0.003991
106 0.003982
51 0.003988
49 0.003975
79 0.003994
115 0.002994
127 0.003069
132 0.003
129 0.00295
120 0.002995
115 0.004032
121 0.003964
132 0.00395
144 0.004026
153 0.003991
163 0.003991
171 0.003992
178 0.003003
181 0.002992
186 0.002994
175 0.002992
111 0.002992
50 0.004019
52 0.003993
81 0.003991
111 0.00402
131 0.004007
146 0.003991
141 0.003037
125 0.003007
123 0.004023
132 0.002992
144 0.002993
155 0.003017
164 0.003992
171 0.003029
175 0.002988
180 0.00297
182 0.003965
137 0.003962
66 0.00403
38 0.003991
57 0.002959
89 0.002952
114 0.002994
130 0.002995
138 0.002965
131 0.002952
122 0.003032
120 0.003054
132 0.003024
145 0.003991
154 0.004011
163 0.002995
169 0.002993
176 0.002992
180 0.003002
185 0.002994
153 0.004037
74 0.003045
31 0.003049
31 0.003029
75 0.003991
98 0.003052
110 0.002033
117 0.001994
114 0.001994
109 0.00205
108 0.002947
116 0.002992
132 0.002992
142 0.003031
153 0.00302
161 0.002992
172 0.003956
177 0.002992
184 0.004046
171 0.003966
101 0.001976
48 0.001995
39 0.001995
62 0.002993
100 0.002949
119 0.003045
132 0.002995
137 0.003051
126 0.002992
123 0.003022
128 0.002978
142 0.002028
153 0.001996
161 0.00203
172 0.002972
177 0.002028
181 0.003
185 0.002996
189 0.002984
194 0.002992
140 0.003026
69 0.002992
58 0.002993
72 0.001995
113 0.002045
127 0.001994
143 0.001995
151 0.002043
139 0.001996
131 0.002031
128 0.002993
139 0.002041
157 0.002027
167 0.002992
174 0.002992
182 0.00302
189 0.001996
195 0.003024
198 0.001995
179 0.001995
84 0.001996
50 0.002049
53 0.002
80 0.002047
122 0.002057
136 0.001042
140 0.001036
131 0.002032
122 0.001993
121 0.002045
127 0.002028
136 0.001995
153 0.002044
162 0.002032
167 0.001988
175 0.002022
182 0.002057
186 0.002071
160 0.002038
66 0.000991
34 0.000997
41 0.000987
71 0.000997
98 0.001995
120 0.001963
128 0.001995
127 0.002053
118 0.001995
115 0.001995
123 0.001995
134 0.002027
148 0.001995
156 0.002057
163 0.002034
169 0.001996
177 0.002044
184 0.001995
186 0.000998
149 0.000997
48 0.001995
43 0.002014
66 0.001995
98 0.001992
119 0.001996
133 0.001999
133 0.00198
128 0.001997
118 0.000997
117 0.001014
127 0.001013
138 0.001995
156 0.001995
163 0.001987
171 0.001933
175 0.001963
181 0.002024
178 0.000999
127 0.000997
70 0.000999
53 0.001014
70 0.000998
110 0.000998
132 0.000997
154 0.002027
149 0.000994
138 0.001954
131 0.001993
135 0.002062
147 0.001995
158 0.001964
171 0.000998
178 0.000998
182 0.001002
190 0.000997
192 0.000966
188 0.002023
118 0.000997
51 0.000994
32 0.002008
47 0.002047
88 0.00202
110 0.000998
120 0.000999
125 0.000997
125 0.000997
113 0.000998
114 0.000997
128 0.000997
139 0.000997
150 0.002045
160 0.001995
168 0.002023
175 0.000998
180 0.000999
183 0.000997
187 0.000997
184 0.001003
105 0.000997
45 0.000991
44 0.000998
75 0.001995
104 0.002037
120 0.000999
130 0.00101
127 0.000998
119 0.001
113 0.000998
114 0.000998
123 0.000997
139 0.001057
150 0.000998
165 0.000999
170 0.001996
180 0.002031
182 0.0
187 0.0
192 0.000997
194 0.000998
197 0.000997
205 0.001006
203 0.001047
115 0.000997
57 0.000997
60 0.001004
90 0.000997
115 0.000938
132 0.000997
143 0.000998
137 0.0
123 0.000997
114 0.0
116 0.0
126 0.0
143 0.0
159 0.0
171 0.000955
177 0.000998
181 0.000997
186 0.000998
189 0.000966
195 0.0
193 0.0
142 0.0
67 0.0
36 0.0
53 0.0
95 0.0
123 0.000998
134 0.000997
139 0.000998
132 0.0
121 0.0
119 0.0
127 0.000998
138 0.0
151 0.0
163 0.0
175 0.0
186 0.0
193 0.0
200 0.0
201 0.0
147 0.0
76 0.0
46 0.0
64 0.0
94 0.0
118 0.0
132 0.0
141 0.0
137 0.0
129 0.0
131 0.0
140 0.0
151 0.0
163 0.0
175 0.000998
181 0.0
187 0.0
192 0.0
197 0.0
194 0.0
116 0.0
48 0.0
47 0.0
74 0.0
102 0.0
122 0.0
138 0.0
139 0.000998
137 0.000945
120 0.0
129 0.0
143 0.0
157 0.0
164 0.0
170 0.0
174 0.0
181 0.0
174 0.000996
118 0.0
60 0.002025
46 0.0
61 0.0
102 0.0
130 0.000998
148 0.0
144 0.001029
132 0.001028
124 0.0
127 0.0
138 0.0
150 0.001031
163 0.000988
176 0.0
183 0.0
188 0.0
190 0.0
133 0.0
59 0.002038
33 0.002036
50 0.0
79 0.0
104 0.0
119 0.001046
126 0.001037
122 0.000966
117 0.000998
111 0.0
123 0.0
134 0.0
144 0.00204
153 0.002031
165 0.0
169 0.0
177 0.000984
174 0.001066
122 0.00103
43 0.00095
33 0.0
54 0.000937
95 0.000999
118 0.0
130 0.002
131 0.001963
122 0.000999
117 0.0
119 0.0
127 0.001995
139 0.00198
157 0.0
168 0.0
180 0.0
190 0.000973
199 0.000986
192 0.000999
127 0.000998
54 0.0
50 0.0
73 0.0
99 0.00203
116 0.002044
131 0.0
127 0.0
110 0.0
107 0.0
115 0.000948
121 0.00103
131 0.001033
143 0.001019
152 0.0
154 0.0
160 0.002028
160 0.002029
91 0.0
44 0.0
49 0.000984
78 0.0
102 0.001003
120 0.001032
132 0.001028
126 0.0
114 0.000971
112 0.000959
117 0.001028
127 0.001995
140 0.0
149 0.0
161 0.0
165 0.0
170 0.0
141 0.002001
68 0.002072
18 0.0
24 0.000984
52 0.0
76 0.001045
90 0.001074
102 0.0
101 0.0
93 0.0
95 0.000995
103 0.0
113 0.002022
125 0.002024
137 0.0
145 0.0
151 0.0
151 0.001994
155 0.002072
116 0.0
50 0.0
20 0.000961
44 0.0
65 0.000999
92 0.000999
105 0.00203
109 0.0
106 0.0
100 0.0
99 0.002038
108 0.002027
125 0.0
135 0.0
145 0.0
150 0.0
152 0.0
156 0.000998
161 0.001042
138 0.000964
76 0.0
38 0.0
40 0.002027
68 0.002027
102 0.0
118 0.0
131 0.001001
124 0.00198
117 0.002006
115 0.002032
124 0.001992
132 0.005984
152 0.001998
161 0.000973
169 0.001968
174 0.001995
182 0.001032
188 0.0
197 0.000964
174 0.001011
97 0.001009
45 0.002039
36 0.002993
67 0.001997
92 0.001993
106 0.001998
114 0.001994
117 0.002026
114 0.001997
108 0.002025
117 0.002019
129 0.001009
143 0.000999
153 0.000996
163 0.002053
168 0.002026
174 0.000968
178 0.001998
182 0.001988
187 0.001996
172 0.002025
58 0.002036
32 0.002037
51 0.001034
80 0.000998
100 0.000993
111 0.003052
119 0.002993
119 0.000988
114 0.002007
112 0.001993
117 0.003005
126 0.002034
148 0.002027
158 0.001969
164 0.000999
170 0.002025
176 0.001031
181 0.002031
185 0.003031
186 0.001016
135 0.000967
69 0.000964
47 0.002989
61 0.002992
107 0.001988
121 0.002024
133 0.001997
132 0.001992
122 0.000973
111 0.003047
109 0.003052
123 0.001001
134 0.001019
147 0.000992
160 0.002992
169 0.002993
179 0.003027
179 0.002993
171 0.001994
117 0.001995
65 0.002031
51 0.002992
69 0.003045
109 0.00105
129 0.00102
142 0.001022
143 0.003024
137 0.003029
124 0.002976
126 0.002992
141 0.000997
154 0.002023
166 0.002024
174 0.002993
180 0.002992
188 0.001986
196 0.000983
202 0.000957
207 0.004015
197 0.002993
74 0.003989
37 0.003036
53 0.001995
83 0.002017
106 0.002046
122 0.002992
131 0.002992
129 0.001973
125 0.002009
119 0.00107
121 0.002993
130 0.003022
150 0.002994
162 0.002987
173 0.002041
178 0.002044
184 0.001962
191 0.002985
197 0.002963
187 0.00198
122 0.002017
60 0.001059
45 0.002997
62 0.002993
109 0.003061
125 0.003041
138 0.001963
137 0.001966
129 0.001006
122 0.003027
122 0.002992
147 0.001001
163 0.001972
175 0.001967
185 0.004031
190 0.004023
197 0.003978
200 0.00402
205 0.001998
202 0.001981
147 0.001994
81 0.003026
58 0.003046
83 0.003045
111 0.002018
131 0.002011
148 0.003028
160 0.001005
143 0.004032
139 0.004059
135 0.002025
148 0.001962
151 0.001998
165 0.004019
171 0.004021
182 0.002005
185 0.001994
185 0.001995
179 0.003024
71 0.001994
49 0.003996
57 0.003004
102 0.002032
123 0.001994
145 0.001964
152 0.003989
150 0.003989
136 0.002019
132 0.002005
138 0.001999
147 0.00399
164 0.002003
174 0.003936
180 0.003988
187 0.00203
192 0.001982
162 0.001996
84 0.004027
31 0.00399
24 0.003992
57 0.001993
87 0.003024
103 0.002986
117 0.001993
114 0.002999
110 0.004017
108 0.00399
115 0.002992
126 0.002994
137 0.002992
148 0.003989
156 0.004056
166 0.002004
171 0.001049
176 0.001983
96 0.001959
38 0.002984
25 0.004987
44 0.005012
83 0.003042
100 0.002983
111 0.002984
114 0.005019
111 0.003979
105 0.003029
106 0.002997
114 0.001995
133 0.003006
145 0.001992
155 0.004037
162 0.004986
168 0.00299
173 0.003001
180 0.002023
174 0.003994
113 0.003993
43 0.002999
41 0.002995
68 0.003004
109 0.002995
125 0.003001
128 0.00502
126 0.004973
111 0.002978
108 0.00299
115 0.002993
126 0.005031
140 0.005021
151 0.003004
162 0.002993
165 0.001942
180 0.003991
186 0.003992
192 0.00502
176 0.004982
91 0.003009
51 0.003001
53 0.003008
81 0.005014
110 0.005043
132 0.003001
143 0.001979
141 0.002991
124 0.003027
121 0.00293
127 0.004947
139 0.004934
157 0.003991
166 0.002995
173 0.002951
177 0.00502
179 0.005012
184 0.003007
188 0.003009
141 0.002998
62 0.003998
25 0.00303
29 0.005957
57 0.00494
92 0.003949
106 0.003977
114 0.003027
114 0.004988
110 0.004983
107 0.002983
110 0.00299
124 0.002998
138 0.002995
148 0.001955
156 0.004987
161 0.005984
168 0.003993
171 0.003992
176 0.003003
179 0.004987
148 0.004987
57 0.003983
29 0.002999
58 0.002987
87 0.002998
104 0.002991
115 0.004986
118 0.006017
111 0.003988
104 0.003967
104 0.003939
111 0.005022
124 0.005023
140 0.004025
151 0.004005
162 0.002992
168 0.00298
179 0.00401
184 0.00603
187 0.005984
196 0.003988
191 0.003986
136 0.003995
70 0.005985
51 0.005984
76 0.004013
107 0.003038
136 0.002982
145 0.002993
143 0.003949
131 0.00605
121 0.005937
124 0.00399
134 0.00399
146 0.004029
159 0.005984
168 0.005984
177 0.003989
181 0.003056
192 0.002992
207 0.003988
217 0.00299
183 0.004958
105 0.005984
52 0.003984
59 0.00399
86 0.003995
113 0.006015
127 0.005976
138 0.003988
136 0.003985
121 0.003987
120 0.003987
127 0.003986
139 0.004986
152 0.005985
166 0.004994
176 0.003989
182 0.00399
189 0.005922
200 0.00595
215 0.003991
220 0.004049
223 0.004026
193 0.003996
102 0.004003
41 0.005984
29 0.006942
56 0.004963
81 0.005003
96 0.004983
104 0.00402
106 0.005985
102 0.006011
95 0.003999
97 0.005954
110 0.004002
123 0.003991
138 0.004955
147 0.007041
154 0.006981
161 0.005026
163 0.004019
168 0.004952
172 0.005984
177 0.006058
183 0.003977
192 0.00598
139 0.003025
59 0.00397
25 0.005002
30 0.007013
57 0.006982
92 0.003998
105 0.003955
113 0.005001
112 0.005983
107 0.006015
100 0.005984
106 0.005982
120 0.005002
132 0.004
149 0.004986
159 0.006983
164 0.006981
172 0.004984
171 0.004999
176 0.004994
180 0.007015
184 0.006982
192 0.007001
181 0.005953
95 0.005012
49 0.003985
44 0.004956
68 0.006982
98 0.006981
123 0.004992
136 0.004955
140 0.004981
132 0.007015
122 0.006981
125 0.006934
135 0.005985
152 0.004021
163 0.003978
173 0.004986
180 0.007008
185 0.005984
192 0.004998
194 0.004992
199 0.004956
193 0.006974
133 0.006981
40 0.007017
36 0.006977
70 0.005985
94 0.005015
109 0.005
118 0.006981
120 0.007023
108 0.00501
103 0.005045
104 0.004976
114 0.006981
128 0.006982
153 0.006969
167 0.006989
179 0.005011
186 0.004996
197 0.004995
203 0.006982
210 0.007979
198 0.005954
125 0.00494
61 0.004988
42 0.007013
58 0.007003
96 0.006978
108 0.006983
115 0.004988
114 0.004997
109 0.005001
104 0.007028
110 0.007992
122 0.006012
132 0.005018
139 0.005979
147 0.007011
153 0.006981
160 0.006982
165 0.006982
172 0.00499
176 0.004992
180 0.004987
138 0.007928
67 0.007959
32 0.005981
35 0.005993
64 0.00595
91 0.006981
105 0.006971
117 0.006945
112 0.006982
106 0.005023
109 0.004951
115 0.00502
127 0.006979
142 0.007945
157 0.005984
166 0.005985
170 0.005985
175 0.007948
177 0.007974
180 0.007949
184 0.006958
184 0.004982
135 0.005002
74 0.004988
53 0.007016
68 0.007979
101 0.006
122 0.005988
137 0.005981
144 0.007978
132 0.005984
122 0.007968
124 0.007977
137 0.003988
149 0.004975
160 0.005005
168 0.007014
175 0.007978
183 0.005983
188 0.005985
196 0.005984
200 0.007979
97 0.006016
38 0.007975
38 0.007988
64 0.006017
89 0.006021
108 0.005988
122 0.007979
127 0.007965
122 0.005016
120 0.006015
121 0.005982
130 0.007979
150 0.005988
162 0.006006
172 0.007994
177 0.007979
185 0.005989
192 0.006924
193 0.006952
130 0.007979
62 0.006982
37 0.007012
48 0.006034
71 0.006011
86 0.006006
96 0.006032
105 0.007962
104 0.007965
101 0.006
102 0.005983
108 0.006951
122 0.006984
131 0.007018
141 0.006015
148 0.006976
153 0.004966
165 0.005943
165 0.005984
121 0.007983
42 0.007946
29 0.005988
46 0.005985
74 0.006976
100 0.007012
112 0.007017
116 0.006978
116 0.006986
112 0.006983
114 0.006016
120 0.006996
132 0.007897
146 0.007973
157 0.00599
163 0.005984
169 0.006
174 0.006988
139 0.006985
56 0.006899
41 0.006982
55 0.006972
102 0.006913
117 0.006968
124 0.007922
131 0.007026
124 0.00596
117 0.005983
120 0.00697
128 0.006982
141 0.006981
152 0.006949
160 0.006974
168 0.00693
179 0.006972
184 0.006979
151 0.006983
81 0.007962
47 0.006967
53 0.006036
79 0.006997
117 0.007032
133 0.007021
143 0.005983
138 0.006971
129 0.006967
126 0.006905
129 0.006981
144 0.006985
156 0.006972
167 0.00698
176 0.006953
184 0.006977
191 0.007036
194 0.006983
139 0.006958
74 0.006971
54 0.006946
88 0.006965
115 0.005967
132 0.006014
146 0.00703
148 0.006983
131 0.006968
122 0.006943
126 0.007015
138 0.006984
155 0.007003
165 0.006984
182 0.006979
188 0.006978
193 0.005983
186 0.006018
131 0.006017
63 0.005988
57 0.006969
86 0.00698
114 0.007007
136 0.006909
153 0.006032
154 0.006969
135 0.006981
132 0.006984
140 0.005939
149 0.005978
159 0.006043
171 0.005964
178 0.006952
185 0.006938
187 0.006976
194 0.006995
170 0.00695
95 0.006975
35 0.006976
61 0.005983
94 0.005939
112 0.005986
125 0.006031
130 0.005985
124 0.005956
116 0.005944
112 0.006012
124 0.004988
138 0.006026
152 0.005989
164 0.006015
175 0.005972
175 0.005963
184 0.005986
180 0.006028
102 0.006013
47 0.00599
37 0.006981
59 0.006012
89 0.006971
112 0.005984
119 0.006973
125 0.005975
119 0.005975
116 0.005978
117 0.005978
127 0.006019
144 0.005958
154 0.005967
162 0.005975
167 0.006018
173 0.00601
181 0.005933
186 0.004993
118 0.005988
47 0.00602
45 0.005992
72 0.004955
101 0.006001
121 0.005981
136 0.005987
136 0.00597
127 0.006003
117 0.006018
117 0.005985
130 0.005028
145 0.005012
165 0.005032
171 0.004986
176 0.005989
181 0.005036
185 0.005033
172 0.006049
112 0.006011
59 0.006018
50 0.006018
70 0.006023
109 0.005978
134 0.006018
144 0.004992
139 0.004982
129 0.00502
123 0.005022
127 0.00502
142 0.004986
153 0.005985
162 0.00502
171 0.006044
178 0.005981
183 0.005983
182 0.005964
95 0.005983
45 0.004963
38 0.004984
58 0.004989
86 0.005033
110 0.005055
122 0.00498
120 0.006
116 0.005986
111 0.005984
114 0.00599
123 0.006028
139 0.004989
148 0.004938
155 0.004999
161 0.005056
166 0.005039
174 0.005013
163 0.005985
101 0.004987
46 0.005023
33 0.004988
67 0.005044
92 0.005017
111 0.004988
117 0.005028
116 0.005015
111 0.005018
108 0.004989
116 0.005038
126 0.004989
139 0.005054
150 0.004921
157 0.004998
165 0.004979
170 0.005021
176 0.00502
179 0.004987
147 0.004984
78 0.005034
43 0.005022
54 0.004986
83 0.004986
108 0.004985
121 0.004986
129 0.005048
121 0.005031
115 0.005018
116 0.003983
125 0.003943
137 0.004036
148 0.004998
158 0.004995
165 0.004989
169 0.005001
173 0.004987
175 0.004988
183 0.006019
185 0.004992
133 0.004989
59 0.00396
57 0.003991
82 0.00398
110 0.00399
130 0.00499
147 0.004998
145 0.004989
134 0.004976
126 0.00408
125 0.004926
141 0.004029
156 0.003989
170 0.004055
176 0.00402
179 0.003997
183 0.004018
188 0.003991
195 0.004971
195 0.004975
151 0.004989
83 0.004036
54 0.005044
76 0.005024
105 0.004986
130 0.00499
141 0.004044
142 0.004023
134 0.003992
126 0.003997
129 0.005044
137 0.004032
151 0.004019
165 0.004966
175 0.003991
186 0.003992
186 0.004038
194 0.003985
198 0.00498
202 0.005006
183 0.004004
108 0.004044
47 0.004
52 0.004027
78 0.003991
106 0.004021
121 0.00399
137 0.004017
136 0.004033
127 0.003997
127 0.004987
132 0.003072
142 0.004039
154 0.004025
166 0.00403
178 0.002982
183 0.00399
189 0.004033
198 0.004021
200 0.003987
206 0.003955
193 0.002993
103 0.004024
60 0.002991
61 0.002994
88 0.003024
117 0.004051
140 0.003983
148 0.004002
149 0.004025
136 0.00398
131 0.004025
137 0.004032
148 0.003989
168 0.003
179 0.004022
185 0.003084
190 0.002992
193 0.002992
199 0.004019
202 0.003989
206 0.004028
197 0.004021
133 0.003918
77 0.004031
62 0.004026
92 0.004026
122 0.003978
144 0.003964
159 0.003028
166 0.002992
153 0.004017
142 0.004021
140 0.002992
152 0.00399
168 0.00397
179 0.00399
186 0.004055
198 0.003018
201 0.003947
203 0.002993
210 0.00305
206 0.00307
120 0.003993
59 0.003964
44 0.002992
83 0.004027
110 0.003966
131 0.003029
142 0.003977
144 0.003949
136 0.004055
130 0.003959
132 0.002952
142 0.002943
157 0.002992
173 0.003028
182 0.002966
192 0.00303
197 0.002948
201 0.002977
205 0.002992
189 0.002977
116 0.002984
50 0.003002
32 0.003057
47 0.002992
86 0.003006
107 0.003
117 0.002993
127 0.00304
116 0.00296
110 0.003033
112 0.003033
122 0.003019
135 0.003047
147 0.002997
158 0.003028
165 0.002998
173 0.003962
178 0.002051
184 0.003991
183 0.002041
130 0.003
64 0.003017
42 0.002994
64 0.002981
94 0.00302
116 0.002984
128 0.002968
135 0.002992
126 0.003028
111 0.001994
108 0.001956
121 0.002988
134 0.00194
146 0.002993
155 0.002992
166 0.002987
169 0.002992
173 0.002984
176 0.003042
151 0.00302
68 0.002973
43 0.002026
52 0.001995
99 0.002007
121 0.002027
136 0.002049
142 0.002005
131 0.003011
119 0.002949
117 0.001978
125 0.001996
137 0.002971
152 0.002996
165 0.003041
177 0.002994
183 0.002992
189 0.002985
182 0.002992
115 0.002993
33 0.002027
25 0.002041
47 0.002014
78 0.002073
101 0.002026
117 0.002069
124 0.001952
115 0.001975
110 0.001985
113 0.002046
120 0.003058
133 0.002992
149 0.002028
158 0.002
166 0.002052
173 0.001995
178 0.001939
178 0.00195
130 0.002032
32 0.002008
28 0.001993
52 0.001998
81 0.002012
103 0.002028
117 0.002037
122 0.002044
117 0.001994
111 0.001998
111 0.001995
117 0.00197
132 0.002028
146 0.002039
158 0.001994
166 0.001977
172 0.000997
176 0.000999
181 0.001945
144 0.000938
73 0.001995
38 0.002053
42 0.001995
72 0.002012
108 0.002025
125 0.001031
130 0.002028
120 0.000997
111 0.000997
107 0.001995
116 0.001994
133 0.000997
146 0.000997
157 0.000998
166 0.000982
170 0.000997
172 0.002005
176 0.001996
118 0.002002
58 0.001995
40 0.002017
55 0.002035
84 0.002054
117 0.002004
134 0.001948
142 0.001996
136 0.002044
126 0.002066
122 0.000998
133 0.000999
152 0.00205
162 0.000968
172 0.000997
179 0.000992
185 0.002031
192 0.001996
193 0.001944
142 0.001995
66 0.002025
34 0.001996
49 0.00199
89 0.000997
115 0.002028
127 0.000998
130 0.000997
127 0.001022
120 0.001997
119 0.000997
127 0.001969
140 0.001974
152 0.002035
163 0.002064
168 0.002045
175 0.000997
177 0.001029
179 0.000965
150 0.000999
75 0.001062
34 0.000997
45 0.001037
73 0.001032
104 0.001995
121 0.00204
132 0.00206
135 0.000998
126 0.001995
124 0.000982
132 0.000998
143 0.000997
156 0.000997
167 0.000973
179 0.002028
183 0.002029
190 0.002036
191 0.001995
197 0.0
158 0.002024
83 0.000998
43 0.001053
56 0.001015
84 0.000989
108 0.001002
125 0.000997
137 0.000998
128 0.002043
115 0.002035
108 0.000998
112 0.0
128 0.0
138 0.00096
151 0.000998
161 0.001043
165 0.000991
169 0.000997
178 0.00099
166 0.000972
101 0.000997
46 0.000998
33 0.000998
53 0.0
101 0.0
120 0.0
138 0.0
133 0.0
122 0.000997
112 0.000997
115 0.000997
126 0.000998
139 0.000949
152 0.0
162 0.0
167 0.0
179 0.0
182 0.0
188 0.000997
164 0.000993
80 0.0
24 0.000919
14 0.000997
45 0.0
76 0.0
95 0.0
106 0.000998
112 0.0
105 0.0
102 0.0
108 0.0
116 0.0
131 0.0
145 0.0
156 0.0
165 0.000997
172 0.0
177 0.000988
181 0.001006
184 0.0
110 0.0
45 0.001004
28 0.0
51 0.000965
83 0.0
107 0.0
120 0.0
130 0.0
125 0.0
118 0.0
113 0.0
119 0.0
138 0.000998
151 0.0
162 0.000998
168 0.000982
174 0.0
178 0.0
181 0.0
186 0.0
173 0.0
105 0.0
49 0.0
39 0.0
77 0.00099
104 0.000986
123 0.0
138 0.0
132 0.0
117 0.000985
109 0.0
110 0.0
123 0.0
135 0.0
145 0.0
160 0.0
167 0.0
170 0.000997
174 0.0
161 0.000953
99 0.000998
46 0.000998
37 0.0
59 0.0
96 0.0
119 0.002039
141 0.0
141 0.002027
123 0.0
120 0.000966
125 0.000955
135 0.003037
149 0.003002
162 0.000997
175 0.0
182 0.0
187 0.002025
195 0.002032
146 0.000986
47 0.001996
24 0.0
46 0.0
76 0.0
99 0.002998
113 0.002988
124 0.001014
119 0.0
112 0.0
109 0.002991
115 0.002036
130 0.0
145 0.002025
159 0.0
168 0.0
171 0.0
180 0.002024
178 0.00203
99 0.001027
38 0.0
23 0.0
41 0.003021
72 0.003025
100 0.0
116 0.002036
119 0.0
112 0.0
108 0.0
110 0.002023
119 0.00199
135 0.0
145 0.0
155 0.000997
162 0.003031
168 0.004025
175 0.0
165 0.003054
76 0.0
34 0.000972
35 0.0
63 0.002992
93 0.003026
117 0.0
128 0.0
127 0.0
114 0.002025
104 0.002042
106 0.0
118 0.002027
132 0.0
141 0.0
150 0.0
155 0.002027
165 0.001962
172 0.0
136 0.000972
70 0.001016
35 0.002993
39 0.002027
76 0.0
111 0.002039
132 0.000954
136 0.0
128 0.000965
117 0.001988
116 0.002003
126 0.000989
139 0.000943
150 0.0
161 0.002023
171 0.002026
179 0.000967
185 0.001996
123 0.0
51 0.0
26 0.0
35 0.002027
65 0.00204
103 0.0
117 0.0
128 0.0
128 0.001963
122 0.002029
116 0.0
125 0.001986
143 0.000983
156 0.0
166 0.000968
174 0.002993
182 0.002993
191 0.0
193 0.0
145 0.0
73 0.002023
37 0.001992
61 0.002076
88 0.002033
113 0.0
124 0.0
129 0.001006
125 0.001994
119 0.002027
119 0.000966
125 0.000963
138 0.0
150 0.001994
163 0.002029
180 0.002024
189 0.002049
196 0.002032
196 0.0
146 0.0
75 0.0
46 0.002038
56 0.002008
96 0.0
121 0.000961
137 0.00099
148 0.001997
147 0.0
142 0.002987
142 0.002028
152 0.0
162 0.0
167 0.0
174 0.002026
180 0.002062
186 0.0
191 0.001021
196 0.000964
181 0.002027
70 0.0
48 0.003002
60 0.002995
101 0.0
127 0.001032
143 0.001003
152 0.002036
148 0.002028
133 0.0
127 0.000966
132 0.0
143 0.002962
164 0.0
175 0.002993
183 0.001996
191 0.0
198 0.0
200 0.0
150 0.002994
71 0.002998
33 0.0
52 0.0
85 0.001995
113 0.002007
137 0.0
144 0.001994
135 0.002028
120 0.001992
121 0.000945
129 0.0
141 0.002993
154 0.002993
166 0.001997
174 0.0
182 0.001998
187 0.002992
190 0.001974
132 0.003003
54 0.002989
23 0.001992
42 0.001997
75 0.001986
103 0.002997
117 0.002999
129 0.001997
129 0.001993
154 0.003007
232 0.002993
255 0.002009
255 0.002998
255 0.003985
255 0.001993
255 0.002008
255 0.001995
250 0.003042
238 0.002992
214 0.001996
127 0.00299
53 0.000933
33 0.00404
68 0.0
96 0.003013
116 0.002955
134 0.002992
134 0.0
121 0.00199
112 0.003026
113 0.002998
126 0.001994
138 0.001991
149 0.001992
167 0.001966
174 0.001995
180 0.002987
186 0.003004
171 0.001991
101 0.001995
46 0.001996
37 0.003991
58 0.003951
96 0.002992
119 0.001984
138 0.002007
139 0.002989
127 0.001996
119 0.004011
121 0.002943
137 0.001992
151 0.001996
163 0.001943
175 0.003995
183 0.003959
190 0.001993
197 0.0
176 0.001994
50 0.001982
23 0.002013
35 0.003001
64 0.002989
101 0.002982
120 0.002993
130 0.001968
127 0.003995
118 0.003989
110 0.001988
115 0.001995
126 0.002004
152 0.002003
163 0.001994
171 0.003953
180 0.003979
188 0.001995
194 0.001991
197 0.001998
147 0.004009
61 0.003992
17 0.001994
31 0.002006
61 0.001996
103 0.001993
116 0.001992
125 0.003989
120 0.004025
110 0.001995
111 0.003002
119 0.001998
130 0.004001
145 0.003974
158 0.003997
171 0.001991
176 0.001973
185 0.001994
190 0.001991
187 0.002004
129 0.003938
57 0.003999
28 0.002006
47 0.001994
79 0.002959
103 0.003956
121 0.003972
134 0.002016
127 0.001998
110 0.001997
112 0.002026
122 0.00204
134 0.003975
147 0.003983
163 0.001992
169 0.001993
172 0.001987
179 0.004018
187 0.003998
153 0.00199
82 0.001991
40 0.001984
62 0.002034
91 0.001998
115 0.004988
135 0.003989
148 0.002003
138 0.001994
125 0.002001
119 0.003994
125 0.004008
142 0.002962
156 0.001996
174 0.002039
182 0.003021
188 0.001994
195 0.005002
192 0.004986
96 0.002006
38 0.002026
27 0.002011
49 0.003989
79 0.004005
109 0.002999
124 0.001989
127 0.003002
117 0.002992
109 0.001968
114 0.004988
123 0.004986
139 0.002012
153 0.001987
163 0.001994
170 0.003976
174 0.00402
183 0.002966
140 0.005004
43 0.003021
20 0.003001
33 0.002993
64 0.005019
90 0.004985
109 0.001979
119 0.002003
117 0.001999
111 0.003956
107 0.003986
114 0.002961
129 0.004963
145 0.001975
155 0.002958
163 0.002951
169 0.004979
175 0.004974
177 0.002001
128 0.002992
61 0.002968
33 0.004991
45 0.005003
84 0.002956
111 0.005019
126 0.002949
128 0.002995
117 0.003013
101 0.004958
100 0.004953
118 0.003948
127 0.004985
139 0.00299
152 0.005943
164 0.00595
171 0.002966
178 0.006013
144 0.002836
79 0.00295
43 0.002992
46 0.005032
72 0.004986
107 0.003019
124 0.002984
137 0.001974
134 0.005954
125 0.005967
116 0.00296
127 0.006008
143 0.002993
154 0.003014
165 0.003016
173 0.005004
179 0.004953
187 0.002988
176 0.003045
107 0.003023
41 0.00498
24 0.006011
49 0.003989
85 0.006015
107 0.002987
118 0.002995
118 0.002962
111 0.005011
108 0.004982
112 0.003034
122 0.003003
136 0.00304
146 0.005995
154 0.006002
165 0.003973
171 0.005984
179 0.002959
165 0.00204
93 0.002969
35 0.006021
24 0.00599
52 0.002973
80 0.002992
98 0.002944
110 0.005988
116 0.005978
115 0.002992
109 0.005984
115 0.002991
126 0.002992
139 0.002992
152 0.005951
162 0.00598
170 0.003945
176 0.003997
181 0.002992
185 0.002982
187 0.005953
137 0.005949
41 0.006015
39 0.005986
74 0.004048
101 0.003988
115 0.004007
124 0.005994
126 0.005988
117 0.003025
110 0.002992
114 0.003989
125 0.005968
143 0.004006
146 0.022902
158 0.000997
168 0.0
178 0.0
182 0.003989
188 0.005994
186 0.005983
108 0.00399
55 0.005019
45 0.003988
67 0.007009
110 0.003993
127 0.006017
141 0.006982
138 0.00399
128 0.003996
123 0.004014
128 0.005984
138 0.006015
154 0.002993
168 0.003994
179 0.005028
185 0.006945
195 0.00399
199 0.007018
189 0.006981
92 0.003971
43 0.003996
40 0.003993
65 0.005979
94 0.005998
120 0.003973
135 0.003946
135 0.003987
128 0.006948
120 0.004024
124 0.006955
134 0.006993
152 0.003992
167 0.004021
175 0.004022
179 0.005974
186 0.005987
194 0.003987
200 0.00501
186 0.004985
109 0.006981
28 0.004994
36 0.006981
67 0.006988
101 0.004032
115 0.004023
127 0.003991
128 0.006928
122 0.006985
118 0.003984
121 0.004986
130 0.004957
144 0.006986
164 0.004987
173 0.007013
179 0.006937
185 0.004003
192 0.003986
191 0.004015
145 0.007017
70 0.006978
31 0.003959
47 0.004992
82 0.004991
111 0.006969
135 0.003936
137 0.005998
131 0.006972
121 0.00501
121 0.00399
130 0.003981
142 0.007978
155 0.007979
170 0.004988
178 0.004001
188 0.004987
194 0.006988
203 0.004986
195 0.006981
131 0.006982
58 0.00398
56 0.004023
77 0.003989
106 0.006924
130 0.007991
143 0.004991
144 0.004987
134 0.004965
121 0.006984
123 0.005018
133 0.007944
151 0.00798
160 0.005982
170 0.003983
176 0.004976
184 0.007946
187 0.007984
143 0.004988
82 0.00498
57 0.004958
85 0.004978
110 0.004953
129 0.006981
142 0.006985
139 0.00499
127 0.004027
115 0.004986
115 0.006991
122 0.007968
135 0.005037
145 0.004999
155 0.004985
169 0.004957
172 0.004982
179 0.007979
151 0.006969
48 0.005004
17 0.004969
23 0.004987
60 0.007984
85 0.007973
99 0.005983
108 0.004981
108 0.004987
100 0.004982
100 0.004987
111 0.007993
121 0.006997
135 0.005004
146 0.00513
154 0.006006
162 0.007972
169 0.007968
174 0.007975
159 0.005938
88 0.005924
18 0.005951
26 0.005987
54 0.006008
81 0.007978
96 0.007958
109 0.004961
108 0.004969
103 0.005975
100 0.007973
104 0.007977
115 0.005987
128 0.00598
146 0.006001
153 0.005051
161 0.004987
168 0.007977
172 0.008011
172 0.005034
115 0.003976
51 0.004975
33 0.007961
53 0.006988
83 0.005035
105 0.005015
123 0.005996
121 0.005984
112 0.00502
107 0.00797
113 0.007979
123 0.004987
136 0.006019
149 0.006027
160 0.006978
170 0.006981
174 0.005988
177 0.005985
186 0.005956
188 0.006052
161 0.006018
73 0.007972
47 0.006973
58 0.004996
88 0.005996
116 0.005983
135 0.006976
143 0.006986
137 0.005986
126 0.00599
119 0.005985
126 0.005986
139 0.006028
151 0.008011
164 0.007977
169 0.004959
174 0.005014
177 0.006028
181 0.006992
185 0.00698
184 0.005973
128 0.005954
36 0.005989
35 0.006031
60 0.005982
95 0.007933
112 0.007979
124 0.005989
123 0.006914
116 0.006979
113 0.006976
114 0.007009
121 0.005983
134 0.006949
155 0.006016
165 0.006028
170 0.005995
176 0.006981
183 0.007973
184 0.005967
188 0.006978
161 0.006981
82 0.006981
33 0.006982
36 0.006984
74 0.007021
99 0.006001
112 0.005959
121 0.005991
123 0.007013
117 0.006985
115 0.005946
118 0.006948
133 0.006967
145 0.006988
157 0.006984
167 0.00597
176 0.006979
182 0.006989
185 0.006015
189 0.006073
196 0.006966
167 0.006984
91 0.006024
47 0.00598
52 0.005946
81 0.005983
109 0.006018
128 0.006982
141 0.006985
133 0.006952
119 0.006969
118 0.006981
125 0.006981
135 0.007012
145 0.00599
154 0.005998
157 0.005983
162 0.006015
169 0.006018
172 0.006985
180 0.007023
126 0.006983
81 0.006982
45 0.006051
55 0.006981
83 0.006978
110 0.005985
130 0.005986
143 0.005963
138 0.005973
128 0.005974
122 0.005958
131 0.006951
147 0.006961
160 0.006967
168 0.005984
176 0.006983
183 0.006951
188 0.005984
192 0.004023
168 0.005946
92 0.006997
40 0.006032
31 0.004977
72 0.006018
106 0.005916
120 0.005977
128 0.006982
126 0.006963
118 0.006982
114 0.005939
122 0.005985
134 0.005984
149 0.006015
162 0.005982
173 0.005986
182 0.006019
187 0.006054
197 0.005985
199 0.006978
148 0.005986
71 0.006935
39 0.006017
54 0.00594
85 0.005983
111 0.005996
124 0.00602
136 0.006032
133 0.005983
129 0.005985
127 0.004985
135 0.004968
146 0.004956
159 0.006044
169 0.006029
179 0.004976
184 0.005007
188 0.005982
194 0.006019
198 0.006023
115 0.005986
56 0.004987
47 0.004987
73 0.005986
102 0.005987
121 0.004993
135 0.00498
139 0.005984
132 0.005947
126 0.005983
128 0.005982
142 0.004961
153 0.005987
165 0.006036
177 0.00597
181 0.005969
186 0.004987
190 0.005018
195 0.005016
199 0.010935
201 0.0
66 0.002958
78 0.00501
107 0.006022
130 0.006009
149 0.004976
152 0.005036
141 0.00496
128 0.004986
124 0.004981
133 0.004975
146 0.004984
158 0.004988
165 0.004989
176 0.005986
178 0.005998
184 0.004986
192 0.005983
162 0.005983
92 0.005983
48 0.00603
47 0.006049
84 0.005979
111 0.004979
128 0.004976
139 0.005025
133 0.004958
122 0.005997
119 0.005015
128 0.005954
141 0.004036
154 0.003992
168 0.005951
178 0.005991
188 0.004987
191 0.004991
196 0.005023
197 0.004992
98 0.004986
41 0.004988
29 0.004018
55 0.004991
83 0.004991
101 0.004949
110 0.005037
114 0.004037
113 0.003978
110 0.004984
112 0.00497
120 0.004984
141 0.005011
155 0.004987
165 0.005013
173 0.004952
182 0.004983
187 0.004967
191 0.004985
195 0.004945
137 0.004992
64 0.003987
37 0.003981
47 0.005047
91 0.004987
108 0.005036
121 0.004935
129 0.004986
124 0.005072
122 0.004992
120 0.004981
128 0.004991
142 0.004979
157 0.004009
167 0.003957
177 0.004028
184 0.004957
187 0.004993
193 0.004987
198 0.006959
202 0.004983
205 0.004974
166 0.005024
84 0.005021
37 0.003933
50 0.003952
82 0.003956
109 0.004034
132 0.006944
136 0.004065
132 0.004988
123 0.005974
123 0.004955
134 0.004988
147 0.004988
159 0.005022
175 0.005008
182 0.003976
188 0.003995
191 0.003991
201 0.005108
206 0.004024
215 0.00495
209 0.00492
145 0.004988
85 0.004982
68 0.00501
87 0.004982
128 0.004025
150 0.003991
166 0.003939
169 0.003996
154 0.003962
148 0.003988
150 0.003991
160 0.00399
180 0.003933
194 0.004974
203 0.004986
206 0.004026
212 0.00399
219 0.004017
224 0.003949
214 0.003991
142 0.004
76 0.005015
56 0.003989
71 0.002978
112 0.003989
134 0.00402
149 0.003928
157 0.003989
151 0.003955
137 0.003983
138 0.003957
152 0.00399
167 0.004043
180 0.003989
189 0.00399
194 0.00399
203 0.00399
206 0.00394
212 0.002997
214 0.003992
165 0.00403
64 0.004092
39 0.003959
68 0.003956
97 0.004052
115 0.003991
128 0.004017
136 0.003989
128 0.001993
123 0.003069
123 0.003951
133 0.00302
145 0.002992
164 0.003013
177 0.002993
188 0.004019
192 0.003993
197 0.00399
202 0.003958
203 0.004019
127 0.00399
60 0.003998
41 0.004042
56 0.004483
87 0.002992
117 0.002991
135 0.004003
143 0.004029
137 0.004012
130 0.004002
132 0.004015
144 0.00399
162 0.003958
176 0.004016
187 0.002961
194 0.003037
200 0.002987
207 0.002991
213 0.003992
204 0.00399
131 0.003977
70 0.003996
57 0.003991
74 0.002972
114 0.002966
136 0.002947
156 0.003022
162 0.002957
153 0.002958
136 0.002956
131 0.002994
141 0.00399
148 0.003954
155 0.00403
160 0.003986
162 0.002995
168 0.002995
171 0.003964
171 0.002972
139 0.003036
66 0.003036
19 0.003015
27 0.002991
74 0.003972
96 0.002993
112 0.00398
118 0.002993
109 0.003026
95 0.002994
94 0.002937
102 0.00298
116 0.003023
129 0.002987
142 0.002997
152 0.001997
161 0.002028
168 0.002993
167 0.003024
108 0.002047
33 0.002996
3 0.001995
19 0.001987
50 0.001957
75 0.003039
89 0.003034
101 0.002994
97 0.002992
93 0.002993
97 0.00299
104 0.002992
118 0.002992
133 0.001992
148 0.00198
160 0.001969
168 0.001954
173 0.003018
178 0.002991
127 0.002979
41 0.002983
26 0.002997
51 0.003042
76 0.002028
96 0.002038
111 0.00203
121 0.002082
118 0.002004
113 0.001986
113 0.002002
120 0.002061
138 0.002978
160 0.002993
171 0.002049
178 0.00308
186 0.002075
194 0.001997
190 0.001996
108 0.002068
56 0.002004
44 0.002987
65 0.002005
96 0.001942
128 0.002988
146 0.002992
140 0.003056
128 0.001996
125 0.002014
128 0.001969
138 0.001996
154 0.002001
166 0.001998
174 0.001995
181 0.001937
184 0.001961
189 0.00203
132 0.001977
66 0.000999
42 0.001995
62 0.002065
90 0.001985
111 0.001995
132 0.001995
142 0.002007
132 0.001986
121 0.001968
120 0.002045
128 0.002031
150 0.002029
163 0.000998
178 0.000999
185 0.000996
192 0.002021
195 0.001996
155 0.002051
52 0.001994
26 0.002022
38 0.001878
66 0.002025
90 0.002035
115 0.000998
121 0.00099
114 0.000998
108 0.000999
110 0.001029
118 0.000957
132 0.001012
152 0.001964
164 0.000997
174 0.001999
180 0.002042
184 0.002026
182 0.002027
116 0.001033
35 0.001984
29 0.001963
50 0.000998
77 0.000998
96 0.000998
115 0.001019
121 0.001989
119 0.002002
115 0.002028
121 0.001999
132 0.001996
147 0.001966
166 0.000999
177 0.002029
185 0.000998
192 0.001003
198 0.00199
211 0.000997
188 0.00196
110 0.002068
71 0.01496
54 0.0
97 0.001996
122 0.002052
144 0.000999
150 0.001996
144 0.000997
133 0.000998
130 0.000997
142 0.002044
151 0.000958
164 0.002026
175 0.002066
184 0.002029
188 0.002043
187 0.001028
191 0.001006
171 0.001001
102 0.000998
47 0.000997
39 0.000998
70 0.000984
96 0.001997
117 0.002035
136 0.002026
134 0.002031
124 0.001997
121 0.002006
131 0.000998
145 0.000997
159 0.000999
173 0.000984
183 0.000997
192 0.000995
199 0.000931
207 0.002004
194 0.002029
69 0.00199
33 0.0
39 0.0
80 0.001005
105 0.0
122 0.000998
136 0.0
136 0.000999
124 0.001023
120 0.000996
127 0.000997
138 0.000997
164 0.000997
174 0.000998
182 0.0
190 0.0
195 0.0
203 0.0
199 0.0
127 0.0
31 0.000998
22 0.000993
41 0.000988
71 0.001004
103 0.000998
116 0.000996
121 0.0
113 0.0
109 0.0
113 0.0
123 0.0
137 0.0
158 0.0
169 0.0
175 0.0
184 0.000998
194 0.000997
202 0.000997
184 0.000998
76 0.0
35 0.0
38 0.0
68 0.0
99 0.0
130 0.0
145 0.0
146 0.0
140 0.0
132 0.0
139 0.0
151 0.0
165 0.0
184 0.0
194 0.000997
200 0.0
209 0.0
215 0.0
221 0.0
182 0.0
102 0.0
59 0.0
79 0.0
109 0.0
136 0.0
162 0.0
168 0.0
158 0.0
144 0.0
138 0.0
146 0.0
161 0.0
182 0.0
192 0.0
199 0.0
207 0.0
212 0.0
174 0.0
87 0.000951
38 0.0
37 0.0
62 0.000998
103 0.0
125 0.001013
147 0.0
141 0.0
128 0.000998
124 0.000958
128 0.000998
142 0.003027
158 0.0
170 0.001035
179 0.0
185 0.0
194 0.0
200 0.0
119 0.0
39 0.0
14 0.0
26 0.000997
55 0.001063
91 0.003022
108 0.003025
121 0.0
119 0.0
110 0.000964
107 0.002028
112 0.002027
133 0.002026
149 0.003007
166 0.0
173 0.0
180 0.002975
189 0.003026
195 0.003025
137 0.001013
57 0.000934
22 0.000968
30 0.003014
61 0.002999
106 0.002992
124 0.000991
135 0.0
132 0.0
125 0.0
124 0.002978
132 0.00299
150 0.0
167 0.0
178 0.0
187 0.003013
197 0.000997
208 0.001991
215 0.002029
153 0.000997
77 0.000975
49 0.000988
59 0.003018
90 0.003026
130 0.0
151 0.0
163 0.0
159 0.002921
144 0.002026
135 0.002043
143 0.001987
159 0.000968
172 0.0
180 0.0
189 0.00299
195 0.003006
202 0.0
192 0.0
121 0.0
58 0.002995
41 0.003025
77 0.003023
107 0.002021
141 0.0
156 0.0
153 0.000941
139 0.001957
128 0.002992
131 0.001026
143 0.000963
159 0.0
173 0.003024
183 0.002031
194 0.003023
199 0.003036
182 0.0
92 0.000937
27 0.0
15 0.003064
37 0.003043
78 0.000965
100 0.000966
116 0.0
122 0.002993
114 0.0
109 0.00203
112 0.00199
124 0.000968
137 0.0
152 0.001026
164 0.003009
173 0.002027
182 0.0
188 0.0
183 0.0
117 0.003001
14 0.0
13 0.003023
39 0.003022
81 0.0
102 0.0
116 0.000967
122 0.002026
117 0.002027
111 0.001005
114 0.0
126 0.0
137 0.003023
165 0.0
175 0.003878
186 0.002955
191 0.003023
196 0.000988
203 0.0
183 0.0
100 0.001971
43 0.002027
36 0.0
63 0.000996
97 0.0
132 0.0
144 0.0
138 0.00303
121 0.003025
112 0.0
116 0.0
124 0.0
135 0.002021
139 0.002067
143 0.000947
141 0.000991
140 0.001018
151 0.001044
125 0.0
55 0.003041
14 0.003025
24 0.0
56 0.0
87 0.0
112 0.003024
132 0.003025
136 0.001007
123 0.000973
117 0.000968
125 0.000944
139 0.00096
151 0.003005
161 0.00299
171 0.0
176 0.0
183 0.0
188 0.00301
174 0.003026
66 0.0
16 0.0
8 0.0
55 0.0
75 0.0
92 0.003025
102 0.003025
98 0.000951
92 0.0
88 0.0
94 0.001989
105 0.001961
126 0.001001
140 0.0
151 0.00103
163 0.0
168 0.0
175 0.002988
180 0.003021
129 0.0
48 0.0
12 0.0
16 0.002043
44 0.002023
81 0.000943
96 0.0
105 0.0
100 0.0
95 0.0
97 0.003023
103 0.00303
119 0.0
135 0.0
149 0.001051
156 0.014903
162 0.0
170 0.0
206 0.0
212 0.001013
187 0.0
108 0.0
51 0.002994
39 0.003025
73 0.000998
102 0.0
122 0.0
133 0.003051
136 0.003036
111 0.0
103 0.0
107 0.0
119 0.000964
125 0.000967
135 0.003013
136 0.003026
143 0.0
143 0.0
146 0.0
151 0.003025
126 0.003038
39 0.001001
12 0.0
39 0.000968
71 0.0
94 0.003011
111 0.002998
120 0.003008
110 0.001933
101 0.002998
102 0.002998
111 0.00399
123 0.003026
139 0.002955
150 0.002997
164 0.003007
169 0.002991
175 0.002992
169 0.003007
101 0.002992
19 0.002021
10 0.0
29 0.003041
60 0.003991
84 0.00399
103 0.002993
110 0.003004
102 0.002994
98 0.003006
102 0.0
111 0.003102
124 0.003002
140 0.002039
150 0.001987
159 0.0
164 0.004061
171 0.003989
169 0.002999
108 0.002995
23 0.002993
27 0.002993
55 0.003024
85 0.002992
104 0.002996
119 0.002002
124 0.002991
117 0.002027
113 0.002994
115 0.003959
127 0.002991
139 0.002992
160 0.0
170 0.003002
176 0.002989
183 0.00399
188 0.00399
194 0.00403
169 0.002993
94 0.002994
49 0.002989
44 0.003997
75 0.003023
117 0.001995
142 0.004026
153 0.002006
148 0.003007
139 0.001989
136 0.004017
143 0.003991
158 0.00303
169 0.002992
181 0.002991
190 0.004041
195 0.005022
197 0.00202
213 0.004026
187 0.002992
115 0.001975
68 0.002989
67 0.003978
90 0.004002
126 0.002992
144 0.00199
160 0.002956
157 0.003997
143 0.00399
128 0.002994
131 0.004987
147 0.002997
158 0.002991
170 0.00299
179 0.00398
186 0.00399
194 0.00199
194 0.00201
138 0.002996
66 0.00399
39 0.003988
68 0.003957
100 0.00403
123 0.002999
138 0.002987
139 0.00298
131 0.005019
122 0.004987
125 0.003018
135 0.002977
146 0.001969
158 0.003991
171 0.004988
184 0.004063
192 0.00402
198 0.002021
148 0.002996
65 0.002009
33 0.005021
39 0.005004
79 0.003
102 0.003025
113 0.002989
123 0.004987
120 0.003989
109 0.00402
109 0.004986
118 0.001995
131 0.002992
142 0.004986
153 0.004986
161 0.004969
170 0.002988
175 0.002982
179 0.00301
147 0.004988
71 0.004989
25 0.004988
43 0.005987
85 0.002959
107 0.002992
121 0.00301
126 0.004987
123 0.005
113 0.002056
115 0.003016
123 0.0
130 0.0
151 0.004954
176 0.004998
181 0.005034
192 0.002992
195 0.003003
199 0.003999
152 0.004985
83 0.005036
46 0.002992
65 0.002992
93 0.003026
115 0.004939
129 0.00495
137 0.004986
125 0.004986
115 0.002969
115 0.002991
124 0.00301
135 0.004987
147 0.004986
159 0.00301
167 0.002958
172 0.003029
178 0.005989
167 0.005984
63 0.004986
38 0.005039
69 0.002989
121 0.002988
155 0.003002
177 0.005984
182 0.005984
158 0.002989
140 0.002963
135 0.002951
139 0.004986
147 0.005038
162 0.005984
166 0.006015
169 0.003022
173 0.002997
177 0.00202
176 0.005042
132 0.005954
35 0.003024
12 0.003
25 0.002971
55 0.005047
80 0.005003
104 0.004986
111 0.004984
108 0.001992
105 0.002954
106 0.001994
114 0.005984
125 0.00598
144 0.002952
155 0.002967
164 0.002989
169 0.002992
175 0.00296
