136 0.031914
136 0.000998
143 0.0
134 0.000982
130 0.001025
135 0.001027
143 0.001004
151 0.000996
158 0.001003
165 0.000997
172 0.001001
177 0.001004
180 0.0
148 0.0
87 0.0
45 0.0
55 0.0
81 0.000958
99 0.000961
118 0.000999
129 0.001
130 0.0
124 0.000997
125 0.000957
127 0.0
134 0.0
143 0.0
154 0.0
159 0.0
164 0.000962
171 0.0
173 0.0
176 0.0
144 0.0
80 0.0
34 0.0
36 0.0
54 0.0
73 0.0
98 0.0
110 0.0
111 0.000997
109 0.0
108 0.0
112 0.0
117 0.0
125 0.0
132 0.0
140 0.0
145 0.0
150 0.0
156 0.0
162 0.0
161 0.0
118 0.001001
61 0.000996
34 0.0
36 0.0
49 0.0
73 0.0
94 0.0
108 0.0
111 0.0
102 0.0
99 0.0
101 0.0
105 0.000998
114 0.000998
121 0.0
125 0.0
130 0.0
137 0.0
142 0.0
132 0.0
73 0.0
42 0.0
51 0.0
71 0.0
93 0.001
114 0.001003
125 0.0
123 0.0
120 0.0
118 0.0
121 0.000998
127 0.0
136 0.0
145 0.0
150 0.0
156 0.0
162 0.000998
145 0.00099
66 0.0
35 0.0
35 0.0
50 0.000999
69 0.000998
88 0.0
100 0.000998
106 0.000952
102 0.000997
96 0.000998
103 0.00096
108 0.000963
119 0.0
125 0.0
132 0.0
139 0.001008
146 0.001042
152 0.0
109 0.000951
37 0.0
33 0.000996
49 0.000998
68 0.000965
84 0.000951
99 0.000999
106 0.0
102 0.0
99 0.000981
99 0.001033
103 0.0
109 0.000966
121 0.00099
132 0.001008
137 0.000998
143 0.001995
147 0.001986
131 0.000998
81 0.000999
38 0.0
41 0.001012
60 0.000998
86 0.001
101 0.000995
112 0.000997
109 0.001007
102 0.001003
99 0.000994
104 0.001994
111 0.00096
116 0.000998
118 0.001995
127 0.000983
132 0.001991
135 0.001995
138 0.001019
84 0.001995
38 0.000997
38 0.000997
56 0.001027
77 0.001994
95 0.001995
110 0.001031
116 0.001982
114 0.000963
110 0.002038
112 0.001994
120 0.00103
130 0.002033
139 0.000992
145 0.001008
151 0.002025
157 0.002992
149 0.001985
96 0.002011
44 0.002027
29 0.001996
43 0.002029
64 0.001981
84 0.000961
100 0.001992
102 0.00104
96 0.001025
98 0.000997
100 0.001995
108 0.002
120 0.000979
129 0.001994
134 0.002044
140 0.003004
147 0.00299
152 0.001988
114 0.001979
59 0.002022
32 0.002013
36 0.002036
62 0.002054
81 0.001994
101 0.001019
106 0.002023
109 0.001995
107 0.002992
105 0.002991
110 0.001975
119 0.002992
127 0.002034
138 0.000987
143 0.001995
148 0.002027
151 0.002993
163 0.00203
147 0.002029
92 0.002031
53 0.003019
47 0.003019
71 0.002024
97 0.003025
117 0.002026
129 0.001994
126 0.001995
120 0.003023
118 0.002992
119 0.003024
124 0.003028
131 0.002992
140 0.002992
147 0.002948
153 0.002989
160 0.003027
164 0.003029
136 0.003027
70 0.002024
56 0.003042
68 0.002992
95 0.002027
117 0.002031
131 0.003022
139 0.00399
137 0.00399
131 0.002992
131 0.003992
139 0.003026
148 0.002026
152 0.003077
162 0.003995
166 0.004023
173 0.003036
176 0.002992
143 0.003023
83 0.004023
51 0.003961
54 0.002992
80 0.002981
99 0.001997
112 0.001999
118 0.003027
117 0.00399
113 0.003981
115 0.002984
122 0.003023
129 0.002992
138 0.002979
147 0.003987
154 0.002992
164 0.002956
170 0.002992
154 0.003037
115 0.004023
56 0.003023
47 0.00399
62 0.003989
88 0.002971
103 0.003031
117 0.003996
121 0.004043
120 0.004036
113 0.003024
115 0.003044
124 0.004024
134 0.003048
141 0.003018
150 0.00399
157 0.003989
162 0.003022
164 0.003989
172 0.004017
157 0.003989
101 0.003993
55 0.003973
65 0.003985
94 0.002973
110 0.002992
125 0.002997
135 0.003975
132 0.004033
121 0.004029
120 0.004023
126 0.003991
133 0.004013
140 0.003989
149 0.004023
154 0.004025
162 0.004033
167 0.002987
159 0.004
96 0.003974
62 0.003958
65 0.004017
85 0.003037
106 0.004023
120 0.00497
134 0.004987
130 0.004987
125 0.004981
123 0.004021
127 0.004001
135 0.004029
148 0.004988
154 0.003989
161 0.005028
167 0.003989
169 0.004022
149 0.004989
90 0.00498
37 0.005021
46 0.004986
70 0.004011
87 0.004023
99 0.005029
107 0.004035
110 0.003989
107 0.005012
108 0.004982
111 0.005003
120 0.005019
129 0.004987
143 0.004987
151 0.004987
160 0.004017
164 0.004022
142 0.003996
85 0.004988
50 0.005029
53 0.00396
72 0.005032
92 0.005026
108 0.00594
118 0.005975
115 0.005003
110 0.004951
112 0.004036
116 0.004955
122 0.005023
129 0.005035
137 0.005984
144 0.005015
153 0.00503
160 0.005027
165 0.005988
164 0.005983
86 0.005986
55 0.005984
55 0.00503
74 0.005018
95 0.005028
116 0.004997
126 0.005983
124 0.004975
117 0.005012
115 0.005018
119 0.005975
127 0.005984
141 0.005985
148 0.005991
154 0.00502
158 0.005031
164 0.005017
155 0.006016
88 0.005989
57 0.005984
62 0.00502
80 0.004962
101 0.004987
115 0.006011
130 0.005033
129 0.005028
122 0.005984
123 0.005015
128 0.004996
134 0.006015
145 0.005984
153 0.005982
161 0.005018
165 0.00502
170 0.005
151 0.005978
58 0.005026
38 0.006017
47 0.006982
75 0.004977
89 0.006014
103 0.006027
112 0.006017
114 0.006018
111 0.006015
111 0.005983
117 0.004974
125 0.006008
140 0.004977
146 0.006014
149 0.006982
155 0.006015
160 0.005984
161 0.005994
154 0.022893
123 0.0
68 0.005945
95 0.005984
117 0.004989
119 0.006022
113 0.007016
115 0.005015
119 0.004999
126 0.005995
134 0.006982
141 0.006982
149 0.006017
156 0.005987
161 0.005995
166 0.006983
171 0.006024
117 0.006015
73 0.006983
61 0.005987
77 0.006031
99 0.006014
117 0.007012
132 0.006982
140 0.006012
132 0.005977
128 0.006033
132 0.006974
142 0.004982
149 0.006014
156 0.006981
162 0.007007
167 0.007014
172 0.007014
180 0.007015
161 0.007018
84 0.005982
54 0.005979
52 0.006016
71 0.00699
102 0.006023
117 0.007016
124 0.007948
122 0.007006
119 0.007015
119 0.007023
124 0.006979
132 0.006982
146 0.005984
152 0.006009
158 0.006012
165 0.007963
174 0.006016
179 0.007992
149 0.007995
85 0.007035
49 0.007012
46 0.007012
69 0.006981
91 0.006982
108 0.007013
121 0.005986
124 0.00695
119 0.007948
115 0.007027
118 0.007989
125 0.007979
141 0.007001
148 0.007013
156 0.007032
162 0.007979
169 0.007021
178 0.00603
176 0.005984
149 0.007013
77 0.007012
62 0.006981
80 0.00697
103 0.007979
121 0.007978
137 0.006938
138 0.006989
132 0.007005
125 0.007038
127 0.007978
134 0.007939
143 0.007947
154 0.006951
164 0.006925
169 0.007039
176 0.007979
181 0.007979
127 0.007007
73 0.007015
54 0.00701
64 0.007979
91 0.007949
110 0.006972
121 0.007946
135 0.006966
129 0.006967
123 0.007014
127 0.007976
134 0.007961
143 0.006991
152 0.007025
158 0.007025
164 0.007025
170 0.007092
174 0.006969
177 0.007008
137 0.007009
47 0.006983
37 0.006981
54 0.008007
74 0.007883
87 0.007943
103 0.006979
112 0.007016
115 0.007022
109 0.007022
110 0.007031
116 0.006982
123 0.007012
138 0.007023
144 0.007015
152 0.006999
157 0.00698
161 0.007978
169 0.007946
174 0.007632
177 0.006982
153 0.006981
70 0.007016
39 0.007015
40 0.007015
78 0.007015
97 0.006978
113 0.006974
121 0.007016
120 0.007968
111 0.007026
110 0.007989
115 0.006981
124 0.006982
134 0.007015
140 0.007014
147 0.007013
159 0.006982
163 0.006983
169 0.006983
174 0.007022
163 0.006987
110 0.007018
71 0.007008
66 0.007011
78 0.007028
106 0.006982
127 0.007016
142 0.007013
146 0.006975
138 0.007014
133 0.007008
132 0.006015
143 0.007019
153 0.007014
153 0.025898
159 0.00099
172 0.005984
179 0.00603
185 0.005993
184 0.006953
91 0.007016
52 0.006948
51 0.00702
68 0.007033
99 0.006983
115 0.00698
127 0.006981
130 0.007008
123 0.005984
116 0.005982
119 0.006024
126 0.00595
139 0.006017
144 0.006021
149 0.006013
153 0.005978
160 0.006992
166 0.006983
168 0.007032
129 0.007026
64 0.006014
27 0.007015
34 0.007011
56 0.006016
87 0.006028
99 0.006023
106 0.005985
104 0.006016
98 0.00602
98 0.006061
105 0.006038
110 0.006018
119 0.006027
128 0.006024
136 0.006037
144 0.005982
153 0.005018
160 0.004986
159 0.006015
113 0.00602
52 0.005981
30 0.005999
46 0.006027
69 0.006037
89 0.006012
102 0.005988
110 0.00603
106 0.006015
101 0.004989
105 0.005017
111 0.004977
118 0.006008
126 0.005986
136 0.006015
142 0.006025
149 0.00602
154 0.006
159 0.006016
130 0.00602
71 0.005021
41 0.004988
59 0.005021
83 0.005023
102 0.005033
121 0.00602
130 0.005996
125 0.005988
118 0.006007
120 0.006017
122 0.005985
133 0.005983
143 0.005984
155 0.006016
161 0.005038
165 0.005022
171 0.005028
173 0.006041
103 0.005033
47 0.005243
32 0.005029
44 0.005009
65 0.004989
90 0.004986
102 0.004932
109 0.004988
106 0.005025
103 0.004988
106 0.005036
115 0.005072
128 0.005076
138 0.004038
146 0.004986
152 0.005025
155 0.00598
166 0.004969
174 0.004955
176 0.004987
128 0.00502
65 0.00502
36 0.005028
39 0.005022
65 0.005018
85 0.005022
103 0.005014
113 0.005025
116 0.005131
110 0.004026
107 0.003987
115 0.005029
125 0.005015
135 0.005029
143 0.005022
148 0.004986
155 0.005031
160 0.005018
164 0.004991
167 0.00406
172 0.005019
134 0.004025
71 0.004049
42 0.003991
60 0.00399
87 0.004987
106 0.005026
118 0.005031
125 0.003994
117 0.004024
108 0.00399
108 0.003988
115 0.003989
126 0.00399
135 0.003992
143 0.004054
150 0.003991
156 0.004023
163 0.00399
171 0.003998
141 0.005018
79 0.004937
48 0.005024
50 0.004098
71 0.004997
95 0.003991
118 0.003955
133 0.00405
129 0.003955
120 0.004018
119 0.003985
125 0.00399
134 0.00399
148 0.003989
155 0.004018
160 0.003983
166 0.004021
171 0.003022
179 0.00404
171 0.00403
82 0.004026
39 0.003992
33 0.00404
53 0.003995
73 0.003965
94 0.004017
106 0.003991
113 0.004034
110 0.002992
108 0.003024
108 0.002993
118 0.002995
130 0.003992
137 0.003959
147 0.003957
152 0.004041
159 0.003999
168 0.004024
172 0.004002
178 0.004152
165 0.003947
102 0.004032
40 0.003992
45 0.003945
78 0.002992
96 0.003026
108 0.003001
114 0.002994
114 0.003035
108 0.002992
104 0.004041
108 0.003938
117 0.004026
129 0.004038
139 0.00399
147 0.003991
153 0.002993
162 0.002994
167 0.003047
171 0.002994
176 0.002992
130 0.002993
70 0.002993
45 0.003029
54 0.002992
74 0.00399
104 0.003991
125 0.003993
134 0.003989
128 0.00295
122 0.002992
126 0.002992
137 0.003027
149 0.002993
158 0.003039
163 0.002992
167 0.002992
174 0.003015
184 0.002991
193 0.003956
135 0.003002
76 0.002998
56 0.003021
65 0.002967
87 0.003004
110 0.002992
124 0.002997
132 0.00303
130 0.003001
121 0.00303
118 0.002032
124 0.003048
141 0.002027
153 0.002992
160 0.002992
166 0.002994
171 0.003042
178 0.002992
167 0.003004
107 0.002976
55 0.003772
41 0.00199
64 0.001999
92 0.001962
109 0.002028
119 0.002995
120 0.001996
114 0.00278
110 0.002993
117 0.003318
123 0.002018
130 0.001996
138 0.001986
148 0.002028
156 0.001995
164 0.001994
149 0.001988
72 0.001995
44 0.00199
47 0.000998
67 0.002992
89 0.001996
112 0.001995
122 0.001994
123 0.001963
119 0.001988
114 0.001964
125 0.001996
135 0.00201
146 0.001995
154 0.000997
159 0.002026
165 0.001992
173 0.001995
139 0.001995
81 0.000997
57 0.001995
63 0.001995
83 0.001995
118 0.001996
133 0.000998
135 0.000998
130 0.001999
126 0.000963
130 0.002008
137 0.001996
146 0.002023
155 0.001991
160 0.002019
165 0.001994
174 0.000998
174 0.000998
124 0.001008
71 0.001046
71 0.000987
90 0.000998
117 0.00101
138 0.002048
157 0.001996
156 0.002053
147 0.000998
141 0.000997
143 0.001995
157 0.001995
167 0.0
175 0.001996
182 0.000997
188 0.001996
193 0.000976
159 0.001001
79 0.000999
58 0.000998
67 0.001002
88 0.001006
108 0.000995
136 0.000997
139 0.000998
132 0.000965
127 0.000998
128 0.000998
135 0.000961
143 0.000999
157 0.000997
162 0.000999
167 0.000984
173 0.000997
180 0.001014
168 0.000998
105 0.000998
51 0.000997
50 0.000999
71 0.000997
94 0.0
113 0.0
128 0.0
129 0.0
122 0.0
118 0.0
119 0.0
132 0.000987
141 0.0
154 0.001007
161 0.000997
164 0.001026
171 0.000962
174 0.000996
179 0.000998
173 0.0
117 0.000992
59 0.000997
44 0.000997
75 0.0
100 0.0
123 0.0
133 0.0
132 0.0
127 0.0
124 0.0
128 0.000998
138 0.0
147 0.000998
156 0.000997
163 0.001002
173 0.0
180 0.0
186 0.0
191 0.0
159 0.0
99 0.0
67 0.0
70 0.0
99 0.0
124 0.0
142 0.0
156 0.0
150 0.0
143 0.0
140 0.0
147 0.001
156 0.000998
166 0.0
173 0.000998
182 0.0
187 0.00098
192 0.001007
189 0.0
112 0.0
58 0.000997
63 0.000947
78 0.000997
107 0.000997
124 0.0
137 0.0
135 0.0
124 0.0
119 0.001031
122 0.000999
133 0.0
142 0.0
154 0.0
160 0.0
164 0.0
168 0.000999
175 0.002206
162 0.000997
75 0.0
35 0.0
33 0.000998
53 0.000962
80 0.0
95 0.0
110 0.0
106 0.0
100 0.0
98 0.00201
100 0.002019
112 0.0
117 0.000997
128 0.0
138 0.000997
144 0.001003
150 0.0
155 0.0
149 0.0
90 0.0
36 0.0
21 0.000998
40 0.000958
76 0.0
90 0.000998
110 0.0
115 0.001995
110 0.00203
106 0.0
106 0.0
118 0.0
126 0.0
137 0.0
144 0.000999
154 0.000988
165 0.0
174 0.0
181 0.001006
167 0.000939
109 0.001997
58 0.001004
60 0.0
96 0.001034
116 0.000999
133 0.001022
141 0.001996
138 0.00203
124 0.000998
121 0.001026
126 0.000998
135 0.001964
144 0.001959
156 0.001003
163 0.000998
174 0.0
177 0.000998
177 0.0
137 0.001028
66 0.001004
28 0.001001
39 0.001032
61 0.001029
82 0.00199
99 0.001997
113 0.001037
111 0.001
102 0.001046
103 0.000998
111 0.000998
120 0.000998
129 0.001007
140 0.000998
146 0.000935
150 0.000879
155 0.001996
160 0.001992
165 0.00203
170 0.000998
146 0.001999
54 0.001948
24 0.000999
28 0.001996
51 0.001995
75 0.001989
94 0.000993
103 0.000998
105 0.000998
100 0.002015
96 0.001995
99 0.001011
109 0.002025
123 0.000999
132 0.001037
138 0.000996
144 0.002031
151 0.002992
159 0.000955
163 0.000999
168 0.000999
173 0.002039
172 0.002033
96 0.001006
38 0.001996
45 0.002037
69 0.000998
93 0.001989
109 0.002992
121 0.003021
121 0.001995
114 0.000988
110 0.000978
111 0.002035
118 0.001998
130 0.000986
142 0.001995
150 0.000997
153 0.002034
159 0.001061
164 0.001967
170 0.002029
169 0.001996
123 0.000989
63 0.001999
42 0.003023
53 0.003023
86 0.002035
114 0.002992
133 0.003029
136 0.002027
130 0.002045
123 0.002031
122 0.003026
129 0.001005
139 0.001992
147 0.001973
154 0.002981
161 0.002988
169 0.002004
177 0.003028
181 0.001996
184 0.002025
148 0.001991
76 0.003023
36 0.00299
42 0.001992
65 0.001993
86 0.003023
100 0.003991
113 0.004024
116 0.003023
109 0.002992
106 0.001989
113 0.001993
120 0.002029
129 0.003035
137 0.003024
147 0.003044
153 0.000997
157 0.002026
164 0.004022
168 0.004023
173 0.003037
180 0.002992
148 0.002027
77 0.002028
36 0.001993
34 0.003026
54 0.003025
87 0.003048
103 0.002942
117 0.002036
120 0.004022
115 0.003986
105 0.002993
107 0.003991
119 0.003028
129 0.002032
138 0.002995
143 0.004003
150 0.004027
158 0.003032
165 0.001995
171 0.001934
153 0.003985
91 0.004022
41 0.003003
49 0.002992
83 0.003004
101 0.002988
118 0.003048
129 0.001993
126 0.003989
117 0.004022
115 0.002
120 0.002995
128 0.003023
138 0.004019
146 0.003994
158 0.003992
165 0.003985
169 0.002971
176 0.002995
178 0.002988
182 0.003987
183 0.00399
190 0.003044
157 0.00298
78 0.003003
28 0.004021
20 0.003989
56 0.004987
78 0.005018
96 0.002991
104 0.002992
105 0.002991
98 0.004028
95 0.004025
100 0.002964
105 0.002987
115 0.003025
127 0.003996
136 0.004986
146 0.004986
149 0.004989
156 0.002962
158 0.002973
161 0.002987
166 0.004108
174 0.004024
152 0.004022
86 0.003026
40 0.003009
32 0.004988
49 0.004992
86 0.004987
100 0.005022
116 0.003989
112 0.003007
102 0.002991
96 0.00499
100 0.003992
111 0.003028
121 0.002996
131 0.003956
141 0.00502
147 0.004982
155 0.004987
160 0.004987
165 0.003987
170 0.003991
171 0.003992
127 0.004847
60 0.004955
28 0.002986
42 0.002999
64 0.00399
87 0.004986
102 0.004983
115 0.005028
112 0.00502
102 0.003996
102 0.003994
110 0.003999
119 0.004969
128 0.004992
140 0.005025
147 0.003962
152 0.004986
157 0.005965
163 0.004983
169 0.00498
172 0.004986
174 0.004007
179 0.003984
162 0.004988
91 0.005977
30 0.005984
16 0.003991
35 0.003991
61 0.004991
80 0.004987
93 0.004992
102 0.005027
97 0.005984
91 0.00496
94 0.004966
101 0.004978
110 0.005986
122 0.005958
135 0.00395
142 0.003991
148 0.003991
153 0.004896
156 0.004992
162 0.00497
166 0.004986
172 0.005006
177 0.004998
163 0.004987
100 0.005985
46 0.006011
33 0.004987
54 0.004028
81 0.003961
99 0.005978
112 0.00598
118 0.005027
110 0.004969
101 0.004989
103 0.004995
112 0.005001
120 0.00503
131 0.005981
141 0.005997
149 0.005008
154 0.005951
159 0.00399
163 0.005941
169 0.005031
174 0.007021
155 0.005949
68 0.004972
36 0.004983
40 0.004992
59 0.005983
82 0.005986
109 0.004988
120 0.006035
123 0.004968
118 0.005957
108 0.005023
113 0.006992
120 0.006984
134 0.004955
146 0.004987
152 0.004993
158 0.005981
162 0.005982
167 0.00499
169 0.005954
172 0.004991
165 0.005966
61 0.006029
23 0.006997
21 0.006981
51 0.005981
74 0.00599
89 0.005972
100 0.006948
104 0.006954
98 0.004993
93 0.004997
94 0.004966
101 0.005997
117 0.004948
128 0.006983
137 0.006984
146 0.005982
153 0.005991
160 0.005996
166 0.006983
171 0.006977
146 0.005994
78 0.004978
33 0.005006
26 0.006958
63 0.005986
82 0.006975
96 0.006983
108 0.00598
103 0.005976
96 0.005992
93 0.00698
96 0.006988
109 0.004965
120 0.006969
130 0.005992
139 0.007011
147 0.005999
152 0.00801
157 0.006982
162 0.005984
165 0.005985
149 0.005996
90 0.006974
43 0.006995
40 0.005992
64 0.006927
88 0.006957
109 0.007961
127 0.007019
131 0.00798
123 0.007974
114 0.006017
117 0.005965
124 0.006001
132 0.00698
140 0.006995
146 0.005971
150 0.006999
154 0.007003
159 0.007945
168 0.007012
144 0.007977
64 0.007976
38 0.00598
45 0.005982
70 0.005987
93 0.007005
109 0.007979
125 0.005931
123 0.006978
114 0.006943
108 0.007979
117 0.006952
129 0.007955
138 0.007975
150 0.007014
154 0.006968
159 0.006977
165 0.007973
170 0.00701
170 0.005968
125 0.006978
55 0.006986
25 0.006974
42 0.006983
66 0.006974
84 0.007978
97 0.007947
107 0.007013
104 0.006977
99 0.006966
100 0.007014
106 0.007978
124 0.006975
132 0.006977
143 0.007007
152 0.006979
158 0.006955
164 0.007926
170 0.007948
163 0.006986
106 0.006983
47 0.006986
28 0.007016
47 0.007009
81 0.007014
95 0.006965
103 0.006975
109 0.007009
104 0.006974
101 0.007016
104 0.007964
114 0.006962
126 0.007014
133 0.00698
143 0.006968
150 0.006995
158 0.007017
164 0.007015
169 0.006977
178 0.006976
168 0.006938
88 0.006976
46 0.007015
43 0.006975
66 0.007025
91 0.007001
115 0.007029
130 0.007017
129 0.007014
120 0.006978
115 0.007042
121 0.006979
127 0.007978
142 0.007018
150 0.007013
157 0.00696
162 0.006015
165 0.006946
171 0.005988
177 0.007027
151 0.007033
85 0.007015
46 0.007012
53 0.007012
77 0.00703
98 0.006967
116 0.006982
126 0.006955
122 0.006017
114 0.00602
109 0.006014
114 0.006018
127 0.007016
136 0.007023
146 0.007029
157 0.007012
163 0.006982
168 0.007014
174 0.007016
177 0.006941
127 0.005963
59 0.005979
31 0.006021
35 0.006017
68 0.006036
88 0.006018
100 0.006021
112 0.006984
109 0.007019
105 0.006015
103 0.006978
113 0.006025
123 0.00602
134 0.006018
143 0.005968
148 0.005976
157 0.006028
165 0.006015
173 0.005956
180 0.006019
184 0.00598
173 0.006041
110 0.006026
49 0.006022
45 0.006015
65 0.006016
88 0.006015
103 0.006015
112 0.006016
118 0.005021
115 0.006034
108 0.006
112 0.005018
121 0.005026
130 0.006026
139 0.005956
150 0.005987
157 0.006018
161 0.006017
166 0.005985
171 0.005973
178 0.006018
185 0.006012
160 0.006016
92 0.006016
51 0.00599
50 0.005981
72 0.005021
104 0.005024
122 0.004988
139 0.005025
142 0.005029
132 0.005031
121 0.006015
121 0.005999
136 0.006019
149 0.006023
160 0.006032
166 0.006018
169 0.005021
174 0.005029
179 0.005037
183 0.005023
188 0.005022
158 0.005033
75 0.004025
47 0.006017
71 0.006016
100 0.006023
122 0.005021
140 0.006014
149 0.00497
142 0.005031
132 0.005021
130 0.004981
133 0.004989
141 0.005018
157 0.00502
164 0.005041
173 0.005024
179 0.005024
185 0.005029
192 0.005022
186 0.005022
103 0.005028
46 0.005018
29 0.005032
44 0.005024
74 0.004988
103 0.005017
120 0.004969
128 0.005021
122 0.005039
115 0.004023
116 0.004026
122 0.003992
137 0.004999
147 0.00502
157 0.005017
164 0.004984
171 0.00499
179 0.005021
186 0.005022
180 0.005022
112 0.004022
54 0.004983
37 0.003999
52 0.004026
88 0.004019
108 0.003994
126 0.003995
138 0.004047
135 0.004021
124 0.004988
123 0.004974
133 0.004992
143 0.004984
153 0.005026
164 0.004028
171 0.004031
178 0.004022
183 0.004023
187 0.004003
190 0.004023
162 0.004019
77 0.005025
49 0.004988
71 0.005035
98 0.004016
121 0.004988
140 0.005024
149 0.005026
140 0.004034
130 0.003452
127 0.004022
133 0.003993
139 0.003064
152 0.004024
160 0.004023
171 0.004022
176 0.004025
182 0.003987
188 0.004024
151 0.00399
70 0.004021
49 0.003986
59 0.004023
85 0.00399
113 0.00403
135 0.003031
150 0.003991
144 0.003025
130 0.004045
129 0.003023
133 0.002994
141 0.004047
152 0.00399
162 0.004028
166 0.004014
173 0.004026
179 0.003003
184 0.003038
151 0.004024
55 0.00303
23 0.003018
39 0.002998
66 0.003023
90 0.003026
109 0.004002
124 0.004043
121 0.003956
114 0.003991
115 0.004044
131 0.004002
151 0.004005
164 0.004035
168 0.003956
169 0.003031
170 0.003019
174 0.003031
182 0.002993
182 0.004027
133 0.002994
81 0.004012
66 0.004019
76 0.001998
105 0.004017
124 0.00303
134 0.002994
130 0.003043
122 0.003001
114 0.002992
111 0.003019
118 0.003026
129 0.002992
137 0.002002
145 0.003061
152 0.003985
161 0.002993
169 0.002993
175 0.003025
136 0.002977
69 0.002992
34 0.002993
38 0.003031
70 0.002993
95 0.002993
116 0.002988
131 0.002996
132 0.002975
116 0.004034
109 0.002038
116 0.003017
125 0.002994
136 0.002993
144 0.00306
150 0.003024
159 0.002987
166 0.003005
171 0.002995
137 0.00306
77 0.001996
41 0.002992
60 0.002026
97 0.003026
120 0.001997
139 0.002993
145 0.00305
138 0.002992
125 0.002954
124 0.002982
131 0.002994
142 0.002992
152 0.001984
163 0.002992
172 0.003033
181 0.003
187 0.002028
147 0.001996
71 0.001995
30 0.001969
32 0.002027
56 0.001995
79 0.001996
97 0.001992
111 0.002012
113 0.002992
102 0.003029
100 0.002027
106 0.001996
114 0.001995
126 0.001993
137 0.002031
144 0.001995
152 0.002031
159 0.001995
165 0.001995
168 0.001995
103 0.002032
28 0.002046
26 0.001995
48 0.001014
76 0.002052
95 0.002022
109 0.001995
115 0.001992
108 0.001995
101 0.001992
102 0.001997
108 0.00197
119 0.002007
136 0.001961
144 0.001995
152 0.001995
160 0.001996
166 0.001999
168 0.000997
129 0.000999
48 0.000997
29 0.000997
42 0.002007
71 0.002062
98 0.001995
127 0.001995
131 0.002027
119 0.002044
110 0.001014
109 0.000998
117 0.000997
128 0.000999
141 0.001964
149 0.000968
157 0.002029
163 0.001998
170 0.000992
168 0.002035
113 0.000998
51 0.002009
47 0.001011
67 0.002001
92 0.000997
114 0.000999
136 0.000997
139 0.000999
129 0.000997
117 0.001995
117 0.000998
130 0.001996
142 0.000997
155 0.00201
163 0.001995
167 0.001996
173 0.001005
177 0.000998
114 0.001031
54 0.001004
34 0.000997
45 0.000997
70 0.000998
105 0.000998
122 0.000998
125 0.0
116 0.0
109 0.0
112 0.0
119 0.0
133 0.001004
143 0.000998
151 0.000996
157 0.000994
162 0.000998
171 0.0
151 0.0
61 0.000997
27 0.000997
28 0.001028
52 0.000997
78 0.000997
101 0.000998
114 0.000985
115 0.000998
110 0.0
106 0.0
113 0.0
122 0.0
134 0.0
144 0.0
152 0.0
157 0.000993
160 0.0
169 0.000998
153 0.0
88 0.0
40 0.0
31 0.0
67 0.0
97 0.000986
112 0.0
122 0.0
120 0.0
110 0.0
105 0.0
113 0.000998
122 0.0
133 0.000998
143 0.0
154 0.0
164 0.0
172 0.0
179 0.0
168 0.0
109 0.0
57 0.0
43 0.000997
56 0.0
90 0.000999
112 0.002004
134 0.0
136 0.0
121 0.0
114 0.0
122 0.0
132 0.000999
142 0.000998
155 0.0
161 0.0
165 0.000997
174 0.000997
178 0.000998
113 0.0
67 0.000986
41 0.0
65 0.0
89 0.0
108 0.000998
122 0.000981
127 0.0
116 0.0
109 0.0
111 0.000997
118 0.000989
128 0.000997
139 0.000998
154 0.0
161 0.0
165 0.0
173 0.002025
165 0.002042
74 0.0
28 0.0
25 0.0
45 0.001046
71 0.001028
94 0.0
103 0.000998
109 0.0
106 0.000997
101 0.000967
105 0.002019
114 0.000998
124 0.000998
134 0.000998
145 0.001
153 0.001995
157 0.002041
166 0.0
169 0.0
174 0.001032
108 0.0
62 0.000993
25 0.001999
39 0.001995
69 0.0
90 0.0
103 0.0
110 0.000997
109 0.002028
102 0.0
99 0.0
110 0.0
123 0.0
137 0.0
146 0.001997
155 0.001995
162 0.000966
169 0.0
171 0.0
178 0.002004
183 0.002029
191 0.0
176 0.0
65 0.0
43 0.000999
51 0.0
76 0.001034
99 0.000986
118 0.000983
132 0.0
130 0.0
120 0.001001
112 0.000965
117 0.002044
124 0.001051
144 0.001005
152 0.001029
159 0.001009
161 0.002028
169 0.002025
176 0.000993
181 0.000966
182 0.000998
137 0.001995
74 0.001995
45 0.001031
61 0.002036
106 0.00103
128 0.000992
144 0.000999
149 0.002034
142 0.001985
129 0.000995
129 0.000993
136 0.000994
146 0.000992
157 0.002033
166 0.002029
174 0.000953
181 0.001996
188 0.000997
195 0.00099
168 0.001002
94 0.00298
43 0.002965
36 0.001009
59 0.000998
85 0.001993
104 0.001995
119 0.002003
126 0.000998
116 0.001985
110 0.002017
115 0.001963
125 0.001986
137 0.001995
146 0.001996
160 0.000972
168 0.002032
172 0.000983
179 0.003067
183 0.00298
115 0.000996
46 0.002978
43 0.000999
67 0.001007
92 0.000997
111 0.001977
126 0.002025
131 0.002038
123 0.002025
116 0.00203
116 0.003029
124 0.002992
137 0.000997
150 0.003027
160 0.000995
166 0.000998
174 0.002011
180 0.002029
182 0.002032
116 0.002003
60 0.002032
46 0.002025
60 0.003025
84 0.002992
116 0.00103
140 0.003026
143 0.000983
130 0.000997
120 0.000998
123 0.002993
131 0.003989
144 0.001993
154 0.001956
162 0.001962
167 0.003025
172 0.002989
181 0.001989
130 0.003023
52 0.002009
36 0.002003
51 0.001995
78 0.002989
104 0.003023
134 0.002002
145 0.001996
141 0.001958
128 0.003989
120 0.003989
128 0.001985
140 0.003025
152 0.002014
159 0.002008
166 0.002013
173 0.002992
180 0.003027
155 0.00202
83 0.001996
34 0.001998
28 0.004023
49 0.004029
81 0.002998
106 0.004018
120 0.001963
116 0.002005
109 0.001998
105 0.004022
108 0.003025
121 0.003014
132 0.003023
143 0.002992
151 0.003987
158 0.004045
165 0.002028
175 0.004025
178 0.002001
129 0.001961
59 0.002025
28 0.004031
36 0.003027
72 0.002993
97 0.002994
115 0.002989
127 0.003989
127 0.004019
114 0.003029
109 0.003991
116 0.004989
131 0.003023
140 0.001992
149 0.003002
156 0.00494
163 0.00399
168 0.003
174 0.002997
180 0.002027
142 0.004015
76 0.003989
43 0.004002
63 0.004039
100 0.00301
120 0.003021
140 0.001987
145 0.003972
134 0.004995
119 0.002991
121 0.002992
127 0.002992
135 0.003989
145 0.005981
158 0.00403
166 0.00398
175 0.002989
183 0.002989
177 0.004031
116 0.00498
59 0.004985
45 0.002991
68 0.00299
93 0.002993
115 0.004976
133 0.004987
140 0.004022
128 0.004988
115 0.003988
118 0.003991
128 0.003993
140 0.004989
148 0.004986
159 0.003024
166 0.002976
171 0.00302
177 0.005018
169 0.004987
56 0.004023
24 0.004984
36 0.001994
64 0.004013
90 0.003989
106 0.004992
118 0.004992
117 0.003987
107 0.00403
104 0.004023
110 0.004987
118 0.004989
136 0.004984
147 0.005949
157 0.004025
162 0.00398
168 0.003946
174 0.004987
178 0.004987
112 0.003972
47 0.003993
25 0.003978
39 0.004986
68 0.004987
107 0.004981
120 0.004988
123 0.00298
116 0.003969
107 0.003989
108 0.005986
116 0.005984
130 0.003987
140 0.003994
151 0.00398
157 0.005984
163 0.006028
174 0.004955
178 0.005953
170 0.003957
109 0.00399
53 0.004
35 0.005985
50 0.006018
86 0.003945
109 0.003999
129 0.004
136 0.005027
131 0.004992
113 0.004969
114 0.006002
126 0.003998
137 0.003982
148 0.003995
155 0.00599
160 0.005988
167 0.003987
175 0.003995
181 0.00401
143 0.004976
74 0.007035
34 0.004973
54 0.00598
90 0.003986
113 0.004979
133 0.004986
139 0.00598
132 0.006016
118 0.004026
117 0.00399
124 0.003991
135 0.00602
148 0.00701
160 0.004984
165 0.005931
172 0.004985
177 0.004991
182 0.004985
186 0.005995
172 0.006028
98 0.005984
24 0.003987
18 0.00401
38 0.003983
68 0.006982
97 0.00499
110 0.006977
110 0.006979
103 0.004986
98 0.005019
101 0.004986
111 0.005984
123 0.006017
138 0.004985
148 0.004997
156 0.00502
161 0.005985
171 0.003992
177 0.006983
180 0.006986
118 0.004987
52 0.00499
29 0.004989
39 0.006036
69 0.00701
101 0.004988
120 0.00499
132 0.004951
129 0.006014
113 0.004006
112 0.006978
119 0.006978
133 0.004985
144 0.004971
156 0.004986
165 0.006981
171 0.006993
178 0.004969
181 0.004983
187 0.00497
192 0.006981
149 0.004976
80 0.005949
46 0.005985
55 0.00599
80 0.005981
107 0.006023
128 0.007013
143 0.006996
144 0.00497
133 0.005016
124 0.004976
124 0.006982
137 0.005
150 0.007949
163 0.007968
169 0.005984
177 0.005983
181 0.005951
188 0.006937
188 0.007022
108 0.006032
49 0.005954
34 0.004991
48 0.006982
92 0.004987
111 0.006972
131 0.007977
132 0.005009
121 0.005982
113 0.005965
115 0.007016
122 0.006989
135 0.005986
146 0.006015
154 0.004979
161 0.006978
170 0.004951
177 0.007979
167 0.007975
98 0.005982
41 0.00599
24 0.005975
40 0.008016
71 0.006952
101 0.005984
118 0.007003
128 0.005988
121 0.007962
111 0.005933
112 0.007943
120 0.007977
135 0.005976
143 0.005946
151 0.005963
160 0.007954
164 0.007956
171 0.005868
178 0.005022
148 0.00598
79 0.007979
32 0.006995
49 0.007978
87 0.007976
110 0.005994
129 0.006002
137 0.005993
124 0.007985
118 0.00798
114 0.00597
119 0.006981
127 0.005982
137 0.006983
153 0.006926
161 0.006976
167 0.007979
174 0.007931
164 0.006999
106 0.006982
56 0.006018
44 0.007979
69 0.007977
94 0.00599
115 0.006017
135 0.006014
135 0.006968
117 0.006945
114 0.007012
119 0.007016
130 0.006985
143 0.00695
149 0.007023
159 0.006953
166 0.007974
171 0.006967
160 0.006994
96 0.00703
28 0.006954
37 0.006992
71 0.006985
94 0.007009
116 0.006977
121 0.006969
119 0.006977
107 0.007024
103 0.007016
112 0.006977
116 0.006966
128 0.006963
145 0.007019
151 0.006971
156 0.007947
163 0.007967
102 0.007068
40 0.006982
18 0.00697
28 0.007012
53 0.007034
83 0.006948
99 0.006971
109 0.006948
106 0.006991
99 0.006984
103 0.007011
110 0.006973
125 0.006017
135 0.006993
143 0.00698
148 0.006986
154 0.007015
160 0.006966
163 0.006969
131 0.00698
36 0.006981
25 0.005983
53 0.007027
77 0.007024
100 0.005993
111 0.005943
114 0.006948
108 0.007021
102 0.007018
105 0.00697
115 0.006963
124 0.006951
142 0.006948
151 0.006981
157 0.007013
161 0.006025
165 0.00597
145 0.006023
85 0.005984
43 0.006016
43 0.005986
74 0.005978
101 0.006933
120 0.006979
141 0.006982
132 0.006968
119 0.007014
117 0.006014
124 0.006017
134 0.005978
144 0.005951
153 0.005985
160 0.005971
166 0.005944
172 0.006001
179 0.006944
136 0.006972
47 0.006982
28 0.006046
40 0.007017
74 0.006019
93 0.006008
109 0.006061
116 0.006019
113 0.006039
107 0.006018
106 0.006037
110 0.005986
130 0.005984
140 0.005984
148 0.006018
154 0.005015
160 0.006983
165 0.006
169 0.006041
138 0.005983
67 0.006015
22 0.006019
28 0.005987
55 0.005981
89 0.005982
103 0.006001
113 0.006018
112 0.005984
107 0.005984
108 0.004988
116 0.004987
124 0.006028
136 0.006037
146 0.006036
155 0.006023
160 0.006017
170 0.005022
176 0.006029
179 0.006017
139 0.006024
69 0.004988
31 0.006053
45 0.00502
73 0.004988
99 0.004952
116 0.004986
129 0.005951
126 0.004986
112 0.005985
112 0.005984
120 0.005987
133 0.005956
144 0.006038
155 0.005944
162 0.005951
169 0.005047
173 0.005027
182 0.004988
176 0.00502
120 0.004944
51 0.004011
59 0.005021
84 0.005021
110 0.006028
134 0.003988
152 0.005972
149 0.004034
139 0.005014
130 0.005023
132 0.005035
145 0.005022
157 0.005025
171 0.005023
177 0.005026
183 0.004974
187 0.004958
192 0.004988
149 0.005034
76 0.004956
38 0.00399
42 0.004996
69 0.004993
101 0.005033
118 0.00496
136 0.004955
131 0.004986
123 0.00505
122 0.004988
128 0.004989
142 0.004997
152 0.004987
160 0.004989
168 0.004988
175 0.003992
183 0.004029
189 0.004026
112 0.005034
52 0.003995
38 0.004047
57 0.004012
83 0.003989
114 0.005014
130 0.004986
137 0.005019
135 0.005019
126 0.00502
123 0.004022
130 0.004043
147 0.004021
155 0.003991
162 0.003992
170 0.004021
176 0.00405
188 0.004033
194 0.003956
162 0.003024
93 0.004989
55 0.005021
62 0.004017
87 0.004033
126 0.003939
146 0.004022
153 0.004027
144 0.004033
132 0.003935
128 0.003992
135 0.004022
146 0.003991
156 0.00399
165 0.005035
174 0.004028
179 0.003991
188 0.004027
144 0.004056
77 0.003958
46 0.003959
52 0.003956
84 0.003941
109 0.003951
132 0.004024
147 0.004049
143 0.004043
127 0.003927
120 0.003989
126 0.003992
136 0.003982
149 0.004013
160 0.00402
167 0.005019
174 0.003989
183 0.004032
190 0.004029
161 0.002994
79 0.00403
30 0.002992
29 0.004026
63 0.004044
93 0.003991
108 0.003997
118 0.004021
118 0.004035
110 0.003
107 0.004044
113 0.002993
123 0.004023
135 0.004051
147 0.003044
158 0.00399
168 0.004
176 0.003998
184 0.002992
184 0.004023
127 0.003991
60 0.002992
37 0.00298
54 0.002993
83 0.003
107 0.00399
125 0.002994
137 0.004011
128 0.002993
118 0.002992
119 0.002999
125 0.004044
135 0.00399
146 0.003026
158 0.003003
166 0.003001
173 0.003008
177 0.00304
182 0.002992
188 0.00404
118 0.002992
48 0.002993
43 0.001994
64 0.003989
92 0.001995
116 0.001996
145 0.001995
148 0.002991
137 0.002991
126 0.002993
123 0.002992
132 0.001996
146 0.002992
162 0.003025
168 0.001996
174 0.001995
184 0.001983
192 0.001984
154 0.002046
90 0.001995
56 0.002993
56 0.003034
78 0.002963
115 0.003025
145 0.00299
154 0.003022
145 0.002041
134 0.002976
130 0.002986
134 0.001995
149 0.001995
159 0.002011
167 0.002017
175 0.001995
179 0.001995
188 0.003014
140 0.00306
48 0.002985
29 0.003003
42 0.001996
71 0.002032
96 0.002036
120 0.002031
130 0.001996
125 0.001995
115 0.002062
112 0.002036
117 0.001997
132 0.002
147 0.001995
155 0.003026
163 0.002992
170 0.002994
179 0.002038
159 0.002056
86 0.001995
38 0.001996
29 0.002028
49 0.001989
85 0.002004
112 0.002027
129 0.002001
125 0.002029
114 0.001001
108 0.000997
112 0.000999
123 0.001996
135 0.001964
145 0.001995
154 0.00205
158 0.002025
161 0.002019
174 0.001996
167 0.002027
78 0.000998
31 0.000998
26 0.001003
49 0.000997
77 0.000997
107 0.000998
126 0.001995
128 0.001995
117 0.001009
107 0.002024
110 0.001996
120 0.001995
135 0.001995
144 0.001022
153 0.001993
160 0.001001
163 0.000995
173 0.001039
164 0.001049
105 0.000998
55 0.000997
44 0.000998
81 0.001995
110 0.000999
141 0.002007
154 0.002026
148 0.000998
133 0.002038
124 0.000965
128 0.000997
137 0.000998
148 0.000999
157 0.000996
167 0.000998
177 0.001033
183 0.001006
156 0.001995
83 0.001997
38 0.002042
33 0.000989
55 0.000998
90 0.00101
109 0.000997
125 0.000997
129 0.000998
118 0.001108
105 0.000998
109 0.00098
121 0.002048
131 0.0
141 0.00202
148 0.000999
156 0.000998
163 0.000978
169 0.000998
167 0.001002
104 0.001003
38 0.000998
21 0.000959
48 0.000963
83 0.000997
100 0.000997
115 0.0
116 0.0
110 0.0
102 0.0
106 0.0
116 0.0
127 0.000997
138 0.000998
152 0.000968
159 0.000997
167 0.000997
173 0.0
176 0.0
138 0.0
66 0.0
27 0.0
42 0.0
71 0.0
98 0.0
117 0.0
132 0.000998
122 0.0
108 0.001003
109 0.000997
115 0.000997
127 0.0
138 0.0
149 0.0
154 0.0
160 0.0
165 0.0
172 0.0
156 0.0
90 0.0
41 0.0
49 0.0
74 0.001007
104 0.0
129 0.0
151 0.0
145 0.0
131 0.0
122 0.0
123 0.0
139 0.0
149 0.0
163 0.0
169 0.000998
176 0.0
179 0.001
185 0.000998
132 0.000977
57 0.000998
25 0.0
39 0.0
56 0.0
102 0.0
113 0.0
121 0.0
112 0.002028
104 0.0
104 0.0
112 0.0
121 0.0
134 0.002046
146 0.00204
153 0.0
159 0.0
168 0.0
174 0.0
158 0.0
84 0.002027
29 0.002041
22 0.0
47 0.0
75 0.0
96 0.002035
111 0.002043
116 0.0
109 0.0
102 0.0
107 0.000956
114 0.000977
129 0.001999
142 0.001029
152 0.000965
157 0.0
162 0.0
170 0.002051
175 0.00203
180 0.0
165 0.0
51 0.000961
26 0.000974
38 0.0
69 0.002043
97 0.002027
121 0.000965
134 0.0
131 0.0
119 0.002061
110 0.002045
115 0.0
124 0.0
145 0.0
155 0.0
163 0.0
169 0.001031
176 0.001032
182 0.000998
186 0.000997
189 0.000997
191 0.000999
143 0.002041
60 0.0
43 0.0
79 0.0
109 0.0
131 0.000997
149 0.00203
152 0.002028
136 0.000945
125 0.0
126 0.000959
132 0.002019
144 0.00101
160 0.000941
168 0.0
179 0.001
183 0.0
188 0.0
193 0.002002
183 0.001997
88 0.0
43 0.0
35 0.0
58 0.002004
86 0.002028
117 0.0
133 0.000999
132 0.0
122 0.0
114 0.0
116 0.002046
125 0.001995
140 0.0
151 0.0
159 0.0
165 0.002055
170 0.001996
178 0.0
185 0.000938
120 0.000947
50 0.000967
26 0.0
36 0.001995
65 0.002031
100 0.002041
117 0.0
128 0.001992
126 0.002999
116 0.002041
110 0.001981
114 0.001994
126 0.003024
144 0.001997
153 0.002002
160 0.002966
168 0.003027
172 0.002992
181 0.003006
184 0.002028
138 0.001994
67 0.001995
36 0.001995
52 0.0
91 0.001903
120 0.001039
136 0.001982
140 0.001987
131 0.002993
119 0.002991
120 0.001984
127 0.001986
138 0.001994
149 0.002993
156 0.001994
165 0.001998
171 0.001995
182 0.001034
183 0.000994
161 0.002993
77 0.003017
48 0.003027
62 0.001997
90 0.001993
117 0.001944
137 0.002992
152 0.003027
144 0.001962
126 0.001995
125 0.001997
135 0.00104
145 0.001055
155 0.003022
165 0.003028
173 0.001033
177 0.000987
186 0.001995
190 0.003025
141 0.003986
55 0.003003
38 0.003024
68 0.002012
95 0.001983
114 0.001029
131 0.003047
136 0.003033
121 0.002004
112 0.001002
115 0.002011
122 0.004029
132 0.004031
149 0.002989
157 0.003989
164 0.002014
171 0.00203
175 0.001999
168 0.002992
104 0.002992
30 0.001996
25 0.000992
49 0.001983
78 0.003989
98 0.004022
116 0.003054
120 0.003988
108 0.000985
102 0.002
108 0.00199
117 0.002988
128 0.002982
143 0.002008
151 0.001994
155 0.001999
162 0.004023
168 0.003989
161 0.001996
77 0.003989
28 0.001978
36 0.00199
63 0.001996
89 0.004023
107 0.003026
123 0.002964
120 0.001988
110 0.002012
103 0.00399
106 0.004022
117 0.002026
131 0.00402
143 0.001998
149 0.001996
153 0.001985
158 0.003989
164 0.003982
175 0.001014
150 0.00298
82 0.002939
42 0.004986
42 0.003993
73 0.003006
106 0.003992
129 0.001998
134 0.002025
124 0.001961
112 0.004016
107 0.00399
118 0.001994
128 0.00199
139 0.002963
148 0.005019
153 0.004987
163 0.00199
171 0.004021
176 0.004022
145 0.001997
78 0.001991
41 0.001985
44 0.00402
70 0.004023
105 0.001996
124 0.002994
139 0.002992
136 0.004985
124 0.00499
113 0.003985
120 0.003989
135 0.002003
146 0.003023
156 0.00199
165 0.00504
169 0.004989
175 0.002989
178 0.002991
188 0.002984
187 0.004987
124 0.004986
32 0.005022
32 0.00404
66 0.002024
90 0.002993
105 0.002022
117 0.004986
119 0.004987
106 0.002958
99 0.002001
101 0.00298
109 0.004945
121 0.005029
143 0.004987
151 0.005021
159 0.002027
167 0.00298
172 0.002044
175 0.005051
180 0.004986
133 0.002989
61 0.002985
28 0.00294
36 0.004976
64 0.004981
107 0.004984
123 0.005024
133 0.002998
127 0.00298
116 0.003027
113 0.004986
119 0.004986
134 0.001995
144 0.003989
154 0.00399
160 0.005983
165 0.006015
176 0.005982
180 0.004981
188 0.002994
175 0.003989
109 0.003991
56 0.005019
44 0.004986
74 0.003975
103 0.003974
125 0.003971
143 0.005983
151 0.005992
135 0.005984
129 0.006017
138 0.003975
147 0.003019
157 0.003007
164 0.004986
167 0.004963
167 0.002993
169 0.003049
176 0.003038
180 0.00601
140 0.005987
44 0.005984
36 0.006017
67 0.00399
95 0.003999
116 0.004009
135 0.004987
141 0.004986
129 0.002975
121 0.00399
120 0.003984
128 0.006018
140 0.005941
159 0.005983
166 0.006008
171 0.003992
177 0.003979
181 0.003973
144 0.005984
68 0.007005
22 0.005002
31 0.004993
59 0.003978
86 0.00594
103 0.005956
119 0.003988
117 0.00594
108 0.003986
108 0.003988
114 0.003958
125 0.006014
137 0.006019
151 0.00399
158 0.003984
163 0.003989
170 0.006982
160 0.006981
93 0.006981
24 0.005987
34 0.005984
72 0.003981
91 0.003989
106 0.003987
118 0.007022
119 0.006984
108 0.004985
105 0.00499
110 0.004981
119 0.006972
131 0.00696
148 0.00598
155 0.006981
164 0.004987
171 0.004985
146 0.003978
79 0.006981
40 0.006981
46 0.004985
74 0.004992
101 0.004981
121 0.006984
136 0.006981
132 0.006981
123 0.006985
120 0.004992
127 0.006001
137 0.004988
148 0.006982
157 0.006971
164 0.005978
171 0.00499
178 0.004985
181 0.006982
140 0.006965
52 0.006982
52 0.007018
87 0.004996
113 0.005012
134 0.005983
151 0.007973
140 0.007994
128 0.004973
119 0.005019
123 0.004026
133 0.006971
141 0.006979
157 0.007032
166 0.007018
171 0.005
181 0.004979
173 0.004987
115 0.006981
65 0.006982
59 0.005021
82 0.005985
110 0.004986
135 0.007975
156 0.007967
152 0.006978
137 0.007949
131 0.004974
136 0.005958
145 0.005018
154 0.00702
163 0.007012
172 0.005021
178 0.004987
184 0.004998
169 0.007017
98 0.006981
33 0.007972
52 0.007992
83 0.005983
108 0.005986
127 0.006016
136 0.007935
133 0.007975
118 0.005984
116 0.005989
122 0.00498
131 0.006942
142 0.006976
155 0.007971
161 0.006982
169 0.005977
176 0.005983
171 0.00598
83 0.007976
33 0.007994
27 0.005985
49 0.005986
79 0.005988
103 0.007976
121 0.006958
129 0.007996
117 0.006986
112 0.005981
116 0.006017
125 0.005985
137 0.007969
150 0.007997
157 0.005975
164 0.00599
169 0.005967
178 0.007019
182 0.006988
166 0.007981
92 0.007016
40 0.006983
34 0.005968
57 0.005974
95 0.007977
111 0.007976
135 0.005981
138 0.005985
127 0.00595
112 0.007977
111 0.007979
123 0.006982
137 0.006982
148 0.00698
157 0.006011
162 0.005998
169 0.005999
175 0.008023
182 0.007942
161 0.006953
95 0.005983
51 0.005986
52 0.007973
91 0.00602
125 0.007939
147 0.007948
154 0.006949
148 0.006978
129 0.006949
125 0.007015
131 0.006981
146 0.006974
155 0.006981
165 0.006963
171 0.007012
181 0.006949
184 0.00799
192 0.007087
174 0.00694
71 0.00693
38 0.00694
29 0.006982
55 0.006982
94 0.006981
107 0.006983
126 0.006982
128 0.006982
111 0.006983
108 0.005981
112 0.005987
124 0.006982
136 0.006982
143 0.006959
155 0.007001
162 0.007016
168 0.006013
173 0.006992
177 0.006949
167 0.007014
51 0.00695
25 0.006021
35 0.006019
75 0.005986
99 0.006951
115 0.005949
128 0.007014
126 0.007026
111 0.00698
107 0.006974
111 0.006976
121 0.00699
135 0.006975
149 0.006951
156 0.006981
163 0.005967
169 0.005956
174 0.005942
179 0.005953
147 0.006034
60 0.006018
35 0.005972
47 0.005985
72 0.006019
106 0.00698
129 0.006989
134 0.006982
120 0.00595
107 0.005983
105 0.00608
113 0.005985
124 0.006019
140 0.005981
151 0.00598
156 0.006013
162 0.005988
176 0.005982
174 0.006339
121 0.005984
46 0.00597
38 0.006001
58 0.005967
87 0.006014
112 0.006024
136 0.005977
139 0.005994
130 0.005993
120 0.004985
116 0.005987
125 0.005985
138 0.005946
152 0.006026
160 0.005931
166 0.005986
172 0.006021
177 0.006018
185 0.005021
163 0.006022
84 0.005996
29 0.005023
29 0.005028
60 0.004988
84 0.004987
99 0.004925
115 0.005944
113 0.004956
104 0.005987
98 0.005953
100 0.006047
111 0.005977
124 0.00598
137 0.005028
152 0.005022
157 0.005056
163 0.004961
167 0.005031
177 0.005985
157 0.004997
85 0.004946
31 0.005019
22 0.005021
52 0.005989
86 0.005944
110 0.00502
134 0.004987
131 0.004987
120 0.004989
111 0.004966
114 0.004992
122 0.005028
134 0.004979
143 0.005021
150 0.004029
157 0.004029
164 0.005013
170 0.004029
181 0.004987
153 0.005024
84 0.004995
43 0.004982
46 0.004988
72 0.00505
99 0.005019
118 0.004031
133 0.005019
133 0.004965
125 0.0
112 0.003991
120 0.004955
131 0.004994
143 0.005023
153 0.005031
161 0.004933
167 0.004953
172 0.004988
179 0.005055
162 0.004022
73 0.003997
37 0.003986
40 0.003995
85 0.004986
110 0.00399
130 0.003956
139 0.004986
129 0.004968
118 0.004988
115 0.005067
120 0.003974
130 0.003989
146 0.003985
155 0.003959
162 0.003953
174 0.004021
181 0.004982
185 0.004979
141 0.004988
46 0.005023
20 0.004954
31 0.004938
58 0.004031
81 0.004015
103 0.003987
114 0.00399
113 0.004021
101 0.004003
100 0.003958
108 0.004024
119 0.003991
136 0.004982
147 0.004034
154 0.003958
163 0.003989
175 0.003978
190 0.004029
178 0.004024
108 0.003992
32 0.005015
39 0.004019
66 0.004003
91 0.003989
113 0.004987
122 0.003992
119 0.003933
109 0.003957
101 0.003959
103 0.00299
115 0.003
129 0.002958
147 0.004053
155 0.003008
161 0.004027
168 0.004005
175 0.003974
164 0.003952
100 0.004017
48 0.004004
39 0.004029
69 0.002992
96 0.003024
118 0.003022
142 0.004026
139 0.004036
126 0.004029
119 0.003993
121 0.003989
134 0.00399
147 0.003954
158 0.003991
165 0.003955
173 0.00402
181 0.003989
186 0.003985
121 0.004029
53 0.002962
29 0.003992
39 0.004015
68 0.004015
100 0.003001
118 0.003024
128 0.004031
124 0.00399
115 0.002992
108 0.003959
115 0.003979
133 0.003952
146 0.002994
154 0.004033
159 0.00303
164 0.003026
171 0.002992
174 0.003028
165 0.002992
97 0.003052
36 0.002932
20 0.003034
43 0.002993
90 0.004022
106 0.003029
119 0.002986
120 0.002962
113 0.002992
105 0.002993
110 0.001993
119 0.002976
132 0.002992
143 0.003006
154 0.002991
161 0.002969
171 0.00299
177 0.003029
180 0.003003
162 0.003051
93 0.003026
34 0.001963
37 0.002029
65 0.003027
94 0.001995
113 0.002053
134 0.003
134 0.003025
113 0.002992
110 0.001971
117 0.002951
128 0.001995
142 0.001996
155 0.002026
162 0.001995
168 0.001992
174 0.001964
180 0.001995
188 0.002026
153 0.001997
60 0.003002
51 0.002018
70 0.002992
99 0.001995
125 0.001995
152 0.002026
158 0.001994
148 0.002993
134 0.002047
128 0.001026
136 0.001993
147 0.002019
167 0.002028
175 0.002058
182 0.001995
186 0.001996
190 0.002036
196 0.001996
146 0.002038
66 0.002039
31 0.002
34 0.002025
67 0.001996
94 0.002004
123 0.002028
130 0.001997
124 0.001995
113 0.001999
110 0.000987
117 0.001954
128 0.001991
141 0.002002
152 0.001995
161 0.001997
169 0.001999
176 0.001961
185 0.001995
190 0.001002
159 0.003025
77 0.000998
29 0.00204
25 0.001032
57 0.002011
85 0.002034
105 0.002052
121 0.001008
126 0.002001
118 0.001027
107 0.000998
115 0.000999
125 0.000998
138 0.000963
153 0.002047
164 0.001996
173 0.000997
179 0.001988
184 0.002024
189 0.002029
194 0.000998
136 0.001012
57 0.000999
47 0.00199
72 0.000999
101 0.001003
124 0.001969
144 0.001032
150 0.002031
137 0.000997
123 0.000998
119 0.00203
125 0.001995
142 0.0
159 0.0
169 0.000998
174 0.000998
183 0.000998
189 0.000987
186 0.000988
108 0.000998
54 0.002078
40 0.00198
56 0.001029
83 0.002021
115 0.0
139 0.000998
138 0.0
126 0.0
117 0.000998
117 0.001002
124 0.001035
139 0.000956
149 0.000998
157 0.000998
164 0.000997
170 0.000997
178 0.000944
177 0.001003
83 0.0
23 0.0
9 0.0
25 0.0
52 0.0
83 0.0
97 0.000973
105 0.001015
104 0.000982
96 0.000997
91 0.000997
99 0.000999
116 0.0
128 0.0
137 0.0
145 0.0
151 0.0
158 0.0
163 0.0
140 0.0
71 0.0
23 0.0
23 0.002983
60 0.000998
90 0.001007
109 0.000997
119 0.0
118 0.0
107 0.0
104 0.0
111 0.0
121 0.0
131 0.0
142 0.0
153 0.0
164 0.0
176 0.0
185 0.000997
173 0.000998
109 0.0
56 0.0
46 0.0
67 0.0
95 0.0
117 0.0
137 0.0
142 0.0
124 0.0
111 0.000997
116 0.0
131 0.0
140 0.000997
151 0.000998
161 0.0
170 0.001993
178 0.0
176 0.0
127 0.0
56 0.0
24 0.0
49 0.002028
76 0.002041
105 0.000952
121 0.0
125 0.0
118 0.002989
105 0.003023
104 0.00206
113 0.0
125 0.000958
136 0.0
149 0.0
157 0.0
162 0.002032
169 0.002006
171 0.016989
142 0.0
29 0.0
11 0.003026
26 0.001994
62 0.0
86 0.001002
103 0.0
111 0.0
103 0.000997
98 0.002026
99 0.002024
111 0.0
122 0.0
130 0.0
137 0.002026
146 0.002026
152 0.0
161 0.0
158 0.000955
62 0.0
25 0.001007
25 0.002994
49 0.002049
87 0.0
103 0.0
121 0.0
123 0.002027
115 0.001994
105 0.000999
110 0.0
119 0.0
137 0.000984
147 0.000967
153 0.00299
158 0.002001
167 0.0
170 0.0
135 0.0
75 0.001999
45 0.00203
56 0.0
81 0.0
106 0.0
136 0.0
138 0.0
128 0.002995
118 0.001964
116 0.001026
123 0.001019
135 0.0
146 0.002949
153 0.00205
166 0.00105
168 0.000965
167 0.0
88 0.000963
28 0.0
13 0.002043
28 0.002026
64 0.0
85 0.0
101 0.0
110 0.003036
107 0.001999
96 0.001006
94 0.001001
100 0.0
116 0.0
130 0.0
139 0.001978
147 0.002041
157 0.0
162 0.0
143 0.0
76 0.002033
27 0.002034
22 0.000989
46 0.0
72 0.0
102 0.001011
112 0.000953
112 0.002992
103 0.002
98 0.000966
103 0.0
112 0.0
124 0.002025
136 0.002002
146 0.001963
153 0.0
161 0.0
175 0.000982
159 0.0
92 0.002988
41 0.002993
36 0.0
59 0.0
86 0.0
105 0.003026
120 0.003041
128 0.0
122 0.0
113 0.001974
117 0.0
127 0.0
140 0.002027
152 0.003037
161 0.00203
169 0.00299
175 0.0
182 0.002028
189 0.001972
185 0.002992
108 0.001961
62 0.001996
67 0.001998
94 0.001993
118 0.000998
140 0.002993
154 0.002992
148 0.0
135 0.0
128 0.0
130 0.00302
138 0.003024
154 0.000997
165 0.002009
176 0.001996
180 0.001986
184 0.001979
187 0.003027
166 0.003028
76 0.00198
44 0.001994
48 0.001983
72 0.003038
99 0.002999
128 0.001984
143 0.001995
136 0.002024
128 0.001031
123 0.001996
128 0.00302
137 0.002985
153 0.002999
163 0.001996
171 0.002045
177 0.003032
183 0.004019
191 0.001998
172 0.001993
58 0.002034
31 0.002984
42 0.001983
68 0.003998
93 0.004018
118 0.001991
129 0.001995
128 0.001998
119 0.003026
110 0.003022
114 0.002993
124 0.002012
142 0.00198
152 0.001999
160 0.002031
166 0.004025
175 0.003991
182 0.001995
157 0.002
88 0.002983
44 0.003025
38 0.003023
71 0.000998
99 0.00299
131 0.002966
139 0.003001
134 0.00302
122 0.00299
118 0.003978
124 0.001988
134 0.001978
146 0.002003
156 0.003987
163 0.00398
172 0.001983
180 0.002001
167 0.001986
105 0.001976
60 0.001994
52 0.003982
71 0.00399
109 0.001996
132 0.001998
152 0.00199
155 0.004019
143 0.003993
130 0.003011
127 0.002008
141 0.001996
153 0.002962
163 0.001998
171 0.003987
176 0.003983
185 0.003016
171 0.002996
102 0.002006
46 0.003984
33 0.004998
57 0.001989
86 0.002997
119 0.002002
129 0.001994
128 0.001996
116 0.001986
107 0.003982
113 0.003003
121 0.001987
133 0.003008
142 0.003017
150 0.00499
156 0.004993
165 0.001986
164 0.005023
83 0.003959
33 0.002962
22 0.001974
41 0.006012
69 0.004983
98 0.003014
113 0.002997
121 0.002037
114 0.004988
104 0.004987
104 0.001993
114 0.004986
127 0.002994
139 0.002042
149 0.00299
156 0.004987
165 0.005003
173 0.003027
149 0.003023
82 0.002994
41 0.004979
38 0.004994
70 0.002991
103 0.004962
127 0.002988
135 0.002985
126 0.002994
115 0.004989
111 0.004988
120 0.001996
131 0.002979
143 0.002933
151 0.005982
160 0.004985
171 0.002977
182 0.004987
156 0.002994
93 0.00298
54 0.001995
52 0.005004
70 0.004987
106 0.002994
128 0.002992
143 0.002995
143 0.005985
131 0.005985
117 0.002993
124 0.005023
137 0.002988
150 0.002994
160 0.002991
166 0.00498
172 0.006006
181 0.00399
148 0.003991
76 0.003025
34 0.00599
33 0.005988
63 0.002995
96 0.006034
114 0.002975
120 0.003961
115 0.002962
107 0.005008
106 0.005919
113 0.003989
123 0.003987
133 0.003991
143 0.005981
150 0.006003
159 0.003991
166 0.005984
118 0.002973
51 0.002987
21 0.002986
27 0.005981
55 0.006987
87 0.003995
106 0.003993
116 0.003928
114 0.005973
107 0.005973
104 0.003846
112 0.006017
125 0.00299
134 0.003965
144 0.002984
154 0.005954
162 0.005962
173 0.004006
170 0.003989
119 0.003985
58 0.006981
34 0.005988
54 0.004022
91 0.005948
115 0.003989
127 0.005008
126 0.002991
120 0.003972
112 0.006983
113 0.006951
125 0.004002
137 0.004012
148 0.003992
157 0.006998
165 0.00705
176 0.006981
181 0.006979
140 0.004971
78 0.003996
50 0.00399
58 0.005997
84 0.007018
115 0.004987
137 0.00399
151 0.004987
146 0.006947
133 0.006981
123 0.006996
128 0.00698
144 0.00499
155 0.004956
162 0.004994
169 0.006949
177 0.006969
179 0.004987
134 0.004933
65 0.005951
37 0.00698
43 0.006981
85 0.006982
106 0.006983
129 0.004986
129 0.004986
119 0.004962
108 0.007983
110 0.007981
120 0.004986
130 0.004933
140 0.00502
150 0.006982
158 0.006985
168 0.00702
172 0.006982
103 0.005038
42 0.005955
24 0.004996
45 0.007959
63 0.007969
94 0.00502
109 0.004986
119 0.004986
115 0.007014
107 0.006999
108 0.007978
115 0.006981
129 0.005022
140 0.004997
149 0.004993
159 0.007973
171 0.00794
187 0.006016
187 0.004982
129 0.00502
60 0.007965
34 0.007951
58 0.007969
91 0.007945
111 0.005019
124 0.005983
126 0.004994
119 0.006972
112 0.007969
116 0.005992
126 0.00595
138 0.005984
153 0.007953
163 0.007966
175 0.007982
182 0.007945
188 0.004979
168 0.005984
102 0.004979
52 0.007964
58 0.006953
83 0.005982
109 0.005989
131 0.00599
151 0.006974
147 0.007945
124 0.007955
122 0.007977
130 0.004956
140 0.005945
151 0.00598
166 0.006982
175 0.006982
184 0.005965
192 0.005986
183 0.00597
95 0.007974
60 0.007979
57 0.007965
85 0.007972
106 0.00496
123 0.006017
136 0.006002
134 0.00702
126 0.007001
126 0.005985
131 0.005984
142 0.005974
154 0.007978
169 0.007949
181 0.00698
189 0.007974
195 0.007974
177 0.006029
103 0.005985
47 0.006948
36 0.00696
60 0.00698
88 0.005948
109 0.005958
127 0.005985
134 0.006987
126 0.00599
120 0.007975
123 0.007973
137 0.00697
148 0.006979
156 0.00695
167 0.006983
176 0.00698
185 0.006976
189 0.005988
168 0.006977
75 0.00695
36 0.006015
54 0.006989
83 0.006986
109 0.005977
122 0.005972
129 0.005967
120 0.007021
109 0.007016
104 0.006034
108 0.005972
124 0.006016
141 0.006941
158 0.005955
166 0.006017
175 0.006032
183 0.006973
177 0.006986
121 0.006929
55 0.006007
49 0.006983
77 0.005974
104 0.00598
128 0.00598
146 0.006014
140 0.005985
126 0.006017
121 0.004992
124 0.005977
134 0.005992
145 0.005966
155 0.006991
162 0.007017
171 0.006978
175 0.005989
138 0.005981
67 0.005975
26 0.005963
44 0.00602
72 0.006035
104 0.005985
111 0.010016
131 0.00397
123 0.006033
113 0.006026
111 0.006901
120 0.005945
131 0.006014
141 0.005972
153 0.005983
160 0.006023
165 0.005987
128 0.005949
55 0.005976
18 0.005965
16 0.005984
40 0.006046
75 0.005983
91 0.006003
104 0.005982
107 0.007024
95 0.004988
92 0.006941
96 0.004988
110 0.005989
121 0.006006
130 0.005993
138 0.005982
146 0.00603
155 0.005988
133 0.006034
67 0.00498
25 0.006016
35 0.004949
62 0.006018
88 0.005021
112 0.00499
117 0.004989
111 0.005
102 0.006013
98 0.005985
106 0.005977
117 0.006014
128 0.004971
139 0.005985
153 0.004989
159 0.005018
162 0.005025
114 0.005005
61 0.004968
42 0.004977
52 0.004988
76 0.005025
101 0.006032
131 0.005996
140 0.004984
130 0.005984
113 0.004989
114 0.004959
122 0.005044
132 0.004986
148 0.004984
156 0.004955
162 0.004991
168 0.004933
153 0.00498
71 0.005983
28 0.00598
27 0.004937
68 0.005004
93 0.005991
110 0.005037
119 0.005093
114 0.004979
108 0.005042
104 0.004953
110 0.004954
119 0.004938
134 0.004986
143 0.004986
150 0.004987
162 0.003988
166 0.004986
122 0.004956
53 0.003954
20 0.00399
34 0.003991
60 0.004984
84 0.005058
102 0.005022
114 0.005003
113 0.005014
107 0.004957
105 0.00484
112 0.003959
120 0.005004
134 0.003988
148 0.003964
155 0.003995
161 0.003979
168 0.003955
172 0.003955
120 0.004997
58 0.004988
32 0.005003
58 0.004956
85 0.004987
104 0.003988
121 0.004027
122 0.003973
112 0.003987
107 0.004953
107 0.004988
119 0.004024
133 0.003969
139 0.002956
148 0.005007
158 0.004002
164 0.004019
173 0.00404
159 0.004025
77 0.004002
48 0.003987
52 0.003991
75 0.003989
102 0.00394
133 0.003949
148 0.004012
143 0.003952
126 0.003988
122 0.00395
129 0.004955
139 0.004031
154 0.004012
162 0.003957
167 0.003995
172 0.004029
178 0.004031
172 0.003981
104 0.004956
46 0.003989
37 0.003952
63 0.003033
91 0.002992
111 0.003033
127 0.004028
126 0.003958
116 0.003989
108 0.003991
112 0.004001
123 0.004482
133 0.004037
141 0.004023
155 0.004001
162 0.003022
167 0.002992
172 0.004014
150 0.003946
75 0.004002
32 0.004015
29 0.003957
51 0.003982
87 0.004035
105 0.005031
120 0.003029
119 0.002991
109 0.002978
104 0.002994
109 0.002992
118 0.002992
133 0.002997
144 0.003975
154 0.003966
160 0.003992
165 0.00399
173 0.003986
177 0.003024
96 0.002992
41 0.002959
29 0.002992
47 0.003026
78 0.003026
109 0.002979
128 0.002956
136 0.003008
131 0.003024
120 0.002027
118 0.002993
124 0.004023
140 0.003992
151 0.002025
160 0.003956
168 0.003006
172 0.003
178 0.002993
185 0.002993
186 0.002993
145 0.002993
78 0.003023
49 0.003027
63 0.002991
111 0.001996
134 0.001991
154 0.001961
160 0.002038
146 0.002034
129 0.002956
128 0.003013
135 0.002046
146 0.002981
158 0.003045
168 0.003019
174 0.003003
183 0.001992
190 0.002986
181 0.002992
112 0.001989
49 0.001993
36 0.002025
58 0.001996
84 0.001993
108 0.002001
128 0.002039
136 0.002993
128 0.001984
114 0.003012
118 0.002952
126 0.002982
136 0.002
148 0.001995
159 0.001957
164 0.001967
168 0.002008
174 0.002058
178 0.001989
183 0.002001
146 0.002039
37 0.001961
25 0.001987
42 0.000997
73 0.000998
98 0.002024
120 0.00105
129 0.002031
124 0.001995
116 0.002004
111 0.001965
117 0.002006
125 0.002029
145 0.001908
153 0.001977
160 0.002025
165 0.00099
169 0.002026
177 0.001992
177 0.001993
129 0.000998
60 0.002038
33 0.002029
49 0.001957
80 0.001978
119 0.001987
135 0.001988
140 0.002986
135 0.001012
129 0.002027
136 0.001031
143 0.001984
152 0.002012
162 0.001951
173 0.002983
184 0.003004
191 0.001997
198 0.001994
203 0.001994
190 0.001996
126 0.002047
70 0.001995
56 0.000996
76 0.000997
104 0.000957
129 0.0
150 0.001993
160 0.001995
145 0.002004
125 0.001994
123 0.001995
132 0.001995
142 0.002041
152 0.000998
160 0.001028
169 0.002003
176 0.000998
183 0.001993
150 0.001996
79 0.001996
34 0.001998
49 0.002031
89 0.002046
111 0.002028
130 0.001992
139 0.000954
135 0.000998
120 0.000983
116 0.000999
122 0.000964
133 0.000998
144 0.002031
156 0.000997
166 0.001045
174 0.002012
171 0.001961
114 0.0
48 0.0
24 0.0
40 0.001995
68 0.000954
92 0.000997
109 0.000998
120 0.000997
117 0.000997
105 0.000999
103 0.000998
110 0.000997
122 0.00204
133 0.000998
141 0.000997
148 0.0
157 0.0
161 0.0
129 0.0
63 0.000997
22 0.001005
38 0.000998
73 0.000985
95 0.000998
111 0.000998
118 0.0
113 0.0
103 0.0
103 0.0
110 0.0
118 0.0
128 0.0
141 0.000998
150 0.000998
158 0.000964
163 0.0
137 0.000998
70 0.0
31 0.0
37 0.0
63 0.0
90 0.0
107 0.0
120 0.0
114 0.000998
100 0.000963
99 0.0
108 0.0
117 0.0
126 0.0
136 0.0
146 0.0
151 0.0
158 0.0
164 0.0
135 0.000997
59 0.002993
41 0.0
70 0.0
98 0.0
119 0.0
137 0.0
139 0.0
124 0.0
115 0.0
116 0.0
128 0.001002
137 0.0
151 0.0
158 0.0
167 0.000955
172 0.0
173 0.0
143 0.000989
72 0.000958
31 0.003026
43 0.003025
81 0.00097
102 0.000981
119 0.000962
130 0.002995
120 0.000974
111 0.002026
113 0.001986
125 0.0
135 0.0
145 0.0
154 0.002999
161 0.003046
164 0.000994
169 0.001032
161 0.0
101 0.003008
34 0.000994
39 0.002971
65 0.002035
92 0.002033
116 0.000993
128 0.0
128 0.0
118 0.002027
109 0.001994
114 0.000967
122 0.000988
136 0.0
153 0.0
162 0.0
170 0.003023
175 0.003041
177 0.0
129 0.0
68 0.000997
46 0.00203
55 0.001987
91 0.000962
115 0.000976
132 0.0
136 0.000981
125 0.0
118 0.002992
119 0.00305
129 0.0
140 0.0
149 0.000976
155 0.003022
161 0.003024
170 0.0
174 0.0
147 0.001014
58 0.0
50 0.0
66 0.003029
93 0.002026
125 0.0
143 0.0
145 0.0
136 0.002033
124 0.002025
121 0.0
129 0.001966
139 0.0
154 0.0
161 0.0
165 0.002026
172 0.001984
167 0.0
100 0.0
43 0.000963
27 0.00299
38 0.00205
73 0.0
93 0.0
107 0.0
112 0.0
104 0.000998
99 0.004025
103 0.002989
116 0.00101
125 0.0
132 0.002045
145 0.003017
153 0.003049
161 0.0
165 0.0
139 0.0
43 0.0
28 0.0
43 0.002977
69 0.002993
98 0.0
112 0.0
119 0.0
115 0.001973
104 0.002044
103 0.0
108 0.0
118 0.001006
138 0.001
148 0.0
155 0.002996
162 0.002996
170 0.0
149 0.0
85 0.000976
45 0.002046
41 0.003003
74 0.0
98 0.0
113 0.0
133 0.0
124 0.000967
114 0.002027
111 0.002026
122 0.0
133 0.000962
142 0.0
148 0.00303
158 0.003027
166 0.000956
171 0.000964
172 0.0
84 0.0
50 0.0
51 0.00199
72 0.002
108 0.001003
128 0.000954
140 0.0
139 0.002997
129 0.002992
117 0.0
122 0.0
132 0.0
149 0.0
159 0.0
163 0.000965
170 0.003042
177 0.002986
184 0.000948
180 0.000998
117 0.0
54 0.002993
32 0.00302
52 0.0
78 0.0
109 0.0
122 0.001982
122 0.0
114 0.002992
109 0.003997
109 0.001016
118 0.003002
131 0.003014
142 0.00302
150 0.002992
160 0.002993
164 0.002979
172 0.003004
174 0.002031
147 0.001974
78 0.002993
36 0.002993
37 0.003004
64 0.002002
88 0.003036
106 0.003005
120 0.002993
122 0.002988
116 0.001954
111 0.002
119 0.00199
130 0.002036
142 0.002993
152 0.002992
163 0.001996
168 0.000957
176 0.00301
182 0.00303
182 0.002989
113 0.001995
62 0.002999
57 0.002992
82 0.002997
109 0.00199
126 0.002989
140 0.00303
141 0.002987
129 0.002028
121 0.001988
124 0.003989
134 0.00399
145 0.002035
154 0.001992
165 0.002995
171 0.003006
177 0.003007
182 0.004024
157 0.003986
75 0.003027
49 0.002997
56 0.00202
82 0.00399
109 0.004005
135 0.00299
147 0.002028
136 0.003004
126 0.001978
123 0.002994
130 0.003986
141 0.004006
154 0.002991
162 0.002002
168 0.003003
174 0.003944
179 0.005034
186 0.002994
182 0.003008
74 0.002991
35 0.001985
30 0.00299
53 0.003956
81 0.004028
103 0.001983
116 0.001994
118 0.002991
112 0.005025
105 0.004987
106 0.003002
114 0.001986
132 0.002991
142 0.003005
152 0.00303
158 0.00402
164 0.00432
170 0.00299
175 0.002993
165 0.002979
101 0.004031
48 0.00404
35 0.003998
56 0.002022
100 0.001996
117 0.001982
132 0.002972
131 0.005046
123 0.005001
116 0.002981
119 0.001981
128 0.002997
139 0.004987
149 0.005052
160 0.002024
166 0.002989
175 0.001997
182 0.001983
186 0.003036
159 0.001999
93 0.004992
53 0.004982
55 0.002977
82 0.002996
109 0.001992
129 0.005021
146 0.005026
146 0.001994
132 0.004995
128 0.002991
134 0.001995
143 0.002952
153 0.004989
163 0.004986
171 0.001988
177 0.002965
182 0.001995
187 0.00594
177 0.00502
91 0.002975
45 0.005986
60 0.002988
88 0.001994
113 0.002993
132 0.004986
148 0.004965
144 0.001996
132 0.002992
128 0.002004
130 0.005027
137 0.00502
154 0.003005
165 0.005
174 0.004036
178 0.003003
184 0.002986
191 0.005985
183 0.005987
93 0.002976
46 0.002982
40 0.002988
60 0.005044
90 0.004987
119 0.002992
138 0.004986
135 0.002958
126 0.003013
124 0.002989
126 0.005984
133 0.00599
146 0.002995
156 0.003001
163 0.003
170 0.005984
176 0.005984
182 0.001994
190 0.005967
123 0.002982
64 0.003991
47 0.002992
60 0.00598
86 0.005983
122 0.003013
141 0.003005
149 0.003038
144 0.005985
131 0.005985
124 0.002992
134 0.005984
146 0.002992
156 0.002993
164 0.002959
171 0.00599
179 0.006983
189 0.003959
187 0.003956
142 0.00304
82 0.005985
58 0.005984
74 0.002988
111 0.00598
143 0.002992
160 0.00295
159 0.003994
146 0.005989
135 0.006016
136 0.003003
141 0.003956
151 0.003989
162 0.007004
171 0.007012
180 0.002949
188 0.006014
180 0.002976
111 0.003991
52 0.002994
37 0.005985
52 0.006993
87 0.003003
109 0.004033
128 0.003988
135 0.006987
129 0.006992
116 0.003986
114 0.007013
124 0.002992
135 0.003985
146 0.00399
154 0.005982
160 0.007019
167 0.004
174 0.003991
160 0.003987
89 0.006981
38 0.007013
28 0.003986
60 0.006979
88 0.006999
112 0.004986
123 0.002993
120 0.002991
111 0.005949
103 0.007025
106 0.004003
114 0.004021
124 0.004009
136 0.005994
147 0.007025
159 0.006973
165 0.006987
172 0.00399
143 0.003024
75 0.003987
34 0.007014
34 0.007015
67 0.004988
94 0.003989
113 0.004989
129 0.006981
132 0.006982
112 0.00699
104 0.007011
112 0.004975
122 0.004991
134 0.004982
143 0.00798
150 0.007976
159 0.005
166 0.005004
170 0.005028
151 0.007026
90 0.006982
44 0.006984
58 0.006958
93 0.004956
115 0.004959
137 0.004955
144 0.007982
132 0.007978
121 0.005005
120 0.004953
127 0.004014
136 0.006931
146 0.006981
161 0.006979
165 0.00698
174 0.004953
177 0.004989
140 0.004985
71 0.007948
37 0.007979
44 0.003998
70 0.003979
94 0.004992
112 0.00798
126 0.007974
119 0.007946
111 0.007977
110 0.00499
118 0.00498
127 0.004994
139 0.007997
148 0.007976
156 0.004994
162 0.003984
166 0.003963
166 0.007961
108 0.007996
34 0.007995
28 0.007946
53 0.004983
80 0.005004
101 0.004987
118 0.007979
122 0.007978
117 0.004994
110 0.004987
110 0.004979
119 0.007018
128 0.006983
147 0.007978
153 0.007967
161 0.005973
166 0.005995
171 0.005014
165 0.007938
86 0.007977
42 0.004995
35 0.005973
55 0.004984
93 0.006962
110 0.006974
127 0.006979
123 0.00698
115 0.005986
109 0.005993
112 0.005021
122 0.007958
140 0.007949
149 0.006009
157 0.004979
164 0.004975
171 0.007019
179 0.007004
150 0.007989
86 0.006972
54 0.004991
56 0.005983
78 0.005981
114 0.007945
134 0.006952
147 0.005987
145 0.005965
135 0.004956
123 0.00698
126 0.006983
140 0.006981
150 0.006981
159 0.006982
165 0.005984
170 0.005983
176 0.005002
179 0.006985
130 0.007981
64 0.005981
36 0.004979
48 0.005982
76 0.007056
104 0.006023
126 0.006989
127 0.006984
120 0.005981
113 0.005996
111 0.005983
120 0.006986
131 0.005952
141 0.00601
152 0.005978
158 0.005984
161 0.006039
170 0.005982
174 0.007012
174 0.006986
120 0.006982
53 0.006025
26 0.005964
41 0.006991
70 0.006985
91 0.005991
105 0.00502
117 0.005941
113 0.006018
103 0.00608
103 0.005984
111 0.006016
125 0.005984
133 0.005961
142 0.006028
152 0.008034
157 0.007014
160 0.005985
167 0.005977
177 0.006011
169 0.006021
63 0.005965
33 0.006027
40 0.005983
74 0.005947
99 0.005992
118 0.005952
130 0.007012
128 0.006982
120 0.005983
116 0.005992
118 0.005986
128 0.006017
148 0.005982
159 0.006023
166 0.005951
173 0.005982
178 0.005984
182 0.005942
188 0.006955
185 0.007027
110 0.005928
62 0.005954
56 0.005988
74 0.005992
121 0.005989
140 0.006018
156 0.005986
154 0.005979
140 0.005959
132 0.005973
134 0.006035
142 0.005938
156 0.005979
166 0.004946
172 0.004991
180 0.004989
189 0.006024
195 0.006016
191 0.005991
107 0.005984
53 0.00596
40 0.005946
57 0.00595
85 0.005994
114 0.004947
130 0.004956
140 0.004987
134 0.00499
118 0.004994
118 0.006035
126 0.006024
139 0.005953
152 0.005989
161 0.004981
167 0.00496
173 0.004989
180 0.005026
187 0.004989
169 0.004951
96 0.005018
32 0.004967
40 0.005053
69 0.005052
104 0.004987
121 0.004953
133 0.004967
132 0.004943
123 0.004957
116 0.004955
119 0.005953
127 0.004997
139 0.005954
155 0.004975
161 0.005001
167 0.004993
173 0.005018
183 0.004984
187 0.004947
142 0.00504
69 0.005039
36 0.003991
46 0.004954
74 0.005036
102 0.003942
132 0.00498
139 0.004991
131 0.00494
120 0.004955
120 0.004945
127 0.004036
138 0.004982
150 0.005028
159 0.005022
171 0.004957
178 0.004975
185 0.004994
187 0.004993
136 0.005
75 0.005038
52 0.00395
71 0.004989
99 0.003989
124 0.003994
147 0.004006
160 0.003959
151 0.004971
136 0.005029
129 0.004989
140 0.005004
150 0.00503
161 0.005035
170 0.00399
179 0.004957
184 0.003986
191 0.003953
176 0.00399
103 0.004022
43 0.003977
44 0.003954
68 0.00398
109 0.003997
128 0.004049
141 0.005034
136 0.003962
120 0.004957
119 0.004038
122 0.004993
132 0.003998
142 0.004041
156 0.004989
164 0.00399
169 0.003983
178 0.003995
165 0.004
94 0.004018
37 0.005055
21 0.005024
42 0.003977
70 0.002998
90 0.005035
107 0.004074
118 0.004028
112 0.00396
105 0.00399
108 0.00404
117 0.00395
130 0.005024
142 0.004952
155 0.005015
162 0.003977
168 0.004047
173 0.004067
155 0.004021
68 0.004987
35 0.003989
36 0.004042
78 0.003977
103 0.003994
119 0.005022
129 0.003983
122 0.005052
109 0.003991
109 0.005004
114 0.004966
125 0.004039
140 0.004031
153 0.003001
162 0.003991
176 0.002992
186 0.003991
188 0.00402
140 0.00399
68 0.004951
56 0.002992
71 0.003032
96 0.003
118 0.002996
145 0.002993
152 0.003008
144 0.003982
124 0.002018
127 0.002986
136 0.002971
146 0.001991
158 0.003967
165 0.003957
173 0.00302
179 0.003958
168 0.002968
112 0.003043
52 0.003047
45 0.00299
81 0.002989
105 0.003001
128 0.003031
141 0.002993
138 0.002995
120 0.002979
117 0.002995
122 0.003031
132 0.002046
144 0.003024
157 0.003005
163 0.001995
171 0.001985
145 0.001984
73 0.002034
28 0.001996
20 0.003033
