152 0.030009
154 0.000998
157 0.001055
161 0.001984
164 0.001994
158 0.000998
87 0.0
35 0.0
11 0.002993
33 0.003035
72 0.002992
83 0.003019
92 0.0
97 0.0
98 0.0
100 0.003991
103 0.003954
109 0.0
115 0.0
120 0.0
124 0.002994
126 0.002992
131 0.002993
133 0.002992
136 0.0
138 0.000997
140 0.000998
143 0.002992
144 0.003988
147 0.000981
149 0.0
137 0.0
90 0.003988
46 0.002978
66 0.00399
87 0.003988
101 0.0
109 0.000979
113 0.001011
114 0.002992
113 0.00399
115 0.001005
119 0.0
123 0.0
128 0.003989
133 0.0
136 0.00399
139 0.00399
141 0.000998
143 0.000998
144 0.000998
146 0.00499
147 0.004031
150 0.0
153 0.000998
150 0.0
127 0.003989
65 0.0
74 0.003948
94 0.003961
108 0.00399
117 0.001024
121 0.0
123 0.0
122 0.004046
121 0.005038
123 0.0
127 0.000998
132 0.000999
138 0.00101
140 0.002023
142 0.004987
144 0.004987
146 0.001994
147 0.003989
149 0.000995
150 0.003989
152 0.004012
154 0.000998
154 0.001003
139 0.001995
80 0.001996
82 0.002021
100 0.005019
114 0.004987
123 0.000982
126 0.000997
128 0.001027
128 0.004986
126 0.005863
127 0.001995
131 0.001995
134 0.001964
140 0.001994
142 0.001995
144 0.004972
146 0.004976
148 0.002023
149 0.000997
151 0.001995
152 0.005984
153 0.005938
156 0.002994
155 0.001918
141 0.001963
80 0.002022
78 0.001995
94 0.005991
109 0.005984
118 0.002977
123 0.002004
125 0.001996
125 0.005983
123 0.004937
124 0.001997
128 0.000996
132 0.001994
137 0.002007
141 0.001995
144 0.006032
145 0.006035
146 0.000961
148 0.001957
148 0.000967
149 0.005984
151 0.007036
153 0.002992
154 0.001996
145 0.002992
80 0.002951
35 0.002954
56 0.002992
83 0.005985
99 0.005984
110 0.002994
115 0.002992
116 0.002028
116 0.005973
116 0.005973
119 0.00199
126 0.002438
136 0.002992
141 0.002997
145 0.002992
148 0.006033
151 0.006985
154 0.002959
156 0.002992
159 0.002992
163 0.006998
164 0.007012
168 0.002993
163 0.002992
79 0.002011
43 0.002027
55 0.003955
83 0.006982
101 0.006937
111 0.002986
118 0.003981
120 0.002992
120 0.006933
119 0.006948
122 0.003
128 0.006981
137 0.003024
140 0.00399
145 0.004022
150 0.007979
152 0.007979
156 0.00399
159 0.00398
161 0.002985
163 0.006982
165 0.006981
169 0.003958
159 0.006984
88 0.002993
51 0.004956
61 0.004958
87 0.007942
103 0.007948
114 0.00397
120 0.003997
123 0.003987
123 0.007027
121 0.007932
122 0.004041
128 0.007945
136 0.006999
141 0.004009
146 0.003956
148 0.007947
151 0.007964
154 0.004015
155 0.002986
157 0.002992
161 0.007991
164 0.007946
161 0.007947
98 0.007978
53 0.007968
70 0.002984
92 0.002994
105 0.004022
116 0.00802
121 0.007018
122 0.004
121 0.004005
120 0.004003
122 0.007979
125 0.007979
135 0.007945
142 0.006979
147 0.004983
150 0.004988
153 0.004987
156 0.006983
158 0.006976
161 0.00598
163 0.005026
165 0.002992
131 0.006982
64 0.006926
37 0.007978
54 0.007978
85 0.005935
95 0.006001
102 0.005037
109 0.007017
109 0.007021
109 0.005049
109 0.006032
113 0.00402
120 0.006987
127 0.006982
137 0.006951
140 0.00698
142 0.005011
147 0.004957
149 0.004987
152 0.00689
156 0.006955
159 0.006029
151 0.005984
78 0.00598
22 0.007001
22 0.006988
67 0.007005
82 0.005986
94 0.005935
98 0.005984
102 0.005971
102 0.007024
102 0.005985
107 0.005982
112 0.005938
118 0.005035
127 0.007028
133 0.006949
140 0.005938
143 0.005983
147 0.005953
150 0.004986
153 0.005951
156 0.005985
159 0.005999
147 0.004952
91 0.004988
30 0.005019
30 0.004986
75 0.004934
88 0.005003
97 0.006029
104 0.005964
106 0.005958
106 0.005985
106 0.005949
110 0.004982
116 0.005999
124 0.005986
133 0.004927
138 0.005088
144 0.004953
148 0.004995
151 0.005987
154 0.004987
157 0.005956
162 0.004944
158 0.004915
123 0.005026
58 0.005051
33 0.005982
60 0.005042
84 0.004946
104 0.004945
110 0.00496
114 0.005021
113 0.005026
113 0.005019
115 0.004985
121 0.004986
128 0.004986
135 0.004985
142 0.004964
147 0.005014
150 0.004986
155 0.004993
158 0.004005
161 0.00499
163 0.004023
167 0.003995
146 0.003992
87 0.00397
46 0.00399
54 0.004023
87 0.004022
103 0.004032
112 0.005016
121 0.003989
121 0.00502
118 0.00503
118 0.004017
125 0.004021
131 0.004023
138 0.003989
144 0.004049
149 0.004019
154 0.00399
157 0.003962
159 0.004017
163 0.004043
165 0.004023
168 0.003988
167 0.003991
118 0.004023
63 0.004024
51 0.002983
75 0.005043
96 0.003006
108 0.003027
120 0.003993
124 0.004021
122 0.003989
119 0.003988
123 0.003981
129 0.004047
135 0.004049
144 0.003992
148 0.003023
152 0.002992
155 0.002987
157 0.002994
161 0.003027
163 0.003023
168 0.003024
167 0.003018
154 0.002982
86 0.00402
55 0.003035
78 0.003027
97 0.003005
111 0.002989
118 0.002992
124 0.002998
125 0.003034
123 0.003026
123 0.003051
128 0.002994
135 0.002992
141 0.002992
147 0.001994
153 0.002029
156 0.002995
158 0.001995
161 0.002022
164 0.003019
166 0.003024
169 0.003032
139 0.003026
88 0.003023
67 0.00302
83 0.002992
103 0.00202
117 0.002046
123 0.001991
129 0.002024
129 0.002043
126 0.001995
123 0.000998
128 0.002993
135 0.001987
141 0.003022
146 0.003024
150 0.003033
153 0.002027
156 0.00203
158 0.00201
160 0.001992
164 0.002028
158 0.002021
104 0.001994
57 0.001992
79 0.00203
99 0.002028
111 0.00205
120 0.002027
126 0.000998
126 0.00104
123 0.002004
123 0.002012
124 0.001996
129 0.002048
136 0.002041
146 0.001997
151 0.001996
155 0.001039
158 0.002038
160 0.000998
161 0.000998
164 0.000997
163 0.001033
128 0.001046
50 0.000993
15 0.000998
30 0.000998
76 0.001996
90 0.000999
101 0.002065
106 0.000997
107 0.001005
106 0.000998
107 0.000998
114 0.000998
123 0.000999
129 0.000998
137 0.000997
142 0.000998
149 0.0
151 0.0
155 0.0
159 0.0
162 0.0
151 0.0
89 0.000996
0 0.000997
0 0.000997
28 0.000997
59 0.0
75 0.0
93 0.0
98 0.000998
102 0.0
103 0.001007
107 0.0
116 0.0
124 0.0
134 0.0
142 0.0
147 0.0
151 0.0
155 0.0
160 0.000997
162 0.0
168 0.000999
170 0.0
147 0.0
65 0.0
0 0.0
5 0.0
45 0.0
73 0.000999
88 0.00096
98 0.000964
107 0.001009
108 0.000998
110 0.000999
117 0.000997
125 0.001008
136 0.000997
142 0.000998
147 0.0
154 0.0
157 0.0
159 0.0
162 0.0
168 0.001009
171 0.000997
176 0.000997
177 0.001998
147 0.001997
58 0.000999
4 0.0
23 0.001996
74 0.001069
96 0.001996
113 0.001998
120 0.001024
120 0.000998
119 0.001
121 0.001
129 0.000998
138 0.000991
146 0.000963
150 0.001012
157 0.000999
161 0.001033
163 0.001001
165 0.002971
171 0.001962
174 0.001956
176 0.002008
180 0.000959
170 0.001993
107 0.002027
33 0.001028
31 0.001005
67 0.000998
104 0.001017
118 0.000998
129 0.001031
131 0.002027
125 0.001992
125 0.002022
130 0.002019
140 0.001996
147 0.00202
154 0.001991
160 0.002049
166 0.001995
169 0.002045
170 0.001016
172 0.001965
175 0.002007
178 0.00197
182 0.000998
176 0.002038
136 0.001996
48 0.003041
49 0.002994
92 0.001994
109 0.001996
126 0.002028
134 0.00301
137 0.003017
132 0.003009
130 0.003016
137 0.002003
143 0.001995
148 0.00195
156 0.003001
161 0.002034
163 0.001995
167 0.000997
170 0.000999
171 0.002994
174 0.003017
177 0.002994
180 0.003035
153 0.00201
89 0.002024
60 0.002043
79 0.00304
108 0.003991
128 0.000993
137 0.002005
142 0.001012
141 0.002993
139 0.003018
137 0.002981
141 0.002992
148 0.001028
154 0.001956
160 0.001956
163 0.003034
167 0.00399
171 0.000994
171 0.001965
174 0.001961
174 0.004014
179 0.00499
174 0.002994
138 0.00305
71 0.001015
76 0.001994
104 0.002025
120 0.002993
131 0.003035
140 0.002039
141 0.00102
139 0.001963
135 0.004014
135 0.004033
142 0.003994
147 0.004024
154 0.00199
158 0.002055
162 0.001005
164 0.003024
166 0.003989
169 0.001042
169 0.000997
173 0.0
171 0.004992
109 0.00096
69 0.003984
79 0.003984
102 0.00399
121 0.0
130 0.001993
135 0.000998
137 0.003989
135 0.004002
129 0.002011
130 0.002
134 0.000999
143 0.0
148 0.0
152 0.004021
155 0.004956
158 0.0
160 0.0
161 0.0
165 0.003983
162 0.004988
115 0.002002
63 0.001966
55 0.000957
95 0.001017
108 0.0
118 0.004986
124 0.005023
126 0.0
123 0.00102
120 0.0
121 0.006013
124 0.006005
134 0.001004
140 0.0
144 0.000998
151 0.000961
152 0.000993
155 0.005059
156 0.00504
117 0.001008
43 0.000994
10 0.000997
30 0.002014
59 0.005989
86 0.0
98 0.0
104 0.0
105 0.0
102 0.000975
103 0.00499
108 0.005024
118 0.000997
127 0.001051
132 0.001971
139 0.002971
141 0.004017
146 0.001005
149 0.000992
151 0.0
156 0.000959
137 0.001003
54 0.00599
0 0.006012
0 0.0
14 0.000997
43 0.001013
60 0.005984
71 0.005992
82 0.000999
87 0.0
88 0.001048
96 0.001998
104 0.002013
115 0.002053
123 0.005985
131 0.007019
139 0.00302
141 0.00199
146 0.001995
150 0.006982
153 0.006982
158 0.003024
162 0.001968
169 0.001993
171 0.002003
175 0.001995
176 0.005984
147 0.005972
0 0.000998
0 0.001995
0 0.001994
0 0.006031
31 0.00698
53 0.003001
65 0.000997
83 0.002006
86 0.001016
91 0.000997
97 0.003988
109 0.007026
124 0.003021
133 0.00301
141 0.002992
145 0.006984
150 0.006978
155 0.002986
159 0.002998
166 0.002999
169 0.002007
174 0.001997
177 0.007022
182 0.007978
170 0.002974
90 0.003027
0 0.003015
43 0.007989
59 0.007932
88 0.001994
105 0.008025
112 0.002002
116 0.002019
118 0.001996
118 0.006982
120 0.007946
127 0.002993
132 0.002989
137 0.002022
142 0.007982
144 0.007954
146 0.00298
149 0.007947
151 0.001999
152 0.001019
154 0.002008
156 0.007894
157 0.007979
159 0.00299
161 0.003032
161 0.001996
147 0.001978
99 0.007978
58 0.007978
80 0.007943
100 0.007949
116 0.002038
122 0.003048
125 0.003027
126 0.006984
126 0.006948
127 0.004029
131 0.003008
135 0.002996
140 0.00797
143 0.007978
147 0.007965
150 0.00699
150 0.004022
152 0.003987
153 0.002993
155 0.008032
157 0.006928
158 0.003
160 0.003014
161 0.002015
153 0.006981
133 0.007979
79 0.006981
96 0.006982
113 0.004986
124 0.003991
129 0.004032
133 0.007022
134 0.00705
132 0.003996
131 0.002992
133 0.003
138 0.006019
142 0.005991
146 0.006958
149 0.005949
149 0.001969
151 0.002991
152 0.002958
153 0.007031
155 0.005947
156 0.003021
157 0.002008
158 0.005985
159 0.001996
149 0.001008
93 0.002014
110 0.005985
122 0.003997
130 0.003989
134 0.00399
137 0.00701
137 0.005985
134 0.003996
134 0.003989
135 0.003991
139 0.006972
143 0.005984
147 0.005985
149 0.00595
150 0.002959
151 0.004
152 0.003964
153 0.005964
154 0.006013
155 0.006026
157 0.004015
145 0.004991
118 0.005927
102 0.00595
115 0.005973
128 0.00603
133 0.005987
137 0.005929
139 0.005919
137 0.004956
136 0.004989
134 0.004989
136 0.004989
139 0.004925
142 0.004957
146 0.004958
147 0.004964
149 0.004988
149 0.004948
150 0.005953
152 0.005949
153 0.005018
153 0.004956
144 0.005028
114 0.004981
105 0.004961
113 0.005012
128 0.004948
136 0.005014
142 0.004984
144 0.005022
143 0.00498
139 0.004992
136 0.003957
139 0.00402
145 0.005023
151 0.004985
156 0.004997
159 0.004999
164 0.004947
164 0.00497
165 0.004992
167 0.005019
166 0.005012
141 0.005013
83 0.00402
54 0.004023
68 0.004032
98 0.004014
112 0.004
120 0.003989
128 0.003928
126 0.003981
123 0.004987
122 0.005017
126 0.003988
132 0.00399
138 0.004042
145 0.004017
148 0.004018
152 0.00402
156 0.003987
157 0.004016
161 0.003984
162 0.003988
147 0.003985
84 0.00399
9 0.004023
21 0.002972
51 0.002976
74 0.003984
85 0.004034
94 0.003985
101 0.003981
101 0.003957
101 0.003986
106 0.003992
113 0.003985
121 0.004023
129 0.003019
137 0.002992
140 0.003031
145 0.003023
147 0.002986
151 0.003027
155 0.003023
157 0.004007
121 0.004023
35 0.003976
0 0.003947
3 0.003021
38 0.004015
72 0.003052
83 0.002997
92 0.003024
98 0.003021
101 0.002992
101 0.003019
105 0.002985
119 0.002992
127 0.002031
135 0.002961
140 0.002025
145 0.003002
150 0.003
152 0.002991
156 0.003028
159 0.003034
163 0.003004
166 0.003021
146 0.002992
17 0.002992
0 0.002022
34 0.003004
68 0.001974
89 0.002026
103 0.002024
110 0.002026
113 0.001995
112 0.002027
113 0.002026
120 0.002982
131 0.002992
142 0.00297
148 0.002987
153 0.001995
156 0.002025
160 0.001995
163 0.002027
166 0.002028
170 0.001997
172 0.001996
176 0.000996
170 0.003988
74 0.001994
32 0.002006
58 0.002991
91 0.000998
108 0.002038
119 0.002079
127 0.002048
128 0.002047
126 0.002061
124 0.001996
129 0.000944
136 0.002066
148 0.001995
154 0.001995
160 0.000998
163 0.000973
166 0.000998
169 0.000998
170 0.000997
174 0.001014
177 0.001995
179 0.002037
174 0.002026
134 0.001036
59 0.001997
77 0.001995
110 0.000996
126 0.000987
133 0.001034
139 0.000997
139 0.001025
134 0.000998
132 0.000997
136 0.000992
143 0.001052
148 0.0
158 0.001994
162 0.000994
167 0.000998
168 0.000998
169 0.000997
171 0.000998
173 0.001019
176 0.000997
179 0.001032
164 0.000995
117 0.000997
76 0.000998
100 0.000998
118 0.0
133 0.000995
141 0.0
142 0.0
141 0.0
137 0.001004
136 0.001029
140 0.0
146 0.000998
151 0.0
156 0.0
163 0.000996
165 0.0
168 0.0
170 0.0
171 0.0
174 0.0
175 0.0
152 0.0
95 0.000972
54 0.001006
65 0.001006
92 0.000997
117 0.0
125 0.0
130 0.0
129 0.0
126 0.0
125 0.0
129 0.000998
134 0.000998
143 0.001013
148 0.001997
153 0.003978
156 0.003991
158 0.001996
159 0.0
161 0.000998
161 0.005984
163 0.000964
167 0.000976
56 0.001027
35 0.001027
66 0.001028
88 0.001031
103 0.001013
111 0.000993
118 0.001014
115 0.000998
114 0.000997
117 0.001009
122 0.000998
130 0.000997
137 0.001962
143 0.000997
148 0.001989
152 0.001966
155 0.000972
159 0.001049
162 0.000972
164 0.000999
156 0.000996
89 0.000998
43 0.001019
50 0.001058
77 0.000989
98 0.000996
113 0.001995
120 0.001994
122 0.001984
119 0.001994
119 0.00096
123 0.001051
130 0.000997
140 0.001038
144 0.000996
147 0.024933
147 0.006989
147 0.021942
147 0.009972
150 0.017951
150 0.013963
152 0.005983
154 0.009973
154 0.013962
156 0.010971
157 0.006983
159 0.002993
158 0.001994
160 0.006982
160 0.010972
162 0.012971
162 0.008977
163 0.00399
165 0.011968
167 0.006981
167 0.002993
169 0.001999
168 0.001
87 0.001033
83 0.000945
117 0.0
130 0.002994
128 0.001995
124 0.001031
130 0.002989
141 0.003989
147 0.001995
154 0.001029
159 0.000997
162 0.000963
169 0.0
124 0.001992
73 0.000997
114 0.000971
132 0.002028
133 0.002995
130 0.00199
145 0.001964
155 0.003001
158 0.002024
161 0.001992
163 0.001993
164 0.00303
166 0.002987
168 0.001996
156 0.003026
79 0.002998
43 0.00303
58 0.004024
101 0.002991
114 0.002012
125 0.001944
129 0.002018
126 0.001004
122 0.003985
121 0.002989
127 0.001043
134 0.001003
142 0.000981
147 0.00301
153 0.003053
158 0.002998
161 0.002986
164 0.001006
166 0.0
168 0.0
149 0.003991
75 0.004021
0 0.0
15 0.000955
52 0.0
79 0.003029
93 0.00408
106 0.00396
109 0.003988
108 0.001027
108 0.001062
113 0.001029
121 0.003958
132 0.00399
139 0.004992
146 0.000997
152 0.00097
154 0.001002
159 0.0
160 0.001023
164 0.004973
166 0.004984
122 0.0
21 0.001005
0 0.000997
0 0.005025
30 0.00399
68 0.000968
82 0.0
93 0.0
102 0.0
104 0.0
107 0.004997
113 0.004993
126 0.0
136 0.0
144 0.0
150 0.004988
154 0.004027
160 0.000966
162 0.000999
164 0.001001
170 0.0
174 0.0
177 0.004967
157 0.004986
34 0.00098
47 0.0
58 0.001
82 0.005982
99 0.006032
111 0.002026
116 0.001064
120 0.001009
120 0.0
122 0.00102
125 0.004985
130 0.004985
136 0.001004
140 0.000995
143 0.000996
145 0.005984
147 0.005035
149 0.001997
151 0.001996
152 0.001996
155 0.002006
157 0.00094
155 0.005975
133 0.005984
75 0.001996
72 0.001023
92 0.001043
110 0.00501
120 0.005018
127 0.000969
130 0.001995
130 0.000997
128 0.001993
130 0.001018
134 0.005984
139 0.005976
144 0.000995
146 0.000985
148 0.002019
151 0.001035
152 0.005984
153 0.007013
155 0.001956
156 0.001965
158 0.001026
160 0.001995
155 0.002014
125 0.005988
90 0.006001
95 0.000993
114 0.000951
126 0.002993
133 0.006986
137 0.006983
139 0.001965
137 0.00302
135 0.002991
138 0.002995
141 0.002957
145 0.006973
148 0.006969
151 0.00202
153 0.002012
154 0.002008
166 0.007018
167 0.006988
169 0.002987
170 0.00295
174 0.001976
167 0.002993
135 0.002997
96 0.006989
99 0.006984
127 0.003012
139 0.002989
146 0.001959
152 0.007965
151 0.007979
149 0.002995
146 0.007975
148 0.003989
151 0.00399
155 0.00399
160 0.007982
162 0.007945
165 0.003987
167 0.002981
167 0.00299
168 0.006981
169 0.006982
171 0.003962
164 0.007945
118 0.002991
93 0.004014
104 0.003998
129 0.00798
136 0.00794
145 0.003994
148 0.003997
148 0.004025
147 0.008006
142 0.00798
143 0.002983
148 0.007966
152 0.00394
155 0.004
157 0.003992
160 0.003996
162 0.007972
162 0.007982
163 0.004
165 0.003993
163 0.002994
124 0.007983
86 0.007979
78 0.006982
102 0.006989
117 0.00405
125 0.004024
129 0.004028
132 0.00702
130 0.006984
127 0.002997
128 0.003995
132 0.004018
138 0.007971
143 0.007012
148 0.007948
150 0.007955
151 0.002986
153 0.00502
154 0.004008
155 0.007013
140 0.006986
82 0.004974
33 0.005011
38 0.005065
77 0.006942
96 0.008004
112 0.006952
117 0.007031
118 0.004002
117 0.004009
117 0.004989
121 0.007001
127 0.006982
133 0.004975
137 0.004982
141 0.004991
145 0.007017
147 0.006025
150 0.007008
152 0.006981
154 0.004996
156 0.005958
154 0.004994
94 0.006025
27 0.00601
18 0.003993
48 0.00498
77 0.004989
96 0.00699
105 0.006947
113 0.006983
112 0.006973
113 0.005985
115 0.005023
120 0.005
129 0.005972
135 0.005975
141 0.006
143 0.005981
146 0.005991
148 0.005944
150 0.005962
152 0.00499
156 0.007039
158 0.00502
156 0.005002
127 0.003998
43 0.005001
31 0.006028
60 0.006007
94 0.005949
104 0.005984
115 0.005954
120 0.00603
119 0.00598
119 0.004978
121 0.005979
127 0.005994
135 0.00496
140 0.005004
144 0.005035
147 0.004989
150 0.006018
152 0.005981
153 0.005954
157 0.005977
159 0.005976
161 0.005987
163 0.005977
143 0.004964
86 0.004984
51 0.004982
66 0.005054
93 0.005023
115 0.004978
123 0.003976
129 0.004987
127 0.004982
125 0.004989
125 0.005044
130 0.004991
137 0.004985
142 0.004982
146 0.004985
150 0.004993
152 0.004999
154 0.005006
156 0.004969
157 0.004962
160 0.003964
162 0.003956
162 0.003974
143 0.004999
83 0.003965
75 0.003989
95 0.003971
114 0.004021
125 0.005032
134 0.004941
136 0.003989
136 0.00399
130 0.00399
132 0.004007
136 0.004015
141 0.004022
147 0.004024
150 0.00298
153 0.002991
154 0.003989
155 0.004021
158 0.003978
160 0.002992
161 0.004987
130 0.004039
92 0.004032
87 0.004024
105 0.004023
121 0.003989
134 0.003985
139 0.003995
140 0.003987
139 0.00399
136 0.003985
134 0.002992
137 0.003988
145 0.003027
149 0.003016
152 0.002992
154 0.002989
156 0.003041
158 0.003965
160 0.00399
157 0.004032
133 0.004029
91 0.003989
85 0.00399
106 0.003021
128 0.003025
134 0.002994
138 0.003028
138 0.003025
136 0.003026
133 0.003062
134 0.003025
138 0.002985
144 0.002029
147 0.002992
151 0.003031
154 0.002992
156 0.003957
158 0.003048
159 0.002986
158 0.002959
138 0.002998
65 0.003018
52 0.002968
76 0.002972
99 0.003023
112 0.003023
122 0.001995
125 0.001988
124 0.001998
122 0.002025
124 0.00202
128 0.001996
134 0.001994
140 0.003028
144 0.001973
147 0.003043
149 0.003009
151 0.002983
153 0.003026
156 0.001993
147 0.001979
102 0.00203
46 0.001985
43 0.002004
69 0.00203
99 0.002043
109 0.001982
116 0.002003
119 0.002048
119 0.002044
117 0.001045
120 0.001995
124 0.002029
132 0.00204
137 0.001981
141 0.002029
144 0.001995
146 0.001995
149 0.001002
150 0.001008
153 0.00099
155 0.000998
149 0.000997
70 0.001995
47 0.002044
75 0.001959
97 0.001993
110 0.001988
118 0.000997
122 0.002006
122 0.002
120 0.000997
120 0.000999
124 0.001004
129 0.00106
139 0.000997
142 0.000998
147 0.000971
149 0.001037
151 0.000965
153 0.000999
155 0.000998
157 0.000979
150 0.000995
113 0.000998
70 0.000997
69 0.001031
106 0.000998
118 0.000989
128 0.000995
131 0.000998
130 0.000997
127 0.0
125 0.0
130 0.001003
136 0.0
140 0.0
145 0.0
148 0.000998
151 0.000998
153 0.000997
154 0.000997
157 0.0
159 0.0
149 0.0
110 0.0
73 0.0
87 0.0
108 0.0
120 0.0
129 0.0
134 0.0
132 0.000998
128 0.0
128 0.001048
133 0.0
138 0.0
143 0.0
148 0.0
151 0.0
153 0.001035
155 0.0
156 0.0
159 0.001031
146 0.0
102 0.0
64 0.000998
80 0.000982
102 0.00096
117 0.002005
125 0.002079
131 0.000999
130 0.002023
126 0.000973
124 0.001023
130 0.000988
136 0.001028
141 0.001048
147 0.000952
149 0.000974
151 0.001029
153 0.000997
155 0.001011
155 0.001997
132 0.002004
82 0.002028
62 0.001031
95 0.001032
111 0.000988
122 0.000968
130 0.001033
130 0.000997
128 0.000998
125 0.000998
127 0.001033
133 0.000998
139 0.001995
143 0.001997
148 0.001997
151 0.002005
153 0.002027
166 0.000997
145 0.002052
83 0.001044
42 0.002057
56 0.001031
90 0.001033
116 0.000951
127 0.001995
134 0.001995
131 0.000998
127 0.000997
128 0.002043
135 0.001996
144 0.001992
151 0.002001
156 0.001985
160 0.002027
163 0.001976
167 0.001993
166 0.00209
131 0.001989
38 0.001028
57 0.001005
102 0.00198
116 0.002053
134 0.002029
140 0.002015
139 0.002026
133 0.001996
131 0.002041
136 0.001997
145 0.001984
153 0.002019
161 0.002969
166 0.002992
168 0.002993
172 0.001962
175 0.001997
164 0.001995
105 0.00203
35 0.00199
47 0.002001
88 0.002022
123 0.002995
137 0.00299
146 0.003047
142 0.002994
135 0.002006
136 0.001982
143 0.001965
152 0.002992
158 0.002999
166 0.001984
168 0.001995
171 0.001994
173 0.002027
177 0.001993
140 0.002994
60 0.003027
41 0.000997
82 0.001007
116 0.001994
135 0.003003
146 0.003005
149 0.002016
142 0.001985
137 0.002001
138 0.00399
144 0.003989
158 0.00302
164 0.003946
170 0.002025
172 0.002026
174 0.001023
176 0.002966
176 0.003961
107 0.002012
5 0.002004
0 0.001023
30 0.004037
79 0.003991
117 0.003991
128 0.003963
131 0.001995
125 0.001001
123 0.001995
128 0.002992
139 0.004955
152 0.001997
159 0.001024
164 0.000997
168 0.00399
169 0.004032
173 0.004022
176 0.004017
156 0.000979
49 0.001031
0 0.002004
0 0.001985
0 0.004021
45 0.005037
83 0.001977
99 0.001005
107 0.0
106 0.0
107 0.0
115 0.003991
128 0.003995
145 0.0
154 0.000977
160 0.000978
164 0.003989
167 0.004964
170 0.0
173 0.000998
176 0.0
183 0.001013
177 0.0
95 0.00499
37 0.004986
13 0.000996
44 0.002004
74 0.0
90 0.003976
99 0.004988
108 0.001008
112 0.001001
112 0.000998
117 0.0
125 0.002004
132 0.005011
138 0.004989
143 0.000994
146 0.000996
147 0.000991
149 0.005954
151 0.005984
153 0.000999
155 0.001002
157 0.000999
160 0.001002
161 0.001997
162 0.005
164 0.00595
148 0.001037
77 0.001024
16 0.000998
21 0.005941
59 0.006023
93 0.001042
104 0.001055
111 0.002022
118 0.000999
118 0.001029
120 0.004953
124 0.004987
134 0.000974
140 0.000992
145 0.002014
149 0.006003
151 0.005985
153 0.001002
155 0.001981
156 0.001997
159 0.001002
161 0.000996
162 0.000995
164 0.005987
165 0.005983
164 0.000996
136 0.002
71 0.002002
41 0.005979
65 0.005975
106 0.001993
120 0.001986
134 0.001996
136 0.000989
136 0.000998
135 0.005984
137 0.006982
144 0.000963
149 0.001998
153 0.002006
156 0.006978
158 0.006973
159 0.002
160 0.001996
162 0.002003
163 0.001972
164 0.002002
166 0.007012
167 0.006954
168 0.002969
154 0.002968
107 0.001997
74 0.006949
88 0.006952
122 0.001993
134 0.002001
144 0.002005
146 0.001003
145 0.000994
142 0.00795
143 0.00795
147 0.002988
151 0.001982
155 0.001996
157 0.00695
159 0.00695
160 0.000959
161 0.00698
162 0.002001
162 0.002993
163 0.002032
164 0.006985
164 0.007973
151 0.00299
109 0.00299
86 0.001015
101 0.007017
123 0.007014
139 0.00199
144 0.007938
146 0.003988
144 0.003959
142 0.002992
142 0.007008
146 0.00798
150 0.003964
153 0.00299
155 0.002947
156 0.007947
157 0.007967
158 0.007978
158 0.00798
159 0.007976
160 0.00299
161 0.00301
161 0.003004
135 0.007005
86 0.006996
46 0.003988
73 0.003967
103 0.003963
121 0.007941
130 0.007943
137 0.007898
135 0.006978
134 0.004955
136 0.004984
139 0.003981
146 0.006974
151 0.006982
154 0.003976
155 0.003998
157 0.004007
159 0.007981
160 0.007972
161 0.006973
163 0.007937
163 0.002995
143 0.004006
77 0.003991
33 0.006982
61 0.006981
92 0.001995
110 0.003994
119 0.003952
125 0.00695
127 0.006953
125 0.006982
127 0.006973
132 0.003988
138 0.005014
142 0.005011
147 0.006015
150 0.006013
151 0.004983
153 0.00496
155 0.003977
156 0.007037
158 0.007013
160 0.006964
152 0.007013
103 0.004987
49 0.002998
51 0.005013
92 0.006016
110 0.005984
120 0.003992
126 0.003972
128 0.004967
127 0.006981
126 0.006982
131 0.006982
136 0.006981
140 0.004958
144 0.005961
146 0.004988
149 0.006012
151 0.005982
152 0.005982
154 0.00596
155 0.004988
156 0.004963
153 0.005985
102 0.004962
62 0.005986
79 0.005985
104 0.004987
121 0.005942
128 0.004961
131 0.005988
131 0.004987
128 0.00498
127 0.005982
129 0.004952
135 0.005976
140 0.004996
145 0.005984
147 0.006015
149 0.004986
150 0.004956
152 0.004952
153 0.00495
155 0.004965
153 0.004936
129 0.005983
83 0.004964
83 0.005987
98 0.004981
118 0.005988
125 0.006013
130 0.005988
131 0.004952
128 0.004955
126 0.00499
128 0.005019
133 0.004984
138 0.004999
141 0.004965
146 0.005013
148 0.004989
149 0.005031
151 0.004053
152 0.004013
154 0.004012
147 0.004984
118 0.004986
84 0.004985
92 0.005023
111 0.004987
122 0.005024
132 0.004988
134 0.004988
134 0.00502
130 0.004027
129 0.004002
132 0.003994
136 0.004009
140 0.004022
143 0.003987
147 0.003989
148 0.003988
157 0.004112
160 0.003965
162 0.00401
152 0.003991
112 0.003989
72 0.002992
83 0.003989
105 0.00402
119 0.003992
127 0.004054
134 0.003989
135 0.003995
130 0.003991
126 0.003992
129 0.004008
135 0.003988
140 0.004028
146 0.002993
150 0.002981
152 0.002974
154 0.002974
156 0.002991
155 0.002993
113 0.003993
55 0.003986
59 0.003956
85 0.003984
102 0.003996
113 0.004049
120 0.003047
122 0.003029
119 0.003021
117 0.003021
117 0.003028
123 0.003025
132 0.003031
138 0.003022
145 0.002984
147 0.001995
150 0.00298
151 0.004022
154 0.002992
153 0.002997
117 0.003008
35 0.003029
0 0.003019
14 0.002986
58 0.00302
77 0.003026
94 0.002977
99 0.002985
101 0.002034
100 0.00299
102 0.001985
110 0.002031
118 0.002036
127 0.003001
132 0.003016
138 0.003027
143 0.003023
145 0.003023
150 0.003026
152 0.002986
156 0.002046
158 0.002046
161 0.001995
166 0.002026
167 0.002035
148 0.002085
65 0.001993
0 0.00199
0 0.002027
28 0.003047
58 0.002022
69 0.002021
80 0.002026
88 0.002025
92 0.001958
95 0.001958
102 0.002036
111 0.002037
119 0.002027
128 0.002021
134 0.002026
143 0.002028
146 0.002035
150 0.00103
154 0.000994
157 0.001005
161 0.001995
164 0.001995
168 0.002016
170 0.002003
144 0.00202
65 0.001995
3 0.001996
80 0.002051
97 0.000999
108 0.000956
114 0.000991
117 0.000997
119 0.000998
119 0.001005
121 0.001
125 0.001976
129 0.0
133 0.001045
136 0.000999
141 0.000998
143 0.000996
144 0.000971
146 0.001015
147 0.000993
148 0.000989
149 0.000997
151 0.000998
152 0.000998
147 0.0
121 0.001018
86 0.0
91 0.000998
106 0.0
118 0.001013
123 0.001004
126 0.001041
126 0.001064
125 0.000997
126 0.001041
128 0.000995
131 0.001031
135 0.0
138 0.0
142 0.0
144 0.0
145 0.0
147 0.0
147 0.0
149 0.0
150 0.0
152 0.001029
154 0.0
152 0.0
137 0.0
108 0.000997
102 0.0
114 0.0
123 0.0
129 0.0
132 0.0
132 0.0
130 0.0
129 0.0
130 0.0
132 0.0
136 0.0
139 0.0
142 0.000998
144 0.002046
158 0.002026
160 0.000993
161 0.001021
163 0.000983
164 0.001031
166 0.001
170 0.001027
167 0.001004
145 0.001049
110 0.001029
105 0.002
120 0.001996
130 0.00205
139 0.002
143 0.002027
144 0.0
141 0.001029
139 0.001073
139 0.002028
141 0.001032
146 0.001
152 0.002043
156 0.001046
157 0.001021
159 0.000998
161 0.001979
161 0.001005
162 0.001028
164 0.002029
165 0.001984
155 0.002032
123 0.001992
97 0.002028
109 0.002044
122 0.001992
130 0.000999
136 0.002027
139 0.000996
138 0.001022
135 0.001008
132 0.001032
134 0.000997
139 0.000981
143 0.001994
148 0.001995
152 0.002008
155 0.002992
156 0.002998
157 0.001954
159 0.001947
160 0.002994
150 0.002988
126 0.00205
75 0.002
57 0.001029
75 0.001997
94 0.002045
109 0.001996
115 0.001996
117 0.001995
116 0.001967
115 0.002041
116 0.002026
120 0.002003
126 0.00198
132 0.001972
139 0.001986
141 0.003015
144 0.001983
147 0.001996
150 0.001986
151 0.002029
151 0.001996
125 0.002029
45 0.002043
27 0.001989
54 0.002003
75 0.002021
85 0.001993
95 0.003023
101 0.002998
106 0.002996
107 0.003018
111 0.002021
116 0.001991
122 0.002006
129 0.001985
135 0.002022
140 0.001969
143 0.002963
144 0.002992
148 0.002995
151 0.003
155 0.003017
157 0.00299
127 0.001996
56 0.002007
15 0.002024
27 0.00397
57 0.003984
84 0.00199
93 0.001998
102 0.001995
106 0.003029
108 0.00299
110 0.003024
115 0.00303
125 0.002049
131 0.001988
138 0.002008
142 0.003964
146 0.003995
149 0.000998
152 0.001019
154 0.001019
156 0.003991
159 0.003992
164 0.003052
161 0.003001
101 0.001022
38 0.001002
33 0.001046
62 0.004023
88 0.003986
103 0.00399
115 0.0
119 0.001032
120 0.001004
119 0.003985
122 0.000997
130 0.003985
136 0.003989
144 0.001915
149 0.001034
152 0.001008
154 0.003991
156 0.003985
159 0.000999
161 0.003027
163 0.002006
168 0.001932
169 0.000997
155 0.004987
101 0.005014
51 0.000962
70 0.000965
96 0.000978
114 0.004947
125 0.004999
132 0.001004
132 0.001002
129 0.001005
130 0.001
134 0.000999
141 0.004988
146 0.00503
152 0.0
155 0.0
158 0.002006
161 0.004978
162 0.004989
165 0.0
168 0.0
170 0.0
172 0.001999
152 0.0
102 0.004987
72 0.005995
92 0.001992
113 0.001028
125 0.001996
133 0.004981
136 0.004987
135 0.0
132 0.00096
130 0.000988
137 0.001994
142 0.001057
148 0.005984
152 0.006017
155 0.001008
158 0.001014
160 0.001005
161 0.005979
162 0.005977
165 0.002
167 0.001988
165 0.000999
109 0.002024
78 0.001056
88 0.005979
109 0.006034
127 0.002047
136 0.002025
140 0.00103
140 0.0
136 0.005987
134 0.005986
135 0.001009
139 0.000986
149 0.00299
152 0.002011
156 0.002058
157 0.006012
160 0.005982
162 0.002026
162 0.001993
164 0.001001
166 0.005983
164 0.005979
121 0.001012
77 0.000999
88 0.001999
108 0.002037
121 0.002055
128 0.006984
134 0.006976
134 0.001997
129 0.001996
128 0.000987
130 0.005991
135 0.005978
141 0.001991
146 0.001996
152 0.001997
153 0.001995
155 0.002992
157 0.007008
158 0.006975
161 0.002
156 0.002021
126 0.002003
76 0.007011
66 0.006965
93 0.001998
109 0.003007
125 0.003002
129 0.003018
128 0.002992
125 0.006976
124 0.006974
127 0.002968
131 0.002
138 0.002976
142 0.007958
146 0.00795
150 0.00297
153 0.00795
155 0.002979
157 0.002951
155 0.002967
129 0.007039
83 0.006973
73 0.002999
93 0.002991
110 0.003997
123 0.007955
129 0.007963
131 0.002002
126 0.00797
125 0.002993
128 0.002987
134 0.002993
138 0.003023
144 0.007969
149 0.007978
150 0.003981
153 0.002992
155 0.003038
157 0.007955
158 0.007972
116 0.007979
80 0.007976
79 0.004023
99 0.003007
114 0.00299
126 0.007959
131 0.007977
134 0.00301
131 0.003974
128 0.003004
128 0.007017
132 0.007015
141 0.006988
146 0.007954
149 0.002995
152 0.002986
153 0.003991
156 0.00795
158 0.007948
149 0.003957
117 0.004015
83 0.004001
89 0.006982
108 0.006989
126 0.006952
133 0.00695
135 0.004009
134 0.004025
130 0.003982
128 0.007007
131 0.006984
136 0.005003
147 0.003988
152 0.001994
159 0.006981
164 0.007007
168 0.00596
169 0.006992
150 0.00493
86 0.00402
35 0.004954
52 0.007013
84 0.007014
104 0.003982
117 0.005013
125 0.004999
127 0.006009
123 0.006039
120 0.006027
126 0.005978
133 0.004936
143 0.00498
149 0.004965
156 0.006017
160 0.005987
163 0.003995
165 0.004005
167 0.003964
149 0.006961
70 0.00598
0 0.003943
19 0.005991
57 0.005979
81 0.00502
94 0.00395
104 0.004996
107 0.005987
103 0.006008
104 0.005003
108 0.004994
117 0.004987
131 0.005994
143 0.005946
150 0.00499
153 0.004985
158 0.005986
161 0.005954
165 0.004988
170 0.006007
152 0.005019
31 0.005
0 0.004986
0 0.00501
19 0.004988
67 0.004988
81 0.005018
92 0.005035
97 0.004986
99 0.004983
102 0.004974
109 0.004974
119 0.005945
135 0.005018
144 0.004015
149 0.005003
159 0.004976
161 0.004985
167 0.005043
169 0.005015
173 0.004988
179 0.004988
182 0.004932
185 0.005055
163 0.004976
31 0.004969
43 0.004985
52 0.004987
89 0.003997
100 0.004026
107 0.003982
112 0.004025
116 0.004982
117 0.005015
118 0.00498
122 0.004986
127 0.005014
134 0.004991
139 0.003984
141 0.00499
147 0.003982
148 0.004011
150 0.00403
151 0.004021
154 0.003987
156 0.004987
158 0.004008
161 0.004023
159 0.003024
137 0.003024
77 0.004044
68 0.004002
99 0.003997
112 0.00399
120 0.00399
125 0.003996
128 0.003984
127 0.004022
126 0.003943
129 0.003993
132 0.002994
138 0.002992
144 0.004015
147 0.00297
151 0.00399
152 0.003987
154 0.003994
155 0.00402
157 0.004034
159 0.003986
161 0.00399
163 0.003988
160 0.00399
140 0.002992
92 0.002985
90 0.003977
115 0.002981
124 0.003027
130 0.002991
133 0.002993
134 0.00305
131 0.003004
130 0.002981
132 0.003017
136 0.002027
140 0.002991
146 0.003013
148 0.002984
159 0.003001
161 0.002992
163 0.002991
164 0.003025
165 0.003098
169 0.003026
170 0.002998
167 0.002963
140 0.002988
100 0.002992
92 0.002989
110 0.001977
131 0.002027
138 0.002009
142 0.003008
141 0.003053
138 0.003023
136 0.002995
137 0.002984
142 0.003023
146 0.002992
151 0.002988
156 0.00299
158 0.001982
162 0.002027
162 0.002048
165 0.002993
165 0.002991
155 0.002972
114 0.002993
96 0.001994
108 0.002024
121 0.001992
131 0.002048
138 0.002027
143 0.002044
141 0.002059
137 0.002027
137 0.002016
140 0.002
145 0.001997
149 0.001995
154 0.001996
157 0.002034
158 0.002026
161 0.000998
162 0.001019
162 0.001995
142 0.001981
92 0.002045
86 0.002037
101 0.002037
116 0.001993
125 0.000992
133 0.002055
136 0.001028
133 0.000966
131 0.000996
129 0.001037
135 0.000998
140 0.000998
145 0.002042
149 0.001976
164 0.001012
167 0.002081
168 0.002041
172 0.002002
164 0.000975
121 0.000997
61 0.000998
48 0.00102
92 0.000998
109 0.000965
123 0.000963
130 0.002049
127 0.002022
124 0.000961
119 0.000997
125 0.002029
133 0.002032
140 0.000993
147 0.0
153 0.0
160 0.0
162 0.0
166 0.000997
154 0.001003
102 0.000947
47 0.000997
47 0.000994
86 0.000967
107 0.001007
120 0.0
130 0.0
130 0.0
124 0.0
122 0.0
131 0.000998
139 0.0
146 0.000992
154 0.000997
158 0.000997
162 0.0
168 0.0
165 0.0
129 0.0
59 0.0
50 0.0
84 0.0
110 0.0
129 0.0
136 0.00203
136 0.000984
130 0.002044
127 0.000998
133 0.000991
141 0.000965
150 0.001979
155 0.00203
164 0.001026
167 0.001031
172 0.001022
169 0.001968
123 0.002016
45 0.001032
24 0.001042
60 0.00199
108 0.002005
126 0.002028
138 0.00199
141 0.001996
135 0.002994
133 0.002048
138 0.002021
149 0.001988
156 0.000999
163 0.002031
168 0.002038
172 0.002032
176 0.002044
177 0.001991
180 0.001989
183 0.001995
171 0.002045
101 0.001029
26 0.002024
47 0.002029
93 0.002034
122 0.002005
137 0.001992
146 0.001003
146 0.00099
139 0.002009
136 0.002029
145 0.002
154 0.001996
162 0.001979
168 0.001032
175 0.001994
178 0.001996
179 0.002005
180 0.002059
184 0.002001
181 0.002075
140 0.002027
57 0.002047
50 0.002023
95 0.002047
124 0.001996
141 0.001987
150 0.002993
150 0.001995
145 0.002026
139 0.002018
141 0.002054
148 0.002069
160 0.002011
168 0.001993
175 0.001984
177 0.001969
180 0.002032
183 0.002994
167 0.002993
45 0.002993
0 0.003052
18 0.002018
70 0.002984
102 0.002022
119 0.001995
131 0.001997
131 0.002992
127 0.001995
126 0.001995
138 0.002027
146 0.002993
158 0.003016
167 0.002961
170 0.002993
174 0.002993
175 0.002995
179 0.003991
181 0.003045
90 0.003028
0 0.003956
0 0.002992
0 0.001969
44 0.002023
74 0.002995
93 0.002979
108 0.001017
111 0.001999
111 0.002015
112 0.00299
122 0.002998
144 0.002991
156 0.004035
163 0.002992
169 0.002983
174 0.00296
175 0.004018
178 0.00399
183 0.001965
186 0.000965
187 0.002024
138 0.002952
0 0.002964
7 0.003035
42 0.003979
81 0.001951
93 0.001969
102 0.002005
110 0.003991
115 0.003993
117 0.001997
119 0.003989
123 0.00399
134 0.000996
142 0.002993
149 0.001994
152 0.00393
154 0.004031
156 0.00196
158 0.00196
160 0.002014
162 0.003945
164 0.004023
166 0.000997
168 0.00096
169 0.001996
171 0.003964
171 0.000998
146 0.004022
61 0.004987
0 0.001949
75 0.0
96 0.000999
108 0.003989
113 0.003955
118 0.0
122 0.000985
123 0.001006
126 0.0
128 0.0
131 0.004991
135 0.004982
138 0.0
140 0.0
141 0.0
143 0.004987
143 0.005027
144 0.001001
146 0.000988
146 0.001001
148 0.0
148 0.0
149 0.004986
146 0.005017
108 0.0
81 0.002993
84 0.003027
103 0.004995
115 0.005986
124 0.001006
128 0.000999
130 0.0
131 0.000999
131 0.0
133 0.005986
136 0.004989
139 0.0
141 0.0
143 0.0
144 0.006027
144 0.005014
145 0.0
146 0.0
146 0.0
148 0.002001
148 0.001999
149 0.005999
149 0.005985
136 0.0
108 0.001996
95 0.0
105 0.006034
119 0.006024
129 0.000974
132 0.0
134 0.001006
134 0.0
134 0.001994
134 0.000989
135 0.005984
138 0.005985
140 0.001996
142 0.002992
143 0.001997
156 0.006016
157 0.005976
158 0.001996
159 0.0
161 0.002004
161 0.002018
162 0.001995
163 0.005984
161 0.006978
128 0.001939
98 0.000985
103 0.000949
120 0.005984
132 0.005997
140 0.002002
143 0.002991
143 0.001992
140 0.002083
138 0.002022
139 0.006985
142 0.005958
146 0.001031
148 0.000999
151 0.001955
152 0.005937
153 0.006981
154 0.001991
154 0.002002
155 0.001995
156 0.002005
156 0.002011
147 0.007969
117 0.00798
92 0.001998
105 0.001029
120 0.002027
130 0.007958
133 0.006965
137 0.001994
137 0.001991
133 0.002992
133 0.001989
135 0.002005
137 0.007005
140 0.007013
144 0.002009
145 0.00299
147 0.002004
147 0.007009
148 0.007977
149 0.001994
148 0.007972
134 0.002945
94 0.002985
70 0.002993
87 0.007944
99 0.007041
114 0.007923
119 0.003045
122 0.003039
124 0.003998
123 0.006978
122 0.007945
124 0.007988
127 0.007979
134 0.002982
138 0.003993
141 0.002963
144 0.007982
146 0.007957
147 0.004
150 0.003044
151 0.002992
134 0.006976
78 0.007015
31 0.00703
57 0.006946
82 0.002995
96 0.002992
104 0.002993
111 0.006977
113 0.007979
112 0.003035
113 0.003003
116 0.003031
123 0.007017
129 0.007031
137 0.006953
141 0.006983
143 0.002994
145 0.002983
146 0.002986
149 0.007053
151 0.007923
152 0.002983
156 0.003973
147 0.003956
75 0.006995
21 0.007016
46 0.007015
75 0.007024
90 0.004014
100 0.004008
106 0.003989
110 0.006984
111 0.006995
112 0.004928
115 0.00402
121 0.005028
130 0.005965
135 0.005991
141 0.006019
144 0.006983
146 0.004986
148 0.004017
150 0.003992
153 0.007015
156 0.005983
154 0.004954
132 0.004959
73 0.004991
41 0.005982
66 0.005984
101 0.005985
112 0.005968
118 0.004964
122 0.00502
121 0.005031
120 0.006009
123 0.004988
128 0.00499
134 0.004984
139 0.003986
144 0.003962
147 0.00596
151 0.004005
153 0.005985
155 0.005987
157 0.004987
159 0.005021
162 0.004034
154 0.004975
114 0.005952
61 0.004988
66 0.005012
90 0.004021
113 0.005026
126 0.005986
130 0.006035
129 0.005018
126 0.005016
126 0.005018
129 0.00501
135 0.005013
140 0.005012
145 0.005022
148 0.004983
150 0.004976
153 0.004982
154 0.005041
156 0.00502
158 0.004999
159 0.004982
144 0.004981
117 0.004957
73 0.004022
84 0.004996
110 0.005054
123 0.004978
129 0.004986
133 0.004991
133 0.003958
130 0.004981
130 0.005018
135 0.004947
140 0.005007
144 0.003988
148 0.005019
152 0.004015
153 0.003988
155 0.003998
156 0.004943
160 0.003989
160 0.004956
136 0.004988
83 0.004954
55 0.00499
76 0.004999
98 0.004953
112 0.005023
119 0.003991
124 0.003992
124 0.00399
121 0.00399
123 0.003986
128 0.003959
134 0.003986
139 0.003967
144 0.004009
148 0.003024
149 0.003027
151 0.003028
153 0.004031
154 0.004018
157 0.004032
147 0.004043
66 0.003989
49 0.003985
71 0.003998
95 0.003025
110 0.004014
120 0.003046
124 0.002991
124 0.003992
122 0.003024
122 0.003023
127 0.002988
132 0.002994
141 0.00399
145 0.003989
148 0.002992
150 0.003997
153 0.004025
155 0.004025
156 0.003041
157 0.002999
143 0.002992
99 0.002994
66 0.002993
84 0.003005
114 0.00296
122 0.002954
129 0.002993
131 0.003018
129 0.002048
125 0.003026
127 0.00198
131 0.002019
137 0.003036
142 0.003024
147 0.002984
149 0.003022
153 0.003023
154 0.001995
153 0.002983
130 0.00304
85 0.001995
71 0.002073
91 0.001995
109 0.002034
120 0.002051
129 0.001997
133 0.001961
131 0.002005
128 0.003036
129 0.002028
134 0.002028
139 0.002021
144 0.002048
148 0.001977
151 0.002021
153 0.002017
155 0.002049
157 0.00204
139 0.002029
60 0.001974
35 0.002029
73 0.002999
95 0.002028
107 0.003004
116 0.002024
120 0.002017
119 0.002994
118 0.002066
119 0.001995
124 0.002056
131 0.001996
141 0.001035
145 0.002025
148 0.002025
150 0.002995
152 0.001983
154 0.002021
149 0.000998
78 0.000997
5 0.001008
0 0.000962
24 0.000998
55 0.000997
82 0.002081
93 0.000998
101 0.001988
103 0.002011
104 0.001991
109 0.000998
117 0.001993
128 0.001998
135 0.001013
140 0.00101
144 0.001017
147 0.000997
151 0.00095
153 0.001994
157 0.001029
160 0.001995
147 0.001007
70 0.0
0 0.001036
0 0.000995
6 0.000997
41 0.000997
58 0.000999
70 0.000989
89 0.001023
94 0.0
99 0.001
107 0.0
118 0.0
130 0.0
138 0.0
146 0.0
151 0.0
155 0.0
157 0.000998
160 0.0
166 0.001003
168 0.001004
171 0.001012
175 0.000997
177 0.000998
179 0.0
182 0.0
178 0.0
83 0.0
0 0.0
48 0.0
70 0.0
102 0.0
109 0.002027
116 0.00203
120 0.001975
121 0.001987
122 0.002028
125 0.002029
130 0.002035
138 0.001992
141 0.001984
144 0.00298
146 0.002026
149 0.001029
149 0.002032
151 0.002025
152 0.001038
154 0.002026
155 0.00203
156 0.002027
157 0.001995
158 0.002002
158 0.00203
148 0.002037
106 0.002036
69 0.002036
92 0.00197
112 0.00202
126 0.001029
131 0.003063
134 0.001992
134 0.00203
133 0.002026
134 0.002029
137 0.002024
141 0.001999
145 0.002029
149 0.002031
150 0.002031
151 0.002025
152 0.001994
152 0.002029
153 0.002028
154 0.002023
155 0.00196
156 0.002001
157 0.002999
157 0.002994
117 0.001982
83 0.00204
85 0.001994
106 0.002031
125 0.002033
132 0.002024
136 0.002038
138 0.001994
137 0.002043
136 0.002043
137 0.00205
141 0.001996
146 0.002009
156 0.001949
158 0.002045
159 0.002032
161 0.00199
161 0.001987
162 0.003041
163 0.002031
164 0.002041
165 0.002014
166 0.002045
164 0.002045
94 0.002011
48 0.001998
56 0.001994
95 0.002985
108 0.002028
122 0.00396
128 0.003026
132 0.002975
132 0.003031
132 0.002993
134 0.001995
139 0.003945
146 0.002056
150 0.00193
153 0.002991
154 0.00299
156 0.00205
157 0.003018
157 0.002952
159 0.001962
160 0.002993
161 0.002992
162 0.003989
155 0.003052
73 0.003969
49 0.003995
80 0.002022
104 0.001948
117 0.001985
124 0.002994
129 0.003017
132 0.002
131 0.001983
132 0.002022
135 0.002993
140 0.003036
146 0.002973
149 0.003028
151 0.002982
154 0.002015
155 0.002048
156 0.00399
157 0.003994
159 0.002009
160 0.001969
161 0.001945
162 0.003016
156 0.002997
88 0.003019
71 0.003989
89 0.0
117 0.002
127 0.002019
132 0.002044
136 0.004023
137 0.003995
135 0.001938
135 0.002022
138 0.002009
142 0.00406
147 0.000997
150 0.003022
151 0.003021
153 0.002
154 0.001043
155 0.001048
156 0.00399
157 0.003952
159 0.002017
157 0.002052
140 0.002038
105 0.004024
103 0.001996
120 0.004957
130 0.003992
137 0.001994
141 0.002012
141 0.000976
140 0.004987
138 0.005013
138 0.0
141 0.001009
144 0.002992
147 0.004985
150 0.00196
152 0.004026
152 0.00399
153 0.001956
154 0.001027
155 0.001049
155 0.004988
143 0.004987
95 0.000998
84 0.0
99 0.0
122 0.001007
129 0.000999
133 0.004982
134 0.004981
133 0.0
132 0.0
132 0.000998
135 0.004984
138 0.004971
142 0.0
145 0.000987
146 0.002012
148 0.0
149 0.000972
150 0.004987
151 0.006052
149 0.002028
129 0.0
52 0.003013
16 0.006038
41 0.006017
83 0.00198
100 0.002
110 0.001976
119 0.002002
120 0.002006
119 0.005985
120 0.006003
125 0.006001
134 0.0
140 0.002993
145 0.00399
149 0.005981
152 0.006982
155 0.001995
157 0.002004
161 0.003014
162 0.002027
157 0.001991
110 0.005984
36 0.005978
27 0.00299
62 0.002987
90 0.002071
105 0.00599
113 0.006028
120 0.002003
121 0.002004
121 0.001998
125 0.00202
131 0.002033
138 0.006982
144 0.006999
149 0.003002
152 0.001998
156 0.002035
157 0.005984
159 0.005985
162 0.002027
164 0.001986
166 0.001996
141 0.002032
79 0.001987
47 0.006984
66 0.007018
101 0.003023
116 0.002027
125 0.002032
130 0.007042
130 0.00799
128 0.001974
127 0.002031
134 0.001993
140 0.002013
146 0.001995
150 0.007014
154 0.00698
157 0.001986
159 0.002
161 0.002991
162 0.007051
164 0.006971
167 0.002987
167 0.002031
121 0.00201
73 0.002002
73 0.002962
103 0.007974
119 0.007993
128 0.003027
134 0.002022
136 0.003035
135 0.007983
131 0.007955
132 0.007966
135 0.001984
142 0.006976
149 0.002999
153 0.002969
155 0.002989
158 0.007931
159 0.007979
160 0.002969
163 0.003031
165 0.003054
158 0.007012
137 0.007951
63 0.007963
81 0.007959
103 0.003005
117 0.002988
125 0.003018
132 0.007948
132 0.007941
129 0.002996
128 0.003032
130 0.003002
136 0.007007
141 0.006981
149 0.007014
152 0.006982
154 0.003989
156 0.003019
157 0.002978
160 0.006981
162 0.006998
158 0.00198
128 0.003045
66 0.001994
49 0.006984
74 0.007988
105 0.007014
114 0.007009
119 0.004023
121 0.004015
120 0.004021
118 0.006981
121 0.007028
126 0.003992
133 0.003987
138 0.002992
144 0.007023
147 0.006983
150 0.00696
152 0.006958
154 0.003999
157 0.003992
154 0.003989
106 0.006971
53 0.006027
50 0.004957
74 0.004953
95 0.004022
111 0.007023
119 0.005985
121 0.005974
119 0.005996
119 0.003987
123 0.00399
128 0.004976
135 0.006981
140 0.006993
144 0.003991
147 0.004967
150 0.003962
152 0.004001
154 0.005988
157 0.003994
155 0.005984
124 0.004989
68 0.003999
51 0.004996
73 0.003985
101 0.005976
113 0.004987
121 0.004926
124 0.00495
124 0.005015
120 0.005954
121 0.003948
129 0.005953
135 0.006
141 0.004987
144 0.004986
147 0.003988
151 0.005946
152 0.005035
154 0.004971
157 0.005022
157 0.004987
126 0.005019
61 0.004963
69 0.005055
94 0.004991
110 0.004985
121 0.005001
129 0.005045
130 0.004982
127 0.005994
124 0.005003
127 0.004971
133 0.004986
139 0.005012
147 0.005014
151 0.004985
153 0.004023
156 0.003984
157 0.004017
158 0.00402
161 0.004957
155 0.004034
82 0.004929
19 0.00495
20 0.004987
66 0.004997
97 0.004972
109 0.00502
116 0.005032
117 0.004
115 0.004988
115 0.003969
120 0.004021
128 0.004019
138 0.004003
144 0.003991
148 0.003989
153 0.003996
155 0.004008
157 0.003988
159 0.003991
158 0.004988
122 0.004999
59 0.004995
0 0.004021
0 0.005026
40 0.004043
77 0.004005
91 0.003994
107 0.004001
108 0.003958
109 0.004952
112 0.004025
119 0.003037
132 0.00299
140 0.004001
146 0.002991
150 0.002992
154 0.002992
158 0.002993
160 0.004017
165 0.004008
167 0.003976
149 0.003989
65 0.004015
0 0.003969
5 0.003023
53 0.002979
84 0.003025
101 0.003021
114 0.003002
120 0.002986
120 0.002993
123 0.00299
131 0.002988
141 0.00303
148 0.003035
155 0.004044
161 0.003016
164 0.002986
166 0.003022
168 0.003025
170 0.003049
174 0.003
176 0.002996
144 0.002983
55 0.002986
5 0.003025
31 0.00199
76 0.001997
110 0.001992
123 0.001978
133 0.001984
134 0.002034
131 0.002993
129 0.003005
135 0.002956
150 0.003007
157 0.003009
162 0.002986
166 0.002027
168 0.002056
171 0.002014
173 0.001985
175 0.002001
152 0.00196
74 0.002031
11 0.001996
42 0.002
96 0.002029
122 0.003001
134 0.002039
139 0.003041
140 0.002057
136 0.002039
140 0.002992
148 0.001998
157 0.002021
164 0.002028
169 0.001995
174 0.001995
177 0.002032
179 0.001995
181 0.001955
183 0.002034
185 0.002018
164 0.002061
22 0.002026
38 0.002005
53 0.002024
85 0.001995
105 0.001995
117 0.002031
125 0.002031
127 0.002021
127 0.001987
128 0.001979
133 0.002047
139 0.000997
146 0.00301
149 0.000997
151 0.000998
153 0.000997
155 0.002027
157 0.001994
158 0.002006
159 0.000996
161 0.001
149 0.001014
90 0.001045
38 0.001031
50 0.001007
84 0.001002
106 0.002073
117 0.0
123 0.0
130 0.00101
130 0.001995
131 0.001991
136 0.001995
142 0.0
148 0.0
152 0.0
155 0.001007
157 0.0
158 0.001032
159 0.001012
161 0.000998
162 0.000997
163 0.000997
165 0.000995
160 0.00099
115 0.000997
52 0.0
45 0.0
88 0.0
114 0.0
126 0.0
133 0.0
137 0.0
137 0.0
137 0.0
140 0.0
147 0.000972
152 0.000997
155 0.00098
157 0.000996
159 0.000958
161 0.0
162 0.0
163 0.0
163 0.0
165 0.0
166 0.0
166 0.0
131 0.0
75 0.001974
64 0.002051
104 0.002977
120 0.002025
136 0.001983
141 0.001995
144 0.002035
144 0.002027
143 0.001986
145 0.002024
150 0.000981
155 0.00299
157 0.001979
159 0.001989
160 0.002019
161 0.002034
162 0.0
162 0.002035
163 0.001993
164 0.002022
163 0.002032
141 0.002019
96 0.002002
89 0.002005
113 0.002997
131 0.002995
139 0.003055
145 0.002987
146 0.003027
146 0.003024
144 0.002033
144 0.002028
149 0.001985
152 0.002028
155 0.001976
157 0.002006
157 0.002027
158 0.002031
159 0.001991
160 0.003011
157 0.002022
132 0.00207
92 0.001994
85 0.001993
120 0.002987
132 0.002998
138 0.002026
142 0.001976
143 0.001987
142 0.001984
140 0.002032
142 0.00204
146 0.003001
149 0.002011
151 0.00297
154 0.00297
154 0.002994
155 0.002993
156 0.002994
153 0.002997
124 0.002994
72 0.00301
56 0.002041
81 0.002023
106 0.003003
122 0.002043
128 0.002025
132 0.002023
132 0.002032
131 0.002024
132 0.002002
136 0.001985
141 0.002997
144 0.002961
146 0.002951
147 0.00296
149 0.002968
149 0.003046
150 0.002999
145 0.002957
106 0.002971
48 0.001985
39 0.002024
66 0.002032
98 0.003008
110 0.002967
119 0.001983
121 0.002992
123 0.002971
123 0.003001
124 0.002992
131 0.00298
136 0.002994
139 0.003014
141 0.00297
143 0.002981
145 0.002992
146 0.002993
147 0.002967
148 0.003003
149 0.002993
144 0.003019
103 0.002989
30 0.002998
50 0.003013
89 0.002029
104 0.001981
112 0.002011
118 0.004015
121 0.003991
122 0.003026
123 0.002068
127 0.00204
131 0.003029
136 0.003032
141 0.003022
144 0.003988
145 0.002981
146 0.002995
148 0.001993
149 0.001988
150 0.004021
151 0.004015
147 0.002002
111 0.002017
56 0.00204
47 0.004036
92 0.002017
109 0.003988
119 0.004016
126 0.00198
128 0.002957
128 0.002031
128 0.003993
131 0.003989
136 0.0
141 0.003043
144 0.001008
146 0.003961
148 0.002029
150 0.004988
150 0.004992
152 0.001003
153 0.000999
154 0.002009
155 0.004989
148 0.005015
94 0.002
65 0.00299
79 0.001959
104 0.003989
124 0.001992
130 0.003982
134 0.004997
133 0.0
132 0.001012
133 0.001004
137 0.004987
140 0.004997
144 0.000994
147 0.001004
148 0.000997
150 0.0
151 0.001002
152 0.004968
152 0.004985
154 0.0
150 0.0
125 0.001036
94 0.005985
94 0.005984
117 0.0
129 0.001
135 0.0
140 0.002027
139 0.001009
137 0.005974
136 0.005982
138 0.000944
141 0.000996
144 0.002993
146 0.004987
148 0.004998
149 0.001004
150 0.002983
151 0.000962
152 0.002033
143 0.0
114 0.0
91 0.006019
100 0.00595
120 0.001991
129 0.002025
134 0.0
137 0.006003
138 0.00501
136 0.001991
135 0.001995
138 0.002001
140 0.0
143 0.000999
145 0.005978
146 0.005978
147 0.001982
148 0.001986
149 0.002017
150 0.006029
141 0.006981
89 0.001993
66 0.003025
94 0.0
109 0.001995
118 0.002017
123 0.005984
126 0.005985
127 0.001004
126 0.002
127 0.001954
129 0.006969
133 0.007024
137 0.002003
139 0.002992
142 0.002004
143 0.001997
144 0.001994
145 0.00698
147 0.006984
143 0.001995
111 0.001995
64 0.001998
52 0.006988
80 0.007985
98 0.001995
108 0.002991
118 0.002993
120 0.001995
122 0.002967
122 0.006981
124 0.006981
129 0.001987
132 0.001995
136 0.00202
139 0.00699
141 0.006972
143 0.001995
144 0.001995
146 0.001978
147 0.001989
148 0.002003
149 0.007003
141 0.00797
82 0.002003
53 0.002021
65 0.001997
88 0.00701
103 0.006981
111 0.007991
119 0.002991
122 0.007978
123 0.002003
124 0.001967
127 0.002995
132 0.006948
136 0.007952
138 0.002961
141 0.002949
143 0.002948
144 0.007961
145 0.007958
147 0.003028
148 0.007973
150 0.002987
150 0.003029
139 0.001997
85 0.006989
68 0.007946
84 0.002995
104 0.002993
115 0.003954
124 0.007031
128 0.006983
129 0.006969
128 0.00697
129 0.001994
132 0.001978
136 0.001996
140 0.007978
143 0.007977
145 0.002991
146 0.002963
147 0.003011
149 0.007979
150 0.007013
151 0.006981
154 0.00695
126 0.001996
86 0.002991
84 0.002981
111 0.006982
124 0.005986
132 0.004037
137 0.002995
139 0.003998
138 0.005967
136 0.00598
138 0.006978
142 0.007022
145 0.003989
149 0.002992
151 0.002995
153 0.005984
155 0.006977
155 0.002965
156 0.003015
157 0.003998
153 0.006016
128 0.006015
93 0.006008
108 0.005953
124 0.001992
133 0.002992
138 0.00297
142 0.006983
142 0.006984
139 0.005982
138 0.002984
138 0.00399
142 0.003993
146 0.005985
150 0.003966
152 0.005983
153 0.005994
155 0.003988
156 0.002024
152 0.002992
124 0.004987
80 0.006016
90 0.004001
110 0.004025
123 0.003992
133 0.005986
137 0.004988
137 0.006019
134 0.006015
134 0.003998
135 0.003978
139 0.004002
143 0.006016
146 0.005018
148 0.00502
149 0.004952
151 0.005012
152 0.00498
146 0.004988
106 0.004982
53 0.005954
48 0.003034
73 0.004033
96 0.004027
111 0.005971
118 0.004984
123 0.004988
123 0.004986
122 0.004952
123 0.005001
128 0.004982
134 0.005012
138 0.005014
142 0.004978
144 0.004965
145 0.003982
147 0.004989
149 0.004987
150 0.002992
145 0.0
107 0.004985
30 0.005983
47 0.004984
75 0.005018
93 0.004988
106 0.005003
113 0.004981
115 0.004972
117 0.004995
117 0.005013
122 0.003983
128 0.004031
133 0.00399
140 0.004001
142 0.003937
145 0.004026
147 0.003989
148 0.003993
150 0.003975
152 0.004016
154 0.003984
146 0.004023
99 0.004018
30 0.004999
31 0.004959
78 0.003959
101 0.003991
111 0.003995
117 0.003968
120 0.003989
121 0.004
122 0.004
126 0.003015
131 0.003989
137 0.003991
142 0.003035
145 0.00397
149 0.002961
150 0.004964
152 0.002959
153 0.003991
155 0.004048
157 0.003948
159 0.004022
156 0.00299
127 0.003934
72 0.00402
57 0.003989
83 0.003007
113 0.003982
122 0.002992
127 0.002946
129 0.002992
129 0.003017
129 0.002981
131 0.002996
136 0.002983
140 0.003059
144 0.003027
148 0.003032
150 0.003975
153 0.002991
154 0.003004
155 0.003024
156 0.003017
157 0.003034
159 0.002991
154 0.002999
124 0.002982
82 0.002993
80 0.003063
107 0.001995
120 0.002991
133 0.002966
136 0.002978
136 0.002992
134 0.002994
133 0.002993
136 0.002959
140 0.002956
144 0.002969
147 0.001996
149 0.00303
152 0.002996
153 0.002948
155 0.001961
155 0.002994
157 0.001954
158 0.00202
148 0.002026
116 0.00202
87 0.003023
100 0.00202
115 0.00203
126 0.002018
132 0.002028
137 0.002046
136 0.002027
133 0.002002
134 0.002023
137 0.001998
141 0.001987
144 0.002028
147 0.001992
150 0.002033
150 0.001984
152 0.002056
153 0.002025
154 0.002018
155 0.001994
156 0.002005
148 0.002012
116 0.002011
89 0.002028
94 0.000972
115 0.001994
125 0.001995
131 0.00203
135 0.001995
136 0.002019
133 0.001022
132 0.001036
135 0.000962
139 0.000969
141 0.001972
144 0.00201
146 0.001955
149 0.001996
150 0.001958
151 0.001972
152 0.00202
153 0.000997
155 0.000998
147 0.000998
111 0.000994
96 0.001035
105 0.000962
119 0.000997
127 0.002027
134 0.001976
137 0.001015
136 0.000986
134 0.000997
132 0.001025
134 0.000999
137 0.000995
141 0.000997
144 0.000952
146 0.000997
148 0.00098
148 0.000975
149 0.000981
151 0.0
151 0.0
145 0.0
124 0.0
105 0.0
115 0.0
124 0.0
132 0.0
136 0.001024
138 0.001007
145 0.000997
141 0.000951
139 0.0
140 0.0
146 0.0
150 0.0
158 0.0
162 0.0
165 0.0
168 0.0
169 0.0
158 0.0
112 0.0
65 0.0
72 0.002995
96 0.000997
114 0.003025
124 0.003027
136 0.0
135 0.001965
130 0.0
129 0.0
131 0.002
137 0.002004
143 0.001975
149 0.001973
154 0.00199
157 0.001994
160 0.002038
162 0.002041
157 0.001998
110 0.002995
35 0.002943
20 0.002958
51 0.002969
79 0.002944
94 0.002943
106 0.002948
113 0.00296
112 0.003028
110 0.002018
110 0.002025
120 0.002015
127 0.001992
135 0.00103
143 0.003059
147 0.002035
150 0.001982
152 0.003989
155 0.001952
157 0.002988
135 0.002981
22 0.00297
0 0.002958
13 0.002953
49 0.003
74 0.001983
90 0.001972
98 0.001971
101 0.001993
100 0.002003
102 0.001998
110 0.002013
117 0.002999
127 0.002005
134 0.002055
144 0.002991
149 0.002989
151 0.002977
154 0.003005
158 0.002988
160 0.00299
143 0.002992
71 0.001981
0 0.002033
4 0.002032
44 0.001994
84 0.001998
97 0.001992
105 0.001993
108 0.002025
107 0.002029
111 0.002982
118 0.001985
126 0.002996
135 0.002999
142 0.00296
150 0.002989
154 0.00402
159 0.002967
162 0.003022
165 0.002994
161 0.002038
118 0.001963
21 0.002951
21 0.002005
57 0.00199
88 0.002968
106 0.002985
121 0.002
126 0.002992
121 0.002025
121 0.001964
126 0.001998
134 0.001993
145 0.002975
151 0.002999
157 0.002991
160 0.00299
164 0.002961
167 0.003026
170 0.003001
174 0.002991
144 0.002991
73 0.003998
36 0.00205
65 0.003024
89 0.003948
117 0.003974
130 0.00297
137 0.002977
137 0.002971
131 0.002984
131 0.002994
136 0.00399
149 0.004007
155 0.002992
163 0.00198
166 0.002053
169 0.001976
170 0.003986
175 0.003983
174 0.003996
134 0.002005
65 0.002
41 0.003018
69 0.004052
116 0.002002
132 0.003015
141 0.003961
141 0.000992
138 0.00198
136 0.000989
139 0.003988
145 0.004005
155 0.002004
162 0.00198
166 0.002975
171 0.003959
176 0.000997
176 0.003949
152 0.00399
60 0.002003
41 0.000948
71 0.000957
104 0.004991
123 0.004026
140 0.002
147 0.00195
145 0.002033
142 0.004034
142 0.001994
149 0.003988
156 0.003986
164 0.002961
170 0.002021
173 0.001962
176 0.004986
179 0.004985
149 0.001951
72 0.001998
31 0.002996
59 0.004989
113 0.001997
129 0.005948
139 0.004992
142 0.000981
137 0.002993
132 0.002004
134 0.004982
140 0.004985
151 0.002011
158 0.001977
162 0.002943
170 0.001989
172 0.000976
154 0.004965
75 0.005976
0 0.001002
26 0.001008
72 0.0
102 0.004987
120 0.004987
131 0.002005
131 0.000998
128 0.0
130 0.001001
139 0.001013
147 0.00199
155 0.005983
162 0.004978
168 0.0
172 0.0
169 0.0
119 0.00599
7 0.005983
0 0.0
15 0.000954
84 0.001032
104 0.001006
118 0.0
121 0.005984
120 0.005983
121 0.000983
129 0.0
140 0.00095
149 0.006015
156 0.006001
165 0.002966
169 0.003996
170 0.002992
118 0.001982
8 0.003012
44 0.007035
66 0.007024
100 0.002993
114 0.002997
124 0.0
128 0.005935
129 0.00595
128 0.0
130 0.000999
138 0.002991
143 0.0
148 0.001029
150 0.006991
153 0.007048
155 0.002026
156 0.0
158 0.0
157 0.006994
134 0.007007
57 0.001968
48 0.002993
96 0.001946
114 0.001991
124 0.001992
130 0.006982
132 0.007007
130 0.001994
129 0.001995
133 0.001993
138 0.006982
144 0.006981
148 0.001969
151 0.00203
155 0.001998
156 0.001994
158 0.002992
142 0.007973
90 0.00799
56 0.0
69 0.003006
97 0.001991
116 0.007041
127 0.00698
136 0.003002
137 0.002997
134 0.006975
135 0.002005
139 0.001989
144 0.002023
150 0.007972
153 0.007965
156 0.003006
158 0.002984
160 0.002961
159 0.007012
137 0.007953
48 0.002996
36 0.007938
82 0.002023
105 0.003003
118 0.002972
129 0.00798
132 0.007983
132 0.002034
132 0.002967
135 0.002983
142 0.007955
148 0.007949
152 0.002969
157 0.006974
159 0.002983
160 0.002998
162 0.001994
164 0.007985
160 0.00798
115 0.002992
34 0.003001
14 0.002999
43 0.007974
88 0.006947
111 0.006977
120 0.006958
126 0.003015
129 0.002996
129 0.001991
133 0.00698
139 0.006995
146 0.002967
152 0.002968
156 0.001991
159 0.007976
161 0.007937
164 0.00695
166 0.007007
167 0.003038
169 0.002992
170 0.003001
173 0.006948
171 0.006968
140 0.002996
53 0.003011
10 0.003011
41 0.006946
78 0.005946
105 0.007129
114 0.00698
122 0.003952
127 0.004987
129 0.004987
132 0.00595
138 0.005991
144 0.006009
151 0.004028
155 0.004013
158 0.00399
162 0.006983
163 0.003961
166 0.006946
167 0.006996
169 0.003989
170 0.00399
172 0.004986
173 0.006012
175 0.005989
175 0.003973
156 0.004958
83 0.003987
26 0.005973
65 0.00299
105 0.005984
118 0.006032
127 0.003962
133 0.003994
136 0.004994
137 0.005986
139 0.006037
143 0.004964
148 0.004989
153 0.001995
158 0.004986
161 0.004987
164 0.005984
165 0.005987
166 0.004987
167 0.004981
169 0.004947
170 0.00495
171 0.004993
173 0.004975
172 0.004965
154 0.005002
79 0.006019
67 0.004985
106 0.004987
124 0.005967
137 0.004997
140 0.004981
144 0.00496
143 0.004988
142 0.005018
145 0.004949
150 0.005037
153 0.004975
157 0.005037
160 0.004964
163 0.005004
163 0.003978
164 0.003992
165 0.004991
167 0.004996
167 0.004996
168 0.005011
169 0.004971
167 0.004979
155 0.004982
102 0.00399
99 0.003989
127 0.003956
138 0.004023
144 0.004017
149 0.003988
149 0.004005
148 0.003996
145 0.004016
146 0.003023
150 0.002985
152 0.00401
157 0.003986
158 0.003976
160 0.004068
160 0.004015
160 0.003976
161 0.004003
162 0.003998
162 0.004007
161 0.003977
145 0.003979
111 0.003989
114 0.003987
135 0.00399
142 0.003019
146 0.002976
148 0.002992
148 0.004026
146 0.004007
143 0.003981
144 0.003973
146 0.003989
148 0.004014
151 0.003987
153 0.003981
155 0.004015
155 0.002986
156 0.002986
152 0.003016
133 0.002995
103 0.002984
109 0.002998
123 0.00299
132 0.002987
137 0.002993
142 0.003989
142 0.002992
138 0.00399
137 0.004012
138 0.003009
140 0.003023
143 0.003042
146 0.003018
147 0.003019
149 0.001971
149 0.001965
150 0.003026
148 0.003019
125 0.003033
61 0.003029
70 0.001982
92 0.001919
107 0.001995
115 0.002032
121 0.00299
123 0.00196
122 0.003001
120 0.002992
120 0.003039
125 0.002992
128 0.002988
134 0.00296
137 0.002023
139 0.001999
140 0.002036
141 0.002001
142 0.002028
135 0.001995
92 0.001996
40 0.001992
34 0.001995
58 0.001997
85 0.002018
99 0.002029
107 0.001981
110 0.001045
110 0.002981
111 0.00303
113 0.001995
120 0.001983
125 0.002026
129 0.001987
133 0.002019
135 0.002028
138 0.00203
139 0.001989
141 0.001994
143 0.001996
144 0.00199
142 0.001987
109 0.000999
21 0.000981
12 0.000972
43 0.000996
72 0.001995
89 0.002028
102 0.001997
109 0.002028
111 0.001995
112 0.001033
115 0.001989
121 0.000997
127 0.000998
134 0.001007
137 0.00098
140 0.000998
142 0.001029
144 0.001001
147 0.002025
148 0.001994
151 0.001977
151 0.002015
128 0.002031
64 0.002049
28 0.001999
59 0.001021
89 0.000997
106 0.001005
116 0.001001
122 0.001004
124 0.001988
124 0.001995
128 0.001992
134 0.001986
139 0.001984
144 0.001985
147 0.0
150 0.000991
152 0.001008
153 0.001022
154 0.000998
156 0.000997
158 0.001033
158 0.000997
122 0.0
66 0.0
55 0.0
83 0.0
108 0.0
122 0.0
133 0.0
135 0.0
134 0.0
132 0.0
136 0.0
140 0.0
146 0.000975
151 0.00097
153 0.0
154 0.001008
156 0.0
157 0.0
157 0.0
158 0.0
160 0.0
161 0.0
146 0.0
101 0.0
76 0.0
102 0.0
122 0.000954
133 0.000967
139 0.000983
142 0.001002
140 0.001028
136 0.002992
135 0.002997
138 0.002024
146 0.002025
149 0.0
152 0.001999
155 0.001985
156 0.002947
157 0.002961
158 0.002978
155 0.002986
121 0.002993
85 0.002985
94 0.002989
116 0.002956
135 0.002946
140 0.002983
143 0.002994
141 0.002998
138 0.003001
138 0.002957
141 0.00295
144 0.001985
149 0.003035
151 0.001994
153 0.001965
155 0.001996
156 0.002991
157 0.00196
157 0.001982
152 0.002993
111 0.002993
32 0.001995
36 0.001996
57 0.002991
93 0.002981
106 0.003
116 0.002004
121 0.002947
122 0.003016
122 0.002986
124 0.002032
128 0.002029
136 0.001984
140 0.001997
143 0.001997
146 0.001996
148 0.002985
149 0.002985
151 0.002998
152 0.002991
148 0.002994
83 0.003004
40 0.002978
26 0.001993
58 0.004016
83 0.003977
102 0.00296
110 0.001987
116 0.00201
119 0.002992
120 0.002025
124 0.002992
130 0.002028
136 0.002025
140 0.001952
145 0.002929
147 0.001983
149 0.002998
151 0.001941
153 0.003003
154 0.001991
155 0.003001
157 0.002987
157 0.003082
126 0.002992
33 0.00296
18 0.002986
36 0.002008
78 0.00197
96 0.001969
106 0.001994
115 0.002961
119 0.002024
121 0.002977
122 0.002
131 0.003003
136 0.003025
143 0.001995
146 0.001997
149 0.002992
151 0.002996
152 0.002992
154 0.00298
155 0.002993
157 0.002992
158 0.002987
156 0.00401
82 0.002981
41 0.002974
64 0.002962
92 0.002956
110 0.002959
120 0.00299
127 0.002989
131 0.002983
130 0.002995
130 0.003002
134 0.003977
140 0.004001
147 0.003022
150 0.00402
153 0.00404
155 0.001995
157 0.001976
157 0.002947
159 0.003992
160 0.003962
162 0.002001
162 0.002028
146 0.001995
96 0.003989
71 0.002992
97 0.00399
116 0.003972
130 0.001995
136 0.001995
138 0.001983
137 0.003999
135 0.003957
137 0.001044
141 0.000997
146 0.000997
149 0.003943
154 0.001995
155 0.003946
156 0.00399
157 0.001012
159 0.001998
160 0.001994
159 0.003997
141 0.003987
96 0.001999
98 0.000971
116 0.000951
130 0.004986
141 0.001006
144 0.004979
143 0.004021
138 0.001954
136 0.001004
138 0.000994
142 0.003992
146 0.00399
149 0.0
151 0.000967
153 0.0
154 0.004942
153 0.000999
134 0.004955
98 0.004987
93 0.001833
111 0.000961
125 0.002001
134 0.005027
139 0.005954
141 0.001031
140 0.0
137 0.002001
138 0.000969
141 0.001013
145 0.004987
147 0.004943
150 0.001994
151 0.001032
152 0.001
154 0.004953
149 0.005983
112 0.004985
41 0.0
43 0.0
89 0.0
104 0.003054
114 0.002046
120 0.005984
123 0.005033
122 0.002028
122 0.002004
125 0.002988
130 0.005984
135 0.006007
141 0.003018
143 0.003015
146 0.003973
148 0.002992
149 0.002961
142 0.006009
91 0.005997
10 0.000966
15 0.002985
47 0.004035
73 0.006954
88 0.006982
101 0.002957
108 0.002959
113 0.0
115 0.001995
119 0.00301
126 0.005979
132 0.005983
139 0.002988
142 0.00199
145 0.002975
147 0.005985
149 0.006984
151 0.00199
153 0.001993
123 0.002993
44 0.002965
0 0.003009
14 0.006949
48 0.005984
78 0.002988
88 0.00301
98 0.002993
106 0.006981
111 0.006978
113 0.002003
117 0.002995
130 0.003053
136 0.00302
142 0.002991
146 0.006986
149 0.007017
152 0.002994
154 0.001995
156 0.003026
157 0.007018
160 0.007941
162 0.003031
163 0.002064
97 0.003043
24 0.002044
15 0.005024
48 0.006965
81 0.007955
99 0.006976
113 0.002996
120 0.002994
124 0.003021
125 0.007952
128 0.006986
134 0.00299
144 0.007938
150 0.002954
155 0.003003
157 0.003023
159 0.007971
161 0.007968
163 0.002984
165 0.00299
166 0.002997
168 0.006967
169 0.006963
146 0.003055
52 0.007961
56 0.002997
90 0.003054
113 0.002992
129 0.007952
134 0.007978
140 0.002997
139 0.004022
138 0.001988
140 0.007974
147 0.00699
155 0.007975
158 0.007948
161 0.002963
163 0.003007
164 0.00204
165 0.007945
166 0.00798
168 0.002989
168 0.002992
153 0.003958
85 0.007016
68 0.006979
110 0.006968
127 0.006953
137 0.003017
143 0.004013
145 0.003025
143 0.006995
142 0.007945
144 0.003009
149 0.002994
154 0.002988
158 0.006979
161 0.006976
163 0.00698
165 0.00698
165 0.003986
166 0.00396
167 0.003954
168 0.006987
160 0.007064
116 0.004002
58 0.002999
51 0.003
91 0.005981
113 0.005826
130 0.006987
136 0.006979
137 0.00698
136 0.004944
136 0.005032
139 0.004043
146 0.006981
150 0.007031
154 0.004954
156 0.004
158 0.002994
160 0.007046
162 0.004001
163 0.006017
164 0.005986
165 0.004957
155 0.004995
106 0.003969
53 0.005982
72 0.006006
100 0.003989
117 0.00399
127 0.003981
135 0.005981
137 0.004957
135 0.00599
137 0.005018
141 0.004011
146 0.004991
150 0.004019
154 0.005976
156 0.005991
158 0.004956
159 0.003985
160 0.003973
161 0.005971
164 0.003984
157 0.005012
122 0.004979
80 0.00496
82 0.004949
106 0.004981
128 0.004987
136 0.004987
141 0.004986
144 0.004975
144 0.002992
141 0.00596
144 0.004984
149 0.005036
151 0.005019
154 0.005012
156 0.004993
157 0.004978
158 0.004947
159 0.005005
160 0.004958
161 0.004936
159 0.005014
142 0.005033
93 0.004982
104 0.004021
122 0.004021
136 0.004061
141 0.004036
145 0.003988
145 0.005044
143 0.005012
141 0.004983
141 0.00496
144 0.004951
146 0.004987
152 0.004966
153 0.003983
154 0.003988
155 0.004023
157 0.004022
155 0.004018
141 0.00399
109 0.003989
99 0.003991
117 0.003985
126 0.004987
140 0.004006
142 0.004028
143 0.003965
140 0.004988
138 0.003977
138 0.004005
140 0.003999
143 0.00399
146 0.00399
148 0.004016
151 0.003024
152 0.003036
153 0.003024
140 0.003014
99 0.002998
73 0.003029
85 0.003019
111 0.002992
121 0.003988
129 0.003989
133 0.003987
134 0.003988
132 0.00399
130 0.002988
134 0.003957
137 0.00399
141 0.003025
144 0.002992
146 0.002992
148 0.003032
149 0.002993
150 0.002984
144 0.003022
102 0.003025
36 0.002989
40 0.003018
84 0.003993
98 0.003971
108 0.003007
114 0.003022
117 0.003027
118 0.002992
118 0.002993
121 0.002991
125 0.003026
131 0.003029
137 0.00299
139 0.003021
143 0.003006
144 0.00198
146 0.002993
148 0.002023
149 0.002031
126 0.001991
58 0.001994
15 0.003012
26 0.002992
57 0.003025
79 0.002993
94 0.002995
105 0.002997
112 0.00299
115 0.001992
117 0.002945
121 0.002958
126 0.001959
134 0.001994
139 0.001951
142 0.002003
145 0.001996
147 0.002906
149 0.002076
151 0.002042
154 0.002028
156 0.002043
