127 0.022999
139 0.007916
148 0.00698
159 0.006926
166 0.007049
175 0.006987
184 0.007014
190 0.005976
193 0.004991
107 0.00403
71 0.004984
67 0.004031
84 0.003989
115 0.002975
132 0.002992
129 0.001995
113 0.003
109 0.003002
121 0.001029
142 0.000998
154 0.000997
169 0.000967
178 0.000997
183 0.0
193 0.000997
204 0.000998
195 0.000998
105 0.000998
71 0.000924
68 0.00097
90 0.000998
112 0.000954
128 0.000997
121 0.001995
109 0.001994
105 0.001995
114 0.003993
135 0.004079
154 0.003866
162 0.003989
174 0.003957
184 0.004956
190 0.004957
198 0.00496
205 0.005092
207 0.004991
133 0.005985
67 0.006023
49 0.007026
69 0.007012
84 0.007013
101 0.006986
105 0.005035
97 0.004987
84 0.004013
87 0.005034
105 0.004022
126 0.003985
134 0.003989
148 0.003983
160 0.002978
168 0.002037
178 0.002042
185 0.002174
195 0.001031
203 0.001994
212 0.001011
152 0.001991
58 0.000997
39 0.000998
52 0.0
70 0.0
93 0.0
101 0.000997
89 0.002006
77 0.001995
81 0.002021
93 0.002027
115 0.001995
128 0.001996
144 0.001995
156 0.00198
163 0.002993
173 0.002993
178 0.002993
190 0.003038
175 0.00296
115 0.002967
44 0.002962
45 0.003002
63 0.002963
93 0.002967
106 0.003001
100 0.002992
81 0.002993
78 0.003994
88 0.003991
108 0.003958
126 0.003985
142 0.004987
149 0.00502
158 0.005047
168 0.005029
138 0.005034
49 0.005022
24 0.005035
31 0.00498
62 0.006027
80 0.006022
92 0.006012
82 0.006038
66 0.005983
73 0.005977
87 0.005983
109 0.005985
121 0.006035
134 0.006981
144 0.006014
152 0.007031
158 0.007923
157 0.007929
102 0.007953
26 0.00695
1 0.00695
9 0.006981
32 0.004986
43 0.005984
51 0.004986
40 0.005018
35 0.004989
44 0.005002
56 0.004954
75 0.005035
93 0.004937
102 0.00396
115 0.00402
128 0.00399
138 0.003032
144 0.003957
87 0.003025
15 0.003989
0 0.004041
2 0.003981
25 0.003989
35 0.00405
42 0.003041
33 0.002993
27 0.002967
36 0.002992
52 0.002992
75 0.002061
95 0.000997
104 0.000997
115 0.001212
124 0.001032
134 0.000997
142 0.0
62 0.000986
16 0.001003
66 0.000997
73 0.001005
86 0.001997
95 0.002857
95 0.002993
90 0.003078
89 0.004008
94 0.003028
105 0.005947
115 0.006018
120 0.00603
127 0.006968
131 0.007026
138 0.006969
133 0.006981
109 0.005984
73 0.005032
72 0.004041
80 0.003989
91 0.003965
97 0.003989
96 0.002992
89 0.002995
89 0.003039
98 0.002991
109 0.002992
115 0.003021
124 0.002997
130 0.000998
134 0.001995
139 0.0
144 0.0
149 0.0
155 0.0
160 0.0
130 0.0
98 0.0
73 0.0
80 0.000997
85 0.001009
91 0.000998
92 0.000999
90 0.002993
88 0.003026
95 0.002992
102 0.002992
114 0.004029
119 0.004002
125 0.004003
130 0.00396
137 0.00399
146 0.003988
156 0.004024
138 0.003989
73 0.005017
52 0.005019
56 0.004998
70 0.006018
77 0.006015
84 0.005937
83 0.006016
78 0.006985
86 0.00703
96 0.007032
113 0.006967
123 0.007012
130 0.007027
139 0.006015
146 0.006017
147 0.006016
101 0.005974
67 0.006024
52 0.005968
67 0.004988
77 0.004987
91 0.005025
93 0.005018
88 0.00499
89 0.004058
96 0.004954
114 0.004035
124 0.004988
137 0.00199
148 0.001046
155 0.000991
162 0.000997
170 0.001003
177 0.0
186 0.0
197 0.000987
205 0.000997
178 0.001996
97 0.002833
74 0.001995
77 0.002032
88 0.001995
100 0.002993
106 0.002964
103 0.004021
96 0.004023
96 0.004024
108 0.004027
126 0.003914
136 0.004024
148 0.00399
158 0.004025
162 0.004038
170 0.006042
175 0.006016
184 0.005969
196 0.006016
201 0.00702
144 0.006982
94 0.007034
83 0.007033
96 0.006907
115 0.006973
130 0.007028
132 0.007976
124 0.007979
114 0.007977
120 0.007968
134 0.007029
153 0.006022
161 0.007013
172 0.005984
177 0.004944
182 0.004965
188 0.004976
199 0.003989
188 0.00303
129 0.003056
93 0.001984
85 0.0
102 0.002001
121 0.001995
130 0.001995
124 0.001995
116 0.002029
115 0.002052
126 0.001995
141 0.002993
155 0.003991
165 0.004047
173 0.003858
182 0.004023
186 0.004956
194 0.005018
201 0.004971
208 0.004973
198 0.005019
146 0.004989
80 0.005973
72 0.005987
83 0.005986
101 0.007012
112 0.00694
111 0.006978
100 0.007024
97 0.007016
107 0.00704
121 0.007018
137 0.007028
148 0.006989
156 0.006981
163 0.007979
171 0.007979
176 0.007979
187 0.007958
194 0.006017
202 0.006981
213 0.005946
180 0.005988
94 0.005032
66 0.004932
71 0.005007
93 0.004957
104 0.00499
114 0.005017
104 0.00497
97 0.004061
100 0.004019
114 0.003988
126 0.003033
144 0.001994
156 0.001995
162 0.001995
169 0.000996
173 0.000983
183 0.000998
181 0.0
139 0.0
85 0.000998
68 0.002036
77 0.001995
103 0.001994
117 0.001995
123 0.001961
106 0.002054
101 0.001997
108 0.002961
128 0.002941
139 0.002995
154 0.004035
159 0.005033
167 0.003993
174 0.005984
147 0.005987
87 0.005048
53 0.005986
57 0.006026
80 0.00695
93 0.006953
106 0.007021
96 0.007011
87 0.006982
86 0.006017
101 0.005033
112 0.005022
127 0.004011
138 0.004034
143 0.004018
150 0.004006
153 0.003989
161 0.002981
165 0.00402
118 0.003213
57 0.004025
30 0.003023
36 0.003989
52 0.004044
58 0.00403
62 0.003978
53 0.002042
50 0.003026
57 0.0
67 0.000999
85 0.0
100 0.0
106 0.0
113 0.0
120 0.001012
125 0.000998
136 0.000998
143 0.001026
115 0.001996
36 0.002023
23 0.002994
33 0.003954
47 0.004039
55 0.005039
58 0.005967
52 0.005994
50 0.00597
59 0.006013
73 0.006026
87 0.005832
101 0.006018
108 0.006034
116 0.005983
121 0.005986
129 0.006981
134 0.007978
145 0.007979
145 0.006017
76 0.005031
46 0.005035
41 0.005039
60 0.005037
70 0.005017
80 0.004996
75 0.004988
65 0.004031
67 0.004006
78 0.00402
97 0.004023
112 0.003042
119 0.00304
127 0.003041
132 0.003028
139 0.003011
148 0.002042
153 0.002029
165 0.001051
139 0.0
92 0.0
49 0.000997
43 0.0
58 0.000997
70 0.001995
77 0.002992
75 0.003008
68 0.002947
70 0.002947
84 0.002993
96 0.002996
112 0.002947
123 0.003992
127 0.003998
136 0.002943
142 0.00376
149 0.003988
157 0.004077
166 0.003997
175 0.00499
184 0.005043
191 0.004987
188 0.005992
103 0.006015
64 0.00603
48 0.005984
56 0.006015
64 0.006979
67 0.007027
70 0.007027
67 0.005994
65 0.007014
71 0.006013
85 0.006982
100 0.006044
112 0.007031
123 0.006981
129 0.005977
138 0.005034
147 0.003991
154 0.004198
163 0.003024
173 0.003031
185 0.001979
196 0.001965
202 0.001989
212 0.001964
216 0.001994
153 0.001976
75 0.001027
60 0.0
68 0.0
84 0.0
89 0.0
94 0.001995
86 0.002946
83 0.002943
90 0.002988
103 0.003992
120 0.004985
133 0.005015
142 0.004987
149 0.005061
156 0.006034
160 0.006032
169 0.006007
179 0.006022
185 0.005054
200 0.006992
200 0.00684
141 0.007011
77 0.006947
69 0.006982
87 0.007017
109 0.006969
119 0.007018
116 0.006035
109 0.006018
103 0.005015
113 0.005016
130 0.004016
146 0.005984
160 0.005032
165 0.004023
173 0.002964
181 0.00098
186 0.001991
195 0.000994
201 0.001995
211 0.001044
145 0.000972
95 0.001997
65 0.001
75 0.0
89 0.000997
103 0.001994
109 0.00402
104 0.005019
95 0.005031
98 0.005002
114 0.005097
136 0.005033
146 0.004986
158 0.004991
166 0.005026
173 0.005033
179 0.004981
187 0.006926
193 0.006981
205 0.006977
213 0.006982
173 0.007023
97 0.004988
65 0.004986
58 0.005106
83 0.003991
92 0.003964
101 0.003988
99 0.004045
90 0.004013
92 0.00404
101 0.003978
123 0.003029
131 0.003991
148 0.003964
161 0.004021
165 0.00399
174 0.003995
180 0.00399
189 0.00399
201 0.00303
210 0.003992
161 0.002981
80 0.001996
64 0.002011
73 0.001055
89 0.001033
108 0.000997
114 0.000999
106 0.001028
95 0.001006
98 0.000998
116 0.0
134 0.001004
148 0.0
158 0.0
165 0.0
169 0.001033
177 0.000997
184 0.000997
156 0.000997
91 0.000994
58 0.001014
64 0.000997
90 0.000989
104 0.001005
118 0.000998
111 0.002992
95 0.002947
100 0.002963
111 0.002977
134 0.003032
145 0.002993
157 0.003099
165 0.002962
169 0.004033
178 0.003996
127 0.004853
78 0.004989
40 0.005019
45 0.005984
68 0.005997
81 0.006015
90 0.007013
84 0.006956
75 0.006981
78 0.006981
95 0.007011
107 0.007063
124 0.006979
137 0.007016
141 0.007945
151 0.007968
156 0.007992
162 0.006981
174 0.006014
166 0.006032
81 0.004951
31 0.004975
30 0.005173
48 0.004022
57 0.00497
66 0.003973
65 0.00399
59 0.002974
60 0.003984
75 0.002992
85 0.003041
104 0.003025
118 0.000999
125 0.002167
134 0.001032
140 0.000997
151 0.0
159 0.000997
166 0.0
181 0.0
136 0.0
80 0.0
36 0.0
40 0.0
61 0.0
74 0.0
79 0.000998
73 0.001001
67 0.000975
71 0.001995
90 0.00203
103 0.002026
120 0.001998
130 0.001996
136 0.001995
142 0.003026
147 0.002966
154 0.00299
168 0.004032
170 0.005019
99 0.005982
48 0.005984
48 0.005983
71 0.006984
88 0.006934
98 0.006969
94 0.007026
85 0.007028
83 0.006979
96 0.006972
113 0.005019
129 0.005975
142 0.004986
147 0.004986
155 0.004988
161 0.004986
170 0.004973
179 0.004037
187 0.005036
194 0.004063
114 0.002003
68 0.001029
46 0.00102
55 0.001021
73 0.000994
83 0.001043
85 0.000997
78 0.001036
76 0.000998
86 0.000998
101 0.001995
118 0.000998
130 0.001001
142 0.001032
148 0.000995
157 0.001029
162 0.000964
172 0.001031
183 0.0
189 0.000999
203 0.0
198 0.001004
108 0.0
51 0.0
48 0.000964
64 0.000997
76 0.0
84 0.0
86 0.0
82 0.0
79 0.0
93 0.000969
106 0.001044
126 0.001995
135 0.003058
148 0.003006
157 0.00298
163 0.003946
173 0.00399
181 0.004989
191 0.005969
201 0.005882
216 0.005994
220 0.006024
139 0.005987
88 0.00698
62 0.007009
82 0.006964
91 0.007014
108 0.005961
110 0.005983
102 0.006109
93 0.005986
97 0.004978
117 0.005034
138 0.005007
148 0.005023
159 0.004985
165 0.005022
171 0.003025
176 0.003994
184 0.002993
196 0.00399
165 0.00301
113 0.003045
67 0.002992
77 0.002046
93 0.002992
115 0.001978
123 0.003025
116 0.002037
102 0.000988
105 0.000995
125 0.001
140 0.000997
159 0.001039
170 0.000997
176 0.000996
184 0.001045
187 0.000998
196 0.0
206 0.000997
185 0.0
109 0.001941
63 0.0
58 0.0
76 0.0
92 0.0
103 0.0
102 0.001996
95 0.001995
91 0.001991
106 0.001998
120 0.001992
140 0.001995
150 0.002992
161 0.002975
170 0.002999
174 0.002992
183 0.002953
189 0.002986
201 0.002991
209 0.002993
164 0.003027
75 0.00296
50 0.002992
61 0.003027
79 0.003976
90 0.003989
98 0.004022
89 0.003991
84 0.004024
89 0.003964
99 0.003993
121 0.004976
140 0.004984
149 0.005986
161 0.005033
169 0.005955
175 0.005986
184 0.005977
191 0.005998
206 0.006031
178 0.006982
137 0.007012
65 0.007029
60 0.007973
74 0.007013
93 0.007003
107 0.005949
108 0.00602
94 0.006034
90 0.006113
101 0.006013
124 0.004033
137 0.004987
154 0.003023
160 0.004022
168 0.003042
177 0.001996
184 0.001994
143 0.003037
73 0.001047
59 0.001028
70 0.000997
93 0.0
120 0.0
126 0.0
115 0.000991
101 0.0
109 0.000998
123 0.0
146 0.000969
158 0.0
170 0.000998
176 0.001008
184 0.001012
190 0.000994
144 0.000999
78 0.001017
49 0.000947
58 0.000979
83 0.001995
104 0.001959
107 0.001974
92 0.001849
87 0.002999
95 0.002077
116 0.002012
130 0.002961
146 0.003062
153 0.002995
162 0.002945
168 0.002992
172 0.00399
183 0.004
185 0.003991
121 0.00499
57 0.004036
37 0.004027
47 0.004003
65 0.005054
73 0.005887
77 0.00698
68 0.007013
66 0.006981
77 0.007018
88 0.007066
109 0.006983
124 0.006998
131 0.006863
140 0.007008
145 0.007025
152 0.005017
159 0.005984
168 0.004983
179 0.004994
187 0.00502
146 0.004986
60 0.004984
37 0.002996
47 0.004041
65 0.003042
73 0.003989
77 0.00198
70 0.00208
68 0.001012
79 0.000961
96 0.0
108 0.0
125 0.000997
137 0.000987
142 0.0
150 0.001995
155 0.001995
166 0.002038
181 0.002957
164 0.003964
82 0.004989
50 0.005
57 0.004985
76 0.005032
96 0.006014
102 0.006009
92 0.005995
84 0.006027
88 0.006018
109 0.006036
122 0.006015
139 0.007021
146 0.006791
152 0.006911
160 0.006986
167 0.006983
154 0.007012
80 0.005972
56 0.005034
60 0.004956
76 0.004972
98 0.005032
108 0.005997
101 0.003989
91 0.004987
97 0.00502
109 0.005059
131 0.004981
142 0.004988
155 0.005037
163 0.004034
168 0.004983
176 0.004037
184 0.005032
170 0.002995
83 0.001003
51 0.000999
50 0.000974
69 0.000998
76 0.000998
87 0.000997
85 0.001
79 0.002027
84 0.001995
98 0.000998
115 0.002055
130 0.0
141 0.00099
151 0.001029
157 0.001031
165 0.0
172 0.0
182 0.0
190 0.000977
140 0.000998
73 0.001022
48 0.002023
58 0.001995
75 0.001997
88 0.002992
92 0.003003
88 0.003005
87 0.002905
97 0.002992
119 0.002993
132 0.003989
149 0.003994
159 0.00502
167 0.004975
173 0.005022
180 0.00502
189 0.004842
201 0.005029
209 0.006013
202 0.006046
149 0.00603
87 0.006015
89 0.005966
103 0.007013
123 0.006964
134 0.006991
128 0.00698
117 0.006977
121 0.004967
131 0.004986
152 0.005019
163 0.004024
176 0.003959
182 0.004987
187 0.004018
194 0.004057
206 0.003984
207 0.003976
144 0.003035
100 0.00099
101 0.002017
122 0.001024
135 0.001028
150 0.0
146 0.0
139 0.0
136 0.0
144 0.0
163 0.0
181 0.0
188 0.0
197 0.000984
203 0.001995
206 0.001995
215 0.002
212 0.002002
140 0.003959
95 0.004021
97 0.004056
116 0.003972
127 0.00399
137 0.004035
135 0.003988
127 0.004999
126 0.005048
139 0.006021
150 0.00602
168 0.005982
180 0.007016
185 0.007015
192 0.00703
198 0.006004
202 0.00503
212 0.004985
217 0.005034
159 0.005
96 0.005008
87 0.004946
102 0.00499
113 0.005019
125 0.004994
127 0.005984
122 0.004977
118 0.00494
126 0.003989
136 0.004001
154 0.003033
163 0.003026
175 0.001998
182 0.0
187 0.001031
194 0.0
201 0.0
208 0.0
191 0.0
115 0.000848
93 0.001995
99 0.001995
121 0.00399
133 0.00399
140 0.00399
133 0.003966
121 0.003989
128 0.003952
137 0.004985
156 0.004878
167 0.005018
177 0.004994
182 0.005018
188 0.004978
195 0.004988
166 0.004971
122 0.005983
86 0.007013
93 0.005015
107 0.006031
129 0.005018
140 0.005982
133 0.005172
120 0.005034
121 0.004005
136 0.004022
151 0.004992
165 0.004023
175 0.004992
181 0.001959
187 0.00303
194 0.001995
197 0.001995
207 0.001029
199 0.0
130 0.0
82 0.0
75 0.0
87 0.0
105 0.0
114 0.0
114 0.0
103 0.0
102 0.000993
112 0.002036
124 0.002026
143 0.002001
158 0.001996
163 0.000995
172 0.002963
179 0.003989
184 0.003991
192 0.002963
199 0.002966
200 0.002994
131 0.00303
77 0.004982
62 0.00502
80 0.005984
93 0.005995
110 0.005984
111 0.007031
104 0.007979
96 0.006982
102 0.007979
117 0.004986
138 0.004939
149 0.004988
162 0.00495
171 0.003999
176 0.004003
184 0.005014
189 0.003995
198 0.004041
209 0.004987
187 0.004023
111 0.004989
70 0.003996
69 0.005024
95 0.004993
111 0.005064
129 0.003987
115 0.002005
104 0.00394
104 0.001003
112 0.001987
134 0.001035
153 0.001011
163 0.001977
172 0.0
179 0.0
185 0.001012
186 0.0
142 0.0
71 0.0
58 0.000994
73 0.0
96 0.000997
113 0.0
126 0.001058
107 0.000998
99 0.000997
105 0.001995
121 0.001965
139 0.002992
155 0.002992
165 0.003042
173 0.002963
181 0.002993
185 0.002943
195 0.00399
166 0.003978
105 0.003984
47 0.006053
49 0.006938
66 0.006936
90 0.00701
101 0.007024
97 0.007064
80 0.006989
77 0.006927
89 0.007031
106 0.007031
119 0.007155
137 0.007013
145 0.007009
154 0.005023
162 0.003994
168 0.005012
135 0.004007
54 0.002997
32 0.003027
39 0.003034
56 0.001975
81 0.002025
92 0.001942
84 0.001995
72 0.000999
75 0.002027
90 0.000999
108 0.001995
124 0.000985
137 0.002039
149 0.001995
156 0.002065
126 0.002044
76 0.001995
32 0.002035
41 0.001036
58 0.002031
86 0.001001
96 0.00103
84 0.0
73 0.0
77 0.0
94 0.0
111 0.0
124 0.0
138 0.0
145 0.0
152 0.0
88 0.0
48 0.0
28 0.000965
39 0.0
66 0.0
89 0.000997
87 0.0
71 0.001009
68 0.000998
79 0.001995
95 0.002033
110 0.000996
123 0.001994
136 0.001951
142 0.001969
92 0.00199
50 0.001989
24 0.002081
43 0.001055
59 0.003993
84 0.004044
79 0.003943
71 0.003983
70 0.005068
79 0.00508
100 0.004971
118 0.004958
127 0.004986
142 0.005034
143 0.005021
78 0.005009
35 0.005033
33 0.005018
52 0.00494
83 0.004984
96 0.004973
88 0.005984
79 0.006031
80 0.006969
99 0.00698
112 0.007014
130 0.006983
139 0.006926
150 0.007017
159 0.007023
134 0.006984
59 0.005996
39 0.005984
48 0.006032
77 0.006009
95 0.005942
102 0.00597
86 0.007015
80 0.005995
87 0.007003
103 0.006016
121 0.006969
137 0.00698
143 0.006046
155 0.006042
137 0.00402
89 0.006988
42 0.003979
43 0.004032
68 0.003008
95 0.002957
103 0.002989
89 0.002995
81 0.002992
88 0.002027
105 0.002911
121 0.001975
134 0.002981
145 0.002001
149 0.001986
156 0.002057
164 0.000999
170 0.002045
124 0.001009
58 0.000948
33 0.000998
48 0.001884
61 0.001997
76 0.003022
78 0.002936
73 0.002965
71 0.003015
86 0.00402
99 0.004021
118 0.005975
127 0.005953
138 0.00605
146 0.007027
151 0.007112
161 0.006981
168 0.007978
177 0.005984
190 0.00797
197 0.006042
205 0.006997
217 0.006981
209 0.005984
102 0.005048
45 0.002997
47 0.003963
69 0.002992
80 0.003041
85 0.0
81 0.000983
75 0.0
77 0.0
93 0.0
105 0.0
125 0.0
139 0.0
145 0.0
153 0.001995
162 0.002947
169 0.00302
181 0.002993
191 0.005056
202 0.005035
212 0.005005
223 0.005977
225 0.005987
126 0.006982
81 0.006981
64 0.006982
84 0.006973
102 0.006982
115 0.006996
113 0.007941
102 0.006981
98 0.007
105 0.006987
126 0.004985
140 0.006029
158 0.00603
168 0.00598
173 0.005003
179 0.00399
185 0.006028
194 0.004001
203 0.003979
218 0.002992
228 0.00304
170 0.001989
115 0.002924
81 0.001994
101 0.0
119 0.001996
144 0.0
147 0.0
136 0.0
122 0.000966
128 0.000993
145 0.0
168 0.0
179 0.0
192 0.0
197 0.0
204 0.0
211 0.0
216 0.000964
226 0.000984
240 0.002013
236 0.001979
139 0.002028
95 0.002028
80 0.002026
100 0.00199
121 0.002947
137 0.003024
134 0.003941
123 0.00396
116 0.003796
122 0.004021
143 0.005028
166 0.005019
176 0.004999
188 0.004901
194 0.004987
201 0.004959
208 0.004988
214 0.004989
225 0.004986
233 0.004989
247 0.006963
220 0.007054
126 0.007012
75 0.007019
73 0.006983
90 0.006951
114 0.006952
124 0.006986
122 0.006982
107 0.006947
105 0.007013
114 0.006971
138 0.006985
153 0.006981
172 0.005983
180 0.006016
189 0.004989
196 0.004945
201 0.005018
210 0.004976
216 0.004998
186 0.005066
242 0.005984
158 0.005005
115 0.00598
96 0.006032
99 0.006031
115 0.005985
123 0.005983
131 0.004987
122 0.003011
116 0.004987
117 0.001984
127 0.001994
135 0.002043
145 0.003013
149 0.002027
153 0.002026
155 0.000992
157 0.001994
163 0.000955
148 0.002024
111 0.0
93 0.0
94 0.000957
107 0.0
123 0.0
130 0.0
123 0.000998
114 0.000998
113 0.000998
120 0.001042
130 0.001063
139 0.001996
148 0.001979
150 0.001995
154 0.001995
155 0.002023
159 0.003025
158 0.002996
130 0.003005
89 0.003034
81 0.003031
88 0.003958
102 0.002949
107 0.004016
109 0.004995
100 0.004996
98 0.004987
103 0.005982
112 0.005005
121 0.006037
128 0.00598
136 0.005979
141 0.006029
146 0.005986
149 0.005985
157 0.007012
161 0.007949
129 0.007979
62 0.006985
44 0.007975
53 0.006978
70 0.007012
76 0.006978
80 0.004989
75 0.00499
69 0.004956
76 0.004947
86 0.003983
100 0.004987
113 0.004985
119 0.004987
126 0.005113
130 0.004987
136 0.005
145 0.002995
150 0.004991
161 0.003009
168 0.004033
117 0.002993
56 0.00298
46 0.003051
59 0.00301
75 0.002027
82 0.001021
82 0.001029
77 0.000999
73 0.001016
81 0.002045
94 0.001991
108 0.002005
118 0.000991
126 0.001995
132 0.001951
135 0.00099
141 0.001993
148 0.0
155 0.0
164 0.0
128 0.0
77 0.000997
58 0.00301
67 0.002985
88 0.002994
104 0.002993
103 0.003048
90 0.003041
86 0.003023
95 0.002992
113 0.003035
124 0.004022
136 0.003943
142 0.006027
145 0.006017
150 0.006016
153 0.006012
162 0.006974
168 0.007027
143 0.007027
88 0.007933
59 0.007976
67 0.00798
82 0.005973
96 0.004988
99 0.005957
90 0.004991
86 0.005984
91 0.004975
108 0.005018
119 0.004007
132 0.001995
140 0.002013
144 0.001993
150 0.001023
154 0.000996
161 0.001998
168 0.001994
176 0.001992
186 0.001991
164 0.002027
112 0.00203
60 0.001977
55 0.00103
71 0.002001
81 0.0
85 0.00203
87 0.001051
81 0.002038
81 0.002028
91 0.001997
101 0.001974
117 0.002961
130 0.002993
136 0.002961
142 0.002976
149 0.003943
154 0.002988
163 0.004987
170 0.005019
181 0.00499
192 0.005031
200 0.004987
167 0.006013
98 0.005984
65 0.005983
66 0.005985
81 0.005984
91 0.005984
99 0.00697
98 0.007979
90 0.006979
89 0.005982
97 0.006992
114 0.006028
125 0.006017
139 0.006025
147 0.005035
150 0.004975
156 0.004986
160 0.004976
168 0.003989
175 0.005034
185 0.003991
194 0.004967
134 0.005021
94 0.004055
72 0.004027
80 0.003993
103 0.004036
121 0.002011
122 0.004003
108 0.002012
103 0.002012
108 0.002055
127 0.00202
139 0.001985
153 0.002028
161 0.001983
165 0.000955
170 0.000998
175 0.002027
180 0.0
189 0.002028
161 0.002962
112 0.002989
68 0.001997
66 0.002995
85 0.002963
98 0.002994
108 0.00399
106 0.004016
95 0.004985
94 0.004991
106 0.005024
117 0.005021
135 0.005987
147 0.006947
151 0.007979
158 0.006985
164 0.007033
168 0.007148
176 0.007042
182 0.006037
194 0.006016
172 0.006018
117 0.006018
63 0.004985
58 0.006018
73 0.002991
85 0.004204
94 0.003027
95 0.004036
87 0.004022
85 0.004023
94 0.004034
113 0.003031
124 0.004022
139 0.002159
144 0.003024
151 0.000953
158 0.0
164 0.0
171 0.0
182 0.0
188 0.0
204 0.000975
205 0.0
124 0.0
67 0.000961
61 0.001992
78 0.001997
96 0.001964
104 0.003011
102 0.00503
93 0.004903
91 0.004969
99 0.005019
115 0.005038
131 0.005019
146 0.004983
152 0.006026
158 0.006018
163 0.006979
166 0.006983
172 0.00698
180 0.007978
173 0.006994
99 0.006005
74 0.005951
72 0.005022
96 0.004023
110 0.004007
125 0.003992
118 0.002986
105 0.00502
103 0.005024
112 0.005034
132 0.004991
152 0.001988
160 0.004013
169 0.002024
172 0.002026
178 0.00096
184 0.001993
190 0.002028
186 0.000957
119 0.000997
80 0.0
61 0.0
70 0.0
92 0.0
109 0.001011
110 0.000946
98 0.002047
93 0.001959
100 0.001995
118 0.001958
131 0.002984
147 0.002995
156 0.002993
162 0.004975
167 0.006016
174 0.006955
178 0.006964
186 0.007949
195 0.00699
202 0.005993
203 0.003956
108 0.003993
70 0.002993
57 0.003002
67 0.003004
88 0.002958
100 0.002996
100 0.002985
89 0.003008
85 0.003986
93 0.002991
108 0.003998
124 0.003168
139 0.003989
151 0.003002
155 0.002994
162 0.002989
168 0.000991
172 0.001986
181 0.000998
189 0.001038
186 0.000964
115 0.001059
69 0.0
59 0.0
68 0.0
91 0.001041
107 0.0
106 0.000999
91 0.002951
86 0.003026
93 0.00406
112 0.004021
131 0.005031
140 0.005017
153 0.005012
158 0.005034
166 0.003964
172 0.006018
142 0.00702
87 0.006978
63 0.007932
63 0.007945
88 0.007977
101 0.007993
114 0.007978
103 0.005942
94 0.007979
95 0.004987
111 0.005996
123 0.00598
141 0.00595
147 0.006019
154 0.006118
161 0.004951
166 0.00499
168 0.005032
132 0.004989
66 0.004987
49 0.007033
58 0.004999
73 0.006979
88 0.005021
92 0.005013
84 0.004987
80 0.004987
85 0.004974
102 0.003007
113 0.003028
129 0.002993
136 0.002994
144 0.003015
150 0.002986
155 0.002989
164 0.002961
162 0.003026
106 0.002989
60 0.001983
48 0.001999
59 0.00303
76 0.002003
84 0.001994
87 0.003076
79 0.0
79 0.002026
89 0.0
100 0.0
119 0.000964
134 0.0
138 0.0
146 0.0
149 0.0
156 0.000966
166 0.000949
171 0.000992
117 0.000998
63 0.001008
56 0.000996
71 0.000995
83 0.000997
100 0.001037
97 0.000997
91 0.001996
88 0.001037
94 0.001995
112 0.001962
127 0.001996
137 0.001995
144 0.002004
148 0.002048
152 0.002991
161 0.002908
166 0.003023
115 0.002994
67 0.004035
63 0.003992
80 0.003955
94 0.004021
113 0.004039
108 0.003986
100 0.004998
102 0.00502
118 0.006008
131 0.005949
147 0.005989
154 0.007009
160 0.007051
163 0.006981
168 0.006959
174 0.007929
162 0.007965
134 0.005967
74 0.00603
65 0.002992
75 0.004987
91 0.002994
100 0.004151
102 0.002995
92 0.001983
91 0.001043
102 0.001021
121 0.0
132 0.0
145 0.001012
151 0.001959
158 0.0
164 0.002025
169 0.0
176 0.001994
188 0.001068
183 0.000946
103 0.0
70 0.0
60 0.00102
74 0.002993
87 0.004025
97 0.00397
97 0.00399
93 0.00403
92 0.004979
105 0.006015
117 0.006013
136 0.006982
145 0.007012
155 0.005962
162 0.005987
167 0.005985
174 0.004969
181 0.006136
189 0.00402
201 0.006001
190 0.00502
134 0.004991
75 0.004985
69 0.004986
88 0.005032
108 0.002
119 0.002991
115 0.002001
103 0.001996
103 0.002028
117 0.001008
129 0.0
148 0.0
162 0.0
167 0.0
171 0.000998
176 0.001001
181 0.000997
190 0.000991
160 0.00103
91 0.001996
75 0.001961
85 0.001992
110 0.001995
129 0.000984
132 0.001963
120 0.001995
112 0.001949
117 0.002867
136 0.00399
149 0.003976
167 0.00399
174 0.00399
183 0.004996
189 0.005984
192 0.005989
199 0.006989
192 0.005985
139 0.005998
76 0.005985
70 0.004953
83 0.00401
105 0.00499
119 0.005984
117 0.003037
107 0.003972
102 0.002001
110 0.003999
130 0.004022
143 0.003989
160 0.002998
170 0.002001
175 0.002992
181 0.002037
184 0.002992
193 0.000975
200 0.000962
159 0.00102
82 0.0
64 0.000964
73 0.0
96 0.0
107 0.000967
114 0.000961
105 0.002023
99 0.000998
103 0.001998
118 0.0
135 0.002027
155 0.0
163 0.0
173 0.000998
179 0.002996
183 0.004015
188 0.003991
197 0.003992
199 0.003987
115 0.004028
80 0.004982
69 0.006027
92 0.005951
107 0.005998
127 0.006019
117 0.00697
106 0.006947
103 0.005006
116 0.004956
130 0.004992
151 0.003987
160 0.00299
168 0.003998
173 0.004989
180 0.002987
181 0.004987
112 0.003983
81 0.003995
71 0.00399
82 0.003989
112 0.003969
138 0.00195
134 0.000988
113 0.001007
109 0.000998
119 0.0
141 0.0
154 0.0
170 0.00097
177 0.001028
183 0.0
189 0.001032
193 0.000996
129 0.001029
66 0.0
56 0.0
73 0.0
92 0.001045
109 0.001006
112 0.001004
100 0.001961
94 0.002992
101 0.004963
113 0.004992
134 0.005997
151 0.00598
158 0.005988
166 0.006019
171 0.005992
175 0.005983
185 0.005984
175 0.006981
108 0.006975
52 0.006982
54 0.006972
76 0.006946
88 0.006958
102 0.006968
99 0.00798
90 0.005952
87 0.006976
98 0.006982
110 0.006031
130 0.004041
146 0.001965
153 0.004037
161 0.002992
165 0.004165
172 0.002
181 0.002025
189 0.00198
173 0.001997
116 0.002007
62 0.000994
65 0.001995
79 0.001997
102 0.000974
112 0.00096
106 0.001965
95 0.00299
94 0.000965
105 0.003025
127 0.002994
139 0.002042
153 0.002996
158 0.00304
163 0.002029
172 0.0
172 0.001
124 0.0
71 0.0
65 0.0
84 0.001008
101 0.001058
129 0.000998
124 0.000996
112 0.001024
106 0.001008
120 0.001778
133 0.002038
154 0.003992
167 0.005984
172 0.005986
178 0.006025
183 0.006031
184 0.006979
110 0.006981
67 0.006046
58 0.007913
76 0.007979
91 0.007979
112 0.006981
114 0.007016
100 0.007015
95 0.006002
101 0.007015
120 0.005031
133 0.007095
149 0.005006
159 0.004985
163 0.004986
169 0.005
175 0.004987
181 0.004988
142 0.003985
91 0.004021
51 0.004988
56 0.00499
69 0.004951
87 0.005017
95 0.005023
92 0.004988
83 0.001999
85 0.004022
99 0.001994
118 0.0
128 0.0
141 0.000957
149 0.0
153 0.0
160 0.0
165 0.00095
177 0.0
168 0.001998
119 0.0
61 0.00204
56 0.0
71 0.0
91 0.001996
100 0.002059
98 0.002015
90 0.002001
89 0.002042
100 0.002992
119 0.003945
130 0.003993
144 0.005025
152 0.005995
156 0.006016
161 0.006946
165 0.007055
173 0.005966
171 0.006968
128 0.006973
71 0.005979
64 0.005987
82 0.006025
107 0.005993
119 0.005955
114 0.00501
102 0.007964
100 0.005984
114 0.007964
127 0.003988
143 0.00598
157 0.006015
162 0.005995
168 0.005021
173 0.003001
177 0.004976
186 0.002028
193 0.004027
141 0.001999
73 0.00195
61 0.002995
75 0.001996
97 0.0
109 0.002
110 0.00101
103 0.000922
96 0.0
104 0.002031
119 0.0
135 0.002025
149 0.0
158 0.003016
166 0.0
170 0.001995
176 0.002024
182 0.003032
189 0.004015
198 0.004963
210 0.007013
176 0.00701
85 0.006987
59 0.005989
65 0.007959
84 0.005989
103 0.005988
109 0.006168
100 0.00496
93 0.005028
95 0.004998
111 0.00501
124 0.004004
144 0.003982
153 0.003986
164 0.003049
169 0.005984
175 0.003978
181 0.004987
191 0.004987
199 0.004989
201 0.004954
149 0.003986
77 0.004025
66 0.0
78 0.001993
99 0.0
121 0.002012
122 0.002032
106 0.00399
100 0.003997
107 0.003976
127 0.003978
149 0.004031
159 0.004025
169 0.004991
174 0.006019
178 0.005982
182 0.00698
189 0.006981
197 0.007942
148 0.007976
99 0.00798
67 0.007939
81 0.004986
98 0.007018
127 0.005008
134 0.007036
115 0.004998
102 0.002986
106 0.002998
125 0.002992
148 0.002958
158 0.001996
170 0.000982
174 0.00205
179 0.000993
183 0.002996
190 0.0
183 0.002034
98 0.002001
65 0.001991
55 0.001997
68 0.002994
92 0.0
109 0.0
108 0.001995
95 0.001973
90 0.001993
96 0.002021
116 0.002992
136 0.004027
146 0.004022
157 0.004014
162 0.003877
168 0.003019
174 0.004987
178 0.005958
188 0.005984
118 0.00597
73 0.005998
48 0.006977
56 0.006979
75 0.006973
96 0.007015
103 0.006981
93 0.006983
85 0.007979
86 0.006981
101 0.005986
115 0.005985
136 0.006017
150 0.003983
157 0.005986
164 0.00299
170 0.00299
174 0.001995
185 0.001998
191 0.001992
131 0.001981
65 0.002994
55 0.000955
73 0.001046
94 0.001992
113 0.0
114 0.002031
100 0.0
91 0.002028
100 0.001959
112 0.001996
135 0.00111
148 0.0
157 0.001
162 0.000998
166 0.000998
173 0.002029
123 0.002994
84 0.004018
60 0.005019
77 0.004968
95 0.004004
125 0.005024
123 0.005984
110 0.005984
102 0.006972
110 0.005939
122 0.005994
144 0.006022
155 0.005959
167 0.005987
174 0.007839
178 0.007984
184 0.007965
137 0.007981
76 0.005885
50 0.005004
58 0.005984
82 0.003984
104 0.003991
107 0.003988
95 0.003994
89 0.003995
94 0.003991
113 0.003009
126 0.002026
144 0.001997
153 0.003021
160 0.002009
164 0.003003
170 0.002029
176 0.002992
111 0.001997
69 0.001996
46 0.002017
60 0.0
79 0.0
94 0.000965
100 0.000985
92 0.000826
85 0.001031
89 0.000996
107 0.000997
128 0.002032
140 0.001996
154 0.002031
159 0.002993
165 0.002992
174 0.002986
178 0.00402
116 0.005037
60 0.005988
54 0.005977
74 0.005981
89 0.005984
112 0.005985
110 0.005984
98 0.005985
93 0.006016
105 0.006993
118 0.006992
140 0.007016
150 0.007014
161 0.006981
167 0.006978
172 0.006983
179 0.00695
143 0.007017
86 0.005985
63 0.005984
73 0.005984
101 0.005023
129 0.00499
131 0.004022
112 0.003952
105 0.004002
113 0.00302
129 0.003008
147 0.001964
162 0.002992
173 0.002995
177 0.002997
185 0.000972
170 0.0
118 0.002026
65 0.0
61 0.001998
82 0.0
109 0.0
123 0.0
121 0.0
105 0.000998
103 0.00399
114 0.004053
136 0.003992
150 0.003963
166 0.003002
172 0.002915
180 0.00502
186 0.00499
190 0.005991
200 0.005962
167 0.005984
93 0.00597
58 0.006991
60 0.007045
80 0.007012
101 0.006935
111 0.006962
107 0.007974
95 0.004991
95 0.006962
108 0.003991
121 0.005984
142 0.003972
158 0.004161
165 0.002994
172 0.002001
177 0.004036
185 0.002032
176 0.004023
109 0.001996
67 0.003988
65 0.00399
79 0.003989
105 0.002982
119 0.002972
118 0.002992
104 0.0
103 0.001926
117 0.0
134 0.0
148 0.0
165 0.0
176 0.0
180 0.0
190 0.0
183 0.000993
105 0.000998
67 0.000997
71 0.001043
97 0.0
115 0.000966
136 0.001009
118 0.000995
108 0.0
109 0.001995
123 0.002997
141 0.003035
157 0.002018
167 0.00302
174 0.002992
183 0.00292
171 0.001948
94 0.002992
67 0.003027
66 0.001989
92 0.002992
109 0.003004
125 0.003964
108 0.005023
100 0.004975
105 0.005973
115 0.00599
137 0.006939
154 0.006992
159 0.006982
168 0.006958
174 0.007949
172 0.005998
116 0.006982
64 0.005007
50 0.006982
67 0.006985
81 0.006973
101 0.006981
100 0.004004
92 0.006069
90 0.005994
97 0.006004
116 0.004042
135 0.002994
144 0.001996
154 0.001997
160 0.001997
165 0.002002
173 0.001993
157 0.001995
79 0.001995
51 0.002033
56 0.0
73 0.001029
93 0.000995
100 0.0
94 0.0
89 0.0
92 0.000998
105 0.000997
121 0.001995
137 0.002994
151 0.002976
156 0.002967
164 0.00399
170 0.003955
174 0.003943
187 0.003992
186 0.004021
106 0.004935
60 0.005984
62 0.005951
79 0.006026
105 0.006977
111 0.006011
106 0.005972
98 0.005986
97 0.006982
109 0.007979
121 0.007979
141 0.007977
152 0.007978
160 0.007998
164 0.005999
167 0.007984
176 0.00599
164 0.005017
119 0.003992
74 0.00398
73 0.004044
97 0.004002
127 0.002961
139 0.002997
127 0.00299
115 0.004985
118 0.001005
133 0.003989
157 0.0021
169 0.002052
182 0.000947
186 0.001952
192 0.0
200 0.0
185 0.0
118 0.0
76 0.001004
80 0.0
106 0.001052
122 0.002052
143 0.00303
131 0.003975
122 0.003978
124 0.00399
142 0.003967
155 0.005019
172 0.005975
181 0.006977
184 0.004987
189 0.004022
193 0.005983
198 0.003995
206 0.005984
219 0.00401
185 0.005974
92 0.005108
68 0.00399
75 0.003974
98 0.001988
108 0.003977
117 0.002028
112 0.003026
103 0.001977
112 0.0
123 0.0
146 0.001023
169 0.0
180 0.00097
194 0.000963
202 0.000958
214 0.000991
222 0.0
229 0.0
243 0.0
242 0.001995
173 0.001996
96 0.001
85 0.000998
101 0.001983
121 0.002026
136 0.002993
137 0.002961
118 0.002992
110 0.003026
113 0.004002
123 0.004008
144 0.00399
162 0.003023
169 0.002998
177 0.003958
180 0.005042
186 0.00506
193 0.004953
200 0.005009
208 0.005019
115 0.006073
74 0.005954
60 0.00698
73 0.00698
97 0.006018
123 0.007949
126 0.00597
109 0.005989
97 0.005984
101 0.005984
121 0.005981
138 0.005984
160 0.005988
172 0.004004
176 0.005033
183 0.001994
189 0.002997
150 0.002003
73 0.002007
58 0.001994
70 0.001992
102 0.000969
122 0.001997
134 0.000968
116 0.002993
106 0.001997
112 0.002984
131 0.0
153 0.002026
175 0.002961
184 0.002996
195 0.002952
200 0.00194
210 0.002039
130 0.0
83 0.0
61 0.0
80 0.0
98 0.0
126 0.0
134 0.0
118 0.000998
105 0.0
107 0.000971
124 0.001052
144 0.001962
154 0.001997
165 0.002073
169 0.003028
174 0.002993
180 0.002958
178 0.003027
108 0.002961
43 0.005991
34 0.004998
52 0.006965
72 0.004987
85 0.007027
90 0.004984
78 0.004003
75 0.003994
86 0.00399
100 0.003991
124 0.003947
143 0.003221
152 0.002033
161 0.002988
167 0.003039
174 0.003025
183 0.002992
137 0.002004
70 0.002959
43 0.002992
51 0.002992
78 0.002957
93 0.002955
104 0.003005
89 0.0
84 0.001995
92 0.0
114 0.0
129 0.0
144 0.0
156 0.001036
161 0.000997
169 0.000995
176 0.001973
143 0.001012
69 0.00085
53 0.000998
66 0.002003
84 0.002002
116 0.002027
122 0.001995
108 0.002032
97 0.002027
102 0.00203
123 0.001994
144 0.003033
159 0.00303
168 0.003991
176 0.005012
179 0.003945
189 0.004987
131 0.004994
81 0.006031
52 0.006965
57 0.007019
84 0.006939
110 0.006958
115 0.006968
100 0.006972
94 0.006949
96 0.00698
114 0.006006
129 0.006981
149 0.00597
159 0.006982
166 0.004973
171 0.006984
175 0.004956
182 0.006017
182 0.00397
131 0.003992
57 0.002999
46 0.0
59 0.002029
82 0.0
100 0.000966
100 0.0
88 0.0
86 0.001013
94 0.001054
116 0.001007
131 0.001029
149 0.002992
161 0.002992
166 0.002982
173 0.002943
181 0.002963
191 0.002957
185 0.002993
109 0.002953
62 0.003991
58 0.005049
73 0.004969
98 0.00502
115 0.005968
110 0.005975
96 0.005952
96 0.005986
110 0.005993
134 0.005944
147 0.005971
163 0.005985
168 0.006742
173 0.006989
178 0.006983
186 0.006979
180 0.006986
110 0.00799
72 0.005984
58 0.007978
73 0.005954
96 0.006938
125 0.007007
127 0.005989
106 0.005011
101 0.001997
109 0.004022
133 0.001993
147 0.003966
166 0.001992
177 0.001991
181 0.001023
187 0.003021
195 0.001964
192 0.001998
103 0.001952
67 0.001992
56 0.0
75 0.00199
97 0.0
115 0.001995
111 0.002029
101 0.002027
96 0.001963
103 0.002987
126 0.000997
144 0.001022
159 0.0
169 0.000997
177 0.00204
182 0.001995
188 0.002026
192 0.001984
205 0.002037
151 0.002996
92 0.001983
51 0.003074
64 0.005003
80 0.00592
104 0.005953
111 0.005955
104 0.006997
92 0.006987
94 0.006004
111 0.004975
131 0.005984
150 0.004001
164 0.005951
176 0.006014
181 0.006008
187 0.004986
191 0.00502
201 0.003975
214 0.001991
176 0.004021
82 0.001994
59 0.002007
70 0.001996
100 0.003017
117 0.001993
129 0.002026
110 0.001017
103 0.000966
112 0.000999
132 0.002031
154 0.0
171 0.002004
183 0.0
188 0.002034
194 0.0
200 0.0
196 0.0
123 0.00096
75 0.0
68 0.001009
83 0.000994
117 0.000985
142 0.000998
133 0.00203
108 0.001016
108 0.003984
119 0.003957
145 0.003995
160 0.003991
176 0.003989
185 0.003985
189 0.00403
197 0.004038
179 0.003989
83 0.003997
49 0.004019
52 0.00399
74 0.003957
96 0.004946
114 0.004953
103 0.004956
92 0.004969
91 0.004988
109 0.005987
124 0.006982
142 0.005991
158 0.005986
164 0.004985
171 0.003958
174 0.002991
182 0.003977
163 0.003994
103 0.004051
43 0.00319
40 0.004979
58 0.002991
76 0.00399
90 0.002953
89 0.004023
78 0.002992
77 0.002993
90 0.001994
111 0.0
124 0.002041
141 0.001027
147 0.003047
154 0.0
159 0.0
163 0.0
174 0.0
169 0.0
115 0.0
50 0.0
40 0.001054
59 0.001973
80 0.002993
92 0.003069
92 0.002844
82 0.00399
82 0.003027
97 0.00399
110 0.004036
132 0.003957
145 0.003992
153 0.005022
159 0.005005
164 0.006019
168 0.007011
179 0.00692
185 0.005017
126 0.007935
70 0.005986
54 0.008013
67 0.005959
93 0.004947
108 0.004924
110 0.001998
92 0.001992
90 0.002029
103 0.002011
121 0.00294
139 0.002037
151 0.003018
158 0.001995
163 0.002002
170 0.002028
176 0.002028
129 0.002993
73 0.000968
55 0.002067
66 0.003007
93 0.00502
109 0.005043
116 0.004976
99 0.005986
95 0.005977
102 0.006944
123 0.005985
137 0.004991
154 0.005987
161 0.004977
168 0.004988
173 0.007007
177 0.004987
185 0.007019
193 0.003996
143 0.004969
64 0.004987
48 0.004987
129 0.005005
128 0.001985
128 0.00499
128 0.002995
128 0.003006
128 0.002006
128 0.002006
129 0.002042
128 0.0
128 0.0
128 0.0
131 0.000953
138 0.0
149 0.0
160 0.002032
176 0.0
138 0.001957
29 0.001996
2 0.002
11 0.004022
36 0.003987
56 0.003994
70 0.004044
65 0.004017
58 0.003984
65 0.004022
79 0.004994
110 0.007015
133 0.005984
147 0.007044
162 0.00498
172 0.00497
177 0.004988
189 0.003992
196 0.003994
215 0.003984
203 0.003011
121 0.001999
40 0.002999
35 0.005012
60 0.001996
87 0.003989
109 0.002006
107 0.003991
86 0.002034
83 0.003968
98 0.002025
128 0.0
145 0.001988
166 0.0
173 0.002011
178 0.001007
184 0.001965
198 0.003034
203 0.002992
114 0.003866
64 0.004964
42 0.006002
70 0.005968
91 0.005985
123 0.00601
114 0.005953
100 0.005986
97 0.005984
108 0.005987
138 0.005985
161 0.007028
173 0.005975
187 0.007949
196 0.007979
201 0.007967
211 0.006924
218 0.007022
181 0.005954
68 0.00399
38 0.005984
45 0.003947
76 0.001953
91 0.002027
106 0.000998
92 0.0
85 0.0
90 0.001995
108 0.0
131 0.001993
157 0.002042
168 0.0
181 0.000998
188 0.002033
194 0.002036
202 0.001995
216 0.002993
223 0.00299
121 0.003025
62 0.002977
32 0.004031
58 0.003977
77 0.003996
98 0.005979
104 0.005994
95 0.00598
85 0.004978
100 0.004018
116 0.003999
147 0.003991
167 0.005001
181 0.003
190 0.004053
198 0.002996
202 0.002961
212 0.002032
221 0.00203
217 0.001997
93 0.0
52 0.002028
47 0.000984
67 0.00203
105 0.001018
130 0.0
120 0.0
99 0.000997
95 0.000999
106 0.001002
136 0.001991
154 0.002026
177 0.002033
190 0.002002
196 0.003992
209 0.003985
170 0.004987
101 0.004987
45 0.004986
50 0.005984
80 0.006874
114 0.007015
137 0.006979
129 0.006982
102 0.007002
100 0.007018
120 0.006972
146 0.004981
169 0.007975
186 0.004985
195 0.007012
205 0.004956
214 0.004953
175 0.004981
59 0.004986
28 0.004024
34 0.003988
68 0.003006
87 0.002981
103 0.001992
88 0.003989
75 0.0
80 0.003042
105 0.001967
122 0.00198
147 0.002029
157 0.002048
167 0.0
174 0.000998
182 0.001997
177 0.002992
72 0.003988
27 0.004002
17 0.005025
44 0.005984
60 0.00703
77 0.00594
74 0.004994
66 0.005013
66 0.006003
86 0.004987
103 0.004991
127 0.004958
139 0.004026
151 0.003989
158 0.004995
164 0.001993
173 0.004068
186 0.003997
152 0.002993
60 0.004067
38 0.0
50 0.0
76 0.00097
91 0.0
99 0.00101
87 0.0
84 0.0
94 0.0
118 0.0
132 0.0
151 0.000997
158 0.002012
165 0.00194
176 0.002035
175 0.002029
108 0.003002
71 0.003003
70 0.002028
91 0.004066
120 0.005995
133 0.006002
125 0.006015
114 0.006045
116 0.006093
131 0.005993
144 0.006935
165 0.004988
177 0.004979
182 0.004971
188 0.004991
192 0.004991
203 0.004006
170 0.002997
114 0.001984
69 0.0
75 0.002993
92 0.0
106 0.002995
115 0.002032
111 0.00204
93 0.001998
91 0.0
105 0.0
125 0.0
140 0.0
150 0.002032
159 0.001966
163 0.001995
172 0.002956
182 0.003023
191 0.004049
191 0.004041
140 0.003979
70 0.003958
65 0.004008
77 0.004021
92 0.00399
100 0.003872
102 0.004023
94 0.004953
96 0.002944
110 0.004994
126 0.005986
141 0.006975
149 0.00797
159 0.006957
162 0.006977
170 0.006982
175 0.007981
185 0.006967
197 0.002966
205 0.006016
216 0.003998
227 0.002002
234 0.001995
163 0.002011
103 0.001998
72 0.001995
91 0.00301
105 0.002991
119 0.001963
121 0.003037
111 0.0
105 0.001973
112 0.0
126 0.002007
146 0.0
156 0.0
165 0.0
169 0.0
173 0.0
179 0.0
185 0.002004
193 0.001006
209 0.002994
205 0.002992
115 0.002959
75 0.004021
81 0.004022
106 0.002991
120 0.003991
136 0.003998
124 0.004058
115 0.00402
119 0.004008
133 0.00403
151 0.005018
167 0.005985
177 0.006024
183 0.005978
189 0.007015
193 0.006983
199 0.007021
210 0.006018
218 0.006981
146 0.003983
70 0.001994
61 0.002011
80 0.001996
101 0.0
111 0.0
114 0.0
107 0.0
100 0.0
109 0.002024
126 0.0
146 0.001995
160 0.0
170 0.001964
178 0.003026
181 0.003026
190 0.001025
198 0.000998
160 0.0
83 0.0
55 0.0
64 0.000967
91 0.000997
104 0.001999
120 0.001
110 0.001948
103 0.002006
109 0.002051
121 0.001995
146 0.00197
169 0.002992
179 0.002992
188 0.003049
193 0.001998
201 0.002999
207 0.001993
159 0.003045
76 0.002968
62 0.003953
81 0.004986
107 0.004956
130 0.004952
140 0.004978
117 0.005022
109 0.004986
117 0.00498
130 0.004987
157 0.006033
178 0.00598
186 0.005968
196 0.00598
197 0.005985
145 0.005979
69 0.005994
59 0.005988
81 0.005985
111 0.006983
133 0.005972
146 0.005982
129 0.006
111 0.005979
121 0.007969
136 0.004997
159 0.007017
182 0.007946
191 0.00798
201 0.005006
207 0.005985
210 0.005984
102 0.00301
57 0.005019
45 0.002993
74 0.002024
93 0.002997
119 0.002952
117 0.002996
96 0.002994
93 0.00197
103 0.001994
130 0.001987
152 0.002025
170 0.000971
181 0.002984
188 0.0
194 0.00204
204 0.0
200 0.0
85 0.0
36 0.0
35 0.0
59 0.00203
78 0.002007
104 0.0
100 0.000954
89 0.001038
83 0.001995
100 0.003006
118 0.002949
147 0.003988
161 0.003985
178 0.00399
188 0.003963
193 0.004032
206 0.003993
179 0.005023
102 0.00596
43 0.007973
40 0.005963
59 0.005984
97 0.006015
124 0.002978
116 0.004023
91 0.00202
88 0.004033
106 0.000956
137 0.0
155 0.002961
178 0.0
189 0.0
195 0.0
204 0.000945
166 0.001031
65 0.0
44 0.0
55 0.0
95 0.0
140 0.0
150 0.0
117 0.0
104 0.000999
112 0.001969
134 0.003051
160 0.002993
181 0.003015
197 0.003959
203 0.004021
215 0.004038
135 0.005007
71 0.005027
39 0.006983
50 0.007011
81 0.00602
124 0.005984
139 0.006016
114 0.005937
95 0.006002
100 0.005973
125 0.005039
145 0.005019
172 0.003975
186 0.00697
195 0.005055
203 0.007159
198 0.004988
120 0.004993
33 0.002992
28 0.000939
48 0.002984
83 0.0
107 0.0
107 0.0
85 0.001963
80 0.001992
92 0.002021
121 0.003055
140 0.001863
164 0.00196
180 0.002001
185 0.002027
193 0.002008
201 0.002002
152 0.002
43 0.002992
21 0.003014
36 0.00298
58 0.002992
90 0.002993
103 0.002959
89 0.002994
76 0.005021
84 0.007034
98 0.006977
130 0.006977
153 0.005975
170 0.007979
181 0.005046
186 0.00796
193 0.005991
207 0.004014
197 0.004956
77 0.004977
38 0.004037
35 0.005982
71 0.004029
95 0.003025
119 0.006984
103 0.006031
89 0.007014
87 0.005021
100 0.004986
131 0.003989
161 0.002991
173 0.003986
184 0.001965
190 0.0
195 0.000995
204 0.0
127 0.002057
68 0.0
39 0.0
52 0.0
95 0.0
138 0.0
140 0.0
105 0.0
96 0.0
107 0.0
139 0.001052
159 0.000967
184 0.002993
196 0.003
202 0.003047
210 0.003014
200 0.004032
123 0.005018
41 0.004982
33 0.004978
60 0.005018
103 0.004987
127 0.00492
120 0.004977
96 0.005942
90 0.005018
105 0.004018
124 0.004923
158 0.004983
181 0.005055
190 0.002953
200 0.000997
207 0.004024
214 0.002003
221 0.004032
104 0.003988
47 0.003989
23 0.003029
38 0.00402
76 0.001996
107 0.0
107 0.002029
86 0.0
79 0.0
86 0.0
115 0.000997
147 0.000994
164 0.001962
188 0.002032
197 0.001995
205 0.001954
214 0.001994
222 0.002991
165 0.004024
51 0.003964
29 0.004015
45 0.004038
69 0.003991
106 0.00498
119 0.005013
101 0.004994
86 0.004935
93 0.006989
109 0.006951
142 0.006972
155 0.007978
183 0.00798
193 0.003987
197 0.004988
205 0.002995
217 0.002995
187 0.003005
67 0.002992
32 0.003012
43 0.003003
84 0.002991
110 0.000994
130 0.0
103 0.002977
85 0.0
89 0.003026
117 0.00203
137 0.002033
164 0.0
172 0.0
182 0.0
192 0.0
177 0.0
90 0.0
32 0.000998
33 0.000958
67 0.001995
93 0.002028
128 0.004071
102 0.004024
87 0.003939
88 0.005033
115 0.003949
136 0.003946
161 0.004959
170 0.004947
180 0.004988
189 0.005024
199 0.004914
141 0.006017
41 0.005971
23 0.006971
36 0.007956
67 0.007949
103 0.00798
115 0.004008
106 0.007025
99 0.003983
119 0.004063
142 0.003003
175 0.003005
188 0.003019
197 0.002991
198 0.00298
198 0.00301
202 0.002989
206 0.002964
129 0.002989
41 0.002957
8 0.0
18 0.002992
46 0.003039
60 0.002991
71 0.002035
59 0.0
56 0.002021
68 0.0
85 0.002999
114 0.000967
138 0.0
148 0.0
157 0.0
160 0.0
167 0.002968
180 0.0
187 0.000996
213 0.000965
197 0.0
106 0.0
20 0.0
12 0.0
38 0.000999
65 0.002027
79 0.001035
74 0.000968
65 0.000997
63 0.0
80 0.002032
104 0.002026
127 0.000954
148 0.001996
156 0.001995
163 0.002032
167 0.002992
178 0.003053
197 0.003023
183 0.004038
72 0.004985
32 0.004973
39 0.004997
74 0.006
96 0.005987
116 0.005978
98 0.006985
85 0.005988
93 0.006992
117 0.007015
137 0.005985
163 0.007986
173 0.005958
181 0.006978
188 0.007014
192 0.006024
206 0.004062
142 0.002963
75 0.00402
30 0.002993
50 0.003
71 0.0
103 0.0
105 0.0
97 0.0
83 0.0
87 0.0
114 0.000998
145 0.000964
159 0.0
174 0.000998
179 0.000868
187 0.002028
195 0.002962
203 0.002002
215 0.002
137 0.001998
67 0.002016
21 0.002994
28 0.002028
55 0.00399
78 0.002961
85 0.003989
75 0.004957
70 0.005936
77 0.005939
103 0.005994
122 0.005978
147 0.006
161 0.005993
168 0.00599
176 0.005976
182 0.005963
193 0.006937
208 0.006017
187 0.006982
68 0.007
26 0.007013
33 0.007955
64 0.007986
79 0.007983
96 0.006989
88 0.005035
80 0.007016
83 0.005008
109 0.002965
128 0.002964
155 0.002025
173 0.003004
181 0.003008
195 0.002993
201 0.0
213 0.0
220 0.000998
116 0.001996
64 0.002065
44 0.002961
59 0.002986
96 0.003989
122 0.003958
120 0.003957
100 0.004939
93 0.005021
103 0.005022
134 0.004976
153 0.00499
175 0.006047
187 0.005967
191 0.006981
201 0.00598
178 0.006987
109 0.006
43 0.004978
41 0.00502
71 0.004998
111 0.00501
129 0.004976
116 0.003011
99 0.00602
99 0.002983
118 0.006065
151 0.004001
169 0.004035
189 0.003986
196 0.003994
205 0.003993
213 0.001995
221 0.00403
214 0.0
132 0.003972
39 0.000955
33 0.0
51 0.0
82 0.001052
104 0.0
100 0.0
84 0.001001
84 0.001001
102 0.0
127 0.003042
152 0.0
170 0.0
186 0.0
191 0.0
199 0.002964
208 0.001959
202 0.001995
102 0.002962
40 0.003039
31 0.002962
62 0.002992
83 0.002992
114 0.003967
114 0.003986
95 0.004021
93 0.004998
105 0.004862
137 0.004971
170 0.005983
184 0.005986
200 0.005976
206 0.005992
213 0.00599
223 0.007014
233 0.005985
153 0.007982
64 0.007979
40 0.006981
56 0.006983
81 0.006983
124 0.004985
136 0.003014
118 0.005013
98 0.002992
110 0.001985
128 0.002032
163 0.0
189 0.0
198 0.00097
209 0.0
217 0.0
181 0.000998
84 0.002029
48 0.0
49 0.0
91 0.0
120 0.0
151 0.001012
136 0.000997
106 0.001995
109 0.002993
129 0.002992
158 0.004006
189 0.00399
202 0.004034
215 0.003954
221 0.004021
232 0.004969
184 0.004973
95 0.005021
26 0.006027
38 0.004983
61 0.004984
98 0.006028
114 0.005982
102 0.005988
84 0.005988
87 0.00601
106 0.006937
125 0.006948
164 0.005987
181 0.007951
190 0.005991
197 0.007011
205 0.007024
212 0.006982
210 0.007957
99 0.002996
42 0.005978
21 0.003089
37 0.005984
73 0.003042
102 0.002997
101 0.002991
81 0.002991
76 0.002994
92 0.0
124 0.003002
145 0.0
172 0.000969
185 0.003044
193 0.0
200 0.003016
209 0.003024
220 0.001996
193 0.001004
83 0.001951
32 0.001996
34 0.005025
72 0.005046
95 0.005993
122 0.005986
112 0.005861
88 0.005985
93 0.005995
108 0.005983
135 0.005998
161 0.006979
179 0.00602
191 0.004962
198 0.005975
210 0.005991
128 0.004983
68 0.005984
40 0.003929
53 0.003963
98 0.004002
140 0.006981
152 0.00295
123 0.007015
107 0.006015
116 0.005004
153 0.00402
179 0.004072
217 0.004021
246 0.00296
255 0.004017
255 0.002031
117 0.001001
78 0.001965
78 0.00299
101 0.002999
146 0.003006
168 0.004021
144 0.002993
111 0.002993
103 0.00197
115 0.003005
143 0.003022
159 0.003044
177 0.002991
184 0.003946
195 0.003023
106 0.001043
41 0.002024
4 0.000973
20 0.0
40 0.0
70 0.0
79 0.0
67 0.0
59 0.0
67 0.001996
92 0.000959
118 0.00198
132 0.00199
147 0.001997
156 0.001992
152 0.00396
58 0.003962
25 0.004017
25 0.005021
47 0.006001
64 0.004998
84 0.007015
86 0.006984
79 0.007025
80 0.006016
102 0.003998
119 0.006974
145 0.002992
157 0.005024
171 0.002992
186 0.003988
190 0.00199
116 0.002025
78 0.00196
86 0.002989
119 0.002986
139 0.003008
161 0.002995
150 0.004999
138 0.003002
140 0.004195
152 0.002994
168 0.002971
181 0.002027
185 0.002026
192 0.002948
193 0.0
159 0.003023
100 0.0
83 0.0
95 0.0
121 0.000998
138 0.000998
143 0.001007
126 0.001011
125 0.000989
139 0.000996
151 0.000998
170 0.001989
182 0.002013
187 0.00197
195 0.001996
160 0.002004
110 0.003993
78 0.003966
85 0.003957
109 0.00402
124 0.003882
133 0.003987
127 0.003993
120 0.002968
125 0.004989
141 0.005018
152 0.006014
167 0.005987
176 0.006983
180 0.00694
188 0.005984
164 0.005022
112 0.004989
74 0.005024
79 0.004989
102 0.004987
120 0.004026
128 0.002992
123 0.002992
117 0.004988
124 0.002992
137 0.003988
153 0.001995
167 0.003988
177 0.004023
182 0.003027
191 0.002991
190 0.0
146 0.0
100 0.0
106 0.0
139 0.0
164 0.0
181 0.000997
181 0.001007
164 0.000997
161 0.001001
171 0.001967
180 0.000965
193 0.001943
201 0.002016
204 0.001991
210 0.001961
190 0.001998
130 0.002992
106 0.003014
116 0.002416
138 0.002822
165 0.003985
173 0.003981
155 0.004991
146 0.005998
151 0.006015
164 0.005023
182 0.005957
189 0.004989
195 0.004954
200 0.004992
192 0.004987
117 0.004951
98 0.00499
111 0.004982
133 0.005982
152 0.002995
164 0.00502
149 0.003034
141 0.003001
145 0.002961
155 0.002991
174 0.003025
186 0.0
194 0.0
198 0.002053
203 0.001944
197 0.002036
111 0.001002
78 0.001967
89 0.001968
115 0.001958
124 0.002027
137 0.002981
132 0.003994
125 0.003985
128 0.003987
143 0.004987
155 0.004954
170 0.004924
177 0.004939
185 0.004981
189 0.006015
194 0.006949
195 0.006985
115 0.006976
90 0.006996
99 0.006978
114 0.00698
131 0.007975
141 0.004989
143 0.007938
137 0.004985
136 0.007951
147 0.004986
162 0.003998
172 0.003995
184 0.006002
192 0.003983
197 0.00395
206 0.004015
188 0.004962
122 0.00399
116 0.005962
134 0.003029
153 0.006016
165 0.002991
174 0.004957
170 0.004008
166 0.004025
171 0.004022
185 0.0
194 0.003027
206 0.0
214 0.0
219 0.0
226 0.0
227 0.0
166 0.000988
135 0.001018
143 0.001006
171 0.0
183 0.0
195 0.0
193 0.003065
184 0.0
183 0.002981
191 0.0
202 0.002981
213 0.0
221 0.0
225 0.0
141 0.0
233 0.0
240 0.0
232 0.001021
164 0.001996
150 0.002981
162 0.003938
190 0.002007
207 0.003991
209 0.005038
197 0.004945
191 0.005984
195 0.005984
205 0.006
214 0.00595
225 0.005993
232 0.006982
235 0.005986
241 0.006986
241 0.008011
197 0.007948
159 0.007014
158 0.007011
182 0.006983
208 0.004017
220 0.006982
217 0.003991
205 0.006977
198 0.004956
206 0.003989
215 0.003992
227 0.003988
234 0.004979
236 0.004022
183 0.002994
180 0.003007
152 0.003039
143 0.005019
149 0.003002
160 0.004991
171 0.002991
177 0.004987
169 0.005026
164 0.005021
164 0.00399
169 0.003001
173 0.003024
178 0.002021
180 0.003019
182 0.0
176 0.0
156 0.0
141 0.0
148 0.0
156 0.0
168 0.0
172 0.001067
168 0.000997
162 0.000992
161 0.001004
165 0.000827
171 0.000997
174 0.001
177 0.000997
179 0.000934
180 0.002023
161 0.000987
140 0.00302
137 0.002991
147 0.003962
154 0.004956
163 0.005037
164 0.005021
157 0.005022
153 0.005993
154 0.006993
158 0.004949
164 0.004989
166 0.004989
169 0.004988
171 0.004988
170 0.004962
140 0.004022
131 0.002027
133 0.003026
164 0.005018
184 0.00299
198 0.004007
190 0.004038
179 0.004037
174 0.003076
180 0.00402
191 0.003959
202 0.002993
207 0.003984
213 0.0
217 0.002986
194 0.002991
134 0.0
127 0.0
144 0.0
170 0.002011
182 0.0
186 0.0
176 0.0
165 0.0
168 0.000997
174 0.000971
185 0.002029
195 0.000984
201 0.002
206 0.000994
211 0.00299
181 0.003035
125 0.004027
120 0.003028
139 0.002992
165 0.004026
177 0.002815
177 0.003032
164 0.003041
155 0.002991
161 0.003024
168 0.004002
180 0.003983
186 0.004021
192 0.003939
128 0.003945
128 0.003996
128 0.003995
129 0.004043
129 0.004985
129 0.006939
129 0.007974
129 0.007972
129 0.00797
129 0.007977
129 0.00603
129 0.004013
132 0.005983
140 0.003006
147 0.003017
149 0.002992
110 0.002992
85 0.002992
79 0.003002
97 0.003959
110 0.002993
127 0.002994
124 0.003026
109 0.002025
106 0.003993
111 0.002978
121 0.003988
131 0.003018
135 0.002991
142 0.004019
143 0.003025
98 0.004005
64 0.000972
66 0.003029
83 0.001004
102 0.0
110 0.0
104 0.001998
96 0.000998
92 0.0
100 0.002028
107 0.001026
117 0.001001
124 0.003043
128 0.003024
124 0.001994
90 0.002992
53 0.004009
57 0.003945
