124 0.030922
124 0.000995
132 0.000999
137 0.000966
148 0.001009
158 0.0
165 0.0
174 0.0
176 0.000969
91 0.001995
56 0.001994
60 0.002028
75 0.001829
95 0.001927
105 0.001994
115 0.002038
116 0.001995
120 0.001995
131 0.002991
139 0.003987
150 0.006019
161 0.006016
165 0.006027
167 0.004077
64 0.003989
45 0.002983
51 0.001995
63 0.004988
77 0.000997
90 0.000997
97 0.000999
98 0.001046
105 0.000997
115 0.001007
125 0.000997
138 0.00095
150 0.001035
156 0.000958
165 0.002945
61 0.00399
32 0.003022
31 0.002992
38 0.003988
51 0.003989
68 0.00399
74 0.003995
77 0.006016
82 0.005923
92 0.005934
104 0.006016
116 0.005988
129 0.005984
142 0.006058
151 0.007017
122 0.0059
50 0.005984
16 0.006982
21 0.005984
28 0.007945
43 0.004987
58 0.003989
63 0.005016
68 0.005956
73 0.004956
89 0.003986
105 0.004103
115 0.003975
131 0.003995
143 0.006013
155 0.002994
164 0.005035
89 0.003015
28 0.00603
22 0.004986
27 0.004986
41 0.003989
58 0.001997
66 0.002991
69 0.0
75 0.002998
84 0.000997
100 0.000993
112 0.000997
128 0.000997
146 0.0
155 0.0
171 0.001106
173 0.000966
61 0.0
30 0.000979
36 0.000931
49 0.001948
64 0.002011
77 0.001995
81 0.002028
84 0.002987
92 0.002992
107 0.003023
117 0.003025
137 0.002992
153 0.006016
163 0.003988
177 0.005984
185 0.005985
103 0.005954
44 0.005952
44 0.005986
59 0.005964
78 0.005952
89 0.006018
97 0.005952
98 0.005838
102 0.005985
114 0.006979
126 0.004989
139 0.007978
161 0.007963
167 0.00798
181 0.006993
191 0.007032
99 0.006981
42 0.003987
43 0.006031
54 0.00299
71 0.001975
82 0.000991
90 0.001905
91 0.001995
96 0.000997
110 0.0
129 0.00294
140 0.002987
159 0.003025
176 0.004024
186 0.004988
141 0.004987
68 0.005018
34 0.005016
37 0.003985
44 0.00505
57 0.005016
73 0.004987
77 0.004992
82 0.005025
87 0.006016
105 0.005973
123 0.00597
136 0.00599
154 0.005982
166 0.00602
182 0.00595
168 0.005916
84 0.00602
33 0.005985
29 0.005985
35 0.005984
47 0.005985
57 0.005984
71 0.006965
76 0.007012
81 0.007022
97 0.006015
108 0.007012
127 0.007011
143 0.006077
160 0.005973
174 0.004989
188 0.005954
200 0.005017
128 0.005968
64 0.005012
39 0.004948
44 0.004004
49 0.003993
65 0.00299
75 0.002992
82 0.002993
87 0.005917
97 0.001995
111 0.004987
131 0.003939
143 0.004989
163 0.004013
174 0.002989
192 0.002992
207 0.000907
214 0.00399
115 0.000963
55 0.000971
53 0.0
63 0.000965
71 0.001994
89 0.000987
99 0.002008
101 0.0
107 0.000997
122 0.0
134 0.001
152 0.001
166 0.000999
183 0.000998
196 0.002044
208 0.003989
219 0.004987
232 0.005984
201 0.005985
82 0.005951
68 0.005984
76 0.005985
87 0.005989
101 0.006777
115 0.005991
119 0.004986
120 0.005019
130 0.005029
148 0.004035
159 0.004986
178 0.004997
189 0.003974
205 0.003991
218 0.008003
220 0.00399
96 0.007945
66 0.004038
65 0.007979
76 0.007979
85 0.008029
104 0.00703
115 0.002994
116 0.005021
125 0.00103
134 0.004987
153 0.001019
171 0.000997
179 0.001998
199 0.001941
211 0.000997
219 0.000997
231 0.0
129 0.0
73 0.0
57 0.000958
62 0.00101
74 0.000959
91 0.001
101 0.000998
108 0.001
113 0.000998
120 0.001012
137 0.0
150 0.000999
169 0.002993
188 0.002992
197 0.003025
212 0.004987
223 0.005983
214 0.005938
91 0.005971
50 0.004986
55 0.004987
66 0.00502
75 0.004987
92 0.004026
103 0.006
107 0.003
115 0.005985
131 0.005951
143 0.006013
163 0.005956
174 0.006032
192 0.005987
207 0.001996
217 0.005984
228 0.001995
105 0.002002
61 0.002002
56 0.001995
64 0.000985
79 0.000968
97 0.000999
107 0.0
114 0.001995
122 0.001999
131 0.000996
150 0.001075
170 0.001046
181 0.000996
198 0.001995
209 0.00398
220 0.003982
176 0.00399
166 0.00397
71 0.003989
58 0.003981
67 0.003985
84 0.003989
99 0.00399
119 0.003978
132 0.003989
135 0.004024
148 0.005951
163 0.005022
177 0.005934
189 0.005012
203 0.006961
213 0.004026
223 0.006017
140 0.005034
69 0.004023
47 0.003977
55 0.002027
69 0.001997
85 0.001995
100 0.002043
108 0.001999
115 0.002005
119 0.002043
138 0.0
158 0.000998
170 0.0
187 0.001006
197 0.000997
208 0.000969
82 0.001013
39 0.000997
30 0.0
35 0.000965
47 0.000999
65 0.000981
75 0.000997
81 0.001957
88 0.000998
101 0.001
118 0.002007
136 0.002051
154 0.003024
174 0.004015
184 0.004986
196 0.005989
62 0.005985
27 0.005954
18 0.005984
23 0.005948
29 0.004995
46 0.004987
56 0.004989
64 0.005037
73 0.004971
83 0.005015
105 0.007038
118 0.005019
142 0.007979
164 0.006981
176 0.007975
192 0.006984
142 0.001996
60 0.004022
20 0.0
22 0.000953
25 0.002003
37 0.000998
56 0.001021
61 0.001996
68 0.001995
81 0.001984
95 0.002008
117 0.001995
134 0.001996
158 0.003022
180 0.00498
191 0.004962
210 0.005976
160 0.006035
56 0.006002
32 0.007013
35 0.006983
38 0.007981
53 0.00702
64 0.006981
76 0.00698
82 0.004988
92 0.007974
108 0.002994
133 0.002962
148 0.002008
173 0.002001
193 0.0
205 0.001966
223 0.000969
227 0.000967
112 0.001987
49 0.002026
49 0.001032
59 0.0
78 0.0
88 0.0
99 0.0
100 0.0
110 0.000992
126 0.002954
149 0.003996
164 0.004017
186 0.004951
198 0.004993
217 0.004971
231 0.004987
226 0.010971
61 0.004984
49 0.004985
56 0.004984
69 0.004991
81 0.004982
98 0.004987
103 0.005985
106 0.004993
119 0.006996
132 0.00498
156 0.007989
175 0.007966
188 0.007974
208 0.005984
224 0.001019
176 0.004008
59 0.00098
42 0.00199
46 0.001996
55 0.001988
71 0.001995
83 0.002031
93 0.001978
96 0.001988
109 0.002035
131 0.001014
146 0.001004
172 0.001049
184 0.001057
206 0.000998
224 0.00099
211 0.000994
65 0.000999
34 0.0
32 0.002033
35 0.000997
44 0.000998
59 0.000997
73 0.000961
77 0.001979
89 0.002047
109 0.001998
125 0.001029
151 0.002962
167 0.002991
189 0.002964
211 0.002992
222 0.003003
229 0.00598
82 0.006982
41 0.004976
30 0.006009
32 0.006981
34 0.006955
52 0.006976
63 0.006978
74 0.005984
84 0.001955
95 0.005983
119 0.00299
146 0.001999
162 0.002024
187 0.002006
199 0.001994
220 0.002066
238 0.000981
248 0.001986
153 0.002966
74 0.002022
43 0.001993
45 0.005986
51 0.001995
63 0.002988
81 0.002976
88 0.002985
96 0.00311
104 0.003013
126 0.002992
152 0.001996
168 0.001985
190 0.001991
208 0.001994
223 0.001988
237 0.001994
250 0.001994
255 0.001963
108 0.001954
74 0.00198
56 0.001974
61 0.001988
72 0.002004
91 0.001001
101 0.000997
110 0.00196
121 0.0
130 0.000997
154 0.000992
169 0.0
187 0.0
209 0.0
219 0.000862
237 0.000998
188 0.001
194 0.000999
145 0.000963
106 0.000996
93 0.000998
99 0.00198
103 0.002991
114 0.003019
122 0.005963
126 0.003989
129 0.006014
135 0.005979
146 0.005938
154 0.006027
163 0.005981
170 0.005952
177 0.005953
183 0.007973
189 0.007943
184 0.007014
105 0.007978
92 0.003992
93 0.007032
101 0.000973
112 0.001015
119 0.001015
126 0.001012
130 0.0
134 0.001985
145 0.002025
149 0.001995
159 0.001988
168 0.002001
173 0.000951
181 0.0
159 0.000965
108 0.0
86 0.0
88 0.0
95 0.0
103 0.000999
111 0.000998
115 0.000966
116 0.0
119 0.001002
128 0.00101
135 0.000999
146 0.000999
155 0.000998
161 0.000923
163 0.001015
119 0.000997
82 0.0
81 0.001965
84 0.001986
91 0.003032
98 0.004985
102 0.00595
103 0.005019
107 0.005984
112 0.005985
122 0.005012
129 0.005981
140 0.005985
150 0.00502
155 0.005917
123 0.005952
91 0.004981
78 0.005005
80 0.005986
82 0.003995
88 0.004
96 0.002993
98 0.00398
101 0.002993
106 0.006055
113 0.001981
121 0.005984
128 0.002025
137 0.005963
147 0.006034
152 0.006038
139 0.004994
102 0.004936
83 0.004988
84 0.000998
86 0.001994
91 0.001953
98 0.0
102 0.00095
104 0.000975
110 0.000999
115 0.000999
124 0.000999
133 0.002994
139 0.001994
148 0.003035
156 0.005984
176 0.005958
128 0.005953
88 0.005956
75 0.005885
79 0.006025
82 0.005953
92 0.005987
101 0.004989
103 0.007979
106 0.001994
114 0.00197
122 0.0
132 0.001994
144 0.000998
151 0.0
163 0.001952
174 0.001973
180 0.004947
188 0.00403
110 0.004993
90 0.004952
89 0.004987
94 0.004955
101 0.005998
111 0.005992
115 0.00595
116 0.005938
121 0.00601
126 0.004983
135 0.007979
147 0.003988
153 0.007981
165 0.003969
171 0.006981
181 0.004035
173 0.004064
121 0.00402
88 0.00396
89 0.002961
96 0.001995
105 0.001
111 0.0
117 0.0
117 0.002028
119 0.002001
129 0.002966
140 0.000998
147 0.0
158 0.000976
167 0.000997
174 0.000998
180 0.001011
122 0.000968
88 0.000997
87 0.006027
91 0.000967
98 0.000966
104 0.000998
113 0.001006
115 0.000954
118 0.001
126 0.001
138 0.002
144 0.002987
156 0.003027
161 0.002027
171 0.002988
179 0.002977
174 0.003966
110 0.00398
87 0.005029
89 0.004019
94 0.005017
97 0.004839
107 0.00599
115 0.005954
115 0.005986
120 0.005978
128 0.005024
134 0.002992
145 0.004039
150 0.003988
160 0.003991
168 0.002002
174 0.003002
180 0.001998
129 0.003989
93 0.00194
89 0.004015
94 0.002049
96 0.00208
106 0.001997
113 0.001999
115 0.001001
117 0.000998
125 0.003024
132 0.002024
142 0.002992
160 0.004971
167 0.004977
179 0.004952
185 0.004987
196 0.00498
198 0.004993
135 0.004987
87 0.005034
84 0.004992
90 0.003989
97 0.004982
104 0.00497
114 0.004021
117 0.007978
119 0.007947
130 0.007977
137 0.007953
148 0.007946
162 0.004014
169 0.006981
181 0.00299
192 0.00302
198 0.001021
207 0.001997
154 0.000961
101 0.001007
86 0.001994
92 0.000987
102 0.000999
111 0.004956
121 0.002026
124 0.003054
124 0.0
129 0.003002
141 0.00399
150 0.001032
162 0.000996
172 0.001006
181 0.0
190 0.0
200 0.000992
177 0.001963
91 0.003045
83 0.002984
89 0.00297
99 0.002992
107 0.004018
119 0.005954
121 0.005939
121 0.005984
127 0.005974
140 0.004966
148 0.004025
162 0.001973
173 0.004989
182 0.003044
190 0.003026
198 0.00102
157 0.002008
77 0.001003
71 0.000976
77 0.000998
82 0.001015
94 0.000969
101 0.000967
106 0.001012
108 0.0
116 0.0
129 0.000975
139 0.001967
153 0.002993
167 0.002977
174 0.002984
187 0.002993
193 0.002993
136 0.004949
71 0.00402
60 0.006009
65 0.006988
70 0.00698
78 0.006053
91 0.007021
95 0.00692
97 0.006977
105 0.005002
115 0.006013
128 0.003992
144 0.003033
153 0.004998
168 0.002023
182 0.002012
190 0.00405
176 0.001994
102 0.000999
56 0.001993
58 0.004986
64 0.002034
69 0.004979
81 0.000999
90 0.004987
94 0.005992
97 0.005142
109 0.006012
126 0.000965
137 0.004023
154 0.0
163 0.003006
177 0.001
192 0.00097
195 0.000994
114 0.001022
58 0.000982
57 0.000996
68 0.000999
73 0.001968
89 0.000998
100 0.000998
101 0.000939
105 0.000997
115 0.0
130 0.001971
146 0.001003
160 0.000999
173 0.001995
189 0.002029
196 0.001979
161 0.001995
89 0.001996
58 0.001994
65 0.001995
73 0.001995
87 0.002001
96 0.000999
103 0.001983
106 0.001996
110 0.002998
126 0.003054
145 0.003025
158 0.003031
175 0.002993
186 0.00299
200 0.003023
186 0.002961
84 0.00298
51 0.00304
52 0.002992
58 0.003984
69 0.00397
78 0.003989
89 0.004987
91 0.005987
97 0.00498
112 0.005993
124 0.006008
140 0.005979
164 0.00602
175 0.005953
188 0.005959
198 0.00594
104 0.005944
51 0.005982
41 0.005953
46 0.003979
51 0.007978
61 0.005014
74 0.006974
79 0.005022
83 0.005987
96 0.004988
108 0.005028
127 0.0
150 0.001004
162 0.0
182 0.00095
199 0.000938
207 0.001039
92 0.0
55 0.0
44 0.0
47 0.003957
51 0.00088
64 0.00299
77 0.002994
80 0.001988
88 0.001987
96 0.001993
117 0.0
135 0.0
154 0.0
172 0.0
190 0.000962
202 0.001965
218 0.000998
224 0.000994
100 0.001994
54 0.001964
53 0.003003
59 0.002996
69 0.00403
80 0.003995
88 0.00397
94 0.004979
99 0.004985
116 0.00399
134 0.005991
153 0.001994
172 0.006007
189 0.002022
204 0.006
223 0.004987
231 0.003984
224 0.002977
87 0.000968
65 0.002996
67 0.001015
73 0.001009
81 0.0
98 0.0
108 0.001046
110 0.001988
122 0.002027
141 0.001964
155 0.002988
177 0.005021
190 0.005017
206 0.003956
222 0.005016
231 0.006016
243 0.006034
130 0.006982
80 0.006043
71 0.006982
78 0.007044
90 0.007975
110 0.003018
120 0.006984
129 0.0
135 0.000997
145 0.000998
165 0.0
187 0.000963
199 0.000962
218 0.000997
227 0.000966
240 0.001965
155 0.001995
88 0.001995
65 0.001991
73 0.003001
81 0.001971
99 0.00201
109 0.001995
115 0.000966
119 0.000999
130 0.000999
146 0.0
169 0.0
181 0.000999
201 0.0
212 0.0
225 0.000999
104 0.0
60 0.0
47 0.001023
51 0.001972
59 0.000998
76 0.000978
84 0.001993
91 0.001995
100 0.002005
111 0.002067
135 0.001971
149 0.001972
172 0.001996
188 0.002019
201 0.002992
213 0.003027
137 0.003028
47 0.004818
37 0.005985
40 0.004018
42 0.004017
57 0.00299
71 0.003041
74 0.001993
82 0.002025
93 0.002026
115 0.002001
136 0.004038
156 0.0
174 0.002992
195 0.002994
206 0.002991
221 0.002992
158 0.003025
52 0.003006
38 0.001969
40 0.003112
46 0.001004
55 0.002992
70 0.001998
78 0.001995
83 0.00207
99 0.001091
116 0.001031
131 0.001031
157 0.000999
171 0.000993
192 0.0
212 0.001034
223 0.000999
139 0.002967
56 0.004979
48 0.004954
54 0.005993
60 0.007012
70 0.004993
83 0.005989
91 0.006019
95 0.006031
110 0.005984
133 0.002026
148 0.006035
172 0.001004
186 0.005028
206 0.002989
225 0.002004
231 0.001999
115 0.001954
66 0.003023
64 0.002015
71 0.001968
86 0.001
98 0.0
110 0.0
112 0.0
118 0.0
131 0.0
149 0.000997
169 0.000953
191 0.000988
202 0.002
221 0.001961
227 0.001995
110 0.002992
57 0.003007
57 0.003024
66 0.002964
81 0.00298
93 0.002986
102 0.002969
103 0.002941
111 0.002973
129 0.004022
144 0.004984
164 0.003994
186 0.007023
194 0.006016
207 0.001997
218 0.002999
197 0.003956
59 0.000966
43 0.001999
45 0.005023
58 0.001992
68 0.004988
78 0.001995
82 0.001955
90 0.000963
110 0.0
124 0.0
145 0.003123
169 0.002025
183 0.001997
203 0.000974
202 0.001009
110 0.0
40 0.00095
31 0.0
31 0.001968
35 0.002995
51 0.003011
61 0.00301
68 0.002992
72 0.002992
88 0.003987
109 0.004984
123 0.005
150 0.004967
173 0.005951
182 0.005986
208 0.005941
218 0.005952
160 0.005984
58 0.00399
44 0.004007
41 0.002937
41 0.007979
51 0.00399
68 0.007957
75 0.001995
79 0.006016
93 0.005964
103 0.005989
127 0.004984
151 0.001959
167 0.003029
190 0.001993
210 0.001963
221 0.001857
235 0.001029
224 0.0
126 0.001001
68 0.00399
64 0.000953
69 0.001029
77 0.003992
87 0.004001
99 0.004946
103 0.004963
108 0.004961
123 0.003983
145 0.005015
163 0.004993
182 0.004957
198 0.004975
213 0.005022
189 0.004987
240 0.004959
253 0.005017
210 0.005019
96 0.005016
84 0.004984
88 0.001949
97 0.002992
112 0.002962
121 0.002983
128 0.002992
129 0.00299
141 0.003007
159 0.007962
173 0.00402
190 0.007926
205 0.003988
222 0.007977
237 0.007895
187 0.007975
193 0.006978
180 0.002991
130 0.006972
105 0.000998
105 0.006011
110 0.001994
118 0.00199
123 0.000971
129 0.0
130 0.001011
133 0.00197
142 0.0
149 0.001072
159 0.001996
166 0.002989
173 0.001971
179 0.003025
186 0.002958
190 0.001965
155 0.002024
113 0.003004
97 0.001992
99 0.001997
103 0.001996
108 0.002053
115 0.002065
119 0.001996
121 0.000989
124 0.001037
133 0.001001
144 0.001015
151 0.001997
161 0.0
166 0.0
174 0.00201
181 0.003995
140 0.005015
112 0.005017
90 0.005986
91 0.004991
94 0.006967
100 0.006956
105 0.006949
110 0.006988
112 0.003013
115 0.007013
123 0.002007
134 0.003988
142 0.002036
152 0.002966
158 0.002967
167 0.003006
175 0.002962
168 0.000996
120 0.001
93 0.002998
90 0.002046
95 0.004999
102 0.0
107 0.0
112 0.0
113 0.00094
118 0.001989
126 0.001995
134 0.001956
143 0.001975
153 0.002996
158 0.00399
166 0.004963
171 0.004995
135 0.004022
100 0.004978
96 0.005985
102 0.005978
107 0.001997
113 0.004012
121 0.00399
122 0.003973
124 0.003989
127 0.001856
134 0.001995
144 0.004988
153 0.005984
159 0.000996
165 0.007001
168 0.004991
133 0.004983
101 0.004026
101 0.002015
105 0.001994
110 0.002972
115 0.002972
123 0.001982
123 0.002002
123 0.001971
129 0.001997
137 0.002998
143 0.002114
162 0.001055
170 0.000989
179 0.000998
110 0.000969
84 0.0
79 0.000999
84 0.000996
90 0.002045
100 0.001997
108 0.002033
110 0.001966
113 0.002003
118 0.00202
131 0.001995
139 0.001996
152 0.001021
165 0.003009
171 0.003962
159 0.003992
83 0.004008
70 0.002986
71 0.003983
74 0.003961
81 0.003988
90 0.003973
96 0.003982
99 0.003966
106 0.007008
113 0.001999
123 0.006009
137 0.003989
148 0.000996
159 0.0
169 0.001995
154 0.002059
99 0.003954
67 0.00399
69 0.003026
72 0.003023
80 0.003971
88 0.003989
95 0.004975
100 0.005927
103 0.005958
114 0.004984
128 0.006985
140 0.005981
152 0.006984
160 0.003996
172 0.006979
172 0.006946
114 0.006015
72 0.007006
71 0.006982
78 0.006017
85 0.005003
96 0.007965
103 0.000997
107 0.0
110 0.000997
120 0.00083
132 0.00102
142 0.001995
157 0.00098
170 0.000987
178 0.001007
190 0.001988
192 0.001995
106 0.000982
78 0.001999
81 0.000998
91 0.001986
98 0.001984
112 0.002033
117 0.001008
120 0.0
125 0.0
137 0.0
146 0.001
162 0.000965
170 0.0
183 0.001996
194 0.001954
200 0.002983
161 0.002988
92 0.004022
86 0.005023
95 0.005973
105 0.005025
118 0.005988
129 0.005981
131 0.005986
132 0.004994
140 0.005017
148 0.002957
163 0.005975
171 0.005985
184 0.007014
193 0.003181
199 0.006985
146 0.001986
84 0.002021
79 0.00299
87 0.002006
98 0.001995
108 0.001991
118 0.001028
120 0.001045
121 0.005957
126 0.005983
134 0.002992
154 0.002966
169 0.001994
177 0.000997
189 0.002005
190 0.000998
126 0.001989
70 0.002044
66 0.005037
69 0.002992
75 0.004986
84 0.002992
94 0.003989
97 0.00399
100 0.002992
112 0.001994
121 0.001899
135 0.003989
151 0.001994
164 0.002993
172 0.002038
180 0.002022
86 0.004994
53 0.005015
52 0.005987
55 0.005044
61 0.005974
68 0.003979
79 0.006982
83 0.006975
88 0.006945
101 0.007956
112 0.007039
126 0.007961
144 0.003988
157 0.00798
170 0.004023
181 0.00698
174 0.002994
77 0.005023
57 0.003039
54 0.002997
56 0.006977
61 0.004021
72 0.006982
79 0.003038
82 0.006997
90 0.005017
99 0.004053
115 0.003964
134 0.001
145 0.004018
163 0.0
172 0.003987
187 0.000961
198 0.000964
153 0.001995
73 0.002009
63 0.000998
64 0.002
69 0.002997
74 0.001007
86 0.000997
92 0.000967
94 0.000999
105 0.000965
120 0.000997
132 0.000998
150 0.0
161 0.0
177 0.000999
189 0.0
199 0.0
202 0.000969
101 0.001996
77 0.001996
75 0.002987
77 0.002052
86 0.003032
98 0.003941
103 0.005001
104 0.0049
112 0.005007
121 0.00499
137 0.005006
148 0.004975
166 0.004996
182 0.004019
190 0.004995
202 0.004983
177 0.00498
86 0.00595
70 0.004988
71 0.006005
76 0.005984
88 0.005962
95 0.006033
100 0.00399
103 0.005985
112 0.00588
124 0.005961
139 0.004941
154 0.005035
164 0.004983
181 0.005019
195 0.004996
204 0.004993
172 0.004986
121 0.005019
71 0.003966
67 0.006983
69 0.003989
71 0.007948
85 0.008008
93 0.007807
98 0.007952
103 0.007932
117 0.00699
132 0.003029
145 0.007979
164 0.003014
178 0.007974
190 0.002
204 0.003026
212 0.003027
147 0.002968
75 0.001974
68 0.002002
69 0.0
71 0.00202
82 0.000947
93 0.004988
99 0.001011
104 0.004999
115 0.002023
125 0.002024
145 0.000975
162 0.001997
176 0.001979
189 0.001995
204 0.002004
212 0.003023
218 0.004978
108 0.004987
81 0.005042
77 0.004966
80 0.004981
89 0.005014
104 0.004992
109 0.004979
116 0.004983
123 0.006981
133 0.004988
147 0.006984
166 0.006017
177 0.005018
193 0.004011
207 0.000967
215 0.003016
223 0.002014
175 0.003027
89 0.001947
81 0.001998
85 0.002959
96 0.002019
102 0.002994
119 0.001993
123 0.002019
125 0.002028
134 0.001968
152 0.001022
163 0.0
180 0.0
188 0.0
203 0.0
215 0.000965
219 0.001968
120 0.001993
79 0.001995
74 0.002002
79 0.002032
89 0.003982
97 0.004988
110 0.005983
114 0.004917
119 0.00696
129 0.005027
144 0.006971
158 0.003978
175 0.003019
185 0.003989
199 0.003979
212 0.003991
217 0.002027
136 0.001994
85 0.001996
68 0.006017
71 0.006959
74 0.005986
86 0.005986
94 0.00599
104 0.006016
108 0.00201
118 0.00202
128 0.001996
147 0.002029
159 0.002967
175 0.002039
191 0.002961
199 0.002035
211 0.001996
144 0.001002
87 0.000901
65 0.0
68 0.0
74 0.0
88 0.0
96 0.0
105 0.0
108 0.0
118 0.0
132 0.000969
149 0.001966
163 0.00203
180 0.001022
189 0.001985
203 0.003026
215 0.004997
196 0.005021
86 0.004024
69 0.005019
70 0.005011
78 0.003979
85 0.004001
100 0.003975
110 0.003988
113 0.004072
123 0.003013
133 0.00402
152 0.003989
167 0.006942
180 0.002994
192 0.006014
207 0.006939
213 0.004986
166 0.004976
79 0.002017
72 0.001988
77 0.002027
83 0.00203
99 0.001993
115 0.002047
121 0.002026
125 0.001996
136 0.001023
145 0.00203
163 0.001997
173 0.002992
188 0.001977
202 0.000969
208 0.001001
129 0.0
80 0.001966
64 0.0
68 0.0
75 0.0
88 0.0
99 0.000999
101 0.001996
106 0.002989
118 0.004987
129 0.005965
145 0.004979
162 0.003977
172 0.003967
187 0.004986
195 0.004985
135 0.003003
62 0.002992
52 0.001993
54 0.002959
58 0.00698
70 0.001
79 0.005022
85 0.00504
89 0.006004
100 0.004981
109 0.004975
129 0.005985
148 0.001012
159 0.003978
176 0.001003
185 0.003024
177 0.002969
75 0.000988
54 0.000992
50 0.00201
52 0.001932
59 0.001971
72 0.001997
78 0.002031
83 0.00195
93 0.001996
102 0.002047
121 0.0
138 0.001996
153 0.001962
167 0.002992
183 0.003989
193 0.003984
182 0.003873
108 0.003958
61 0.003987
57 0.003989
58 0.003964
66 0.003981
79 0.004976
83 0.004955
88 0.003992
97 0.002992
106 0.002026
123 0.001956
139 0.004986
155 0.0
169 0.005024
182 0.001963
195 0.004973
209 0.005021
209 0.005021
102 0.00499
75 0.004987
70 0.005004
76 0.000931
81 0.004992
95 0.001971
103 0.001965
105 0.000996
113 0.001022
121 0.001874
135 0.002021
156 0.000981
167 0.000991
183 0.0
197 0.0
206 0.0
212 0.0
148 0.0
81 0.0
76 0.0
79 0.0
89 0.0
98 0.0
109 0.000998
113 0.001013
115 0.0
126 0.001995
144 0.003953
155 0.003983
172 0.00398
185 0.003987
195 0.003996
208 0.004989
213 0.004958
141 0.002971
78 0.00501
71 0.004957
74 0.002992
79 0.007948
90 0.003989
100 0.00701
105 0.002978
107 0.007979
123 0.007944
132 0.007951
148 0.00798
168 0.003023
181 0.007963
194 0.003008
202 0.006007
214 0.001994
132 0.0
84 0.001001
64 0.000994
65 0.000999
65 0.001995
74 0.001979
87 0.001989
92 0.002025
98 0.002119
104 0.002025
120 0.0
140 0.001995
152 0.001989
170 0.003993
184 0.002992
196 0.003982
208 0.004988
166 0.004
97 0.004986
64 0.005054
62 0.005018
65 0.004019
74 0.005027
83 0.00502
92 0.005019
95 0.002994
102 0.002992
116 0.001993
132 0.006957
149 0.001971
164 0.003995
182 0.004021
192 0.003977
207 0.003964
215 0.00399
205 0.002001
105 0.00203
73 0.001002
69 0.00103
74 0.001029
80 0.001028
93 0.000981
99 0.000966
104 0.000999
113 0.001998
122 0.0
141 0.0
161 0.0
172 0.0
188 0.000964
198 0.0
211 0.002986
168 0.004027
102 0.004008
76 0.005069
76 0.006034
79 0.004992
92 0.005972
104 0.005898
108 0.005983
111 0.005017
116 0.005023
131 0.00596
145 0.004987
160 0.00601
174 0.003994
189 0.002992
198 0.003991
148 0.00396
94 0.003991
71 0.002016
74 0.00104
78 0.001028
89 0.001965
98 0.005981
100 0.000998
104 0.006024
111 0.000983
123 0.00499
139 0.0
148 0.00399
161 0.003001
176 0.002992
181 0.001987
121 0.001035
85 0.0
84 0.0
89 0.001028
92 0.0
103 0.0
112 0.0
114 0.0
120 0.0
127 0.0
140 0.00204
152 0.003054
162 0.003035
170 0.00495
178 0.005033
187 0.005001
156 0.00602
109 0.00599
105 0.005982
111 0.006017
113 0.004955
117 0.007972
128 0.001999
132 0.001995
135 0.001163
140 0.001995
147 0.001976
157 0.002014
166 0.001995
170 0.001998
179 0.000936
182 0.001952
190 0.0
185 0.004962
136 0.0
119 0.003983
122 0.002024
126 0.001001
131 0.0
138 0.000992
143 0.0
143 0.000967
147 0.001995
151 0.002992
160 0.003025
165 0.003039
173 0.002027
178 0.002955
182 0.002992
187 0.002006
193 0.003975
194 0.004057
139 0.003955
124 0.003999
126 0.00495
131 0.004987
134 0.004998
140 0.006025
145 0.007014
146 0.006015
147 0.007979
152 0.00197
158 0.006978
165 0.001992
170 0.006979
175 0.001964
180 0.001993
182 0.000997
187 0.001965
189 0.003017
182 0.001993
127 0.001962
121 0.000998
129 0.000965
134 0.003019
139 0.002001
144 0.003026
147 0.001991
145 0.001932
149 0.001029
152 0.001083
161 0.002028
166 0.002031
171 0.001999
174 0.002033
178 0.0
181 0.000982
182 0.001996
128 0.001034
115 0.002983
120 0.002977
125 0.002991
132 0.002994
141 0.004989
143 0.003992
142 0.003991
142 0.002018
146 0.002999
152 0.007949
159 0.006974
185 0.006967
194 0.00798
199 0.006998
205 0.007022
146 0.001943
103 0.005974
94 0.000997
106 0.0
113 0.000998
124 0.002032
131 0.00184
135 0.002021
136 0.000995
140 0.001938
152 0.001987
162 0.002995
169 0.002993
180 0.001973
187 0.001996
192 0.001973
192 0.003015
129 0.002001
73 0.001946
76 0.000999
85 0.0
92 0.000962
104 0.002026
110 0.002023
115 0.002053
115 0.002048
123 0.001994
137 0.002039
146 0.001996
158 0.002001
166 0.001994
175 0.003032
185 0.003005
187 0.003017
98 0.004989
60 0.00398
60 0.002985
73 0.003002
79 0.006985
90 0.003004
100 0.006011
105 0.004984
106 0.004984
115 0.004977
124 0.004992
138 0.002957
149 0.001995
162 0.0
168 0.000998
178 0.0
184 0.0
132 0.000997
57 0.002989
56 0.004039
69 0.005001
81 0.004994
89 0.004999
102 0.005917
106 0.005019
105 0.002971
112 0.007005
127 0.005
136 0.004983
150 0.005008
162 0.001042
170 0.005957
178 0.002991
185 0.001996
138 0.001999
59 0.00195
61 0.0
72 0.000999
87 0.001022
97 0.000997
110 0.004015
112 0.003989
114 0.00399
124 0.005013
136 0.003983
146 0.004015
159 0.003979
172 0.005984
179 0.002029
187 0.00698
106 0.006998
64 0.006962
61 0.005938
76 0.000992
86 0.002992
101 0.001949
111 0.002012
111 0.000954
111 0.0
124 0.002983
132 0.002975
148 0.002903
162 0.004007
172 0.005005
184 0.004981
161 0.004977
57 0.005977
43 0.00496
50 0.005162
64 0.005985
81 0.006976
89 0.007985
95 0.007961
95 0.007969
105 0.007016
117 0.003032
131 0.007952
144 0.002993
160 0.002991
170 0.003034
182 0.000967
126 0.001969
35 0.000941
30 0.000868
37 0.0
49 0.001967
64 0.004024
75 0.002001
79 0.002991
83 0.00202
92 0.001991
110 0.003018
122 0.001972
142 0.002002
161 0.00299
171 0.000997
175 0.001979
53 0.004028
24 0.00403
26 0.00399
36 0.00399
46 0.003981
64 0.003977
72 0.004035
76 0.004963
83 0.005025
94 0.004995
114 0.004984
136 0.003964
148 0.003995
169 0.004987
180 0.004028
176 0.003973
50 0.006959
27 0.004988
30 0.005981
39 0.002192
48 0.006978
67 0.002997
75 0.006982
80 0.001995
91 0.002964
101 0.002969
124 0.00296
145 0.002008
160 0.001005
179 0.000967
191 0.001005
198 0.002946
90 0.002993
46 0.002036
37 0.001964
51 0.002037
59 0.002028
80 0.002034
87 0.002037
94 0.00199
98 0.00202
112 0.001995
129 0.001041
151 0.001998
167 0.001977
187 0.001995
208 0.001954
203 0.002961
79 0.003959
48 0.004986
51 0.004954
67 0.003948
86 0.003966
99 0.003956
107 0.003991
108 0.002988
117 0.001981
132 0.006982
148 0.002986
166 0.006978
185 0.001997
202 0.007027
216 0.006968
149 0.006934
57 0.006972
51 0.002029
58 0.006985
72 0.00197
93 0.001997
99 0.000997
103 0.002041
107 0.001046
119 0.002992
142 0.002987
161 0.001996
178 0.003028
191 0.003024
211 0.003025
153 0.001993
75 0.002002
35 0.001995
38 0.002029
45 0.001997
56 0.000964
75 0.000998
80 0.000998
87 0.00303
93 0.001991
112 0.002983
135 0.003009
151 0.00296
175 0.002994
199 0.003002
208 0.002929
101 0.003003
48 0.002985
31 0.003006
37 0.003968
43 0.003972
59 0.004948
74 0.007946
79 0.002975
86 0.007923
100 0.006973
115 0.005989
138 0.00601
153 0.005984
177 0.005062
200 0.001983
211 0.004971
221 0.001955
88 0.000881
55 0.001969
51 0.002045
59 0.001021
67 0.002958
86 0.002009
100 0.000949
103 0.0
113 0.001987
132 0.002992
145 0.002993
166 0.002997
179 0.002994
200 0.004
217 0.005049
228 0.004994
241 0.00503
150 0.004992
83 0.005984
77 0.005002
88 0.006992
98 0.004001
118 0.002961
126 0.002984
134 0.003967
139 0.001956
150 0.001992
169 0.002989
183 0.002993
202 0.001997
218 0.005019
232 0.001948
245 0.003988
255 0.003982
229 0.004009
110 0.002991
96 0.002953
107 0.001961
121 0.002042
135 0.001987
149 0.001964
154 0.001998
154 0.001995
161 0.00202
172 0.001998
190 0.001987
210 0.002021
220 0.002002
237 0.000983
189 0.001974
190 0.000999
129 0.001989
108 0.003007
110 0.003987
117 0.004945
125 0.005983
131 0.002992
136 0.007952
138 0.007998
139 0.005961
146 0.00599
151 0.005989
161 0.005987
170 0.003017
176 0.006003
184 0.002013
189 0.001982
163 0.000995
107 0.001996
100 0.001986
105 0.000957
110 0.00399
117 0.001997
124 0.003984
128 0.002992
130 0.001992
135 0.002004
144 0.003009
150 0.001967
158 0.000997
166 0.000975
173 0.000968
181 0.000969
179 0.000962
110 0.00087
95 0.000999
97 0.000998
103 0.002991
108 0.003034
118 0.004983
123 0.004973
125 0.004992
130 0.004945
139 0.004946
145 0.004992
154 0.005028
160 0.005034
169 0.005016
177 0.00601
199 0.004986
127 0.007949
87 0.007962
84 0.006982
94 0.006014
105 0.001972
113 0.005988
125 0.002042
128 0.004975
133 0.000963
142 0.002008
150 0.002001
163 0.001979
176 0.002004
182 0.003022
190 0.001997
196 0.0
153 0.0
92 0.0
89 0.0
99 0.000999
109 0.000997
120 0.001985
129 0.002993
131 0.002992
132 0.004041
139 0.005018
151 0.003988
158 0.006999
168 0.002025
179 0.001978
184 0.000964
172 0.0
92 0.002931
82 0.002959
84 0.000999
94 0.001995
103 0.001
115 0.001995
121 0.001
121 0.001043
126 0.0
132 0.0
145 0.000999
155 0.0
165 0.0
174 0.000997
182 0.0
153 0.000998
77 0.001002
69 0.000971
74 0.001996
82 0.001972
88 0.002003
100 0.001995
103 0.000998
107 0.001968
115 0.002004
122 0.001036
135 0.002024
144 0.002021
157 0.002014
170 0.002985
177 0.002982
143 0.003959
77 0.00399
61 0.003984
65 0.004042
72 0.00397
80 0.003023
92 0.004021
98 0.004021
101 0.003989
107 0.003979
114 0.002964
128 0.003019
144 0.000971
152 0.001962
166 0.000837
173 0.0
184 0.001995
140 0.002983
85 0.002993
63 0.003991
70 0.002983
75 0.003004
87 0.002985
96 0.002027
101 0.002033
105 0.002984
110 0.001982
120 0.0
136 0.000962
146 0.001969
162 0.001809
174 0.002028
183 0.002061
191 0.001047
152 0.002002
74 0.001995
68 0.002998
73 0.003989
80 0.004983
95 0.004947
102 0.004938
107 0.004982
111 0.005984
118 0.003969
129 0.00598
145 0.004987
155 0.004995
169 0.005039
183 0.001962
190 0.005002
180 0.0
111 0.004986
68 0.000995
71 0.001992
77 0.002982
90 0.001014
101 0.001959
106 0.001969
108 0.002042
111 0.002004
122 0.001982
138 0.0
147 0.000962
164 0.000965
175 0.000974
185 0.000973
181 0.000998
96 0.0
63 0.000931
63 0.002994
67 0.003005
78 0.004034
92 0.003993
97 0.003036
100 0.003961
108 0.004013
117 0.004987
134 0.004989
145 0.004986
157 0.003987
172 0.002982
182 0.003987
175 0.004016
76 0.006959
57 0.003976
54 0.00699
59 0.001994
65 0.006019
79 0.004995
84 0.004017
88 0.004965
92 0.002992
102 0.003023
118 0.002953
132 0.002992
143 0.002992
162 0.002953
171 0.002948
168 0.002993
76 0.002023
55 0.0
52 0.001034
56 0.002003
62 0.002026
75 0.001028
81 0.00202
83 0.00204
92 0.002002
100 0.001985
116 0.002959
129 0.001996
142 0.002031
154 0.002992
167 0.002995
159 0.002028
81 0.002994
67 0.002962
68 0.003975
75 0.004986
82 0.004974
96 0.005005
99 0.004987
103 0.004987
112 0.00595
120 0.005021
134 0.003986
148 0.005985
156 0.004978
168 0.005019
175 0.00401
184 0.006961
124 0.007006
103 0.006976
102 0.006947
112 0.001999
118 0.00799
132 0.001994
136 0.00798
139 0.000963
144 0.000999
151 0.0
162 0.001995
170 0.002987
177 0.002023
185 0.002999
193 0.002027
184 0.002979
135 0.00102
120 0.001002
125 0.001956
134 0.001996
140 0.001997
149 0.002982
153 0.002022
152 0.001995
156 0.002002
162 0.002008
170 0.001969
179 0.0
183 0.0
190 0.002009
194 0.001867
190 0.000963
131 0.002034
121 0.004008
126 0.003983
133 0.003982
137 0.004009
148 0.003016
150 0.003952
151 0.003979
154 0.004003
160 0.003022
168 0.006936
176 0.005954
181 0.005027
187 0.006949
192 0.003163
211 0.007976
147 0.002941
119 0.007955
117 0.001991
128 0.002997
130 0.002035
142 0.003022
149 0.000987
151 0.000956
153 0.001991
160 0.003995
170 0.001996
179 0.003962
187 0.003
195 0.003002
203 0.002032
206 0.003
191 0.0
121 0.0
104 0.0
112 0.0
120 0.0
127 0.0
139 0.002026
143 0.002028
145 0.002024
150 0.002981
157 0.004027
168 0.003982
178 0.004984
185 0.004912
191 0.004963
196 0.004989
203 0.005019
169 0.003025
115 0.003002
96 0.003951
106 0.00598
116 0.0
126 0.004986
138 0.002016
140 0.002003
140 0.002993
145 0.0
151 0.0
163 0.001992
174 0.00299
180 0.00399
186 0.004983
195 0.003967
192 0.002991
130 0.002
90 0.001986
99 0.006024
110 0.001957
121 0.004962
133 0.003007
140 0.001996
138 0.003021
139 0.003012
147 0.002982
158 0.0
166 0.00203
175 0.003025
184 0.000963
189 0.001004
178 0.001962
91 0.003978
82 0.004985
90 0.005004
105 0.002959
113 0.002033
127 0.001993
132 0.002019
132 0.003
134 0.003148
145 0.002999
151 0.002002
163 0.002021
170 0.002016
180 0.001965
188 0.0
163 0.000998
76 0.0
69 0.0
79 0.0
89 0.001044
99 0.000976
109 0.0
116 0.000999
116 0.001
122 0.0
134 0.003015
142 0.002961
154 0.003985
164 0.004938
171 0.004932
171 0.004024
86 0.006006
59 0.002997
59 0.007009
66 0.003989
76 0.007014
91 0.006973
97 0.006981
100 0.007946
102 0.007997
113 0.007973
124 0.002993
136 0.006983
147 0.002993
160 0.002037
168 0.002992
124 0.001002
48 0.002992
43 0.001996
53 0.00202
61 0.002005
73 0.002953
87 0.001984
91 0.001988
92 0.002001
103 0.001969
111 0.0
128 0.001003
141 0.000968
153 0.001001
165 0.000998
157 0.002021
69 0.000969
39 0.002043
46 0.001995
61 0.002993
75 0.004999
89 0.005996
95 0.004986
97 0.005012
104 0.004938
116 0.004989
126 0.004987
144 0.004984
159 0.002975
169 0.001981
152 0.0
68 0.002943
46 0.001954
52 0.001016
67 0.0
77 0.0
93 0.0
97 0.001995
96 0.000993
104 0.002026
118 0.002997
127 0.004987
143 0.003934
156 0.005012
166 0.002994
133 0.001993
55 0.002017
47 0.001994
58 0.001975
68 0.005982
81 0.001969
93 0.005985
98 0.002998
100 0.005987
109 0.004996
119 0.004986
135 0.003944
145 0.001997
157 0.002002
168 0.000952
134 0.000963
77 0.000997
49 0.002989
57 0.003024
64 0.003024
76 0.003984
92 0.003022
94 0.002991
98 0.00299
108 0.003964
116 0.002999
133 0.001971
142 0.002002
157 0.001993
168 0.00698
178 0.001996
145 0.00698
64 0.006015
54 0.004957
59 0.004988
66 0.004987
77 0.004979
93 0.002007
97 0.003982
101 0.002023
110 0.002029
119 0.00203
137 0.001975
152 0.002994
161 0.002012
175 0.004924
186 0.004984
194 0.003965
155 0.004078
79 0.007944
60 0.002993
66 0.008011
78 0.007981
84 0.006982
100 0.007973
105 0.007978
109 0.007921
119 0.002036
129 0.007006
146 0.001997
158 0.002993
169 0.003052
184 0.002966
198 0.002993
206 0.002993
192 0.002007
86 0.000979
71 0.000994
78 0.0
86 0.0
100 0.0
116 0.0
120 0.0
122 0.000976
126 0.000974
142 0.000998
156 0.000999
171 0.001968
185 0.0
200 0.001995
209 0.003034
215 0.003002
125 0.004978
78 0.006016
78 0.003004
94 0.003999
103 0.003025
123 0.002009
129 0.002001
132 0.002993
136 0.003038
144 0.0
161 0.002998
175 0.00596
188 0.0
200 0.006012
210 0.00502
209 0.005974
96 0.000973
76 0.005954
82 0.001996
90 0.004986
106 0.0
123 0.0
129 0.000967
130 0.001011
137 0.002949
145 0.002992
162 0.002023
178 0.003008
187 0.002971
202 0.003021
210 0.0
167 0.00201
82 0.001995
76 0.001993
87 0.002002
96 0.001995
109 0.002005
120 0.002025
125 0.002985
127 0.003003
137 0.002992
145 0.004012
162 0.003983
176 0.003997
185 0.003014
198 0.00398
206 0.004013
138 0.004022
77 0.004953
75 0.004969
85 0.004984
96 0.003989
105 0.003993
119 0.003012
121 0.00298
124 0.004954
134 0.005983
144 0.002
156 0.007023
171 0.00598
179 0.005943
191 0.004987
202 0.0
166 0.004976
81 0.001963
74 0.002032
80 0.002021
92 0.001956
106 0.000998
113 0.0
118 0.001974
118 0.001957
127 0.002993
142 0.002991
152 0.001994
167 0.004939
178 0.005042
188 0.004993
198 0.004986
177 0.005965
127 0.007969
73 0.00699
78 0.002967
87 0.005984
101 0.000944
115 0.000967
118 0.002001
120 0.001961
122 0.001835
138 0.0
152 0.002004
159 0.002984
176 0.001977
182 0.002949
195 0.003002
187 0.00395
101 0.002954
72 0.003993
80 0.001997
89 0.001997
104 0.002968
114 0.003026
121 0.002949
119 0.000974
122 0.000994
133 0.000997
149 0.001824
158 0.002032
173 0.001996
182 0.002064
195 0.001981
123 0.002038
75 0.002027
61 0.002017
74 0.002027
81 0.003005
97 0.003983
106 0.005934
109 0.004999
111 0.006979
119 0.005984
129 0.006018
147 0.00398
164 0.002978
173 0.002
184 0.002027
197 0.001995
155 0.002947
61 0.002996
47 0.002994
54 0.001993
62 0.003048
71 0.002026
87 0.002031
93 0.000891
95 0.0
107 0.0
117 0.000956
137 0.000968
155 0.001969
165 0.002992
181 0.002961
194 0.002994
166 0.001995
72 0.002992
44 0.002993
46 0.002992
55 0.003023
62 0.00303
82 0.002995
92 0.001967
97 0.001999
106 0.00401
116 0.003966
136 0.002946
155 0.004979
166 0.005026
181 0.00499
198 0.004018
206 0.003014
109 0.004955
65 0.002982
53 0.003964
65 0.007006
74 0.001985
92 0.006972
101 0.001993
106 0.007979
114 0.007978
123 0.007987
139 0.002994
160 0.001993
173 0.0
192 0.0
202 0.0
215 0.000964
112 0.001998
70 0.00102
63 0.002988
76 0.00399
88 0.002992
105 0.00196
119 0.002013
121 0.002992
125 0.001994
133 0.001963
151 0.0
167 0.000994
184 0.000974
198 0.000974
211 0.000883
154 0.00204
69 0.003023
67 0.003983
76 0.003996
94 0.004883
107 0.004995
120 0.004958
123 0.004986
124 0.003995
137 0.002992
156 0.001993
168 0.00297
187 0.002962
202 0.007178
213 0.002963
142 0.007007
65 0.002955
50 0.006984
59 0.004985
67 0.003994
84 0.004987
95 0.002975
99 0.002994
101 0.00296
115 0.001996
127 0.002036
147 0.0
158 0.0
178 0.0
195 0.0
160 0.0
59 0.000955
46 0.001987
52 0.001963
63 0.001953
72 0.001969
88 0.003988
92 0.005954
98 0.006996
106 0.007971
120 0.007946
140 0.003002
150 0.006979
167 0.002993
178 0.005984
187 0.001995
97 0.0
59 0.0
63 0.0
75 0.000994
89 0.002
100 0.001993
110 0.003974
112 0.00395
117 0.004963
132 0.001976
146 0.007978
161 0.001996
172 0.005983
187 0.005987
196 0.005013
180 0.003033
100 0.002989
79 0.000979
87 0.003025
98 0.003025
110 0.002995
125 0.001996
128 0.001967
129 0.002014
139 0.002004
147 0.001995
163 0.001986
177 0.002999
185 0.003
198 0.003989
206 0.003037
145 0.00398
92 0.003981
84 0.003973
95 0.002969
109 0.007978
118 0.002955
128 0.00698
130 0.00798
130 0.006967
139 0.003004
147 0.006985
163 0.00201
177 0.001981
184 0.003027
196 0.002996
183 0.001995
118 0.001995
80 0.002968
81 0.002992
87 0.003025
97 0.002992
113 0.001019
118 0.001957
121 0.001962
125 0.001961
137 0.001991
150 0.002029
162 0.002
174 0.001965
189 0.002896
197 0.002027
205 0.002994
148 0.002992
78 0.004986
75 0.004979
83 0.004821
90 0.00402
104 0.002989
112 0.002993
118 0.001994
123 0.003005
131 0.003001
147 0.001986
157 0.00195
172 0.001996
183 0.007016
194 0.001957
204 0.004973
194 0.004983
123 0.005021
76 0.005191
83 0.002955
90 0.003045
98 0.002984
115 0.002031
121 0.002025
125 0.001007
127 0.000971
141 0.000999
156 0.001
167 0.001997
182 0.002029
197 0.00398
205 0.003999
214 0.004973
148 0.005024
96 0.004979
80 0.005016
89 0.004986
103 0.00601
119 0.00599
128 0.005971
134 0.005873
135 0.005991
143 0.005978
157 0.003975
170 0.005981
183 0.002997
197 0.001964
205 0.003017
218 0.001992
158 0.00297
99 0.0
83 0.001993
92 0.000962
110 0.001008
125 0.003947
136 0.002984
141 0.002019
140 0.002963
144 0.002968
158 0.002991
171 0.000955
183 0.000971
195 0.0
209 0.002045
208 0.003021
103 0.00302
77 0.004994
84 0.005993
100 0.004986
111 0.005989
125 0.003028
131 0.003981
130 0.005018
136 0.003988
150 0.003062
159 0.002995
174 0.003
183 0.002134
193 0.007018
196 0.006993
131 0.007016
76 0.005984
84 0.0
92 0.006011
106 0.001994
115 0.006019
125 0.0
126 0.003027
130 0.003007
143 0.000966
152 0.0
166 0.0
178 0.002965
185 0.002991
188 0.002003
112 0.003023
82 0.003012
88 0.003022
102 0.001996
109 0.001961
123 0.001995
128 0.003026
130 0.003036
136 0.002993
143 0.003029
154 0.0
167 0.0
174 0.000967
183 0.001032
189 0.001972
153 0.001996
88 0.002969
87 0.001998
99 0.004004
108 0.00296
117 0.002962
128 0.003995
130 0.001995
131 0.003005
139 0.002
148 0.00699
158 0.002974
168 0.007939
176 0.001959
183 0.005987
191 0.005018
156 0.005981
86 0.005954
87 0.001996
97 0.003996
108 0.002981
117 0.003991
127 0.002978
126 0.002986
127 0.003958
135 0.002965
148 0.002997
156 0.002994
167 0.0
176 0.000967
181 0.002012
187 0.001989
123 0.00398
80 0.003964
79 0.004035
91 0.003021
101 0.004988
115 0.006031
121 0.006015
120 0.006026
121 0.003964
128 0.005887
138 0.003037
151 0.002961
158 0.002963
168 0.002963
175 0.002985
162 0.001958
78 0.003002
65 0.002965
75 0.001996
82 0.001992
94 0.00102
105 0.00398
108 0.003004
107 0.00403
114 0.002987
122 0.002971
136 0.001987
147 0.00204
157 0.003023
168 0.002986
176 0.000994
162 0.000998
67 0.000966
50 0.002
56 0.001998
65 0.002996
71 0.003018
85 0.003005
91 0.002986
92 0.003038
100 0.005019
111 0.004978
122 0.003987
136 0.002992
147 0.006981
155 0.007924
167 0.006991
173 0.005985
95 0.004997
46 0.002023
46 0.005965
58 0.000997
67 0.001996
73 0.002998
88 0.002994
91 0.001997
95 0.0
107 0.0
124 0.000806
133 0.0
148 0.0
155 0.0
168 0.0
180 0.0
186 0.0
123 0.00097
72 0.003038
70 0.002042
81 0.002972
90 0.002994
100 0.002992
113 0.003998
115 0.005989
119 0.006984
127 0.003003
136 0.006987
150 0.002988
163 0.002978
172 0.0
181 0.0
191 0.0
196 0.000973
200 0.0
147 0.000902
95 0.000992
100 0.004996
113 0.000972
124 0.003956
137 0.002985
142 0.002956
143 0.003992
145 0.001995
153 0.002993
164 0.002997
175 0.003021
184 0.003011
194 0.0
199 0.001996
207 0.004015
212 0.00402
175 0.003973
111 0.003991
112 0.005047
122 0.002995
135 0.003956
142 0.003036
153 0.00398
152 0.007018
151 0.003958
155 0.007979
167 0.005985
174 0.004986
185 0.005951
194 0.002982
198 0.003989
204 0.002962
201 0.004021
116 0.001969
99 0.003003
106 0.002965
119 0.002017
123 0.001965
137 0.00296
140 0.002956
139 0.003019
141 0.002989
151 0.003047
158 0.003993
170 0.002008
180 0.0
185 0.003039
194 0.001996
198 0.0
138 0.0
86 0.001995
83 0.00202
93 0.002017
101 0.001995
108 0.001995
119 0.003958
122 0.003993
122 0.002991
130 0.003998
136 0.004987
148 0.004987
160 0.002971
166 0.002997
176 0.00203
185 0.002997
185 0.001995
93 0.007958
68 0.001982
69 0.007019
79 0.007971
86 0.007979
98 0.007979
106 0.007962
110 0.006973
113 0.002956
119 0.005972
133 0.001968
144 0.002993
155 0.00296
167 0.001996
176 0.003007
182 0.003013
188 0.002031
153 0.002997
66 0.002989
61 0.004033
69 0.002993
82 0.002995
95 0.0
102 0.002009
105 0.001987
106 0.0
116 0.0
127 0.0
141 0.0
153 0.0
167 0.000973
175 0.0
187 0.0
192 0.0
135 0.0
61 0.0
60 0.000998
76 0.002945
92 0.003998
103 0.004022
114 0.003989
115 0.003998
117 0.003925
126 0.004979
137 0.004985
153 0.004027
165 0.004927
174 0.003986
186 0.00699
196 0.007979
151 0.007969
71 0.006026
58 0.005989
68 0.001996
86 0.000965
98 0.0
113 0.003023
114 0.000987
114 0.001996
119 0.001977
134 0.001995
145 0.002957
160 0.003018
177 0.0
185 0.000956
180 0.000949
82 0.002961
48 0.002958
52 0.004032
66 0.004979
75 0.005982
92 0.005978
97 0.006009
96 0.005018
100 0.003994
111 0.005778
125 0.004977
140 0.005984
154 0.004948
171 0.003992
180 0.00402
119 0.00496
36 0.001986
29 0.000998
37 0.0
44 0.005996
56 0.001993
68 0.004986
72 0.002005
75 0.006025
87 0.00498
97 0.004981
117 0.003989
135 0.002985
147 0.003989
161 0.003002
168 0.002993
84 0.003027
29 0.000963
29 0.0
40 0.001995
51 0.002995
62 0.00302
74 0.002984
78 0.002975
84 0.002972
99 0.002967
110 0.002046
128 0.002982
141 0.003021
154 0.002023
167 0.005978
163 0.004029
98 0.004027
54 0.004981
56 0.004877
69 0.006025
78 0.005015
92 0.007006
101 0.002964
106 0.00296
110 0.001986
124 0.000968
142 0.002995
151 0.003028
165 0.003003
176 0.003984
185 0.003
196 0.004021
187 0.003006
110 0.003961
85 0.003058
92 0.002992
104 0.003027
112 0.002996
127 0.002967
132 0.002993
133 0.003042
136 0.002996
147 0.002975
157 0.003033
174 0.00398
179 0.002992
190 0.000997
199 0.0
204 0.000999
132 0.000998
95 0.002988
96 0.002997
110 0.002962
121 0.003979
127 0.00499
136 0.005012
136 0.00498
138 0.003015
149 0.006978
158 0.006975
171 0.007987
179 0.001998
188 0.007969
196 0.002995
197 0.006941
124 0.001986
84 0.003026
85 0.002002
97 0.001991
106 0.003016
115 0.002995
123 0.002945
125 0.002993
128 0.003949
138 0.002988
152 0.00399
160 0.0
174 0.0
179 0.0
191 0.0
199 0.000999
145 0.000997
81 0.000998
69 0.0
76 0.001995
84 0.000997
90 0.000945
104 0.003023
110 0.003022
111 0.004002
121 0.003985
136 0.003983
146 0.004002
160 0.003994
171 0.004022
179 0.004147
190 0.004
199 0.003023
164 0.002983
83 0.005014
62 0.000965
67 0.00298
76 0.002992
81 0.002955
98 0.003001
104 0.001049
107 0.003022
113 0.003025
127 0.004995
142 0.003974
155 0.004988
171 0.00494
178 0.005043
189 0.004027
203 0.004987
210 0.002959
132 0.003044
72 0.007104
67 0.001997
76 0.004017
87 0.003003
96 0.003992
110 0.003986
114 0.003039
116 0.004022
126 0.00499
138 0.003025
156 0.003025
170 0.003974
183 0.003941
194 0.002999
208 0.002983
216 0.001022
219 0.0
147 0.0
78 0.000994
83 0.000998
92 0.002008
107 0.003018
123 0.004021
129 0.004012
130 0.002994
134 0.005987
143 0.003
159 0.007945
177 0.007971
186 0.007944
198 0.006019
212 0.000972
219 0.006047
224 0.001969
159 0.004993
80 0.001947
82 0.001969
94 0.002964
107 0.00302
127 0.003964
135 0.003948
135 0.002974
137 0.00202
145 0.002977
162 0.001989
171 0.00199
189 0.002959
203 0.001001
211 0.000956
222 0.0
194 0.0
91 0.000956
66 0.001995
74 0.001998
90 0.002968
103 0.005046
116 0.006019
122 0.003956
124 0.002992
129 0.003991
144 0.003987
163 0.0
175 0.002996
192 0.002038
203 0.002949
217 0.000973
220 0.001992
101 0.001968
54 0.002986
55 0.00299
65 0.002979
75 0.003032
89 0.003983
101 0.00399
103 0.003989
106 0.006021
116 0.00496
131 0.006012
149 0.003989
164 0.006019
179 0.003987
197 0.002986
205 0.003002
154 0.00196
50 0.001979
41 0.001945
49 0.00296
60 0.0
78 0.001002
87 0.001971
95 0.001996
98 0.005003
104 0.002977
123 0.005978
145 0.006983
158 0.006017
178 0.006006
191 0.005978
204 0.006982
204 0.003015
114 0.003025
43 0.001977
47 0.002992
55 0.002994
72 0.0
83 0.003025
96 0.00199
99 0.003949
101 0.003
117 0.003999
138 0.003002
152 0.003001
174 0.002995
191 0.001994
204 0.0
217 0.002051
174 0.003003
70 0.0
48 0.001
56 0.003019
74 0.0
95 0.001965
105 0.000994
109 0.002028
110 0.002034
121 0.001988
142 0.001984
156 0.003022
178 0.003007
197 0.003018
209 0.004048
221 0.003989
133 0.006946
69 0.002954
49 0.007977
59 0.00696
70 0.004946
89 0.003987
103 0.002069
105 0.003998
108 0.003013
115 0.003965
129 0.002994
152 0.002994
166 0.002958
188 0.002001
206 0.003011
216 0.001025
126 0.001988
41 0.0
34 0.001985
45 0.002002
51 0.001993
69 0.001997
80 0.003027
83 0.003999
87 0.003984
101 0.006023
114 0.00602
138 0.006025
158 0.004039
176 0.005983
193 0.003992
207 0.005982
134 0.002994
36 0.003998
24 0.003988
30 0.001964
39 0.003003
50 0.002998
65 0.002055
69 0.002967
75 0.0
88 0.005983
105 0.0
126 0.006053
153 0.004984
167 0.003996
190 0.00303
203 0.002994
186 0.003019
53 0.002979
29 0.003038
27 0.00299
36 0.002991
41 0.002991
60 0.00392
68 0.003993
73 0.002969
84 0.002957
96 0.002961
126 0.002981
137 0.002995
169 0.002988
187 0.002999
205 0.00296
221 0.001972
164 0.003027
78 0.002982
36 0.000967
39 0.001995
46 0.002992
61 0.005023
78 0.007011
81 0.007005
86 0.002995
98 0.002009
112 0.002045
138 0.002973
156 0.00296
182 0.002961
206 0.002943
218 0.002969
238 0.0
237 0.005023
111 0.0
58 0.003022
56 0.002005
65 0.001997
81 0.002026
94 0.003024
106 0.002982
108 0.002993
113 0.003042
127 0.002968
158 0.00295
175 0.002957
196 0.000992
218 0.00296
201 0.002991
242 0.003951
166 0.002993
62 0.003967
52 0.003975
59 0.003983
74 0.003969
95 0.004988
100 0.004995
105 0.004987
108 0.005022
123 0.003996
147 0.007978
165 0.002962
191 0.007947
215 0.007978
227 0.006996
187 0.007934
169 0.003
115 0.006008
85 0.001007
84 0.004966
87 0.003988
92 0.003023
100 0.003012
106 0.002024
109 0.00296
113 0.002795
122 0.003034
133 0.002991
144 0.003042
158 0.003981
166 0.004012
177 0.0
185 0.001949
186 0.001967
119 0.001947
85 0.002063
83 0.001996
86 0.001998
89 0.002007
99 0.003032
107 0.002994
109 0.003001
114 0.002977
124 0.002956
133 0.002937
148 0.002934
156 0.002998
166 0.004987
179 0.004989
185 0.005037
193 0.004982
191 0.005977
117 0.005952
90 0.005972
87 0.002981
91 0.005973
98 0.005987
105 0.005985
113 0.005983
116 0.006935
121 0.007973
129 0.002968
143 0.000969
152 0.001968
165 0.000999
174 0.002947
183 0.002985
192 0.003011
196 0.002996
201 0.002951
129 0.003007
97 0.002987
96 0.003003
100 0.002954
110 0.000828
122 0.001965
128 0.002023
131 0.002013
134 0.002027
139 0.002029
150 0.001958
158 0.000986
170 0.001963
180 0.000998
186 0.002028
195 0.002
171 0.002006
116 0.001973
90 0.002022
91 0.001951
99 0.001962
110 0.003987
118 0.004022
124 0.004977
126 0.004994
129 0.004986
140 0.006027
153 0.007979
158 0.006961
169 0.004988
179 0.00096
184 0.004992
190 0.002954
117 0.00296
87 0.002958
78 0.0
81 0.001965
85 0.002029
94 0.001994
100 0.001995
104 0.0
108 0.001912
113 0.00199
126 0.002991
140 0.002994
148 0.002989
160 0.00203
167 0.001993
176 0.002973
131 0.003047
82 0.002991
70 0.002021
70 0.004002
73 0.003044
83 0.003907
89 0.004975
94 0.005985
98 0.004986
100 0.004986
112 0.00498
121 0.005017
136 0.004987
150 0.005007
157 0.00502
169 0.004025
149 0.006994
98 0.003014
70 0.007015
68 0.002992
70 0.006025
77 0.005986
83 0.004991
91 0.005956
94 0.00105
98 0.002977
109 0.002888
120 0.002993
130 0.002992
147 0.002957
158 0.002994
167 0.002994
175 0.002998
161 0.0
90 0.000998
75 0.002983
77 0.001984
81 0.0
88 0.000965
97 0.0
101 0.0
103 0.0
111 0.001964
121 0.002028
132 0.00201
144 0.00399
158 0.00399
165 0.004997
176 0.004989
177 0.00502
105 0.005006
82 0.002984
79 0.006026
83 0.004948
92 0.003026
99 0.003041
103 0.004952
104 0.002994
108 0.00399
118 0.0
129 0.004986
137 0.005066
151 0.002976
159 0.003975
171 0.002032
162 0.00299
114 0.002963
79 0.001993
76 0.000994
77 0.001994
83 0.00199
93 0.002979
96 0.002988
99 0.003999
105 0.002992
110 0.001988
122 0.004995
131 0.00498
148 0.005018
158 0.004984
166 0.003964
176 0.006028
120 0.005973
89 0.00303
73 0.004948
73 0.004975
75 0.005844
84 0.006982
90 0.005984
95 0.006011
97 0.007012
105 0.007056
115 0.003013
123 0.007978
138 0.003029
153 0.002992
161 0.002961
173 0.0
180 0.000986
131 0.0
85 0.002995
78 0.003957
79 0.000998
81 0.005948
89 0.002992
98 0.006985
101 0.003989
104 0.005992
112 0.005036
120 0.004979
134 0.004983
144 0.004996
158 0.004983
172 0.00203
179 0.003051
190 0.002992
171 0.002993
108 0.003041
87 0.00296
89 0.002973
91 0.0
100 0.000996
111 0.002986
113 0.002987
116 0.002986
120 0.002981
132 0.002989
145 0.003026
157 0.003014
168 0.004023
180 0.005988
187 0.00699
197 0.00698
203 0.00396
166 0.007994
108 0.002993
94 0.000965
96 0.001998
101 0.003991
114 0.00199
118 0.002993
121 0.002964
122 0.002994
127 0.0
139 0.0
149 0.0
163 0.001998
175 0.002038
182 0.001947
192 0.001975
199 0.002989
167 0.002975
106 0.004021
89 0.003981
90 0.004956
95 0.005021
101 0.004986
112 0.006941
116 0.004021
118 0.006989
123 0.004013
136 0.003991
145 0.00302
160 0.002996
168 0.003022
180 0.003955
190 0.006978
196 0.002994
196 0.007979
123 0.003024
88 0.006984
82 0.006992
84 0.005966
89 0.005015
100 0.001994
104 0.002946
108 0.001988
114 0.002927
121 0.002989
132 0.002985
150 0.003001
156 0.003026
172 0.002993
178 0.001958
188 0.00296
187 0.003013
115 0.003021
86 0.003989
83 0.001009
86 0.002975
92 0.0
99 0.0
106 0.0
107 0.00303
111 0.000991
119 0.002035
131 0.003992
140 0.005033
153 0.004915
161 0.003984
172 0.006993
180 0.002944
186 0.007989
160 0.003004
101 0.003042
95 0.003007
99 0.002963
102 0.003988
110 0.003025
116 0.003
117 0.0
120 0.002062
125 0.00303
133 0.001998
142 0.003001
153 0.004023
159 0.002994
169 0.003023
176 0.0
182 0.003006
185 0.001977
126 0.001998
110 0.001995
109 0.002017
116 0.00495
118 0.003993
126 0.005002
130 0.003027
130 0.002967
133 0.002993
138 0.003039
146 0.002948
155 0.006974
162 0.001994
169 0.006981
177 0.005985
181 0.005949
186 0.005996
166 0.004999
117 0.002944
115 0.003955
119 0.004019
127 0.002959
134 0.002005
136 0.002967
135 0.0
136 0.000954
139 0.001934
147 0.001971
155 0.001957
161 0.002022
168 0.001912
173 0.001988
179 0.001974
144 0.00296
116 0.001956
107 0.002977
111 0.002979
116 0.003995
122 0.003989
127 0.003848
127 0.003988
127 0.003967
129 0.003991
136 0.006015
143 0.003989
150 0.005969
157 0.004013
163 0.0059
170 0.004927
170 0.003988
133 0.003991
98 0.003996
95 0.004003
99 0.00399
103 0.00797
108 0.002963
113 0.007971
114 0.007971
114 0.006983
120 0.006956
129 0.000967
134 0.00499
150 0.00292
162 0.002991
169 0.003028
180 0.00294
176 0.002986
106 0.000996
74 0.000998
74 0.000997
79 0.000958
86 0.000969
93 0.0
99 0.001986
100 0.001981
105 0.002994
116 0.003001
123 0.003986
137 0.004026
147 0.004986
158 0.004969
167 0.004971
178 0.005022
185 0.004986
135 0.005998
91 0.004988
75 0.005985
81 0.005018
84 0.004987
91 0.004967
99 0.005018
103 0.003015
106 0.0
114 0.001985
121 0.001993
135 0.002032
146 0.004023
153 0.000996
165 0.000961
177 0.002026
183 0.002958
193 0.003033
188 0.002999
101 0.005016
84 0.005002
86 0.004992
95 0.006982
102 0.004967
110 0.006966
113 0.004953
114 0.002964
117 0.002994
126 0.003992
135 0.003958
148 0.003951
160 0.003003
167 0.003002
178 0.003978
185 0.006992
192 0.003998
156 0.007005
97 0.00296
86 0.007974
92 0.006982
98 0.007951
109 0.00698
115 0.00698
118 0.006981
118 0.002977
121 0.007067
132 0.002996
146 0.002971
153 0.002991
164 0.000999
171 0.0
182 0.002993
191 0.002968
169 0.001001
90 0.002027
77 0.003027
81 0.002976
86 0.0
94 0.0
101 0.001011
105 0.001943
105 0.001993
110 0.001968
119 0.002029
130 0.002
142 0.001961
155 0.003993
163 0.005026
174 0.004017
185 0.004973
189 0.004967
124 0.004024
83 0.004985
67 0.004982
71 0.003954
74 0.004965
82 0.004956
87 0.004029
92 0.005022
94 0.005018
98 0.003991
110 0.006984
121 0.007002
131 0.006977
145 0.005951
158 0.0
166 0.005956
178 0.000998
184 0.004984
117 0.0
67 0.002992
63 0.001959
68 0.002042
73 0.001984
80 0.000967
89 0.001968
91 0.001944
