175 0.001
178 0.000998
166 0.000958
85 0.001004
46 0.000998
52 0.000997
76 0.000997
95 0.000991
114 0.000998
118 0.000997
116 0.0
115 0.000998
124 0.000996
132 0.000997
139 0.000997
150 0.001049
157 0.004987
163 0.000997
168 0.001015
168 0.000992
107 0.000966
44 0.0
29 0.000987
62 0.0
81 0.001007
96 0.000997
105 0.000997
104 0.000988
103 0.000996
109 0.000997
119 0.000997
128 0.000998
138 0.0
143 0.000995
149 0.0
160 0.0
165 0.0
156 0.0
100 0.0
28 0.0
29 0.000994
52 0.000982
74 0.000998
90 0.000993
102 0.0
102 0.0
100 0.0
111 0.0
122 0.0
132 0.0
140 0.0
147 0.001024
152 0.001048
157 0.000998
164 0.000995
170 0.0
161 0.0
104 0.0
47 0.0
52 0.0
77 0.0
96 0.0
111 0.0
116 0.0
114 0.0
115 0.000998
123 0.0
133 0.0
142 0.0
151 0.0
156 0.0
166 0.0
172 0.0
179 0.000999
182 0.0
165 0.0
88 0.0
61 0.001006
74 0.000997
98 0.0
117 0.000998
131 0.0
132 0.0
124 0.0
128 0.0
136 0.0
145 0.000997
153 0.001038
162 0.000998
168 0.0
175 0.000998
180 0.0
184 0.000998
161 0.0
97 0.0
53 0.0
74 0.0
97 0.0
114 0.0
124 0.0
125 0.0
122 0.0
124 0.0
132 0.000998
140 0.000967
151 0.000968
159 0.000969
170 0.000995
175 0.001026
180 0.000999
181 0.0
153 0.0
60 0.001003
36 0.0
50 0.001002
74 0.000997
92 0.000987
110 0.000997
115 0.000997
114 0.0
118 0.000995
128 0.0
137 0.000966
146 0.0
157 0.000982
164 0.0
170 0.0
175 0.0
180 0.0
163 0.000998
122 0.009008
37 0.000985
55 0.000973
78 0.000997
96 0.000998
112 0.001975
118 0.001955
117 0.000998
119 0.001013
129 0.001967
135 0.000997
147 0.001037
160 0.001025
170 0.000998
175 0.000998
181 0.001034
187 0.001975
188 0.000999
152 0.001006
86 0.002019
57 0.000964
70 0.0
95 0.000997
117 0.000999
131 0.000998
132 0.000951
132 0.000989
135 0.000963
142 0.000998
152 0.000963
166 0.000968
174 0.001988
182 0.001992
185 0.001996
190 0.001994
194 0.001986
192 0.000998
135 0.000951
86 0.000998
83 0.000998
103 0.002031
122 0.001009
139 0.001999
148 0.00203
146 0.002041
140 0.001962
139 0.001994
148 0.001995
161 0.001996
171 0.00199
176 0.000959
180 0.000973
184 0.001977
187 0.002009
182 0.001995
144 0.001994
89 0.001994
73 0.001993
96 0.001995
114 0.002021
128 0.017951
132 0.002992
143 0.000996
140 0.001993
168 0.000998
181 0.000998
162 0.001996
71 0.001995
125 0.001
132 0.000997
128 0.000966
140 0.002961
159 0.001007
173 0.002991
177 0.001023
178 0.000969
159 0.001006
102 0.00197
66 0.001959
78 0.000997
98 0.000997
113 0.000997
131 0.001034
133 0.001961
131 0.00197
131 0.003
140 0.000979
150 0.00102
159 0.000997
165 0.002982
170 0.002032
176 0.001962
178 0.001995
180 0.001995
132 0.000997
97 0.001995
76 0.003014
93 0.002973
116 0.001991
129 0.001973
139 0.002001
139 0.003018
134 0.002982
133 0.001986
139 0.001991
157 0.0
163 0.0
168 0.000954
171 0.002963
174 0.003027
176 0.001034
163 0.000998
113 0.000972
78 0.002954
80 0.002962
103 0.001948
117 0.000989
135 0.001004
134 0.001022
126 0.001965
125 0.003082
131 0.002994
144 0.000996
152 0.001057
158 0.000998
162 0.002994
166 0.003037
169 0.002021
161 0.000993
73 0.0
50 0.001016
63 0.0
83 0.002948
99 0.002962
112 0.0
113 0.0
111 0.0
111 0.002964
116 0.002994
127 0.001039
137 0.0
150 0.00102
156 0.0
161 0.0
164 0.003033
152 0.002975
76 0.0
40 0.0
46 0.0
66 0.00297
84 0.00399
102 0.0
107 0.000988
105 0.0
108 0.0
115 0.0
124 0.004021
133 0.003983
144 0.0
151 0.0
157 0.0
161 0.002963
166 0.003984
152 0.0
92 0.0
36 0.0
52 0.0
74 0.0
91 0.003991
104 0.004
109 0.0
108 0.0
110 0.0
116 0.003955
126 0.003992
138 0.0
147 0.0
159 0.0
164 0.001028
169 0.000998
173 0.004019
164 0.003958
94 0.000992
58 0.0
64 0.0
86 0.003025
104 0.00302
120 0.000961
123 0.0
117 0.00103
120 0.0
127 0.0
135 0.003989
145 0.004053
155 0.0
160 0.0
165 0.0
170 0.0
173 0.003989
168 0.003959
104 0.0
52 0.00399
68 0.0
90 0.0
106 0.0
117 0.003992
119 0.004022
115 0.000993
116 0.0
122 0.0
131 0.004988
140 0.003987
149 0.019909
152 0.001981
157 0.000997
172 0.00197
72 0.000997
47 0.001967
96 0.000997
105 0.0
113 0.0
136 0.001998
154 0.0
159 0.0
165 0.0
168 0.004988
154 0.004987
115 0.000996
23 0.001965
66 0.0
84 0.0
97 0.003968
102 0.003942
101 0.0
104 0.001034
113 0.001004
124 0.004971
133 0.00499
146 0.005034
153 0.004987
162 0.000943
168 0.001997
173 0.000994
169 0.00592
121 0.004987
41 0.00194
36 0.001995
59 0.000972
84 0.004035
101 0.004987
115 0.004986
114 0.004987
115 0.001027
122 0.00102
131 0.00098
141 0.005043
149 0.005042
159 0.001033
166 0.001984
172 0.001926
177 0.005045
180 0.005004
123 0.005006
63 0.004957
56 0.002001
81 0.001986
103 0.002008
119 0.004991
127 0.005984
124 0.001958
121 0.002018
124 0.001943
133 0.004985
141 0.005031
154 0.004987
162 0.004988
169 0.000964
174 0.000994
176 0.0
155 0.004996
88 0.005017
41 0.00203
55 0.001042
81 0.000959
101 0.006012
116 0.005021
120 0.004989
117 0.005031
119 0.001029
129 0.000978
138 0.002005
146 0.005985
153 0.006016
162 0.001948
168 0.000998
172 0.000965
171 0.006029
124 0.004989
27 0.006009
31 0.005985
62 0.000981
83 0.001006
98 0.000997
107 0.004988
107 0.004987
107 0.001961
113 0.001986
123 0.00103
133 0.006014
145 0.001965
152 0.006024
159 0.005984
168 0.001997
166 0.001032
120 0.001944
50 0.006028
28 0.005981
51 0.001962
74 0.001994
94 0.001994
109 0.006035
113 0.002
112 0.001968
116 0.005983
127 0.00604
141 0.001997
148 0.0
154 0.002978
159 0.005933
167 0.006041
175 0.002993
176 0.001974
142 0.001952
42 0.001982
43 0.001961
66 0.006036
91 0.005985
114 0.002964
121 0.001934
119 0.002993
114 0.006036
117 0.006993
132 0.002962
143 0.001963
151 0.001939
158 0.003989
162 0.002963
166 0.006949
170 0.006964
145 0.002954
74 0.002999
38 0.002951
43 0.00694
67 0.006997
99 0.003999
115 0.003986
120 0.003992
111 0.00296
114 0.002946
125 0.006983
137 0.007009
149 0.002957
155 0.002027
159 0.002995
163 0.007014
167 0.007035
169 0.001991
142 0.000969
63 0.002042
26 0.001955
34 0.001994
62 0.000998
103 0.000957
100 0.001993
134 0.000963
155 0.0
166 0.000979
112 0.001018
33 0.000993
59 0.007956
86 0.003991
103 0.002993
110 0.002994
106 0.002992
112 0.002992
124 0.006982
139 0.00702
153 0.003949
159 0.004014
165 0.003991
170 0.007975
173 0.007981
178 0.002957
181 0.002947
170 0.00391
57 0.002994
38 0.002963
51 0.007937
77 0.007975
106 0.00396
121 0.004936
125 0.004939
120 0.007948
118 0.00798
130 0.003015
144 0.001974
155 0.00296
165 0.002971
169 0.002956
172 0.00701
176 0.007005
180 0.00399
171 0.002925
119 0.003943
56 0.007981
48 0.007983
78 0.003994
103 0.004016
131 0.003996
134 0.004986
130 0.004039
126 0.00703
133 0.006981
148 0.004962
158 0.004933
164 0.004914
170 0.007974
172 0.007948
176 0.003954
180 0.004957
183 0.003998
144 0.004989
64 0.00394
36 0.004014
48 0.008035
84 0.007948
105 0.004955
120 0.004954
126 0.004948
124 0.007932
123 0.00798
131 0.004976
149 0.007978
157 0.003995
164 0.005042
168 0.003991
173 0.006977
179 0.007018
182 0.004959
168 0.00499
102 0.004988
48 0.007967
46 0.007981
81 0.005014
117 0.007948
129 0.00403
133 0.005051
132 0.004942
134 0.006985
143 0.007074
152 0.005031
161 0.003965
168 0.00399
174 0.00798
179 0.007979
186 0.003994
193 0.007933
194 0.003989
159 0.004986
85 0.003989
58 0.006965
83 0.006974
110 0.004986
128 0.004987
140 0.004987
141 0.00798
139 0.007979
140 0.003978
150 0.007979
162 0.00502
169 0.004986
176 0.003984
184 0.006934
190 0.006978
194 0.004954
196 0.005038
174 0.004987
94 0.007038
74 0.006989
92 0.004948
124 0.007979
143 0.005034
149 0.005985
145 0.005973
139 0.006984
144 0.00698
151 0.005017
159 0.004951
166 0.004957
175 0.007014
180 0.006981
184 0.004987
188 0.007945
158 0.005984
84 0.005985
45 0.005984
64 0.006981
92 0.006991
112 0.005982
126 0.005981
129 0.005975
126 0.006982
125 0.006979
136 0.006006
147 0.006982
154 0.005981
161 0.00595
167 0.005936
175 0.007007
180 0.00699
173 0.005951
85 0.005984
43 0.006019
34 0.006981
59 0.00697
97 0.006981
112 0.006982
118 0.004963
118 0.025909
116 0.000998
114 0.002008
129 0.001993
154 0.001027
161 0.006941
167 0.006937
174 0.006981
141 0.006934
62 0.005984
28 0.005984
46 0.005974
73 0.005932
96 0.006948
111 0.005968
118 0.004914
116 0.004951
114 0.006948
123 0.00695
142 0.006949
151 0.006982
158 0.005915
162 0.005977
165 0.005996
172 0.00698
179 0.006015
167 0.004962
130 0.004976
59 0.004997
45 0.006937
72 0.005983
112 0.006983
126 0.006985
129 0.005941
123 0.005985
121 0.005945
125 0.005985
141 0.005935
150 0.005941
156 0.005995
161 0.004991
162 0.00595
168 0.007018
175 0.005969
159 0.005943
94 0.006017
38 0.006036
43 0.005985
79 0.006007
103 0.006013
120 0.005923
128 0.005985
125 0.005966
120 0.00596
126 0.005985
145 0.005981
154 0.005984
160 0.005984
166 0.005949
174 0.00601
179 0.006011
185 0.005014
184 0.005024
109 0.005037
40 0.005011
27 0.00502
47 0.005015
85 0.004998
103 0.004986
113 0.00603
113 0.005983
112 0.005991
118 0.006008
129 0.00598
140 0.005949
152 0.005985
157 0.005006
162 0.005022
167 0.005036
178 0.004921
178 0.005029
135 0.005806
39 0.006027
28 0.005018
47 0.00597
71 0.005982
90 0.005984
111 0.005038
116 0.005958
115 0.005018
117 0.005
133 0.004987
145 0.004985
154 0.005962
163 0.00499
169 0.00602
175 0.006
180 0.004966
186 0.005987
193 0.005
196 0.005021
173 0.005013
96 0.004979
43 0.004978
66 0.004953
93 0.004986
117 0.004994
127 0.003934
129 0.004978
126 0.005047
127 0.005048
139 0.005028
150 0.005013
159 0.004998
172 0.004957
178 0.00502
183 0.004987
188 0.005019
194 0.003991
191 0.004986
150 0.003986
86 0.00402
64 0.004038
90 0.00503
113 0.004002
129 0.00402
140 0.005038
137 0.004985
134 0.004986
138 0.005017
150 0.003986
159 0.004021
168 0.004008
176 0.004022
181 0.004019
187 0.004017
191 0.00404
195 0.00502
184 0.005038
119 0.005041
58 0.004982
52 0.005017
84 0.005018
104 0.004997
119 0.004957
127 0.004019
128 0.00399
127 0.003988
131 0.003991
138 0.003954
153 0.003989
163 0.005031
171 0.005018
177 0.004982
183 0.004982
188 0.005019
189 0.003973
171 0.003985
104 0.00499
51 0.004021
64 0.003985
88 0.003971
116 0.004014
126 0.004023
129 0.005025
128 0.004987
128 0.000984
130 0.001994
149 0.000999
177 0.001993
184 0.003955
190 0.003993
192 0.004021
178 0.003955
117 0.004014
69 0.003989
77 0.004017
100 0.004025
118 0.004024
131 0.003993
138 0.004016
136 0.002967
134 0.00302
143 0.003996
152 0.003989
163 0.003967
171 0.003993
177 0.004004
183 0.00402
187 0.003988
190 0.003982
191 0.002987
177 0.002944
110 0.002959
87 0.002995
113 0.004045
129 0.003994
143 0.004029
152 0.004021
152 0.003983
141 0.004005
140 0.004025
147 0.003022
156 0.004002
164 0.003023
172 0.003017
176 0.002045
182 0.003022
183 0.003022
174 0.004028
124 0.004011
76 0.004022
75 0.003982
96 0.004022
113 0.003031
126 0.003968
135 0.002967
133 0.002989
128 0.002994
134 0.003024
143 0.003022
153 0.00299
160 0.004019
166 0.002992
173 0.00399
175 0.003989
175 0.003971
143 0.002992
78 0.003025
44 0.003015
69 0.003003
94 0.002964
108 0.002991
115 0.00368
115 0.004014
113 0.003985
118 0.002979
126 0.003016
134 0.002958
143 0.002963
151 0.002961
160 0.002996
167 0.003067
170 0.002993
146 0.003007
81 0.002992
41 0.003052
46 0.001964
76 0.002959
94 0.003022
108 0.00301
114 0.003013
115 0.002985
115 0.003042
124 0.003029
136 0.001994
144 0.003025
153 0.002005
160 0.002988
166 0.001988
173 0.003004
177 0.003014
171 0.002999
126 0.00299
71 0.003026
62 0.003004
90 0.002979
114 0.003023
124 0.002992
126 0.003023
122 0.00299
122 0.003018
129 0.002034
137 0.002028
146 0.001964
153 0.001984
160 0.002991
167 0.003003
173 0.002992
175 0.002992
150 0.002992
92 0.001994
57 0.002043
63 0.002072
92 0.001955
109 0.002029
120 0.001978
122 0.00202
118 0.002027
118 0.003021
127 0.002991
138 0.002989
146 0.002984
154 0.001995
160 0.002011
166 0.002005
172 0.002013
171 0.002041
135 0.001985
68 0.001974
37 0.002027
46 0.001037
80 0.00201
96 0.001996
107 0.002992
108 0.002961
106 0.002025
110 0.002023
119 0.002045
131 0.002024
138 0.002041
144 0.002025
151 0.002
157 0.001957
167 0.002001
159 0.002031
85 0.002992
85 0.029919
36 0.002028
52 0.001944
93 0.001996
103 0.001981
105 0.002008
105 0.001962
115 0.001961
126 0.002032
135 0.000998
145 0.000997
151 0.000997
157 0.001
163 0.002034
170 0.002031
176 0.002048
164 0.001996
106 0.002015
47 0.001968
47 0.001975
72 0.00202
92 0.001995
111 0.001995
115 0.000993
113 0.000997
113 0.001047
120 0.001023
134 0.001964
144 0.001951
150 0.002033
155 0.001997
164 0.001985
171 0.001995
176 0.001005
171 0.001057
125 0.001995
65 0.001046
49 0.000996
65 0.000998
97 0.001
114 0.001959
123 0.002026
123 0.002013
117 0.002038
123 0.002009
133 0.001996
146 0.001996
152 0.000982
156 0.001032
161 0.000983
164 0.00097
171 0.000964
176 0.001
164 0.00105
105 0.0
33 0.002001
45 0.001995
70 0.001994
97 0.000984
111 0.000998
116 0.001007
114 0.000999
112 0.001019
123 0.0
134 0.0
143 0.000971
151 0.001959
159 0.000998
163 0.002002
167 0.001004
175 0.000997
167 0.001001
110 0.000961
46 0.000998
33 0.000996
58 0.001015
83 0.000967
101 0.0
115 0.0
119 0.000997
118 0.000998
123 0.0
138 0.000998
148 0.000997
155 0.000999
161 0.001051
166 0.0
173 0.000946
178 0.000964
184 0.0
184 0.0
102 0.0
51 0.0
51 0.0
86 0.000996
109 0.0
124 0.000966
132 0.000999
131 0.000966
128 0.000999
134 0.000997
142 0.0
151 0.0
163 0.0
169 0.0
175 0.0
181 0.0
186 0.0
182 0.0
143 0.000922
80 0.000999
62 0.000997
86 0.000981
109 0.0
127 0.0
137 0.0
134 0.0
131 0.0
135 0.0
146 0.0
154 0.0
162 0.0
168 0.0
175 0.0
181 0.0
184 0.000998
164 0.0
94 0.0
46 0.0
48 0.0
74 0.0
104 0.0
118 0.0
125 0.0
124 0.0
122 0.000997
127 0.0
136 0.0
150 0.0
157 0.0
164 0.0
170 0.0
175 0.0
175 0.0
135 0.001001
64 0.000966
36 0.001012
50 0.000998
84 0.001001
103 0.000998
121 0.0
122 0.0
121 0.0
125 0.0
133 0.0
145 0.0
153 0.000966
161 0.000968
168 0.002002
174 0.000974
181 0.001986
178 0.002018
84 0.00103
46 0.001027
55 0.001028
82 0.001029
104 0.0
123 0.001016
127 0.000924
125 0.000955
122 0.000971
127 0.001011
140 0.001015
148 0.000999
161 0.001022
167 0.001978
174 0.000999
178 0.00104
177 0.001012
115 0.001002
58 0.001002
50 0.000974
72 0.000969
97 0.000998
120 0.000994
126 0.000998
120 0.000997
119 0.000997
126 0.001995
136 0.001028
145 0.001027
154 0.001032
160 0.00104
167 0.000971
172 0.001049
171 0.000998
99 0.000963
36 0.000999
39 0.001011
64 0.001023
86 0.000998
102 0.000997
110 0.000991
108 0.000998
107 0.000995
114 0.000997
125 0.001025
136 0.000953
146 0.000996
151 0.000974
161 0.000997
167 0.000998
166 0.000998
119 0.001005
44 0.000998
23 0.002024
41 0.002011
65 0.001004
84 0.000992
100 0.000993
105 0.000994
103 0.000973
112 0.000997
124 0.00101
137 0.000997
145 0.000997
153 0.001006
159 0.00102
164 0.001971
172 0.001995
177 0.001966
169 0.001982
79 0.00095
31 0.000996
53 0.000981
78 0.001036
98 0.00103
112 0.000965
117 0.000987
113 0.001
116 0.001938
127 0.001996
143 0.002044
150 0.002029
159 0.002996
165 0.00103
172 0.001036
177 0.001032
185 0.001031
188 0.002034
161 0.001996
67 0.001996
45 0.001974
62 0.001962
89 0.001998
110 0.001966
127 0.00297
126 0.002009
119 0.001027
124 0.001
136 0.002028
147 0.000999
157 0.001998
162 0.001987
166 0.001997
171 0.001951
176 0.002003
183 0.001972
185 0.002004
111 0.002052
46 0.002032
43 0.001034
68 0.001023
98 0.002015
114 0.001991
120 0.001995
120 0.001972
117 0.00201
122 0.001989
133 0.00199
144 0.002004
158 0.001995
166 0.001994
172 0.00103
176 0.002992
184 0.001039
189 0.002
186 0.00101
134 0.001965
57 0.001972
38 0.001964
52 0.001996
77 0.001965
110 0.001995
122 0.000995
122 0.002
121 0.00298
129 0.000967
139 0.001991
150 0.001001
158 0.001972
166 0.001988
173 0.001939
181 0.001973
186 0.001924
194 0.001971
196 0.001994
184 0.002031
119 0.002997
52 0.001046
61 0.001009
88 0.001008
110 0.002993
127 0.002983
136 0.001968
135 0.001969
134 0.001973
138 0.017952
141 0.0
147 0.002626
174 0.0
183 0.001994
188 0.001028
193 0.001992
197 0.002991
201 0.002024
195 0.000963
149 0.001963
91 0.000999
93 0.001994
118 0.00106
135 0.002992
149 0.00299
155 0.001004
149 0.001963
144 0.001964
148 0.003008
156 0.003957
169 0.001961
176 0.001997
184 0.001005
188 0.000998
191 0.002026
194 0.00296
192 0.00399
139 0.001046
81 0.002024
70 0.002028
90 0.001981
113 0.002966
134 0.0
144 0.001956
142 0.000997
137 0.0
141 0.0
148 0.002992
158 0.003044
169 0.000997
175 0.000999
179 0.001046
182 0.003043
186 0.002989
187 0.001979
169 0.000941
64 0.001022
51 0.000999
72 0.000997
95 0.00395
111 0.002957
125 0.001012
126 0.0
123 0.0
123 0.003998
129 0.002988
141 0.00101
150 0.0
164 0.000998
169 0.0
174 0.001004
177 0.00399
180 0.003984
169 0.0
108 0.0
54 0.0
49 0.002992
72 0.003996
99 0.0
113 0.000996
121 0.001003
119 0.000997
120 0.001994
125 0.003989
135 0.004016
148 0.001002
157 0.000999
165 0.000999
170 0.003999
175 0.002962
180 0.001969
183 0.0
179 0.003991
114 0.0
66 0.000998
64 0.0
88 0.003989
108 0.004022
126 0.0
132 0.0
130 0.000994
127 0.004023
129 0.003997
140 0.001021
154 0.004032
165 0.0
171 0.0
176 0.0
179 0.003986
182 0.004022
186 0.0
180 0.0
136 0.001005
84 0.003982
73 0.003976
98 0.0
120 0.00403
135 0.0
137 0.0
130 0.0
126 0.003978
131 0.004
142 0.001021
151 0.001028
158 0.000997
164 0.00399
168 0.004917
172 0.001003
177 0.004987
166 0.001032
113 0.001008
62 0.001035
55 0.003989
75 0.004067
101 0.0
114 0.001025
120 0.000965
119 0.004018
116 0.003987
119 0.001063
130 0.004992
142 0.001
151 0.001997
157 0.001016
162 0.003988
167 0.003997
171 0.000984
168 0.001012
125 0.001029
63 0.003988
42 0.004956
71 0.00499
89 0.005021
106 0.001044
111 0.001001
110 0.000974
110 0.004988
114 0.005008
124 0.000999
134 0.001022
142 0.001959
151 0.004989
157 0.004955
165 0.004989
170 0.004988
172 0.000962
146 0.002017
83 0.002019
48 0.004986
55 0.004971
83 0.002015
99 0.000997
111 0.000981
116 0.004992
114 0.005973
117 0.005064
125 0.005035
135 0.000965
147 0.00101
155 0.000996
164 0.004987
170 0.005019
177 0.000981
181 0.000987
183 0.000973
178 0.003989
132 0.004965
63 0.005046
73 0.00502
99 0.0
115 0.000997
124 0.001003
125 0.004987
121 0.005064
121 0.001015
128 0.002053
136 0.002
145 0.004986
153 0.006048
163 0.00502
168 0.004962
174 0.000986
178 0.00096
170 0.001022
121 0.004987
69 0.004971
63 0.001
83 0.001033
100 0.001957
114 0.004005
120 0.005983
117 0.006015
116 0.006009
124 0.002027
133 0.002046
142 0.001997
150 0.004986
157 0.005024
163 0.002027
167 0.002013
171 0.001961
175 0.005014
173 0.005985
91 0.006016
42 0.00604
45 0.002003
66 0.002047
83 0.002048
98 0.005018
105 0.004981
107 0.005997
107 0.002993
111 0.00196
121 0.001955
130 0.005959
144 0.001995
152 0.005985
158 0.005991
165 0.001963
169 0.001964
174 0.00202
166 0.006016
116 0.006021
51 0.001026
53 0.002033
75 0.001995
94 0.006031
116 0.000966
119 0.006016
119 0.005976
121 0.002004
128 0.000991
139 0.000992
147 0.005992
157 0.005969
167 0.00201
171 0.001958
176 0.001967
181 0.002022
185 0.00199
187 0.005958
180 0.006023
109 0.002024
67 0.002008
71 0.001995
93 0.006984
111 0.006985
127 0.002993
131 0.002985
128 0.001948
126 0.002994
133 0.002988
142 0.00601
152 0.006013
163 0.002022
168 0.003015
173 0.002001
176 0.005983
180 0.006018
182 0.002957
165 0.002041
110 0.00299
66 0.002992
83 0.003025
102 0.006009
117 0.005943
129 0.001995
129 0.002027
125 0.002045
125 0.005988
131 0.00698
143 0.002992
152 0.002985
160 0.002987
168 0.003025
171 0.001991
173 0.006971
176 0.006981
180 0.001994
180 0.002028
158 0.002002
90 0.007016
45 0.007007
53 0.002991
75 0.002965
92 0.002957
110 0.002994
112 0.003036
110 0.007009
112 0.007019
121 0.00396
130 0.003959
140 0.004993
149 0.006982
156 0.006944
162 0.002959
167 0.002929
171 0.002989
162 0.002977
112 0.003036
61 0.006969
57 0.007964
78 0.003984
96 0.004041
112 0.002994
120 0.007012
123 0.007033
123 0.003023
126 0.002948
134 0.00299
151 0.003024
160 0.00299
166 0.007021
171 0.007016
175 0.002991
177 0.002993
181 0.003981
183 0.007997
179 0.007975
122 0.003027
71 0.00299
65 0.002023
98 0.002961
114 0.003045
125 0.006975
128 0.012968
125 0.0
124 0.00203
130 0.002972
138 0.007973
151 0.007974
159 0.002988
164 0.002941
169 0.002984
175 0.003003
178 0.002994
175 0.007015
147 0.007037
86 0.003011
79 0.002983
94 0.002996
116 0.007968
127 0.007983
133 0.002999
129 0.004003
123 0.002997
128 0.001934
136 0.001965
145 0.003025
153 0.006981
160 0.00798
163 0.00396
167 0.00402
170 0.002973
172 0.007985
157 0.007981
76 0.003961
38 0.007981
59 0.003994
79 0.003984
92 0.002976
103 0.007977
105 0.007031
102 0.003981
106 0.003983
113 0.004989
122 0.007979
130 0.007948
142 0.004011
152 0.007841
157 0.003989
162 0.003988
165 0.004015
134 0.007983
92 0.007951
35 0.003976
40 0.004033
59 0.00404
82 0.008006
96 0.007974
102 0.004951
102 0.00698
105 0.004936
113 0.0041
122 0.005005
134 0.006984
139 0.007979
149 0.003973
156 0.004032
161 0.003983
166 0.007944
173 0.007013
173 0.003964
97 0.007016
49 0.005003
47 0.004957
67 0.005016
91 0.007015
105 0.006984
113 0.00501
114 0.00499
114 0.005023
118 0.007949
129 0.007977
138 0.00399
154 0.00798
160 0.004988
166 0.004985
170 0.005024
176 0.007008
181 0.006982
183 0.005011
177 0.004987
132 0.004992
77 0.007942
64 0.007964
88 0.003979
116 0.006962
125 0.004985
127 0.004989
124 0.004021
125 0.006979
131 0.006975
139 0.005
148 0.004042
157 0.005019
164 0.006989
169 0.007019
172 0.004948
178 0.007032
180 0.003993
172 0.003993
123 0.004963
61 0.007027
62 0.007012
81 0.004955
100 0.004972
112 0.003987
120 0.006982
119 0.007028
118 0.003979
126 0.006973
134 0.004013
144 0.003959
152 0.004988
161 0.007008
166 0.006994
170 0.004984
174 0.004978
176 0.004992
172 0.006985
126 0.007041
65 0.004961
54 0.007
73 0.004975
91 0.004988
104 0.005019
113 0.006037
114 0.006017
114 0.005977
119 0.005979
127 0.004986
139 0.007013
149 0.007034
161 0.006984
166 0.006975
170 0.005017
174 0.005989
179 0.005983
177 0.006016
142 0.006009
81 0.005983
56 0.005967
67 0.00598
95 0.00702
109 0.006021
122 0.004984
123 0.006017
124 0.006015
128 0.005981
135 0.004982
145 0.005927
159 0.005983
165 0.005942
171 0.005022
177 0.005969
180 0.005983
183 0.005937
182 0.005986
152 0.00602
97 0.006012
74 0.005039
94 0.005983
106 0.009008
125 0.005987
135 0.00595
138 0.005958
135 0.005962
133 0.005993
139 0.005993
152 0.005987
162 0.00599
167 0.005997
172 0.005941
173 0.004986
176 0.005956
179 0.005036
179 0.005984
167 0.004972
116 0.005996
64 0.006004
71 0.006032
96 0.005937
115 0.005984
123 0.005985
124 0.004986
121 0.004986
121 0.004985
129 0.004986
138 0.005043
148 0.005974
157 0.005959
162 0.005972
166 0.005908
170 0.00598
174 0.005984
167 0.005982
121 0.005969
62 0.005981
46 0.004985
66 0.00598
84 0.004998
103 0.005979
110 0.005001
111 0.00596
110 0.005998
115 0.005949
125 0.00596
134 0.006033
146 0.005974
151 0.005967
157 0.005982
163 0.006019
167 0.005014
172 0.005002
166 0.005007
120 0.004981
59 0.005037
47 0.004963
69 0.005984
88 0.006021
103 0.005982
110 0.005984
111 0.005979
112 0.005015
116 0.005007
128 0.005006
137 0.004996
145 0.004954
152 0.005018
161 0.004985
166 0.004982
171 0.005999
174 0.005972
165 0.005976
93 0.004998
50 0.005025
51 0.005022
81 0.004996
100 0.004993
113 0.004971
118 0.004984
116 0.004973
117 0.005019
124 0.004987
134 0.005972
144 0.004991
150 0.004981
155 0.00502
159 0.004987
166 0.004988
171 0.004975
166 0.004983
76 0.004987
38 0.004954
43 0.005016
65 0.004939
87 0.004987
108 0.003987
112 0.005007
109 0.005008
106 0.004989
113 0.004987
124 0.004987
133 0.00499
144 0.004953
148 0.00498
151 0.005021
156 0.004027
162 0.004016
145 0.00402
77 0.004049
24 0.004023
18 0.004987
42 0.004976
63 0.005007
82 0.00498
97 0.003984
95 0.003985
95 0.004987
102 0.00399
118 0.003957
130 0.003962
137 0.00399
143 0.004022
147 0.004013
151 0.003979
157 0.004974
158 0.004965
81 0.004999
23 0.005003
15 0.004004
28 0.003984
47 0.003989
71 0.003986
87 0.003989
93 0.004017
92 0.003981
93 0.005005
107 0.004951
120 0.004025
138 0.004979
144 0.003958
150 0.003956
154 0.00399
159 0.003992
164 0.003989
162 0.003968
122 0.003983
48 0.004024
24 0.003936
39 0.003992
61 0.003991
93 0.004018
104 0.003969
107 0.003987
106 0.004023
110 0.004022
125 0.004024
138 0.003992
148 0.002997
154 0.002992
159 0.003027
164 0.002992
167 0.003026
175 0.003026
178 0.004016
158 0.003955
88 0.003982
43 0.004021
52 0.003982
59 0.011926
100 0.003949
117 0.004023
126 0.004022
122 0.003993
118 0.002991
131 0.002963
143 0.002947
152 0.003024
158 0.003989
162 0.004001
167 0.003995
170 0.003989
174 0.003973
170 0.003978
134 0.002989
53 0.003989
45 0.003023
83 0.002993
107 0.003022
124 0.002986
130 0.003022
129 0.002992
124 0.003027
131 0.004036
142 0.003982
152 0.003989
160 0.004025
166 0.002992
169 0.002964
175 0.004
178 0.003024
175 0.003023
128 0.002992
53 0.002992
34 0.002994
52 0.003019
78 0.002974
99 0.002992
115 0.004024
121 0.004007
117 0.003011
123 0.003022
134 0.002992
146 0.002992
154 0.002997
160 0.002992
166 0.003993
169 0.003071
173 0.003039
175 0.002994
157 0.003019
62 0.002992
34 0.003039
58 0.003025
81 0.003017
102 0.003025
117 0.002045
123 0.002991
121 0.003026
122 0.002992
132 0.003001
143 0.003018
152 0.003024
162 0.00296
168 0.001959
173 0.002996
177 0.002963
182 0.003024
176 0.002992
124 0.002994
47 0.002928
46 0.002993
70 0.003025
97 0.003028
117 0.002994
131 0.003027
131 0.002009
130 0.00203
137 0.00203
147 0.001992
156 0.002005
163 0.002992
169 0.002992
173 0.002985
178 0.003004
183 0.002992
187 0.003049
155 0.003028
71 0.001989
63 0.001957
88 0.001974
114 0.001995
131 0.002026
140 0.001995
139 0.001995
132 0.003026
134 0.002988
143 0.003026
152 0.002985
158 0.002993
167 0.001988
171 0.001995
178 0.001995
181 0.002981
168 0.001997
106 0.002028
49 0.001995
51 0.002021
79 0.002042
102 0.002043
120 0.00106
128 0.001994
126 0.002057
124 0.003001
134 0.002992
145 0.002009
153 0.002035
159 0.001962
163 0.002029
170 0.001989
176 0.002004
178 0.001996
150 0.001995
73 0.001961
35 0.002001
56 0.001022
90 0.00195
109 0.002007
119 0.000997
121 0.002001
118 0.002029
122 0.002027
133 0.001997
142 0.002002
151 0.001997
161 0.001965
166 0.001964
171 0.001996
178 0.002004
171 0.000999
111 0.00101
47 0.002051
38 0.001995
68 0.002006
93 0.002026
113 0.001996
125 0.001995
127 0.001964
127 0.001008
133 0.00199
146 0.001991
155 0.002028
162 0.001994
168 0.001012
173 0.000957
181 0.000998
187 0.000997
188 0.000997
161 0.001995
59 0.001946
57 0.002017
83 0.001995
115 0.000997
132 0.001986
137 0.000996
135 0.000997
130 0.000999
131 0.009936
144 0.001972
153 0.001998
160 0.001996
168 0.001966
174 0.001998
180 0.001996
185 0.001986
173 0.000999
111 0.001023
57 0.000996
53 0.000997
88 0.0
112 0.0
128 0.000997
135 0.001994
130 0.000966
129 0.000975
136 0.001028
149 0.000984
158 0.000997
164 0.000997
171 0.001001
176 0.00099
184 0.000997
187 0.000998
169 0.002029
94 0.001023
33 0.000993
52 0.001962
79 0.000997
106 0.000998
118 0.001038
122 0.001002
119 0.000998
119 0.000997
131 0.000997
142 0.000977
150 0.000997
158 0.000997
167 0.0
174 0.0
180 0.0
180 0.000997
133 0.000997
53 0.000998
29 0.001002
43 0.001024
77 0.000962
96 0.000998
112 0.000997
118 0.000965
117 0.0
121 0.0
131 0.0
146 0.0
155 0.0
162 0.0
169 0.00101
175 0.000997
184 0.000998
189 0.001017
177 0.000997
111 0.000961
43 0.0
60 0.0
88 0.0
110 0.0
128 0.0
131 0.0
131 0.000997
131 0.000995
138 0.000999
151 0.000997
160 0.000998
173 0.0
177 0.0
181 0.0
185 0.0
188 0.0
181 0.0
124 0.0
63 0.0
55 0.0
79 0.0
113 0.0
130 0.0
139 0.0
134 0.0
133 0.0
138 0.0
147 0.0
158 0.0
165 0.0
171 0.0
175 0.0
179 0.0
185 0.000997
178 0.0
85 0.0
53 0.0
67 0.0
94 0.0
115 0.0
133 0.0
136 0.0
134 0.0
133 0.0
139 0.000999
151 0.0
160 0.000994
173 0.001002
179 0.0
185 0.0
189 0.0
190 0.0
143 0.0
66 0.0
38 0.0
50 0.0
76 0.0
102 0.0
115 0.001999
121 0.00101
120 0.001986
124 0.000975
133 0.0
142 0.0
153 0.001971
161 0.001031
168 0.000998
174 0.000999
181 0.002
184 0.002028
167 0.002028
52 0.001997
34 0.002003
51 0.001995
75 0.00203
95 0.001033
115 0.001032
119 0.001031
120 0.000994
122 0.001075
129 0.001002
142 0.002026
152 0.001995
166 0.002009
173 0.001988
178 0.001995
184 0.002074
188 0.002038
192 0.00097
177 0.000996
112 0.001023
60 0.001044
59 0.000996
93 0.000998
112 0.00103
132 0.002009
133 0.002004
131 0.002008
132 0.001988
139 0.001997
151 0.002028
161 0.002026
169 0.00198
176 0.000987
180 0.014018
187 0.000998
190 0.001045
180 0.001973
126 0.001007
76 0.001994
79 0.001978
102 0.001988
121 0.002027
135 0.002
141 0.001983
138 0.00207
135 0.001031
138 0.001
146 0.001027
162 0.001004
170 0.000977
176 0.001993
180 0.001008
184 0.001983
188 0.002034
188 0.002032
164 0.002071
96 0.002009
54 0.001989
67 0.001033
97 0.001031
117 0.001005
125 0.001016
126 0.002003
124 0.001029
126 0.001046
136 0.000998
145 0.002008
154 0.001994
162 0.002041
169 0.002025
173 0.001906
181 0.001031
182 0.001004
146 0.000984
80 0.001011
50 0.001045
69 0.001992
84 0.002039
106 0.001996
119 0.001995
124 0.001998
124 0.001996
124 0.001999
134 0.001969
142 0.002001
155 0.002985
163 0.001983
170 0.001995
175 0.001995
179 0.002026
184 0.001995
185 0.002008
164 0.001962
104 0.002054
64 0.001975
86 0.001945
112 0.001957
125 0.002003
132 0.001976
132 0.001993
131 0.001028
132 0.001995
141 0.002
151 0.001994
163 0.002
168 0.002006
173 0.002007
182 0.001995
184 0.002011
187 0.002933
182 0.002985
124 0.001967
95 0.001995
88 0.001995
106 0.002026
123 0.002028
139 0.001983
145 0.001991
143 0.001998
135 0.001972
138 0.002028
148 0.002005
157 0.002992
164 0.001981
170 0.001997
174 0.001948
177 0.002994
180 0.002992
174 0.001989
117 0.001971
85 0.002073
77 0.002007
96 0.002
117 0.002959
128 0.002967
131 0.001999
126 0.002021
125 0.000978
132 0.002992
140 0.002992
149 0.001997
158 0.00199
162 0.002036
169 0.001876
174 0.00203
174 0.002985
150 0.003
74 0.001016
53 0.00101
66 0.001007
86 0.002992
102 0.003025
116 0.002005
118 0.002013
117 0.001995
119 0.002027
128 0.000968
136 0.003027
145 0.002994
156 0.001029
161 0.000998
166 0.000995
171 0.002992
174 0.002965
149 0.002005
92 0.001945
59 0.001988
78 0.001991
97 0.002025
111 0.003954
120 0.003991
121 0.001994
120 0.001027
123 0.002025
130 0.002986
139 0.003026
151 0.002001
159 0.001012
168 0.001934
171 0.002985
177 0.001009
178 0.004053
167 0.003016
100 0.00102
72 0.001004
81 0.002044
102 0.002992
117 0.003019
132 0.001995
135 0.000997
128 0.00399
129 0.001002
136 0.000974
145 0.00399
154 0.004025
160 0.00402
166 0.0
171 0.0
173 0.0
174 0.004039
156 0.003989
122 0.013928
66 0.002965
89 0.0
106 0.000998
120 0.0
127 0.003979
125 0.003951
121 0.0
125 0.000998
132 0.00102
140 0.004015
149 0.004002
158 0.000999
165 0.003019
170 0.000962
172 0.001029
152 0.0
92 0.004002
47 0.004016
52 0.001013
73 0.000993
90 0.000993
104 0.004027
110 0.003992
110 0.002003
112 0.004023
121 0.0
130 0.0
138 0.000998
146 0.005055
153 0.003997
160 0.0
165 0.0
166 0.0
144 0.004023
82 0.004023
39 0.000961
57 0.005029
83 0.000942
99 0.000997
109 0.000995
112 0.00498
112 0.00499
117 0.0
125 0.0
134 0.0
144 0.004008
152 0.004029
161 0.00101
168 0.00502
174 0.001003
176 0.001012
153 0.0
94 0.005038
57 0.004987
68 0.001001
91 0.001993
107 0.000954
120 0.004003
123 0.003988
121 0.000998
123 0.004983
134 0.0
142 0.0
151 0.0
159 0.006031
164 0.004944
171 0.002034
175 0.0
175 0.000965
148 0.003977
91 0.005018
58 0.000999
80 0.005047
105 0.001977
119 0.0
124 0.001987
121 0.003989
118 0.004898
124 0.001028
132 0.0
140 0.0
149 0.005014
156 0.004015
166 0.004016
170 0.004975
170 0.0
133 0.002007
65 0.0
33 0.005019
40 0.00503
69 0.000998
87 0.001977
100 0.001995
105 0.005028
105 0.00498
106 0.002984
114 0.015952
120 0.000997
138 0.00201
144 0.001995
152 0.005023
158 0.00498
165 0.001027
151 0.001997
90 0.002001
35 0.005005
27 0.004987
59 0.005933
78 0.006017
98 0.000991
103 0.0
103 0.0
104 0.005013
112 0.004987
126 0.001995
136 0.000998
143 0.001991
152 0.005013
158 0.004988
170 0.006012
171 0.005921
120 0.0
54 0.00197
32 0.001992
46 0.0
69 0.005954
90 0.005048
108 0.002035
112 0.001037
110 0.00099
111 0.006015
127 0.001993
138 0.006015
146 0.00601
154 0.001993
159 0.002016
166 0.001991
172 0.00602
174 0.005981
123 0.000983
59 0.001995
43 0.000989
58 0.005053
100 0.000997
116 0.006016
124 0.00602
116 0.002027
112 0.002028
119 0.00099
130 0.005984
141 0.00599
151 0.001027
156 0.001029
160 0.001029
164 0.004965
151 0.002032
86 0.005958
35 0.005982
35 0.002017
56 0.001996
79 0.001969
101 0.005987
111 0.006033
105 0.002
100 0.000985
107 0.000997
121 0.006019
142 0.002026
149 0.006027
155 0.006026
163 0.001995
164 0.002001
140 0.001957
61 0.005982
27 0.006021
31 0.00101
48 0.001994
65 0.000965
85 0.005988
97 0.001992
93 0.006978
93 0.007954
108 0.00296
124 0.002962
138 0.002941
147 0.006947
155 0.006986
162 0.002961
167 0.00296
165 0.001955
59 0.001959
32 0.001995
36 0.007011
51 0.007008
73 0.002027
91 0.000983
102 0.001027
102 0.006018
98 0.005958
106 0.000996
121 0.002
138 0.002
156 0.002073
163 0.001957
168 0.007022
174 0.006998
180 0.000992
176 0.002002
116 0.001986
55 0.006027
45 0.005989
65 0.001998
86 0.003029
107 0.0
124 0.002987
117 0.002012
109 0.006946
115 0.006942
136 0.001999
151 0.002019
161 0.001982
167 0.006016
171 0.006014
178 0.001999
181 0.002985
179 0.001988
79 0.002974
48 0.002005
52 0.007022
71 0.00702
101 0.001989
121 0.001991
129 0.00296
123 0.006981
116 0.006981
124 0.003025
139 0.002981
154 0.002993
169 0.002983
174 0.002966
177 0.007945
182 0.007939
187 0.001996
178 0.002996
107 0.002944
49 0.006971
46 0.007969
64 0.00296
85 0.00301
104 0.002035
123 0.002993
121 0.002994
116 0.007008
121 0.007022
141 0.002957
155 0.002033
164 0.002032
172 0.007977
175 0.007016
180 0.002964
184 0.00197
182 0.002991
81 0.001995
45 0.001974
49 0.003014
71 0.006969
94 0.007037
122 0.002028
134 0.001992
135 0.002986
131 0.007963
137 0.007978
150 0.002992
162 0.003
175 0.002992
179 0.002993
183 0.002957
187 0.007027
191 0.00703
194 0.003991
176 0.003965
100 0.003984
58 0.007991
71 0.007945
101 0.003987
127 0.003037
150 0.002984
151 0.002996
146 0.003004
147 0.00798
158 0.006978
168 0.003958
176 0.003989
181 0.004027
186 0.007953
188 0.007975
193 0.00399
189 0.007958
142 0.002959
79 0.002992
68 0.002986
101 0.007954
129 0.008029
147 0.003995
155 0.003978
154 0.003945
150 0.007979
150 0.00798
159 0.004014
172 0.007914
177 0.003025
181 0.00399
184 0.002973
190 0.00695
190 0.006981
158 0.002992
80 0.002991
47 0.00296
60 0.007945
90 0.007965
123 0.002986
141 0.007918
141 0.003024
139 0.004014
140 0.003985
151 0.006983
160 0.006949
167 0.003945
171 0.00296
176 0.004022
181 0.006921
184 0.006952
165 0.003989
52 0.007969
41 0.007979
46 0.002023
73 0.002045
121 0.007969
132 0.006972
135 0.00503
133 0.00399
134 0.003991
145 0.006956
155 0.006995
162 0.00401
172 0.00795
176 0.003981
182 0.004016
186 0.00399
160 0.006979
85 0.007964
46 0.003928
56 0.004995
85 0.004957
118 0.006992
134 0.006984
138 0.005001
134 0.006953
137 0.003969
145 0.005045
155 0.004956
165 0.00797
171 0.00703
175 0.005031
181 0.003932
186 0.004987
173 0.006955
116 0.007014
65 0.004999
84 0.006982
113 0.005008
134 0.004954
146 0.004955
144 0.006014
138 0.006936
137 0.004953
145 0.00396
157 0.005972
164 0.006982
168 0.006986
172 0.004944
179 0.005974
171 0.004953
114 0.005003
50 0.004981
47 0.005992
75 0.007025
103 0.005007
124 0.004988
132 0.005
127 0.00698
119 0.006943
123 0.005014
144 0.006993
152 0.004945
159 0.004988
164 0.00495
168 0.00406
168 0.005985
130 0.006982
49 0.003988
23 0.003996
32 0.003995
60 0.006983
83 0.006983
107 0.005993
105 0.005986
98 0.004934
100 0.004987
113 0.004971
133 0.005987
144 0.00499
152 0.003989
157 0.005023
163 0.004976
165 0.006977
63 0.005959
21 0.005938
19 0.006023
34 0.004948
51 0.005037
68 0.00504
86 0.006016
87 0.005974
83 0.004997
86 0.004998
97 0.004994
120 0.007017
138 0.005981
149 0.006015
155 0.005011
160 0.005981
168 0.006009
171 0.005984
160 0.005024
79 0.005018
28 0.00596
28 0.005001
44 0.00497
61 0.005021
88 0.004991
94 0.005993
91 0.006004
91 0.005993
102 0.00597
120 0.00598
137 0.005982
149 0.005984
156 0.005985
162 0.004963
169 0.004967
174 0.005008
182 0.004973
173 0.005008
103 0.006002
45 0.004976
40 0.005031
66 0.005965
89 0.00594
110 0.005999
123 0.004993
116 0.004981
109 0.005052
112 0.005019
140 0.004979
154 0.004979
163 0.004986
169 0.005984
173 0.005027
176 0.005036
183 0.00498
187 0.006016
175 0.004972
132 0.005019
46 0.004976
42 0.004985
70 0.004982
103 0.005002
122 0.004989
126 0.005975
120 0.004936
113 0.004961
125 0.005987
141 0.004994
159 0.005035
168 0.004947
169 0.010935
176 0.002004
183 0.004947
188 0.005985
191 0.004985
174 0.004946
91 0.004022
49 0.00596
36 0.005999
56 0.004993
85 0.004971
105 0.004993
119 0.004993
120 0.004987
115 0.004973
124 0.004015
139 0.003972
158 0.005008
167 0.003981
173 0.004
178 0.004932
181 0.005
187 0.005004
191 0.005012
190 0.004986
151 0.004989
41 0.004993
43 0.004994
64 0.004979
94 0.00399
115 0.003953
127 0.004968
129 0.004002
127 0.004026
133 0.004018
146 0.004022
161 0.00399
176 0.004987
182 0.004995
186 0.004988
190 0.003985
193 0.004911
199 0.003993
204 0.003951
196 0.003967
132 0.003965
63 0.003982
60 0.003972
88 0.003991
130 0.003986
144 0.003979
149 0.004004
145 0.004022
143 0.004969
154 0.004976
166 0.004989
176 0.004981
182 0.003966
187 0.003991
193 0.003969
199 0.003977
207 0.003987
202 0.004017
152 0.004089
87 0.003945
73 0.003989
106 0.003989
132 0.003958
149 0.003962
158 0.003968
156 0.00397
150 0.004988
152 0.005034
167 0.003961
176 0.00397
182 0.004018
188 0.003994
193 0.003978
200 0.004033
204 0.003994
200 0.003994
148 0.003987
72 0.003989
53 0.003977
80 0.004996
122 0.003962
137 0.003965
143 0.003976
141 0.003985
138 0.003963
145 0.004
154 0.004004
163 0.003974
170 0.003
177 0.004025
185 0.00399
190 0.002992
193 0.003992
147 0.003986
66 0.003957
39 0.003994
55 0.003994
94 0.003979
115 0.003979
129 0.003981
135 0.003994
134 0.003032
135 0.004001
143 0.003982
158 0.003015
166 0.002998
173 0.002992
180 0.003999
186 0.002992
193 0.003014
192 0.003021
147 0.004014
70 0.002961
44 0.003968
73 0.002995
102 0.002991
132 0.002961
137 0.002967
135 0.003026
131 0.002992
136 0.00299
149 0.004002
158 0.003995
165 0.003955
170 0.002991
174 0.003026
182 0.002991
185 0.002982
117 0.002997
55 0.002986
48 0.002978
72 0.003019
101 0.002987
128 0.003011
135 0.002956
132 0.002963
125 0.003989
126 0.002995
140 0.004036
154 0.003003
162 0.002983
166 0.003017
171 0.002927
174 0.003
165 0.002982
72 0.002988
26 0.003003
29 0.002989
51 0.003001
77 0.003013
106 0.002965
116 0.003944
107 0.002985
106 0.003067
116 0.002998
131 0.002958
143 0.002945
154 0.002961
160 0.002959
165 0.002961
169 0.002967
159 0.003069
61 0.002961
42 0.028921
23 0.003035
46 0.002955
84 0.002992
101 0.003038
107 0.001994
101 0.001994
101 0.002001
113 0.001961
129 0.001991
143 0.002032
155 0.003023
163 0.001969
169 0.001974
174 0.001961
158 0.001965
80 0.001959
33 0.003005
34 0.003035
62 0.001984
87 0.002956
108 0.00294
117 0.002922
114 0.002028
106 0.002992
117 0.002049
139 0.001995
151 0.001956
160 0.002022
166 0.001963
171 0.001994
178 0.001964
181 0.002995
164 0.00295
85 0.00203
40 0.002993
56 0.001988
83 0.001994
115 0.001983
127 0.002029
124 0.001999
111 0.001988
109 0.001962
126 0.001994
141 0.002005
153 0.001973
160 0.003018
165 0.002998
174 0.00201
178 0.001968
159 0.001964
76 0.001965
31 0.002006
32 0.001964
53 0.001964
85 0.001994
106 0.001951
116 0.003001
114 0.001989
107 0.001995
118 0.00199
133 0.001994
150 0.001946
158 0.001994
164 0.002017
169 0.001966
175 0.002008
179 0.001997
152 0.002007
65 0.00097
27 0.001986
31 0.000995
66 0.00299
87 0.001994
109 0.001961
111 0.00195
106 0.001964
107 0.002929
118 0.001913
139 0.002983
152 0.001996
162 0.002006
169 0.002068
175 0.000981
183 0.000971
185 0.002014
144 0.000998
59 0.001966
35 0.002001
47 0.002003
72 0.002968
104 0.003004
122 0.001986
128 0.001988
124 0.002007
126 0.001008
139 0.001013
154 0.001954
168 0.001989
175 0.001988
180 0.001995
185 0.002002
190 0.001984
194 0.001966
176 0.002009
99 0.001029
50 0.001987
69 0.000965
99 0.000997
123 0.001047
141 0.000998
140 0.000998
131 0.001001
129 0.00098
140 0.001933
159 0.001964
168 0.000963
174 0.002002
180 0.001007
187 0.000982
189 0.000965
172 0.000966
70 0.000969
42 0.000997
53 0.001014
81 0.000962
107 0.001027
134 0.001994
139 0.000997
136 0.000997
132 0.0
147 0.000969
159 0.001004
169 0.0
179 0.000965
183 0.000964
188 0.000966
192 0.00099
190 0.000996
113 0.000989
47 0.001005
40 0.0
60 0.0
105 0.001024
125 0.0
135 0.000962
134 0.000967
131 0.00096
138 0.000966
150 0.000991
163 0.000981
172 0.000976
177 0.001032
178 0.002992
187 0.001999
196 0.0
189 0.0
129 0.0
58 0.0
54 0.0
83 0.0
112 0.0
135 0.0
146 0.0
147 0.0
143 0.0
147 0.0
165 0.0
174 0.0
181 0.0
186 0.0
191 0.0
195 0.0
201 0.0
203 0.0
175 0.0
81 0.0
65 0.000992
88 0.0
135 0.0
151 0.0
158 0.0
155 0.0
151 0.0
156 0.0
164 0.000937
172 0.000974
178 0.001024
184 0.00102
188 0.0
193 0.0
192 0.0
143 0.0
72 0.0
56 0.0
91 0.0
119 0.000962
138 0.0
147 0.0
148 0.000962
144 0.000997
148 0.001001
161 0.0
168 0.0
175 0.002016
180 0.0
185 0.0
192 0.0
185 0.001994
121 0.000965
49 0.002019
39 0.000999
73 0.000968
102 0.001989
129 0.000997
135 0.002961
134 0.003001
134 0.00199
139 0.001985
151 0.002007
159 0.001996
166 0.001993
172 0.001992
179 0.002003
186 0.001993
175 0.001995
60 0.002028
42 0.001983
74 0.002987
94 0.003026
117 0.003008
134 0.001
138 0.001988
136 0.001988
138 0.002015
144 0.002003
156 0.001985
164 0.001986
175 0.00199
182 0.002014
187 0.002962
191 0.002958
167 0.002949
76 0.002961
55 0.002992
86 0.00299
106 0.002973
127 0.001994
143 0.001994
143 0.001981
137 0.002027
142 0.001984
154 0.002974
161 0.00301
165 0.002948
173 0.002992
180 0.003021
184 0.002993
178 0.001973
126 0.002036
52 0.001993
55 0.002028
102 0.001996
123 0.002955
135 0.001998
135 0.002034
131 0.001997
132 0.002031
140 0.003034
153 0.003006
158 0.002032
167 0.002954
174 0.002004
179 0.002958
145 0.002027
63 0.002003
27 0.002014
37 0.001997
66 0.002
97 0.002012
113 0.001995
119 0.002005
119 0.001965
118 0.001954
126 0.003003
137 0.002979
149 0.002
158 0.002983
164 0.001997
170 0.001989
169 0.002061
118 0.002014
28 0.00299
24 0.002042
48 0.001997
74 0.002047
97 0.001997
116 0.001991
118 0.001984
119 0.001992
127 0.003006
139 0.001996
152 0.002944
158 0.002996
166 0.002015
172 0.001992
179 0.001995
180 0.001998
141 0.00199
44 0.001996
39 0.002025
76 0.002964
101 0.001988
119 0.002965
127 0.002917
124 0.002964
125 0.002996
132 0.003009
143 0.001988
152 0.00203
157 0.017915
164 0.002019
175 0.001013
184 0.002962
184 0.003011
119 0.002966
69 0.002018
43 0.002969
71 0.003046
98 0.002991
120 0.002971
133 0.002986
132 0.001991
124 0.002026
132 0.002011
144 0.001946
153 0.002023
160 0.002003
165 0.001971
170 0.001995
179 0.003035
182 0.002995
151 0.002959
72 0.002942
31 0.001988
59 0.002048
86 0.001989
114 0.002007
123 0.001998
121 0.002007
116 0.001959
123 0.001993
135 0.00296
145 0.002977
154 0.002959
162 0.001989
165 0.002979
175 0.002965
177 0.002003
125 0.001978
43 0.001998
20 0.002004
43 0.00196
68 0.001987
90 0.003001
107 0.002997
113 0.002005
111 0.002984
111 0.002985
132 0.001981
143 0.002997
152 0.00399
159 0.002967
165 0.001999
171 0.001939
176 0.002002
175 0.003016
126 0.003045
34 0.002037
29 0.002036
51 0.002014
94 0.002044
112 0.002004
122 0.002968
122 0.002991
121 0.002006
130 0.001995
142 0.001977
153 0.002946
161 0.002983
169 0.001978
174 0.001947
179 0.00199
190 0.002027
194 0.002038
175 0.002994
99 0.003021
44 0.002002
59 0.002041
89 0.00198
115 0.004002
131 0.002974
138 0.002054
134 0.001996
131 0.001946
144 0.002061
154 0.001999
162 0.003018
168 0.003025
173 0.003034
181 0.000996
187 0.00199
191 0.000982
174 0.003996
109 0.003991
55 0.00196
68 0.002008
114 0.002004
133 0.001968
142 0.001974
141 0.003973
137 0.004005
140 0.001984
149 0.00196
158 0.003013
166 0.003985
173 0.00399
182 0.001982
190 0.003027
194 0.002006
170 0.00201
91 0.003005
40 0.003959
43 0.003982
80 0.00303
103 0.000964
120 0.002046
128 0.003982
127 0.00302
125 0.002027
135 0.004037
148 0.000997
156 0.00202
164 0.000999
170 0.00399
177 0.00399
185 0.001062
180 0.000972
123 0.001062
47 0.003989
30 0.003982
57 0.000969
90 0.003958
114 0.000996
121 0.001964
122 0.000979
120 0.00502
125 0.003995
139 0.002007
149 0.000961
157 0.0
163 0.003966
170 0.003974
179 0.001961
185 0.003985
147 0.001013
66 0.00105
33 0.001014
44 0.005003
72 0.004955
102 0.0
117 0.0
123 0.001992
120 0.00399
119 0.00399
130 0.0
144 0.004031
156 0.0
161 0.001013
166 0.0
171 0.004979
178 0.004987
184 0.0
163 0.002006
93 0.0
47 0.003942
52 0.004921
90 0.0
114 0.016956
130 0.002987
132 0.0
125 0.0
127 0.004946
137 0.004962
152 0.00198
160 0.0
166 0.0
169 0.005001
173 0.004011
179 0.0
164 0.005015
74 0.0
39 0.001964
48 0.0
74 0.00399
101 0.002998
126 0.001004
128 0.0
121 0.002002
116 0.00503
123 0.005019
140 0.0
154 0.004987
162 0.0
166 0.0
170 0.0
174 0.005029
172 0.004987
102 0.001003
35 0.000965
25 0.000971
39 0.00505
62 0.005
91 0.001971
108 0.004991
105 0.001999
101 0.0
108 0.001001
121 0.005001
136 0.004022
150 0.000967
156 0.0
162 0.0
166 0.004988
171 0.005983
162 0.005015
91 0.004988
26 0.0
29 0.001029
47 0.0
68 0.00497
89 0.004954
107 0.0
108 0.0
105 0.000998
108 0.004989
121 0.005958
145 0.0
155 0.005016
163 0.0
168 0.001986
172 0.0
176 0.0
180 0.00496
179 0.005984
111 0.000957
46 0.001997
36 0.0
54 0.005952
96 0.001995
117 0.005985
125 0.006014
119 0.001985
117 0.0
125 0.002
140 0.006024
154 0.005998
166 0.0
171 0.001008
174 0.0
177 0.006035
183 0.002026
184 0.005982
159 0.006027
64 0.001929
42 0.002995
56 0.002974
84 0.005995
109 0.005985
130 0.002989
131 0.003027
124 0.002001
122 0.006942
138 0.001999
151 0.005979
159 0.006949
167 0.002991
171 0.001995
174 0.000998
177 0.005986
181 0.006027
181 0.000968
141 0.0
58 0.0
30 0.005985
58 0.001051
84 0.005981
105 0.00598
122 0.001995
122 0.003004
117 0.002026
121 0.006952
132 0.006992
148 0.001014
158 0.002009
164 0.002028
169 0.006014
175 0.001994
179 0.005993
183 0.006017
156 0.002003
78 0.002009
38 0.001994
45 0.00693
71 0.006982
105 0.001995
124 0.001995
132 0.001996
133 0.006979
133 0.002027
142 0.006015
152 0.005972
165 0.001991
172 0.003018
176 0.001962
182 0.006975
186 0.007024
193 0.002003
198 0.003002
201 0.001994
190 0.006983
75 0.001994
53 0.006976
73 0.005992
110 0.001994
130 0.001985
141 0.001989
142 0.006991
137 0.006952
137 0.001965
145 0.003023
155 0.002967
164 0.006949
173 0.002014
179 0.006982
184 0.006974
190 0.001989
192 0.001998
161 0.002021
96 0.006957
62 0.007022
84 0.002988
111 0.001998
131 0.003026
146 0.002038
144 0.006948
141 0.002045
139 0.001022
150 0.000998
161 0.001993
168 0.002979
177 0.007978
180 0.006981
187 0.000997
191 0.002961
194 0.00296
144 0.001999
63 0.002001
36 0.007012
51 0.006984
88 0.002965
108 0.002967
121 0.001947
126 0.007949
124 0.007947
124 0.002991
132 0.003967
142 0.002008
155 0.001992
161 0.002024
167 0.00198
172 0.006982
179 0.006982
181 0.00198
150 0.002989
75 0.003005
35 0.007967
52 0.007932
80 0.001981
101 0.001981
123 0.00302
123 0.002991
122 0.001993
124 0.00699
134 0.006976
147 0.002976
155 0.002978
162 0.002998
171 0.007943
177 0.007947
183 0.002001
188 0.003022
170 0.002998
100 0.003
49 0.001986
50 0.007006
77 0.007979
109 0.000998
124 0.000998
130 0.002993
127 0.007978
126 0.00793
132 0.00301
142 0.001997
156 0.002992
163 0.003
170 0.00302
176 0.006969
183 0.006978
189 0.00297
185 0.003001
140 0.002972
79 0.007948
62 0.007945
91 0.002989
115 0.003986
139 0.003959
139 0.002963
133 0.002963
131 0.00798
138 0.007977
147 0.003968
155 0.002991
161 0.003002
169 0.007946
175 0.007968
181 0.002957
184 0.001983
135 0.002987
64 0.002998
40 0.001995
56 0.00798
83 0.007975
111 0.001996
121 0.001968
123 0.002987
118 0.007987
120 0.007949
129 0.003007
139 0.002989
152 0.001988
157 0.003991
163 0.003004
171 0.00795
176 0.007969
175 0.003978
131 0.003967
52 0.003967
23 0.007948
41 0.007991
66 0.003
97 0.00795
107 0.002966
107 0.002994
105 0.003
112 0.007977
122 0.00698
134 0.002991
143 0.002961
150 0.003918
157 0.005997
161 0.007989
168 0.003946
175 0.007971
139 0.002992
60 0.003936
26 0.004988
34 0.007982
64 0.007969
84 0.004003
101 0.003007
110 0.003993
110 0.006955
111 0.006981
119 0.00399
138 0.006981
147 0.002991
155 0.003023
160 0.004003
168 0.007947
173 0.007946
181 0.00399
186 0.003985
186 0.002988
124 0.007984
57 0.006932
43 0.003963
80 0.006959
102 0.003987
118 0.002987
126 0.003039
125 0.006953
125 0.006956
131 0.002991
141 0.003
151 0.003966
162 0.00693
166 0.008939
172 0.002942
183 0.006948
189 0.002978
194 0.00399
194 0.002992
160 0.005984
80 0.006974
69 0.00399
89 0.004988
113 0.004993
135 0.006947
142 0.006983
140 0.003995
134 0.006957
140 0.00402
149 0.003988
157 0.003996
168 0.007012
174 0.007028
179 0.00496
184 0.005016
188 0.00496
191 0.004996
169 0.005984
106 0.006
61 0.006981
82 0.006967
106 0.004975
123 0.004014
134 0.004006
134 0.007002
130 0.006012
131 0.003989
139 0.004958
147 0.004924
159 0.005993
167 0.005973
176 0.005986
181 0.005952
185 0.004988
187 0.003987
166 0.004995
70 0.00698
38 0.005976
49 0.004968
74 0.004985
94 0.004042
115 0.005986
120 0.005975
118 0.005984
121 0.006984
129 0.003981
139 0.003998
147 0.003992
158 0.006981
165 0.007027
171 0.004942
177 0.005006
181 0.004971
177 0.005972
97 0.003981
36 0.005984
45 0.006007
70 0.004987
92 0.004956
109 0.003959
120 0.005986
122 0.00698
121 0.004985
126 0.004986
135 0.003943
148 0.005983
159 0.004985
170 0.006011
176 0.006026
181 0.004982
186 0.005023
188 0.005009
158 0.006019
91 0.005014
57 0.004993
68 0.004987
93 0.004958
119 0.004986
134 0.004986
133 0.006017
131 0.005982
134 0.004986
142 0.004987
150 0.004987
162 0.005983
170 0.005983
179 0.004987
182 0.004985
186 0.004987
189 0.004959
137 0.00498
79 0.004954
64 0.004953
91 0.005977
105 0.004958
122 0.004989
134 0.005982
133 0.005982
128 0.004987
129 0.004014
137 0.005004
145 0.004978
155 0.004986
164 0.005021
168 0.00502
175 0.004974
176 0.004986
166 0.00499
81 0.005967
31 0.005963
35 0.005017
58 0.005012
80 0.004959
99 0.004984
107 0.003976
106 0.005
106 0.005027
118 0.004977
124 0.004987
136 0.004991
143 0.006019
149 0.004989
156 0.004982
161 0.004956
165 0.004981
129 0.005021
25 0.004979
20 0.004986
38 0.004987
68 0.004993
88 0.004949
97 0.004955
103 0.004988
103 0.004014
106 0.004973
121 0.004939
132 0.005022
143 0.003989
153 0.004987
158 0.005987
162 0.004996
168 0.004985
170 0.004921
143 0.004999
70 0.004977
31 0.00499
42 0.004943
66 0.004983
86 0.004983
104 0.003989
108 0.004995
104 0.004963
105 0.004019
115 0.00399
131 0.003993
137 0.004976
140 0.005009
142 0.005027
143 0.004978
142 0.004954
139 0.004956
127 0.007016
3 0.004017
0 0.003995
0 0.004022
13 0.004029
38 0.004011
50 0.003998
47 0.003997
37 0.005002
36 0.004979
52 0.004004
70 0.003974
96 0.004982
107 0.004982
115 0.003976
124 0.003987
133 0.003983
139 0.003988
92 0.003992
21 0.003968
0 0.004984
4 0.003991
21 0.003982
35 0.005003
57 0.004973
58 0.003998
53 0.003983
54 0.004024
65 0.004022
87 0.004014
103 0.003989
115 0.00398
125 0.003969
132 0.003981
143 0.004023
149 0.002979
84 0.004987
26 0.003954
11 0.00397
19 0.003991
34 0.003987
57 0.003988
74 0.003977
81 0.003989
78 0.003982
77 0.003991
90 0.002983
106 0.003048
136 0.003982
145 0.00297
153 0.003006
159 0.004029
165 0.00402
174 0.00399
179 0.003984
177 0.004026
115 0.002992
49 0.003965
37 0.004008
52 0.00298
83 0.002985
101 0.003964
108 0.003967
105 0.00399
98 0.00398
104 0.004004
123 0.003956
144 0.003966
158 0.003989
169 0.003014
180 0.002993
187 0.00299
194 0.003023
181 0.003026
115 0.002997
61 0.002029
55 0.001995
79 0.003988
106 0.00295
131 0.003039
144 0.00396
142 0.003982
130 0.002957
133 0.003016
157 0.002977
169 0.00299
177 0.00302
182 0.002992
186 0.002992
190 0.002997
193 0.003004
195 0.002946
186 0.002946
111 0.003992
36 0.003994
35 0.003003
67 0.002969
88 0.002991
108 0.002984
117 0.00298
114 0.002941
106 0.002987
111 0.003001
126 0.002986
142 0.003006
155 0.00199
167 0.003002
173 0.002993
182 0.002984
185 0.002995
171 0.00299
96 0.003019
44 0.002992
43 0.002993
63 0.002984
88 0.003031
111 0.002962
126 0.001998
125 0.003943
118 0.00296
125 0.00304
146 0.002991
160 0.002024
169 0.002993
177 0.002992
182 0.003004
189 0.002965
194 0.002981
198 0.002
195 0.001987
150 0.001991
53 0.001982
58 0.001996
93 0.002989
120 0.003001
140 0.002988
145 0.002992
138 0.002956
125 0.003012
132 0.001995
146 0.00299
160 0.00194
170 0.001988
181 0.001995
186 0.002058
192 0.002026
192 0.003006
159 0.00298
88 0.002984
59 0.002003
78 0.001943
106 0.002987
131 0.001984
148 0.002027
149 0.001958
135 0.00295
135 0.002035
153 0.001996
167 0.001963
176 0.002006
182 0.00196
187 0.002993
194 0.002044
197 0.003001
190 0.001948
129 0.00199
58 0.002001
52 0.002038
74 0.00202
106 0.001996
125 0.002004
131 0.001969
127 0.001996
120 0.002001
128 0.002978
143 0.00301
156 0.002002
167 0.002001
173 0.002019
181 0.001993
185 0.001994
185 0.001984
151 0.00196
68 0.001994
34 0.002993
38 0.001997
64 0.003042
86 0.002027
106 0.001995
114 0.001993
109 0.002003
106 0.001995
116 0.002028
138 0.002021
151 0.002027
160 0.001972
168 0.001963
173 0.00197
181 0.000997
186 0.000998
186 0.000995
148 0.001995
70 0.000998
46 0.002035
67 0.001992
100 0.000965
122 0.001989
131 0.001989
126 0.001995
118 0.002017
125 0.000997
141 0.000972
155 0.000987
167 0.001994
173 0.000997
181 0.001998
185 0.001996
190 0.002004
186 0.001968
141 0.002001
68 0.001991
46 0.000997
66 0.000997
93 0.000992
116 0.000957
132 0.001055
123 0.001989
114 0.002025
116 0.001995
134 0.001984
148 0.001992
159 0.001964
167 0.001995
173 0.000997
181 0.002008
186 0.000963
186 0.001047
145 0.000955
39 0.002021
38 0.001962
57 0.001988
86 0.002029
107 0.0
116 0.001001
115 0.000964
107 0.001003
112 0.001031
128 0.001022
144 0.000991
156 0.000998
168 0.000997
173 0.001051
177 0.000997
182 0.000997
175 0.000999
113 0.001015
43 0.000994
27 0.000997
43 0.000999
62 0.0
79 0.001994
95 0.0
97 0.000997
94 0.0
100 0.000997
115 0.0
136 0.00101
149 0.000997
159 0.000973
165 0.001041
170 0.000982
178 0.000997
182 0.0
181 0.0
80 0.0
37 0.0
37 0.0
55 0.0
82 0.000999
101 0.001027
111 0.001007
106 0.000998
100 0.000997
107 0.0
124 0.0
142 0.0
164 0.0
172 0.0
177 0.0
183 0.0
189 0.0
188 0.0
157 0.0
78 0.000999
46 0.001033
58 0.000997
81 0.0
104 0.0
126 0.000997
120 0.0
109 0.0
109 0.0
127 0.0
143 0.0
155 0.0
164 0.0
171 0.0
178 0.000998
184 0.0
189 0.0
149 0.0
67 0.0
36 0.0
43 0.0
70 0.0
90 0.0
109 0.0
116 0.0
112 0.0
105 0.0
114 0.0
131 0.0
155 0.0
165 0.0
171 0.0
177 0.0
185 0.0
188 0.0
178 0.000975
107 0.000966
48 0.000999
42 0.000998
59 0.001044
80 0.0
111 0.0
117 0.00295
115 0.0
113 0.0
124 0.0
140 0.0
156 0.001995
167 0.0
176 0.0
185 0.000997
190 0.0
199 0.001
198 0.002997
160 0.000997
81 0.0
53 0.0
68 0.001975
93 0.002029
116 0.002031
134 0.0
140 0.001981
132 0.003005
130 0.003009
150 0.001059
164 0.003029
177 0.002014
182 0.002996
187 0.001991
192 0.002968
197 0.002028
200 0.001977
196 0.002025
154 0.002028
67 0.002028
58 0.003003
96 0.002031
121 0.002995
143 0.001993
144 0.003002
134 0.003015
129 0.001972
135 0.001958
150 0.00203
162 0.002029
172 0.001986
179 0.001987
183 0.002007
190 0.002028
192 0.002026
179 0.002031
83 0.002989
49 0.002992
45 0.003027
65 0.003026
91 0.001975
112 0.002954
127 0.002024
124 0.002029
117 0.001992
128 0.002043
142 0.002982
158 0.002985
167 0.002991
173 0.002981
179 0.002976
183 0.002992
187 0.002983
168 0.002993
94 0.002982
38 0.002999
34 0.002978
67 0.003021
89 0.00305
110 0.002027
119 0.001994
116 0.002028
112 0.002979
121 0.003
136 0.002034
149 0.002993
163 0.00295
168 0.002947
176 0.002956
182 0.003001
188 0.002032
184 0.001998
134 0.002992
62 0.00203
42 0.001995
65 0.001996
93 0.002993
116 0.002992
133 0.003011
132 0.00296
128 0.001997
132 0.002996
145 0.003026
158 0.003026
170 0.001992
174 0.002044
178 0.002045
185 0.001998
189 0.002354
186 0.002955
167 0.001985
99 0.001994
52 0.00199
72 0.002089
109 0.001986
131 0.002003
140 0.001999
134 0.002989
128 0.002994
128 0.002994
140 0.002958
156 0.00296
164 0.003001
170 0.002981
177 0.002042
181 0.002053
183 0.003013
159 0.001999
84 0.002036
39 0.001996
45 0.00194
68 0.001992
93 0.002992
118 0.001992
121 0.002961
117 0.002954
113 0.003001
125 0.00295
139 0.002998
151 0.001991
161 0.002993
165 0.002035
171 0.002006
176 0.00203
170 0.002028
114 0.002034
47 0.002004
30 0.002037
56 0.002991
84 0.002014
103 0.003046
111 0.002032
108 0.002973
104 0.002016
109 0.002025
128 0.001967
144 0.001984
154 0.00203
163 0.002033
169 0.002027
179 0.003018
180 0.002992
145 0.003
70 0.003031
39 0.002992
47 0.002957
68 0.001972
99 0.001995
117 0.001998
122 0.001996
116 0.002992
113 0.001997
128 0.001989
145 0.002997
161 0.002998
169 0.003019
177 0.002993
181 0.002996
186 0.002959
187 0.003027
170 0.002036
81 0.002954
50 0.001963
53 0.002029
97 0.001994
120 0.002028
131 0.003034
128 0.003003
116 0.002987
120 0.00301
133 0.002965
147 0.002991
158 0.003986
169 0.001976
172 0.002046
177 0.001995
183 0.002044
161 0.001964
86 0.002992
43 0.002993
47 0.001992
67 0.001981
81 0.002014
107 0.003083
115 0.00303
107 0.002001
103 0.002989
109 0.003002
133 0.001949
146 0.002025
155 0.002997
162 0.003039
169 0.002003
174 0.001967
176 0.00203
147 0.001996
67 0.002981
30 0.003055
35 0.002993
52 0.001975
81 0.001992
95 0.002971
96 0.001938
91 0.003025
92 0.002995
107 0.001959
124 0.002966
139 0.002997
151 0.003033
158 0.00399
167 0.002024
173 0.001996
180 0.001949
163 0.003017
87 0.002948
39 0.003959
35 0.004029
56 0.001988
76 0.002027
95 0.001994
107 0.002963
105 0.003989
100 0.001994
110 0.00399
127 0.003989
148 0.001994
158 0.002013
166 0.004023
172 0.004039
178 0.002004
184 0.002018
189 0.001995
190 0.002962
156 0.002994
62 0.002004
50 0.003026
77 0.00198
101 0.00194
121 0.001948
130 0.008031
124 0.00398
112 0.002067
118 0.002058
133 0.002041
148 0.004021
160 0.003026
171 0.002006
178 0.003982
185 0.001974
190 0.000998
190 0.002039
158 0.003981
81 0.003988
46 0.001983
58 0.001971
81 0.001996
106 0.003993
125 0.004004
131 0.001038
122 0.00399
125 0.0
138 0.001005
152 0.001002
163 0.004005
171 0.004038
178 0.000993
183 0.001986
187 0.000997
191 0.004982
192 0.004016
148 0.0
49 0.004987
37 0.0
55 0.0
76 0.0
96 0.004023
112 0.003994
118 0.0
115 0.001073
118 0.000997
130 0.004956
146 0.004962
164 0.000978
175 0.005021
182 0.001035
186 0.000997
191 0.002016
195 0.004024
192 0.004021
126 0.000954
64 0.001965
54 0.001948
73 0.005014
100 0.005024
130 0.001006
143 0.005021
139 0.001995
136 0.001994
142 0.002993
154 0.004982
166 0.004038
178 0.000986
184 0.0
189 0.000998
192 0.003998
195 0.004997
200 0.000976
182 0.005017
95 0.0
61 0.0
70 0.0
96 0.005017
121 0.005961
143 0.000985
146 0.0
138 0.00101
130 0.003977
134 0.004957
150 0.0
165 0.004939
173 0.0
179 0.0
184 0.0
188 0.004956
188 0.004987
150 0.0
78 0.0
46 0.001035
55 0.004029
81 0.004988
119 0.00503
131 0.005037
128 0.0
120 0.0
121 0.0
132 0.0
144 0.004991
154 0.004977
163 0.001994
168 0.003026
173 0.0
177 0.004986
155 0.0
77 0.004988
26 0.004987
28 0.002993
47 0.0
69 0.0
90 0.004987
102 0.004986
98 0.002001
93 0.002969
100 0.002962
112 0.005983
137 0.0
147 0.006013
155 0.006026
163 0.0
168 0.002983
172 0.003003
158 0.006018
88 0.005962
26 0.002979
27 0.002999
44 0.002985
64 0.005959
96 0.001001
100 0.005951
95 0.005994
96 0.0
109 0.0
126 0.0
141 0.005997
151 0.005972
160 0.000998
166 0.0
170 0.002967
175 0.005961
173 0.0
125 0.00598
56 0.005996
38 0.001977
56 0.000971
81 0.000999
103 0.004987
117 0.004996
115 0.002993
106 0.002994
106 0.002994
118 0.006021
143 0.0
154 0.005987
161 0.005942
170 0.002997
175 0.003028
180 0.002995
182 0.00497
163 0.005965
74 0.001991
46 0.001987
56 0.001989
80 0.005986
121 0.0
134 0.005988
129 0.00597
115 0.002998
118 0.002992
131 0.002001
143 0.005984
155 0.006981
164 0.001992
169 0.001987
175 0.002025
181 0.005985
170 0.002044
105 0.00603
48 0.005987
41 0.002992
61 0.001995
81 0.00298
101 0.006982
113 0.005985
108 0.003989
102 0.002992
107 0.0
121 0.005976
147 0.001969
156 0.005959
163 0.006999
169 0.001015
174 0.001996
179 0.001998
171 0.006967
110 0.006982
36 0.001995
31 0.0
48 0.002983
77 0.002962
93 0.002967
100 0.007032
96 0.005959
93 0.002007
101 0.002036
117 0.001972
136 0.006988
148 0.006989
159 0.001998
164 0.002984
169 0.0
176 0.0
171 0.001995
114 0.005982
47 0.006981
32 0.001979
46 0.002995
62 0.001986
74 0.001995
94 0.005023
94 0.002995
89 0.002993
91 0.00298
114 0.002973
132 0.001994
147 0.007013
158 0.00701
167 0.001994
173 0.002971
179 0.001968
183 0.00701
179 0.007003
98 0.001997
49 0.001994
43 0.001987
72 0.003035
93 0.002949
112 0.003025
118 0.007978
111 0.007019
103 0.003026
112 0.002
129 0.002996
145 0.006982
158 0.006982
170 0.003002
176 0.002993
186 0.002965
192 0.002971
189 0.002986
115 0.007962
73 0.007987
54 0.001997
69 0.002003
93 0.001995
118 0.006972
136 0.006988
133 0.002004
118 0.002966
119 0.002965
136 0.002004
153 0.003068
165 0.007967
174 0.007978
183 0.002985
189 0.001965
194 0.002992
192 0.00697
143 0.006974
58 0.002002
49 0.002992
74 0.002992
97 0.002989
118 0.003991
128 0.007957
117 0.006992
107 0.002963
112 0.003992
128 0.003007
151 0.007989
163 0.007991
174 0.003026
181 0.003028
190 0.002994
195 0.001998
187 0.001979
86 0.007979
51 0.007985
39 0.001996
51 0.002992
68 0.002992
86 0.007979
101 0.007978
105 0.002993
98 0.00301
102 0.002999
116 0.003016
135 0.003024
151 0.007977
162 0.007969
173 0.001945
181 0.002992
187 0.00298
191 0.007028
166 0.006981
62 0.002999
38 0.002985
52 0.003005
69 0.002981
86 0.003017
104 0.007978
110 0.007938
106 0.003011
108 0.002998
119 0.002981
142 0.007978
153 0.00795
169 0.002993
181 0.007945
187 0.003034
193 0.002996
198 0.002977
196 0.007977
118 0.007945
59 0.003001
50 0.003019
65 0.002992
95 0.007956
118 0.007972
133 0.00399
128 0.006982
122 0.00399
129 0.002993
144 0.003977
164 0.007974
172 0.007985
182 0.002979
188 0.001994
193 0.003026
199 0.007027
201 0.006981
177 0.003085
66 0.007032
57 0.00296
74 0.00296
99 0.002995
132 0.006974
145 0.006979
141 0.00299
129 0.003043
126 0.002963
140 0.007952
156 0.007067
169 0.00399
181 0.006982
186 0.003051
190 0.003977
195 0.004024
189 0.006981
125 0.006983
53 0.002993
36 0.002997
45 0.002993
71 0.006981
93 0.006958
111 0.003956
108 0.00698
100 0.00399
105 0.003957
120 0.002992
143 0.006982
156 0.006978
166 0.00399
174 0.0
180 0.001995
186 0.00399
179 0.006979
110 0.005984
36 0.007003
41 0.006981
58 0.00399
77 0.004986
96 0.003965
108 0.006988
104 0.007008
97 0.004986
101 0.00199
115 0.004011
139 0.007008
153 0.005988
167 0.006935
174 0.005985
181 0.004001
186 0.004021
179 0.003024
84 0.007013
41 0.006975
41 0.002989
58 0.002996
80 0.004
109 0.007
120 0.006009
113 0.005986
111 0.005971
119 0.00398
135 0.003954
156 0.004971
166 0.006949
174 0.006981
180 0.004022
185 0.002992
191 0.002992
194 0.007936
169 0.005978
56 0.005986
47 0.005948
62 0.00399
86 0.005
111 0.003983
132 0.005942
125 0.005988
111 0.003983
107 0.004998
116 0.003989
139 0.005963
157 0.003995
169 0.00597
175 0.005987
182 0.003991
188 0.005008
188 0.005002
120 0.006033
58 0.005984
46 0.003984
60 0.003988
84 0.004006
118 0.00602
134 0.005024
122 0.004948
112 0.006012
119 0.004941
135 0.00501
152 0.004981
168 0.005978
176 0.00599
183 0.005016
188 0.004961
194 0.004972
181 0.00501
74 0.004959
34 0.006023
40 0.005999
56 0.005979
73 0.004957
91 0.00399
98 0.005982
91 0.006032
87 0.003977
93 0.00398
116 0.004999
135 0.004979
155 0.005034
167 0.004992
175 0.004974
183 0.004958
188 0.005008
173 0.004979
71 0.006016
39 0.00603
46 0.004997
64 0.005008
81 0.004989
99 0.005023
108 0.003987
101 0.004976
101 0.004989
111 0.003921
134 0.00499
144 0.004989
160 0.005984
168 0.005993
175 0.004978
182 0.004959
190 0.004958
185 0.004986
92 0.003988
45 0.004986
52 0.004984
71 0.003991
92 0.004961
119 0.00497
125 0.005947
118 0.005938
111 0.004955
118 0.004991
140 0.004928
156 0.005018
173 0.004945
179 0.004966
183 0.004952
191 0.004957
195 0.004987
184 0.004957
113 0.004977
57 0.004987
52 0.005016
69 0.004972
93 0.00501
117 0.00501
128 0.004013
115 0.004995
109 0.004996
119 0.004993
144 0.00498
156 0.004967
173 0.005017
181 0.003995
186 0.003989
194 0.003975
198 0.004993
189 0.004949
70 0.00494
47 0.004934
52 0.004982
68 0.004969
92 0.004014
105 0.004986
114 0.004985
106 0.003989
100 0.003985
112 0.00399
130 0.003981
159 0.005008
168 0.004976
180 0.00501
188 0.005012
195 0.004994
193 0.004979
134 0.003971
64 0.003989
46 0.003966
52 0.004948
73 0.003982
88 0.00398
110 0.004958
106 0.004934
100 0.004959
104 0.004014
117 0.004983
143 0.00497
160 0.00509
172 0.00494
181 0.004964
188 0.004986
192 0.011938
198 0.002952
158 0.003927
77 0.003958
50 0.003989
54 0.003957
70 0.003029
95 0.002991
113 0.003962
119 0.003035
113 0.003043
105 0.003025
114 0.004011
132 0.004026
163 0.00399
175 0.004035
184 0.003032
190 0.00399
197 0.002984
204 0.00401
199 0.003014
139 0.002988
74 0.003
62 0.003988
81 0.002976
105 0.002991
142 0.00396
146 0.003985
133 0.002991
120 0.003946
125 0.003998
147 0.003982
164 0.002995
177 0.003993
185 0.003989
191 0.003983
202 0.003953
208 0.002991
179 0.003989
92 0.003972
57 0.003985
59 0.004032
77 0.004014
106 0.004043
128 0.003989
138 0.003985
133 0.003989
122 0.002992
127 0.002969
142 0.002992
170 0.003947
181 0.003958
189 0.003992
196 0.00396
202 0.003958
206 0.003977
184 0.003984
97 0.002978
53 0.002985
52 0.002992
77 0.002995
99 0.002993
133 0.002995
136 0.002987
127 0.003959
122 0.003996
129 0.003991
150 0.00398
165 0.003981
176 0.004003
185 0.002954
190 0.002996
197 0.002956
202 0.002962
200 0.003958
139 0.002947
64 0.003971
48 0.003956
62 0.00396
97 0.002975
122 0.003032
139 0.003972
138 0.00302
125 0.002989
119 0.003017
131 0.002985
159 0.002985
172 0.002994
182 0.003
188 0.002993
193 0.001998
202 0.002992
204 0.002992
180 0.002993
101 0.002992
63 0.002991
68 0.001996
115 0.002947
142 0.002021
160 0.001994
154 0.003005
141 0.002992
138 0.002992
147 0.002993
166 0.002968
177 0.002992
184 0.002988
189 0.002992
194 0.002992
200 0.002986
188 0.001989
88 0.001988
46 0.002965
48 0.003004
73 0.003037
