144 0.011
149 0.003974
123 0.003993
103 0.003998
104 0.003985
111 0.004007
118 0.004029
131 0.003989
137 0.004029
140 0.003041
147 0.00399
156 0.003008
168 0.002043
186 0.000997
190 0.0
158 0.000997
149 0.000906
154 0.000989
155 0.000998
159 0.000999
160 0.001998
156 0.001995
153 0.001993
158 0.002005
159 0.002993
158 0.002988
150 0.004975
152 0.006952
130 0.006953
89 0.006979
84 0.006977
87 0.00598
92 0.005978
103 0.005983
108 0.00597
109 0.004984
115 0.004987
116 0.00499
120 0.004987
123 0.005012
126 0.005016
136 0.00402
140 0.004987
109 0.004031
90 0.00402
101 0.002029
111 0.001995
124 0.000991
141 0.001
145 0.000984
151 0.000987
164 0.0
170 0.0
173 0.001029
177 0.000997
179 0.000997
180 0.001996
137 0.002993
109 0.003992
92 0.004953
88 0.005984
85 0.006935
89 0.007975
90 0.007979
91 0.007979
98 0.007012
106 0.006981
110 0.005982
110 0.00501
116 0.00501
125 0.001994
104 0.003026
64 0.001995
65 0.002043
71 0.003032
81 0.002041
93 0.0
102 0.0
103 0.000999
111 0.002993
123 0.005028
131 0.005018
142 0.005962
151 0.007035
150 0.006992
91 0.006978
86 0.006979
90 0.006977
98 0.006981
112 0.004987
116 0.004122
112 0.002992
115 0.001995
123 0.0
128 0.000998
136 0.0
150 0.0
129 0.000998
91 0.000998
75 0.001003
85 0.001995
92 0.002965
105 0.002992
108 0.002995
112 0.002993
118 0.002993
127 0.002992
136 0.002961
142 0.004004
149 0.004036
156 0.003956
90 0.005021
79 0.005042
87 0.004983
91 0.005036
105 0.004945
114 0.006019
114 0.007028
113 0.007013
127 0.007978
130 0.006981
142 0.005018
148 0.006015
160 0.005027
150 0.005992
77 0.003977
55 0.004021
67 0.003024
73 0.003003
86 0.000999
93 0.001006
92 0.000997
95 0.000998
105 0.000997
111 0.002992
127 0.00296
141 0.005025
148 0.005024
94 0.004991
51 0.005022
55 0.005986
64 0.005985
73 0.005989
92 0.005986
90 0.006017
91 0.007014
96 0.007017
113 0.007982
121 0.00502
134 0.004023
145 0.004002
108 0.003003
48 0.0
46 0.003992
50 0.002992
61 0.000998
80 0.0
88 0.0
88 0.000997
95 0.000998
107 0.00087
123 0.002994
128 0.003021
119 0.003992
40 0.004035
28 0.004986
33 0.005987
40 0.006978
51 0.006983
60 0.007018
59 0.007032
60 0.006982
76 0.007014
85 0.006014
97 0.004988
117 0.001993
122 0.003018
44 0.002021
13 0.001994
9 0.002042
7 0.002035
24 0.001029
33 0.000997
41 0.0012
47 0.001035
61 0.001994
76 0.002
90 0.001051
101 0.002029
115 0.000999
67 0.000997
10 0.000998
7 0.000963
7 0.003036
13 0.003989
25 0.003997
31 0.003987
37 0.003988
46 0.004013
65 0.003992
74 0.00397
94 0.004014
109 0.003999
118 0.003952
107 0.00598
39 0.005992
32 0.00698
40 0.007019
45 0.007023
64 0.006986
66 0.005994
68 0.00602
84 0.004984
97 0.004986
109 0.003028
116 0.003036
128 0.002993
138 0.003025
156 0.003036
140 0.00304
71 0.001966
63 0.0
65 0.000997
73 0.0
92 0.001995
99 0.001872
105 0.002003
113 0.001996
119 0.001995
128 0.002007
137 0.001995
153 0.002
170 0.001995
152 0.001995
85 0.001998
82 0.002994
88 0.004035
95 0.005021
107 0.004944
113 0.00698
113 0.007924
117 0.007014
129 0.007017
142 0.004078
152 0.005027
167 0.003991
174 0.004026
143 0.002992
94 0.002034
98 0.00103
103 0.001057
116 0.0
134 0.0
141 0.000998
142 0.000998
141 0.00197
151 0.002995
174 0.002991
186 0.002859
190 0.00296
160 0.002993
113 0.003052
106 0.002997
112 0.004029
113 0.005017
129 0.004937
134 0.004986
131 0.004987
136 0.006981
143 0.006981
152 0.007022
158 0.006977
166 0.006033
161 0.005
96 0.004969
81 0.004981
79 0.003024
77 0.003989
81 0.002033
88 0.001028
92 0.000997
99 0.000998
111 0.001008
123 0.001982
131 0.001995
141 0.001995
151 0.001996
157 0.001992
96 0.001997
77 0.001995
69 0.002
66 0.001995
68 0.002994
74 0.002958
79 0.00296
79 0.003005
83 0.002962
98 0.004983
110 0.005989
118 0.00602
132 0.006981
134 0.006981
107 0.007022
54 0.006984
46 0.007022
44 0.005029
52 0.004986
64 0.004974
67 0.005937
68 0.00498
72 0.002999
84 0.000969
94 0.0
111 0.0
119 0.000998
130 0.002963
92 0.003998
59 0.003995
47 0.003989
50 0.004939
52 0.010939
74 0.007002
75 0.007923
77 0.006991
94 0.006987
107 0.007018
118 0.007891
130 0.004986
135 0.003991
151 0.003989
158 0.002028
121 0.002994
83 0.001996
78 0.002036
77 0.002026
82 0.002004
91 0.00098
99 0.001027
103 0.0
108 0.0
120 0.0
130 0.0
135 0.0
151 0.000999
162 0.002993
148 0.003983
88 0.004955
86 0.005028
92 0.004953
93 0.006025
106 0.005972
112 0.00602
117 0.005982
118 0.005977
131 0.006025
137 0.006026
145 0.007855
148 0.00602
156 0.006021
165 0.005992
136 0.005017
99 0.005026
93 0.005022
103 0.003111
106 0.002994
117 0.002029
123 0.002998
122 0.001013
126 0.000998
134 0.001011
148 0.000994
158 0.000995
162 0.001952
171 0.00399
174 0.005011
128 0.005041
96 0.007015
98 0.007014
102 0.005973
108 0.004983
123 0.002031
128 0.002031
130 0.001055
133 0.000992
140 0.0
143 0.000997
153 0.002031
163 0.002957
169 0.002992
137 0.003033
97 0.002956
90 0.003063
93 0.002983
92 0.005037
104 0.005033
108 0.006974
107 0.005964
112 0.005014
123 0.004973
128 0.004978
140 0.005002
149 0.00401
154 0.004987
123 0.002995
78 0.002028
80 0.002042
84 0.001966
85 0.002014
93 0.002041
105 0.001061
108 0.001028
118 0.001007
128 0.000998
143 0.001034
157 0.001998
164 0.001985
174 0.002025
111 0.0
77 0.000996
78 0.0
85 0.001
85 0.001962
101 0.002027
104 0.001993
111 0.001872
121 0.003039
130 0.002995
143 0.005019
161 0.007014
169 0.006983
157 0.007021
102 0.007942
69 0.006946
64 0.005014
65 0.00502
70 0.004986
80 0.006018
86 0.003032
92 0.004029
108 0.003989
118 0.003008
132 0.002213
144 0.001029
135 0.001023
74 0.0
49 0.0
51 0.0
50 0.0
57 0.000968
72 0.001991
74 0.003026
76 0.004028
92 0.003995
106 0.005037
117 0.003892
130 0.004026
121 0.00396
44 0.006014
25 0.007017
23 0.006984
23 0.006976
35 0.006978
49 0.005968
57 0.005988
62 0.005019
71 0.005019
88 0.004987
102 0.004002
111 0.003997
120 0.000952
71 0.001034
27 0.0
15 0.000968
8 0.000991
10 0.001039
26 0.001002
33 0.000998
36 0.000997
53 0.000975
60 0.001958
77 0.004006
88 0.005023
95 0.005021
118 0.004986
119 0.004987
45 0.004977
24 0.00504
22 0.004883
19 0.00502
30 0.006044
44 0.006032
51 0.007013
55 0.006973
72 0.007018
86 0.007066
90 0.00798
102 0.005994
118 0.006029
128 0.00602
134 0.005986
90 0.006014
47 0.005991
48 0.006013
46 0.006008
54 0.006032
69 0.006028
79 0.005984
90 0.005019
99 0.003992
117 0.003986
129 0.001979
145 0.002184
154 0.0
163 0.001992
139 0.002
88 0.002027
89 0.002961
88 0.002957
97 0.003991
109 0.00399
115 0.004008
116 0.004
127 0.004027
140 0.00399
152 0.005019
164 0.005016
173 0.006017
174 0.007972
120 0.006025
84 0.006981
83 0.005914
88 0.006984
107 0.006981
122 0.005985
131 0.004946
134 0.003002
150 0.004103
167 0.002971
177 0.001028
185 0.001006
195 0.00101
158 0.0
116 0.0
108 0.0
112 0.000992
110 0.001955
125 0.00304
134 0.003958
135 0.004007
144 0.005042
152 0.005027
165 0.004987
173 0.004885
186 0.005018
198 0.004986
173 0.007014
130 0.007027
113 0.007054
115 0.006986
113 0.007927
131 0.00798
139 0.007947
144 0.00707
150 0.006016
155 0.006031
169 0.00598
180 0.005961
195 0.003996
208 0.002989
217 0.001009
209 0.0
146 0.000997
125 0.0
129 0.000986
129 0.0
137 0.000997
150 0.0
154 0.000967
159 0.000999
167 0.001961
180 0.002992
190 0.002958
199 0.003009
209 0.002995
215 0.003029
159 0.003901
135 0.005019
137 0.004986
141 0.004985
146 0.005019
164 0.006981
166 0.007025
172 0.007019
186 0.007015
194 0.007035
207 0.006982
214 0.006981
223 0.005984
218 0.006984
163 0.006016
130 0.007023
138 0.005986
140 0.005983
152 0.006017
161 0.005022
163 0.003022
164 0.003016
171 0.003027
185 0.002032
197 0.00198
202 0.002178
189 0.002036
147 0.001999
109 0.001987
107 0.002992
109 0.000989
119 0.000998
134 0.001039
132 0.001997
137 0.002993
149 0.004021
157 0.004002
169 0.004049
181 0.003957
167 0.00396
91 0.004081
76 0.004023
78 0.003957
86 0.005985
96 0.006982
111 0.007015
112 0.004954
117 0.002925
131 0.002992
146 0.002992
156 0.002955
172 0.002992
152 0.003031
93 0.000994
75 0.002041
76 0.000988
75 0.001032
88 0.000968
97 0.0
99 0.001031
107 0.001996
118 0.001995
132 0.001999
138 0.001998
145 0.001942
154 0.002031
142 0.001996
70 0.001998
62 0.002031
62 0.002994
65 0.001985
74 0.002992
90 0.002991
95 0.002961
102 0.004981
115 0.004985
132 0.006961
140 0.006951
152 0.006949
137 0.006996
86 0.005984
75 0.007015
77 0.005984
76 0.00602
95 0.004984
101 0.005983
98 0.003991
108 0.001019
117 0.0
124 0.0
138 0.0
146 0.0
154 0.0
93 0.001006
73 0.001994
83 0.000998
94 0.001005
108 0.000997
127 0.000997
129 0.001907
136 0.002035
147 0.001999
155 0.001994
171 0.00199
180 0.002034
194 0.002028
192 0.001987
141 0.002008
112 0.002029
114 0.003955
111 0.004023
124 0.004027
128 0.010006
138 0.004023
143 0.004979
150 0.00396
157 0.005026
169 0.006876
175 0.006978
188 0.006982
176 0.007004
112 0.007079
105 0.007937
109 0.005985
115 0.005985
137 0.004955
147 0.004957
153 0.003987
166 0.003035
176 0.003041
192 0.001997
199 0.003045
214 0.001987
221 0.001994
209 0.002028
142 0.002033
127 0.0
130 0.000998
130 0.000998
146 0.003044
154 0.003025
158 0.00502
160 0.006983
169 0.00699
173 0.007028
177 0.004987
183 0.00402
189 0.004988
194 0.003991
165 0.003985
114 0.004025
112 0.002003
114 0.002025
122 0.001033
138 0.001039
144 0.0
143 0.0
148 0.0
159 0.0
170 0.0
172 0.0
177 0.000997
183 0.000998
195 0.001006
171 0.000998
123 0.001011
106 0.003016
114 0.004025
115 0.003991
130 0.004026
137 0.004962
140 0.00595
143 0.006024
153 0.006013
167 0.005986
175 0.006027
182 0.006027
191 0.007978
199 0.006025
164 0.007014
113 0.006024
118 0.006953
119 0.006022
124 0.006025
134 0.005976
138 0.006016
141 0.005009
148 0.004008
158 0.004007
166 0.003982
170 0.004004
181 0.004994
192 0.003023
159 0.003003
104 0.002995
99 0.001991
103 0.0
104 0.001006
114 0.000866
123 0.001027
125 0.000997
136 0.000997
145 0.001033
147 0.00196
153 0.00203
162 0.002025
161 0.002027
97 0.002002
76 0.002996
73 0.005023
72 0.005977
80 0.005983
92 0.006017
94 0.005981
99 0.006983
109 0.006981
124 0.007019
131 0.007003
146 0.00703
155 0.007021
155 0.006978
84 0.004996
67 0.004988
60 0.004112
60 0.004024
66 0.004021
78 0.00404
79 0.004036
84 0.001045
96 0.002031
103 0.001032
118 0.000988
130 0.001996
145 0.001011
135 0.002025
78 0.000997
59 0.002027
65 0.001995
63 0.001997
75 0.003023
89 0.0
87 0.0
91 0.001048
98 0.002027
104 0.002983
109 0.003055
112 0.003066
121 0.002953
123 0.005032
81 0.005021
30 0.004988
28 0.004987
27 0.005026
27 0.005985
31 0.006034
31 0.006979
19 0.004987
3 0.005986
0 0.005029
0 0.006024
0 0.004023
0 0.005985
0 0.006019
0 0.006033
0 0.005021
0 0.003026
0 0.001995
0 0.000963
0 0.0
0 0.000997
0 0.002018
0 0.003039
2 0.002985
26 0.003026
41 0.002992
72 0.003959
105 0.004029
132 0.005023
106 0.005979
78 0.007015
84 0.006992
96 0.005973
104 0.007015
125 0.005982
138 0.007015
146 0.00596
159 0.005984
176 0.004024
187 0.005101
198 0.000998
215 0.0
224 0.000998
231 0.000997
190 0.000997
146 0.002029
128 0.004016
127 0.003028
127 0.002992
141 0.002957
146 0.004041
144 0.00399
149 0.004042
155 0.006016
165 0.005984
169 0.006024
173 0.007
179 0.006991
191 0.006831
189 0.006977
114 0.007015
85 0.006019
81 0.007015
73 0.00402
79 0.004034
92 0.004025
95 0.003026
94 0.003
105 0.003025
119 0.002981
129 0.002976
140 0.002033
147 0.001995
154 0.001217
158 0.002032
119 0.000998
67 0.000998
65 0.001007
67 0.000825
70 0.000997
82 0.000998
89 0.000966
91 0.001019
95 0.000964
108 0.000998
124 0.002962
134 0.003952
145 0.004947
160 0.004002
161 0.004991
89 0.004986
64 0.006011
66 0.00698
60 0.006974
67 0.006039
76 0.00599
86 0.006008
87 0.006029
99 0.00602
110 0.006974
118 0.003018
127 0.005036
139 0.00402
143 0.004034
73 0.003989
41 0.002992
41 0.003029
39 0.002029
45 0.003029
60 0.002034
66 0.001041
70 0.001163
83 0.0
92 0.0
103 0.0
113 0.0
122 0.000997
137 0.002008
98 0.001991
53 0.001996
36 0.002967
32 0.003999
34 0.003953
49 0.00496
58 0.004955
63 0.005001
70 0.004949
82 0.004982
96 0.005022
108 0.004994
116 0.005986
128 0.007029
141 0.006001
121 0.004974
44 0.003965
34 0.003997
34 0.004027
35 0.002028
44 0.001995
53 0.000943
53 0.0
64 0.000998
73 0.001995
83 0.003035
93 0.004995
103 0.005024
117 0.005986
131 0.00583
97 0.006027
27 0.00602
24 0.005984
29 0.006965
36 0.007017
46 0.006036
62 0.004978
66 0.005031
71 0.004986
88 0.003991
104 0.001946
112 0.001056
126 0.0
143 0.0
154 0.0
105 0.000999
53 0.001996
52 0.003025
54 0.003002
56 0.005023
70 0.005977
75 0.006018
76 0.006989
83 0.007974
102 0.005979
117 0.004948
129 0.005013
141 0.00399
152 0.005037
123 0.00399
55 0.003969
48 0.001996
49 0.002023
51 0.000943
60 0.0
69 0.0
71 0.0
83 0.0
96 0.0
104 0.000969
122 0.000997
137 0.000986
149 0.001
87 0.001995
42 0.002988
38 0.002984
36 0.002961
39 0.002989
55 0.003014
64 0.002951
66 0.003988
74 0.004025
85 0.004019
104 0.003989
124 0.003991
135 0.00399
143 0.004061
56 0.004988
31 0.004986
25 0.004946
24 0.004981
30 0.004895
49 0.004971
49 0.004984
54 0.005028
64 0.005038
80 0.005993
100 0.00595
110 0.006037
126 0.006018
137 0.00603
120 0.005983
33 0.006028
23 0.007081
21 0.007015
24 0.004973
35 0.00398
50 0.003024
54 0.002989
59 0.00199
78 0.0
97 0.002003
106 0.0
122 0.0
137 0.001003
147 0.001995
121 0.003002
49 0.002992
28 0.004002
28 0.00502
28 0.004985
39 0.004946
53 0.007019
56 0.007014
68 0.006976
83 0.006996
93 0.007014
109 0.004986
135 0.004985
146 0.005015
165 0.004995
133 0.003964
74 0.002993
39 0.002983
39 0.003025
41 0.001046
54 0.001963
72 0.001007
76 0.002989
86 0.002975
99 0.003958
115 0.004974
132 0.005038
148 0.005019
164 0.004991
168 0.005018
114 0.005039
51 0.005009
49 0.005979
50 0.005988
60 0.006015
73 0.006017
85 0.006997
88 0.007025
99 0.007013
124 0.006981
137 0.007015
151 0.005984
172 0.005984
182 0.005976
148 0.004987
72 0.007013
48 0.004985
49 0.006982
46 0.00398
59 0.003994
79 0.004023
81 0.002992
88 0.001998
108 0.0
127 0.000991
137 0.002027
158 0.003031
178 0.002993
178 0.002992
86 0.003938
49 0.002957
42 0.002839
43 0.005017
50 0.006013
71 0.005984
72 0.007039
74 0.006955
85 0.006949
96 0.005974
108 0.005037
123 0.004019
146 0.003001
155 0.003989
110 0.002167
48 0.004021
11 0.003022
2 0.001993
1 0.001999
19 0.002004
28 0.001992
31 0.000994
40 0.000995
54 0.001039
75 0.000997
94 0.002007
114 0.000986
130 0.001995
96 0.001031
24 0.0
0 0.0
0 0.0
0 0.000997
19 0.001999
33 0.001997
41 0.001995
56 0.001998
70 0.001967
95 0.002038
111 0.001968
137 0.004025
146 0.004986
97 0.005008
29 0.005994
15 0.005986
16 0.00598
21 0.004946
51 0.004001
60 0.004007
68 0.003986
85 0.004019
103 0.003022
122 0.004008
140 0.003012
160 0.00402
157 0.004037
97 0.002992
30 0.00203
25 0.000997
22 0.00102
36 0.0
60 0.001964
65 0.002003
78 0.00203
90 0.001981
112 0.004004
138 0.004023
153 0.004026
178 0.003992
155 0.003981
92 0.003958
43 0.006015
34 0.006978
30 0.005989
47 0.004023
68 0.004987
79 0.004001
90 0.004988
107 0.004007
127 0.004982
151 0.004987
165 0.005052
184 0.003989
191 0.001016
134 0.002048
56 0.000953
49 0.001992
47 0.0
50 0.0
66 0.0
76 0.0
83 0.000998
94 0.001964
117 0.001997
148 0.001965
166 0.001995
189 0.001962
190 0.002998
105 0.003996
71 0.005015
71 0.006022
81 0.005945
106 0.006032
126 0.006017
134 0.006991
150 0.005971
161 0.005956
184 0.005018
205 0.001997
216 0.00198
224 0.000993
157 0.0
111 0.000997
88 0.000963
91 0.001996
102 0.002999
126 0.002992
138 0.003994
142 0.004995
159 0.005025
179 0.004983
202 0.004987
223 0.005022
231 0.006025
173 0.006014
108 0.006019
106 0.006052
108 0.006015
118 0.006018
148 0.007978
161 0.005984
164 0.005988
182 0.003988
198 0.000991
215 0.0
228 0.0
245 0.0
248 0.0
156 0.0
117 0.001035
114 0.000998
115 0.001985
128 0.0
149 0.002059
151 0.002024
155 0.002002
178 0.0
194 0.000996
209 0.001965
226 0.001995
239 0.001996
242 0.004021
150 0.004018
121 0.004014
115 0.004023
117 0.003991
132 0.004023
153 0.00399
158 0.004037
167 0.004023
188 0.004022
200 0.005031
218 0.005027
238 0.005972
196 0.007038
191 0.006974
160 0.006988
132 0.006976
132 0.006947
133 0.006023
138 0.005027
152 0.003988
154 0.003049
157 0.00301
167 0.001049
172 0.002006
178 0.001032
188 0.002006
194 0.001957
203 0.002981
166 0.002955
143 0.002959
137 0.002995
138 0.00399
141 0.005082
153 0.006981
156 0.007065
154 0.007037
164 0.006016
170 0.006001
175 0.004021
187 0.003989
194 0.001996
196 0.001998
154 0.002994
134 0.000999
134 0.001038
135 0.000991
142 0.00094
155 0.001001
158 0.002956
160 0.002977
169 0.005037
179 0.005021
184 0.005023
195 0.004987
202 0.006961
183 0.006981
147 0.004994
136 0.006986
136 0.003015
135 0.004036
145 0.004024
151 0.004029
170 0.003999
174 0.003955
186 0.003958
207 0.002032
219 0.003954
233 0.003026
229 0.00399
153 0.002054
120 0.001027
121 0.002026
115 0.002063
139 0.0
147 0.0
149 0.000998
162 0.001941
175 0.001989
187 0.003991
206 0.004043
215 0.007021
200 0.007018
130 0.006996
109 0.00698
107 0.007015
107 0.006939
114 0.006976
134 0.006982
141 0.006981
146 0.007029
161 0.005969
171 0.006071
189 0.004031
202 0.002988
192 0.002965
116 0.001974
99 0.001986
96 0.0
99 0.0
113 0.0
122 0.0
125 0.0
134 0.0
150 0.000997
168 0.002045
178 0.002992
183 0.004028
128 0.004053
88 0.004032
85 0.00503
87 0.007023
94 0.006981
113 0.007017
116 0.007023
122 0.006983
130 0.006985
142 0.007978
160 0.006017
176 0.003973
178 0.003989
113 0.002987
70 0.001953
73 0.001956
72 0.0
84 0.000985
98 0.0
103 0.001007
113 0.001995
123 0.004045
144 0.004988
158 0.005983
177 0.006986
185 0.00795
142 0.005944
104 0.005039
97 0.004987
100 0.00295
108 0.004025
130 0.00199
139 0.003994
146 0.002023
160 0.00205
172 0.002033
190 0.0
203 0.0
210 0.000969
186 0.000997
114 0.002041
104 0.0
100 0.000962
103 0.000994
122 0.000998
137 0.000975
142 0.001019
149 0.000997
162 0.000998
174 0.001003
186 0.001995
197 0.003019
205 0.004029
210 0.006022
167 0.005987
116 0.00702
101 0.007016
96 0.005038
99 0.003944
118 0.003991
122 0.002995
127 0.00304
138 0.00298
152 0.000986
163 0.002992
178 0.002991
185 0.001986
197 0.0
205 0.002041
201 0.001034
138 0.001045
101 0.001
93 0.00304
87 0.003024
95 0.003045
116 0.003027
122 0.00403
128 0.004988
140 0.004953
151 0.004956
169 0.004984
179 0.004987
183 0.00602
194 0.006997
200 0.006981
161 0.006947
107 0.006986
100 0.006971
102 0.00594
107 0.005984
123 0.004989
132 0.006028
134 0.005984
139 0.005984
154 0.005971
161 0.005976
178 0.00399
188 0.002035
194 0.0
164 0.00097
100 0.001035
97 0.0
104 0.0
114 0.0
125 0.0
131 0.0
130 0.000961
142 0.0
158 0.0
168 0.0
180 0.001995
194 0.002027
190 0.002015
115 0.00299
91 0.003023
94 0.003862
96 0.00399
105 0.003989
119 0.003995
125 0.003959
129 0.003989
140 0.003996
149 0.003991
163 0.005988
175 0.006021
183 0.007028
161 0.005953
85 0.004989
73 0.00499
75 0.004002
80 0.003025
93 0.001964
105 0.002039
110 0.00199
119 0.002033
134 0.001996
151 0.002046
160 0.002031
174 0.000995
180 0.000963
126 0.001031
74 0.000999
59 0.002001
54 0.0
56 0.0
71 0.0
79 0.0
80 0.0
88 0.0
105 0.0
119 0.0
138 0.002026
149 0.001996
156 0.005028
104 0.004972
48 0.00499
24 0.00598
28 0.007015
31 0.006987
49 0.006977
59 0.007979
63 0.007979
60 0.007977
69 0.006097
72 0.006981
87 0.005979
96 0.007014
112 0.004988
53 0.005982
7 0.004946
0 0.002992
0 0.002025
1 0.002051
24 0.000997
27 0.002993
32 0.0
49 0.002033
70 0.0
88 0.002043
108 0.0
119 0.000997
78 0.001967
21 0.00203
1 0.002029
0 0.004033
7 0.004023
20 0.004021
32 0.005996
37 0.005984
47 0.007984
58 0.005961
76 0.004981
90 0.00399
107 0.003954
57 0.002035
8 0.002005
51 0.0
48 0.0
49 0.0
61 0.0
69 0.0
73 0.002027
77 0.001992
83 0.002984
94 0.003005
103 0.002992
112 0.00399
119 0.003003
92 0.003009
63 0.002993
55 0.002988
53 0.002994
57 0.004038
70 0.006028
73 0.00603
75 0.004986
79 0.005977
89 0.00601
96 0.005975
101 0.005983
111 0.006036
114 0.005979
96 0.00602
48 0.004956
36 0.005021
35 0.002994
35 0.004008
47 0.003023
51 0.002026
59 0.001997
64 0.002994
78 0.002032
90 0.001999
98 0.0
107 0.0
112 0.000973
99 0.0
53 0.001957
42 0.000977
38 0.0
39 0.002991
44 0.000949
54 0.0
61 0.002012
66 0.002958
81 0.002996
75 0.002854
104 0.00396
125 0.00502
135 0.00504
99 0.006983
74 0.006982
79 0.006954
92 0.007014
109 0.006982
126 0.007014
139 0.003985
147 0.003977
158 0.003983
176 0.003989
196 0.00199
207 0.001997
222 0.002956
210 0.00199
146 0.000986
129 0.003023
124 0.001981
126 0.002993
137 0.000997
150 0.003037
151 0.002997
154 0.001033
167 0.000968
179 0.000967
193 0.000968
203 0.000953
216 0.001996
208 0.001995
140 0.003999
118 0.005018
116 0.005982
113 0.007013
128 0.005982
138 0.00498
140 0.002001
151 0.002995
162 0.002001
176 0.0
187 0.001031
199 0.000983
210 0.0
213 0.000999
174 0.001995
119 0.001995
113 0.003
106 0.003014
110 0.003026
120 0.003044
128 0.003033
130 0.002967
136 0.002991
146 0.003956
154 0.002946
166 0.005953
179 0.006065
189 0.006938
166 0.005952
100 0.00499
95 0.004983
96 0.00499
107 0.004983
118 0.004991
128 0.004115
129 0.003984
140 0.003025
153 0.00396
166 0.002035
171 0.002053
183 0.002041
180 0.002032
121 0.000988
104 0.000998
105 0.002027
111 0.002961
126 0.00403
131 0.005017
139 0.004978
148 0.004988
160 0.005003
173 0.006979
195 0.00696
203 0.006979
169 0.006976
128 0.006026
121 0.004959
123 0.002986
134 0.00211
145 0.001005
154 0.0
154 0.0
154 0.0
158 0.0
163 0.001021
174 0.000965
180 0.000874
149 0.000997
94 0.001002
89 0.002002
90 0.003031
102 0.003948
112 0.004005
122 0.003949
127 0.004024
135 0.00404
151 0.00496
169 0.005018
177 0.004968
172 0.005016
131 0.005018
92 0.004936
91 0.005022
92 0.006028
105 0.007979
116 0.007948
118 0.005988
122 0.005022
136 0.001993
143 0.004023
159 0.002121
170 0.002014
161 0.00199
97 0.001955
84 0.0
86 0.0
91 0.000943
102 0.0
112 0.0
115 0.000955
122 0.0
135 0.0
151 0.001996
160 0.002992
174 0.002985
145 0.005019
94 0.005025
82 0.007016
86 0.007016
88 0.006037
100 0.005986
111 0.002999
114 0.004021
124 0.001997
131 0.003989
146 0.002028
160 0.002024
168 0.000992
136 0.0
86 0.0
83 0.0
87 0.000966
92 0.0
108 0.0
117 0.001027
121 0.000999
132 0.001015
147 0.001995
156 0.003025
173 0.002999
183 0.002994
156 0.003025
108 0.004978
99 0.005983
100 0.006982
109 0.006981
124 0.006001
132 0.006035
134 0.005004
139 0.005975
140 0.004018
149 0.00299
158 0.002998
171 0.001986
150 0.003989
105 0.002
93 0.004024
100 0.001988
108 0.004041
126 0.003983
134 0.002986
133 0.003024
142 0.0
151 0.001979
172 0.0
182 0.001993
173 0.0
120 0.0
113 0.0
115 0.0
125 0.0
134 0.0
147 0.000997
150 0.002954
154 0.004878
171 0.005978
182 0.006972
188 0.006012
182 0.005936
134 0.006983
109 0.005985
107 0.005026
108 0.003993
116 0.003033
129 0.002991
133 0.002993
138 0.002993
149 0.001991
156 0.002989
170 0.000995
176 0.0
144 0.0
104 0.000107
96 0.0
101 0.0
112 0.0
122 0.001006
130 0.001995
137 0.002992
143 0.003957
155 0.00402
170 0.003949
178 0.003944
163 0.004034
127 0.002974
105 0.005043
106 0.005941
109 0.005824
122 0.00794
132 0.007021
134 0.006038
142 0.005987
154 0.002977
163 0.003974
178 0.001967
187 0.000997
166 0.0
120 0.0
109 0.0
112 0.000986
115 0.000977
128 0.000964
141 0.000953
146 0.000997
154 0.001995
172 0.002992
185 0.003031
197 0.003023
209 0.002992
180 0.002993
118 0.003985
119 0.005005
123 0.005021
132 0.005022
150 0.004951
155 0.004996
155 0.004996
162 0.005019
175 0.005
194 0.005958
205 0.006045
170 0.005981
115 0.007021
112 0.005983
123 0.005991
139 0.006008
161 0.005986
165 0.005985
167 0.005984
178 0.005986
198 0.008013
206 0.007015
219 0.004973
187 0.004982
128 0.004987
132 0.002933
135 0.005019
147 0.003022
158 0.002991
158 0.002991
162 0.001964
176 0.001994
186 0.0
200 0.000967
200 0.000976
135 0.0
107 0.001997
107 0.001996
113 0.002992
136 0.004989
142 0.004987
146 0.004991
158 0.004887
171 0.006015
185 0.006984
202 0.007015
197 0.007014
124 0.007991
104 0.007983
102 0.007978
102 0.00698
117 0.007959
127 0.005953
129 0.007963
138 0.005996
147 0.003996
154 0.003995
166 0.003976
176 0.00398
169 0.002987
93 0.002008
75 0.002993
73 0.002
73 0.003001
94 0.000998
103 0.0
104 0.000879
117 0.001995
129 0.001996
139 0.002042
153 0.001945
160 0.003011
147 0.003961
96 0.00395
61 0.004951
63 0.005985
69 0.00698
91 0.006981
100 0.005983
105 0.005982
115 0.005984
124 0.005948
140 0.005937
158 0.005982
166 0.005018
183 0.002997
151 0.007012
96 0.005011
85 0.006984
94 0.003983
96 0.004991
116 0.004987
125 0.004986
125 0.004022
136 0.002993
148 0.003989
161 0.000978
170 0.002997
183 0.00095
155 0.0
112 0.0
93 0.000992
100 0.000997
105 0.0
120 0.001031
132 0.001996
131 0.001994
143 0.003999
159 0.005997
168 0.006983
179 0.005983
191 0.007949
181 0.00597
112 0.007976
99 0.007974
97 0.006999
102 0.005979
113 0.006946
129 0.002992
131 0.001998
136 0.001994
152 0.0
164 0.0
172 0.0
186 0.0
166 0.00096
118 0.002035
93 0.001997
93 0.000997
96 0.000987
110 0.001016
119 0.001001
128 0.002969
133 0.002992
143 0.003945
152 0.00487
168 0.005986
178 0.005985
183 0.006026
149 0.006024
94 0.007979
88 0.006001
89 0.007983
94 0.005977
110 0.005983
113 0.005982
115 0.004973
124 0.004971
137 0.003002
148 0.001978
159 0.002001
165 0.001995
171 0.0
99 0.000998
73 0.000998
68 0.001001
68 0.001996
78 0.004004
91 0.003024
94 0.002993
97 0.004034
112 0.004045
124 0.003992
138 0.005985
152 0.005969
163 0.007973
172 0.00599
112 0.00497
79 0.003992
72 0.00399
73 0.002017
77 0.000965
91 0.000989
95 0.0
98 0.001026
109 0.002004
126 0.001961
135 0.001994
151 0.002995
161 0.003979
149 0.005035
87 0.007037
62 0.006995
70 0.007948
75 0.005999
93 0.002989
96 0.00497
101 0.003004
107 0.0
115 0.0
128 0.0
131 0.000999
149 0.0
147 0.0
107 0.001996
57 0.001986
58 0.002991
64 0.002958
83 0.003991
99 0.004975
104 0.006028
109 0.006015
124 0.005985
131 0.005021
146 0.007978
162 0.005029
170 0.006971
121 0.006981
81 0.007022
71 0.005975
73 0.005164
79 0.005021
94 0.004979
100 0.004986
100 0.003972
115 0.004982
128 0.005003
144 0.003023
153 0.006009
164 0.003955
167 0.003987
88 0.002993
62 0.002031
58 0.0
61 0.000819
76 0.00102
83 0.002993
87 0.002992
90 0.003031
106 0.002992
117 0.002992
134 0.002959
148 0.002949
158 0.002994
135 0.003034
82 0.003031
48 0.004989
55 0.005945
56 0.005984
77 0.00595
88 0.006987
90 0.005984
98 0.006025
118 0.007947
126 0.006021
135 0.005974
148 0.003985
160 0.005958
123 0.00399
77 0.004139
63 0.004021
70 0.00199
78 0.003989
97 0.002006
100 0.002989
105 0.001029
119 0.001932
130 0.00196
143 0.002
157 0.000948
166 0.0
172 0.000997
98 0.002017
68 0.002987
69 0.003948
73 0.003949
82 0.003959
96 0.00398
98 0.006031
104 0.005984
115 0.005942
129 0.005944
139 0.006018
148 0.005977
157 0.006981
134 0.007978
76 0.007979
41 0.007946
49 0.005004
54 0.001995
68 0.001995
72 0.001976
72 0.0
78 0.0
95 0.0
107 0.0
122 0.001995
136 0.00296
121 0.002985
46 0.004056
34 0.005979
36 0.005987
46 0.00603
61 0.005982
70 0.005981
72 0.007954
81 0.007952
93 0.007962
111 0.007163
122 0.007013
139 0.005997
110 0.003984
60 0.005981
30 0.004003
32 0.004006
33 0.003981
55 0.003019
65 0.004004
69 0.00198
75 0.003989
93 0.0
105 0.00204
123 0.001995
134 0.0
131 0.002031
62 0.002979
27 0.002953
23 0.003887
21 0.004986
33 0.003963
51 0.003991
56 0.004982
60 0.004987
78 0.005026
89 0.004988
108 0.004941
126 0.004988
137 0.004987
102 0.004954
48 0.004957
17 0.004977
14 0.005029
16 0.005985
33 0.005984
39 0.005986
39 0.006002
48 0.006023
58 0.006011
66 0.007948
82 0.007979
91 0.006975
105 0.005999
74 0.004025
20 0.005984
0 0.003947
0 0.006112
0 0.003988
4 0.003988
10 0.002954
11 0.002001
22 0.001993
30 0.0
43 0.00095
55 0.00203
65 0.0
76 0.002007
28 0.0
0 0.002028
0 0.003042
0 0.002027
0 0.0
4 0.0
15 0.0
14 0.0
22 0.000997
34 0.0
48 0.0
60 0.001995
71 0.00399
8 0.003812
50 0.00399
49 0.003991
52 0.004954
61 0.005037
69 0.005988
74 0.005984
81 0.005988
95 0.005985
105 0.005984
121 0.00603
128 0.005945
124 0.005984
97 0.005971
95 0.005979
105 0.005992
114 0.007021
123 0.007017
135 0.006029
136 0.006016
140 0.005976
151 0.004998
156 0.006035
169 0.003991
173 0.005984
175 0.001998
137 0.001994
125 0.001986
125 0.002953
129 0.002007
137 0.000961
142 0.0
143 0.002009
145 0.00103
152 0.002012
156 0.0
163 0.0
170 0.0
172 0.000998
170 0.001992
129 0.001994
116 0.001957
117 0.00203
121 0.001961
130 0.004081
139 0.002963
142 0.003959
149 0.003991
158 0.006014
163 0.005981
172 0.006015
179 0.00598
184 0.005975
167 0.005981
136 0.006976
131 0.00298
132 0.005943
134 0.003006
142 0.004038
145 0.00399
144 0.004019
149 0.002991
156 0.000952
161 0.001965
167 0.0
175 0.002004
148 0.003992
126 0.003992
122 0.003976
123 0.004989
128 0.004891
137 0.005969
140 0.006992
141 0.006999
146 0.005997
150 0.006944
157 0.005965
161 0.005971
168 0.003993
157 0.006018
120 0.003999
110 0.006983
113 0.004977
115 0.006014
123 0.005984
126 0.006017
130 0.005023
134 0.002003
141 0.0
146 0.0
155 0.001003
158 0.001051
123 0.0
107 0.00103
106 0.0
108 0.0
117 0.002023
122 0.001982
125 0.003991
125 0.003989
136 0.004023
151 0.003951
159 0.004956
173 0.00499
157 0.006977
96 0.00698
80 0.007017
77 0.006991
78 0.006982
90 0.006991
98 0.006971
103 0.00798
109 0.006054
115 0.007981
129 0.004992
148 0.005014
158 0.003951
139 0.004067
97 0.003991
72 0.001019
72 0.002001
73 0.002015
88 0.001003
95 0.004023
96 0.001955
103 0.002027
117 0.000998
125 0.000998
137 0.00304
147 0.002963
123 0.002963
71 0.002993
59 0.002992
53 0.002992
55 0.004044
64 0.00402
76 0.003969
77 0.00301
86 0.004013
95 0.006964
107 0.006006
118 0.006983
130 0.006065
132 0.005981
70 0.005021
44 0.007977
42 0.005984
39 0.005991
51 0.005984
61 0.00603
67 0.005983
72 0.004983
85 0.005001
98 0.002987
107 0.004004
122 0.00299
124 0.001999
84 0.001999
48 0.001015
49 0.0
48 0.0
64 0.001011
71 0.001013
81 0.0
90 0.001991
97 0.002999
108 0.003986
123 0.00495
132 0.004973
145 0.005995
112 0.005985
68 0.005994
61 0.007019
61 0.005986
60 0.005984
76 0.005981
88 0.004001
87 0.00498
95 0.001997
103 0.002992
115 0.001995
131 0.001996
141 0.001995
140 0.001963
87 0.0
68 0.001003
66 0.002987
69 0.00399
78 0.004989
93 0.006938
102 0.006949
108 0.006985
117 0.005978
130 0.007981
140 0.006001
155 0.007971
160 0.005975
138 0.006981
89 0.005946
87 0.002961
88 0.002994
97 0.001957
109 0.002029
117 0.003015
118 0.0
127 0.0
140 0.0
152 0.0
158 0.0
170 0.0
158 0.0
98 0.0
85 0.0
87 0.0
92 0.000998
111 0.00203
116 0.002029
121 0.001987
127 0.002
135 0.001996
147 0.003985
154 0.003994
162 0.004023
162 0.005002
122 0.005024
91 0.005951
93 0.00598
95 0.005978
106 0.00399
120 0.00399
122 0.003992
128 0.003968
132 0.004
141 0.004006
158 0.005945
169 0.003991
176 0.006119
138 0.004011
99 0.00499
90 0.004987
93 0.00502
106 0.004986
124 0.002022
131 0.004005
140 0.001985
150 0.002967
177 0.0
200 0.0
212 0.000976
208 0.0
138 0.000997
104 0.0
107 0.001953
116 0.002948
129 0.004043
142 0.004952
142 0.005997
144 0.006019
162 0.005986
179 0.007971
187 0.005987
196 0.007971
169 0.005991
94 0.007976
63 0.007977
67 0.007979
84 0.007967
99 0.004015
107 0.006016
111 0.002996
118 0.005031
140 0.003006
163 0.002998
179 0.003007
194 0.003016
118 0.002948
85 0.001008
81 0.0
100 0.0
115 0.001976
136 0.003026
140 0.003019
145 0.00296
157 0.002992
170 0.002993
193 0.002991
204 0.003027
174 0.004025
98 0.004975
87 0.005029
100 0.006013
122 0.006995
145 0.005984
149 0.006981
147 0.003987
159 0.003988
168 0.00395
193 0.003986
211 0.003984
216 0.002017
120 0.0
87 0.0
93 0.000999
104 0.003033
129 0.003004
139 0.002978
141 0.002993
142 0.002949
154 0.003028
172 0.002817
191 0.004008
203 0.003004
172 0.003986
99 0.00399
82 0.005987
97 0.004988
103 0.007019
128 0.004983
133 0.004994
134 0.005984
149 0.003998
162 0.00299
181 0.003998
193 0.005017
203 0.002001
132 0.0
75 0.0
79 0.000988
85 0.001947
100 0.001958
114 0.00203
118 0.002024
121 0.001996
136 0.003946
156 0.00403
167 0.003991
184 0.003951
134 0.00598
81 0.006018
60 0.005985
63 0.005972
68 0.005984
90 0.006002
102 0.003966
104 0.002994
113 0.002988
130 0.003985
145 0.002013
158 0.002051
157 0.001029
104 0.000999
43 0.002031
41 0.000904
43 0.001015
55 0.001996
71 0.002992
80 0.002996
88 0.003024
99 0.003027
119 0.003026
140 0.003957
150 0.003955
158 0.004953
108 0.006017
41 0.005978
37 0.005982
36 0.005989
45 0.004951
67 0.003993
71 0.003988
75 0.003183
83 0.00503
95 0.002993
110 0.00499
123 0.00296
136 0.004982
65 0.003034
22 0.003032
19 0.002998
26 0.002029
39 0.002034
62 0.0
65 0.001999
74 0.0
96 0.0
111 0.0
133 0.0
155 0.001964
158 0.001956
82 0.001994
41 0.002949
41 0.002993
44 0.002988
67 0.005028
79 0.005019
86 0.004989
92 0.004991
109 0.005022
124 0.004955
144 0.005988
165 0.006992
153 0.007938
98 0.007946
46 0.00698
41 0.002989
41 0.00502
60 0.001995
80 0.001996
81 0.0
86 0.0
99 0.0
120 0.000977
142 0.0
153 0.0
110 0.0
45 0.00097
33 0.0
35 0.0
35 0.003005
61 0.002034
76 0.000132
78 0.0
92 0.002028
107 0.001961
120 0.002008
145 0.002008
158 0.003024
132 0.002958
53 0.002995
45 0.002994
46 0.004992
62 0.006033
72 0.006944
80 0.005981
84 0.005984
92 0.006013
115 0.004989
137 0.005988
160 0.003998
157 0.004987
90 0.002995
62 0.003988
68 0.002991
74 0.002999
104 0.001995
121 0.0
125 0.0
135 0.000993
160 0.002002
173 0.001008
195 0.003028
190 0.003988
136 0.00299
99 0.004026
103 0.003982
112 0.003986
137 0.003992
147 0.003992
157 0.004006
172 0.004989
185 0.006004
205 0.005979
217 0.005971
210 0.006944
144 0.006937
121 0.006948
130 0.006999
132 0.006984
155 0.006938
174 0.007935
175 0.007977
185 0.00697
201 0.004987
212 0.005985
232 0.001995
218 0.002021
162 0.001984
119 0.00202
119 0.001986
127 0.003006
151 0.0
161 0.0
164 0.0
172 0.00198
181 0.0
200 0.0
218 0.0
214 0.0
129 0.0
110 0.001022
111 0.002053
120 0.001868
145 0.002962
155 0.003029
162 0.003
168 0.003952
183 0.004
197 0.003991
217 0.004023
214 0.00403
159 0.003996
99 0.005978
98 0.004984
101 0.004994
117 0.004968
130 0.00502
132 0.005008
133 0.004999
139 0.004994
152 0.004985
164 0.006972
181 0.003973
171 0.006981
98 0.004942
63 0.005025
63 0.004989
69 0.005002
88 0.002992
103 0.002991
108 0.002983
118 0.0
131 0.0
144 0.000962
163 0.0
168 0.001013
93 0.000963
55 0.002031
50 0.0
56 0.002982
76 0.003006
81 0.001003
78 0.002009
76 0.002029
90 0.002027
103 0.002007
119 0.001963
124 0.001979
39 0.002028
8 0.00304
8 0.00199
16 0.001997
44 0.002993
56 0.002959
57 0.004956
64 0.006968
83 0.005
97 0.004986
116 0.003994
83 0.004989
45 0.005169
31 0.004982
34 0.004988
54 0.003989
75 0.007015
88 0.003949
91 0.005963
103 0.005999
117 0.005984
137 0.006016
145 0.006028
104 0.004017
26 0.002036
9 0.00393
3 0.001998
3 0.003005
0 0.001994
0 0.000947
0 0.0
0 0.001023
22 0.001032
38 0.002047
65 0.001994
54 0.003986
0 0.004984
0 0.005985
0 0.005981
0 0.007011
4 0.004982
18 0.00497
29 0.003009
39 0.001994
59 0.002025
86 0.0
103 0.001998
123 0.0
114 0.001996
49 0.0
30 0.0
35 0.0
46 0.001005
69 0.001994
76 0.001995
90 0.003031
107 0.003051
122 0.003025
153 0.002979
162 0.002989
174 0.002946
97 0.001994
64 0.002992
65 0.00498
76 0.006981
90 0.00698
110 0.006975
113 0.006977
120 0.007014
136 0.006982
150 0.006981
168 0.007977
188 0.003994
185 0.007018
101 0.00398
75 0.001998
80 0.001995
99 0.002032
115 0.00202
133 0.0
132 0.002026
142 0.001947
153 0.002002
172 0.002032
186 0.001966
205 0.002042
180 0.002026
100 0.00296
94 0.0
93 0.0
103 0.0
128 0.000998
133 0.000998
136 0.002017
147 0.003031
158 0.002012
177 0.00295
191 0.003959
199 0.003982
118 0.003984
89 0.004026
90 0.004996
99 0.005984
112 0.005957
125 0.006059
127 0.005986
136 0.006945
145 0.007977
162 0.004984
176 0.007016
195 0.006967
195 0.005987
112 0.003998
81 0.001996
79 0.002992
84 0.0
107 0.0
119 0.001017
123 0.001169
128 0.00099
144 0.0
153 0.0
164 0.0
177 0.000987
113 0.001992
65 0.002992
49 0.00495
50 0.005984
61 0.006025
77 0.00598
82 0.005988
81 0.006981
95 0.007021
108 0.006987
123 0.006969
144 0.007977
153 0.00797
112 0.006018
33 0.003983
20 0.005987
16 0.003998
20 0.006022
41 0.003985
57 0.002972
65 0.002994
73 0.002008
93 0.001963
102 0.0
124 0.0
139 0.0
127 0.0
33 0.000997
7 0.002009
4 0.002993
7 0.004992
28 0.006938
36 0.005982
50 0.007987
66 0.007949
75 0.007971
91 0.007023
103 0.007015
128 0.007017
150 0.004987
131 0.006982
37 0.00294
15 0.002
13 0.002048
15 0.003007
33 0.003005
51 0.001996
51 0.003029
61 0.000972
79 0.0
96 0.000996
107 0.002022
136 0.001995
152 0.001041
117 0.002961
40 0.002992
16 0.003958
16 0.003027
21 0.002985
38 0.003959
55 0.005938
60 0.005985
68 0.005965
89 0.005984
113 0.005984
131 0.005959
155 0.005972
158 0.005984
72 0.005884
29 0.005982
30 0.006989
32 0.005984
48 0.006976
69 0.00398
78 0.003022
82 0.003031
94 0.003028
117 0.002993
141 0.0
151 0.002994
174 0.0
142 0.0
79 0.001964
46 0.004054
41 0.003874
43 0.005019
69 0.004988
84 0.0
83 0.005028
93 0.005986
112 0.004986
122 0.004022
150 0.00402
165 0.004024
159 0.004013
77 0.007031
46 0.002986
45 0.005028
47 0.004019
61 0.003978
80 0.005001
88 0.000953
91 0.002993
115 0.0
126 0.002036
151 0.0
176 0.0
176 0.0
81 0.0
49 0.0
51 0.0
60 0.003057
87 0.004005
94 0.004045
88 0.003991
90 0.003989
100 0.003947
121 0.003961
132 0.004981
120 0.005992
34 0.007978
16 0.003987
14 0.004
33 0.002032
63 0.000998
81 0.0
75 0.0
81 0.002995
93 0.003949
114 0.00397
138 0.005983
135 0.005984
39 0.005985
13 0.006022
10 0.005944
25 0.005025
42 0.005016
65 0.004954
72 0.004964
76 0.004992
98 0.004952
115 0.004981
139 0.007153
135 0.006013
78 0.005982
33 0.004988
41 0.001993
53 0.004987
86 0.002043
101 0.000983
106 0.00198
122 0.0
143 0.000997
165 0.000998
193 0.001982
164 0.003042
104 0.003042
81 0.003908
92 0.005953
98 0.006981
126 0.006983
136 0.006981
142 0.005998
153 0.006981
163 0.00598
188 0.00703
209 0.007971
216 0.006015
186 0.006011
126 0.00605
100 0.005987
103 0.001972
111 0.004021
139 0.002959
149 0.003015
152 0.00303
168 0.002028
184 0.00098
195 0.0
220 0.0
228 0.0
190 0.00105
115 0.001961
107 0.002027
114 0.002046
136 0.002016
152 0.001968
167 0.002038
179 0.002033
201 0.001996
216 0.00199
235 0.002991
252 0.004048
251 0.005003
199 0.006988
148 0.007976
151 0.002942
158 0.005984
179 0.002979
190 0.002961
192 0.00196
195 0.002049
215 0.002025
231 0.000986
250 0.00099
255 0.003039
255 0.0
178 0.002013
144 0.001995
145 0.001996
153 0.00206
168 0.001961
181 0.002027
185 0.001969
196 0.002016
207 0.002994
218 0.00286
232 0.003004
195 0.002992
200 0.002992
163 0.003025
135 0.002005
134 0.003991
136 0.004996
148 0.005983
152 0.006015
153 0.005993
154 0.006007
163 0.005984
172 0.006988
176 0.005984
182 0.00598
190 0.003989
180 0.003024
132 0.002993
117 0.000973
118 0.002027
120 0.0
130 0.002
134 0.00198
136 0.002947
144 0.003984
150 0.003989
155 0.00698
165 0.005951
170 0.005984
179 0.004991
139 0.004107
113 0.004013
105 0.004008
104 0.005029
109 0.003004
116 0.004025
119 0.002962
118 0.002973
124 0.003029
130 0.002996
140 0.002033
148 0.0
154 0.001006
142 0.002023
90 0.004027
80 0.003957
77 0.00399
81 0.003957
86 0.005024
92 0.004983
98 0.004988
101 0.004986
108 0.006013
116 0.005985
129 0.005995
137 0.005985
116 0.006026
72 0.005951
66 0.007976
67 0.005963
75 0.006963
82 0.006
86 0.007001
91 0.006018
93 0.006017
103 0.005943
113 0.003031
119 0.004024
115 0.002995
65 0.0
54 0.0
51 0.000998
54 0.001994
62 0.003955
72 0.003959
75 0.00599
79 0.005986
90 0.005841
97 0.006973
105 0.005955
106 0.004988
68 0.005951
44 0.003986
40 0.006014
44 0.002974
53 0.00599
66 0.006019
67 0.005986
73 0.006021
80 0.005987
91 0.004966
106 0.002994
114 0.003023
86 0.000935
45 0.0
40 0.0
40 0.002993
51 0.002963
61 0.002976
49 0.002993
57 0.003954
66 0.002994
83 0.003956
100 0.003954
111 0.003955
106 0.003964
51 0.003854
21 0.003991
16 0.004027
17 0.004944
36 0.005984
53 0.005974
57 0.00602
64 0.006981
75 0.006932
87 0.007999
107 0.005984
120 0.005953
116 0.00597
43 0.00303
24 0.002989
20 0.002004
25 0.003022
44 0.0
60 0.002028
69 0.003002
76 0.001999
92 0.002032
106 0.002985
120 0.003961
137 0.004989
127 0.005986
81 0.006982
36 0.006947
32 0.005937
34 0.007979
51 0.005986
64 0.006982
73 0.004198
83 0.003994
92 0.003997
110 0.001988
127 0.001991
140 0.002001
149 0.0
95 0.002989
53 0.0
39 0.002992
40 0.0
51 0.001992
72 0.002025
79 0.001996
85 0.0
98 0.0
109 0.001972
127 0.001997
141 0.001961
150 0.00196
121 0.002051
73 0.002049
41 0.001999
36 0.002991
39 0.002993
60 0.003026
70 0.002992
77 0.002995
87 0.002944
95 0.00399
109 0.003988
125 0.005972
133 0.006983
132 0.004989
68 0.00715
30 0.004983
23 0.006982
25 0.003988
39 0.006981
60 0.004959
65 0.004961
72 0.003999
88 0.002
97 0.00299
113 0.0
130 0.0
124 0.0
52 0.0
30 0.0
27 0.0
35 0.0
50 0.00101
72 0.002996
78 0.004989
89 0.005987
98 0.006979
115 0.005982
129 0.007978
140 0.004975
92 0.00794
48 0.003991
39 0.00502
44 0.004959
57 0.005986
77 0.005135
88 0.003959
92 0.002995
105 0.001997
127 0.0
141 0.0
157 0.0
132 0.0
62 0.0
48 0.0
55 0.0
68 0.000997
93 0.002992
100 0.003989
107 0.005985
115 0.006056
132 0.006948
150 0.007978
169 0.007979
182 0.007979
115 0.007976
87 0.007979
64 0.006982
69 0.004984
80 0.006985
106 0.004985
115 0.002993
122 0.002992
132 0.0
152 0.0
163 0.0
186 0.0
193 0.001966
151 0.000967
80 0.00199
68 0.001957
70 0.001869
88 0.00402
101 0.00399
113 0.005983
120 0.006015
136 0.005984
161 0.006015
186 0.005982
195 0.00698
217 0.006985
188 0.00404
130 0.00594
90 0.00399
88 0.00302
95 0.003003
116 0.002933
126 0.002983
136 0.0
147 0.0
166 0.002003
178 0.001995
201 0.000991
218 0.002999
220 0.002967
137 0.004035
101 0.00396
89 0.005984
93 0.005978
108 0.006014
122 0.006016
124 0.005949
128 0.006997
141 0.006969
154 0.003987
164 0.004986
183 0.002002
198 0.002998
183 0.001984
92 0.002993
67 0.000987
66 0.0
76 0.0
89 0.0
106 0.001995
110 0.002013
114 0.002995
130 0.002993
151 0.002994
161 0.003009
175 0.002992
125 0.003965
68 0.006
53 0.004987
62 0.006022
70 0.007016
95 0.005988
103 0.002989
103 0.004023
114 0.002991
135 0.0
149 0.0
167 0.000996
129 0.003037
67 0.0
47 0.001997
45 0.000955
57 0.000997
82 0.002028
89 0.002961
95 0.003997
110 0.004988
129 0.005997
150 0.006016
167 0.006016
145 0.006033
64 0.005991
47 0.006007
48 0.00602
64 0.005983
80 0.005945
96 0.005983
102 0.004985
108 0.004987
127 0.005949
141 0.005984
164 0.002031
138 0.003005
83 0.00296
41 0.002987
39 0.003025
51 0.00199
75 0.002999
97 0.003007
100 0.002988
108 0.003011
118 0.003023
134 0.003003
152 0.0
163 0.0
135 0.000999
48 0.000969
28 0.001031
26 0.000996
32 0.000997
55 0.000998
69 0.00197
75 0.002041
90 0.001989
111 0.001995
124 0.004948
143 0.006016
166 0.006021
153 0.004987
59 0.004985
24 0.007013
23 0.004987
27 0.006979
47 0.002978
64 0.006982
70 0.006026
79 0.007015
101 0.00399
125 0.000963
142 0.001996
161 0.0
174 0.0
138 0.000995
52 0.0
33 0.0
33 0.0
46 0.001996
70 0.002996
79 0.004852
84 0.00498
97 0.005982
106 0.004981
121 0.003035
134 0.005984
150 0.00403
160 0.005965
106 0.003021
38 0.005978
18 0.005983
21 0.005978
41 0.005955
58 0.005988
74 0.004987
82 0.000963
98 0.000941
111 0.0
135 0.000965
151 0.001971
168 0.0
121 0.000954
71 0.001959
43 0.001999
54 0.001996
66 0.002012
97 0.003009
106 0.003029
116 0.001997
128 0.005032
145 0.004002
165 0.004027
191 0.004024
192 0.005984
116 0.006034
76 0.006036
73 0.006979
83 0.006979
105 0.006975
126 0.005013
133 0.003014
140 0.003989
160 0.003988
180 0.003981
194 0.003018
215 0.002995
207 0.003992
131 0.003039
84 0.003986
76 0.002991
86 0.004021
111 0.002027
124 0.001992
137 0.00305
146 0.0
161 0.0
178 0.000965
197 0.002029
211 0.002042
227 0.001958
195 0.002008
113 0.001857
98 0.001996
102 0.002013
122 0.004035
147 0.00399
151 0.005022
156 0.004956
170 0.005972
184 0.001979
206 0.003996
221 0.004895
233 0.002995
200 0.003983
118 0.002929
106 0.002033
105 0.003013
112 0.002995
139 0.002028
152 0.001993
152 0.003984
159 0.0
177 0.000962
187 0.0
205 0.0
217 0.000997
212 0.001027
119 0.001036
90 0.000962
84 0.002983
97 0.003986
112 0.004969
131 0.004989
133 0.00594
138 0.005984
151 0.00394
164 0.006978
179 0.002991
193 0.005135
158 0.00496
102 0.002037
67 0.00203
68 0.0
79 0.0
101 0.0
119 0.000998
122 0.002058
135 0.001995
144 0.002024
165 0.002008
184 0.002026
172 0.003019
92 0.003989
71 0.005983
73 0.005986
85 0.004014
111 0.004007
120 0.002984
125 0.005017
137 0.004988
148 0.005971
168 0.005023
189 0.003025
192 0.005023
106 0.002992
72 0.004968
65 0.002997
72 0.004011
89 0.002947
110 0.002992
113 0.002992
120 0.002949
138 0.00099
152 0.001
173 0.0
171 0.003025
110 0.0
69 0.003015
70 0.0
81 0.002016
109 0.003956
125 0.002993
131 0.004022
138 0.006008
157 0.006982
167 0.006991
187 0.007013
198 0.003987
160 0.004939
92 0.002993
88 0.0
93 0.000955
120 0.0
141 0.0
147 0.000998
154 0.003986
172 0.004959
183 0.004983
201 0.004968
208 0.004811
168 0.005978
108 0.005982
105 0.005965
116 0.005983
134 0.005983
151 0.005983
155 0.006988
161 0.007984
167 0.007977
183 0.006015
201 0.00395
211 0.005018
211 0.002996
160 0.004989
105 0.002992
109 0.000936
111 0.0
136 0.0
150 0.0
153 0.0
161 0.0
176 0.0
187 0.0
203 0.0
211 0.001055
198 0.000865
121 0.001016
108 0.001038
112 0.002055
124 0.003026
145 0.004978
154 0.004997
160 0.005021
168 0.004991
181 0.006036
188 0.005942
208 0.00599
222 0.005985
211 0.006958
147 0.005938
112 0.006981
110 0.004986
117 0.003998
129 0.003047
149 0.002004
155 0.0
163 0.003002
176 0.000982
187 0.002028
202 0.0
213 0.002943
222 0.0
184 0.001
122 0.001997
112 0.002025
111 0.002015
119 0.000997
135 0.001956
140 0.001994
142 0.003939
147 0.003958
162 0.003986
175 0.003963
183 0.003992
198 0.003982
171 0.005983
105 0.005957
81 0.005988
82 0.005984
93 0.006987
106 0.007979
119 0.004988
127 0.005976
135 0.005017
145 0.005029
164 0.00502
183 0.003007
192 0.003015
190 0.000994
128 0.0
89 0.0
85 0.002011
91 0.00399
106 0.003992
123 0.003957
129 0.004025
134 0.003959
150 0.004991
157 0.004995
170 0.00595
181 0.005951
189 0.004954
133 0.00302
86 0.005035
77 0.002995
81 0.002025
100 0.002017
112 0.003022
119 0.002025
126 0.000981
135 0.003038
154 0.000965
166 0.000998
172 0.000998
187 0.002025
154 0.002041
105 0.000939
77 0.002961
79 0.001994
89 0.001996
113 0.002994
120 0.002993
126 0.002995
132 0.003984
149 0.00502
165 0.004961
176 0.004986
187 0.00502
194 0.006983
161 0.005986
94 0.006984
83 0.007944
85 0.007978
99 0.007976
109 0.007979
121 0.005982
124 0.003009
133 0.003989
150 0.000975
167 0.0
174 0.0
191 0.0
204 0.0
188 0.002033
103 0.0
74 0.001996
76 0.002962
90 0.005991
106 0.005988
110 0.005988
110 0.005042
119 0.007934
128 0.004968
141 0.007979
146 0.007981
155 0.007977
169 0.007978
165 0.00797
82 0.00699
40 0.004995
39 0.006977
42 0.003035
63 0.001997
70 0.0
71 0.0
75 0.003024
83 0.001027
93 0.004037
104 0.002021
115 0.000997
128 0.001939
88 0.000955
23 0.002025
15 0.001996
17 0.001832
28 0.002007
42 0.002001
46 0.00203
55 0.00402
60 0.003982
78 0.005172
97 0.005979
110 0.005985
101 0.005949
37 0.006945
9 0.006941
10 0.004037
26 0.003006
44 0.003003
64 0.001018
69 0.002947
78 0.0
92 0.003009
117 0.001022
128 0.00198
132 0.002013
69 0.001996
32 0.00402
25 0.002946
37 0.004037
53 0.004021
77 0.003987
82 0.005986
94 0.006028
112 0.004973
127 0.006963
154 0.004001
168 0.003991
127 0.003986
61 0.003042
47 0.002004
51 0.00297
67 0.0
82 0.004028
93 0.000965
96 0.002992
110 0.000986
127 0.000999
150 0.000986
162 0.001989
137 0.002053
69 0.002017
43 0.001968
43 0.001995
60 0.002053
77 0.002056
93 0.003957
98 0.004813
103 0.006018
118 0.005993
134 0.007022
150 0.003969
170 0.004036
156 0.003974
65 0.004008
36 0.003983
37 0.003995
50 0.003994
68 0.002997
83 0.002994
87 0.00399
98 0.003032
109 0.004036
129 0.003996
141 0.003988
162 0.003055
151 0.0
71 0.0
28 0.0
22 0.001993
32 0.002034
61 0.00204
78 0.00202
83 0.003991
98 0.003958
107 0.004021
127 0.003956
144 0.003989
157 0.004023
154 0.004983
79 0.005994
30 0.005987
21 0.005987
23 0.005987
46 0.00698
66 0.006939
72 0.006019
78 0.003991
94 0.001037
109 0.000987
121 0.001994
144 0.002847
143 0.004027
87 0.006017
23 0.006016
19 0.00499
21 0.003972
47 0.003993
70 0.00399
76 0.003988
86 0.003978
99 0.006017
116 0.004035
139 0.005988
155 0.00299
127 0.004988
42 0.003991
25 0.004006
32 0.005017
59 0.0
78 0.003026
90 0.0
99 0.0
108 0.000998
131 0.001002
145 0.00097
170 0.001996
186 0.002952
155 0.003981
55 0.00399
35 0.004002
37 0.004882
55 0.004984
85 0.005986
92 0.005969
98 0.006025
116 0.007954
130 0.004004
148 0.007063
165 0.003986
183 0.006984
162 0.004988
62 0.0
39 0.003038
36 0.001001
49 0.000997
66 0.002028
84 0.003959
91 0.003997
103 0.005002
128 0.004985
144 0.00502
167 0.004987
188 0.005975
192 0.005981
114 0.005978
47 0.00499
36 0.004969
40 0.004987
57 0.006982
84 0.003993
99 0.005982
99 0.002959
103 0.00602
120 0.006013
132 0.00501
149 0.002029
168 0.0
179 0.001957
136 0.0
41 0.000999
28 0.000997
24 0.000998
38 0.001996
60 0.001028
79 0.000951
83 0.002993
101 0.002965
124 0.004008
138 0.004985
158 0.004981
172 0.005017
184 0.004985
159 0.007993
74 0.007977
41 0.007976
36 0.007979
43 0.007947
69 0.006984
91 0.003957
94 0.005994
110 0.001999
131 0.002996
143 0.002991
164 0.002981
188 0.001978
198 0.0
129 0.0
72 0.0
45 0.0
48 0.000997
55 0.002026
82 0.002032
97 0.002991
104 0.002963
117 0.004986
134 0.006038
149 0.006982
173 0.006971
193 0.006984
184 0.006981
98 0.00702
52 0.002992
50 0.006023
62 0.002984
94 0.003947
105 0.002988
113 0.003002
126 0.000997
142 0.000959
166 0.0
179 0.0
192 0.0
130 0.002992
78 0.000989
56 0.001005
64 0.000997
80 0.001003
109 0.001963
116 0.002
123 0.003026
137 0.003999
159 0.005018
171 0.005963
188 0.005987
191 0.005984
121 0.007967
51 0.002992
43 0.005984
51 0.003012
76 0.003049
93 0.003002
104 0.002964
117 0.002992
130 0.003002
151 0.0
171 0.003051
188 0.0
166 0.002985
89 0.0
57 0.002043
58 0.0
68 0.0
101 0.0
117 0.002037
125 0.001995
135 0.001985
152 0.001999
171 0.002036
192 0.002008
203 0.001994
212 0.00195
129 0.003973
95 0.005016
86 0.005987
89 0.003957
101 0.003989
130 0.005005
141 0.006981
149 0.002994
164 0.004986
186 0.004987
196 0.00402
216 0.004079
229 0.003989
218 0.003005
142 0.0
123 0.003009
117 0.0
128 0.000987
143 0.000996
158 0.0
160 0.001018
172 0.0
190 0.0
196 0.0
209 0.0
227 0.000985
237 0.001991
209 0.002027
155 0.002004
118 0.002001
113 0.002005
116 0.003026
137 0.003047
147 0.002992
152 0.004982
161 0.003991
171 0.003959
185 0.004953
200 0.007978
211 0.004984
221 0.004962
184 0.00202
140 0.004989
117 0.00199
121 0.002994
129 0.002997
150 0.002984
162 0.002968
169 0.0
185 0.0
191 0.0
201 0.0
217 0.0
228 0.000967
211 0.0
146 0.0
131 0.0
134 0.002028
142 0.002038
157 0.002026
167 0.002029
171 0.00396
174 0.005958
194 0.006021
202 0.006015
216 0.007948
222 0.003975
182 0.003022
142 0.003016
125 0.002989
132 0.000997
151 0.000996
161 0.0
172 0.001004
174 0.002963
180 0.003973
191 0.003845
200 0.003959
208 0.005996
215 0.006985
188 0.005978
141 0.006981
138 0.006017
150 0.006847
172 0.006982
181 0.006949
183 0.006975
184 0.00698
194 0.007013
208 0.004986
218 0.007995
232 0.002988
188 0.002995
192 0.003012
168 0.0
144 0.000962
146 0.001012
152 0.0
160 0.003021
166 0.0
165 0.0
168 0.001002
174 0.001997
178 0.001966
184 0.002008
188 0.001989
195 0.001994
200 0.001961
206 0.003025
197 0.00498
167 0.005984
151 0.005984
155 0.00299
160 0.00204
169 0.000944
174 0.0
174 0.0
176 0.0
181 0.003124
185 0.0
191 0.003028
196 0.0
200 0.000995
201 0.001995
178 0.0
153 0.0
157 0.001939
163 0.00195
171 0.001953
175 0.001954
175 0.001981
177 0.002036
184 0.003979
188 0.003961
193 0.003973
197 0.003989
202 0.003988
171 0.003996
159 0.004027
161 0.003958
165 0.003949
173 0.004008
226 0.006016
229 0.005973
231 0.003994
242 0.006981
190 0.004023
195 0.007098
199 0.006982
198 0.006983
169 0.006991
160 0.00698
163 0.007015
169 0.002987
174 0.003958
179 0.0
178 0.0
180 9.3e-05
186 0.000966
191 0.001964
194 0.003051
191 0.00497
171 0.005967
165 0.003956
169 0.003024
173 0.003995
177 0.004107
182 0.002994
182 0.004945
185 0.00299
189 0.003995
194 0.0
197 0.002013
187 0.0
168 0.0
165 0.0
169 0.001001
173 0.002984
177 0.004019
177 0.004022
176 0.003989
178 0.003994
181 0.003993
184 0.005017
187 0.004001
162 0.004988
154 0.005947
156 0.005991
158 0.005986
161 0.005016
165 0.00698
164 0.005991
165 0.00598
170 0.005984
172 0.005985
176 0.005977
255 0.00299
251 0.003019
173 0.000956
159 0.0
165 0.000962
174 0.001002
190 0.000941
193 0.0
199 0.0
199 0.000998
217 0.000975
226 0.003028
234 0.0
239 0.0
225 0.001995
173 0.002028
140 0.001954
140 0.004002
141 0.00399
156 0.006982
167 0.007954
168 0.007979
169 0.00701
176 0.002953
188 0.004972
201 0.002996
209 0.0
216 0.002023
198 0.0
151 0.0
120 0.000996
124 0.0
126 0.0
144 0.001017
154 0.0
154 0.001035
151 0.000998
157 0.001002
164 0.000967
176 0.001995
179 0.004947
187 0.00498
