47 0.010005
48 0.005984
51 0.005984
56 0.006981
60 0.006981
69 0.006979
90 0.006981
102 0.006981
87 0.005995
56 0.007013
48 0.005995
48 0.005945
51 0.005984
53 0.006982
56 0.007027
59 0.007014
59 0.006966
59 0.005982
62 0.006943
65 0.006987
69 0.006032
72 0.007008
73 0.006981
71 0.007006
126 0.006976
129 0.007018
129 0.007035
129 0.007041
129 0.006022
129 0.005983
129 0.006982
129 0.006972
129 0.006954
129 0.00797
129 0.006981
129 0.006981
129 0.006981
129 0.007977
129 0.007978
131 0.00698
133 0.006983
136 0.007028
137 0.006967
137 0.006982
136 0.007979
136 0.007979
137 0.006982
139 0.006988
140 0.007027
140 0.00801
134 0.008003
128 0.007004
129 0.006988
131 0.007031
135 0.00698
136 0.007978
138 0.006981
137 0.007988
137 0.007945
138 0.007128
139 0.00698
140 0.008005
142 0.007962
136 0.007948
130 0.006986
128 0.006982
129 0.007224
132 0.006979
134 0.007979
137 0.00797
137 0.007966
136 0.006945
136 0.007013
137 0.006998
138 0.007001
139 0.006966
140 0.007588
133 0.007967
128 0.007011
127 0.007015
129 0.006954
133 0.006954
136 0.006981
136 0.006981
136 0.006981
135 0.007017
135 0.007016
136 0.006978
138 0.007014
139 0.006985
137 0.005986
131 0.006983
127 0.006984
128 0.006994
130 0.006989
133 0.007027
135 0.006956
134 0.006984
133 0.00698
132 0.005982
132 0.005972
133 0.006982
134 0.005984
135 0.006981
131 0.006983
121 0.006978
120 0.006985
124 0.007029
127 0.006969
130 0.006966
131 0.006984
131 0.006982
130 0.006984
137 0.006021
142 0.006982
149 0.006024
155 0.007024
152 0.007016
115 0.005982
89 0.006982
95 0.005977
111 0.006981
127 0.00702
143 0.00598
150 0.006001
148 0.006014
145 0.006014
146 0.005984
150 0.005984
162 0.005984
169 0.006026
161 0.005989
122 0.006026
99 0.006018
100 0.005953
113 0.005981
133 0.005985
147 0.005992
151 0.006981
148 0.006021
145 0.006038
146 0.005539
151 0.005022
160 0.005984
166 0.005983
167 0.005004
138 0.004973
104 0.005969
97 0.00599
109 0.005959
126 0.005984
141 0.005984
150 0.006015
146 0.005982
143 0.005976
144 0.005986
150 0.005984
157 0.004983
163 0.005993
168 0.004992
157 0.004987
109 0.004987
94 0.004986
101 0.006009
118 0.005987
144 0.005983
152 0.005982
149 0.005948
144 0.004986
145 0.004986
149 0.004987
157 0.003989
164 0.005022
171 0.005021
168 0.004988
132 0.004029
86 0.005023
85 0.005981
108 0.005984
132 0.005986
156 0.004975
157 0.004988
152 0.004987
148 0.004977
153 0.005037
164 0.004981
174 0.00399
184 0.004987
193 0.004986
140 0.00502
85 0.00502
71 0.005022
96 0.00499
112 0.004036
142 0.004997
158 0.00502
159 0.004983
154 0.005015
156 0.004037
162 0.004057
170 0.00502
190 0.003985
200 0.003987
204 0.003988
132 0.004985
88 0.005018
84 0.005076
103 0.004987
127 0.004947
155 0.004986
165 0.004986
163 0.004023
157 0.004036
155 0.003995
161 0.003989
165 0.003988
153 0.004024
146 0.004032
128 0.00403
76 0.003985
21 0.003992
15 0.004214
43 0.004023
76 0.00399
108 0.003952
139 0.003996
140 0.004002
138 0.003996
145 0.00399
155 0.003726
165 0.004038
177 0.003992
188 0.003994
200 0.003991
180 0.004036
123 0.003991
88 0.003989
102 0.003989
126 0.003988
149 0.003987
167 0.003004
170 0.003847
164 0.002974
161 0.002955
164 0.002993
169 0.002995
181 0.00403
191 0.003027
201 0.002994
184 0.002988
124 0.002989
91 0.002989
96 0.002988
124 0.002956
149 0.003984
172 0.003963
179 0.003956
171 0.004033
163 0.002992
166 0.002993
174 0.004037
186 0.003955
193 0.003987
201 0.00401
194 0.002931
118 0.003019
84 0.003154
84 0.002952
103 0.002994
126 0.002992
156 0.002995
162 0.002993
156 0.002999
148 0.002992
152 0.002952
161 0.002982
170 0.002992
182 0.001991
192 0.001996
178 0.003399
114 0.003817
63 0.003879
53 0.002026
71 0.001995
93 0.002946
124 0.001994
127 0.001994
120 0.003
115 0.00296
119 0.003002
128 0.001995
138 0.001995
147 0.002992
158 0.002992
138 0.001996
73 0.001995
33 0.00201
42 0.001997
67 0.001999
89 0.003037
107 0.002032
111 0.001996
105 0.001994
102 0.001989
107 0.001989
116 0.002993
129 0.002007
140 0.001995
151 0.002025
116 0.001993
55 0.001994
28 0.001996
38 0.001997
70 0.001994
93 0.001983
112 0.001962
115 0.001994
110 0.001995
105 0.002032
110 0.002017
118 0.001996
133 0.001997
141 0.001993
150 0.001966
147 0.001011
95 0.000998
37 0.000964
37 0.000996
60 0.000998
84 0.000996
107 0.001995
123 0.000999
118 0.000997
109 0.001997
114 0.000997
122 0.000996
131 0.000998
140 0.000996
152 0.000996
158 0.00096
122 0.000998
64 0.001995
39 0.000999
52 0.001005
76 0.000998
114 0.00101
121 0.000997
115 0.001007
107 0.000997
105 0.001004
113 0.000995
121 0.0
131 0.000999
138 0.000963
145 0.001053
109 0.000998
48 0.000997
19 0.001005
37 0.000998
63 0.000995
86 0.000996
100 0.0
96 0.000997
87 0.0
85 0.0
91 0.0
101 0.0
114 0.0
123 0.0
127 0.000993
72 0.000998
19 0.000998
4 0.000998
18 0.001
53 0.000941
76 0.000999
90 0.0
91 0.000998
84 0.0
79 0.0
82 0.0
91 0.0
100 0.0
113 0.0
119 0.0
74 0.0
0 0.0
0 0.0
8 0.000997
35 0.000997
59 0.0
82 0.0
85 0.0
81 0.0
84 0.0
91 0.0
102 0.0
113 0.0
125 0.0
126 0.000998
76 0.0
12 0.0
0 0.0
0 0.000997
19 0.000994
51 0.0
53 0.0
47 0.0
43 0.0
43 0.0
52 0.0
62 0.000997
76 0.000998
93 0.0
107 0.0
93 0.0
29 0.0
52 0.0
59 0.0
73 0.001028
85 0.0
94 0.0
95 0.0
92 0.0
91 0.001029
95 0.0
101 0.0
106 0.0
111 0.000969
122 0.0
126 0.000995
111 0.000999
70 0.0
61 0.0
64 0.000998
81 0.000997
93 0.000999
106 0.0
107 0.0
102 0.001051
100 0.001001
106 0.0
112 0.002028
118 0.001977
123 0.000995
127 0.001068
128 0.0
102 0.000997
74 0.000998
66 0.0
77 0.0
90 0.0
104 0.000998
114 0.001038
110 0.002028
107 0.001952
111 0.000999
114 0.000997
120 0.00104
128 0.001035
133 0.000996
139 0.000998
132 0.000996
99 0.001042
77 0.001023
81 0.000941
94 0.000993
107 0.001994
119 0.000993
122 0.000998
119 0.001024
117 0.002026
120 0.002031
128 0.001066
134 0.001031
140 0.001031
146 0.001033
153 0.002032
129 0.001995
95 0.002027
64 0.00196
73 0.000961
92 0.001944
111 0.002962
127 0.002994
133 0.002018
130 0.001993
127 0.002025
127 0.002992
132 0.001987
140 0.001999
149 0.00201
157 0.002028
163 0.00104
128 0.001012
78 0.002002
56 0.003005
58 0.003037
83 0.002026
101 0.002034
117 0.001998
121 0.001994
117 0.001995
116 0.00299
122 0.002014
129 0.00203
140 0.000997
144 0.002027
152 0.002991
159 0.002992
142 0.002035
91 0.002028
60 0.002026
68 0.001996
87 0.002028
104 0.002959
118 0.002994
123 0.001974
118 0.003026
115 0.003035
119 0.003035
122 0.002992
124 0.003027
129 0.001994
135 0.002992
149 0.002024
142 0.002028
96 0.003989
57 0.002996
50 0.002033
63 0.002027
82 0.002025
100 0.004005
112 0.002992
112 0.002991
105 0.001996
104 0.002992
114 0.001984
120 0.001976
127 0.002996
134 0.002993
142 0.001993
143 0.003041
113 0.003035
71 0.003989
54 0.004022
64 0.003026
84 0.003034
103 0.002032
122 0.002027
117 0.00298
109 0.002989
106 0.004022
108 0.002989
117 0.00298
128 0.003042
136 0.00399
143 0.003989
149 0.003025
115 0.002998
76 0.003026
66 0.002992
84 0.002976
106 0.004028
127 0.004986
136 0.004026
128 0.00399
121 0.003991
117 0.003985
120 0.003991
127 0.004024
135 0.004002
144 0.00302
152 0.003035
121 0.002833
78 0.003982
60 0.00403
66 0.00399
93 0.003026
112 0.004047
129 0.004025
133 0.004977
129 0.004948
125 0.003989
130 0.004026
143 0.003984
152 0.004024
161 0.003453
169 0.004041
159 0.004023
101 0.002981
77 0.004002
80 0.003975
97 0.004988
116 0.005016
138 0.004032
142 0.004029
132 0.004003
129 0.003918
132 0.003989
138 0.004987
145 0.004985
154 0.003988
162 0.003984
155 0.004024
115 0.004022
83 0.005024
77 0.004009
92 0.004022
122 0.003465
134 0.005006
133 0.004987
127 0.004984
122 0.005025
125 0.00399
132 0.00399
139 0.003987
147 0.004982
154 0.004989
149 0.004022
109 0.005037
71 0.005024
78 0.005018
96 0.003997
115 0.005997
130 0.005004
129 0.004025
121 0.004024
116 0.004999
117 0.004972
124 0.005984
134 0.004987
141 0.004987
148 0.004986
120 0.004987
80 0.004985
65 0.00598
72 0.005984
89 0.005019
114 0.005022
125 0.005008
123 0.006007
117 0.006017
113 0.004949
116 0.005022
129 0.005019
137 0.005013
146 0.004645
147 0.005983
114 0.006015
69 0.004982
64 0.005024
76 0.004988
94 0.005985
112 0.006924
123 0.005947
120 0.005954
112 0.005128
115 0.004587
121 0.00499
129 0.005984
137 0.006017
150 0.005019
134 0.004987
80 0.00597
51 0.007014
42 0.005984
59 0.005985
88 0.005986
111 0.006981
111 0.006017
103 0.006025
99 0.004986
102 0.007013
110 0.007012
124 0.005021
137 0.006019
149 0.006018
134 0.007017
79 0.005984
41 0.004971
56 0.00703
86 0.006028
106 0.006033
121 0.006004
123 0.006981
116 0.006982
115 0.006018
120 0.005992
126 0.006019
132 0.006981
139 0.006978
146 0.005985
113 0.007015
43 0.00502
24 0.007015
33 0.007014
51 0.007978
70 0.006981
92 0.005985
93 0.006983
86 0.005984
78 0.006981
76 0.006986
83 0.005989
94 0.007013
102 0.006676
112 0.005967
120 0.006974
80 0.008011
42 0.007011
9 0.006005
22 0.006029
46 0.005981
68 0.006981
86 0.007979
91 0.007011
85 0.007985
86 0.007007
94 0.007029
104 0.006975
114 0.007979
131 0.007637
143 0.006949
151 0.007017
157 0.006982
115 0.007894
64 0.007338
47 0.006023
79 0.00798
102 0.007016
122 0.007865
137 0.006981
133 0.007976
128 0.007978
125 0.006981
132 0.006979
141 0.006981
152 0.007952
159 0.007979
170 0.007016
182 0.007975
186 0.007021
133 0.006981
87 0.007012
74 0.007022
88 0.007014
113 0.007009
146 0.007939
153 0.00797
167 0.007019
159 0.007016
155 0.007945
166 0.006985
176 0.007008
188 0.006986
196 0.007011
202 0.007015
207 0.006981
210 0.007023
153 0.006987
107 0.007017
95 0.007013
109 0.007018
130 0.006978
162 0.006027
169 0.006978
162 0.006981
153 0.006985
152 0.006985
160 0.007017
170 0.006981
181 0.007014
189 0.006974
195 0.006997
201 0.007015
195 0.006978
107 0.006974
77 0.006982
83 0.006913
105 0.007237
124 0.007013
141 0.006013
147 0.006014
141 0.006973
136 0.006992
136 0.005984
142 0.006021
150 0.006018
163 0.006971
172 0.006973
182 0.007023
177 0.007011
124 0.006051
76 0.00602
62 0.005953
81 0.006021
104 0.00602
124 0.005979
140 0.005983
144 0.005984
137 0.005985
137 0.005984
145 0.00621
155 0.005975
165 0.006014
175 0.006774
185 0.006952
199 0.006531
170 0.005989
109 0.00602
76 0.006019
77 0.005984
112 0.006025
131 0.005981
154 0.004987
156 0.004998
151 0.006014
148 0.006017
151 0.005942
163 0.006019
173 0.006412
184 0.005947
192 0.005983
202 0.00542
185 0.004996
124 0.005983
77 0.005038
82 0.006025
104 0.00602
126 0.006048
148 0.006019
163 0.004993
159 0.004987
152 0.004992
150 0.004989
155 0.005989
167 0.004977
175 0.004965
183 0.005019
193 0.006037
188 0.004799
137 0.004987
86 0.005019
69 0.005021
86 0.004976
110 0.00502
133 0.004948
150 0.004986
146 0.004994
137 0.004997
136 0.005033
143 0.005023
152 0.004987
161 0.005016
172 0.00503
180 0.005028
182 0.005008
139 0.005003
87 0.004984
68 0.005026
92 0.004983
117 0.004983
141 0.005803
150 0.005004
142 0.004991
134 0.004989
131 0.004992
135 0.004992
146 0.005024
154 0.003991
161 0.00504
170 0.004023
138 0.00404
85 0.005035
59 0.004989
68 0.004015
92 0.005027
115 0.004992
134 0.005043
136 0.005016
123 0.004996
115 0.005002
117 0.004982
126 0.004991
143 0.003979
151 0.004026
159 0.004476
132 0.005083
76 0.005035
47 0.005057
48 0.005036
69 0.004443
100 0.003991
120 0.004033
125 0.00399
117 0.00399
106 0.003991
110 0.00399
118 0.003993
132 0.003991
140 0.003991
146 0.004025
127 0.004039
73 0.002993
32 0.002974
37 0.004647
59 0.004881
81 0.003987
109 0.003993
106 0.003993
96 0.004023
93 0.004038
96 0.004031
105 0.004028
116 0.00399
125 0.003031
130 0.003036
96 0.003026
44 0.003215
19 0.00399
36 0.003948
58 0.002993
79 0.003019
90 0.004025
86 0.00399
79 0.003991
77 0.004026
80 0.002969
89 0.002992
103 0.002993
110 0.003001
112 0.002997
38 0.00399
5 0.003991
3 0.003994
23 0.003029
52 0.003046
72 0.003017
77 0.003242
73 0.004302
69 0.002987
72 0.004035
80 0.003944
92 0.003656
111 0.002989
121 0.003024
105 0.002992
52 0.003036
15 0.002993
22 0.002994
44 0.002993
66 0.002993
85 0.003029
92 0.002992
87 0.00304
84 0.003035
92 0.003002
102 0.002992
113 0.002992
121 0.002043
134 0.001995
131 0.001995
87 0.0034
43 0.003007
33 0.002991
57 0.002993
79 0.002993
100 0.001999
111 0.003
106 0.00296
101 0.002993
105 0.002993
115 0.002987
123 0.002987
133 0.002993
141 0.002992
149 0.002027
153 0.002994
118 0.001961
67 0.00204
51 0.002032
71 0.001995
94 0.001994
114 0.001996
125 0.001995
118 0.001994
112 0.001996
113 0.002992
119 0.000998
131 0.002002
139 0.001995
146 0.002042
159 0.002003
159 0.001995
120 0.001997
75 0.001773
60 0.001995
76 0.001996
101 0.001996
123 0.001991
135 0.001995
130 0.000999
120 0.000997
115 0.001995
127 0.001996
138 0.001997
147 0.001966
153 0.001996
162 0.000983
161 0.001994
119 0.000998
69 0.001997
52 0.002023
63 0.002047
91 0.001994
114 0.000997
128 0.001003
121 0.000997
111 0.000965
110 0.002047
117 0.000997
131 0.000997
140 0.001965
150 0.000989
157 0.002011
164 0.000998
115 0.000997
64 0.001997
51 0.000999
72 0.002019
93 0.000998
110 0.000998
122 0.000998
119 0.000998
112 0.0
111 0.001014
117 0.000998
124 0.000987
134 0.0
142 0.000999
155 0.000983
145 0.00098
90 0.000998
47 0.000997
40 0.0
64 0.001997
86 0.0
105 0.0
116 0.0
115 0.0
108 0.000998
107 0.001002
119 0.000997
128 0.000997
137 0.000998
145 0.000997
153 0.000997
155 0.0
114 0.0
60 0.0
40 0.0
52 0.0
84 0.000998
105 0.0
125 0.0
120 0.000998
114 0.000997
112 0.0
115 0.0
124 0.0
133 0.0
141 0.001
148 0.0
156 0.0
144 0.0
89 0.001031
46 0.0
60 0.0
92 0.0
106 0.0
128 0.0
127 0.000999
118 0.001043
113 0.0
119 0.0
123 0.000998
135 0.001007
143 0.001
156 0.000999
162 0.000959
137 0.000998
71 0.0
56 0.0
61 0.000997
91 0.000998
114 0.0
136 0.0
137 0.0
126 0.0
116 0.0
122 0.0
132 0.000998
141 0.000988
152 0.0
157 0.001007
161 0.0
115 0.000998
71 0.000998
62 0.0
75 0.000998
98 0.000997
127 0.001031
140 0.0
130 0.001031
121 0.001001
125 0.0
132 0.0
140 0.0
148 0.001003
156 0.000996
160 0.0
126 0.0
73 0.0
50 0.000999
72 0.0
92 0.000997
112 0.001063
127 0.0
123 0.0
117 0.0
114 0.000997
118 0.000998
128 0.000997
138 0.000971
145 0.000999
151 0.001997
100 0.000999
56 0.002032
46 0.002039
67 0.000959
87 0.0
105 0.001023
118 0.001019
116 0.002417
109 0.0
110 0.000962
116 0.001039
124 0.00103
141 0.0
150 0.001996
154 0.002013
104 0.001001
60 0.000998
51 0.000999
66 0.001995
85 0.001996
109 0.000999
119 0.001012
117 0.001001
112 0.002
111 0.002036
119 0.001995
128 0.001995
140 0.000998
148 0.001995
155 0.001994
144 0.002988
95 0.002993
50 0.000962
54 0.000989
74 0.001005
93 0.001995
117 0.001938
116 0.001996
110 0.002011
106 0.002959
112 0.000996
120 0.001
128 0.001996
135 0.002993
142 0.001995
151 0.001995
149 0.001993
109 0.001995
51 0.001994
57 0.001996
77 0.002991
98 0.002992
119 0.000996
120 0.002002
113 0.002
108 0.003022
109 0.002992
120 0.001995
129 0.001995
137 0.00199
149 0.001994
156 0.001994
158 0.002988
123 0.002992
70 0.002051
68 0.002043
87 0.002027
109 0.00299
129 0.002992
144 0.002037
139 0.002001
127 0.001989
127 0.00203
138 0.002998
149 0.003989
159 0.003027
169 0.002031
176 0.001994
183 0.002993
163 0.002992
114 0.002987
86 0.002009
99 0.003027
120 0.00203
149 0.001984
159 0.003027
158 0.003029
152 0.003026
152 0.001996
161 0.002992
171 0.002995
179 0.003988
186 0.003989
195 0.002992
201 0.001994
199 0.002993
126 0.002979
104 0.003023
110 0.003989
129 0.002991
151 0.002996
166 0.002996
171 0.002992
168 0.004024
166 0.00402
169 0.002995
178 0.002999
187 0.003041
201 0.003024
208 0.001972
214 0.004023
219 0.004025
190 0.003022
140 0.003027
117 0.002989
124 0.004022
144 0.004021
163 0.003958
176 0.00396
181 0.002001
175 0.003025
173 0.003001
176 0.003979
183 0.004031
193 0.003035
198 0.002991
203 0.002991
209 0.00399
214 0.004992
214 0.003996
175 0.004011
131 0.00402
121 0.004022
139 0.003041
156 0.002996
169 0.005029
178 0.004987
172 0.002994
167 0.002998
166 0.002993
170 0.003989
176 0.004028
187 0.00399
192 0.003954
199 0.003986
202 0.00402
206 0.002995
202 0.004992
159 0.005019
112 0.004043
111 0.004025
126 0.002975
144 0.004987
159 0.005984
170 0.003983
165 0.003975
154 0.004022
156 0.003989
162 0.003987
169 0.004988
174 0.004987
181 0.003989
185 0.003989
189 0.004027
193 0.006037
176 0.004987
113 0.003993
93 0.003987
111 0.003993
130 0.004021
146 0.003992
157 0.005986
155 0.004987
145 0.004987
141 0.00399
144 0.004985
151 0.005984
158 0.005984
165 0.005022
171 0.004986
180 0.004024
172 0.004042
124 0.005034
83 0.005985
74 0.006032
92 0.004987
110 0.003982
126 0.004024
138 0.006027
136 0.006951
125 0.003988
123 0.004038
132 0.004987
140 0.004991
146 0.004987
153 0.00602
160 0.005975
168 0.004996
145 0.004999
93 0.00499
65 0.005998
67 0.006016
92 0.00502
110 0.004956
133 0.006018
133 0.005954
127 0.005023
124 0.006018
128 0.006983
138 0.005985
147 0.005981
156 0.005025
162 0.007017
168 0.006981
164 0.004987
117 0.004989
69 0.006981
72 0.004977
92 0.004989
109 0.004986
123 0.006023
129 0.005984
124 0.005989
117 0.004985
117 0.006017
124 0.006981
133 0.005982
142 0.005983
152 0.006986
160 0.006018
155 0.005986
109 0.005985
69 0.006982
59 0.00699
79 0.006018
98 0.005023
114 0.004987
122 0.007013
120 0.007019
109 0.005044
112 0.006983
123 0.005985
132 0.006983
140 0.006034
149 0.007983
152 0.007015
153 0.006019
114 0.005989
72 0.006017
61 0.006982
72 0.007017
98 0.005021
122 0.006966
126 0.005987
117 0.005995
109 0.005979
110 0.007012
117 0.007025
128 0.005984
136 0.005983
143 0.006979
149 0.007978
147 0.007976
93 0.007026
53 0.007978
63 0.005975
83 0.005976
104 0.006971
119 0.007974
121 0.006982
108 0.005988
103 0.006974
106 0.00695
113 0.00798
121 0.007949
132 0.006982
143 0.00801
134 0.007035
88 0.007025
49 0.006009
43 0.007015
61 0.007997
81 0.006023
101 0.006985
105 0.006817
99 0.007979
89 0.008002
89 0.006996
100 0.007974
108 0.006989
116 0.00698
124 0.00698
130 0.006983
99 0.006981
52 0.00698
30 0.006981
23 0.00599
40 0.007974
59 0.007944
74 0.006992
74 0.007017
73 0.00698
82 0.006891
90 0.007007
103 0.007006
119 0.007015
129 0.00697
140 0.006965
128 0.006979
79 0.006989
45 0.007015
43 0.00798
74 0.007026
91 0.007013
107 0.006983
108 0.007015
104 0.007014
101 0.007021
105 0.006989
115 0.007014
120 0.006961
129 0.006981
137 0.00699
143 0.00701
126 0.006954
77 0.006983
42 0.006982
51 0.006976
70 0.00698
87 0.007017
101 0.007024
105 0.006763
100 0.006983
95 0.006811
97 0.006979
104 0.006026
119 0.006023
125 0.006976
133 0.006973
140 0.007014
144 0.007019
121 0.006989
72 0.006981
44 0.005985
55 0.005985
76 0.005975
95 0.006
109 0.005953
109 0.00602
101 0.005945
101 0.007013
108 0.007016
116 0.00602
124 0.006019
131 0.007019
138 0.006017
144 0.007033
150 0.006017
130 0.005982
80 0.005984
51 0.005984
70 0.005983
101 0.006976
120 0.005887
129 0.006432
126 0.005767
118 0.005688
117 0.005982
125 0.006016
135 0.005102
142 0.005989
148 0.004977
157 0.006018
163 0.005954
161 0.005982
117 0.005991
72 0.00602
58 0.005981
70 0.006019
97 0.006019
115 0.006029
128 0.005981
127 0.006267
121 0.005954
123 0.006016
133 0.006015
147 0.005017
155 0.005983
162 0.005031
169 0.00502
174 0.005022
178 0.005027
151 0.004988
93 0.004989
64 0.004991
64 0.004987
96 0.005032
113 0.005017
124 0.005028
123 0.005028
116 0.005033
112 0.005022
115 0.005041
124 0.005024
138 0.00565
145 0.005846
153 0.005032
161 0.004979
171 0.004986
162 0.004987
112 0.004987
59 0.004468
57 0.004985
77 0.004989
99 0.005019
117 0.004026
133 0.004
131 0.003984
123 0.004985
120 0.004992
132 0.00503
141 0.005022
151 0.004977
165 0.005275
173 0.004988
179 0.004987
185 0.004987
181 0.004992
111 0.004991
67 0.00499
57 0.004985
71 0.004998
100 0.004071
109 0.003972
110 0.005014
93 0.003989
84 0.004022
79 0.004026
84 0.00399
94 0.004987
105 0.003956
114 0.003957
121 0.004988
130 0.00399
140 0.004027
104 0.004022
54 0.003038
33 0.00399
50 0.004733
74 0.004011
95 0.003981
113 0.003982
115 0.00399
106 0.00399
100 0.003982
103 0.003993
118 0.004026
127 0.004031
136 0.00399
146 0.003989
155 0.00399
153 0.003995
107 0.003982
59 0.003034
45 0.003004
62 0.003989
86 0.002991
107 0.002985
123 0.003991
116 0.002991
106 0.004014
107 0.004022
115 0.003956
124 0.002954
131 0.002993
140 0.003031
149 0.002992
153 0.002991
128 0.002974
70 0.002958
32 0.004035
46 0.004016
68 0.003274
87 0.003334
107 0.004114
106 0.00369
97 0.003137
92 0.003018
97 0.002967
109 0.002943
120 0.003008
129 0.002992
143 0.002992
148 0.002993
122 0.002993
63 0.002992
25 0.003026
34 0.003052
56 0.002992
77 0.003022
95 0.002811
102 0.002994
98 0.003118
93 0.002956
102 0.003045
110 0.002992
120 0.001996
129 0.002997
138 0.003032
145 0.00305
136 0.002994
81 0.003005
33 0.002957
25 0.002006
45 0.002979
66 0.002992
93 0.003
96 0.002992
91 0.002997
86 0.002992
89 0.002992
99 0.001995
108 0.002991
117 0.001996
125 0.002993
135 0.002992
138 0.002992
112 0.001995
28 0.001996
18 0.001995
33 0.001995
55 0.002993
81 0.001931
92 0.003023
87 0.001995
79 0.001995
75 0.00199
83 0.002006
91 0.001951
101 0.001956
115 0.001995
122 0.000998
128 0.001996
118 0.001995
51 0.001996
21 0.002019
22 0.001995
44 0.002004
68 0.001996
95 0.001998
100 0.001958
91 0.001998
80 0.002038
85 0.000982
93 0.000998
102 0.000998
113 0.000997
120 0.000998
128 0.001995
125 0.001996
81 0.001991
25 0.001985
20 0.001
40 0.000998
78 0.000997
97 0.000995
98 0.000965
89 0.000999
82 0.001031
85 0.000953
95 0.000956
105 0.001005
114 0.000998
122 0.000995
133 0.001992
124 0.001996
39 0.001002
16 0.001029
22 0.000998
43 0.000995
61 0.000998
83 0.000998
84 0.001007
71 0.001001
63 0.000984
66 0.001001
80 0.001996
89 0.002002
103 0.000998
112 0.0
118 0.001
85 0.000997
28 0.000999
1 0.000997
14 0.000997
38 0.000999
58 0.000995
76 0.00096
79 0.000997
73 0.0
71 0.000998
80 0.0
91 0.0
101 0.000992
107 0.000997
118 0.00104
114 0.0
62 0.0
13 0.0
0 0.0
17 0.000965
38 0.00098
68 0.0
72 0.0
66 0.0
59 0.0
59 0.0
70 0.0
80 0.0
92 0.0
100 0.0
106 0.0
88 0.0
31 0.0
0 0.0
0 0.0
18 0.000998
37 0.0
55 0.0
61 0.000999
56 0.0
54 0.0
57 0.0
66 0.0
80 0.0
91 0.0
106 0.00103
109 0.0
60 0.000993
16 0.0
7 0.0
32 0.0
62 0.000997
89 0.0
103 0.0
105 0.0
101 0.000965
95 0.001014
106 0.002004
119 0.000997
135 0.0
144 0.0
152 0.000994
161 0.002008
160 0.000998
94 0.0
59 0.0
58 0.000991
78 0.0
100 0.001995
133 0.0
134 0.000999
125 0.001158
117 0.000997
122 0.0
131 0.0
137 0.001029
142 0.000997
156 0.0
176 0.0
195 0.0
185 0.002006
103 0.000997
91 0.002024
107 0.000998
127 0.000985
154 0.0
173 0.0
169 0.001995
159 0.001996
156 0.0
166 0.0
173 0.0
178 0.000995
176 0.0
184 0.001995
192 0.001995
147 0.0
92 0.0
71 0.0
78 0.001995
101 0.001995
129 0.0
144 0.0
145 0.0
136 0.001003
137 0.0
145 0.001029
151 0.001995
160 0.0
167 0.002079
180 0.001001
187 0.001
160 0.001994
86 0.0
66 0.001974
74 0.0
93 0.00199
127 0.0
145 0.002031
146 0.001962
137 0.000995
138 0.000985
148 0.001007
162 0.001998
174 0.001995
187 0.0
198 0.000998
209 0.001956
192 0.001991
104 0.002028
89 0.001979
102 0.001994
131 0.000997
149 0.000997
166 0.001995
168 0.001993
162 0.00296
160 0.002001
166 0.000997
175 0.000997
183 0.002992
198 0.00099
209 0.001995
217 0.002049
198 0.00195
146 0.00103
116 0.000995
118 0.002989
138 0.003006
168 0.000997
186 0.000997
194 0.001997
192 0.002989
182 0.001
186 0.002955
197 0.001993
209 0.001994
219 0.000993
226 0.000996
232 0.000998
238 0.001993
227 0.003026
163 0.001034
136 0.001984
140 0.000991
175 0.002032
199 0.000998
215 0.002996
213 0.002992
204 0.001007
202 0.002009
207 0.001967
218 0.003024
228 0.00294
238 0.001996
246 0.001994
254 0.001982
240 0.001949
187 0.002356
155 0.002992
152 0.002944
177 0.001996
195 0.001002
213 0.000998
218 0.004037
207 0.004037
193 0.001994
195 0.00199
203 0.001992
223 0.001996
234 0.00202
240 0.003018
187 0.002993
181 0.002034
158 0.001964
143 0.001004
143 0.002978
150 0.003023
162 0.001985
174 0.001991
179 0.002993
172 0.001999
168 0.001991
169 0.003982
172 0.00399
176 0.002994
181 0.001997
184 0.001996
188 0.004022
180 0.002993
150 0.001951
137 0.001995
137 0.002011
150 0.002961
160 0.002034
165 0.004956
160 0.004955
149 0.003035
146 0.002025
146 0.001005
149 0.00397
151 0.003985
156 0.002023
159 0.001998
157 0.002995
119 0.00302
103 0.00299
102 0.004985
107 0.004986
119 0.002987
127 0.001995
129 0.002052
124 0.003988
121 0.004988
121 0.002987
125 0.001999
131 0.003025
140 0.003974
145 0.002992
144 0.004021
123 0.004986
100 0.004986
93 0.003109
100 0.002998
110 0.003
120 0.004969
127 0.006019
126 0.004023
123 0.004021
125 0.00399
128 0.003993
133 0.003981
138 0.004988
142 0.004987
151 0.003025
129 0.003996
100 0.003027
89 0.006004
92 0.006021
111 0.003033
128 0.001942
146 0.004023
152 0.003957
153 0.003959
156 0.005984
163 0.005985
177 0.003991
188 0.003989
196 0.003985
203 0.005021
203 0.006015
175 0.002991
160 0.003993
169 0.003024
182 0.003989
194 0.004003
203 0.005993
205 0.005974
205 0.003956
206 0.003921
208 0.003993
211 0.005999
217 0.00596
228 0.003989
233 0.003997
235 0.003993
220 0.005015
202 0.003995
198 0.007032
205 0.006033
219 0.003976
229 0.004987
235 0.00498
234 0.006035
231 0.00602
231 0.004956
234 0.003956
187 0.00493
189 0.004978
191 0.004986
192 0.005988
194 0.005983
192 0.004214
180 0.004993
174 0.0053
176 0.005984
181 0.005985
187 0.004645
190 0.004262
189 0.004992
187 0.004996
187 0.004986
188 0.006983
190 0.006
192 0.004988
194 0.004988
195 0.004997
196 0.007017
197 0.007037
193 0.004994
180 0.006011
175 0.007014
180 0.005098
185 0.004984
189 0.005019
192 0.007034
192 0.006026
189 0.005008
187 0.004993
187 0.005988
188 0.006016
189 0.006983
190 0.005983
190 0.006983
191 0.005984
190 0.005981
181 0.004999
172 0.007014
170 0.007027
174 0.006019
177 0.004994
179 0.005987
180 0.007978
177 0.007983
175 0.00599
174 0.00802
175 0.005994
176 0.005952
177 0.005998
178 0.007009
178 0.007021
177 0.006951
171 0.005035
160 0.007023
157 0.007972
160 0.007976
163 0.004987
167 0.008007
168 0.006016
166 0.005983
233 0.007014
229 0.00798
232 0.007733
237 0.006054
240 0.005948
186 0.005983
188 0.007978
187 0.007979
175 0.005983
158 0.007993
160 0.007026
168 0.007
173 0.006951
178 0.007473
180 0.007975
176 0.006976
173 0.005948
174 0.00695
176 0.007977
178 0.007978
180 0.00598
183 0.007014
184 0.006981
170 0.006982
159 0.006979
155 0.007992
158 0.008016
168 0.006981
173 0.005974
176 0.006987
174 0.00797
171 0.007945
170 0.006015
172 0.007063
174 0.006978
175 0.006935
176 0.006981
179 0.006986
176 0.006983
161 0.006982
149 0.005985
148 0.006981
155 0.007978
161 0.006985
164 0.006653
161 0.007975
158 0.007014
154 0.006999
154 0.006987
156 0.006979
158 0.00699
161 0.007398
162 0.006608
163 0.006988
157 0.006965
137 0.006976
131 0.00699
139 0.007015
144 0.006949
149 0.007
149 0.006981
145 0.00698
142 0.006962
142 0.006988
143 0.006978
145 0.006983
147 0.006953
171 0.006987
175 0.005983
149 0.00702
118 0.006015
111 0.005984
123 0.005981
139 0.005985
149 0.005987
156 0.005983
145 0.005982
139 0.005989
135 0.006978
136 0.006988
139 0.00599
148 0.007021
153 0.006999
153 0.006018
133 0.005984
99 0.005987
86 0.005986
95 0.005979
111 0.006009
122 0.005937
131 0.005972
128 0.00597
119 0.005987
113 0.006976
116 0.00544
122 0.005643
127 0.006161
133 0.005982
136 0.005993
133 0.006022
91 0.005963
69 0.005984
69 0.004977
81 0.006003
96 0.005984
113 0.005983
108 0.005984
97 0.005985
95 0.004988
94 0.005985
99 0.006003
105 0.004996
112 0.005954
114 0.004991
118 0.004985
94 0.00599
59 0.005978
50 0.006018
64 0.006027
82 0.005021
93 0.005986
93 0.005991
84 0.004983
79 0.004987
79 0.005985
84 0.004986
89 0.004985
96 0.005981
101 0.005984
101 0.006026
70 0.004699
39 0.005279
32 0.00546
46 0.005003
63 0.004988
75 0.003991
80 0.005853
74 0.00499
70 0.005984
66 0.004986
69 0.004987
81 0.004988
87 0.005036
92 0.00502
95 0.004993
64 0.004992
33 0.004983
22 0.004018
32 0.004971
52 0.004993
69 0.004993
79 0.003972
73 0.004005
63 0.00402
65 0.004029
72 0.004991
78 0.004982
84 0.003993
94 0.003976
98 0.003951
80 0.00399
31 0.004993
18 0.004935
24 0.004987
39 0.00399
66 0.004024
72 0.004031
65 0.004043
60 0.003959
65 0.004079
68 0.003988
72 0.00399
81 0.003991
91 0.003989
98 0.003989
92 0.003989
54 0.003991
19 0.00399
30 0.004028
48 0.00403
69 0.003966
78 0.003986
75 0.003985
70 0.003956
69 0.004007
75 0.00396
83 0.003957
92 0.003989
99 0.00396
108 0.003019
97 0.002993
44 0.003978
0 0.003991
0 0.002998
8 0.002981
34 0.002962
51 0.003971
57 0.00395
52 0.003951
47 0.003954
44 0.003959
58 0.004027
68 0.002987
77 0.003969
88 0.002992
96 0.00299
98 0.002992
57 0.002993
1 0.003019
0 0.00296
5 0.003953
29 0.002988
47 0.003002
66 0.003751
61 0.004522
53 0.003438
53 0.004789
66 0.002949
74 0.002988
84 0.002987
97 0.002991
102 0.002992
118 0.002992
103 0.002951
44 0.00299
0 0.002993
71 0.003018
87 0.002975
99 0.003002
110 0.002992
107 0.002979
102 0.003035
101 0.002993
105 0.00395
111 0.003758
116 0.001994
121 0.001994
131 0.001996
135 0.001996
136 0.001995
112 0.001995
76 0.001987
72 0.002958
82 0.002953
96 0.003002
110 0.002975
118 0.002991
116 0.003016
112 0.003002
111 0.001995
115 0.001995
123 0.002001
128 0.00201
132 0.001995
138 0.001996
142 0.001951
144 0.001999
127 0.001983
86 0.002075
77 0.001996
84 0.002
108 0.002027
120 0.002034
125 0.001995
121 0.001947
113 0.002002
114 0.001991
120 0.002015
125 0.001963
131 0.001998
139 0.000998
144 0.001996
147 0.001995
135 0.001995
99 0.002031
78 0.001953
81 0.001993
100 0.001006
116 0.001986
128 0.001963
132 0.001994
128 0.000963
121 0.000997
120 0.000998
123 0.000997
132 0.001996
138 0.000997
143 0.000997
147 0.000998
157 0.000996
108 0.001984
59 0.000978
45 0.001995
59 0.000996
92 0.001025
112 0.000998
128 0.000998
123 0.000997
114 0.000988
112 0.000993
117 0.000995
125 0.001997
141 0.001994
149 0.000995
155 0.000996
163 0.000997
148 0.000997
71 0.000998
45 0.000998
66 0.000988
89 0.000997
107 0.000997
121 0.000999
122 0.0
110 0.000993
105 0.000997
113 0.000999
121 0.001011
131 0.000982
142 0.000998
152 0.000965
160 0.000997
119 0.0
62 0.0
36 0.0
47 0.0
77 0.0
98 0.0
117 0.0
120 0.0
111 0.0
103 0.0
107 0.0
128 0.0
135 0.0
143 0.0
152 0.001004
161 0.000997
129 0.000999
69 0.0
35 0.0
38 0.0
62 0.000998
92 0.0
108 0.0
108 0.0
101 0.0
99 0.0
104 0.0
114 0.0
127 0.0
138 0.0
145 0.0
154 0.0
155 0.000952
87 0.0
40 0.000951
48 0.001997
73 0.000997
98 0.000995
116 0.0
118 0.0
108 0.0
103 0.00103
109 0.0
120 0.0
130 0.000982
139 0.002001
144 0.000995
157 0.001035
147 0.000994
67 0.0
31 0.0
36 0.0
63 0.001995
87 0.001017
112 0.0
116 0.0
109 0.0
102 0.002018
101 0.001999
111 0.001027
122 0.001955
133 0.0
138 0.001001
147 0.0
153 0.0
125 0.001996
67 0.003002
30 0.0
44 0.0
71 0.000966
93 0.001996
117 0.0
114 0.001
104 0.000959
100 0.0
103 0.000998
116 0.0
127 0.00196
135 0.001981
147 0.0
155 0.0
137 0.0
75 0.001002
26 0.000997
38 0.001994
57 0.001997
86 0.0
98 0.000998
100 0.0
91 0.001989
82 0.001999
86 0.0
96 0.0
107 0.0
114 0.001977
128 0.001
136 0.001995
98 0.001029
26 0.0
12 0.0
33 0.0
66 0.000997
92 0.001962
117 0.0
114 0.0
105 0.0
99 0.002005
105 0.0
115 0.001989
123 0.001992
135 0.00198
147 0.000987
135 0.001016
73 0.00199
21 0.001986
18 0.001994
41 0.001993
65 0.000997
84 0.001995
100 0.000982
97 0.002019
94 0.001995
98 0.00099
104 0.001995
118 0.001991
132 0.002989
148 0.002992
148 0.001993
92 0.001985
36 0.001994
18 0.001979
50 0.001997
74 0.002007
92 0.002027
103 0.001995
94 0.001964
84 0.002008
79 0.002979
86 0.002995
108 0.000953
125 0.002013
139 0.001994
141 0.003024
58 0.000993
13 0.002979
3 0.003987
17 0.002959
54 0.001997
75 0.001996
82 0.001994
80 0.002994
74 0.002992
70 0.001991
74 0.001993
86 0.001995
109 0.001994
117 0.001996
112 0.003034
60 0.002992
0 0.001952
0 0.001992
3 0.001995
33 0.002995
52 0.002996
67 0.001994
70 0.001946
64 0.000994
62 0.001984
75 0.000954
89 0.003022
103 0.002998
117 0.002
128 0.000998
99 0.002007
28 0.00399
0 0.004022
0 0.001989
26 0.001997
52 0.000994
80 0.001986
80 0.002025
75 0.00399
82 0.00399
101 0.001995
108 0.001994
113 0.001994
121 0.002996
130 0.00299
140 0.001985
127 0.001994
58 0.00102
58 0.001997
64 0.001025
80 0.004022
90 0.005032
103 0.000974
107 0.001942
106 0.000993
102 0.003989
104 0.003988
113 0.001951
120 0.001984
126 0.00196
133 0.000995
139 0.002005
142 0.003995
143 0.004031
105 0.001995
74 0.002008
65 0.00299
73 0.00502
89 0.005016
104 0.002
115 0.001992
117 0.002991
112 0.00399
112 0.001995
118 0.003989
125 0.004014
134 0.00299
137 0.00296
142 0.002045
145 0.005021
150 0.004977
152 0.002965
132 0.002976
95 0.002992
72 0.001992
84 0.002995
99 0.004988
110 0.00499
122 0.002992
121 0.002993
118 0.002993
115 0.004999
119 0.004986
126 0.004928
136 0.002947
142 0.002971
149 0.002983
152 0.002993
155 0.003
159 0.005017
156 0.004987
109 0.002992
82 0.003028
79 0.003994
92 0.004985
108 0.004987
124 0.003991
131 0.00399
126 0.003985
122 0.003975
123 0.003011
129 0.004994
135 0.005036
148 0.003025
157 0.003036
163 0.003993
168 0.003979
171 0.004919
169 0.003991
132 0.003987
69 0.003035
67 0.003995
84 0.004036
107 0.005988
125 0.00599
136 0.00399
131 0.003989
125 0.003983
123 0.006023
124 0.005975
136 0.003994
144 0.003992
154 0.004952
158 0.003989
165 0.003959
169 0.005948
150 0.005987
86 0.003992
66 0.003989
71 0.003989
89 0.005984
110 0.00599
134 0.003998
137 0.003987
125 0.003991
121 0.002993
122 0.005005
130 0.00549
138 0.00601
148 0.004031
153 0.003005
158 0.003988
163 0.00602
138 0.006016
74 0.004028
59 0.004001
80 0.004975
102 0.004024
121 0.003958
134 0.006182
132 0.005926
119 0.003978
116 0.004008
121 0.003989
128 0.006018
135 0.005985
145 0.004989
153 0.004984
149 0.004987
102 0.004981
58 0.003969
46 0.006981
57 0.00698
86 0.003993
105 0.00399
119 0.004986
120 0.006027
110 0.007022
105 0.00702
108 0.005006
120 0.007026
132 0.004993
139 0.004955
147 0.004967
143 0.007014
100 0.007018
48 0.004951
41 0.005984
56 0.004985
87 0.007971
101 0.007979
116 0.004939
109 0.007014
102 0.004642
104 0.005495
110 0.004329
120 0.007014
132 0.007976
140 0.005995
145 0.006067
125 0.005948
75 0.007943
44 0.007938
49 0.004981
80 0.006981
105 0.004986
118 0.004987
116 0.004987
105 0.007974
103 0.00801
110 0.005981
119 0.005945
128 0.00595
139 0.007974
147 0.007966
139 0.005991
66 0.007971
48 0.006023
56 0.006014
76 0.007009
109 0.007939
125 0.007951
123 0.00605
115 0.005962
111 0.004
112 0.007971
121 0.007959
130 0.005987
144 0.007984
151 0.006019
139 0.005989
93 0.00597
52 0.007973
55 0.00698
75 0.00698
99 0.005008
122 0.006966
126 0.007719
118 0.007978
109 0.005984
111 0.007977
118 0.00599
127 0.006981
135 0.006982
144 0.006978
137 0.006985
92 0.005973
55 0.006959
46 0.006954
59 0.008013
90 0.007282
117 0.006972
118 0.006945
107 0.006982
101 0.006979
102 0.006935
111 0.007996
120 0.007976
130 0.006005
136 0.006023
136 0.006683
79 0.006982
41 0.00694
33 0.006936
63 0.006982
86 0.007013
106 0.006945
108 0.00695
94 0.006981
86 0.006999
89 0.007981
101 0.006982
108 0.006981
115 0.006981
128 0.006981
120 0.006981
41 0.006982
20 0.006981
26 0.00629
48 0.006091
79 0.007014
95 0.006982
94 0.007055
86 0.006965
79 0.00694
82 0.00598
91 0.007014
102 0.007013
116 0.005966
119 0.00694
74 0.005944
27 0.005948
11 0.005981
19 0.005984
39 0.005983
65 0.006017
76 0.005983
68 0.006981
55 0.006033
53 0.006979
56 0.00598
70 0.006978
86 0.006017
95 0.00602
100 0.005983
79 0.005984
33 0.005985
7 0.005989
20 0.005983
45 0.006357
66 0.005981
86 0.005992
88 0.00595
79 0.005666
79 0.005975
87 0.005987
98 0.005981
108 0.006012
116 0.005984
126 0.005948
100 0.005981
51 0.004986
23 0.006028
26 0.004989
64 0.00578
83 0.005052
97 0.005726
90 0.004985
82 0.004986
82 0.005296
83 0.005241
93 0.004993
106 0.005988
112 0.006019
115 0.006023
105 0.00602
30 0.005949
15 0.00598
33 0.004988
55 0.00499
76 0.004987
89 0.005012
87 0.004981
74 0.004966
71 0.004989
74 0.004987
88 0.00502
97 0.006015
112 0.005983
115 0.005026
81 0.004989
21 0.005005
12 0.004995
25 0.004997
47 0.004985
66 0.004989
86 0.00502
83 0.005032
74 0.004988
73 0.004033
91 0.00498
108 0.004981
123 0.003987
137 0.003937
128 0.004991
80 0.004998
37 0.004024
26 0.003988
50 0.004
72 0.004029
101 0.003956
120 0.004981
115 0.004985
108 0.004986
111 0.005011
125 0.004992
137 0.004982
147 0.004987
159 0.005001
158 0.003986
91 0.003992
58 0.005041
56 0.005022
74 0.00399
110 0.004991
130 0.004621
136 0.003957
129 0.003959
127 0.003955
134 0.003986
144 0.003949
154 0.002992
166 0.003004
174 0.003927
172 0.00399
126 0.003989
61 0.003988
65 0.002995
84 0.003987
108 0.003957
127 0.004014
132 0.003987
128 0.003955
125 0.003981
128 0.003991
139 0.003991
149 0.00399
154 0.003995
180 0.003991
181 0.0038
153 0.003348
79 0.003949
60 0.003952
69 0.003944
89 0.003957
109 0.003951
133 0.003013
134 0.004034
127 0.004054
123 0.00296
131 0.002992
143 0.001994
152 0.003992
162 0.002995
168 0.002996
176 0.003
169 0.00297
117 0.001988
63 0.004046
63 0.004021
82 0.004001
103 0.002975
133 0.003007
139 0.00304
131 0.002999
124 0.003008
129 0.002988
141 0.002991
151 0.002993
160 0.002993
169 0.002991
177 0.003032
181 0.002992
162 0.003027
82 0.003946
70 0.002992
83 0.003958
106 0.002995
133 0.002994
147 0.002986
147 0.003947
141 0.002989
136 0.001996
142 0.002993
154 0.002993
163 0.003009
175 0.002999
183 0.002963
190 0.002994
170 0.001983
99 0.001987
77 0.002982
84 0.002002
104 0.001995
123 0.001995
148 0.002994
154 0.00199
148 0.001996
141 0.002012
147 0.002028
158 0.001994
167 0.002995
179 0.002992
186 0.001996
193 0.001995
175 0.001993
121 0.001986
82 0.001996
84 0.001995
103 0.002028
134 0.002011
151 0.001992
155 0.001996
148 0.001996
142 0.00098
149 0.000994
157 0.002003
168 0.001971
175 0.001995
186 0.001983
193 0.002038
183 0.001995
98 0.001991
79 0.001994
86 0.001991
103 0.001019
131 0.000998
146 0.000979
150 0.001012
145 0.001007
140 0.000997
141 0.000998
148 0.001995
161 0.000998
175 0.001995
183 0.001995
189 0.001995
169 0.000991
96 0.000998
73 0.00099
80 0.000998
99 0.000975
120 0.000998
142 0.000999
150 0.002052
145 0.00199
138 0.001962
141 0.002
152 0.002006
162 0.001009
170 0.000996
177 0.000997
186 0.001004
171 0.000997
114 0.000981
76 0.000997
73 0.001009
96 0.001008
128 0.001004
142 0.000997
145 0.000967
139 0.000996
137 0.0
139 0.001009
148 0.000998
162 0.0
173 0.0
177 0.0
187 0.0
174 0.0
92 0.001022
74 0.000986
83 0.0
110 0.001005
136 0.000999
160 0.000985
165 0.000999
155 0.0
152 0.0
156 0.0
166 0.0
177 0.0
192 0.0
200 0.0
207 0.0
185 0.0
131 0.0
93 0.0
99 0.0
122 0.0
148 0.0
168 0.0
175 0.0
168 0.0
160 0.001017
164 0.0
172 0.0
181 0.000995
189 0.0
200 0.0
206 0.002992
185 0.0
131 0.0
97 0.0
101 0.0
125 0.0
164 0.0
175 0.001995
169 0.0
160 0.0
155 0.0
155 0.001995
166 0.001967
176 0.000954
178 0.0
187 0.001002
193 0.000997
158 0.001035
85 0.001001
86 0.001999
108 0.0
131 0.0
155 0.0
163 0.002003
154 0.001996
140 0.0
141 0.0
147 0.0
154 0.002032
160 0.002026
175 0.002025
178 0.001994
131 0.0
89 0.000997
76 0.0
84 0.001995
105 0.00299
131 0.002043
153 0.0
152 0.000965
139 0.0
132 0.002032
139 0.001011
142 0.002007
151 0.000994
163 0.0
166 0.0
136 0.0
86 0.001991
63 0.001994
72 0.0
92 0.0
114 0.0
132 0.002027
129 0.0
120 0.001996
117 0.001998
121 0.0
130 0.0
141 0.0
150 0.002038
152 0.002035
110 0.0
67 0.000964
52 0.001002
61 0.001994
97 0.0
117 0.001995
126 0.001996
120 0.0
113 0.0
110 0.0
116 0.00404
125 0.002028
139 0.0
147 0.0
143 0.0
101 0.002028
53 0.0
59 0.002031
80 0.001962
110 0.001001
128 0.0
130 0.0
120 0.002993
115 0.00199
118 0.0
127 0.0
137 0.0
148 0.001963
148 0.0
106 0.001978
70 0.001987
63 0.0
80 0.001991
103 0.001995
126 0.003052
137 0.003018
130 0.002029
123 0.000996
120 0.0
125 0.002992
138 0.000976
148 0.001984
154 0.001974
115 0.002003
73 0.001992
60 0.001998
70 0.002992
90 0.002992
119 0.002003
132 0.0
128 0.0
118 0.002993
115 0.001994
120 0.003001
128 0.002956
143 0.000957
149 0.001989
130 0.002
84 0.002992
56 0.003
59 0.001989
79 0.002007
101 0.001973
119 0.001987
118 0.001981
108 0.001999
105 0.003024
109 0.002985
120 0.00099
130 0.002006
139 0.001997
133 0.002993
91 0.002993
51 0.000995
51 0.001032
70 0.001993
111 0.001994
127 0.00196
126 0.003995
118 0.003989
112 0.001995
117 0.001995
126 0.00299
135 0.004024
145 0.004001
147 0.002028
108 0.000985
66 0.001992
57 0.00198
76 0.001999
98 0.002984
118 0.003027
124 0.002007
115 0.001994
109 0.001988
110 0.00303
119 0.003989
132 0.001996
145 0.001993
152 0.001996
105 0.001002
65 0.001978
53 0.004004
64 0.002987
90 0.001995
112 0.001998
121 0.00199
110 0.003989
96 0.00402
87 0.001994
99 0.002953
116 0.002999
133 0.002033
134 0.00199
112 0.003986
62 0.003879
24 0.00198
27 0.001994
38 0.001983
52 0.004014
71 0.003988
71 0.003001
64 0.002994
66 0.001964
77 0.002954
89 0.004
103 0.004983
112 0.004929
113 0.001998
75 0.001991
34 0.001996
22 0.004987
36 0.00504
67 0.002966
92 0.002993
109 0.002992
110 0.001996
104 0.002991
110 0.004993
126 0.00499
140 0.003003
153 0.002026
164 0.002993
152 0.00296
106 0.004956
77 0.00503
79 0.002987
97 0.002997
135 0.002039
150 0.002995
147 0.002
140 0.005986
134 0.005022
141 0.002993
153 0.002993
163 0.002993
177 0.004987
181 0.005045
130 0.003019
86 0.002978
73 0.002041
91 0.003246
114 0.00337
132 0.005988
142 0.005976
139 0.003979
134 0.002995
135 0.004016
141 0.006014
147 0.005986
162 0.001995
176 0.003989
144 0.002992
90 0.002003
65 0.002989
70 0.00604
89 0.006034
114 0.003989
130 0.002997
138 0.003004
138 0.004986
134 0.005981
140 0.003026
154 0.004026
175 0.001943
181 0.002953
192 0.00301
186 0.004995
135 0.006917
86 0.004021
86 0.004031
103 0.003996
122 0.006015
144 0.006005
163 0.003946
162 0.003985
160 0.002992
165 0.003986
174 0.004007
186 0.007005
195 0.007026
207 0.004986
214 0.00399
198 0.003988
140 0.005986
100 0.005984
98 0.003994
115 0.003987
153 0.00403
169 0.002992
169 0.003983
161 0.007019
156 0.007014
162 0.003989
170 0.005995
179 0.005003
186 0.006981
194 0.006944
206 0.004958
182 0.005041
95 0.003974
85 0.005003
97 0.00498
116 0.007127
140 0.006981
156 0.006977
154 0.004974
150 0.005948
148 0.005979
150 0.007981
156 0.006981
171 0.005021
185 0.007972
194 0.004987
187 0.005981
132 0.005985
87 0.006981
75 0.006981
93 0.004986
115 0.005984
137 0.004991
151 0.007971
148 0.007962
139 0.004987
138 0.007953
152 0.005004
161 0.005533
168 0.004988
177 0.006952
188 0.007972
163 0.005979
101 0.005985
67 0.005985
65 0.007973
82 0.007978
113 0.004988
139 0.007015
141 0.004983
133 0.00597
130 0.005993
134 0.007979
148 0.00795
156 0.005983
167 0.004986
177 0.004986
183 0.007979
153 0.006981
78 0.004987
60 0.007974
80 0.005985
104 0.005983
129 0.005984
143 0.007979
137 0.008013
129 0.005952
129 0.005958
135 0.005034
147 0.007974
158 0.007972
168 0.00603
177 0.006954
136 0.005979
76 0.006023
50 0.005988
55 0.007929
83 0.007978
109 0.00599
131 0.005982
133 0.005985
124 0.007015
119 0.007978
122 0.005995
138 0.007967
150 0.006021
160 0.004988
169 0.005983
151 0.007012
89 0.00698
52 0.00597
47 0.006
65 0.00598
98 0.007979
121 0.006981
131 0.005983
120 0.006984
117 0.006974
118 0.00695
127 0.005994
145 0.006977
155 0.007
168 0.006943
157 0.006939
101 0.005955
60 0.006015
54 0.006017
72 0.006018
116 0.006982
138 0.006988
142 0.006972
133 0.00697
130 0.006983
135 0.007015
145 0.007009
159 0.005983
170 0.006024
183 0.005979
184 0.006018
143 0.006015
85 0.005996
85 0.005991
116 0.006964
135 0.006978
163 0.006977
167 0.007144
160 0.006217
155 0.005984
160 0.005985
169 0.005985
182 0.005985
192 0.006978
206 0.006881
194 0.006982
134 0.005985
112 0.005981
119 0.006164
143 0.005025
167 0.007016
190 0.006977
199 0.006947
187 0.006093
180 0.006951
182 0.005993
193 0.005953
205 0.005971
218 0.00601
223 0.005977
200 0.005986
157 0.005727
135 0.005984
142 0.005981
163 0.006011
189 0.005982
204 0.006023
198 0.006027
189 0.006007
186 0.004987
192 0.005985
201 0.005991
209 0.005985
217 0.005984
219 0.004988
176 0.005984
143 0.005981
137 0.005991
148 0.005995
171 0.005028
193 0.005516
195 0.005794
183 0.005983
177 0.005986
179 0.005985
188 0.005017
194 0.005019
203 0.004986
204 0.004992
179 0.005026
142 0.004951
125 0.004988
136 0.004984
163 0.005019
183 0.005985
183 0.004989
174 0.005991
168 0.005027
169 0.004988
176 0.005027
185 0.004028
194 0.004874
201 0.005939
183 0.005022
146 0.004047
126 0.004951
139 0.004983
162 0.004987
177 0.004986
180 0.004991
174 0.00502
168 0.005022
169 0.004979
176 0.004994
185 0.005028
192 0.004022
198 0.004025
162 0.003993
139 0.003992
138 0.003959
151 0.004032
171 0.003957
189 0.005005
192 0.005018
182 0.005016
178 0.004987
180 0.004987
186 0.004988
192 0.003947
205 0.004001
202 0.004986
160 0.004988
143 0.004998
147 0.004026
160 0.003991
174 0.00399
191 0.004034
193 0.00382
188 0.003992
183 0.00399
187 0.003991
199 0.003991
207 0.003985
214 0.004024
204 0.003952
172 0.004021
163 0.004032
167 0.004033
193 0.00299
212 0.00301
225 0.002992
227 0.00399
220 0.00399
213 0.004
219 0.00396
232 0.003975
240 0.003988
248 0.004023
244 0.003994
200 0.002992
159 0.003989
160 0.003989
179 0.002969
201 0.002994
218 0.003009
214 0.003959
206 0.00399
206 0.004038
211 0.003994
219 0.004068
228 0.005038
235 0.002991
240 0.00299
206 0.00399
158 0.002992
140 0.002993
147 0.00303
174 0.003985
189 0.003009
189 0.003045
181 0.003034
176 0.002993
177 0.002998
183 0.002993
191 0.002994
199 0.002992
208 0.002992
212 0.002993
184 0.000964
112 0.001994
106 0.002025
121 0.001994
144 0.002993
160 0.002993
164 0.002993
157 0.003041
149 0.003041
149 0.003004
156 0.003003
164 0.002992
170 0.002992
183 0.002996
192 0.002993
170 0.002983
93 0.002995
78 0.002992
86 0.001994
106 0.001996
125 0.001995
146 0.001994
140 0.001995
129 0.002046
128 0.001995
138 0.001995
145 0.002047
153 0.003038
165 0.001995
175 0.001996
180 0.002026
153 0.00204
94 0.001993
63 0.002028
74 0.002032
98 0.003005
122 0.002042
141 0.002
136 0.002039
128 0.001995
134 0.001958
143 0.001963
153 0.001995
164 0.002035
173 0.002031
185 0.001992
197 0.000995
181 0.001996
119 0.001008
78 0.000993
94 0.000942
117 0.000998
147 0.001995
156 0.001995
150 0.002
140 0.001987
140 0.000998
146 0.001996
153 0.002035
164 0.002027
173 0.002029
184 0.001996
193 0.002029
183 0.00203
103 0.001022
71 0.001964
78 0.001006
102 0.002027
126 0.000998
156 0.000999
160 0.001006
153 0.000995
143 0.000993
150 0.001001
160 0.002009
166 0.001002
174 0.001994
184 0.001995
194 0.002033
191 0.001986
143 0.000998
81 0.001996
76 0.000999
92 0.000998
121 0.000998
157 0.000998
156 0.000998
149 0.000997
143 0.000995
143 0.0
152 0.0
164 0.0
174 0.000997
183 0.0
195 0.0
190 0.0
133 0.000958
74 0.0
86 0.0
113 0.0
138 0.0
164 0.000997
162 0.000998
151 0.000998
147 0.000999
148 0.000997
158 0.0
172 0.0
182 0.0
197 0.0
195 0.0
138 0.0
84 0.0
69 0.0
95 0.0
123 0.0
146 0.0
160 0.001001
152 0.000999
141 0.0
141 0.0
155 0.0
164 0.0
175 0.0
185 0.0
191 0.0
142 0.000998
81 0.000998
60 0.0
72 0.000997
107 0.003025
133 0.002993
149 0.000998
139 0.00303
132 0.0
135 0.0
145 0.0
156 0.002031
169 0.002031
182 0.0
187 0.001034
142 0.0
80 0.002028
55 0.002022
75 0.000986
110 0.002036
133 0.0
132 0.0
121 0.0
111 0.002027
110 0.001988
122 0.0
139 0.0
154 0.0
162 0.001997
171 0.002025
129 0.000968
57 0.00203
55 0.000963
85 0.0
115 0.0
142 0.002023
148 0.002003
141 0.0
138 0.0
143 0.000992
150 0.001995
162 0.001994
175 0.001997
189 0.001995
197 0.002028
146 0.000991
89 0.0
72 0.0
88 0.00202
118 0.002979
152 0.0
163 0.000951
158 0.001022
148 0.002031
146 0.002002
158 0.00203
171 0.002029
183 0.0
191 0.000959
197 0.0
173 0.00399
109 0.001996
66 0.000998
76 0.000947
103 0.001005
135 0.002035
157 0.002033
156 0.002039
142 0.002008
143 0.001032
148 0.0
158 0.0
166 0.00195
175 0.002008
184 0.0
161 0.0
99 0.0
62 0.002038
62 0.002028
112 0.002032
138 0.002028
153 0.0
145 0.000974
133 0.0
128 0.003025
133 0.001996
149 0.0
163 0.000962
172 0.000991
178 0.001995
153 0.002992
50 0.002028
39 0.001994
73 0.000998
102 0.0
127 0.0
137 0.002992
128 0.003024
113 0.0
113 0.0
121 0.00096
134 0.002026
146 0.003023
164 0.002026
154 0.00204
60 0.0
18 0.0
23 0.000999
52 0.002993
81 0.002958
111 0.001995
113 0.001992
104 0.002014
96 0.003061
99 0.001995
117 0.002993
133 0.003044
149 0.001993
157 0.001975
126 0.0
54 0.002992
14 0.002993
27 0.0
59 0.002011
87 0.000965
110 0.003035
113 0.002993
95 0.002992
97 0.002992
105 0.002988
121 0.002992
133 0.001995
144 0.00201
154 0.002949
140 0.003029
46 0.002993
11 0.003023
20 0.001995
49 0.002987
96 0.001996
109 0.003989
104 0.004984
90 0.002002
90 0.001962
99 0.001994
112 0.003024
124 0.003023
135 0.002978
147 0.002001
155 0.002066
109 0.004
9 0.001994
8 0.003948
37 0.003985
83 0.001995
106 0.001994
107 0.001995
101 0.003984
96 0.004028
99 0.001995
108 0.002991
121 0.001994
131 0.00399
143 0.001996
154 0.003989
147 0.003989
60 0.002992
18 0.001995
22 0.00198
51 0.00402
82 0.003959
120 0.001992
121 0.001995
109 0.001994
98 0.004926
105 0.00199
116 0.003989
130 0.004025
145 0.001991
155 0.001995
161 0.001981
123 0.00399
51 0.003996
17 0.001995
34 0.001995
67 0.00199
100 0.004025
124 0.001993
113 0.004023
99 0.004023
104 0.002944
113 0.002961
123 0.001995
135 0.004988
147 0.004988
159 0.002991
130 0.002988
57 0.001983
15 0.00399
29 0.001993
61 0.003956
95 0.004986
120 0.001995
110 0.002992
97 0.002996
96 0.005017
103 0.004986
116 0.003021
131 0.003011
144 0.001998
155 0.005028
134 0.001973
60 0.002992
11 0.005984
13 0.005988
59 0.002989
93 0.002956
122 0.002985
126 0.004988
118 0.004987
108 0.002988
112 0.002829
122 0.002028
139 0.00299
144 0.003989
165 0.005979
176 0.005985
85 0.003989
24 0.002992
14 0.002992
34 0.00599
67 0.004974
113 0.002992
128 0.002997
121 0.002992
107 0.001992
108 0.00399
115 0.006015
126 0.005017
139 0.003991
148 0.00397
163 0.00399
146 0.005986
68 0.006025
10 0.002991
18 0.00396
56 0.001996
107 0.00399
120 0.003988
109 0.00602
95 0.006032
94 0.003985
109 0.002975
126 0.004002
145 0.005986
161 0.007019
173 0.003991
176 0.003033
125 0.002991
32 0.00399
37 0.00399
67 0.006981
102 0.005985
137 0.003992
140 0.003989
128 0.00399
117 0.005984
116 0.005984
131 0.003987
144 0.003948
155 0.003135
175 0.003987
183 0.003986
137 0.006006
61 0.005992
29 0.004994
49 0.004987
86 0.00401
114 0.006978
135 0.007016
134 0.004984
118 0.004994
111 0.004987
131 0.004985
141 0.003987
150 0.00603
159 0.007011
177 0.003984
159 0.004022
86 0.003955
31 0.006982
24 0.007014
63 0.004987
98 0.003989
131 0.004986
138 0.00399
119 0.004987
111 0.006981
116 0.007008
127 0.007974
139 0.006013
144 0.004015
161 0.004958
171 0.007012
113 0.007015
27 0.00499
16 0.004985
48 0.003976
82 0.004986
117 0.004949
110 0.007972
95 0.007974
91 0.004985
91 0.005027
98 0.004987
115 0.00801
139 0.007972
149 0.004983
142 0.005014
31 0.004975
1 0.00501
1 0.005957
30 0.007978
59 0.007971
105 0.005994
105 0.005949
90 0.00598
82 0.007977
84 0.007978
90 0.004988
106 0.005983
132 0.005982
143 0.004994
115 0.005992
18 0.007944
0 0.007951
0 0.005991
31 0.004991
67 0.005945
98 0.006968
93 0.007977
86 0.005986
81 0.005985
87 0.005982
105 0.004984
118 0.007004
136 0.007741
138 0.008012
88 0.00599
15 0.005996
0 0.00599
66 0.007275
87 0.007879
105 0.006032
115 0.006176
110 0.005981
107 0.004987
105 0.005984
113 0.006955
119 0.007978
128 0.005984
136 0.006981
138 0.00698
93 0.006982
64 0.007015
62 0.006977
73 0.006015
104 0.00598
117 0.005954
119 0.005982
111 0.006994
108 0.006022
112 0.006976
120 0.005936
126 0.006951
135 0.006987
142 0.007015
135 0.005984
99 0.006031
66 0.006976
74 0.006017
92 0.005967
115 0.006981
126 0.00698
123 0.005981
117 0.005981
115 0.005995
118 0.005984
125 0.006015
132 0.005988
142 0.006954
145 0.00622
109 0.005985
80 0.005984
72 0.006982
83 0.006981
104 0.006981
127 0.006969
130 0.005984
126 0.005973
120 0.006014
117 0.005986
122 0.005972
133 0.006014
141 0.005985
147 0.005983
145 0.005982
111 0.007021
80 0.007017
76 0.005973
92 0.005989
110 0.005979
128 0.005982
135 0.005984
125 0.006019
116 0.005984
122 0.005988
131 0.005953
141 0.005985
152 0.005987
159 0.005984
136 0.005982
82 0.005966
53 0.005989
57 0.004991
81 0.004955
114 0.004987
138 0.004986
124 0.005984
115 0.005984
115 0.00596
121 0.006011
131 0.006022
144 0.005978
155 0.005996
158 0.005585
117 0.004989
67 0.004997
44 0.005978
69 0.005997
104 0.005989
125 0.005984
128 0.005289
117 0.005987
109 0.00499
110 0.005985
119 0.005978
131 0.005988
142 0.005982
150 0.006022
137 0.004983
63 0.005019
36 0.004982
50 0.004998
75 0.004986
98 0.006018
117 0.004987
114 0.006285
103 0.004972
99 0.004987
104 0.004986
114 0.004987
130 0.004986
140 0.004948
135 0.004764
82 0.005023
38 0.004969
28 0.005036
47 0.005019
79 0.005017
101 0.004961
110 0.004987
105 0.003991
94 0.004001
91 0.004987
107 0.004983
118 0.005024
131 0.003977
139 0.003991
126 0.003966
71 0.003989
40 0.001962
24 0.0
96 0.004002
105 0.0
96 0.003989
97 0.004275
100 0.003998
110 0.003987
123 0.003989
134 0.003989
140 0.00399
109 0.003991
50 0.004987
24 0.003992
29 0.00395
52 0.004018
95 0.003956
105 0.00396
97 0.003991
91 0.004017
93 0.003982
99 0.003959
108 0.005034
121 0.003957
134 0.002981
143 0.003993
127 0.003973
71 0.003955
27 0.002992
43 0.003991
79 0.003962
103 0.003865
115 0.003992
109 0.004017
101 0.004033
100 0.00399
109 0.002991
121 0.002958
132 0.002987
141 0.002961
154 0.002992
132 0.002992
60 0.002992
41 0.003988
54 0.00399
82 0.003995
107 0.00397
130 0.003028
127 0.003942
116 0.002987
112 0.003004
115 0.003049
130 0.003023
141 0.003034
154 0.003011
162 0.003042
148 0.002996
94 0.00298
56 0.002992
60 0.002992
86 0.003947
113 0.00399
136 0.002983
139 0.003001
120 0.002991
117 0.003001
121 0.002993
132 0.002985
144 0.002992
154 0.003004
160 0.003034
143 0.002993
88 0.002026
52 0.00199
48 0.001992
69 0.002992
118 0.002993
134 0.002994
131 0.002982
116 0.002992
110 0.003023
115 0.002989
125 0.002992
138 0.002993
150 0.003004
160 0.002999
147 0.002992
87 0.001997
36 0.001995
48 0.001999
73 0.001992
107 0.002989
124 0.002989
118 0.002993
107 0.001995
102 0.002038
105 0.002999
119 0.002043
130 0.001991
140 0.001998
147 0.002035
100 0.002026
44 0.002029
22 0.003033
40 0.001996
67 0.002026
93 0.00303
107 0.002994
102 0.000997
92 0.001996
89 0.001994
94 0.001995
113 0.001992
125 0.001981
135 0.002029
125 0.002029
66 0.002005
22 0.001975
13 0.001029
30 0.000989
64 0.001996
91 0.001002
103 0.002001
95 0.002041
82 0.001998
83 0.002023
90 0.001995
104 0.001991
121 0.000998
134 0.000997
117 0.001005
58 0.000998
10 0.001985
12 0.001992
29 0.001994
56 0.002011
87 0.000997
87 0.000998
84 0.0
85 0.001028
96 0.002026
110 0.000998
123 0.000996
142 0.001995
152 0.000997
122 0.000998
64 0.002029
35 0.001007
49 0.000998
74 0.000998
100 0.002029
112 0.002031
108 0.002002
106 0.001967
108 0.000997
115 0.000967
122 0.0
130 0.0
135 0.000997
137 0.000997
65 0.000998
16 0.000998
2 0.000995
18 0.0
53 0.0
83 0.0
100 0.0
99 0.0
92 0.0
92 0.000989
97 0.0
103 0.0
122 0.0
130 0.0
138 0.0
112 0.0
49 0.000997
37 0.0
54 0.000997
81 0.0
107 0.0
127 0.0
121 0.0
112 0.0
109 0.0
115 0.0
127 0.0
140 0.0
151 0.0
160 0.0
142 0.0
82 0.0
48 0.000956
55 0.000997
80 0.0
106 0.001007
136 0.001019
129 0.001
119 0.0
115 0.0
124 0.0
134 0.0
144 0.0
153 0.0
158 0.0
137 0.0
81 0.001994
51 0.0
68 0.001994
106 0.0
133 0.0
144 0.0
137 0.002949
126 0.003024
120 0.000967
125 0.0
137 0.0
150 0.0
161 0.001958
169 0.0
105 0.003032
48 0.0
49 0.0
74 0.0
99 0.002
122 0.002026
131 0.0
122 0.0
114 0.000939
115 0.003045
121 0.002986
138 0.0
154 0.001995
162 0.0
140 0.001002
82 0.0
45 0.002992
44 0.001996
76 0.0
99 0.000993
120 0.0
127 0.002992
120 0.001996
111 0.002992
114 0.001994
126 0.001991
142 0.0
153 0.000999
159 0.0
131 0.002034
73 0.003023
40 0.0
53 0.0
77 0.0
101 0.001995
123 0.003012
121 0.001994
111 0.002978
115 0.0
122 0.001004
135 0.0
147 0.001995
159 0.001989
157 0.0
106 0.0
59 0.0
49 0.002992
64 0.002992
107 0.003031
129 0.003028
132 0.0
125 0.0
122 0.0
125 0.003025
134 0.002993
152 0.0
164 0.000999
172 0.000997
164 0.002996
109 0.001997
60 0.003025
72 0.003027
106 0.000995
131 0.000998
148 0.0
149 0.001992
140 0.003992
138 0.0
144 0.0
155 0.0
168 0.001993
180 0.002993
193 0.002961
160 0.003041
93 0.0
83 0.0
98 0.0
126 0.002984
150 0.003038
168 0.0
165 0.0
158 0.0
153 0.002028
155 0.002946
177 0.003023
184 0.003022
196 0.0
206 0.000998
174 0.0
115 0.002994
92 0.002993
105 0.000998
129 0.003
156 0.0
175 0.003047
175 0.002989
159 0.002993
158 0.00399
168 0.002982
177 0.00199
186 0.002998
197 0.002026
207 0.00303
189 0.00395
136 0.0
103 0.0
102 0.002995
120 0.003023
163 0.002992
180 0.003989
178 0.00402
159 0.003001
157 0.002993
162 0.002024
169 0.00304
178 0.003086
192 0.002992
201 0.002977
197 0.002987
149 0.003007
90 0.001995
98 0.002991
120 0.003989
153 0.001995
174 0.001995
171 0.001995
159 0.003991
150 0.004955
153 0.003008
163 0.001994
172 0.00206
181 0.004037
194 0.001989
171 0.003996
112 0.004009
76 0.002001
86 0.002991
108 0.002992
133 0.003989
153 0.004991
156 0.001979
143 0.00305
137 0.001968
137 0.002957
154 0.001994
166 0.00402
172 0.003983
179 0.002003
140 0.001973
86 0.001998
60 0.003984
67 0.003984
99 0.003933
123 0.003012
139 0.002993
137 0.004989
122 0.001995
120 0.004987
121 0.004983
139 0.001991
154 0.002031
159 0.003038
161 0.005023
125 0.003996
59 0.00296
48 0.001001
65 0.003956
89 0.005029
123 0.002
128 0.004987
121 0.005023
110 0.001994
113 0.001978
121 0.002989
134 0.005097
146 0.004948
154 0.003961
145 0.003985
94 0.002996
52 0.005
55 0.003008
79 0.005027
101 0.005032
125 0.002994
123 0.002034
114 0.002053
111 0.005099
113 0.006014
130 0.002986
140 0.002993
151 0.002989
159 0.004991
110 0.00302
64 0.004987
50 0.005017
70 0.001994
94 0.002999
117 0.002986
131 0.002991
127 0.005985
116 0.005
109 0.003021
118 0.002023
131 0.002987
148 0.002992
160 0.003021
158 0.005016
110 0.004987
57 0.002031
55 0.002971
72 0.002919
94 0.005983
115 0.006027
130 0.002988
124 0.003563
115 0.003026
122 0.002955
131 0.002958
143 0.005017
151 0.005986
162 0.002993
155 0.002992
101 0.003989
61 0.006981
56 0.004987
78 0.002992
103 0.003985
126 0.002026
131 0.003992
123 0.00399
118 0.005986
122 0.006982
137 0.002992
148 0.002979
158 0.001995
168 0.006021
166 0.005978
101 0.00296
64 0.003037
58 0.002976
93 0.002988
116 0.004021
136 0.007021
136 0.007013
124 0.003998
122 0.003947
126 0.003957
134 0.007032
147 0.006208
161 0.003637
169 0.002984
170 0.003992
89 0.004004
59 0.003983
61 0.007015
83 0.006981
114 0.003989
134 0.002992
137 0.002992
129 0.007033
121 0.007028
125 0.004962
134 0.003953
146 0.003947
160 0.003986
171 0.003951
170 0.006982
124 0.006982
66 0.002993
61 0.004986
78 0.003972
103 0.006982
128 0.007014
143 0.003965
134 0.00403
128 0.002995
130 0.003986
138 0.003962
149 0.007003
159 0.00703
169 0.006308
176 0.004022
151 0.005997
95 0.007018
64 0.007845
65 0.007047
94 0.004987
120 0.004019
144 0.004993
138 0.004981
128 0.00499
125 0.007979
131 0.007984
145 0.005955
156 0.005006
164 0.004984
174 0.006982
178 0.007979
123 0.004987
77 0.005001
75 0.003992
99 0.004983
125 0.004985
150 0.007916
156 0.007947
140 0.004987
133 0.004986
135 0.005021
146 0.007738
160 0.008012
167 0.004986
173 0.005949
177 0.005991
125 0.005976
77 0.005016
68 0.007976
86 0.007978
119 0.004992
147 0.00503
160 0.00499
147 0.007962
138 0.00692
139 0.005981
145 0.005983
162 0.005984
171 0.005985
182 0.005015
186 0.006989
145 0.006982
93 0.005018
76 0.006949
87 0.005985
123 0.007009
151 0.006981
168 0.005954
161 0.005979
143 0.004989
146 0.005992
154 0.005981
165 0.006002
176 0.007985
185 0.006933
192 0.004987
172 0.006046
101 0.006971
77 0.006976
85 0.004947
110 0.005951
153 0.00598
165 0.005989
157 0.005981
144 0.006984
146 0.006984
146 0.006977
157 0.005987
165 0.006981
177 0.006981
183 0.006984
167 0.006982
110 0.006008
67 0.005983
81 0.005981
108 0.005981
141 0.007001
153 0.006959
142 0.005977
130 0.006021
127 0.005983
134 0.00697
143 0.007013
153 0.005983
166 0.006015
172 0.005988
119 0.006164
87 0.006973
63 0.005986
78 0.006986
102 0.006977
137 0.005988
151 0.005983
141 0.005974
127 0.005982
123 0.005977
133 0.005981
149 0.006021
159 0.005983
169 0.005984
164 0.005984
111 0.005986
60 0.005983
53 0.005984
71 0.005986
96 0.00598
121 0.006014
136 0.005987
120 0.005968
109 0.00601
114 0.005006
121 0.005995
132 0.005974
144 0.005905
154 0.005987
132 0.005441
77 0.004983
42 0.004996
38 0.004964
57 0.004984
94 0.006027
117 0.005161
113 0.00502
103 0.004956
98 0.005019
103 0.004985
116 0.005973
131 0.005017
140 0.005016
149 0.004999
132 0.00499
75 0.004984
33 0.004993
43 0.006028
79 0.004981
102 0.005983
114 0.005985
109 0.005984
98 0.005969
93 0.00499
101 0.005019
113 0.005021
124 0.00497
134 0.004988
145 0.004951
101 0.004988
37 0.004978
27 0.004988
41 0.00502
65 0.003988
93 0.004981
106 0.005002
98 0.004942
91 0.004251
90 0.004332
93 0.004622
108 0.004923
123 0.004023
134 0.005019
136 0.003998
96 0.004007
42 0.003989
20 0.004001
40 0.004978
65 0.005015
89 0.004993
103 0.004982
101 0.005573
88 0.003989
88 0.003987
94 0.00399
109 0.003989
118 0.004948
126 0.004987
136 0.004689
115 0.003989
43 0.003949
20 0.003988
27 0.004034
49 0.004032
76 0.00458
105 0.005024
94 0.00502
82 0.004981
84 0.003983
91 0.004022
103 0.00399
116 0.00399
127 0.003957
135 0.004001
114 0.003958
56 0.003989
18 0.003958
29 0.004356
57 0.004007
90 0.003959
101 0.00399
96 0.00401
87 0.003653
83 0.003986
93 0.003954
106 0.003989
117 0.002992
128 0.002994
138 0.00399
98 0.004022
39 0.004023
11 0.004001
28 0.003991
54 0.004005
78 0.003027
96 0.003988
95 0.00399
86 0.004443
84 0.002993
89 0.004686
100 0.002992
121 0.002991
131 0.002992
141 0.002982
112 0.003048
48 0.00401
12 0.002961
13 0.003028
43 0.002992
67 0.002993
87 0.003959
93 0.003956
87 0.004015
82 0.003027
89 0.002995
104 0.002993
118 0.002993
128 0.002992
137 0.002992
141 0.002992
77 0.002992
24 0.002991
8 0.003023
23 0.002991
48 0.002995
85 0.002028
93 0.00299
85 0.003039
79 0.002995
83 0.002975
92 0.001985
104 0.003025
121 0.002993
132 0.003003
140 0.001963
138 0.001981
86 0.002018
12 0.001995
14 0.001996
48 0.002988
75 0.003002
95 0.002999
93 0.002986
83 0.002993
76 0.002992
84 0.002988
92 0.002993
104 0.001995
115 0.003996
129 0.001997
136 0.002028
116 0.001994
35 0.001997
8 0.001995
16 0.001994
40 0.002004
68 0.001973
96 0.003004
94 0.001996
83 0.003007
77 0.001963
87 0.001995
100 0.001995
112 0.001998
126 0.001991
136 0.001995
139 0.001996
93 0.002004
34 0.001978
12 0.002008
28 0.000998
55 0.001994
82 0.001962
104 0.002028
96 0.002033
87 0.001994
92 0.002005
101 0.001986
114 0.001995
127 0.001995
139 0.001994
150 0.001995
134 0.001994
67 0.001992
21 0.001991
26 0.000998
53 0.000999
77 0.000999
104 0.001008
103 0.001004
94 0.001996
91 0.00204
95 0.001993
111 0.002023
124 0.001995
137 0.001
148 0.001799
149 0.001996
86 0.000997
33 0.000998
21 0.001052
41 0.000956
69 0.000992
95 0.000993
111 0.000993
106 0.002002
101 0.000994
100 0.0
108 0.000951
129 0.0
140 0.000991
150 0.000999
161 0.001994
136 0.001
68 0.001003
31 0.000998
30 0.000999
62 0.0
89 0.0
111 0.000997
118 0.0
105 0.0
100 0.0
107 0.001022
120 0.000982
132 0.000996
144 0.00101
154 0.000995
162 0.000992
135 0.001007
54 0.0
32 0.0
43 0.0
88 0.000949
115 0.0
128 0.0
122 0.000969
108 0.0
108 0.0
117 0.0
127 0.0
140 0.0
153 0.0
164 0.00099
160 0.0
70 0.0
47 0.000998
57 0.0
82 0.0
121 0.0
143 0.0
141 0.0
127 0.0
120 0.0
125 0.0
138 0.002992
150 0.0
168 0.0
177 0.0
153 0.0
90 0.000969
52 0.00304
62 0.001004
99 0.0
129 0.000965
150 0.000998
148 0.002049
134 0.002991
126 0.0
137 0.001995
153 0.0
165 0.0
176 0.0
181 0.003001
139 0.002991
63 0.0
49 0.001029
65 0.0
93 0.002987
121 0.002992
145 0.0
135 0.003
124 0.0
125 0.000991
135 0.0
148 0.002992
157 0.002988
170 0.0
160 0.000991
97 0.0
49 0.003023
39 0.002988
65 0.0
101 0.002994
129 0.000957
130 0.0
120 0.0
117 0.003001
119 0.004989
132 0.0
143 0.000997
155 0.0
162 0.002995
140 0.002997
61 0.0
36 0.003024
58 0.0
82 0.000992
107 0.0
120 0.000903
118 0.003977
109 0.00299
105 0.0
111 0.0
123 0.0
135 0.002996
146 0.002991
145 0.002991
90 0.00299
39 0.000998
42 0.0
64 0.0
91 0.003024
119 0.001994
131 0.000944
117 0.0
107 0.0
106 0.00299
113 0.002995
131 0.00401
145 0.002989
153 0.0
120 0.0
67 0.0
45 0.00399
54 0.002985
88 0.0
115 0.001003
136 0.000971
132 0.002995
121 0.001998
120 0.004018
130 0.003027
147 0.000961
158 0.001012
166 0.001023
155 0.002979
104 0.002998
59 0.0
65 0.000997
87 0.000997
117 0.002993
145 0.002993
145 0.002996
132 0.003027
131 0.001007
137 0.0
149 0.000938
164 0.003008
177 0.003032
173 0.0
120 0.0
79 0.00096
71 0.004027
85 0.003023
129 0.002988
152 0.003056
153 0.0
142 0.0
139 0.0
145 0.004016
156 0.00303
173 0.0
187 0.001001
191 0.000964
153 0.002993
98 0.002964
79 0.001997
101 0.003027
133 0.000997
155 0.0
161 0.0
154 0.002993
149 0.003989
151 0.0
160 0.0
173 0.0
184 0.002993
194 0.003041
143 0.002993
93 0.00399
79 0.0
97 0.0
123 0.000997
146 0.003025
158 0.003963
155 0.0
148 0.0
147 0.003053
156 0.003015
168 0.002991
185 0.002991
195 0.002988
182 0.003035
107 0.0
80 0.0
87 0.001038
111 0.002995
139 0.003989
165 0.0
167 0.002998
159 0.002983
155 0.002989
162 0.0
168 0.003985
178 0.003982
195 0.0
201 0.001995
167 0.000998
110 0.004987
87 0.003988
98 0.002992
123 0.000994
150 0.0
168 0.003971
163 0.003985
153 0.003995
155 0.004223
165 0.002992
175 0.002963
186 0.003
196 0.005266
205 0.004988
167 0.000973
115 0.002993
93 0.002985
103 0.005036
144 0.003978
171 0.004986
182 0.005024
171 0.002983
165 0.002979
165 0.002963
170 0.005991
181 0.004945
199 0.003576
208 0.002992
209 0.00403
173 0.005026
103 0.0
103 0.004987
125 0.00399
161 0.002991
186 0.002992
188 0.002994
176 0.005047
166 0.005027
169 0.003006
180 0.003035
190 0.003979
201 0.004987
217 0.003994
190 0.00497
129 0.004972
96 0.002994
109 0.003024
134 0.003062
160 0.005026
184 0.004987
185 0.00299
170 0.002991
166 0.002993
171 0.004988
187 0.002993
199 0.004988
209 0.005029
210 0.004019
152 0.002993
