144 0.010967
95 0.00399
27 0.003958
8 0.003956
18 0.003964
41 0.003958
76 0.003956
101 0.004027
124 0.002983
135 0.003976
144 0.004026
146 0.00402
150 0.003991
152 0.004987
155 0.004987
158 0.003991
159 0.003977
161 0.003991
163 0.003989
162 0.003998
135 0.004987
38 0.003994
20 0.00494
31 0.00396
57 0.004928
93 0.004938
115 0.004951
129 0.004986
138 0.004968
143 0.004956
146 0.004956
150 0.004956
152 0.004986
156 0.003986
157 0.004987
159 0.004938
160 0.00399
161 0.004988
149 0.006014
83 0.005985
27 0.004987
30 0.005014
53 0.004988
80 0.00603
106 0.005956
129 0.005019
140 0.00602
144 0.004987
146 0.004973
148 0.00503
152 0.004988
154 0.005985
157 0.004987
159 0.006036
160 0.005984
162 0.005984
154 0.005984
62 0.004987
18 0.005985
31 0.004987
56 0.004988
83 0.004935
107 0.005954
125 0.005952
135 0.004986
141 0.005946
143 0.005937
144 0.005988
148 0.005983
152 0.005952
155 0.005983
157 0.005949
159 0.004959
132 0.004986
51 0.005982
8 0.006947
8 0.005947
28 0.005959
53 0.005985
77 0.006962
101 0.006983
123 0.006981
129 0.006337
132 0.00596
134 0.006009
138 0.005936
143 0.006982
148 0.006982
153 0.005951
157 0.005953
142 0.005945
60 0.00695
5 0.006939
0 0.00702
15 0.006982
38 0.006025
62 0.006983
85 0.006982
107 0.007017
114 0.007012
115 0.006983
115 0.006983
117 0.006982
125 0.006982
132 0.006982
146 0.005984
153 0.006983
158 0.007542
100 0.006944
25 0.006983
1 0.007024
0 0.007005
8 0.006982
30 0.006982
53 0.00702
77 0.006982
103 0.006983
115 0.005981
114 0.007979
115 0.007957
121 0.006947
128 0.00694
136 0.006948
144 0.00798
152 0.00798
162 0.006946
168 0.007026
173 0.006983
128 0.00798
44 0.006981
2 0.00797
13 0.007989
28 0.007977
60 0.007014
84 0.007012
105 0.007947
117 0.007942
120 0.006983
117 0.006979
118 0.006981
125 0.006981
136 0.007025
146 0.007973
150 0.007979
161 0.007012
167 0.006981
172 0.006942
177 0.007985
175 0.007974
140 0.007955
54 0.007981
11 0.00798
8 0.007959
35 0.007979
65 0.007937
95 0.006967
115 0.006948
119 0.006989
118 0.007015
117 0.006949
121 0.006982
131 0.006941
133 0.007979
142 0.007979
152 0.007981
162 0.007933
173 0.007027
178 0.007067
184 0.006994
173 0.006979
88 0.007057
24 0.007007
4 0.007021
14 0.007025
35 0.007027
56 0.00702
77 0.007012
109 0.006009
119 0.005044
122 0.006008
123 0.006015
127 0.006024
133 0.007005
140 0.007008
148 0.006976
157 0.007022
168 0.007028
176 0.005986
182 0.007015
189 0.007013
192 0.006011
194 0.005975
191 0.006021
91 0.006022
24 0.006009
3 0.006014
7 0.006022
25 0.006012
51 0.007021
70 0.006978
104 0.006984
118 0.006984
123 0.006024
125 0.006017
128 0.006021
134 0.006
142 0.00599
152 0.005983
162 0.006023
170 0.005985
180 0.004987
186 0.006019
191 0.005979
193 0.006017
195 0.005025
197 0.006015
197 0.00504
143 0.006024
56 0.005004
20 0.005505
20 0.006077
39 0.006056
69 0.006026
90 0.005982
123 0.006027
136 0.005984
141 0.006017
141 0.006025
140 0.005031
145 0.004999
153 0.004986
161 0.005987
169 0.005034
175 0.004985
181 0.004986
184 0.004986
187 0.005983
188 0.005034
189 0.00602
190 0.00605
183 0.005024
88 0.005023
33 0.004986
24 0.005968
39 0.00499
62 0.004991
92 0.004984
115 0.004987
142 0.004986
148 0.004997
150 0.003991
150 0.003989
151 0.005022
155 0.004948
164 0.004986
169 0.004986
173 0.004989
176 0.005029
178 0.004986
180 0.004987
182 0.004987
174 0.005009
101 0.003989
35 0.003989
15 0.003989
24 0.00399
52 0.004985
74 0.004985
96 0.004984
116 0.005015
130 0.003989
140 0.004985
141 0.004953
145 0.004949
150 0.004963
157 0.003968
162 0.003999
167 0.004028
172 0.003978
175 0.004027
176 0.004033
178 0.003987
179 0.003997
170 0.003976
64 0.004951
6 0.005017
6 0.004036
21 0.004033
41 0.003922
60 0.003998
87 0.003963
104 0.003991
116 0.003989
122 0.003989
124 0.003944
126 0.003955
134 0.003989
146 0.004021
155 0.002945
162 0.002993
168 0.003043
172 0.002986
176 0.00408
179 0.002995
180 0.004024
182 0.004019
183 0.00403
124 0.002981
41 0.002717
5 0.002992
12 0.003002
31 0.003034
50 0.003028
69 0.003031
94 0.002983
110 0.003041
119 0.002976
123 0.002994
123 0.002025
128 0.004039
135 0.003024
147 0.003023
156 0.002992
163 0.002993
168 0.002993
172 0.002994
176 0.002993
178 0.002992
179 0.003
180 0.002961
182 0.00299
170 0.002956
92 0.00296
30 0.002996
19 0.002993
36 0.002992
60 0.001997
83 0.001993
104 0.001992
126 0.002987
135 0.001995
137 0.002997
136 0.002992
138 0.002947
144 0.00297
152 0.002649
160 0.001993
165 0.002992
169 0.002993
172 0.002024
175 0.002992
176 0.002987
177 0.002998
178 0.002024
179 0.00198
176 0.001997
129 0.001959
48 0.002026
12 0.00196
21 0.001979
41 0.002003
63 0.00201
82 0.001047
107 0.001034
121 0.001037
127 0.001053
128 0.002011
129 0.001995
134 0.001995
141 0.001995
152 0.001993
158 0.001971
163 0.002031
167 0.000998
169 0.002006
173 0.001041
174 0.001044
175 0.000997
176 0.001023
177 0.000997
177 0.000961
178 0.001985
151 0.001991
66 0.001961
14 0.001013
3 0.000997
14 0.001003
37 0.001004
53 0.001
70 0.001032
88 0.000999
108 0.000997
113 0.000997
114 0.000998
118 0.001997
123 0.000949
131 0.0
141 0.000997
150 0.000996
159 0.000998
165 0.000995
169 0.000997
172 0.000998
176 0.000999
177 0.000984
179 0.000995
179 0.0
179 0.000981
180 0.0
166 0.0
90 0.001006
27 0.0
9 0.0
21 0.0
39 0.0
68 0.0
85 0.0
102 0.000997
113 0.000997
118 0.000997
119 0.001006
122 0.000989
127 0.000997
136 0.0
148 0.0
155 0.0
164 0.0
168 0.0
171 0.0
173 0.0
174 0.0
175 0.0
176 0.00105
176 0.0
176 0.0
177 0.0
159 0.000996
83 0.0
20 0.000998
27 0.0
46 0.0
68 0.0
88 0.0
112 0.000973
125 0.0
130 0.000986
130 0.000966
129 0.0
131 0.001041
137 0.001035
150 0.00101
156 0.000997
161 0.000998
165 0.0
167 0.0
169 0.0
170 0.001021
172 0.0
173 0.0
174 0.000998
157 0.001047
82 0.000963
12 0.001033
15 0.0
36 0.0
55 0.0
66 0.000963
90 0.000966
105 0.002029
115 0.0
117 0.0
117 0.0
119 0.001
126 0.000972
141 0.0
149 0.0
158 0.0
164 0.000997
167 0.0
169 0.0
172 0.001959
174 0.000999
175 0.0
176 0.0
177 0.0
177 0.001014
147 0.0
63 0.001003
42 0.016921
6 0.0
18 0.000965
34 0.002013
48 0.001996
63 0.001997
86 0.000959
100 0.001975
105 0.000998
110 0.000968
114 0.0
120 0.001052
129 0.000989
141 0.001013
150 0.000996
158 0.001
164 0.001964
167 0.001942
171 0.001047
174 0.000953
175 0.001987
176 0.002012
177 0.000997
178 0.001948
179 0.002028
179 0.001028
177 0.002007
156 0.001996
54 0.00199
20 0.001992
19 0.001999
34 0.001988
59 0.000992
75 0.002028
102 0.001012
113 0.002031
117 0.001995
116 0.001042
117 0.002027
121 0.00199
128 0.002992
137 0.002993
148 0.00095
154 0.001031
159 0.00203
165 0.002002
168 0.002027
171 0.00301
172 0.002032
173 0.000991
174 0.001991
175 0.000971
175 0.003018
171 0.003026
121 0.00302
34 0.002042
17 0.001998
35 0.001995
54 0.001983
69 0.002992
84 0.002992
105 0.002029
113 0.002994
116 0.002001
117 0.003017
118 0.002992
123 0.002979
132 0.002994
144 0.001995
156 0.002029
161 0.001969
165 0.002021
168 0.003024
170 0.003024
172 0.002005
174 0.003024
175 0.003022
175 0.004023
176 0.004027
176 0.002026
176 0.002027
167 0.003017
102 0.003025
36 0.003036
13 0.004024
15 0.004026
27 0.003033
41 0.004034
54 0.00303
73 0.004028
88 0.004042
101 0.003044
104 0.002993
108 0.002957
114 0.003025
121 0.003029
131 0.003989
140 0.004032
151 0.003024
157 0.003021
162 0.00201
165 0.003997
168 0.003991
170 0.004021
172 0.003022
174 0.002985
175 0.002989
175 0.003014
176 0.004112
170 0.004039
88 0.003998
31 0.003049
14 0.002992
20 0.004023
34 0.004989
53 0.003956
61 0.004033
87 0.003986
100 0.003984
103 0.003021
103 0.004951
105 0.003986
112 0.003025
120 0.002985
129 0.003992
139 0.00495
147 0.004955
156 0.003957
161 0.00396
167 0.004018
169 0.004023
170 0.00402
171 0.003989
173 0.004987
174 0.004036
174 0.005019
124 0.004
52 0.005015
22 0.005005
24 0.003987
40 0.003959
66 0.004022
81 0.003993
98 0.003997
107 0.004025
109 0.004987
108 0.005025
110 0.004022
115 0.00502
124 0.004987
133 0.005985
142 0.005987
153 0.004988
162 0.005985
167 0.004988
170 0.005019
173 0.005027
175 0.005021
176 0.004982
176 0.004988
179 0.004988
178 0.003962
144 0.005994
64 0.005986
15 0.005984
20 0.005031
38 0.005018
51 0.005029
64 0.004988
80 0.005984
94 0.005994
104 0.005025
105 0.004988
106 0.004956
111 0.006011
118 0.005985
134 0.005985
143 0.005987
155 0.004029
160 0.005033
166 0.006016
172 0.006015
175 0.005984
178 0.005016
180 0.004986
181 0.005985
182 0.00602
183 0.005978
183 0.005976
183 0.006008
184 0.005019
181 0.004981
139 0.00494
56 0.006016
16 0.006982
10 0.005985
21 0.005929
34 0.005952
45 0.005979
58 0.005984
85 0.006021
96 0.005984
103 0.004986
105 0.005027
108 0.004997
115 0.006981
125 0.007012
138 0.005986
147 0.005984
157 0.005973
165 0.007983
169 0.006948
174 0.00702
177 0.00798
179 0.007015
181 0.006016
181 0.006022
183 0.006981
183 0.006983
183 0.006984
184 0.005974
181 0.005954
136 0.005977
59 0.006982
21 0.005992
29 0.006981
46 0.007014
67 0.006983
81 0.007015
98 0.007012
112 0.007979
116 0.007963
116 0.007014
115 0.006982
120 0.005997
127 0.006981
143 0.006002
152 0.007018
160 0.007956
166 0.007022
169 0.006956
172 0.006959
175 0.007948
176 0.007974
177 0.006982
178 0.006982
179 0.006934
180 0.006981
160 0.006011
85 0.006993
35 0.007979
24 0.007014
36 0.006983
54 0.00699
70 0.00798
86 0.007979
106 0.006994
114 0.006978
114 0.006981
112 0.007971
115 0.007035
122 0.007979
134 0.007017
146 0.007011
154 0.007011
160 0.007014
164 0.007019
168 0.007018
170 0.007979
173 0.007979
173 0.007979
177 0.006981
175 0.006978
131 0.007979
37 0.007012
12 0.006982
18 0.007012
32 0.007012
46 0.007005
58 0.007013
80 0.006975
94 0.007001
100 0.006986
103 0.006981
104 0.006983
108 0.007979
119 0.007012
131 0.006981
141 0.007011
149 0.007008
157 0.007034
165 0.007012
171 0.006939
174 0.00702
177 0.006969
181 0.007018
182 0.007029
183 0.007014
184 0.006965
184 0.006016
185 0.007014
183 0.007031
144 0.007024
59 0.007011
16 0.007011
7 0.00702
17 0.006968
38 0.007014
49 0.006977
65 0.007013
81 0.006019
92 0.006018
99 0.00604
101 0.006026
105 0.006016
111 0.006006
120 0.00597
134 0.007023
144 0.006986
153 0.008971
161 0.001028
174 0.006064
177 0.005941
180 0.006
182 0.006015
184 0.006014
184 0.00608
185 0.004969
185 0.005022
186 0.004968
185 0.006021
152 0.006018
69 0.005019
25 0.005008
17 0.004986
32 0.006018
49 0.005021
63 0.006047
78 0.006014
94 0.004986
108 0.005984
111 0.005982
112 0.006024
115 0.00502
122 0.006002
132 0.005029
140 0.005021
153 0.005015
160 0.005022
165 0.005021
170 0.00502
173 0.004993
176 0.00502
179 0.006026
180 0.006017
182 0.006017
183 0.00499
183 0.005027
158 0.005024
60 0.005029
29 0.005021
27 0.004995
41 0.005014
58 0.00502
80 0.005015
96 0.004993
117 0.005021
120 0.004965
118 0.005028
118 0.00502
121 0.004026
129 0.004005
141 0.004991
150 0.005019
158 0.005018
165 0.003987
169 0.005023
173 0.004019
176 0.004986
179 0.005025
179 0.005019
180 0.004979
181 0.003989
180 0.004029
119 0.004021
49 0.004022
21 0.004024
20 0.005024
32 0.004001
56 0.003989
70 0.004022
92 0.004082
104 0.004022
111 0.004024
113 0.004024
114 0.004023
119 0.00399
127 0.003994
139 0.003991
148 0.00403
157 0.003989
167 0.004026
171 0.004022
175 0.003992
177 0.004021
179 0.00402
180 0.00402
181 0.004022
181 0.004024
182 0.002992
182 0.002994
158 0.002992
76 0.002977
12 0.004027
13 0.004045
28 0.004023
40 0.004025
51 0.003986
66 0.004025
82 0.004031
98 0.004031
103 0.002993
105 0.002999
108 0.002992
113 0.003037
128 0.002995
137 0.002995
149 0.00295
158 0.003024
165 0.003026
170 0.003004
173 0.002948
177 0.004023
178 0.004019
179 0.003989
182 0.002977
183 0.002974
184 0.002994
185 0.002995
175 0.002994
104 0.003031
39 0.003038
17 0.002992
21 0.002995
42 0.002993
58 0.002992
71 0.002985
86 0.002992
99 0.002968
107 0.002029
106 0.002993
108 0.003038
114 0.002992
122 0.002993
132 0.002993
141 0.003026
149 0.002993
158 0.001957
165 0.003014
170 0.00202
173 0.002023
176 0.002025
178 0.001966
180 0.002
183 0.002993
177 0.002993
118 0.002028
47 0.002029
20 0.002994
26 0.002918
43 0.003029
48 0.012966
66 0.001027
104 0.002027
111 0.001996
113 0.002031
111 0.001995
114 0.001998
120 0.001997
128 0.002017
137 0.001995
149 0.001943
158 0.001996
165 0.000995
171 0.000989
178 0.000989
180 0.000997
182 0.002049
184 0.001996
185 0.000997
186 0.002042
184 0.001957
141 0.002028
39 0.001936
11 0.001981
12 0.001032
34 0.001995
47 0.002061
58 0.000998
74 0.000997
93 0.000998
100 0.000998
103 0.000997
104 0.000998
108 0.000998
118 0.001987
127 0.001966
136 0.0
151 0.001056
159 0.001012
167 0.000998
172 0.001005
177 0.000997
179 0.000997
181 0.000992
183 0.000997
184 0.000994
180 0.00095
124 0.001022
49 0.0
15 0.000993
24 0.000998
39 0.0
53 0.000993
66 0.000998
88 0.000998
100 0.001001
106 0.000997
107 0.000984
107 0.001027
112 0.000962
120 0.0
134 0.000999
143 0.0
152 0.0
159 0.0
166 0.0
172 0.0
177 0.0
180 0.0
183 0.001003
185 0.000999
181 0.000999
119 0.0
29 0.0
23 0.0
34 0.000997
52 0.0
67 0.0
89 0.0
104 0.0
110 0.0
109 0.0
108 0.0
112 0.0
118 0.0
132 0.0
140 0.000999
150 0.000966
154 0.000998
160 0.000998
168 0.000997
173 0.0
180 0.0
178 0.0
124 0.0
52 0.000985
21 0.001029
23 0.000998
37 0.000998
54 0.0
69 0.0
87 0.0
99 0.000998
104 0.000968
107 0.0
109 0.0
114 0.0
121 0.0
130 0.000987
144 0.00101
151 0.000997
160 0.0
164 0.0
172 0.0
177 0.001049
181 0.001029
186 0.0
189 0.0
192 0.0
182 0.001032
105 0.001965
16 0.001033
7 0.001041
12 0.000998
27 0.000998
38 0.0
51 0.001049
69 0.001035
84 0.000995
94 0.000998
98 0.0
101 0.000993
106 0.001966
120 0.001038
129 0.002001
137 0.001996
148 0.000999
155 0.000995
162 0.000998
167 0.001996
173 0.001995
180 0.000998
185 0.002046
190 0.001033
194 0.0
197 0.000989
198 0.002022
200 0.002027
154 0.000998
66 0.000854
23 0.00098
15 0.001997
25 0.001964
48 0.002047
62 0.001995
78 0.002029
102 0.000999
106 0.001996
106 0.001995
107 0.002026
112 0.001007
119 0.001973
128 0.001997
136 0.001995
143 0.002031
152 0.000994
158 0.000968
163 0.000995
172 0.000975
178 0.000982
182 0.001952
186 0.002984
191 0.000976
194 0.001023
177 0.001019
93 0.003032
34 0.001994
15 0.001011
25 0.001006
43 0.001003
70 0.001045
88 0.002003
104 0.00298
111 0.002992
112 0.002017
113 0.001992
116 0.001989
123 0.002992
132 0.00304
144 0.001992
153 0.00195
160 0.001038
171 0.002006
178 0.001984
184 0.002993
188 0.002992
193 0.001994
196 0.002026
198 0.002041
200 0.002028
202 0.002993
200 0.002992
120 0.003031
42 0.003034
8 0.001989
17 0.002015
32 0.002003
46 0.003027
59 0.002992
82 0.002028
97 0.003024
106 0.002993
109 0.003989
111 0.00399
117 0.002027
123 0.003025
139 0.003032
148 0.003024
156 0.001993
164 0.002985
171 0.003022
180 0.001982
186 0.002983
191 0.001989
194 0.003024
197 0.003984
200 0.002871
201 0.002992
203 0.002993
203 0.003025
204 0.003045
194 0.004015
116 0.004046
29 0.003044
13 0.003028
20 0.002993
36 0.00502
54 0.004987
72 0.004029
89 0.002994
110 0.002977
114 0.003029
115 0.002996
116 0.004028
120 0.004987
131 0.002991
140 0.003002
150 0.003006
159 0.003994
167 0.003994
177 0.003948
183 0.003991
189 0.003998
192 0.003992
194 0.004022
195 0.004992
196 0.004989
199 0.004017
200 0.004028
193 0.004025
128 0.003998
55 0.004987
29 0.005021
45 0.004987
73 0.003975
94 0.003983
113 0.003989
129 0.004987
135 0.005019
132 0.004033
127 0.003977
127 0.004026
134 0.004035
143 0.005984
152 0.005989
166 0.006015
173 0.006022
179 0.00399
182 0.004013
185 0.004006
187 0.004986
188 0.004983
189 0.004009
188 0.003994
150 0.003992
67 0.005026
29 0.006019
32 0.006018
50 0.005984
75 0.005014
91 0.004967
109 0.00499
121 0.006022
126 0.005967
126 0.005021
126 0.003991
130 0.00399
137 0.005983
147 0.005985
162 0.006023
169 0.006024
175 0.004988
179 0.004987
182 0.005
183 0.006019
185 0.006004
187 0.004984
188 0.005018
188 0.005017
188 0.006993
189 0.00698
158 0.006983
73 0.006982
18 0.004991
16 0.005004
27 0.00498
42 0.005988
55 0.006026
74 0.004989
86 0.005984
105 0.006058
113 0.007011
115 0.006983
118 0.006982
123 0.006981
135 0.004987
144 0.005992
153 0.005978
161 0.007011
168 0.007024
174 0.00602
177 0.005975
179 0.006017
181 0.007015
182 0.007979
184 0.006018
185 0.007019
186 0.005956
176 0.005983
109 0.005991
46 0.007016
27 0.006981
32 0.007016
54 0.006021
71 0.006016
86 0.006023
107 0.007976
118 0.007028
117 0.007977
114 0.007979
116 0.005991
122 0.006023
131 0.005967
141 0.007091
149 0.007023
160 0.00603
166 0.00599
169 0.005984
173 0.006982
176 0.005987
179 0.007001
180 0.007007
163 0.006974
88 0.006979
34 0.007012
20 0.007966
32 0.007983
49 0.007021
63 0.00701
79 0.006967
105 0.007021
111 0.007007
113 0.007936
113 0.007947
117 0.00698
125 0.007011
135 0.006986
148 0.007968
154 0.007979
164 0.006989
169 0.006981
173 0.00698
178 0.007002
179 0.00702
181 0.007979
183 0.007947
184 0.006978
136 0.007019
56 0.006971
19 0.006982
14 0.007019
27 0.007016
39 0.007011
47 0.006963
69 0.006981
91 0.006981
99 0.007935
105 0.007979
109 0.007043
113 0.007022
121 0.007011
130 0.007016
140 0.007015
153 0.007012
162 0.007012
168 0.007015
175 0.007015
178 0.006018
181 0.006015
183 0.006982
184 0.006015
186 0.005958
187 0.006998
187 0.007019
187 0.007029
187 0.007011
185 0.007009
140 0.007011
33 0.007013
22 0.007011
31 0.007012
47 0.005997
62 0.006016
79 0.00602
94 0.005983
103 0.006013
107 0.005985
107 0.006013
107 0.007018
113 0.006018
128 0.007016
137 0.007012
146 0.006977
154 0.006016
160 0.006023
167 0.006019
170 0.005983
172 0.006015
175 0.006016
176 0.005986
178 0.005962
180 0.006014
142 0.006093
62 0.006017
24 0.006017
18 0.005021
28 0.006015
48 0.006033
62 0.006024
79 0.006018
96 0.006021
104 0.00602
106 0.00603
106 0.006016
112 0.005985
120 0.006016
129 0.005017
139 0.005026
148 0.005021
160 0.005015
167 0.005015
173 0.00502
176 0.005019
179 0.006017
182 0.006021
184 0.006022
186 0.005026
187 0.00602
188 0.005018
176 0.005019
103 0.005029
28 0.005005
16 0.004986
22 0.005022
33 0.005022
44 0.005042
58 0.005018
74 0.005017
96 0.004989
102 0.005025
105 0.00503
108 0.005023
113 0.005024
124 0.00502
134 0.005022
143 0.005022
153 0.004025
161 0.005036
168 0.004994
177 0.005035
180 0.004026
184 0.004019
186 0.003989
187 0.004021
188 0.004019
189 0.004018
190 0.004975
190 0.005017
190 0.005016
163 0.005018
81 0.004988
23 0.003989
26 0.003959
44 0.00399
57 0.004024
68 0.00402
84 0.00399
97 0.003987
106 0.004024
107 0.004022
109 0.003989
113 0.004992
120 0.005022
135 0.004029
144 0.003959
155 0.003998
162 0.004021
168 0.00402
171 0.004021
174 0.004025
176 0.004026
178 0.004017
181 0.004025
180 0.003991
145 0.002995
42 0.003024
28 0.003025
39 0.00403
54 0.004045
70 0.004008
86 0.004022
103 0.003992
114 0.003991
115 0.003992
113 0.003991
115 0.002995
120 0.003003
136 0.002993
146 0.003025
157 0.002995
164 0.002995
170 0.002992
174 0.002993
177 0.002992
179 0.004041
182 0.004027
184 0.003957
183 0.003024
151 0.002995
40 0.003023
23 0.00299
29 0.002994
41 0.002958
54 0.002955
66 0.003003
83 0.002992
103 0.002955
109 0.003024
112 0.003027
113 0.002993
118 0.002962
132 0.002035
141 0.00296
151 0.002993
162 0.002995
169 0.002992
174 0.002942
179 0.00302
182 0.003494
184 0.002992
186 0.002994
188 0.002995
189 0.002995
190 0.002995
190 0.002992
191 0.003031
188 0.002992
141 0.001995
60 0.002037
24 0.00203
19 0.002025
31 0.001995
44 0.001043
55 0.001995
68 0.002031
95 0.002992
105 0.001995
110 0.002028
113 0.002016
118 0.001996
126 0.002992
135 0.002041
146 0.001995
158 0.001999
166 0.001992
172 0.002012
177 0.001986
180 0.001996
182 0.001975
184 0.002029
186 0.001995
186 0.002028
187 0.001996
188 0.002006
188 0.002013
188 0.001975
189 0.002003
189 0.002027
150 0.000999
73 0.001995
39 0.000997
36 0.001021
55 0.000979
75 0.000997
91 0.000997
107 0.000996
122 0.000998
131 0.000997
131 0.000997
129 0.000999
131 0.000998
138 0.002042
146 0.00104
153 0.000997
161 0.000998
165 0.000998
168 0.001009
170 0.000997
171 0.000997
173 0.000997
174 0.000995
176 0.000997
176 0.0
151 0.001995
76 0.001012
35 0.001013
30 0.000998
44 0.000997
63 0.000999
80 0.000998
97 0.000997
114 0.000997
127 0.0
131 0.0
134 0.0
138 0.0
144 0.0
151 0.0
157 0.0
163 0.0
166 0.0
169 0.0
172 0.0
173 0.0
175 0.001002
177 0.0
178 0.0
178 0.0
178 0.0
170 0.0
111 0.0
32 0.0
19 0.0
26 0.0
41 0.0
56 0.0
74 0.001995
90 0.001996
112 0.0
120 0.001
126 0.000998
130 0.000998
136 0.0
145 0.001031
151 0.001033
159 0.0
163 0.000966
167 0.000997
169 0.00104
171 0.001005
173 0.000997
174 0.001033
175 0.000991
176 0.000998
177 0.000997
149 0.000998
75 0.001004
31 0.0
32 0.0
47 0.0
66 0.001003
82 0.000999
110 0.001004
122 0.000982
128 0.0
128 0.0
128 0.0
132 0.001995
138 0.002041
147 0.0
154 0.0
158 0.0
161 0.000955
164 0.000953
167 0.001033
169 0.001029
171 0.000956
145 0.0
74 0.0
34 0.0
26 0.001026
35 0.001038
58 0.0
74 0.0
91 0.0
115 0.0
122 0.000985
124 0.001032
125 0.001045
131 0.000957
138 0.000984
146 0.00103
152 0.001047
158 0.001043
163 0.000964
166 0.001
169 0.000984
172 0.000954
174 0.002059
172 0.002028
133 0.001995
40 0.001995
16 0.001995
15 0.001056
25 0.001996
37 0.001993
53 0.001021
70 0.000973
87 0.000942
104 0.000965
107 0.002054
109 0.00203
113 0.001995
122 0.000977
132 0.000983
142 0.000953
150 0.001995
158 0.001995
165 0.001032
169 0.000997
172 0.002035
175 0.000966
177 0.002024
179 0.003026
172 0.002992
87 0.000985
35 0.000989
19 0.001001
24 0.003991
35 0.001995
52 0.001992
68 0.001999
86 0.001961
105 0.001995
109 0.001996
110 0.003025
113 0.002992
121 0.002043
130 0.002035
139 0.002054
149 0.002992
157 0.002992
167 0.002004
172 0.001035
175 0.000991
178 0.00198
180 0.001951
183 0.003995
185 0.002984
185 0.003023
126 0.001984
57 0.001995
32 0.001994
33 0.003026
48 0.002992
73 0.002008
93 0.002998
120 0.001946
124 0.001995
121 0.002026
118 0.003989
119 0.003993
128 0.002004
137 0.001996
146 0.001999
155 0.002991
162 0.002976
169 0.001996
173 0.002994
178 0.003024
180 0.002992
182 0.003023
182 0.003989
150 0.004021
53 0.002027
26 0.001993
26 0.002038
39 0.005018
56 0.003989
80 0.001984
100 0.002989
120 0.002989
123 0.002992
123 0.002994
123 0.004849
129 0.004987
140 0.002977
150 0.003005
159 0.002986
167 0.004021
172 0.00399
177 0.002997
180 0.004019
184 0.002988
185 0.003979
185 0.002995
187 0.003989
187 0.003981
188 0.004035
183 0.004021
129 0.004022
51 0.004983
19 0.004987
20 0.002959
38 0.004987
57 0.002983
72 0.002978
91 0.002993
106 0.00399
116 0.003989
123 0.003991
126 0.003996
131 0.003982
139 0.004986
147 0.005021
159 0.00399
169 0.004998
174 0.00401
178 0.004986
180 0.004024
182 0.005021
184 0.004986
186 0.002974
186 0.003973
187 0.003988
187 0.003985
188 0.006022
188 0.005985
182 0.005986
135 0.005987
46 0.004011
30 0.005027
38 0.003983
57 0.005988
78 0.006015
103 0.00399
121 0.003993
132 0.003972
138 0.005984
139 0.006016
140 0.005991
144 0.005986
153 0.004957
158 0.004975
163 0.004988
166 0.006015
169 0.006015
172 0.00502
173 0.004038
175 0.003971
176 0.006037
177 0.005986
178 0.006983
175 0.007039
107 0.004974
45 0.004984
26 0.003985
32 0.006037
50 0.005969
76 0.004023
95 0.004988
114 0.004986
128 0.007022
135 0.006981
141 0.006949
144 0.006982
150 0.005004
155 0.004991
160 0.004988
164 0.006019
167 0.006022
169 0.005006
171 0.004991
173 0.004986
174 0.005984
175 0.006966
176 0.006982
177 0.006983
178 0.005983
174 0.006014
138 0.006018
60 0.006981
24 0.006981
23 0.004988
38 0.004985
55 0.004988
71 0.006003
88 0.007009
115 0.006987
126 0.006982
134 0.005951
137 0.005985
141 0.005971
146 0.006987
152 0.007016
159 0.005985
163 0.005984
166 0.004987
170 0.007979
171 0.00798
172 0.00595
173 0.007945
173 0.006937
174 0.005992
175 0.005993
166 0.005983
114 0.006981
50 0.007979
29 0.006983
40 0.007016
60 0.006983
92 0.006982
110 0.007024
123 0.006978
131 0.006983
136 0.006966
136 0.005994
138 0.006977
144 0.007963
148 0.007978
155 0.006979
160 0.006955
163 0.007015
166 0.006982
168 0.006995
170 0.007015
170 0.006972
168 0.006999
135 0.00602
45 0.006978
23 0.007028
26 0.008012
41 0.006952
59 0.006988
75 0.006977
105 0.006952
117 0.006984
127 0.006992
131 0.007012
133 0.007019
137 0.007014
146 0.006972
151 0.00698
157 0.00702
162 0.006975
163 0.006981
167 0.006952
170 0.007018
172 0.007001
173 0.006989
174 0.007979
171 0.006982
136 0.006984
43 0.006986
20 0.007037
21 0.007013
38 0.00698
53 0.006983
67 0.006982
89 0.006983
107 0.00698
114 0.006971
117 0.00697
120 0.006983
124 0.006977
132 0.007029
141 0.007023
149 0.007028
157 0.007
162 0.006989
165 0.006986
169 0.006021
170 0.006015
171 0.006014
172 0.00602
173 0.006012
132 0.006015
56 0.005992
23 0.00601
20 0.006016
32 0.006022
57 0.005998
75 0.006972
104 0.006977
112 0.005995
114 0.006021
112 0.005989
112 0.00602
118 0.005979
126 0.006016
135 0.006016
144 0.005993
151 0.00598
160 0.006018
164 0.00602
169 0.004968
172 0.005016
174 0.004987
176 0.004987
158 0.005977
55 0.006014
14 0.006003
6 0.005972
15 0.006036
30 0.006015
52 0.005957
70 0.006018
97 0.005017
104 0.00502
106 0.00502
105 0.004974
108 0.005003
117 0.00502
125 0.005026
135 0.005026
144 0.005019
153 0.006033
163 0.005994
170 0.005991
175 0.005985
178 0.005
180 0.005014
182 0.005012
181 0.005019
106 0.005079
34 0.005017
6 0.005021
5 0.004992
17 0.005017
38 0.00502
58 0.005023
83 0.004021
97 0.00404
103 0.00402
105 0.004994
107 0.005033
113 0.005027
121 0.004982
131 0.005027
140 0.005024
149 0.005026
160 0.004986
169 0.003989
176 0.004026
179 0.004009
181 0.00398
184 0.004026
186 0.003989
187 0.003998
129 0.00502
50 0.005033
18 0.004989
16 0.004984
30 0.005022
63 0.004989
84 0.003982
108 0.003986
115 0.004025
115 0.003991
113 0.003974
114 0.004032
123 0.003991
131 0.004023
141 0.005041
151 0.005032
159 0.00503
171 0.003975
177 0.00402
182 0.004025
185 0.003991
187 0.003991
189 0.00302
191 0.003989
156 0.003001
67 0.004026
21 0.004027
12 0.004022
21 0.00304
51 0.002956
68 0.002973
96 0.003989
111 0.003965
119 0.003956
120 0.004012
120 0.004017
125 0.003991
132 0.003989
142 0.004038
152 0.003966
161 0.003986
174 0.003008
180 0.003024
186 0.003056
188 0.002992
190 0.003048
193 0.00305
194 0.002995
195 0.00301
196 0.002992
197 0.002993
197 0.004031
197 0.004006
132 0.003041
48 0.003027
11 0.003029
16 0.003014
33 0.003027
52 0.001995
69 0.002993
92 0.002997
109 0.003029
119 0.002988
123 0.002986
123 0.002994
128 0.002975
135 0.003027
148 0.003019
157 0.003027
165 0.002993
172 0.001998
177 0.003035
181 0.003006
184 0.002996
185 0.002993
187 0.002966
188 0.002993
189 0.002029
189 0.002028
189 0.002006
188 0.002027
155 0.002048
71 0.00201
29 0.001996
25 0.002
49 0.002033
72 0.001858
95 0.001995
127 0.001998
138 0.001996
142 0.001995
142 0.001996
142 0.002043
145 0.001968
151 0.002056
159 0.002027
165 0.002042
170 0.001995
174 0.002027
177 0.001995
180 0.001991
181 0.001995
182 0.001006
183 0.000999
183 0.001956
185 0.000997
177 0.001995
118 0.001962
43 0.001996
13 0.001969
21 0.000998
40 0.000998
72 0.000998
90 0.000955
109 0.001029
122 0.001041
130 0.000999
132 0.002055
134 0.001995
138 0.001002
145 0.000998
154 0.001995
161 0.002004
166 0.001038
172 0.000967
174 0.000981
176 0.000997
178 0.000998
179 0.000991
180 0.001031
181 0.0
182 0.000989
182 0.001997
183 0.001996
169 0.002025
96 0.001021
16 0.0
15 0.0
30 0.0
50 0.0
73 0.0
91 0.0
108 0.00101
119 0.000997
125 0.000983
128 0.001032
131 0.000997
136 0.000998
147 0.0
154 0.001005
159 0.0
164 0.0
167 0.0
171 0.001011
172 0.0
173 0.0
174 0.0
175 0.0
175 0.000985
176 0.000998
158 0.0
84 0.0
34 0.0
22 0.0
34 0.0
63 0.001053
85 0.000965
105 0.0
122 0.0
131 0.0
135 0.0
135 0.00097
138 0.0
144 0.0
150 0.0
157 0.000984
161 0.000998
164 0.0
167 0.000957
169 0.000998
171 0.0
172 0.0
173 0.001
175 0.00103
144 0.001987
64 0.000964
14 0.0
14 0.0
28 0.000986
47 0.0
65 0.002037
89 0.0
106 0.0
117 0.0
122 0.001031
124 0.001028
129 0.002053
136 0.002042
143 0.000936
153 0.0
158 0.0
163 0.002016
166 0.00201
169 0.0
172 0.0
173 0.0
175 0.002026
176 0.0
177 0.002033
178 0.002054
175 0.0
133 0.0
52 0.000965
16 0.001029
12 0.001036
30 0.0
47 0.0
63 0.0
79 0.001874
106 0.0
115 0.0
120 0.001995
122 0.002027
126 0.0
133 0.001995
141 0.001958
149 0.003008
156 0.002031
163 0.002003
166 0.0
169 0.0
172 0.000965
174 0.001051
176 0.00199
176 0.002019
177 0.001997
178 0.0
179 0.0
176 0.00203
138 0.002028
47 0.001029
26 0.001007
32 0.001007
65 0.0
84 0.002037
103 0.001995
119 0.001997
130 0.000967
133 0.0
133 0.001017
134 0.00202
138 0.002025
147 0.001996
153 0.002041
158 0.001963
163 0.00199
166 0.0
168 0.002042
169 0.003025
171 0.000962
172 0.00198
173 0.001984
174 0.003025
165 0.003022
77 0.001028
28 0.000976
17 0.00103
37 0.002036
56 0.001997
72 0.002992
89 0.003989
111 0.001986
119 0.001992
122 0.002014
124 0.003048
127 0.002979
135 0.001948
143 0.001995
151 0.001995
159 0.002001
163 0.001972
166 0.003025
168 0.004017
171 0.002016
172 0.002046
173 0.001984
174 0.003024
175 0.002988
175 0.000986
176 0.00195
176 0.001979
120 0.001996
43 0.001947
11 0.001949
10 0.003989
22 0.004021
42 0.002008
55 0.00199
70 0.002992
87 0.003028
100 0.002992
109 0.002989
112 0.002992
117 0.001996
124 0.001983
133 0.001995
142 0.004023
150 0.004025
157 0.002025
162 0.001987
165 0.001949
167 0.003989
170 0.003995
172 0.001965
174 0.004956
174 0.003001
175 0.002994
176 0.002993
177 0.00399
164 0.004006
71 0.002961
26 0.002987
18 0.003002
29 0.004022
47 0.00399
68 0.00202
90 0.005036
106 0.003024
109 0.002993
107 0.002988
105 0.004992
108 0.004989
118 0.002987
128 0.002941
137 0.002959
146 0.004042
153 0.004021
160 0.00301
164 0.004987
168 0.003991
170 0.003986
172 0.003976
173 0.004987
172 0.004988
98 0.003042
33 0.002985
10 0.002986
12 0.004987
25 0.005025
48 0.002977
69 0.006017
93 0.00399
103 0.003978
106 0.003989
107 0.005015
108 0.005007
115 0.004028
124 0.004007
134 0.001961
143 0.005023
151 0.004986
161 0.003985
167 0.006018
171 0.005986
175 0.003989
177 0.003989
178 0.003989
180 0.005984
181 0.006979
179 0.003006
132 0.004971
47 0.003973
8 0.005017
2 0.004984
20 0.00602
35 0.005986
52 0.004953
69 0.004987
86 0.004953
96 0.006015
100 0.005985
102 0.004037
106 0.003993
112 0.00399
121 0.005984
131 0.006018
147 0.006982
154 0.006983
164 0.004971
170 0.004955
173 0.004958
176 0.005984
179 0.005953
180 0.004961
182 0.005028
184 0.004987
183 0.006017
150 0.00699
28 0.007018
10 0.006987
19 0.004967
36 0.005012
53 0.004986
70 0.006982
88 0.00695
102 0.004972
103 0.004959
102 0.004987
103 0.007013
108 0.00701
123 0.007047
132 0.006982
144 0.006
152 0.006003
159 0.005953
165 0.007015
171 0.00695
176 0.004988
179 0.004994
183 0.005027
185 0.007011
166 0.007014
39 0.00798
10 0.00798
10 0.005982
23 0.005999
38 0.005953
51 0.006982
68 0.007016
91 0.005951
101 0.006984
104 0.005998
105 0.006981
112 0.005984
121 0.005984
134 0.007977
144 0.007949
153 0.006069
160 0.005959
168 0.006019
174 0.007979
179 0.007979
185 0.006001
187 0.006007
189 0.005982
192 0.005963
194 0.005939
195 0.007979
175 0.00703
59 0.006965
25 0.00695
6 0.006975
14 0.007988
23 0.007979
43 0.006961
55 0.00698
73 0.006983
100 0.006982
104 0.005996
106 0.006978
109 0.006977
115 0.006954
123 0.00695
132 0.006938
145 0.007018
153 0.007013
161 0.006952
168 0.006987
175 0.006987
184 0.006966
186 0.006989
189 0.007014
191 0.006984
192 0.006983
195 0.006952
195 0.006974
149 0.00701
61 0.007009
21 0.006983
16 0.006983
34 0.006982
67 0.00598
86 0.006982
105 0.006
115 0.00698
116 0.006989
114 0.007023
114 0.006992
119 0.006985
128 0.007017
141 0.006983
150 0.006987
156 0.00698
169 0.005987
176 0.006987
181 0.006012
185 0.006973
189 0.006025
191 0.006968
192 0.005986
194 0.006014
187 0.006018
116 0.006018
24 0.005977
6 0.005986
20 0.006978
38 0.006992
54 0.005986
70 0.005983
90 0.00698
106 0.006016
110 0.006015
111 0.006007
113 0.006013
118 0.005986
129 0.006017
139 0.005967
154 0.005994
162 0.005982
169 0.005019
176 0.005002
182 0.005887
188 0.00497
191 0.005019
194 0.005016
195 0.005016
196 0.006047
198 0.005984
198 0.005984
194 0.002008
94 0.006007
26 0.005949
5 0.004985
9 0.004974
30 0.00502
47 0.004991
61 0.00498
78 0.005018
97 0.004989
109 0.006019
112 0.006024
114 0.005991
119 0.005998
128 0.004988
137 0.004982
147 0.004986
158 0.00499
165 0.004984
172 0.005026
178 0.005025
182 0.004977
186 0.005026
189 0.005071
192 0.003989
193 0.004992
170 0.005007
83 0.004026
31 0.00399
19 0.003989
33 0.004031
54 0.005024
73 0.005035
94 0.005036
117 0.00502
124 0.005018
122 0.003982
121 0.003983
125 0.004022
132 0.00402
142 0.005016
154 0.004003
162 0.004018
169 0.003989
176 0.004012
181 0.003994
186 0.004022
190 0.003991
193 0.003996
192 0.003992
140 0.003992
55 0.004023
18 0.003935
13 0.00399
30 0.00398
48 0.003988
63 0.00402
80 0.004017
100 0.003951
116 0.004024
119 0.003957
120 0.003978
124 0.004033
131 0.00303
141 0.00398
150 0.003947
162 0.003991
170 0.00302
177 0.003024
183 0.002985
187 0.003989
192 0.002995
194 0.002976
196 0.003022
197 0.003023
198 0.003006
199 0.003052
200 0.003025
176 0.003032
85 0.004024
25 0.00399
9 0.003954
15 0.002992
42 0.003015
57 0.002972
78 0.003027
95 0.003033
106 0.00298
110 0.00299
110 0.00299
113 0.00299
119 0.002957
128 0.003027
137 0.003023
147 0.003029
162 0.003024
169 0.002034
177 0.002996
181 0.001993
184 0.001978
186 0.003011
188 0.003048
190 0.003002
192 0.003039
193 0.002996
173 0.003012
88 0.002992
20 0.003027
23 0.003029
46 0.002975
67 0.002996
86 0.002987
105 0.001993
118 0.002045
120 0.002051
117 0.001995
116 0.001991
121 0.002018
129 0.002963
145 0.003002
153 0.003002
161 0.002029
171 0.002023
176 0.001995
180 0.002013
184 0.002026
186 0.002048
189 0.002033
191 0.002005
184 0.002031
60 0.002049
17 0.00201
8 0.002038
18 0.002027
40 0.000996
55 0.00203
72 0.002026
91 0.001012
104 0.002041
111 0.000995
111 0.000996
113 0.000997
123 0.001038
132 0.001002
142 0.002005
151 0.000967
162 0.00205
169 0.001996
176 0.001994
181 0.001036
185 0.001002
189 0.000983
191 0.00104
193 0.001032
195 0.002015
183 0.002042
102 0.00204
33 0.001033
7 0.002052
14 0.002021
29 0.001033
45 0.0
58 0.002051
82 0.000994
97 0.001008
105 0.001014
109 0.001059
111 0.000969
117 0.001001
125 0.001034
137 0.002021
146 0.000995
155 0.001033
162 0.0
170 0.0
178 0.0
182 0.0
187 0.0
191 0.0
194 0.0
195 0.000968
187 0.000962
86 0.001043
33 0.000962
21 0.000997
30 0.000954
48 0.0
72 0.0
92 0.000998
111 0.000967
121 0.0
119 0.0
119 0.0
121 0.0
129 0.001035
142 0.0
151 0.0
160 0.001032
167 0.001044
175 0.0
183 0.000996
186 0.000966
191 0.0
193 0.0
195 0.0
197 0.0
188 0.0
85 0.0
28 0.0
12 0.0
17 0.0
32 0.0
53 0.000999
67 0.000997
98 0.0
109 0.0
114 0.0
115 0.0
117 0.0
125 0.002
134 0.001036
144 0.001024
156 0.000962
165 0.0
173 0.002
179 0.001024
187 0.001003
191 0.002049
194 0.0
196 0.000954
197 0.0
198 0.002046
199 0.00204
198 0.001007
162 0.0
70 0.000942
23 0.001042
19 0.0
35 0.001995
52 0.002029
72 0.000967
90 0.000956
101 0.000977
115 0.002034
118 0.001051
118 0.0
121 0.0
128 0.0
136 0.001989
152 0.0
161 0.002037
169 0.00196
177 0.0
181 0.0
185 0.000953
186 0.002029
189 0.002026
192 0.0
192 0.0
194 0.001015
194 0.000992
110 0.0
45 0.00205
25 0.001995
37 0.0
50 0.000998
79 0.0
99 0.002011
118 0.002027
129 0.001994
129 0.000962
125 0.0
125 0.0
137 0.0
148 0.0
158 0.001992
166 0.002017
175 0.000963
179 0.0
182 0.0
184 0.002018
186 0.002041
188 0.0
190 0.001001
187 0.001
78 0.001012
27 0.00097
15 0.002032
24 0.003024
48 0.0
64 0.0
82 0.0
102 0.002036
116 0.00203
123 0.0
122 0.0
123 0.0
131 0.001993
141 0.0
151 0.003023
161 0.002985
171 0.0
176 0.001983
180 0.002989
182 0.001995
185 0.002992
187 0.001036
189 0.001987
190 0.003008
191 0.001046
191 0.001985
168 0.002998
80 0.002997
15 0.00199
10 0.001982
23 0.001999
40 0.003029
56 0.003039
77 0.00199
89 0.003988
108 0.002997
114 0.001993
114 0.001997
116 0.003035
122 0.003027
133 0.002008
143 0.001987
151 0.001979
159 0.00304
167 0.004024
175 0.001986
179 0.001983
182 0.002002
185 0.001985
187 0.002989
188 0.004045
184 0.004023
128 0.00399
33 0.001994
14 0.001995
21 0.002016
41 0.003021
63 0.003991
90 0.001029
109 0.002049
122 0.002013
119 0.002033
117 0.001975
117 0.004023
123 0.004022
136 0.002957
144 0.002978
153 0.003019
162 0.004026
167 0.004022
174 0.002997
178 0.005019
181 0.001995
184 0.002998
185 0.00299
174 0.005013
92 0.004945
11 0.002991
0 0.001996
6 0.001947
23 0.00396
41 0.004028
62 0.003024
87 0.003989
102 0.001996
104 0.003008
105 0.002999
108 0.004987
113 0.005019
125 0.00299
136 0.002991
144 0.003001
152 0.004979
159 0.005953
168 0.003001
176 0.004984
182 0.002981
185 0.003992
187 0.004003
189 0.004994
191 0.004984
165 0.003993
72 0.002998
14 0.003027
0 0.004995
5 0.005986
27 0.002989
48 0.004987
70 0.002984
88 0.003979
99 0.003984
102 0.005988
103 0.005986
106 0.00399
112 0.004004
120 0.003009
130 0.005985
140 0.006019
151 0.003001
161 0.005033
169 0.002989
174 0.003989
178 0.003999
182 0.004006
186 0.00603
188 0.005986
137 0.003991
53 0.004991
16 0.003985
12 0.007024
25 0.006983
59 0.005994
79 0.006026
106 0.005
114 0.003988
114 0.003993
112 0.006018
112 0.005986
120 0.004
130 0.004027
139 0.003989
149 0.006018
157 0.006983
168 0.005985
174 0.006014
181 0.004958
186 0.004965
189 0.004985
192 0.006014
164 0.005988
51 0.004023
15 0.004994
7 0.004042
17 0.006983
34 0.007013
62 0.006023
82 0.006021
101 0.004987
107 0.004986
108 0.004964
109 0.006985
114 0.007022
125 0.00499
135 0.005974
145 0.004984
154 0.006015
162 0.006976
175 0.007014
182 0.006981
188 0.005956
192 0.005019
195 0.005034
197 0.006982
199 0.006981
201 0.004952
200 0.004987
155 0.00499
39 0.007977
5 0.004987
8 0.007979
22 0.007974
43 0.005993
58 0.005954
76 0.005955
94 0.00702
106 0.006983
111 0.005959
110 0.006
114 0.006015
122 0.007978
139 0.004991
148 0.007949
159 0.007984
165 0.007982
173 0.005985
180 0.005983
186 0.005985
191 0.006987
195 0.006984
198 0.006945
199 0.006974
202 0.00698
206 0.006033
185 0.00599
96 0.007979
36 0.007947
20 0.006024
32 0.00599
53 0.005991
72 0.007935
90 0.007939
114 0.006945
119 0.006052
118 0.006948
116 0.005986
119 0.005987
131 0.007933
141 0.006979
150 0.006981
162 0.00696
167 0.006965
177 0.006984
183 0.006962
189 0.006975
191 0.006976
195 0.006984
195 0.007006
122 0.006972
44 0.007011
14 0.006988
14 0.006983
29 0.006974
56 0.006985
74 0.006974
94 0.007011
116 0.006963
121 0.006951
124 0.006975
124 0.006963
129 0.006943
138 0.006977
148 0.005972
157 0.00698
168 0.005982
175 0.00598
181 0.006022
185 0.006018
189 0.006983
192 0.006983
196 0.006981
199 0.006982
132 0.00698
45 0.007012
11 0.006018
8 0.00698
26 0.006022
38 0.006981
60 0.006021
77 0.00602
103 0.006012
116 0.006019
121 0.006007
121 0.005976
124 0.006983
130 0.007018
140 0.005984
150 0.006986
161 0.007
168 0.006072
175 0.005988
180 0.006013
184 0.006006
188 0.005984
191 0.006038
192 0.005987
135 0.00598
50 0.005976
17 0.00602
15 0.006015
37 0.00598
59 0.00602
80 0.005014
101 0.005017
119 0.00604
126 0.005986
124 0.006014
122 0.005975
127 0.005984
137 0.005984
147 0.005988
155 0.00598
166 0.005015
172 0.004969
177 0.005012
182 0.005021
187 0.004986
189 0.004984
110 0.004977
23 0.006029
8 0.00602
15 0.005985
32 0.005031
53 0.005997
78 0.004988
100 0.005024
117 0.005026
125 0.00504
127 0.005036
126 0.005017
132 0.005033
144 0.005022
153 0.004988
162 0.005024
170 0.003957
178 0.004005
185 0.005017
189 0.005038
192 0.004987
195 0.005027
197 0.005017
201 0.004022
153 0.005018
33 0.005035
3 0.005047
2 0.004022
14 0.004021
33 0.005001
56 0.003988
74 0.004027
95 0.003988
111 0.004027
121 0.004028
125 0.004027
128 0.003991
136 0.004986
145 0.004992
155 0.005021
165 0.004026
173 0.004021
180 0.004021
187 0.004005
191 0.00399
194 0.004034
198 0.003992
201 0.003993
203 0.003989
205 0.00399
205 0.003989
170 0.004023
68 0.002987
18 0.003953
10 0.003022
31 0.004023
57 0.00399
79 0.00403
100 0.004018
120 0.004024
131 0.004002
130 0.004035
126 0.004024
130 0.004023
137 0.004009
146 0.003025
155 0.002979
166 0.002992
174 0.003014
180 0.003026
185 0.003956
189 0.00399
194 0.003981
196 0.004022
199 0.003968
189 0.004021
105 0.003981
32 0.003027
9 0.00302
21 0.003033
45 0.003023
69 0.003045
91 0.00302
113 0.002958
138 0.00302
141 0.003981
139 0.003003
139 0.003474
143 0.003986
152 0.002029
162 0.002991
173 0.002985
179 0.003985
186 0.003023
190 0.003022
194 0.00302
199 0.003988
201 0.003929
203 0.004049
203 0.003992
204 0.002033
205 0.002051
186 0.001984
58 0.002015
11 0.001998
4 0.003032
18 0.002032
42 0.001991
78 0.003028
98 0.002992
124 0.004037
136 0.001995
142 0.001995
142 0.001982
141 0.00298
146 0.003032
152 0.002044
160 0.002019
167 0.002009
178 0.001841
183 0.001992
187 0.002993
190 0.001995
193 0.001995
194 0.001997
195 0.002045
196 0.002029
197 0.001018
172 0.001998
80 0.001962
26 0.001002
25 0.001995
50 0.001962
76 0.001992
100 0.001996
129 0.001988
142 0.002026
147 0.002038
147 0.001994
144 0.000968
144 0.002025
151 0.002039
159 0.000992
171 0.002026
175 0.001951
179 0.001983
183 0.00204
186 0.000998
187 0.00197
189 0.001991
189 0.001033
163 0.002042
47 0.000998
12 0.001987
13 0.0
48 0.001945
72 0.001996
95 0.00204
116 0.001995
135 0.001954
140 0.001032
143 0.00104
145 0.000983
147 0.000957
155 0.000968
162 0.001031
168 0.001053
176 0.000998
179 0.001978
182 0.001992
184 0.002007
186 0.00199
188 0.0
189 0.002008
188 0.0
154 0.0
35 0.0
2 0.0
2 0.000994
33 0.0
54 0.0
71 0.0
92 0.0
115 0.000998
124 0.0
129 0.001002
130 0.0
132 0.000968
138 0.000964
149 0.0
158 0.0
170 0.0
175 0.0
179 0.0
182 0.0
184 0.0
186 0.0
187 0.002046
188 0.0
190 0.00103
187 0.000998
110 0.001033
35 0.0
13 0.0
31 0.0
54 0.0
83 0.0
104 0.0
121 0.001992
131 0.0
136 0.0
135 0.001023
136 0.000986
140 0.002008
147 0.002019
160 0.002046
166 0.001995
171 0.000965
174 0.000992
176 0.0
178 0.002966
180 0.002029
182 0.000967
183 0.0
171 0.0
97 0.001987
20 0.000987
24 0.00204
44 0.002039
77 0.0
101 0.0
121 0.001018
135 0.000996
142 0.003022
144 0.000962
144 0.000996
147 0.0
152 0.002023
162 0.0
167 0.00199
171 0.001997
175 0.0
177 0.0
178 0.0
180 0.001976
182 0.002035
184 0.000988
178 0.00098
118 0.000996
36 0.002035
5 0.0
19 0.002027
40 0.002037
67 0.0
87 0.000957
107 0.0
121 0.001017
128 0.001942
131 0.002001
134 0.0
139 0.00201
146 0.000964
158 0.0
163 0.000999
168 0.001028
172 0.002029
176 0.000975
178 0.0
180 0.00102
181 0.002994
182 0.003034
184 0.00102
165 0.000977
82 0.000996
13 0.0
17 0.0
36 0.002993
58 0.002994
84 0.000968
104 0.0
120 0.0
130 0.00303
135 0.003026
138 0.0
141 0.000949
145 0.000951
156 0.000959
162 0.002007
167 0.00303
170 0.003049
175 0.001968
176 0.001993
178 0.0
179 0.002986
179 0.002981
181 0.001004
162 0.000998
83 0.000954
20 0.000995
28 0.001994
51 0.003006
76 0.003037
108 0.000991
127 0.001984
137 0.001985
141 0.002994
142 0.003032
141 0.002001
145 0.000996
150 0.00304
160 0.001949
165 0.001984
168 0.002993
172 0.002992
175 0.002021
176 0.001991
178 0.002949
179 0.004035
165 0.003991
63 0.00198
18 0.002053
12 0.002015
42 0.002
65 0.001991
87 0.002992
108 0.003024
124 0.003026
135 0.001993
138 0.001982
139 0.001978
142 0.003992
147 0.004032
156 0.001995
162 0.002041
168 0.001982
171 0.00104
174 0.002983
176 0.00402
178 0.004987
180 0.002994
181 0.002025
172 0.001981
103 0.004052
30 0.004988
4 0.002018
21 0.003984
47 0.002006
65 0.001993
85 0.001995
104 0.004025
118 0.00399
129 0.00201
131 0.002943
133 0.002979
138 0.005052
145 0.005027
155 0.002959
163 0.004986
169 0.002968
173 0.001993
175 0.002014
177 0.004944
178 0.004984
181 0.001936
182 0.002992
177 0.002026
126 0.004991
48 0.004995
16 0.002952
32 0.004981
60 0.002987
81 0.002992
101 0.002988
118 0.005022
128 0.004987
134 0.002992
134 0.003015
136 0.002996
140 0.005012
147 0.005985
155 0.002993
162 0.006002
167 0.002956
170 0.002982
172 0.003001
174 0.005042
176 0.005021
173 0.002992
133 0.003006
58 0.002998
27 0.005987
29 0.005984
56 0.003993
86 0.006014
115 0.003053
130 0.00302
138 0.00396
142 0.005984
143 0.005993
145 0.007016
151 0.004025
156 0.004021
162 0.004025
166 0.005987
169 0.005986
174 0.005986
176 0.005991
178 0.00399
180 0.003995
181 0.004005
167 0.006017
91 0.005984
20 0.00399
13 0.00402
25 0.004993
44 0.006983
63 0.006982
93 0.006026
111 0.007014
125 0.003986
130 0.003989
132 0.003992
135 0.006025
141 0.005976
152 0.004023
158 0.004011
164 0.00399
168 0.006967
172 0.006983
176 0.006022
178 0.006979
180 0.005002
181 0.004989
180 0.005012
144 0.007014
61 0.007019
18 0.005891
22 0.004989
40 0.00398
60 0.006983
79 0.006983
109 0.007029
122 0.007016
131 0.004991
133 0.004987
135 0.004988
139 0.007015
145 0.006981
154 0.004995
160 0.004981
165 0.005942
168 0.007979
172 0.006016
173 0.007979
175 0.00698
177 0.005017
164 0.004988
95 0.004991
39 0.006993
27 0.006999
44 0.005951
66 0.004988
88 0.005955
117 0.007976
134 0.004968
140 0.007987
141 0.007976
142 0.005986
145 0.005977
150 0.005993
156 0.005978
163 0.007967
166 0.007961
169 0.004981
171 0.005985
173 0.005984
176 0.005966
172 0.005998
88 0.007977
29 0.007974
14 0.005951
22 0.005981
40 0.006003
67 0.007961
80 0.007981
107 0.005944
124 0.006964
129 0.006951
133 0.005991
136 0.005992
144 0.00698
151 0.00799
157 0.005978
163 0.005988
167 0.005988
172 0.007973
174 0.007017
175 0.006953
178 0.00698
170 0.00701
58 0.006981
20 0.006976
16 0.007015
29 0.00698
48 0.006014
67 0.005983
93 0.006973
111 0.006983
123 0.006
131 0.006025
134 0.005967
138 0.006013
148 0.005986
155 0.006972
161 0.006021
166 0.005984
170 0.006976
172 0.006986
175 0.006976
177 0.00702
180 0.007025
177 0.006967
106 0.005984
43 0.006017
29 0.006978
40 0.006959
68 0.005984
89 0.006012
117 0.005985
129 0.006008
134 0.006016
133 0.005983
131 0.006014
135 0.006968
141 0.005991
150 0.006007
159 0.006959
165 0.006971
170 0.006017
172 0.006014
175 0.006014
177 0.005983
152 0.005995
70 0.006014
24 0.005989
16 0.005983
34 0.005015
56 0.005016
93 0.005983
114 0.005012
126 0.004987
130 0.005942
130 0.005016
129 0.00597
133 0.005984
141 0.00599
150 0.004987
157 0.005979
166 0.006005
171 0.005989
176 0.005984
179 0.006017
180 0.005984
148 0.006033
58 0.00599
3 0.005983
2 0.006017
15 0.006004
33 0.005014
51 0.005036
78 0.005017
102 0.005028
115 0.005017
118 0.004986
118 0.004986
123 0.004987
130 0.005575
142 0.005016
152 0.005029
161 0.005017
167 0.004998
173 0.004986
179 0.004993
183 0.005018
186 0.004966
164 0.004983
71 0.00402
14 0.00502
0 0.005019
14 0.004021
34 0.00394
55 0.004039
76 0.003922
98 0.004991
115 0.004625
119 0.003989
118 0.003956
122 0.004019
130 0.004025
139 0.004019
148 0.003992
159 0.00399
166 0.003991
174 0.005038
179 0.004963
182 0.004962
187 0.003985
188 0.003989
110 0.004026
39 0.004022
17 0.003959
23 0.004022
43 0.004023
68 0.00399
102 0.003958
124 0.003956
136 0.003022
139 0.003993
137 0.003998
137 0.002996
142 0.002991
154 0.004033
163 0.003988
170 0.004021
177 0.003989
181 0.003953
185 0.00402
188 0.004023
191 0.003005
193 0.003993
194 0.003009
133 0.003039
44 0.002994
5 0.002992
11 0.002989
29 0.002994
52 0.00403
72 0.004029
102 0.003966
120 0.004022
129 0.003027
132 0.003034
131 0.003034
136 0.002992
143 0.002992
154 0.003026
163 0.003026
171 0.002992
177 0.003028
182 0.002994
187 0.002028
189 0.003023
191 0.001997
193 0.003032
194 0.00296
149 0.003028
56 0.002959
9 0.002945
13 0.003023
33 0.002992
57 0.002044
80 0.002992
110 0.002991
126 0.001995
135 0.002032
138 0.002037
139 0.00203
143 0.002027
149 0.002028
160 0.002016
167 0.001995
173 0.002992
177 0.002992
180 0.002991
185 0.002979
187 0.001995
190 0.002051
191 0.002036
108 0.001995
42 0.001995
24 0.002043
42 0.002027
66 0.002027
92 0.001995
118 0.001045
137 0.003027
147 0.002062
150 0.002035
149 0.001994
149 0.002035
156 0.002045
162 0.001887
168 0.002024
172 0.001985
177 0.002027
180 0.003026
182 0.002
185 0.002042
186 0.000997
137 0.001031
51 0.001999
16 0.001991
26 0.001993
48 0.000998
72 0.000997
96 0.001994
124 0.001003
135 0.001995
139 0.002027
140 0.002015
140 0.002047
145 0.002001
152 0.002031
160 0.001005
170 0.000986
174 0.001006
178 0.000956
181 0.001
184 0.000997
187 0.001992
177 0.001982
99 0.002016
26 0.001995
4 0.001996
14 0.0
35 0.000996
71 0.000991
93 0.001007
113 0.000998
126 0.000997
134 0.000975
136 0.001008
138 0.000987
142 0.000996
150 0.000998
161 0.000998
168 0.0
173 0.000992
179 0.0
181 0.0
183 0.0
186 0.0
185 0.000998
138 0.000997
54 0.000959
22 0.000961
22 0.000998
49 0.000997
73 0.000965
97 0.0
130 0.0
139 0.0
142 0.0
141 0.0
140 0.0
145 0.0
152 0.0
158 0.0
165 0.0
170 0.0
175 0.001024
178 0.003006
182 0.002027
183 0.0
168 0.0
91 0.0
36 0.0
25 0.0
42 0.0
66 0.0
90 0.0
121 0.001004
136 0.004054
143 0.001963
146 0.003024
146 0.003024
152 0.0
158 0.0
164 0.0
170 0.003022
175 0.002994
178 0.0
180 0.000947
183 0.0
185 0.004043
185 0.002007
94 0.001053
29 0.001994
10 0.0
20 0.0
40 0.000966
61 0.001998
81 0.00203
108 0.00096
122 0.000995
129 0.0
131 0.001995
134 0.000949
140 0.002026
149 0.002042
160 0.0
167 0.0
173 0.00097
177 0.002028
180 0.002993
184 0.000999
185 0.000967
187 0.001006
186 0.001995
91 0.000968
32 0.002992
17 0.002998
31 0.000995
53 0.0
74 0.001
94 0.002
113 0.002031
130 0.0
135 0.0
136 0.0
136 0.001985
145 0.0
153 0.002031
160 0.00203
167 0.002025
173 0.001012
176 0.0
179 0.0
181 0.002028
183 0.002028
185 0.0
173 0.000964
102 0.0
31 0.0
35 0.000998
54 0.002027
78 0.002992
110 0.0
130 0.0
140 0.0
146 0.002033
147 0.002028
147 0.0
151 0.0
157 0.000949
167 0.000995
171 0.0
175 0.002051
178 0.00204
181 0.0
183 0.000951
184 0.0
184 0.002994
147 0.00198
44 0.0
19 0.002001
21 0.000941
52 0.000994
71 0.002004
92 0.002042
112 0.003044
127 0.000953
132 0.002005
132 0.00296
134 0.002937
139 0.003024
150 0.001964
158 0.001991
165 0.00096
173 0.001983
176 0.0
178 0.003025
181 0.002993
182 0.002032
184 0.001984
173 0.001991
99 0.003007
34 0.003026
15 0.001992
26 0.001995
45 0.001993
78 0.001994
99 0.001998
115 0.003024
124 0.002993
128 0.00299
128 0.00199
131 0.002031
136 0.00402
144 0.003989
155 0.00197
162 0.002009
168 0.001994
174 0.001951
177 0.002006
179 0.003986
180 0.003988
183 0.001989
175 0.001996
111 0.001993
42 0.001998
21 0.003028
27 0.003958
56 0.00201
87 0.003945
115 0.002002
129 0.001995
134 0.001992
134 0.00399
132 0.004
134 0.002995
140 0.002018
149 0.001995
156 0.003982
163 0.00399
169 0.001997
174 0.004985
178 0.001998
181 0.001994
183 0.001991
178 0.003971
123 0.004025
34 0.00199
18 0.00199
26 0.002936
45 0.004025
65 0.004021
92 0.002961
117 0.005037
129 0.002992
131 0.002992
132 0.002994
134 0.005021
140 0.004996
150 0.002044
158 0.001996
165 0.003012
170 0.004021
174 0.00503
178 0.002005
181 0.004977
183 0.002991
183 0.00296
145 0.002932
62 0.004982
23 0.004986
22 0.002991
38 0.002026
57 0.003042
75 0.004989
94 0.005984
115 0.002995
124 0.005977
126 0.002993
129 0.00303
134 0.002992
141 0.004985
149 0.005031
160 0.002992
165 0.002992
169 0.002991
173 0.004987
176 0.005984
178 0.003989
178 0.005984
117 0.002992
49 0.003024
27 0.002992
32 0.00602
49 0.005981
78 0.002992
100 0.003038
120 0.003997
130 0.005984
133 0.00602
131 0.005983
131 0.006019
137 0.006016
148 0.003989
156 0.00301
163 0.003987
167 0.006014
171 0.006022
175 0.002993
179 0.002992
181 0.003955
164 0.007014
87 0.006017
20 0.006017
22 0.006016
43 0.003953
63 0.004004
83 0.003987
105 0.006025
120 0.006022
125 0.00499
125 0.003982
125 0.004996
129 0.007015
136 0.006977
150 0.006976
158 0.006982
167 0.003992
171 0.004033
175 0.003974
179 0.006061
182 0.006978
184 0.004022
169 0.003995
89 0.002989
27 0.006015
10 0.007024
24 0.007021
42 0.007015
65 0.004984
86 0.00499
104 0.004985
115 0.007015
120 0.007011
122 0.004984
125 0.005007
130 0.00399
141 0.007977
153 0.005033
164 0.007969
170 0.007974
176 0.004989
179 0.00495
182 0.005006
184 0.006973
186 0.007019
189 0.004993
177 0.005952
104 0.004983
42 0.007977
27 0.005985
50 0.007973
71 0.007011
92 0.004984
113 0.005005
126 0.004989
129 0.007951
127 0.007979
125 0.007973
128 0.004986
135 0.005952
144 0.005991
158 0.005951
165 0.005993
171 0.00798
177 0.007978
179 0.005954
182 0.005004
184 0.005983
183 0.007963
140 0.007976
60 0.004987
25 0.006061
22 0.005983
50 0.006006
71 0.005985
100 0.007977
119 0.007985
132 0.006978
134 0.005991
133 0.005984
133 0.006981
138 0.006995
146 0.00599
155 0.005985
163 0.00598
174 0.005984
177 0.005992
182 0.007983
183 0.007972
186 0.005978
188 0.006068
188 0.006983
132 0.007011
47 0.00701
12 0.006963
12 0.006989
27 0.006972
56 0.006976
67 0.005981
93 0.006978
109 0.00602
121 0.006003
124 0.006012
126 0.006018
131 0.006014
137 0.006017
146 0.00695
154 0.006973
163 0.006982
176 0.006974
179 0.006966
182 0.00698
184 0.007355
187 0.006981
189 0.006938
188 0.00698
149 0.00702
64 0.007013
20 0.006946
20 0.005973
34 0.005978
74 0.005976
94 0.005983
112 0.006014
121 0.005983
122 0.005978
120 0.005973
121 0.006619
127 0.006006
134 0.005983
142 0.006014
154 0.005976
161 0.005984
171 0.005988
175 0.005981
180 0.005984
183 0.005985
185 0.006017
177 0.005985
105 0.005993
39 0.004985
18 0.005028
22 0.005021
46 0.005953
66 0.005987
102 0.006021
118 0.005991
124 0.005975
124 0.006029
122 0.00603
126 0.004984
133 0.005982
142 0.005981
152 0.005023
161 0.005016
169 0.004978
177 0.00499
181 0.004994
184 0.004972
187 0.004985
189 0.005018
186 0.005017
102 0.005994
32 0.004999
8 0.005003
9 0.005026
22 0.005017
44 0.004974
66 0.003987
92 0.004984
105 0.00499
111 0.003972
113 0.005017
115 0.004022
122 0.00401
132 0.004019
142 0.004025
151 0.00402
160 0.004023
170 0.003951
178 0.004979
184 0.004938
186 0.004983
188 0.004984
192 0.004978
193 0.004973
158 0.004019
72 0.004022
28 0.00402
21 0.003987
32 0.004029
58 0.004021
81 0.003003
101 0.004022
119 0.00402
121 0.003981
119 0.003991
118 0.004033
120 0.004023
129 0.003987
137 0.00399
145 0.004022
152 0.004022
160 0.003985
170 0.002998
176 0.003957
182 0.00399
186 0.004022
174 0.003028
98 0.002985
39 0.002981
22 0.003033
33 0.003029
52 0.00299
72 0.003976
94 0.003987
121 0.003
125 0.004017
123 0.004036
122 0.003989
126 0.003999
133 0.002992
142 0.003003
154 0.002977
163 0.002995
172 0.003996
178 0.002993
184 0.003024
190 0.001964
193 0.003025
172 0.00396
82 0.003956
26 0.002028
10 0.001995
15 0.002989
35 0.003025
51 0.003028
68 0.00301
88 0.002992
103 0.002005
115 0.002997
116 0.002993
120 0.003022
127 0.003028
136 0.003026
146 0.002029
155 0.002025
167 0.002027
175 0.002028
181 0.00203
187 0.002031
190 0.001995
195 0.003032
198 0.002992
171 0.003024
79 0.002029
26 0.002992
12 0.001995
20 0.001992
42 0.001992
59 0.002012
76 0.002026
95 0.001995
114 0.001028
117 0.001974
118 0.001995
121 0.002028
128 0.002992
137 0.002993
146 0.001964
154 0.002024
163 0.001994
171 0.002029
176 0.001977
182 0.001966
189 0.001028
193 0.001995
195 0.002044
161 0.002045
55 0.001991
26 0.001991
25 0.001029
41 0.000998
61 0.000998
89 0.00095
110 0.001995
124 0.002046
127 0.001045
126 0.001961
127 0.002029
133 0.002005
144 0.001996
154 0.000997
163 0.000997
171 0.000998
178 0.001003
185 0.001002
190 0.002026
194 0.00204
199 0.0
199 0.0
166 0.0
74 0.001996
19 0.001961
16 0.002026
28 0.0
46 0.000999
63 0.001039
87 0.000999
104 0.000999
115 0.000998
120 0.001964
121 0.001032
125 0.000993
132 0.001054
145 0.000979
155 0.000997
164 0.000998
172 0.000998
179 0.000998
187 0.000997
190 0.0
196 0.0
201 0.0
187 0.0
104 0.0
40 0.0
19 0.0
29 0.0
47 0.0
66 0.0
85 0.0
110 0.0
122 0.0
126 0.0
126 0.000955
129 0.000991
135 0.00099
143 0.0
152 0.0
164 0.0
172 0.0
178 0.0
184 0.001004
189 0.000997
194 0.0
196 0.0
166 0.0
82 0.000997
39 0.0
32 0.0
51 0.000997
73 0.0
95 0.002026
124 0.000968
136 0.0
136 0.0
133 0.002988
131 0.002961
137 0.003008
145 0.000968
157 0.0
165 0.0
172 0.0
178 0.001979
183 0.001995
188 0.0
192 0.0
190 0.0
140 0.00302
58 0.002026
19 0.003018
28 0.003033
51 0.0
70 0.0
90 0.0
109 0.002916
119 0.00304
122 0.0
121 0.0
123 0.0
128 0.002039
142 0.000952
151 0.002029
159 0.001995
168 0.000978
176 0.0
182 0.00095
187 0.002028
192 0.003009
173 0.000956
86 0.001002
30 0.0
13 0.003007
24 0.000966
42 0.001994
58 0.001999
83 0.0
100 0.0
109 0.0
113 0.002034
114 0.002034
118 0.0
125 0.0
133 0.001009
141 0.002029
155 0.0
161 0.000986
168 0.002008
174 0.003023
182 0.0
188 0.0
189 0.0
137 0.002991
59 0.002998
21 0.0
24 0.0
39 0.0
69 0.0
88 0.000961
106 0.003022
114 0.00204
113 0.000959
112 0.00101
114 0.000982
120 0.002955
129 0.002994
141 0.0
149 0.0
156 0.0
166 0.0
171 0.001011
177 0.003057
184 0.002027
171 0.000966
93 0.000963
38 0.000998
21 0.002955
25 0.00399
46 0.0
64 0.000985
82 0.001998
110 0.000952
115 0.003991
116 0.003014
116 0.003051
121 0.0
130 0.001982
140 0.002995
150 0.002994
159 0.002989
168 0.002991
175 0.002987
180 0.001974
189 0.001974
194 0.001992
199 0.004026
203 0.004024
142 0.001995
56 0.001994
19 0.002963
12 0.002993
20 0.003028
39 0.002992
54 0.002995
71 0.001999
99 0.001997
109 0.002992
114 0.00402
116 0.004021
121 0.002993
129 0.002991
139 0.002024
150 0.001994
160 0.003991
169 0.004021
179 0.001969
185 0.002992
194 0.003002
199 0.00299
204 0.001993
208 0.004986
210 0.004024
147 0.00299
65 0.002993
32 0.003017
28 0.00502
42 0.003986
67 0.002995
92 0.005027
117 0.002008
126 0.000977
128 0.001991
126 0.004947
126 0.004987
133 0.002993
142 0.001994
152 0.001999
162 0.004014
171 0.00403
181 0.002997
189 0.005061
196 0.003025
201 0.002001
205 0.002995
207 0.004992
195 0.005019
87 0.002996
40 0.002993
30 0.00198
41 0.004987
60 0.005037
87 0.002004
115 0.005017
134 0.003996
139 0.002997
139 0.003011
138 0.004987
141 0.006028
152 0.002991
161 0.002983
170 0.002999
178 0.005012
185 0.004989
193 0.003
199 0.005989
204 0.003989
206 0.003985
208 0.004012
210 0.005985
210 0.006018
148 0.002971
60 0.002962
25 0.002992
22 0.005994
35 0.006016
59 0.003
82 0.007013
108 0.004006
124 0.00396
132 0.004987
136 0.003989
137 0.006017
139 0.00597
147 0.003026
156 0.004036
165 0.002978
174 0.005995
182 0.005985
191 0.006982
195 0.006982
199 0.003994
201 0.003982
203 0.003976
204 0.006956
205 0.006983
173 0.003992
85 0.003991
38 0.002996
29 0.00602
42 0.005972
78 0.005986
100 0.006983
128 0.004988
142 0.004983
149 0.004979
151 0.006023
150 0.00602
153 0.003989
158 0.004025
164 0.004022
170 0.007016
175 0.007016
183 0.007035
186 0.007034
189 0.003999
191 0.004027
193 0.004026
194 0.007025
183 0.005971
87 0.003938
40 0.003981
32 0.004995
44 0.007979
65 0.007941
99 0.007954
119 0.007932
137 0.004987
141 0.004993
140 0.004989
138 0.006983
139 0.007045
148 0.005041
156 0.003982
164 0.005022
170 0.007013
175 0.007013
180 0.007981
182 0.00798
185 0.005967
187 0.004984
187 0.004966
122 0.007977
42 0.00798
9 0.004986
7 0.004988
19 0.00595
41 0.007981
62 0.005951
81 0.007939
96 0.007972
107 0.005985
109 0.005947
110 0.005982
114 0.004986
124 0.007971
134 0.00698
144 0.005015
153 0.004986
162 0.004974
173 0.005952
178 0.005985
183 0.006983
186 0.006973
189 0.006002
190 0.00699
163 0.005978
52 0.007973
17 0.007968
15 0.005983
27 0.006953
44 0.004982
72 0.005972
90 0.006037
108 0.006981
114 0.006981
116 0.005933
116 0.005968
120 0.005998
129 0.007056
138 0.007059
147 0.00596
155 0.005985
163 0.005934
176 0.006013
181 0.006031
185 0.006981
189 0.007011
192 0.006946
191 0.005998
152 0.005979
52 0.007015
27 0.006992
31 0.00597
47 0.005983
67 0.005988
109 0.005977
123 0.006019
127 0.006984
125 0.006018
123 0.005949
124 0.0
133 0.005983
142 0.006016
151 0.00598
161 0.005985
168 0.005987
174 0.00598
181 0.006989
185 0.005951
189 0.006026
186 0.007049
97 0.005985
52 0.006967
22 0.005984
25 0.006983
41 0.005986
66 0.005987
85 0.005983
104 0.005981
120 0.005981
122 0.005954
122 0.005951
124 0.006035
132 0.004971
141 0.005952
150 0.005998
158 0.005976
167 0.006085
174 0.006014
182 0.005989
187 0.004981
192 0.003958
195 0.003988
193 0.00502
141 0.005989
55 0.005002
13 0.005968
13 0.005986
25 0.005982
42 0.004984
57 0.006014
80 0.005982
97 0.004971
111 0.005022
115 0.005015
117 0.00498
121 0.004953
129 0.004981
142 0.004973
151 0.004965
160 0.004985
168 0.005018
176 0.006031
184 0.005991
189 0.005005
193 0.00498
195 0.004985
196 0.004993
199 0.005029
201 0.004991
184 0.004989
101 0.005014
39 0.004978
21 0.004986
28 0.00497
51 0.004988
76 0.004181
102 0.004031
117 0.003988
122 0.003988
122 0.003985
120 0.005028
123 0.003996
129 0.003982
138 0.005005
147 0.004998
155 0.00502
166 0.005018
175 0.004027
182 0.004023
185 0.004991
188 0.00399
191 0.004025
193 0.004022
195 0.003982
197 0.004027
198 0.003987
171 0.004032
84 0.004021
29 0.003946
31 0.003022
56 0.004956
77 0.004021
98 0.002992
117 0.003988
128 0.003982
132 0.002987
132 0.004042
131 0.004005
135 0.002998
143 0.002993
152 0.002992
166 0.003991
173 0.002997
180 0.00399
184 0.003972
187 0.003982
189 0.004024
191 0.004023
193 0.003956
194 0.004048
195 0.003042
187 0.002993
124 0.002989
25 0.002986
18 0.003001
35 0.002994
53 0.002038
69 0.002985
87 0.003942
105 0.003955
119 0.004021
124 0.003029
126 0.002978
128 0.002991
132 0.002997
145 0.002992
155 0.003002
165 0.002003
172 0.002024
177 0.001995
181 0.003049
184 0.002992
187 0.002932
188 0.003014
190 0.003034
191 0.003148
189 0.002992
104 0.003026
43 0.002025
25 0.001995
36 0.001994
55 0.002041
75 0.002009
93 0.001995
117 0.001995
126 0.001995
128 0.002029
127 0.002051
127 0.001994
134 0.001995
142 0.002998
153 0.001995
161 0.001995
167 0.00205
172 0.002057
176 0.001999
179 0.002027
181 0.002026
183 0.002031
185 0.001995
185 0.002066
101 0.001994
45 0.001954
31 0.001994
45 0.00203
65 0.002027
87 0.002024
108 0.002029
125 0.001996
135 0.000999
135 0.001
132 0.002024
132 0.000996
137 0.001953
145 0.001998
153 0.003002
163 0.002974
169 0.000999
172 0.002036
176 0.001013
179 0.000998
181 0.000997
184 0.002008
172 0.000956
50 0.001985
16 0.001996
12 0.0
24 0.001963
47 0.002022
63 0.001006
81 0.000999
99 0.001007
108 0.002004
112 0.000997
112 0.000997
113 0.002
123 0.0
131 0.001046
141 0.001001
149 0.0
160 0.001005
167 0.001004
172 0.0
177 0.0
180 0.001039
163 0.0
86 0.0
32 0.0
20 0.001962
33 0.0
51 0.0
68 0.0
92 0.0
107 0.0
114 0.0
116 0.001011
117 0.0
120 0.0
127 0.0
134 0.0
148 0.0
156 0.0
163 0.0
169 0.0
176 0.0
181 0.0
177 0.0
122 0.000997
56 0.001009
30 0.000998
35 0.002025
52 0.0
85 0.0
107 0.002997
120 0.000965
122 0.000999
118 0.0
117 0.003989
120 0.002028
130 0.001011
138 0.0
145 0.0
152 0.003026
159 0.003039
169 0.0
175 0.001035
168 0.000955
98 0.000948
39 0.0
19 0.002979
21 0.003012
41 0.0
59 0.0
77 0.0
98 0.002028
110 0.001994
113 0.002018
113 0.001962
116 0.00096
124 0.001991
133 0.000953
142 0.003015
150 0.003028
157 0.0
165 0.0
172 0.0
179 0.003043
184 0.002995
119 0.002995
44 0.002987
7 0.000952
7 0.0
18 0.0
32 0.002995
46 0.003044
69 0.000973
86 0.0
96 0.0
102 0.002992
104 0.003014
110 0.003043
117 0.002001
130 0.000946
139 0.0
148 0.0
155 0.002995
160 0.003034
167 0.0
172 0.0
178 0.0
185 0.002028
151 0.000999
71 0.001025
26 0.00303
14 0.001999
23 0.001002
40 0.000941
57 0.000946
75 0.003959
92 0.00204
103 0.0
104 0.0
104 0.0
109 0.0
116 0.0
125 0.004021
136 0.005018
147 0.001031
155 0.001986
161 0.0
166 0.002028
172 0.002032
179 0.000941
185 0.0
177 0.00097
64 0.001986
30 0.0
25 0.002986
34 0.003957
58 0.002
77 0.001028
98 0.0
114 0.002993
121 0.00299
121 0.0
120 0.0
124 0.002979
138 0.001038
148 0.001044
157 0.002991
166 0.003044
176 0.00103
182 0.001003
187 0.002991
192 0.00399
195 0.00399
201 0.003004
207 0.003031
206 0.002992
81 0.002032
29 0.003
15 0.004027
20 0.00402
38 0.00301
54 0.001996
70 0.003968
89 0.005038
103 0.003991
113 0.002987
116 0.00299
118 0.002993
127 0.002033
135 0.002029
145 0.003956
155 0.004028
166 0.002027
173 0.002992
180 0.003996
186 0.005022
191 0.005026
197 0.002996
202 0.003004
207 0.002993
206 0.002027
137 0.003982
56 0.003045
24 0.003991
21 0.004024
38 0.002995
57 0.002992
74 0.004001
91 0.004021
108 0.003991
121 0.002993
124 0.002003
126 0.0
131 0.002981
139 0.003001
148 0.005008
157 0.005025
169 0.001969
176 0.003012
182 0.002981
187 0.004863
193 0.005026
199 0.00299
203 0.001996
209 0.001982
211 0.001985
186 0.003996
95 0.005021
42 0.005023
32 0.001996
46 0.002983
68 0.002998
90 0.004987
113 0.005017
136 0.002993
140 0.005991
135 0.002986
135 0.002985
139 0.002993
146 0.005963
156 0.004982
167 0.00299
174 0.002992
181 0.002992
187 0.004985
193 0.004983
199 0.001986
204 0.005989
208 0.003974
196 0.004006
113 0.002992
43 0.006026
19 0.006017
27 0.00297
46 0.002989
67 0.003947
87 0.006982
108 0.00502
127 0.003004
132 0.00603
132 0.003
134 0.00301
139 0.003991
147 0.006015
157 0.006026
168 0.003977
176 0.002988
183 0.003959
190 0.00299
195 0.005987
200 0.006986
204 0.006982
207 0.006982
208 0.004944
184 0.005002
88 0.003016
30 0.005972
15 0.006019
29 0.003956
49 0.003964
68 0.002984
87 0.006017
108 0.007031
128 0.007019
134 0.007016
134 0.005019
137 0.004958
141 0.005041
149 0.007013
158 0.006982
170 0.004997
178 0.00498
185 0.003982
190 0.007016
194 0.007977
199 0.00695
202 0.006975
203 0.004988
205 0.004022
199 0.003995
143 0.006985
61 0.007017
28 0.004989
36 0.004954
58 0.003989
89 0.007971
112 0.007976
140 0.007956
145 0.008011
144 0.004987
138 0.004014
136 0.005986
141 0.007013
148 0.007015
159 0.004997
167 0.005023
173 0.005941
179 0.007016
185 0.007979
192 0.007949
195 0.007982
194 0.004957
153 0.004974
70 0.004983
29 0.007971
34 0.007981
53 0.004974
77 0.005963
101 0.004982
123 0.007069
139 0.006983
145 0.006978
143 0.007983
142 0.007981
147 0.004983
154 0.005031
162 0.005042
170 0.007946
176 0.007989
183 0.004987
186 0.004995
189 0.004987
192 0.006976
195 0.004987
175 0.006975
86 0.00705
24 0.00595
7 0.005985
13 0.005987
37 0.006977
55 0.007013
73 0.005984
93 0.005988
108 0.005013
117 0.005971
119 0.005943
121 0.006982
127 0.00701
136 0.006959
146 0.00598
154 0.005984
166 0.006985
173 0.006989
180 0.005989
183 0.005998
186 0.005986
191 0.005981
188 0.005985
127 0.005977
48 0.005994
15 0.005957
21 0.006013
38 0.005993
58 0.006989
77 0.006993
103 0.006016
113 0.005969
121 0.005982
122 0.006
123 0.006016
128 0.005971
136 0.006015
148 0.006017
156 0.005979
164 0.005988
171 0.006026
177 0.006995
182 0.005971
186 0.005986
188 0.005969
186 0.006972
100 0.00602
44 0.005988
29 0.006012
43 0.005958
65 0.005986
87 0.005979
109 0.005994
128 0.005955
134 0.004994
131 0.005989
128 0.005998
132 0.006002
140 0.004999
149 0.005058
158 0.005021
165 0.005019
174 0.005985
