117 0.027956
119 0.002973
121 0.002992
122 0.002991
127 0.002996
133 0.002987
142 0.003953
149 0.002982
155 0.002988
161 0.002983
166 0.003958
170 0.003993
173 0.004
177 0.003015
178 0.003941
181 0.002983
171 0.002992
107 0.00297
68 0.003989
59 0.00399
67 0.002991
76 0.003955
85 0.00399
95 0.004988
106 0.003984
115 0.00399
118 0.003943
116 0.003924
121 0.004014
126 0.002975
134 0.002995
140 0.004008
145 0.003989
154 0.003004
157 0.00299
162 0.003984
165 0.004953
168 0.004987
174 0.003989
139 0.003991
66 0.003937
58 0.003988
62 0.003972
71 0.003989
80 0.003989
91 0.003978
104 0.003989
115 0.003989
119 0.004987
118 0.004987
118 0.004466
123 0.003989
131 0.004026
138 0.004986
143 0.004949
151 0.004979
156 0.004988
160 0.00399
164 0.004986
168 0.00399
172 0.004992
146 0.004986
73 0.003958
52 0.004982
52 0.004953
59 0.004994
65 0.005039
73 0.005954
84 0.005985
98 0.004979
101 0.00502
104 0.005004
105 0.005984
107 0.005984
113 0.004987
120 0.004988
133 0.004987
137 0.004983
145 0.004996
150 0.006015
154 0.006033
160 0.004987
163 0.004988
166 0.006018
160 0.006015
103 0.006017
56 0.004987
47 0.004987
53 0.004987
59 0.005034
65 0.004986
76 0.006023
88 0.006023
99 0.004987
101 0.005031
102 0.005967
104 0.006025
107 0.006026
114 0.005934
121 0.005984
133 0.005984
139 0.006018
144 0.006018
148 0.006059
155 0.00603
158 0.006021
162 0.006015
165 0.006019
168 0.005936
172 0.005984
153 0.005985
91 0.005984
51 0.006994
54 0.005985
63 0.005994
71 0.005985
81 0.006945
93 0.007015
101 0.006015
102 0.006013
101 0.00602
103 0.006982
107 0.006982
116 0.00601
126 0.006981
134 0.006014
140 0.005984
145 0.006027
150 0.006982
153 0.006982
157 0.005985
160 0.006982
165 0.007018
158 0.007014
104 0.007001
65 0.006983
52 0.006981
57 0.007031
62 0.006981
70 0.007015
84 0.007054
95 0.007025
103 0.006015
103 0.005975
104 0.006023
106 0.007981
112 0.006941
122 0.006926
133 0.007979
142 0.006982
148 0.007021
153 0.007012
158 0.007979
162 0.007979
166 0.006985
170 0.006982
172 0.006966
177 0.006983
143 0.006982
85 0.006983
52 0.00704
53 0.007036
59 0.007016
65 0.00798
77 0.007978
86 0.007979
97 0.007979
105 0.006981
106 0.006981
107 0.007979
109 0.007985
118 0.006983
128 0.007948
139 0.006977
146 0.006981
151 0.006983
158 0.007014
162 0.006981
168 0.007011
171 0.007014
172 0.007981
175 0.007973
179 0.007981
183 0.007983
163 0.007979
85 0.007976
59 0.007989
59 0.007979
66 0.00698
77 0.007978
86 0.007013
103 0.006981
112 0.007014
114 0.007023
112 0.007012
111 0.007005
117 0.007017
123 0.006938
134 0.007978
136 0.007979
147 0.007929
153 0.006981
158 0.006982
163 0.006984
167 0.007003
171 0.006981
175 0.006979
176 0.00707
94 0.007019
64 0.006981
58 0.007012
63 0.006982
71 0.006982
79 0.006983
90 0.006943
106 0.007019
112 0.006982
113 0.005989
113 0.005974
116 0.005995
125 0.006033
133 0.007031
143 0.007026
150 0.007042
156 0.007029
161 0.007021
166 0.007013
171 0.007027
175 0.007012
178 0.007008
181 0.006015
183 0.005983
187 0.00603
143 0.005984
69 0.006017
52 0.006049
50 0.006016
55 0.006023
60 0.005984
69 0.006982
80 0.006015
91 0.007015
98 0.005975
100 0.005984
103 0.006024
106 0.005984
115 0.006013
124 0.006029
132 0.006022
139 0.005946
146 0.005978
152 0.005017
156 0.005014
162 0.006008
166 0.005015
170 0.004988
176 0.005029
178 0.006016
184 0.006026
185 0.005988
142 0.006015
81 0.006022
54 0.005984
49 0.006032
54 0.006032
60 0.004977
68 0.004977
79 0.004972
96 0.005034
100 0.005022
101 0.004987
102 0.004987
106 0.005978
112 0.006016
119 0.005995
126 0.006022
136 0.005984
142 0.004987
148 0.004995
152 0.004985
158 0.005015
161 0.004991
165 0.00499
169 0.005018
173 0.004986
178 0.004992
179 0.005984
136 0.006037
69 0.005017
55 0.004991
54 0.005027
63 0.005019
80 0.00502
94 0.005027
105 0.00503
109 0.004987
108 0.005021
107 0.00403
109 0.004987
115 0.00399
125 0.004004
132 0.00398
139 0.004027
145 0.004995
155 0.005032
160 0.005027
164 0.005035
169 0.005022
173 0.004987
175 0.005014
178 0.005045
182 0.004046
174 0.00403
111 0.004029
64 0.003989
49 0.003991
52 0.004006
59 0.004031
65 0.00402
78 0.003991
89 0.004016
96 0.004989
99 0.004987
100 0.00504
102 0.005014
107 0.005033
114 0.004028
122 0.004
135 0.004021
141 0.00399
147 0.003991
154 0.003991
158 0.00402
163 0.003892
167 0.004032
172 0.004053
177 0.003966
181 0.003028
182 0.003022
185 0.002945
191 0.003036
165 0.004034
95 0.004036
56 0.004039
44 0.004034
47 0.004019
53 0.004038
59 0.00399
67 0.003025
83 0.002989
92 0.003017
96 0.002996
98 0.003002
101 0.002993
106 0.002994
113 0.002998
124 0.003001
132 0.00399
139 0.004057
145 0.003989
150 0.003027
157 0.003004
161 0.003022
165 0.002988
171 0.003027
174 0.003001
177 0.002993
181 0.002993
175 0.003036
114 0.002999
65 0.002994
49 0.003025
51 0.003989
63 0.003025
72 0.001992
84 0.002959
104 0.002994
107 0.003031
106 0.003043
105 0.003026
109 0.002992
116 0.002993
123 0.002957
131 0.002027
140 0.002028
148 0.001991
154 0.001994
160 0.001984
167 0.002994
170 0.002995
173 0.002993
177 0.002992
179 0.002041
183 0.001995
187 0.001995
161 0.002038
92 0.001994
49 0.002043
44 0.001998
48 0.001999
59 0.002031
67 0.002021
78 0.001952
89 0.001975
95 0.00296
96 0.002004
96 0.001962
99 0.001994
105 0.001994
115 0.001995
124 0.001993
131 0.002036
142 0.001995
147 0.001995
151 0.001961
156 0.001957
160 0.001995
165 0.001995
168 0.001964
171 0.001994
176 0.001986
170 0.001038
92 0.002033
52 0.000988
36 0.000998
38 0.000997
42 0.001005
48 0.000997
57 0.001009
74 0.000998
82 0.001996
86 0.00203
87 0.002043
89 0.001036
94 0.000996
100 0.000996
114 0.000997
121 0.000985
128 0.000998
134 0.000996
139 0.000997
145 0.000998
150 0.000997
155 0.000985
158 0.001032
162 0.000998
167 0.001046
171 0.0
179 0.001013
153 0.000997
87 0.000998
51 0.000998
41 0.000997
46 0.000998
54 0.001032
62 0.0
73 0.0
85 0.0
92 0.0
92 0.0
94 0.0
97 0.000998
104 0.001005
112 0.000998
120 0.0
130 0.000997
137 0.0
143 0.001006
147 0.0
152 0.0
158 0.0
161 0.0
166 0.0
172 0.0
177 0.0
182 0.0
164 0.0
83 0.0
52 0.0
44 0.0
47 0.0
50 0.0
57 0.001052
66 0.0
84 0.0
90 0.0
92 0.0
95 0.0
97 0.0
105 0.0
114 0.0
122 0.0
133 0.0
138 0.0
147 0.0
152 0.001054
160 0.0
166 0.000997
172 0.000998
178 0.0
182 0.0
186 0.0
189 0.0
193 0.0
197 0.0
200 0.0
202 0.0
147 0.001027
57 0.0
45 0.000998
47 0.000999
54 0.0
59 0.0
67 0.0
78 0.000966
89 0.001996
96 0.0
97 0.0
98 0.0
102 0.002003
114 0.001043
122 0.001997
130 0.000999
138 0.000998
147 0.0
153 0.0
157 0.001005
162 0.000999
169 0.001028
172 0.000995
176 0.000998
179 0.000995
184 0.001039
188 0.001995
192 0.001995
144 0.000993
82 0.001
56 0.000998
52 0.002002
57 0.001969
69 0.001001
80 0.001047
93 0.001041
102 0.001974
106 0.000998
105 0.001993
106 0.000986
111 0.002029
119 0.002025
127 0.002025
138 0.001986
146 0.001996
155 0.001013
160 0.000989
165 0.001049
170 0.002021
176 0.001038
179 0.00204
183 0.002044
186 0.000999
190 0.002027
192 0.001997
154 0.002002
84 0.002002
50 0.002994
43 0.001988
47 0.000999
54 0.000997
66 0.00099
78 0.000968
89 0.002036
95 0.002025
97 0.00104
98 0.001046
100 0.001996
109 0.001996
117 0.00299
130 0.002037
139 0.002044
146 0.001994
157 0.002027
163 0.002027
168 0.003026
172 0.002992
179 0.001994
182 0.000945
186 0.002019
188 0.003991
191 0.003023
194 0.002971
197 0.002028
178 0.002
64 0.002014
41 0.002033
38 0.002977
44 0.002981
54 0.002015
60 0.002025
70 0.001997
83 0.002981
92 0.002957
95 0.001988
97 0.002995
99 0.002938
109 0.00299
118 0.003015
127 0.004021
135 0.00399
144 0.003029
151 0.002969
158 0.001979
164 0.003026
168 0.002996
173 0.002966
177 0.002936
180 0.002994
184 0.003018
187 0.003027
191 0.00399
185 0.00402
94 0.003028
51 0.002991
41 0.003023
46 0.004047
57 0.004988
72 0.003991
85 0.004004
95 0.003978
106 0.004018
105 0.004023
104 0.004024
106 0.00399
113 0.003989
124 0.002992
134 0.004023
142 0.00399
150 0.004987
156 0.004988
164 0.003989
167 0.000997
174 0.004027
177 0.003915
181 0.004016
184 0.004989
185 0.005021
115 0.003994
57 0.003989
36 0.003991
35 0.003978
41 0.004959
52 0.003028
60 0.004043
80 0.004024
88 0.004027
92 0.004024
93 0.004986
94 0.004987
101 0.003989
110 0.003945
119 0.003983
130 0.004963
139 0.005007
149 0.003989
156 0.003989
165 0.004021
170 0.00399
174 0.003988
178 0.004986
181 0.005028
186 0.003942
188 0.00399
193 0.005024
180 0.005984
102 0.005955
41 0.004985
32 0.004988
40 0.005018
47 0.00604
54 0.005021
65 0.005017
79 0.006012
90 0.005986
94 0.004022
96 0.003964
98 0.00602
103 0.005985
113 0.004987
123 0.004987
138 0.005019
147 0.005016
153 0.005018
159 0.006015
164 0.005985
170 0.003944
175 0.004997
178 0.00494
182 0.006982
184 0.006982
188 0.005985
192 0.004988
151 0.004991
76 0.004972
44 0.005034
39 0.006023
46 0.006077
59 0.00599
72 0.005984
86 0.006022
98 0.005951
103 0.006951
103 0.007013
102 0.005984
107 0.005979
118 0.005985
128 0.005941
137 0.005984
146 0.006989
153 0.005984
160 0.00694
167 0.005984
170 0.006984
177 0.006982
181 0.007018
184 0.005987
188 0.007013
193 0.006022
196 0.00602
158 0.006037
80 0.007019
44 0.00798
38 0.007017
44 0.006983
51 0.006982
61 0.006982
71 0.006978
88 0.006983
97 0.007026
99 0.007012
101 0.007033
105 0.006944
113 0.006996
122 0.007024
132 0.006993
146 0.005984
154 0.006032
161 0.007013
167 0.006982
174 0.005952
180 0.007025
185 0.007012
189 0.007018
193 0.006986
196 0.00798
200 0.007983
203 0.006982
205 0.005986
207 0.006013
211 0.00795
211 0.00698
144 0.007068
54 0.007014
37 0.005981
42 0.006947
53 0.006948
65 0.007964
75 0.008017
88 0.007013
99 0.006951
104 0.007013
105 0.00798
106 0.007981
112 0.006945
123 0.007978
135 0.006981
145 0.007042
154 0.007018
161 0.007979
166 0.007979
174 0.006976
178 0.007011
182 0.007015
184 0.007965
189 0.008007
191 0.007935
196 0.007979
198 0.007979
201 0.006961
202 0.006949
204 0.006985
185 0.00798
83 0.006985
45 0.006983
47 0.007014
59 0.007017
74 0.007016
88 0.006983
112 0.007024
118 0.008032
118 0.007978
117 0.007961
116 0.007947
123 0.006992
131 0.006981
144 0.007003
152 0.006994
158 0.007025
164 0.007015
170 0.00702
176 0.007018
181 0.007015
185 0.006981
188 0.006013
191 0.005865
192 0.006982
193 0.006947
195 0.006982
194 0.007027
152 0.006953
74 0.007013
39 0.006996
37 0.00698
47 0.006014
59 0.006013
69 0.00601
83 0.005994
95 0.006085
102 0.005986
106 0.005946
108 0.006017
112 0.006024
119 0.006014
128 0.006025
143 0.006018
151 0.006026
160 0.007022
165 0.006024
169 0.006009
174 0.005975
178 0.006027
183 0.006012
186 0.006033
188 0.006022
190 0.006016
191 0.006005
192 0.006009
170 0.005984
70 0.005984
37 0.006023
33 0.005981
41 0.005018
52 0.005022
65 0.005021
77 0.006008
91 0.006026
99 0.006038
103 0.006025
104 0.005962
108 0.006024
114 0.005029
125 0.005014
133 0.004989
141 0.005026
147 0.00502
153 0.005026
159 0.005017
163 0.005024
167 0.006022
170 0.006045
175 0.00502
178 0.005027
182 0.005019
173 0.005015
106 0.005003
51 0.005029
34 0.005036
36 0.005073
50 0.005002
61 0.004988
73 0.004987
89 0.004019
99 0.00503
100 0.004019
100 0.005029
105 0.005096
113 0.004997
121 0.005007
130 0.005009
138 0.005024
147 0.005026
153 0.004997
158 0.004987
164 0.005027
170 0.005036
174 0.005022
178 0.004446
182 0.004029
184 0.005024
186 0.005021
173 0.005034
99 0.003999
36 0.004033
26 0.004021
29 0.004026
36 0.003986
46 0.004033
58 0.004021
71 0.003993
82 0.004024
84 0.003988
85 0.00399
89 0.003943
96 0.003965
107 0.003989
117 0.002972
127 0.002991
135 0.00404
147 0.003981
152 0.00402
156 0.004023
162 0.004019
166 0.00403
169 0.00403
173 0.004019
176 0.004026
179 0.003959
184 0.002966
185 0.002965
156 0.002958
48 0.002994
29 0.002994
29 0.003055
36 0.002994
45 0.002993
54 0.003007
68 0.002992
79 0.003036
83 0.004027
85 0.002992
86 0.003017
90 0.002992
96 0.012966
105 0.000996
138 0.002946
143 0.002993
147 0.002999
151 0.003004
155 0.003032
159 0.00198
163 0.003002
168 0.002031
146 0.001993
82 0.001995
46 0.003005
37 0.001996
44 0.001993
53 0.002967
64 0.00299
78 0.003033
91 0.002969
96 0.002984
96 0.003025
96 0.00302
104 0.002989
112 0.002992
121 0.002014
130 0.001945
141 0.001986
148 0.002022
153 0.001988
158 0.002004
163 0.002027
167 0.001988
172 0.001992
174 0.002026
179 0.002992
183 0.002001
181 0.001997
134 0.001996
54 0.001994
34 0.002017
32 0.002028
37 0.002021
43 0.001982
52 0.001984
65 0.002023
76 0.002023
86 0.001995
88 0.001008
90 0.001024
95 0.001994
105 0.001991
115 0.00203
125 0.002018
134 0.001976
143 0.002022
152 0.001991
157 0.002019
161 0.001993
169 0.001974
173 0.002031
176 0.000995
179 0.001008
181 0.000964
186 0.001
189 0.00199
182 0.002031
116 0.00102
59 0.001102
36 0.00103
38 0.000978
49 0.000998
56 0.000998
68 0.00103
80 0.00103
89 0.000997
93 0.0
94 0.001009
97 0.001034
103 0.0
111 0.000997
123 0.000999
133 0.000997
146 0.000997
153 0.0
157 0.000988
161 0.0
165 0.0
169 0.001028
173 0.001043
176 0.000986
180 0.000993
185 0.000994
177 0.001008
114 0.0
49 0.000989
47 0.0
54 0.0
64 0.0
75 0.0
95 0.00096
106 0.0
109 0.0
108 0.0
108 0.0
113 0.0
121 0.0
137 0.0
145 0.0
154 0.0
161 0.0
166 0.0
172 0.0
175 0.0
178 0.0
181 0.0
184 0.0
187 0.0
191 0.001026
167 0.001003
92 0.0
51 0.0
40 0.0
42 0.0
52 0.001028
58 0.0
68 0.0
82 0.0
95 0.0
99 0.0
100 0.0
105 0.0
113 0.000998
122 0.001018
135 0.0
142 0.000998
150 0.000997
160 0.0
165 0.002039
171 0.0
175 0.0
178 0.000997
183 0.002024
188 0.0
191 0.001045
194 0.000967
197 0.000957
199 0.0
203 0.0
197 0.000997
133 0.000998
54 0.0
39 0.001005
41 0.0
50 0.000934
63 0.0
73 0.000997
86 0.001958
97 0.000999
100 0.0
100 0.0
102 0.002033
108 0.001996
118 0.0
128 0.0
138 0.001033
146 0.00103
154 0.006017
161 0.001051
165 0.00195
169 0.000998
172 0.00102
174 0.000998
177 0.001996
180 0.001995
184 0.000965
162 0.001031
90 0.00101
50 0.002007
43 0.000963
53 0.001995
64 0.002023
82 0.001027
92 0.001995
105 0.000999
108 0.001995
108 0.002993
108 0.001031
113 0.00095
124 0.000953
134 0.002028
148 0.001012
156 0.002031
162 0.002021
169 0.001969
172 0.002048
176 0.001002
179 0.002997
181 0.003028
183 0.003027
187 0.00203
184 0.000987
126 0.000993
40 0.000997
31 0.000984
35 0.002994
43 0.00203
53 0.001986
64 0.001996
78 0.002046
88 0.003049
93 0.002992
96 0.001995
98 0.001996
103 0.002054
117 0.00204
127 0.002029
137 0.003026
146 0.003992
156 0.001971
162 0.003025
166 0.002026
170 0.003006
174 0.003028
178 0.001941
180 0.001968
182 0.001999
187 0.001996
189 0.003018
193 0.002988
184 0.002965
85 0.003013
42 0.001996
30 0.002001
35 0.002994
44 0.004006
56 0.003026
68 0.003028
81 0.002992
94 0.001999
96 0.001994
96 0.004039
99 0.004024
108 0.00203
117 0.002002
126 0.002016
135 0.002992
144 0.003985
152 0.002003
158 0.002979
162 0.002994
169 0.003029
172 0.003024
175 0.003993
178 0.003961
183 0.002983
182 0.00295
138 0.003024
71 0.003956
44 0.005002
44 0.002994
55 0.003026
68 0.002961
93 0.002962
106 0.002963
111 0.003992
109 0.004035
107 0.002998
110 0.002962
117 0.003952
127 0.004988
137 0.005021
146 0.004986
156 0.004033
162 0.004023
170 0.003027
173 0.003031
177 0.003031
180 0.003995
182 0.00399
187 0.003949
185 0.003944
129 0.00399
61 0.004989
36 0.005014
34 0.003967
42 0.003964
57 0.003964
69 0.00399
84 0.003986
93 0.005026
97 0.005034
99 0.005027
102 0.004021
107 0.005024
117 0.006024
127 0.006032
140 0.004007
150 0.003998
162 0.00399
168 0.003992
172 0.003966
175 0.004988
179 0.005027
184 0.003989
187 0.004008
189 0.00396
192 0.005049
195 0.005021
199 0.004988
182 0.003986
60 0.004983
36 0.004988
35 0.005018
43 0.005983
53 0.006016
66 0.005
80 0.005018
93 0.004987
102 0.005023
105 0.005022
105 0.004987
109 0.003992
122 0.005019
131 0.005011
141 0.004987
149 0.00602
157 0.005985
164 0.004954
169 0.004989
173 0.004963
177 0.005985
178 0.005985
184 0.004974
186 0.006033
192 0.006021
195 0.0
171 0.004946
92 0.006017
52 0.005978
46 0.005924
57 0.004935
71 0.004969
86 0.004976
103 0.00597
116 0.00598
119 0.004977
116 0.006018
117 0.005984
123 0.005983
132 0.005983
141 0.006982
149 0.006982
159 0.006017
164 0.005984
169 0.005983
173 0.006983
177 0.006951
181 0.005977
186 0.006955
190 0.005988
193 0.005984
174 0.005985
95 0.006995
48 0.006939
35 0.005984
42 0.004967
53 0.006982
64 0.006982
76 0.007979
96 0.007015
106 0.006982
108 0.005984
109 0.005952
113 0.005988
122 0.006993
131 0.006982
144 0.005953
152 0.005957
159 0.005992
166 0.007974
169 0.007996
175 0.006991
179 0.007945
184 0.006984
188 0.006982
191 0.006982
194 0.007979
195 0.007946
198 0.007014
198 0.007016
176 0.006014
92 0.007009
43 0.007982
33 0.006987
43 0.007983
58 0.006977
69 0.006982
83 0.006953
100 0.006981
105 0.007983
109 0.007002
111 0.006987
114 0.007007
123 0.007003
132 0.007026
143 0.006974
153 0.007087
160 0.006981
164 0.006981
169 0.007041
174 0.006975
178 0.006984
183 0.007025
185 0.006982
188 0.007013
190 0.007013
191 0.007998
191 0.007978
194 0.007915
192 0.008002
151 0.006989
77 0.006981
45 0.007018
50 0.00703
65 0.007016
86 0.007029
102 0.006985
112 0.006944
124 0.007015
125 0.007015
123 0.006049
125 0.00704
133 0.007016
140 0.00701
147 0.006999
154 0.006949
159 0.006992
165 0.005983
169 0.006018
173 0.005989
177 0.00702
180 0.007038
183 0.006031
185 0.007012
186 0.00701
187 0.007
189 0.007034
186 0.006982
145 0.006977
54 0.006002
35 0.006004
39 0.006027
50 0.006021
64 0.006023
87 0.00502
101 0.006021
112 0.007014
115 0.005974
116 0.006019
118 0.006002
122 0.006012
131 0.006013
138 0.006014
144 0.006063
151 0.00595
156 0.005952
164 0.00598
168 0.006013
173 0.006013
176 0.004964
178 0.005984
179 0.006012
181 0.006021
182 0.00501
182 0.005034
184 0.004972
185 0.005023
182 0.005981
88 0.006027
40 0.005985
31 0.006016
39 0.006014
52 0.006015
65 0.00602
78 0.006018
96 0.006008
104 0.004994
108 0.00502
109 0.005
111 0.005021
119 0.005979
125 0.004952
132 0.005019
141 0.004977
147 0.005017
152 0.005022
157 0.005023
161 0.005018
166 0.005018
169 0.005021
171 0.005021
173 0.005022
175 0.005995
176 0.00498
178 0.004985
180 0.004988
180 0.004984
167 0.00502
99 0.005026
49 0.004987
39 0.005024
51 0.005022
67 0.00503
84 0.004988
108 0.004949
115 0.004981
117 0.003992
114 0.004023
114 0.005044
117 0.00502
123 0.005045
130 0.005034
139 0.004019
144 0.00402
149 0.005018
155 0.005022
161 0.004023
165 0.003996
167 0.00399
171 0.003988
173 0.004022
167 0.004021
111 0.004023
51 0.003987
28 0.00401
33 0.004021
44 0.005024
56 0.004986
80 0.00399
93 0.003982
100 0.004036
104 0.003987
104 0.004026
107 0.004004
113 0.003955
121 0.004016
130 0.003986
137 0.003946
143 0.003955
149 0.002993
156 0.002992
161 0.004027
165 0.004039
169 0.004038
171 0.004024
173 0.003973
175 0.004013
176 0.004024
177 0.002953
160 0.004021
85 0.003023
37 0.002994
26 0.002992
33 0.003
42 0.002992
50 0.003038
68 0.002992
81 0.003989
90 0.003949
95 0.004015
97 0.00399
103 0.003991
109 0.002959
117 0.002992
130 0.002996
137 0.003025
144 0.002959
149 0.003073
154 0.002954
159 0.002993
163 0.00303
166 0.003015
169 0.002
172 0.002992
174 0.00402
176 0.003023
179 0.001981
180 0.002013
164 0.001945
94 0.002985
39 0.002992
34 0.002995
42 0.003026
54 0.00299
66 0.003031
85 0.003024
97 0.001984
103 0.002953
103 0.002027
104 0.001991
108 0.002002
114 0.002032
124 0.003022
131 0.001994
138 0.001995
144 0.002008
149 0.001999
154 0.002032
158 0.001996
162 0.001995
168 0.002043
170 0.002027
173 0.001988
176 0.002034
155 0.002026
84 0.002027
42 0.002028
33 0.002028
38 0.001995
52 0.002029
63 0.001976
77 0.002032
97 0.002003
102 0.001009
104 0.001195
105 0.00101
110 0.002036
118 0.001029
127 0.001995
134 0.002041
141 0.001996
150 0.001996
154 0.001997
159 0.001996
165 0.000974
169 0.000999
172 0.001993
175 0.001048
177 0.001028
179 0.001994
181 0.00104
183 0.001048
177 0.002029
127 0.001945
47 0.000997
31 0.000997
38 0.001973
48 0.002018
57 0.001996
69 0.001993
82 0.001004
96 0.000955
100 0.000997
103 0.000997
106 0.000998
112 0.000997
122 0.000998
130 0.000996
142 0.0
148 0.001032
154 0.001034
158 0.001036
162 0.001028
166 0.000996
170 0.001031
173 0.001032
176 0.000998
177 0.000993
179 0.001002
180 0.0
183 0.0
182 0.0
161 0.0
89 0.001036
48 0.0
41 0.001037
51 0.000993
65 0.001004
78 0.0
92 0.0
107 0.0
111 0.0
111 0.0
112 0.0
116 0.001007
123 0.0
130 0.0
138 0.0
144 0.0
150 0.000998
155 0.0
158 0.000997
164 0.0
167 0.0
172 0.0
175 0.00101
172 0.0
128 0.0
64 0.0
38 0.0
42 0.001026
53 0.000988
69 0.0
78 0.0
98 0.000998
106 0.000997
111 0.0
112 0.0
115 0.0
121 0.0
127 0.0
137 0.0
143 0.0
149 0.0
156 0.0
160 0.0
163 0.000998
168 0.000997
173 0.000967
176 0.000964
178 0.002028
179 0.0
180 0.000973
182 0.0
166 0.00199
92 0.001964
36 0.0
29 0.0
34 0.0
43 0.00103
57 0.0
71 0.000997
83 0.000998
94 0.00099
96 0.000973
99 0.0
102 0.001996
108 0.000997
118 0.0
125 0.0
132 0.0
139 0.001996
147 0.0
151 0.001995
154 0.002024
158 0.0
162 0.0
164 0.0
167 0.001005
171 0.002005
177 0.0
179 0.0
168 0.000968
100 0.002029
36 0.0
34 0.001997
42 0.001997
56 0.0
69 0.0
83 0.0
92 0.002039
93 0.001995
92 0.001003
94 0.000996
99 0.000988
107 0.002003
122 0.0
129 0.001947
136 0.001991
144 0.000973
149 0.00095
153 0.002047
156 0.00198
159 0.002029
163 0.000954
165 0.000954
168 0.001048
173 0.002026
119 0.000997
56 0.002993
31 0.002052
28 0.000997
34 0.000949
42 0.000998
50 0.002993
63 0.003026
78 0.000999
84 0.002001
86 0.000989
87 0.002038
95 0.000966
103 0.00201
113 0.002043
122 0.003026
134 0.000954
141 0.00203
147 0.001963
152 0.002992
156 0.002992
161 0.002026
164 0.001048
167 0.000998
172 0.002003
174 0.001953
177 0.003991
180 0.003991
184 0.00197
187 0.001992
171 0.001995
93 0.003028
42 0.002862
25 0.001952
28 0.00199
35 0.001996
47 0.001989
59 0.001962
71 0.004008
78 0.002964
84 0.001995
86 0.002035
89 0.003001
95 0.004027
104 0.003994
117 0.00198
127 0.001974
136 0.001993
148 0.002028
153 0.00198
158 0.002996
162 0.003024
167 0.00299
170 0.00299
173 0.00299
175 0.002986
178 0.00399
182 0.002991
184 0.002981
187 0.002969
191 0.002004
194 0.003004
196 0.004016
187 0.004015
92 0.002991
46 0.002993
35 0.002991
39 0.00401
51 0.003977
65 0.003023
79 0.002994
93 0.002992
102 0.002997
101 0.002993
100 0.004025
102 0.004025
111 0.003989
120 0.002983
129 0.003029
137 0.005022
144 0.004992
151 0.00303
156 0.002986
160 0.002991
166 0.002962
169 0.002993
172 0.00399
175 0.00403
178 0.002993
182 0.00396
186 0.002959
185 0.004021
143 0.004986
72 0.004987
39 0.003015
41 0.003023
59 0.00399
72 0.00402
87 0.003026
102 0.004987
109 0.004964
109 0.002992
108 0.002998
109 0.003005
116 0.004015
124 0.004997
136 0.003007
144 0.002986
154 0.004
159 0.003958
163 0.003956
167 0.004989
171 0.004989
175 0.003959
178 0.003994
182 0.00402
184 0.005003
186 0.004987
189 0.00398
192 0.003989
166 0.003999
84 0.004032
40 0.003994
29 0.005021
33 0.00595
45 0.004988
55 0.004033
67 0.005022
80 0.005982
89 0.005986
96 0.004023
96 0.003986
101 0.003956
108 0.004016
116 0.003991
126 0.004989
135 0.00602
145 0.004951
151 0.00503
156 0.004983
160 0.005984
164 0.005984
169 0.005019
172 0.003982
178 0.003942
180 0.004025
184 0.004025
186 0.005985
188 0.007039
190 0.004997
191 0.005002
174 0.004981
94 0.005984
43 0.006017
30 0.005025
36 0.005034
54 0.004967
64 0.004986
77 0.005981
87 0.007014
92 0.006981
94 0.004987
95 0.004971
100 0.004985
108 0.006015
115 0.005979
127 0.004992
135 0.004984
146 0.004989
150 0.004984
154 0.005985
158 0.006984
161 0.006985
164 0.007042
168 0.006017
171 0.006016
174 0.006014
177 0.007013
182 0.007014
183 0.006025
121 0.00699
50 0.004959
39 0.005969
44 0.00596
56 0.007012
69 0.006989
89 0.005991
103 0.005812
109 0.005939
108 0.00698
105 0.007022
107 0.005986
116 0.006982
128 0.006018
136 0.005975
144 0.006024
152 0.007961
156 0.006982
161 0.006025
165 0.005021
168 0.004972
172 0.007979
176 0.007953
179 0.005986
183 0.007979
187 0.005953
189 0.00597
192 0.005962
182 0.006986
110 0.007004
41 0.00599
30 0.005992
33 0.005981
41 0.007979
49 0.007976
62 0.005985
79 0.007942
90 0.005986
92 0.006984
94 0.005947
96 0.00798
101 0.008016
113 0.005986
123 0.00598
132 0.006981
141 0.007978
148 0.007979
155 0.006982
163 0.007949
167 0.006984
171 0.007015
174 0.00699
177 0.007981
180 0.007979
185 0.005967
188 0.005968
191 0.00698
193 0.007016
194 0.007012
195 0.006982
134 0.007017
63 0.006953
37 0.006932
36 0.006949
43 0.006952
55 0.007945
65 0.007979
87 0.007011
97 0.006977
102 0.006871
104 0.007023
105 0.007013
112 0.00703
120 0.007013
131 0.006959
140 0.00696
146 0.006014
152 0.007021
157 0.007022
162 0.006994
166 0.007027
169 0.007013
172 0.00701
176 0.007013
181 0.007016
183 0.007009
186 0.006963
190 0.007011
185 0.006982
139 0.007014
72 0.007011
46 0.006001
51 0.006017
65 0.00602
81 0.005999
97 0.006027
118 0.006019
121 0.007015
118 0.006971
116 0.007015
119 0.007011
126 0.00698
133 0.007015
142 0.006013
149 0.005984
155 0.00599
160 0.006015
164 0.006016
170 0.006009
173 0.005998
178 0.005978
179 0.005984
182 0.006964
185 0.007039
182 0.006008
109 0.005983
50 0.006029
32 0.006018
32 0.00602
39 0.006009
55 0.006012
67 0.006015
86 0.005969
93 0.005984
98 0.004976
99 0.005986
102 0.00502
109 0.006017
118 0.00602
127 0.005979
136 0.006017
143 0.006099
153 0.006017
158 0.006027
163 0.005985
167 0.005024
172 0.005026
175 0.005007
179 0.00503
182 0.005019
185 0.00502
186 0.005034
188 0.005021
189 0.005018
108 0.00599
50 0.005021
32 0.004984
35 0.005017
44 0.005019
53 0.005042
63 0.004988
77 0.005024
92 0.00502
98 0.005021
100 0.00487
102 0.004996
110 0.004965
118 0.004955
126 0.005024
138 0.004021
144 0.004001
150 0.003957
155 0.004022
159 0.005023
164 0.004989
168 0.004987
172 0.005024
174 0.00502
178 0.005021
180 0.004025
182 0.00395
185 0.00399
187 0.004045
183 0.004024
135 0.004025
67 0.003992
40 0.004024
46 0.00404
59 0.005017
74 0.005031
99 0.003936
110 0.004939
114 0.003979
114 0.003989
113 0.00402
116 0.003988
123 0.004019
130 0.00402
140 0.004019
146 0.003961
151 0.004019
156 0.004019
163 0.003985
167 0.003973
171 0.003958
176 0.004034
178 0.004021
180 0.00402
182 0.004021
183 0.004025
185 0.004022
187 0.004029
178 0.003989
118 0.004021
36 0.003033
30 0.002938
37 0.003987
52 0.002992
61 0.002992
74 0.002993
88 0.002992
96 0.003994
102 0.00399
103 0.00399
106 0.003989
111 0.003989
125 0.002994
133 0.003028
140 0.003026
146 0.003027
154 0.002998
159 0.00303
163 0.002992
167 0.00298
171 0.002897
176 0.003991
178 0.002992
181 0.003024
183 0.003983
184 0.002955
186 0.002993
182 0.002992
109 0.002995
50 0.002993
32 0.002992
35 0.002962
45 0.003006
60 0.002992
71 0.002992
85 0.002999
101 0.002004
107 0.002992
108 0.002024
110 0.001993
117 0.002027
124 0.001982
131 0.001998
139 0.001995
145 0.002028
153 0.003007
158 0.001995
162 0.001999
168 0.003024
171 0.003048
174 0.002036
177 0.001998
180 0.002994
182 0.002993
184 0.001995
186 0.001995
186 0.001995
147 0.002043
78 0.001995
50 0.001995
59 0.002027
76 0.001046
93 0.002961
109 0.002027
123 0.000998
127 0.001041
128 0.001996
127 0.002006
128 0.001996
133 0.001995
139 0.002036
145 0.001961
155 0.001995
161 0.001994
166 0.002041
169 0.001996
174 0.002003
176 0.001992
179 0.001995
179 0.000996
180 0.001998
182 0.000965
183 0.001018
177 0.001012
81 0.00203
41 0.001029
33 0.002002
40 0.002028
53 0.001995
69 0.002025
81 0.001
94 0.000998
103 0.001005
108 0.001004
111 0.000998
114 0.000997
123 0.000997
130 0.001036
136 0.001028
143 0.000997
148 0.000997
155 0.001999
160 0.000997
164 0.0
168 0.0
171 0.0
175 0.000998
177 0.000997
179 0.001039
180 0.001047
180 0.001031
182 0.000998
183 0.00101
164 0.000998
92 0.000998
44 0.0
33 0.0
39 0.001002
56 0.0
68 0.0
89 0.0
99 0.0
105 0.00106
108 0.0
110 0.0
114 0.0
120 0.0
126 0.0
133 0.000999
139 0.000997
146 0.001001
151 0.001001
158 0.0
162 0.0
166 0.0
168 0.0
170 0.0
173 0.0
174 0.0
174 0.000966
177 0.001011
178 0.0
164 0.002043
101 0.001042
45 0.0
49 0.0
63 0.0
80 0.0
100 0.0
113 0.001029
120 0.000998
122 0.000981
122 0.000982
122 0.0
125 0.000998
131 0.002024
141 0.002041
147 0.00201
152 0.0
157 0.000985
160 0.000967
164 0.002029
167 0.002041
169 0.002026
171 0.0
171 0.0
172 0.0
174 0.002045
168 0.0
120 0.001997
55 0.002033
30 0.0
35 0.0
47 0.0
59 0.001034
72 0.001
89 0.0
96 0.000997
104 0.0
106 0.001006
109 0.0
115 0.000986
121 0.001991
130 0.0
136 0.0
142 0.0
147 0.002002
152 0.00103
156 0.000999
161 0.001007
164 0.0
167 0.002031
170 0.0
171 0.002034
172 0.002027
174 0.0
175 0.0
167 0.0
110 0.001043
48 0.001043
27 0.0
32 0.0
42 0.0
52 0.001995
73 0.0
86 0.001998
95 0.002045
100 0.001009
103 0.0
106 0.000968
111 0.002027
118 0.002024
127 0.000949
134 0.001955
140 0.000968
145 0.001995
153 0.001011
157 0.001996
161 0.001996
165 0.001992
168 0.000949
169 0.0
171 0.00203
172 0.002031
174 0.001044
175 0.000997
177 0.000966
171 0.002992
79 0.0
44 0.002997
39 0.002993
52 0.002036
66 0.000996
80 0.002
94 0.002992
104 0.002993
109 0.000953
109 0.000984
110 0.000989
113 0.001
122 0.001952
128 0.00198
134 0.003025
140 0.001995
146 0.000968
151 0.001997
155 0.002011
159 0.002992
162 0.003022
166 0.001995
168 0.001989
169 0.000978
173 0.002
169 0.002028
129 0.002992
64 0.003031
38 0.000996
41 0.001025
53 0.001027
66 0.003024
79 0.004021
98 0.001988
105 0.001962
109 0.002027
110 0.001975
113 0.001996
118 0.003023
125 0.003052
134 0.00199
140 0.00303
146 0.00199
151 0.004039
155 0.00399
160 0.001995
164 0.001949
167 0.001976
171 0.002988
172 0.00295
174 0.004034
175 0.003026
177 0.002008
178 0.002949
168 0.003013
111 0.003989
51 0.004023
30 0.001993
34 0.002051
44 0.002029
59 0.002979
71 0.001998
84 0.003989
92 0.003986
98 0.001962
101 0.001979
104 0.002019
110 0.004019
118 0.004981
128 0.002991
135 0.00299
141 0.002996
148 0.003027
153 0.002027
156 0.003989
160 0.004024
165 0.002027
167 0.002998
169 0.002992
171 0.004987
173 0.004987
174 0.002993
177 0.002996
177 0.003005
122 0.003003
60 0.002991
37 0.00399
38 0.004987
49 0.003997
65 0.004005
79 0.003022
93 0.003021
103 0.004989
107 0.004987
109 0.00299
111 0.002993
119 0.003008
125 0.00301
131 0.00299
138 0.005984
144 0.004986
151 0.003991
156 0.003988
160 0.003993
163 0.005019
166 0.004987
170 0.002992
172 0.003988
176 0.003993
178 0.002982
170 0.003023
124 0.005985
67 0.006013
48 0.003989
55 0.003985
69 0.003984
85 0.005016
99 0.005023
115 0.004967
120 0.00395
122 0.003993
123 0.00399
126 0.003985
132 0.006018
138 0.006016
146 0.004023
152 0.003986
157 0.004066
161 0.005987
165 0.006008
169 0.004011
172 0.003992
175 0.00399
177 0.003992
179 0.004039
179 0.006021
179 0.006024
182 0.004004
179 0.004986
145 0.004985
73 0.005984
40 0.005988
36 0.003988
45 0.004997
63 0.004987
76 0.004986
88 0.003988
97 0.005984
104 0.006976
107 0.004982
109 0.004984
114 0.004988
120 0.006982
127 0.007013
135 0.004995
140 0.004987
149 0.005014
153 0.00498
158 0.004986
163 0.006981
167 0.006982
170 0.007013
173 0.004989
175 0.004987
176 0.004991
176 0.007014
177 0.006983
177 0.004988
179 0.006981
173 0.004987
131 0.004994
60 0.005998
32 0.007014
30 0.007013
43 0.005982
55 0.004969
66 0.004995
79 0.007024
91 0.007017
99 0.004983
103 0.006982
106 0.004988
111 0.004982
117 0.005976
125 0.007948
130 0.00801
138 0.005982
143 0.005984
148 0.005973
153 0.007019
157 0.006981
163 0.005985
167 0.006982
170 0.005989
172 0.005988
174 0.005952
175 0.007993
176 0.007971
177 0.005984
178 0.005991
172 0.005984
129 0.007012
61 0.007031
33 0.005986
41 0.007979
59 0.005985
73 0.005982
86 0.005986
97 0.007977
105 0.007979
105 0.005984
106 0.006968
109 0.006981
114 0.007979
119 0.007979
128 0.005974
135 0.007978
141 0.005984
145 0.005981
148 0.005989
154 0.007977
157 0.007994
160 0.005983
165 0.006972
167 0.006983
168 0.007016
171 0.007015
173 0.006977
140 0.00698
72 0.007002
41 0.006981
38 0.006982
54 0.007985
69 0.00698
86 0.007032
104 0.006984
110 0.006964
111 0.006979
110 0.007015
110 0.007026
116 0.007025
123 0.00702
132 0.00698
137 0.006979
140 0.00698
146 0.007022
150 0.007015
154 0.006972
158 0.007013
161 0.006979
164 0.007012
167 0.007014
170 0.007015
149 0.007011
54 0.007027
24 0.006038
19 0.006978
24 0.006018
33 0.00602
45 0.005952
59 0.006995
71 0.005985
78 0.007007
80 0.005986
82 0.007024
86 0.007016
96 0.006941
105 0.006024
111 0.006977
122 0.007017
129 0.006014
136 0.005987
141 0.006016
145 0.005974
147 0.006014
150 0.006058
154 0.006019
156 0.006018
161 0.005983
156 0.005027
105 0.006981
43 0.006034
17 0.006042
13 0.006031
19 0.006017
27 0.006015
36 0.006016
47 0.005979
61 0.006014
65 0.006016
66 0.00598
69 0.005017
74 0.005011
81 0.005025
88 0.004973
101 0.005021
108 0.006016
115 0.005994
121 0.005993
128 0.005982
136 0.006017
140 0.006018
146 0.006022
150 0.005984
154 0.004989
159 0.005033
148 0.005024
67 0.004976
33 0.004989
21 0.005021
23 0.00502
28 0.004999
39 0.00502
48 0.006
55 0.005985
57 0.005025
55 0.005025
55 0.005021
56 0.005018
60 0.005023
68 0.005022
76 0.005017
84 0.004988
90 0.00502
98 0.004987
101 0.005025
105 0.004024
112 0.004056
118 0.004023
125 0.005021
133 0.005023
135 0.005021
87 0.005019
50 0.004989
31 0.005027
26 0.005018
34 0.005026
40 0.004043
48 0.004023
58 0.004002
61 0.004029
61 0.003991
61 0.004052
64 0.004995
71 0.003991
78 0.003991
85 0.005023
93 0.00399
104 0.004028
110 0.004028
115 0.00399
122 0.00402
126 0.004023
132 0.004033
137 0.003959
142 0.004026
149 0.003991
153 0.00396
158 0.003958
165 0.002994
152 0.004022
93 0.004028
54 0.004007
35 0.003998
36 0.003991
41 0.00399
46 0.003994
53 0.003958
66 0.003988
72 0.004049
75 0.003969
77 0.002993
81 0.002994
85 0.002996
92 0.003023
102 0.002995
109 0.003026
116 0.002977
123 0.003022
128 0.004024
135 0.003992
140 0.004045
144 0.00399
149 0.00299
157 0.002995
162 0.002994
168 0.002993
174 0.002993
159 0.002995
102 0.003026
64 0.002992
49 0.00299
48 0.003991
56 0.003025
65 0.004024
74 0.002991
90 0.002955
94 0.002028
95 0.003045
95 0.00196
99 0.002994
103 0.003014
110 0.002992
119 0.002966
127 0.002992
137 0.002992
144 0.003024
149 0.002026
158 0.002989
162 0.001974
167 0.001994
171 0.002029
178 0.003995
185 0.002037
188 0.001995
153 0.001995
98 0.002029
63 0.002029
59 0.001995
66 0.002027
83 0.001996
95 0.001996
107 0.003028
114 0.003026
115 0.002993
114 0.001995
114 0.000999
117 0.001995
123 0.002026
132 0.001995
140 0.001996
148 0.002
160 0.001995
166 0.001996
172 0.002038
174 0.001041
180 0.001995
184 0.002005
188 0.001987
194 0.002008
197 0.001996
136 0.001996
85 0.002033
65 0.002029
69 0.001984
80 0.000998
93 0.002031
109 0.002042
124 0.002028
123 0.000998
119 0.000998
117 0.000997
119 0.000998
126 0.002006
135 0.001996
144 0.000159
158 0.002032
165 0.001996
171 0.001997
177 0.001995
182 0.001002
188 0.000998
195 0.000997
194 0.0
138 0.00104
79 0.000997
50 0.000998
48 0.002026
60 0.000997
69 0.0
81 0.0
95 0.002039
103 0.002038
106 0.0
107 0.0
108 0.0
112 0.0
119 0.0
131 0.001038
141 0.001025
155 0.001011
163 0.000998
170 0.000997
175 0.001017
179 0.000996
185 0.0
188 0.0
193 0.0
199 0.0
202 0.0
126 0.0
65 0.0
37 0.0
41 0.0
50 0.0
60 0.0
69 0.001008
87 0.0
95 0.0
99 0.0
100 0.0
102 0.0
107 0.0
114 0.0
130 0.0
140 0.0
149 0.0
157 0.0
165 0.000997
174 0.00203
179 0.002026
185 0.0
189 0.0
194 0.0
198 0.0
202 0.002033
210 0.002025
203 0.002026
100 0.0
65 0.000999
43 0.0
48 0.002041
60 0.002042
81 0.0
96 0.0
110 0.0
113 0.0
110 0.001995
107 0.001043
110 0.001011
116 0.001033
129 0.0
139 0.000961
145 0.000997
157 0.001029
165 0.001031
173 0.0
177 0.0
182 0.000993
186 0.002055
195 0.0
198 0.002051
158 0.001939
65 0.0
40 0.0
38 0.0
46 0.001031
59 0.000962
76 0.0
92 0.000966
103 0.000962
106 0.002004
104 0.0
105 0.002028
110 0.002037
122 0.0
134 0.0
144 0.0
154 0.000998
162 0.000998
172 0.0
178 0.0
183 0.0
187 0.00103
194 0.0
198 0.001995
202 0.002032
160 0.0
75 0.0
35 0.0
24 0.002032
27 0.002028
39 0.0
48 0.0
54 0.000993
71 0.002008
86 0.0
89 0.002008
91 0.002034
95 0.0
102 0.0
112 0.001005
123 0.002026
134 0.002003
148 0.000997
156 0.001993
164 0.000965
171 0.002026
182 0.001999
187 0.002955
192 0.002991
198 0.001954
201 0.001999
204 0.001991
208 0.001995
212 0.001996
160 0.001004
73 0.000952
36 0.000961
28 0.002993
41 0.000982
52 0.002993
62 0.002993
80 0.001994
91 0.001999
97 0.001994
99 0.002992
100 0.001995
104 0.003003
113 0.001993
124 0.002017
135 0.001998
153 0.00098
163 0.000978
171 0.003027
177 0.002992
183 0.001028
188 0.001015
192 0.001014
194 0.002993
198 0.002992
202 0.001998
204 0.002996
208 0.002031
193 0.00094
105 0.001994
53 0.002992
39 0.003023
48 0.001988
64 0.001032
81 0.001031
99 0.003024
113 0.003023
117 0.002019
113 0.002006
110 0.001984
117 0.001996
126 0.001996
138 0.004022
150 0.003989
163 0.001997
171 0.002002
178 0.001997
183 0.003026
187 0.002992
192 0.00296
194 0.001952
197 0.003021
202 0.001977
203 0.00198
163 0.003989
73 0.003989
25 0.001983
21 0.002988
28 0.002992
38 0.00399
48 0.00399
64 0.001027
78 0.002031
87 0.001997
91 0.001996
93 0.002031
98 0.004019
106 0.004026
121 0.002967
133 0.002022
144 0.002005
154 0.004031
163 0.00499
171 0.002961
177 0.002989
183 0.002961
190 0.002992
193 0.001999
196 0.00502
199 0.003993
205 0.002993
199 0.002035
128 0.001998
52 0.003989
24 0.004024
23 0.002987
34 0.002036
46 0.003046
66 0.002959
80 0.002978
90 0.001011
94 0.005032
96 0.006019
99 0.00203
105 0.002994
115 0.002995
126 0.004021
139 0.005982
153 0.003981
162 0.003986
174 0.003023
179 0.002976
183 0.00296
187 0.00504
190 0.005016
193 0.002992
196 0.002991
198 0.003989
200 0.005984
204 0.005985
191 0.003958
107 0.003985
34 0.004003
34 0.003994
47 0.003991
63 0.004987
79 0.00497
103 0.002999
113 0.003017
113 0.003983
111 0.005985
111 0.005955
115 0.003989
125 0.003988
142 0.004005
152 0.003988
160 0.003989
167 0.005976
173 0.005984
179 0.003974
182 0.004994
185 0.003981
187 0.006035
189 0.005985
194 0.003987
194 0.00399
90 0.003994
36 0.003985
20 0.004956
24 0.006015
36 0.006021
53 0.00501
66 0.004959
81 0.004984
92 0.005996
95 0.006009
95 0.005028
97 0.004988
109 0.003999
120 0.003988
131 0.004987
143 0.007016
152 0.007031
163 0.004986
169 0.004987
175 0.004987
179 0.006981
183 0.006982
188 0.004951
190 0.006014
195 0.004969
198 0.00402
200 0.003987
167 0.005021
75 0.007013
30 0.006981
18 0.004983
23 0.004987
32 0.004949
40 0.007048
51 0.006982
69 0.005954
81 0.006979
85 0.003989
88 0.005984
93 0.004976
101 0.007988
115 0.007978
127 0.005983
139 0.005985
149 0.004957
156 0.006935
163 0.006987
171 0.005987
177 0.006981
183 0.004988
187 0.004984
189 0.005993
193 0.007978
196 0.007981
199 0.005952
201 0.005971
204 0.006976
207 0.00698
209 0.007978
180 0.005988
61 0.007978
21 0.004955
20 0.006986
28 0.004982
38 0.007013
46 0.007976
62 0.006019
74 0.005987
80 0.005951
84 0.007967
86 0.007012
89 0.006979
104 0.007011
114 0.005982
124 0.005984
134 0.004975
146 0.006975
154 0.007981
160 0.005983
166 0.005979
171 0.006073
175 0.00798
178 0.007979
184 0.006049
188 0.007965
193 0.005985
194 0.00599
194 0.005984
105 0.007972
42 0.007978
20 0.006054
22 0.006971
32 0.006976
43 0.006983
54 0.007013
73 0.00698
83 0.00698
84 0.005969
85 0.006968
88 0.006979
95 0.006981
104 0.007982
114 0.005954
124 0.006915
134 0.00698
142 0.006981
152 0.00702
158 0.006976
166 0.00702
171 0.007015
175 0.006983
179 0.005985
183 0.006983
187 0.007015
191 0.007016
196 0.005986
174 0.00602
85 0.006987
34 0.006017
19 0.006974
27 0.007037
40 0.007019
56 0.006967
67 0.006982
79 0.006978
85 0.007021
85 0.007018
85 0.006006
89 0.005986
96 0.005985
104 0.005971
114 0.005989
130 0.006019
138 0.005986
147 0.005963
153 0.005945
159 0.00598
163 0.006013
167 0.006018
172 0.005991
178 0.00598
182 0.005984
186 0.005959
192 0.005986
187 0.006021
112 0.006035
41 0.005981
29 0.005993
35 0.005983
48 0.005016
63 0.005005
87 0.006018
98 0.006029
98 0.005975
93 0.006017
90 0.00598
95 0.006005
103 0.005977
115 0.005018
124 0.005983
133 0.005019
141 0.005021
148 0.004985
156 0.005017
160 0.004981
164 0.004991
170 0.005979
176 0.005984
139 0.006021
68 0.006015
26 0.005006
20 0.005985
25 0.00598
34 0.00502
43 0.005024
58 0.005016
70 0.005017
77 0.005002
78 0.004989
79 0.004983
84 0.004988
91 0.005018
100 0.005034
113 0.004987
123 0.005031
130 0.005033
138 0.004998
144 0.00498
151 0.004993
156 0.004978
161 0.004022
168 0.003954
181 0.004986
170 0.003993
98 0.003991
38 0.004038
24 0.004046
26 0.004023
34 0.004026
41 0.004005
54 0.003989
66 0.004956
76 0.005028
83 0.005027
86 0.005019
88 0.00502
93 0.005023
104 0.003966
113 0.004022
123 0.004053
133 0.004022
140 0.003991
149 0.003958
154 0.003958
159 0.003961
164 0.003963
171 0.00399
178 0.002953
184 0.002992
138 0.004039
75 0.004029
44 0.004007
37 0.00402
43 0.003989
58 0.003928
71 0.003957
87 0.00395
99 0.003991
100 0.004032
99 0.004029
100 0.003995
108 0.004004
116 0.003992
126 0.002991
136 0.003036
146 0.003021
156 0.004038
164 0.003988
170 0.002966
174 0.002962
182 0.002992
187 0.002992
194 0.003992
197 0.00399
141 0.003027
72 0.003991
38 0.002938
28 0.003024
34 0.003021
43 0.003025
51 0.002984
62 0.002942
81 0.002979
87 0.003046
88 0.002988
90 0.003026
95 0.002987
102 0.002988
113 0.00203
121 0.002035
123 0.001998
125 0.002026
129 0.002044
134 0.002958
149 0.002998
154 0.002992
159 0.001981
163 0.002993
168 0.002993
174 0.002992
180 0.001996
189 0.001962
199 0.002022
198 0.002037
145 0.002002
90 0.001996
51 0.002018
52 0.003008
56 0.002992
59 0.002993
66 0.002987
78 0.00203
85 0.002034
87 0.002045
87 0.001995
88 0.001996
93 0.002058
100 0.002032
115 0.002
124 0.002039
130 0.002027
139 0.002027
155 0.002994
165 0.000999
174 0.001028
178 0.001992
178 0.001996
183 0.002032
191 0.002075
196 0.002007
195 0.001995
201 0.002046
216 0.002045
206 0.000998
120 0.000997
79 0.000997
66 0.001029
69 0.001995
78 0.002026
90 0.001999
95 0.001971
100 0.002044
101 0.001996
99 0.001951
98 0.001953
99 0.001996
104 0.000998
111 0.001044
120 0.001039
130 0.002
138 0.001022
147 0.001029
152 0.001036
157 0.000966
166 0.000997
172 0.000997
178 0.002039
184 0.002047
164 0.001961
90 0.002028
56 0.0
43 0.0
44 0.0
53 0.0
69 0.0
77 0.0
88 0.000997
94 0.0
95 0.001011
94 0.00099
96 0.000998
105 0.00102
116 0.000995
126 0.0
135 0.0
142 0.0
153 0.0
161 0.0
174 0.0
181 0.0
189 0.0
198 0.000997
202 0.0
133 0.0
74 0.0
46 0.0
39 0.0
45 0.0
57 0.0
67 0.0
87 0.0
98 0.0
104 0.0
107 0.0
111 0.0
119 0.0
127 0.000968
138 0.0
150 0.0
161 0.0
174 0.0
182 0.002039
191 0.001998
197 0.002038
205 0.0
212 0.0
219 0.0
216 0.000997
155 0.000966
77 0.000936
55 0.0
54 0.001019
64 0.001999
75 0.002032
97 0.001038
110 0.001032
117 0.0
116 0.0
116 0.0
117 0.002039
121 0.002007
131 0.000951
141 0.0
152 0.000955
161 0.003003
168 0.001995
182 0.0
189 0.002029
196 0.002041
192 0.000967
136 0.0
84 0.000977
61 0.002015
58 0.002028
69 0.0
81 0.0
93 0.000973
107 0.002016
121 0.0
121 0.00204
121 0.002027
126 0.000997
133 0.001018
142 0.000956
152 0.002028
162 0.002028
172 0.0
177 0.000984
181 0.0
186 0.002026
197 0.0
204 0.002005
184 0.001997
95 0.0
56 0.0
43 0.0
44 0.001992
51 0.002026
61 0.0
70 0.000967
82 0.000961
92 0.002024
99 0.0
100 0.002041
103 0.002025
113 0.001019
123 0.0
134 0.000984
146 0.002057
157 0.003046
171 0.000957
179 0.001013
185 0.001005
193 0.002027
202 0.0
207 0.002025
213 0.002026
223 0.002004
162 0.002017
206 0.0
120 0.002026
65 0.003039
42 0.00096
45 0.0
55 0.0
65 0.002993
85 0.0
97 0.003008
104 0.002993
107 0.001031
108 0.001051
112 0.0
119 0.003037
127 0.003025
140 0.0
152 0.0
161 0.00105
167 0.003028
178 0.000958
183 0.002992
188 0.003023
193 0.002992
202 0.0
210 0.002988
214 0.001043
174 0.002961
97 0.003989
47 0.002998
41 0.001001
50 0.002989
73 0.002
89 0.001992
107 0.002991
116 0.002989
117 0.002058
117 0.001993
119 0.001995
126 0.003038
136 0.004023
152 0.002002
163 0.001994
172 0.001992
186 0.001964
194 0.001985
200 0.004025
207 0.003993
214 0.001998
219 0.002998
223 0.002002
228 0.004024
234 0.003969
219 0.002948
122 0.002994
56 0.001961
28 0.00201
35 0.002004
45 0.003991
55 0.004005
72 0.001996
87 0.002958
96 0.002998
99 0.004049
101 0.004042
105 0.00301
113 0.002994
124 0.003101
145 0.002032
157 0.002029
168 0.005023
177 0.005019
189 0.002979
195 0.001993
202 0.00303
208 0.004023
214 0.003991
221 0.002007
226 0.002021
231 0.003005
239 0.001996
237 0.002012
163 0.00402
71 0.004987
32 0.002959
32 0.002969
44 0.002968
58 0.00502
72 0.005953
96 0.003009
109 0.002023
113 0.003115
113 0.002988
114 0.001995
120 0.004987
131 0.005019
147 0.002993
160 0.002978
171 0.00296
181 0.002978
188 0.005987
194 0.005939
201 0.003017
204 0.00404
211 0.002997
215 0.002043
220 0.003022
226 0.00498
219 0.005022
104 0.003025
48 0.002993
34 0.002992
40 0.005046
58 0.006018
85 0.003991
107 0.003956
128 0.003994
124 0.003987
120 0.003992
119 0.005984
124 0.006016
139 0.003954
152 0.003988
164 0.003998
174 0.005985
183 0.005018
194 0.003973
200 0.003965
208 0.003996
212 0.003991
215 0.003991
219 0.005986
220 0.005985
129 0.003981
47 0.003959
18 0.00399
15 0.00702
24 0.006029
41 0.005002
54 0.00499
81 0.004989
91 0.00402
94 0.003981
95 0.006018
97 0.005986
106 0.004022
116 0.004004
129 0.003987
142 0.00702
154 0.006984
168 0.004949
176 0.005022
187 0.005006
192 0.004987
196 0.004989
200 0.006984
206 0.006984
212 0.004957
197 0.003957
103 0.003988
34 0.005969
12 0.006963
14 0.004945
24 0.004987
44 0.003988
61 0.004987
77 0.004987
87 0.006989
91 0.006996
92 0.007022
97 0.004991
105 0.004945
115 0.005961
128 0.007981
145 0.00798
156 0.004969
171 0.007987
179 0.004986
184 0.004988
189 0.004999
194 0.007043
199 0.006997
204 0.004986
207 0.004985
210 0.00499
217 0.007946
217 0.007949
137 0.005989
26 0.007955
17 0.005966
27 0.00502
42 0.005984
63 0.007972
82 0.007978
97 0.005952
100 0.004987
98 0.005955
97 0.007975
101 0.007976
110 0.005987
129 0.007982
141 0.005983
152 0.005981
162 0.006006
173 0.007965
179 0.007978
186 0.00698
189 0.005987
194 0.005027
199 0.007013
204 0.007979
209 0.005984
172 0.005974
42 0.005981
20 0.005989
22 0.005999
33 0.007979
51 0.007015
67 0.006949
86 0.006949
96 0.006951
99 0.006975
99 0.007013
102 0.006948
107 0.005985
126 0.005981
138 0.005999
150 0.005997
164 0.007988
173 0.006987
180 0.006936
186 0.006946
192 0.006951
198 0.006973
202 0.007026
206 0.006976
209 0.006948
214 0.006983
220 0.00598
216 0.006948
110 0.006029
38 0.00602
14 0.006014
14 0.006983
23 0.006981
33 0.006982
48 0.007012
63 0.006975
77 0.006987
89 0.006979
91 0.006976
95 0.006959
103 0.006027
114 0.006968
125 0.005981
142 0.005967
154 0.005989
164 0.005983
172 0.006016
179 0.006038
188 0.005965
195 0.007024
201 0.00698
204 0.006963
209 0.006028
212 0.005984
215 0.006022
220 0.006006
218 0.006031
159 0.006013
64 0.006058
26 0.005988
22 0.005975
37 0.006019
53 0.004996
68 0.004986
84 0.005031
93 0.004985
96 0.006027
97 0.005
100 0.005022
105 0.004987
116 0.004955
128 0.004986
143 0.006017
158 0.006022
169 0.005984
175 0.005969
178 0.005984
183 0.006017
188 0.006016
194 0.005979
200 0.005019
205 0.004992
199 0.00502
127 0.004987
43 0.004986
28 0.005019
42 0.004991
58 0.005007
75 0.00499
96 0.00404
111 0.005028
113 0.005977
109 0.004922
109 0.004986
115 0.004989
125 0.004956
142 0.004988
158 0.004979
169 0.00502
180 0.004987
187 0.003993
193 0.004988
197 0.003995
201 0.00404
205 0.003984
207 0.003957
209 0.003979
212 0.004972
216 0.005025
127 0.004987
46 0.005
13 0.004974
15 0.004982
26 0.004995
37 0.003959
48 0.003977
69 0.004039
81 0.004022
87 0.00399
89 0.003028
92 0.002992
103 0.003989
114 0.002963
130 0.003952
143 0.003961
154 0.003005
164 0.003982
169 0.00399
176 0.004005
182 0.004027
188 0.00399
193 0.003968
197 0.003989
203 0.00399
205 0.003989
208 0.003992
213 0.00395
212 0.004006
160 0.003055
63 0.004009
15 0.003971
14 0.002994
25 0.002988
38 0.00303
50 0.003022
76 0.003024
87 0.002979
93 0.004019
93 0.003022
96 0.00399
102 0.00394
112 0.003957
128 0.003979
141 0.002992
152 0.003957
161 0.003984
168 0.003018
178 0.00299
182 0.003025
187 0.003027
191 0.002999
196 0.002988
201 0.004009
201 0.002981
121 0.003042
51 0.001998
27 0.001994
28 0.001996
42 0.002022
69 0.002029
90 0.00299
108 0.001962
113 0.001993
111 0.001997
109 0.002992
113 0.003003
121 0.002992
138 0.002966
150 0.002056
161 0.003037
171 0.003026
183 0.003017
189 0.003015
193 0.001995
198 0.002029
201 0.001977
203 0.001998
206 0.002032
210 0.002031
197 0.001989
109 0.001995
38 0.002028
14 0.001007
20 0.000969
32 0.001982
43 0.002035
61 0.00203
76 0.001977
86 0.002045
90 0.002041
92 0.002009
97 0.001995
105 0.002045
117 0.001993
130 0.002011
151 0.000997
161 0.00104
170 0.001025
179 0.001041
185 0.001029
189 0.002045
194 0.001995
198 0.002053
203 0.002005
204 0.00198
207 0.001038
211 0.002042
213 0.000995
165 0.001041
68 0.001035
18 0.000997
16 0.000998
25 0.001029
38 0.001037
49 0.001985
69 0.001993
83 0.002041
91 0.001996
94 0.0
98 0.001001
103 0.002009
113 0.001039
128 0.002038
141 0.001042
152 0.001048
162 0.00101
170 0.001029
177 0.000966
182 0.000942
185 0.000956
189 0.0
194 0.000965
198 0.001033
203 0.0
197 0.0
100 0.0
43 0.0
27 0.0
30 0.0
44 0.0
67 0.0
86 0.0
104 0.0
108 0.000998
105 0.000986
106 0.000996
113 0.000998
127 0.0
139 0.000997
150 0.0
160 0.0
169 0.0
178 0.0
181 0.0
185 0.0
192 0.000997
195 0.0
199 0.001027
201 0.0
144 0.001005
58 0.0
21 0.000968
15 0.000998
21 0.0
35 0.0
47 0.0
64 0.0
88 0.002012
93 0.0
95 0.0
97 0.000966
106 0.000997
117 0.0
129 0.001028
146 0.000943
156 0.000966
166 0.001068
174 0.002044
182 0.0
188 0.001047
194 0.000965
196 0.000965
200 0.000968
202 0.003038
204 0.003024
209 0.001018
201 0.0
126 0.0
46 0.002001
16 0.002039
16 0.0
31 0.002003
45 0.0
60 0.0
76 0.000998
87 0.00199
94 0.001993
98 0.0
102 0.001
109 0.000952
120 0.000969
131 0.001991
143 0.002041
161 0.001992
169 0.002048
177 0.000964
182 0.0
185 0.0
189 0.001999
192 0.002042
196 0.00097
200 0.000997
204 0.0
202 0.002042
153 0.003028
39 0.003016
27 0.001997
40 0.000955
56 0.00102
73 0.000947
93 0.001994
109 0.001998
114 0.000951
112 0.0
112 0.0
116 0.002
124 0.002028
145 0.001995
157 0.003031
170 0.00095
177 0.0
183 0.0
187 0.003037
190 0.001999
194 0.0
198 0.0
202 0.0
197 0.003018
135 0.002994
32 0.003025
21 0.004028
30 0.0
43 0.0
56 0.0
73 0.001996
90 0.002044
103 0.0
105 0.0
107 0.0
111 0.00304
119 0.002989
140 0.002961
151 0.002993
165 0.000963
174 0.0
180 0.0
186 0.004008
190 0.004035
195 0.001046
198 0.000992
199 0.001001
202 0.002992
204 0.003021
208 0.00098
208 0.003025
164 0.003052
48 0.000965
19 0.000953
18 0.001002
28 0.002992
40 0.003945
57 0.002017
76 0.001989
91 0.002981
99 0.00399
105 0.002986
108 0.00399
115 0.003971
127 0.002027
139 0.002942
151 0.002002
160 0.002991
168 0.003024
177 0.001989
182 0.002
186 0.001992
189 0.004029
195 0.001995
197 0.004023
199 0.003995
204 0.001994
207 0.00203
190 0.003012
107 0.004987
45 0.005024
30 0.002006
40 0.00201
58 0.001978
76 0.00402
109 0.001987
120 0.00399
123 0.003993
122 0.001979
123 0.002987
129 0.001994
139 0.004023
149 0.00502
161 0.002983
169 0.002013
175 0.003008
180 0.005025
186 0.001001
189 0.005051
192 0.00502
196 0.002005
200 0.002006
196 0.002038
140 0.00502
58 0.004024
22 0.003005
26 0.003044
40 0.002996
55 0.00502
84 0.002964
101 0.005021
111 0.004987
115 0.001994
116 0.003986
119 0.003992
127 0.005032
137 0.005944
147 0.005985
160 0.002988
168 0.003008
174 0.002984
181 0.002995
185 0.002962
189 0.005021
192 0.005986
196 0.002963
199 0.003984
202 0.004022
205 0.005986
208 0.006024
180 0.002982
84 0.00299
27 0.002998
16 0.003035
28 0.003033
42 0.006024
54 0.005944
76 0.004034
90 0.004009
99 0.003984
103 0.005986
106 0.005985
114 0.004033
122 0.003989
134 0.002993
150 0.003974
158 0.003973
166 0.006025
172 0.005985
178 0.003031
182 0.002987
185 0.003945
187 0.006982
191 0.006936
192 0.003964
193 0.003989
195 0.003979
200 0.00498
203 0.004978
189 0.006981
110 0.006026
32 0.004985
25 0.004978
35 0.00399
53 0.006983
72 0.006984
97 0.003985
112 0.00397
118 0.003988
116 0.004011
116 0.004998
121 0.00603
129 0.006011
142 0.004987
150 0.004986
158 0.004993
164 0.006983
169 0.007009
174 0.005021
178 0.004983
180 0.003992
185 0.005003
187 0.003994
172 0.007017
96 0.007017
28 0.004989
22 0.004989
32 0.003989
48 0.005015
64 0.007932
83 0.007978
106 0.004943
115 0.004946
119 0.005984
120 0.004949
125 0.004987
134 0.006984
143 0.006983
154 0.004987
161 0.005954
166 0.005988
170 0.007942
175 0.007978
180 0.004986
183 0.005142
189 0.005021
192 0.004987
194 0.004995
197 0.008025
200 0.007979
201 0.004984
171 0.005929
76 0.005955
23 0.007978
13 0.00798
24 0.005985
37 0.005956
60 0.005988
77 0.005995
90 0.005989
100 0.007976
104 0.006975
107 0.00594
112 0.005978
120 0.005957
133 0.006982
142 0.00799
150 0.005952
157 0.005986
166 0.005969
171 0.006985
174 0.005983
179 0.007989
182 0.007014
185 0.00695
188 0.006965
190 0.006016
194 0.006989
197 0.006983
198 0.005985
174 0.005986
42 0.005949
17 0.005989
25 0.005952
41 0.006966
57 0.00602
74 0.006947
92 0.006951
103 0.005986
109 0.006978
110 0.007022
112 0.006951
119 0.006975
133 0.006981
142 0.006984
146 0.006973
155 0.006018
160 0.005984
165 0.006975
168 0.006024
172 0.006015
175 0.006013
177 0.007016
181 0.006029
186 0.006979
178 0.007041
118 0.006981
39 0.00696
29 0.006946
37 0.006977
55 0.006029
82 0.005956
103 0.006015
117 0.005983
123 0.006039
123 0.006024
122 0.005988
126 0.006013
137 0.006023
145 0.005981
151 0.004981
158 0.006975
163 0.007029
169 0.005992
172 0.005979
176 0.005994
178 0.005986
181 0.006016
186 0.005981
170 0.005984
66 0.004984
21 0.005966
12 0.005985
19 0.006964
33 0.005032
51 0.004962
68 0.00498
84 0.004985
93 0.005025
97 0.005045
99 0.005984
105 0.005996
117 0.005958
127 0.005992
136 0.006009
145 0.005018
152 0.005011
159 0.004995
163 0.005025
167 0.004988
170 0.005017
172 0.005026
177 0.004998
180 0.004988
184 0.004998
186 0.004975
159 0.004987
70 0.005985
19 0.005019
6 0.005016
13 0.005016
24 0.004985
35 0.005012
50 0.004987
71 0.004996
82 0.005027
87 0.004992
90 0.004983
95 0.003981
104 0.004028
114 0.003955
124 0.004023
137 0.004028
144 0.005027
151 0.004988
157 0.005019
160 0.00502
166 0.004969
169 0.004988
173 0.003988
176 0.004997
180 0.004988
180 0.00502
146 0.003998
44 0.00404
18 0.0041
18 0.00399
29 0.00399
44 0.004038
74 0.004021
90 0.003025
98 0.003989
97 0.00403
96 0.004053
100 0.003989
107 0.004029
121 0.003988
132 0.003989
142 0.004028
149 0.00403
156 0.003992
164 0.004022
168 0.003988
172 0.004026
177 0.003971
181 0.003987
163 0.003021
88 0.003025
24 0.003035
15 0.003024
21 0.003984
33 0.003026
46 0.003989
76 0.003042
89 0.004034
96 0.002998
98 0.003957
100 0.002968
105 0.003989
115 0.002993
130 0.002992
141 0.004032
150 0.003023
158 0.003031
165 0.002992
173 0.003027
178 0.003023
182 0.003989
185 0.00299
188 0.003019
191 0.002995
195 0.002961
176 0.00404
91 0.002993
31 0.001995
13 0.003024
15 0.003991
34 0.002992
44 0.002903
60 0.002039
81 0.002024
90 0.00303
94 0.001993
96 0.003036
100 0.002991
111 0.003027
122 0.003029
133 0.001981
144 0.002992
158 0.002026
165 0.002036
170 0.001826
175 0.002017
179 0.001994
182 0.002
186 0.001996
188 0.001976
192 0.002999
193 0.002993
196 0.002994
200 0.003006
172 0.002025
82 0.001993
32 0.002029
23 0.00202
34 0.002025
49 0.001983
67 0.002007
87 0.001995
105 0.002043
108 0.001986
107 0.001996
107 0.002041
116 0.001042
126 0.001027
137 0.001029
150 0.000972
158 0.002054
165 0.002034
170 0.002026
173 0.000997
178 0.001992
181 0.001012
185 0.002023
189 0.002043
143 0.001994
60 0.001
24 0.002027
20 0.003041
31 0.001996
45 0.00199
61 0.001001
81 0.002014
100 0.002028
106 0.002035
108 0.00103
109 0.001004
117 0.000941
126 0.001992
137 0.000998
150 0.001973
158 0.000967
164 0.001994
170 0.00096
175 0.002045
180 0.002044
184 0.001991
187 0.001993
190 0.002001
195 0.0
199 0.000999
194 0.00099
135 0.00096
33 0.001041
14 0.000999
15 0.000965
27 0.000966
41 0.000997
58 0.000997
77 0.000997
90 0.000998
101 0.001031
103 0.0
106 0.0
112 0.0
125 0.0
135 0.0
146 0.0
153 0.0
160 0.0
167 0.000993
170 0.000958
174 0.0
179 0.0
183 0.0
187 0.0
190 0.00103
159 0.001052
74 0.001008
28 0.0
20 0.0
27 0.0
48 0.0
65 0.000997
84 0.000958
105 0.000967
106 0.000969
105 0.0
107 0.0
115 0.0
125 0.001992
137 0.0
150 0.0
158 0.0
164 0.002026
168 0.002026
175 0.0
179 0.002981
185 0.0
182 0.00099
129 0.0
49 0.00304
17 0.002989
13 0.0
22 0.0
35 0.0
48 0.001988
66 0.002037
84 0.0
91 0.003006
92 0.000952
97 0.001029
104 0.0
115 0.004023
126 0.002011
142 0.0
152 0.0
160 0.0
167 0.002025
172 0.002029
177 0.0
182 0.003002
185 0.002029
189 0.000999
193 0.0
192 0.0
140 0.003024
52 0.003039
10 0.001013
8 0.0
17 0.0
28 0.002025
38 0.003036
65 0.002996
77 0.00298
86 0.000951
89 0.0
92 0.001029
98 0.002024
107 0.002032
121 0.0
134 0.001964
145 0.000998
154 0.003038
162 0.003048
172 0.001991
177 0.001986
182 0.0
185 0.000968
189 0.0
192 0.003039
195 0.001997
200 0.0
185 0.0
103 0.0
40 0.001994
21 0.001999
33 0.001992
48 0.002999
65 0.001995
91 0.000952
103 0.00101
105 0.00299
103 0.00204
104 0.0
110 0.0
121 0.0
131 0.003023
143 0.003023
159 0.004045
167 0.004036
174 0.0
179 0.0
182 0.0
186 0.003037
191 0.002022
192 0.000968
147 0.000957
63 0.002029
28 0.003027
22 0.002987
38 0.004033
52 0.004024
74 0.000964
92 0.000998
102 0.0
107 0.00399
107 0.004023
111 0.003015
118 0.0
128 0.001007
140 0.004033
152 0.002993
167 0.0
175 0.003024
180 0.00399
187 0.001006
191 0.001003
194 0.002988
197 0.003043
200 0.003026
203 0.000954
205 0.001996
209 0.002006
208 0.003022
95 0.002
33 0.004022
16 0.004986
21 0.002944
33 0.001991
44 0.002993
57 0.002993
74 0.004021
89 0.002992
94 0.003008
96 0.001995
99 0.003994
110 0.002953
121 0.00402
133 0.004022
147 0.002025
157 0.002047
165 0.002991
171 0.004024
177 0.004024
182 0.001996
185 0.00221
188 0.001988
191 0.003985
194 0.002997
199 0.004988
202 0.00494
174 0.00399
84 0.002053
33 0.003008
21 0.003988
27 0.005016
47 0.002991
64 0.002992
84 0.002027
101 0.004054
108 0.003003
105 0.005009
106 0.004987
113 0.002992
124 0.003007
135 0.002032
146 0.003998
156 0.004987
166 0.001994
172 0.001991
176 0.002987
181 0.004022
186 0.003011
189 0.00502
194 0.005031
196 0.002992
161 0.002992
71 0.002978
27 0.00502
18 0.004974
28 0.001995
41 0.00204
54 0.002026
71 0.005023
95 0.00399
101 0.004993
102 0.004985
103 0.00502
111 0.003039
120 0.00299
133 0.003
144 0.006023
155 0.006024
167 0.003012
174 0.00299
179 0.002977
187 0.002003
190 0.003963
193 0.005985
197 0.005022
199 0.003003
202 0.003959
204 0.003988
207 0.006031
211 0.005987
184 0.004011
85 0.00399
27 0.002995
14 0.002962
25 0.004004
37 0.006024
49 0.005985
69 0.002027
84 0.002981
92 0.004015
96 0.006022
98 0.005984
105 0.002993
113 0.003013
123 0.003006
143 0.003987
153 0.003988
162 0.006985
169 0.007015
176 0.003987
180 0.003988
184 0.003987
187 0.006017
190 0.006017
193 0.003008
195 0.00399
198 0.003988
204 0.005008
194 0.004024
123 0.00702
47 0.006987
24 0.003991
30 0.003989
46 0.003975
63 0.006981
82 0.00699
106 0.003997
113 0.003989
113 0.003989
108 0.004983
111 0.005016
121 0.006955
132 0.006983
148 0.004998
157 0.004005
165 0.003992
171 0.007014
176 0.007031
180 0.004
183 0.00399
188 0.004987
192 0.005012
164 0.004956
76 0.007044
28 0.007012
17 0.004987
26 0.004987
40 0.005007
56 0.007015
74 0.007013
91 0.007982
103 0.005003
103 0.003964
103 0.00598
109 0.004985
119 0.004995
135 0.007972
143 0.00798
156 0.004987
163 0.004974
169 0.004986
174 0.007981
177 0.00701
181 0.004992
184 0.004976
193 0.00598
192 0.004986
146 0.00501
38 0.007977
11 0.007975
7 0.004998
15 0.004955
26 0.004978
35 0.007979
48 0.007981
67 0.004954
75 0.004984
81 0.003976
84 0.005939
90 0.006029
102 0.007978
110 0.007978
127 0.006
139 0.005983
147 0.005976
156 0.007955
165 0.007996
171 0.005999
175 0.004952
182 0.005988
185 0.005952
189 0.004985
194 0.007017
186 0.007027
110 0.005948
41 0.005995
16 0.005982
16 0.005958
27 0.007097
39 0.005954
52 0.006002
82 0.006016
85 0.006081
86 0.005983
87 0.006981
90 0.006958
100 0.006003
107 0.005984
118 0.005985
128 0.00797
139 0.007033
148 0.006952
154 0.006981
166 0.006956
170 0.005976
176 0.005983
186 0.006958
186 0.006961
132 0.005982
59 0.005982
24 0.006039
24 0.006984
33 0.006018
45 0.005983
59 0.005981
84 0.005989
89 0.005991
90 0.006948
89 0.005985
91 0.006982
100 0.006978
112 0.005989
125 0.005984
143 0.005973
154 0.006066
162 0.006017
172 0.005987
181 0.005991
190 0.005951
195 0.005977
200 0.006001
206 0.006014
211 0.005985
203 0.005985
127 0.005982
73 0.006966
27 0.006031
23 0.006037
33 0.005985
44 0.006021
62 0.005986
77 0.005987
90 0.005984
96 0.006017
99 0.006017
104 0.005985
110 0.004994
119 0.00599
131 0.005017
143 0.00503
159 0.006015
172 0.004953
182 0.004946
187 0.004987
192 0.004988
197 0.006033
201 0.005983
207 0.005982
211 0.005984
215 0.005984
219 0.005983
206 0.005022
97 0.004981
37 0.005043
34 0.004986
45 0.004986
60 0.004988
75 0.005021
93 0.00502
109 0.004985
110 0.004991
108 0.004984
107 0.005026
111 0.004025
123 0.004989
139 0.004026
152 0.004985
162 0.004984
169 0.004957
176 0.004978
181 0.005023
185 0.004988
193 0.004955
198 0.005022
186 0.004978
109 0.005024
50 0.004027
28 0.004034
37 0.004005
55 0.004011
72 0.004
91 0.003975
104 0.005025
108 0.004023
106 0.004989
107 0.004988
113 0.003989
122 0.003974
134 0.004023
153 0.003957
163 0.003985
174 0.00399
179 0.003989
185 0.003975
190 0.003991
193 0.003984
199 0.003956
203 0.002993
176 0.003025
83 0.003979
28 0.00395
11 0.003959
18 0.004022
30 0.003953
41 0.003989
55 0.004018
69 0.003954
78 0.003991
83 0.004023
85 0.00399
90 0.003996
97 0.004033
107 0.002992
127 0.004016
139 0.002998
151 0.004023
160 0.003023
167 0.002025
173 0.003024
179 0.00295
187 0.003989
191 0.001993
196 0.003991
201 0.00399
206 0.00399
169 0.002993
73 0.001998
19 0.004012
13 0.002992
20 0.004024
30 0.003001
41 0.002992
61 0.003026
76 0.002994
83 0.00304
86 0.002982
87 0.002951
92 0.002994
100 0.003025
113 0.003028
124 0.002998
135 0.002987
145 0.003028
153 0.001995
160 0.002993
167 0.001995
172 0.002029
177 0.001995
182 0.002028
193 0.002994
198 0.003013
172 0.002992
65 0.001994
30 0.00299
25 0.003044
33 0.002993
48 0.001996
71 0.003025
90 0.002031
103 0.002001
105 0.001997
101 0.002028
103 0.001988
109 0.001995
123 0.002036
135 0.002025
147 0.000998
157 0.002016
166 0.002033
176 0.002
183 0.002039
188 0.002
193 0.002028
201 0.002026
206 0.001997
212 0.002026
192 0.001004
95 0.000999
36 0.001008
16 0.000997
17 0.002007
30 0.002041
41 0.002028
54 0.002034
70 0.002028
88 0.001995
92 0.002073
92 0.001047
97 0.001027
104 0.001005
115 0.000952
127 0.000997
140 0.000997
156 0.000998
165 0.00203
174 0.001992
181 0.00204
192 0.000981
197 0.0
202 0.00204
208 0.001003
210 0.000998
214 0.001996
218 0.001006
222 0.000998
191 0.000997
86 0.0
31 0.000997
16 0.002058
29 0.0
44 0.000993
59 0.00104
82 0.0
95 0.000996
101 0.000998
103 0.0
103 0.0
106 0.0
117 0.0
128 0.0
140 0.0
159 0.0
169 0.0
178 0.0
184 0.0
191 0.000998
195 0.000998
198 0.000997
201 0.0
204 0.0
210 0.0
214 0.0
215 0.0
104 0.0
44 0.0
28 0.0
34 0.0
59 0.0
79 0.0
103 0.0
123 0.0
131 0.0
126 0.003026
121 0.003023
125 0.0
138 0.000961
151 0.000997
163 0.000987
177 0.000955
185 0.0
192 0.001995
198 0.0
202 0.000942
205 0.0
207 0.003023
210 0.002996
215 0.001029
185 0.003042
58 0.0
19 0.0
12 0.0
21 0.001997
36 0.001992
55 0.0
73 0.0
90 0.000975
101 0.001995
105 0.001997
106 0.001002
112 0.003024
124 0.0
137 0.000991
150 0.0
162 0.003014
172 0.003006
183 0.0
189 0.0
194 0.0
198 0.003037
201 0.002978
205 0.0
210 0.002039
197 0.002992
78 0.0
27 0.000976
14 0.000994
20 0.002025
35 0.002043
56 0.00098
73 0.0
91 0.0
102 0.003024
105 0.003019
105 0.003043
109 0.003015
120 0.0
131 0.0
144 0.0
154 0.002992
164 0.002992
174 0.000976
180 0.0
184 0.0
188 0.002031
191 0.002039
198 0.002991
200 0.001997
126 0.000997
48 0.0
22 0.001008
22 0.002026
36 0.001992
60 0.000973
81 0.0
102 0.0
112 0.003026
110 0.003039
104 0.003039
107 0.003025
119 0.0
131 0.0
143 0.0
154 0.003022
163 0.003024
173 0.0
179 0.0
184 0.0
189 0.003025
195 0.003062
168 0.003043
77 0.001995
20 0.000956
15 0.000969
24 0.0
38 0.003026
54 0.002976
81 0.0
96 0.0
101 0.0
101 0.002992
100 0.002991
107 0.002969
117 0.00299
133 0.003001
146 0.003007
157 0.0
167 0.003991
175 0.003987
183 0.002988
189 0.002959
194 0.0
197 0.003031
201 0.003005
205 0.003039
209 0.003035
207 0.002993
104 0.002996
30 0.002043
6 0.002
6 0.003992
16 0.003984
32 0.002992
45 0.002998
62 0.002992
76 0.003991
87 0.002994
89 0.003951
92 0.005019
101 0.002995
113 0.002989
125 0.002991
137 0.005003
149 0.003037
162 0.001995
170 0.001975
177 0.000976
183 0.004005
190 0.002982
195 0.004024
199 0.003988
203 0.001992
207 0.0
210 0.002047
205 0.004037
131 0.004025
32 0.00299
16 0.00299
21 0.002992
35 0.003989
63 0.002996
86 0.005017
101 0.004989
104 0.002994
102 0.002994
101 0.002994
105 0.003982
113 0.00397
128 0.001974
140 0.00302
151 0.001991
161 0.003981
174 0.001995
180 0.005018
185 0.005044
190 0.001993
196 0.001995
201 0.001993
196 0.005015
131 0.005016
39 0.002992
21 0.001995
25 0.002026
39 0.005027
67 0.003012
88 0.005023
105 0.004974
113 0.002994
112 0.00298
111 0.002994
114 0.005982
123 0.005987
139 0.002986
151 0.002025
163 0.001984
173 0.001973
185 0.002042
190 0.002989
195 0.005048
199 0.005026
203 0.002995
205 0.002999
209 0.00396
213 0.006015
207 0.005983
97 0.001997
31 0.002991
10 0.002959
18 0.002979
31 0.002982
44 0.005984
58 0.005984
79 0.002992
89 0.003028
94 0.002993
95 0.005984
98 0.005986
108 0.003026
119 0.003009
132 0.002991
153 0.002993
163 0.004003
172 0.005985
179 0.006017
187 0.003991
192 0.003994
197 0.002993
200 0.005978
203 0.006017
207 0.002991
210 0.002994
214 0.003009
177 0.002969
76 0.002993
27 0.005979
15 0.006014
27 0.004002
42 0.00399
57 0.003987
74 0.006974
91 0.006987
102 0.003998
104 0.004984
104 0.004006
111 0.004962
120 0.003969
132 0.005978
145 0.005985
159 0.003976
168 0.003989
175 0.003988
181 0.006982
184 0.007028
189 0.003988
192 0.003995
196 0.003989
203 0.003987
198 0.004987
134 0.006983
42 0.007992
26 0.003986
32 0.003989
48 0.004987
67 0.007014
88 0.006974
114 0.00399
122 0.003973
121 0.004009
116 0.003992
120 0.00399
130 0.003991
146 0.007976
158 0.00798
167 0.004985
176 0.004987
183 0.004988
188 0.007977
192 0.007982
