136 0.016971
135 0.000998
132 0.000996
125 0.001996
114 0.000997
106 0.001996
79 0.001962
46 0.001996
54 0.002001
74 0.000999
85 0.001005
90 0.001067
93 0.001
92 0.000954
90 0.000989
89 0.000995
91 0.000997
97 0.000999
109 0.000997
111 0.001995
93 0.001002
59 0.001989
57 0.00099
69 0.001
84 0.000997
95 0.000988
104 0.000997
111 0.000966
111 0.000996
110 0.000999
110 0.000996
111 0.00098
112 0.000998
116 0.000996
106 0.000998
79 0.001034
68 0.000997
74 0.000983
87 0.00101
99 0.001
104 0.000996
109 0.000996
108 0.000983
106 0.001013
106 0.0
109 0.0
112 0.0
120 0.0
123 0.0
91 0.000997
61 0.0
62 0.0
78 0.0
92 0.00105
108 0.001055
120 0.0
132 0.000999
139 0.001023
140 0.0
144 0.000994
149 0.000972
152 0.0
155 0.0
132 0.001018
93 0.0
80 0.0
93 0.0
99 0.0
102 0.0
110 0.0
118 0.0
119 0.000988
119 0.0
124 0.0
129 0.0
122 0.0
115 0.0
108 0.0
64 0.000999
57 0.0
66 0.0
80 0.000916
87 0.0
93 0.000998
109 0.0
119 0.0
130 0.0
139 0.000998
143 0.0
149 0.0
155 0.000999
159 0.0
152 0.0
115 0.0
95 0.000999
100 0.001001
118 0.001021
137 0.0
143 0.000997
155 0.000997
163 0.001026
168 0.000998
173 0.000998
180 0.000997
189 0.001
194 0.0
201 0.0
209 0.001052
189 0.001054
142 0.0
141 0.000997
159 0.000997
187 0.000997
198 0.001995
193 0.001997
184 0.001967
183 0.000996
184 0.000955
184 0.000997
184 0.001996
185 0.00194
184 0.01796
182 0.0
116 0.000996
84 0.000998
92 0.001995
109 0.000998
121 0.000994
135 0.0
142 0.000987
143 0.001994
140 0.002005
139 0.000988
140 0.000997
143 0.001023
145 0.001993
151 0.000998
134 0.000997
94 0.003008
76 0.000993
83 0.001049
97 0.001994
112 0.001996
116 0.001995
119 0.001995
127 0.000996
129 0.000997
127 0.001994
130 0.000998
133 0.002992
139 0.002992
147 0.001001
137 0.000998
102 0.001978
77 0.001995
78 0.002992
92 0.001995
104 0.001996
111 0.001997
120 0.002961
133 0.00196
135 0.002961
133 0.001943
134 0.000997
136 0.001996
141 0.000998
141 0.001967
144 0.001995
121 0.000997
87 0.00202
77 0.002033
85 0.003028
109 0.002026
119 0.002994
127 0.003003
137 0.002936
144 0.001994
144 0.001965
141 0.002966
140 0.003023
140 0.00299
142 0.002997
146 0.002994
150 0.002996
125 0.002036
83 0.001993
83 0.002995
102 0.002946
124 0.002993
143 0.003002
167 0.001994
183 0.002992
191 0.002992
186 0.001996
181 0.002961
178 0.002966
182 0.00298
186 0.003016
189 0.002996
189 0.002991
170 0.003025
118 0.00205
108 0.001982
121 0.003997
138 0.003026
150 0.003052
154 0.003001
159 0.003002
160 0.003024
156 0.003019
156 0.004
159 0.003991
163 0.003001
167 0.003992
172 0.00399
174 0.003991
147 0.004016
111 0.003999
99 0.003993
113 0.002992
132 0.003023
138 0.003038
143 0.00399
142 0.00399
139 0.002989
142 0.003024
147 0.004031
165 0.004023
186 0.004996
216 0.003992
240 0.004015
253 0.003984
255 0.003957
255 0.004015
254 0.003991
254 0.00399
255 0.004964
254 0.003975
254 0.00399
255 0.004988
255 0.003973
247 0.003988
227 0.003991
193 0.00402
175 0.003989
168 0.00399
166 0.004952
133 0.004987
81 0.00503
56 0.004982
51 0.003989
52 0.003996
54 0.004921
54 0.004986
57 0.00399
59 0.004985
57 0.005028
53 0.004987
53 0.00399
57 0.005001
61 0.004987
66 0.004027
72 0.004025
61 0.004022
25 0.004987
5 0.004987
10 0.004988
27 0.005973
41 0.004016
47 0.004986
57 0.004999
68 0.004982
75 0.005022
78 0.005053
82 0.004987
87 0.004988
94 0.005982
100 0.005955
107 0.004985
110 0.005028
74 0.004938
46 0.00502
44 0.005987
62 0.005984
74 0.00603
84 0.004979
93 0.004988
100 0.005001
101 0.021942
103 0.0
69 0.005986
87 0.005991
96 0.00595
107 0.004989
114 0.005989
112 0.005027
112 0.006034
113 0.004987
117 0.006018
119 0.006982
125 0.005985
131 0.006042
129 0.005985
84 0.005987
61 0.005994
65 0.004994
84 0.006018
96 0.005017
105 0.00504
114 0.005984
118 0.00699
120 0.006981
121 0.006051
123 0.005984
129 0.005999
135 0.006991
139 0.006948
145 0.006004
114 0.006021
81 0.005985
70 0.006984
78 0.007038
94 0.005986
103 0.006985
111 0.006981
123 0.005984
131 0.005977
133 0.006984
135 0.006983
136 0.006982
139 0.00704
141 0.006982
146 0.006019
146 0.006034
115 0.006031
86 0.006982
78 0.006982
86 0.006982
97 0.007007
108 0.005974
114 0.006982
128 0.006035
132 0.007035
134 0.007974
135 0.006973
138 0.006983
142 0.007014
145 0.007982
147 0.007979
152 0.006981
126 0.006988
91 0.006925
80 0.006982
89 0.006995
104 0.006981
113 0.007977
118 0.007981
126 0.007935
132 0.007957
131 0.00798
131 0.007982
135 0.006951
141 0.006993
147 0.006989
152 0.00798
162 0.007052
140 0.007979
92 0.007955
86 0.006986
96 0.007827
102 0.007979
109 0.00795
120 0.007946
137 0.006924
143 0.006966
136 0.006948
135 0.00703
143 0.007019
150 0.007944
156 0.007022
164 0.006984
169 0.006987
124 0.007011
76 0.006988
65 0.006977
82 0.007018
98 0.006953
108 0.00798
114 0.007983
133 0.007022
138 0.007978
138 0.006951
139 0.006979
144 0.00701
150 0.006963
154 0.007026
160 0.007022
159 0.00701
112 0.007013
71 0.007014
64 0.006981
81 0.006971
92 0.007979
112 0.007986
122 0.007014
136 0.007064
136 0.006948
132 0.00698
141 0.007033
144 0.00699
155 0.007006
161 0.007033
165 0.00697
163 0.007024
116 0.006985
80 0.005929
73 0.005968
90 0.00702
101 0.006962
113 0.006982
126 0.006958
146 0.007013
153 0.006011
153 0.005982
151 0.006028
156 0.006982
160 0.006981
165 0.005999
170 0.006058
179 0.006013
175 0.006016
128 0.006016
87 0.006039
77 0.006025
90 0.006978
103 0.007053
113 0.005024
133 0.00702
143 0.006023
149 0.006035
148 0.006024
148 0.006013
153 0.006017
160 0.005994
166 0.006035
172 0.006017
179 0.006021
182 0.005029
183 0.005031
109 0.006
94 0.010971
77 0.0
83 0.0
147 0.004954
145 0.004968
152 0.006016
156 0.005984
162 0.004987
167 0.0052
170 0.005017
177 0.006011
162 0.005036
107 0.006011
74 0.006028
76 0.005984
100 0.004966
112 0.004985
126 0.004988
141 0.005076
147 0.004988
145 0.005035
141 0.005041
143 0.005043
149 0.004993
153 0.004988
159 0.004969
162 0.004972
166 0.003981
169 0.003936
108 0.005018
69 0.004948
75 0.005029
92 0.004974
104 0.004984
114 0.004987
126 0.005013
135 0.004965
140 0.003983
140 0.005018
139 0.003976
144 0.003994
150 0.004036
160 0.004021
163 0.004986
167 0.003975
173 0.004987
158 0.005027
88 0.005029
67 0.00402
75 0.003974
88 0.004039
100 0.004993
114 0.00399
129 0.003985
143 0.003991
145 0.003991
146 0.004037
148 0.00402
152 0.004025
159 0.003933
166 0.003035
170 0.004993
174 0.004016
179 0.004049
162 0.004046
94 0.004019
75 0.004022
88 0.00399
103 0.004023
114 0.00403
122 0.004029
138 0.003963
147 0.002962
149 0.003971
148 0.002938
152 0.004028
157 0.002991
165 0.002989
173 0.002994
178 0.00399
184 0.003055
186 0.003991
150 0.004048
91 0.003997
83 0.002992
100 0.004038
118 0.004024
130 0.003987
139 0.002942
152 0.00299
156 0.002992
158 0.002992
157 0.003
158 0.002995
162 0.003035
167 0.002936
171 0.002936
174 0.002939
175 0.004021
183 0.004034
153 0.003026
80 0.002992
77 0.003026
100 0.003032
116 0.003043
124 0.003002
135 0.001977
144 0.002016
148 0.001929
146 0.002007
147 0.002037
148 0.002047
156 0.001995
160 0.002995
165 0.00304
173 0.002992
163 0.003022
110 0.003027
72 0.002975
69 0.002986
91 0.002025
107 0.00303
116 0.001999
125 0.001938
137 0.001998
137 0.002029
133 0.001995
135 0.002993
141 0.003054
148 0.001969
153 0.003023
158 0.003023
163 0.002987
139 0.002032
84 0.002069
57 0.002028
73 0.001996
91 0.001995
104 0.001992
115 0.001943
126 0.001994
136 0.002027
137 0.000991
137 0.000988
140 0.001028
145 0.000965
150 0.002041
156 0.001061
164 0.003028
165 0.001995
117 0.001995
65 0.001996
64 0.001995
70 0.001995
84 0.0
136 0.001018
137 0.001013
141 0.000999
145 0.001995
153 0.001995
158 0.002013
164 0.002022
164 0.001997
122 0.001996
67 0.001996
63 0.00105
74 0.001009
89 0.001989
107 0.002006
117 0.000998
127 0.000997
134 0.000998
138 0.001021
138 0.001068
142 0.001039
149 0.000998
156 0.002045
163 0.001036
168 0.002058
173 0.001996
108 0.002
71 0.000997
66 0.000998
78 0.000997
97 0.001016
107 0.000998
116 0.001
125 0.000998
131 0.001
131 0.00193
131 0.0
136 0.000996
149 0.000997
156 0.001007
160 0.0
167 0.001012
163 0.001
116 0.001071
75 0.000964
66 0.000948
76 0.0
97 0.0
109 0.001058
118 0.00093
130 0.000952
128 0.000999
125 0.001009
126 0.001001
133 0.0
142 0.0
148 0.0
152 0.0
159 0.0
145 0.0
92 0.000997
62 0.0
71 0.0
86 0.0
96 0.000997
104 0.000997
120 0.0
125 0.0
121 0.0
119 0.0
120 0.0
128 0.0
133 0.0
140 0.0
146 0.0
127 0.0
79 0.0
54 0.0
63 0.000998
79 0.001
95 0.00103
102 0.0
112 0.000962
121 0.000998
123 0.001024
128 0.0
135 0.0
143 0.0
150 0.0
156 0.0
161 0.000937
164 0.001001
132 0.000998
78 0.0
65 0.000957
69 0.001002
84 0.000971
103 0.0
114 0.001001
129 0.0
141 0.0
143 0.0
144 0.000998
148 0.000998
153 0.00096
160 0.0
166 0.0
172 0.0
177 0.000999
114 0.0
76 0.000998
68 0.000997
82 0.001028
93 0.0
105 0.0
118 0.002005
132 0.001995
143 0.00094
147 0.001042
147 0.000998
150 0.001044
158 0.000975
165 0.000963
171 0.000998
177 0.001061
183 0.001036
175 0.000998
113 0.001995
81 0.002008
82 0.001049
96 0.0
108 0.000996
117 0.001996
140 0.000998
151 0.001995
155 0.002013
155 0.001004
157 0.000997
164 0.001024
170 0.001996
176 0.001959
185 0.00095
188 0.001038
192 0.000997
191 0.001995
109 0.001015
85 0.00203
86 0.001994
100 0.001045
113 0.001038
121 0.001995
132 0.002994
142 0.002995
149 0.001958
147 0.001994
148 0.001996
151 0.002994
160 0.001988
165 0.003022
165 0.002993
172 0.00204
173 0.001025
163 0.017952
81 0.000997
119 0.0
134 0.002045
135 0.002016
131 0.002992
131 0.003025
139 0.002047
145 0.002079
154 0.002039
158 0.003026
160 0.002052
166 0.002008
150 0.001963
72 0.001019
58 0.000988
66 0.002026
81 0.002992
95 0.002998
109 0.001972
123 0.001994
132 0.002029
136 0.00302
138 0.003994
144 0.002928
147 0.001986
157 0.002026
165 0.003072
166 0.003024
167 0.00399
171 0.003989
119 0.002026
75 0.001991
61 0.001962
67 0.00306
80 0.00303
97 0.002022
108 0.003018
130 0.00205
133 0.003021
135 0.002981
139 0.003993
142 0.003989
145 0.003016
147 0.003
150 0.003018
153 0.004031
157 0.004016
167 0.00305
152 0.002994
72 0.002994
60 0.003027
69 0.002982
84 0.004024
98 0.004038
112 0.003031
121 0.003034
131 0.003017
132 0.003992
132 0.004035
132 0.003028
134 0.003029
144 0.002992
149 0.003035
156 0.002959
159 0.004028
157 0.004026
161 0.003025
126 0.00399
70 0.004014
47 0.004987
52 0.004988
75 0.004038
93 0.004039
104 0.004996
120 0.003027
126 0.003002
129 0.002985
132 0.003956
135 0.003955
140 0.00399
148 0.00399
154 0.003957
158 0.004958
164 0.004958
174 0.003993
132 0.005018
75 0.004021
70 0.004026
83 0.003991
100 0.004983
114 0.005022
128 0.005019
138 0.004929
143 0.004924
141 0.005985
136 0.004988
140 0.00395
145 0.004987
154 0.00399
158 0.00399
159 0.004
167 0.004991
164 0.004987
96 0.004987
68 0.004954
65 0.004987
79 0.005955
96 0.005967
112 0.005012
128 0.005984
136 0.004987
137 0.005038
137 0.003987
139 0.004986
143 0.005034
150 0.004947
157 0.005036
160 0.00495
164 0.006011
169 0.005988
139 0.005954
87 0.005992
62 0.005023
70 0.005021
83 0.005028
98 0.006019
105 0.005984
120 0.005986
131 0.005021
135 0.005946
137 0.006981
140 0.007021
147 0.006982
152 0.007055
161 0.005017
168 0.004986
172 0.00498
178 0.006018
163 0.006016
91 0.004982
65 0.005021
67 0.006046
80 0.005984
94 0.006982
110 0.007026
121 0.006981
136 0.006015
139 0.006016
138 0.005962
139 0.005981
143 0.005984
151 0.00704
159 0.00503
166 0.004986
170 0.00605
173 0.007042
174 0.006019
100 0.006017
61 0.006031
55 0.006009
68 0.005985
85 0.006029
96 0.007014
104 0.006983
115 0.005984
121 0.006982
121 0.006984
122 0.007979
129 0.006017
134 0.000998
138 0.0
161 0.00598
137 0.007012
80 0.006955
49 0.005957
54 0.005997
68 0.006011
87 0.007955
104 0.006032
114 0.006982
120 0.007979
118 0.006981
120 0.006981
122 0.007013
127 0.007979
133 0.007946
141 0.005984
143 0.006032
149 0.005988
139 0.008
74 0.005985
54 0.007012
57 0.00798
76 0.006981
90 0.007006
98 0.007012
109 0.007943
120 0.007985
127 0.006991
127 0.006993
128 0.00702
132 0.007979
141 0.006984
149 0.007012
153 0.007978
162 0.006958
164 0.006985
124 0.007006
76 0.007979
57 0.007983
61 0.007017
76 0.006982
92 0.007012
101 0.006955
120 0.007013
131 0.007012
131 0.007972
130 0.007019
134 0.007013
140 0.007016
146 0.007015
153 0.007026
160 0.00698
166 0.006998
170 0.00699
147 0.007
78 0.006981
55 0.006973
61 0.007018
69 0.007978
85 0.007015
95 0.006981
107 0.006988
119 0.007024
126 0.007011
127 0.007026
130 0.006997
138 0.00698
143 0.007006
152 0.007013
158 0.007015
162 0.007052
168 0.006982
170 0.007014
124 0.006947
77 0.006032
61 0.007039
66 0.007015
79 0.006949
99 0.00702
112 0.006979
124 0.007012
129 0.007016
130 0.006985
129 0.007017
128 0.006018
135 0.00602
143 0.005986
149 0.005997
153 0.006017
158 0.005994
157 0.007057
105 0.007015
68 0.007041
63 0.00703
73 0.007015
92 0.007016
102 0.007017
115 0.007014
125 0.00601
131 0.006019
132 0.006017
131 0.006031
138 0.006031
144 0.006013
155 0.006017
162 0.006017
167 0.004994
174 0.006014
155 0.007035
99 0.006023
63 0.006014
59 0.006002
78 0.006028
92 0.005945
111 0.005984
123 0.006019
130 0.005985
133 0.006029
134 0.006018
140 0.006015
147 0.005016
156 0.004989
163 0.005033
171 0.005032
174 0.004918
179 0.004953
120 0.006048
82 0.006049
74 0.006024
79 0.006034
91 0.005024
102 0.005017
116 0.005018
131 0.005018
141 0.005034
146 0.004966
148 0.00503
154 0.004022
162 0.00502
171 0.00604
177 0.00604
181 0.005023
182 0.005008
185 0.005033
161 0.005022
104 0.005035
76 0.005021
75 0.00498
83 0.004022
99 0.004033
103 0.0
106 0.013946
146 0.001995
145 0.003989
146 0.005029
148 0.005008
155 0.005023
163 0.005021
170 0.005018
174 0.004001
180 0.003991
184 0.004988
121 0.005021
78 0.00502
68 0.004022
75 0.00397
89 0.004025
105 0.00399
117 0.004028
129 0.004021
139 0.004967
143 0.005033
146 0.005036
150 0.004986
154 0.00502
160 0.004996
166 0.00402
171 0.004036
174 0.003997
182 0.004019
143 0.004002
90 0.004009
71 0.00398
78 0.003949
104 0.003949
118 0.004012
133 0.004016
143 0.003991
146 0.004037
143 0.004021
141 0.002998
145 0.004024
150 0.004026
156 0.00399
161 0.004038
163 0.003991
177 0.003995
156 0.003976
86 0.003989
69 0.003991
71 0.002994
86 0.004
99 0.002992
112 0.002992
126 0.002994
135 0.003991
137 0.003977
137 0.004006
139 0.00402
141 0.00402
148 0.004037
160 0.003991
163 0.002992
167 0.003031
170 0.002991
131 0.002993
69 0.003031
57 0.003015
62 0.003023
74 0.003018
93 0.002992
104 0.00398
119 0.002992
129 0.004019
131 0.003027
134 0.002955
139 0.002967
144 0.003026
153 0.002994
162 0.003079
166 0.003007
172 0.001976
155 0.003027
99 0.002992
67 0.002993
62 0.003009
72 0.001995
85 0.002993
96 0.002992
108 0.002999
123 0.003
131 0.003022
134 0.003024
135 0.001972
140 0.002992
146 0.003002
154 0.002992
161 0.001995
164 0.002993
170 0.001995
175 0.002025
135 0.002998
74 0.002023
63 0.002018
69 0.001006
82 0.001985
101 0.001995
111 0.002034
123 0.002027
130 0.001996
131 0.001966
130 0.001997
128 0.002028
130 0.002061
133 0.002001
138 0.002993
147 0.000944
159 0.000997
177 0.001995
177 0.002026
124 0.00204
66 0.002003
57 0.002046
66 0.001995
82 0.002029
96 0.001984
112 0.001995
124 0.002045
130 0.00098
133 0.00105
134 0.002046
138 0.000986
143 0.000991
157 0.000998
165 0.000998
170 0.001004
180 0.001995
190 0.001995
149 0.001996
81 0.001029
70 0.001
87 0.001996
100 0.001995
108 0.001995
121 0.001996
130 0.001053
133 0.002029
133 0.000998
134 0.000997
136 0.001008
138 0.001076
145 0.000987
147 0.000998
166 0.001963
171 0.000997
136 0.000997
84 0.000975
61 0.000966
66 0.0
80 0.000997
96 0.0
104 0.000999
115 0.000998
128 0.001002
133 0.001011
136 0.000998
139 0.001011
145 0.000996
154 0.000998
162 0.000997
171 0.000996
178 0.000994
184 0.0
161 0.0
106 0.0
68 0.0
66 0.0
82 0.000998
93 0.00099
103 0.000997
117 0.000998
129 0.000997
138 0.000997
138 0.000998
140 0.000997
144 0.000997
149 0.0
159 0.0
167 0.0
176 0.0
183 0.0
181 0.0
134 0.0
83 0.0
63 0.0
68 0.0
80 0.0
92 0.0
102 0.0
119 0.001011
130 0.000967
135 0.0
137 0.0
140 0.0
143 0.0
149 0.000997
158 0.00104
164 0.000998
166 0.000999
172 0.000999
168 0.0
116 0.000999
68 0.001007
53 0.0
64 0.001031
77 0.000998
90 0.0
102 0.0
112 0.0
119 0.001079
120 0.000999
120 0.0
124 0.0
126 0.00101
136 0.001925
143 0.000997
150 0.0
159 0.000997
133 0.0
80 0.0
59 0.000981
54 0.000946
66 0.001029
84 0.0
95 0.0
110 0.0
121 0.000993
124 0.0
124 0.000997
127 0.000998
133 0.0
138 0.000997
148 0.000997
153 0.002039
158 0.002004
162 0.0
116 0.0
80 0.000999
53 0.0
62 0.0
77 0.001036
88 0.001037
102 0.000997
114 0.000991
121 0.000997
121 0.001996
122 0.001995
130 0.001047
136 0.001955
143 0.0
155 0.001035
163 0.001025
170 0.001996
151 0.00095
84 0.000957
63 0.000989
59 0.000987
69 0.001995
80 0.000995
93 0.001036
105 0.000988
119 0.0
131 0.000986
134 0.000988
138 0.002042
141 0.001955
148 0.000967
157 0.001032
163 0.000998
168 0.001962
175 0.003009
161 0.001043
106 0.000991
71 0.000997
63 0.000995
73 0.000998
83 0.001971
88 0.001998
108 0.000998
123 0.001029
131 0.001034
135 0.000947
136 0.001995
140 0.002959
146 0.00102
154 0.001004
167 0.001031
169 0.000963
174 0.001047
179 0.003028
147 0.002992
76 0.002055
58 0.001
60 0.000966
73 0.001994
85 0.003031
94 0.000993
107 0.001954
115 0.001994
116 0.002001
117 0.001987
123 0.002948
131 0.003023
139 0.001962
145 0.001959
150 0.001986
156 0.002962
167 0.002992
124 0.001995
77 0.002036
68 0.034906
60 0.001008
61 0.0
96 0.003989
107 0.004035
123 0.003054
127 0.003019
124 0.001994
125 0.003989
129 0.004026
137 0.002029
144 0.00202
152 0.002044
158 0.001994
166 0.002008
133 0.003033
80 0.003
56 0.001996
60 0.001999
73 0.001954
85 0.004
96 0.00399
114 0.003018
124 0.00304
131 0.002985
132 0.003023
137 0.003025
141 0.004023
148 0.004047
161 0.003014
167 0.002984
173 0.001985
179 0.003989
147 0.004987
81 0.002956
66 0.002997
75 0.002955
88 0.002991
98 0.002993
107 0.003989
122 0.004007
137 0.003058
140 0.00303
143 0.003025
147 0.004
155 0.005036
163 0.00399
174 0.004987
179 0.004987
189 0.002975
193 0.002967
155 0.003015
100 0.00399
72 0.004038
70 0.00299
81 0.003993
94 0.004025
102 0.004981
114 0.005022
136 0.005065
142 0.005021
144 0.004021
146 0.004063
152 0.004025
160 0.005048
167 0.005032
177 0.003027
184 0.002979
190 0.004016
196 0.005034
173 0.00499
87 0.005022
69 0.005003
73 0.004019
86 0.004015
99 0.004033
108 0.004988
122 0.004986
133 0.004032
136 0.004022
139 0.005072
141 0.006027
147 0.006016
157 0.005984
167 0.005988
174 0.003983
178 0.004
188 0.00401
185 0.004987
130 0.005029
79 0.003989
84 0.004035
107 0.005061
141 0.005984
157 0.006016
163 0.005978
165 0.005984
162 0.004049
158 0.003992
156 0.003994
158 0.005006
164 0.005041
174 0.004004
178 0.005049
182 0.005013
190 0.006019
188 0.005984
99 0.006033
70 0.005985
72 0.005022
86 0.005021
98 0.005036
110 0.006017
124 0.005984
138 0.004974
143 0.004987
146 0.004982
150 0.005984
155 0.005979
170 0.005985
180 0.00599
188 0.005031
193 0.006033
193 0.005033
147 0.006014
94 0.006983
69 0.005985
76 0.006014
89 0.004986
100 0.004992
109 0.006991
133 0.005005
144 0.006039
149 0.005984
149 0.00501
153 0.004931
159 0.006061
166 0.007036
174 0.007012
186 0.006019
195 0.005043
200 0.006044
165 0.007012
83 0.004979
71 0.007038
77 0.007015
88 0.004991
96 0.004987
106 0.005984
120 0.006982
131 0.006976
139 0.005984
141 0.006982
141 0.000959
151 0.006038
160 0.004987
168 0.006956
174 0.006983
183 0.005996
190 0.005988
162 0.005961
102 0.007014
65 0.007964
65 0.005984
75 0.005974
89 0.006021
107 0.005947
122 0.005985
132 0.00706
136 0.007022
137 0.005985
136 0.006013
139 0.007018
145 0.007979
154 0.007977
163 0.006978
168 0.005975
173 0.006965
166 0.007012
104 0.006033
57 0.00795
55 0.007996
65 0.005987
79 0.006011
91 0.006992
104 0.00794
116 0.007979
122 0.007016
121 0.00699
122 0.006987
129 0.007009
138 0.007002
145 0.007979
150 0.007983
156 0.006002
165 0.005987
140 0.006981
67 0.007012
46 0.007013
49 0.00698
62 0.006948
77 0.006982
97 0.006984
109 0.006981
118 0.007979
121 0.007979
120 0.007977
123 0.007001
129 0.006954
136 0.006972
145 0.006975
152 0.007013
158 0.006984
158 0.006873
77 0.00698
48 0.00696
46 0.006978
55 0.007979
71 0.007009
80 0.006953
97 0.006998
111 0.006966
119 0.007011
121 0.007014
121 0.006984
122 0.006952
136 0.006961
143 0.006968
150 0.007013
157 0.007016
165 0.007013
114 0.006969
66 0.006064
48 0.007026
49 0.007016
59 0.007016
76 0.007026
89 0.007016
120 0.006997
129 0.00702
129 0.006977
129 0.006015
133 0.007011
137 0.006048
142 0.006015
152 0.006016
158 0.00602
163 0.006016
175 0.007017
157 0.006011
75 0.007009
55 0.007014
57 0.005949
66 0.007016
74 0.006032
86 0.005984
101 0.005982
112 0.006015
118 0.006015
119 0.006032
124 0.005979
136 0.005979
148 0.005994
160 0.006015
168 0.006016
172 0.004995
178 0.005997
182 0.006042
137 0.006016
83 0.006016
62 0.005988
64 0.006027
80 0.006055
97 0.005029
115 0.006017
128 0.006022
134 0.006016
133 0.005016
134 0.005059
139 0.005019
147 0.004991
155 0.00505
163 0.005985
166 0.006046
170 0.00602
170 0.004995
114 0.006031
59 0.006015
52 0.005029
59 0.005018
76 0.005017
88 0.005022
105 0.005022
119 0.005022
128 0.005021
129 0.005028
130 0.004987
134 0.005005
141 0.004987
153 0.00502
159 0.004933
163 0.004989
170 0.005018
169 0.01094
142 0.0
75 0.0
56 0.005062
64 0.005034
75 0.005011
96 0.00402
115 0.005018
134 0.004035
139 0.004051
141 0.003991
144 0.00402
149 0.004031
157 0.004992
166 0.004027
171 0.004049
175 0.005019
181 0.005029
165 0.003991
109 0.005033
65 0.004019
63 0.004022
72 0.004019
85 0.004012
95 0.004027
111 0.004028
125 0.00405
134 0.003982
138 0.00404
138 0.00402
145 0.003999
151 0.005023
158 0.004033
168 0.003997
173 0.003991
178 0.00402
181 0.004048
155 0.003992
100 0.004022
67 0.004024
63 0.004063
71 0.003988
90 0.003025
99 0.003046
117 0.003032
129 0.002992
136 0.002993
137 0.004043
140 0.004031
144 0.004038
148 0.003938
155 0.004071
165 0.004022
171 0.004024
179 0.003038
187 0.003957
164 0.002993
86 0.003022
60 0.002994
60 0.003032
73 0.002992
90 0.002993
103 0.002992
117 0.001986
127 0.00399
131 0.003992
131 0.003999
134 0.003025
140 0.003038
150 0.002992
158 0.002992
163 0.002993
168 0.003006
178 0.003023
153 0.003031
96 0.004015
64 0.002992
66 0.001977
80 0.002027
97 0.002997
110 0.004023
125 0.002992
132 0.002993
135 0.002961
134 0.003037
134 0.002992
143 0.002997
151 0.003019
158 0.002998
164 0.002984
172 0.002025
164 0.003992
110 0.001995
58 0.003001
53 0.001995
62 0.002027
76 0.002028
87 0.002021
100 0.002962
111 0.001995
120 0.002025
126 0.001996
131 0.00105
137 0.002983
143 0.002992
154 0.002045
160 0.001995
165 0.002028
172 0.002018
167 0.00197
97 0.002032
62 0.001994
55 0.002029
69 0.001966
82 0.001015
89 0.001995
103 0.001996
123 0.000998
130 0.001033
133 0.002006
137 0.000997
144 0.000998
148 0.001054
154 0.000993
163 0.000997
173 0.001946
178 0.001994
173 0.001995
121 0.002015
73 0.001993
55 0.001995
62 0.001995
73 0.001959
86 0.00199
96 0.000998
114 0.000997
125 0.001004
128 0.000997
130 0.001055
131 0.000967
136 0.000998
143 0.000997
152 0.000953
160 0.000966
163 0.001994
165 0.000997
170 0.000995
134 0.000997
75 0.000998
45 0.000973
51 0.001005
63 0.001005
72 0.000997
79 0.000999
97 0.001995
107 0.00114
109 0.000998
109 0.000997
114 0.000997
121 0.000999
128 0.0
139 0.000983
144 0.0
150 0.0
161 0.0
138 0.0
69 0.0
47 0.000997
48 0.007036
60 0.000989
75 0.001005
87 0.000998
104 0.0
120 0.0
121 0.0
122 0.0
127 0.0
131 0.0
140 0.0
145 0.0
147 0.0
150 0.0
157 0.0
123 0.0
59 0.0
43 0.001013
51 0.0
62 0.0
70 0.0
85 0.0
109 0.0
122 0.0
128 0.0
130 0.0
134 0.0
146 0.000998
160 0.0
172 0.001057
179 0.000971
186 0.0
190 0.000998
189 0.0
121 0.000967
81 0.000998
69 0.001041
78 0.0
90 0.0
101 0.0
121 0.0
136 0.000955
146 0.001995
147 0.000964
150 0.000963
152 0.000997
158 0.0
165 0.001995
167 0.016951
180 0.000997
188 0.0
193 0.0
202 0.000975
170 0.000957
109 0.000984
77 0.001
73 0.000933
82 0.0
93 0.0
103 0.001029
113 0.002033
134 0.000998
144 0.0
145 0.0
148 0.000998
154 0.0
160 0.001936
168 0.002042
177 0.0
185 0.0
190 0.0
190 0.001039
193 0.000998
198 0.000966
138 0.0
82 0.0
62 0.000995
73 0.000983
85 0.003026
96 0.001995
112 0.0
124 0.0
131 0.0
132 0.002027
131 0.002028
137 0.0
143 0.0
148 0.0
162 0.0
168 0.000998
172 0.00196
182 0.001995
159 0.002034
100 0.000975
65 0.002036
59 0.001995
71 0.002041
93 0.001001
105 0.000994
119 0.000992
134 0.002006
136 0.0
134 0.002993
136 0.003056
145 0.001048
151 0.001953
160 0.00197
167 0.001995
169 0.001995
178 0.001968
173 0.001044
119 0.002036
61 0.000948
60 0.000997
73 0.000992
88 0.003007
100 0.002992
117 0.000984
129 0.002005
134 0.001946
136 0.00298
137 0.002993
143 0.000966
153 0.001006
167 0.001024
175 0.001993
178 0.001998
184 0.001994
193 0.001995
145 0.001951
87 0.002006
60 0.002068
57 0.002992
68 0.002976
85 0.002025
98 0.003017
117 0.001977
127 0.002043
133 0.00195
135 0.002974
140 0.002991
145 0.001
151 0.001964
159 0.002017
169 0.004013
177 0.004023
185 0.001983
191 0.002994
124 0.001989
75 0.002007
58 0.003091
64 0.002988
76 0.002992
93 0.001996
104 0.002
118 0.002035
129 0.003069
136 0.004029
140 0.002047
142 0.004041
146 0.001993
152 0.001976
161 0.001949
169 0.003
172 0.002992
178 0.001995
182 0.001999
147 0.002036
84 0.003989
52 0.003964
50 0.003015
69 0.003989
86 0.002972
99 0.003009
111 0.002975
118 0.003991
119 0.003989
122 0.002047
124 0.002037
130 0.003026
138 0.00399
149 0.00399
155 0.00201
164 0.005008
171 0.002954
125 0.002992
70 0.002988
45 0.003989
44 0.003989
60 0.003018
75 0.003043
87 0.003993
102 0.003039
111 0.005029
113 0.005012
116 0.004988
120 0.004998
127 0.002944
135 0.002957
144 0.00299
149 0.003989
155 0.004062
155 0.002999
105 0.003014
58 0.002029
40 0.004989
42 0.004987
64 0.005015
75 0.005013
90 0.003007
105 0.002976
116 0.002045
123 0.004986
125 0.00502
129 0.003022
134 0.002987
142 0.003023
153 0.004987
164 0.00502
177 0.005986
175 0.004969
104 0.00399
66 0.003989
56 0.003989
61 0.004987
71 0.004995
87 0.003986
98 0.003991
111 0.004035
125 0.004982
132 0.004987
136 0.005953
139 0.005985
147 0.004019
155 0.004008
162 0.003988
168 0.005985
174 0.005984
183 0.003956
159 0.003991
104 0.003976
70 0.004987
64 0.004964
73 0.005985
83 0.005985
96 0.005012
109 0.004944
120 0.00502
127 0.006017
129 0.006017
133 0.003998
138 0.003991
142 0.003976
150 0.006018
162 0.004956
165 0.006983
171 0.005985
169 0.004955
114 0.004954
66 0.005013
52 0.006015
55 0.005986
69 0.004017
80 0.004979
92 0.003963
105 0.006022
118 0.003963
118 0.006015
119 0.006982
122 0.005003
127 0.004954
136 0.004989
141 0.004988
143 0.005984
151 0.005951
151 0.005006
103 0.004987
64 0.005001
52 0.005964
63 0.006006
72 0.006954
79 0.007049
96 0.004943
108 0.004988
113 0.004986
116 0.006965
119 0.006988
127 0.004994
133 0.004987
140 0.004989
147 0.004969
153 0.005953
158 0.00703
117 0.007014
60 0.005984
51 0.006036
55 0.005985
63 0.007022
73 0.007028
82 0.005008
95 0.004997
108 0.005
118 0.004987
125 0.005985
131 0.007935
137 0.007942
147 0.005993
153 0.005982
153 0.005982
156 0.007008
156 0.007021
93 0.006013
57 0.006021
48 0.006016
60 0.00495
72 0.005985
80 0.00798
90 0.007937
101 0.004915
111 0.005998
116 0.005986
122 0.007948
125 0.007945
131 0.005981
138 0.005988
148 0.005968
158 0.006963
165 0.006967
162 0.007978
96 0.007962
62 0.006978
51 0.007017
57 0.00702
74 0.007965
81 0.007966
90 0.005986
104 0.006953
114 0.006931
125 0.006951
129 0.006979
134 0.007977
143 0.007965
151 0.007003
159 0.006985
166 0.007012
174 0.007954
163 0.007985
113 0.007979
73 0.007012
63 0.007023
70 0.006947
85 0.006973
90 0.006952
110 0.007028
124 0.006981
130 0.006984
134 0.006988
137 0.007015
142 0.007979
151 0.00798
159 0.006014
173 0.007011
179 0.006982
187 0.006963
175 0.006978
117 0.006952
76 0.006989
66 0.00697
72 0.006981
83 0.006969
95 0.007978
107 0.008015
121 0.006984
135 0.007019
138 0.006952
141 0.006928
144 0.00701
149 0.007002
156 0.006006
164 0.006981
169 0.006977
174 0.006965
180 0.007013
180 0.007014
110 0.005944
63 0.00597
63 0.00697
74 0.007024
89 0.006019
99 0.006923
114 0.006948
127 0.006978
127 0.006961
129 0.006969
130 0.006006
136 0.005979
145 0.005981
156 0.006013
160 0.005964
167 0.005016
180 0.004996
163 0.006009
106 0.004985
66 0.00699
63 0.006987
77 0.006981
90 0.006019
102 0.006032
122 0.006017
135 0.006035
134 0.006
135 0.005931
140 0.005015
144 0.005998
151 0.00496
162 0.005985
167 0.006005
171 0.00504
181 0.005022
161 0.005021
85 0.006024
59 0.006017
65 0.004998
81 0.005963
94 0.00504
105 0.005958
120 0.00497
131 0.005986
137 0.005017
141 0.005017
144 0.005021
150 0.004988
157 0.005065
169 0.004987
173 0.005029
181 0.004985
188 0.005011
158 0.005971
100 0.004975
69 0.005004
62 0.005021
73 0.004022
87 0.00503
98 0.006025
109 0.006023
132 0.005022
138 0.004996
142 0.004991
145 0.005017
149 0.004971
156 0.003958
164 0.00502
177 0.005027
184 0.005021
189 0.00502
196 0.004985
182 0.003992
89 0.004023
65 0.003936
67 0.00496
80 0.005024
93 0.004982
103 0.00503
117 0.005019
134 0.005018
139 0.004969
140 0.005018
140 0.004016
145 0.003978
150 0.004022
157 0.003963
165 0.003978
170 0.003964
173 0.003955
177 0.004972
179 0.005019
114 0.005043
63 0.00502
45 0.004988
51 0.00399
76 0.00399
87 0.004049
98 0.00402
114 0.004025
121 0.003937
121 0.003964
120 0.002998
124 0.004022
132 0.004028
139 0.003999
148 0.004032
154 0.003991
166 0.004023
173 0.00399
143 0.003992
73 0.004017
53 0.003992
55 0.00391
72 0.002993
88 0.003996
100 0.004021
119 0.003003
128 0.004022
131 0.002994
131 0.003033
135 0.003036
139 0.003015
148 0.002991
159 0.003983
162 0.003936
169 0.003932
177 0.003026
149 0.004038
76 0.00294
56 0.002991
57 0.00299
78 0.003989
91 0.003024
103 0.003985
118 0.002035
128 0.003947
131 0.004001
134 0.002992
135 0.002992
140 0.002992
150 0.002983
158 0.003006
162 0.002997
172 0.003026
176 0.003024
133 0.002989
83 0.001975
57 0.002032
59 0.002991
66 0.001945
77 0.003002
85 0.002993
105 0.003
118 0.002992
126 0.002994
134 0.002991
139 0.002973
145 0.002045
150 0.002007
163 0.002992
171 0.002993
176 0.002058
183 0.003024
179 0.002024
107 0.002995
71 0.002042
63 0.002992
73 0.001989
83 0.002003
90 0.002022
103 0.00192
125 0.002081
129 0.003034
129 0.002033
132 0.001995
135 0.001964
142 0.001994
150 0.002029
158 0.001964
167 0.002035
176 0.002026
166 0.002011
112 0.001966
63 0.001979
58 0.000999
68 0.00205
82 0.002005
91 0.001995
104 0.002007
117 0.001988
125 0.000961
125 0.000984
128 0.000996
133 0.002046
142 0.002049
152 0.000986
155 0.000965
161 0.001039
172 0.000997
159 0.000998
102 0.000975
60 0.000997
57 0.0
73 0.001996
83 0.000986
95 0.001938
112 0.001006
122 0.000989
126 0.002033
128 0.00106
129 0.000998
135 0.000997
143 0.000998
152 0.000998
157 0.0
167 0.000979
142 0.0
88 0.0
59 0.0
53 0.0
62 0.000947
73 0.001051
83 0.000999
96 0.000997
113 0.001007
126 0.000997
130 0.000962
131 0.0
136 0.0
145 0.0
153 0.0
158 0.0
167 0.0
174 0.000999
139 0.0
87 0.0
62 0.0
59 0.0
71 0.0
84 0.0
95 0.0
112 0.0
124 0.0
130 0.000999
132 0.0
135 0.0
141 0.0
147 0.0
155 0.0
165 0.0
173 0.0
183 0.0
147 0.0
91 0.001001
64 0.000998
60 0.001009
71 0.0
82 0.002025
89 0.0
103 0.0
116 0.0
130 0.0
129 0.000953
134 0.0
139 0.000999
142 0.002055
151 0.0
159 0.0
163 0.0
167 0.001999
174 0.002035
164 0.000964
104 0.0
63 0.0
58 0.000952
68 0.00098
81 0.00204
89 0.0
108 0.000994
119 0.000953
125 0.000991
126 0.001987
124 0.002037
135 0.000968
143 0.0
148 0.000968
162 0.0
166 0.000988
175 0.001993
180 0.00201
116 0.0
74 0.0
61 0.0
67 0.002071
81 0.002026
98 0.0
108 0.0
124 0.000967
137 0.000965
137 0.0
138 0.002028
142 0.001995
149 0.0
154 0.000967
167 0.0
171 0.001001
175 0.001032
185 0.000962
153 0.0
76 0.0
66 0.000922
73 0.0
86 0.002072
97 0.001995
105 0.000993
124 0.0
135 0.001047
141 0.001998
143 0.002071
148 0.000997
153 0.0
162 0.0
172 0.001026
181 0.0
186 0.002038
190 0.002039
198 0.000967
156 0.0
98 0.0
76 0.002026
76 0.001988
89 0.002003
103 0.0
120 0.0
135 0.0
147 0.0
153 0.003
153 0.00308
156 0.003002
162 0.0
166 0.0
174 0.0
184 0.003018
193 0.001997
198 0.001995
202 0.001995
206 0.003022
153 0.000995
99 0.000965
79 0.002994
78 0.003026
92 0.001984
104 0.00301
114 0.002004
127 0.002992
138 0.003031
145 0.002956
143 0.002057
147 0.002033
153 0.002993
158 0.002021
165 0.002965
175 0.003047
179 0.001021
184 0.002002
194 0.001994
179 0.002961
119 0.002992
76 0.002009
77 0.003024
97 0.002958
110 0.00201
123 0.002954
138 0.003049
146 0.003025
146 0.001987
146 0.001958
147 0.001965
150 0.002993
157 0.003
169 0.002005
176 0.003973
182 0.001969
192 0.001979
164 0.001993
101 0.003981
70 0.003958
70 0.001995
82 0.001995
99 0.002015
110 0.002952
124 0.003989
138 0.001042
143 0.00303
144 0.002991
147 0.002002
150 0.001988
155 0.003991
162 0.004017
169 0.003002
172 0.001984
177 0.001984
143 0.004028
89 0.00404
59 0.002003
64 0.00402
83 0.003034
97 0.000986
107 0.003012
122 0.004024
135 0.004021
143 0.002011
143 0.001954
149 0.003014
155 0.004025
159 0.003989
170 0.004028
175 0.005023
185 0.002947
164 0.00294
104 0.002965
68 0.00296
61 0.005018
67 0.004987
83 0.00296
97 0.00301
106 0.00203
119 0.003989
134 0.002043
137 0.004026
138 0.004989
144 0.002982
150 0.002974
155 0.002953
160 0.005014
161 0.004986
168 0.002994
148 0.003026
89 0.002979
51 0.004977
43 0.003999
53 0.004989
64 0.004024
58 0.003988
36 0.003994
4 0.002943
0 0.004938
0 0.005018
0 0.002982
4 0.003018
16 0.003002
31 0.005985
57 0.003967
78 0.00502
77 0.005987
26 0.003989
5 0.003033
5 0.004002
19 0.006034
37 0.005009
53 0.003025
69 0.00395
83 0.003038
90 0.005027
91 0.004046
96 0.005021
103 0.005995
114 0.003992
120 0.003968
125 0.003957
136 0.006008
131 0.005978
69 0.003948
42 0.003987
40 0.003992
52 0.005992
73 0.004008
84 0.005985
98 0.005985
112 0.005006
115 0.003968
114 0.004957
118 0.006025
123 0.006026
132 0.003975
140 0.004007
146 0.004998
152 0.00602
120 0.003955
72 0.006983
50 0.006993
52 0.004962
63 0.005016
75 0.004985
85 0.007016
98 0.006007
116 0.004953
124 0.004038
127 0.003994
131 0.004011
140 0.004957
145 0.003991
153 0.005987
160 0.006981
168 0.004949
172 0.004949
136 0.003946
87 0.007009
64 0.007015
66 0.004976
76 0.003997
88 0.004988
105 0.004958
121 0.00499
134 0.006985
139 0.006981
141 0.005016
148 0.004998
152 0.004986
156 0.007015
164 0.006988
174 0.005032
176 0.004986
187 0.006
183 0.005953
134 0.005938
89 0.006981
74 0.006981
77 0.005949
89 0.006965
101 0.005986
109 0.007015
122 0.006982
135 0.005034
137 0.004987
139 0.004987
142 0.004986
148 0.005944
153 0.007974
157 0.007978
165 0.005986
167 0.005979
168 0.005944
178 0.006947
140 0.007961
89 0.005997
67 0.005976
74 0.005952
86 0.005998
98 0.005018
106 0.007009
126 0.007995
131 0.005946
128 0.00594
125 0.00599
130 0.007964
136 0.00798
145 0.006036
155 0.00595
163 0.005984
166 0.004992
176 0.005968
146 0.00701
93 0.007027
69 0.006977
69 0.005937
83 0.005985
99 0.007982
110 0.007979
124 0.00602
134 0.00597
138 0.007965
137 0.006017
138 0.005981
144 0.005986
155 0.007979
166 0.007012
170 0.006932
173 0.007014
182 0.006974
154 0.006989
105 0.007963
78 0.006993
77 0.007984
98 0.00702
106 0.005942
113 0.005985
128 0.007003
139 0.00701
143 0.006962
146 0.006976
147 0.006992
153 0.006967
158 0.00695
169 0.006983
177 0.00602
185 0.005992
191 0.006981
176 0.005982
106 0.006981
82 0.00698
78 0.006965
89 0.007013
103 0.006978
110 0.006958
120 0.00697
135 0.007015
149 0.00698
150 0.006018
151 0.006018
156 0.006022
161 0.00602
169 0.007014
180 0.006012
187 0.005991
192 0.005985
197 0.005977
177 0.006112
105 0.005988
78 0.006032
84 0.00598
97 0.005966
106 0.006013
112 0.006965
122 0.007021
135 0.006017
139 0.005966
142 0.006012
142 0.005963
147 0.00603
150 0.005974
163 0.005964
175 0.006003
179 0.005158
184 0.005977
191 0.005984
166 0.004989
93 0.005985
75 0.006982
72 0.006036
83 0.006006
98 0.005962
111 0.00603
124 0.005998
138 0.005958
141 0.006009
138 0.00598
134 0.006019
136 0.005965
145 0.005017
149 0.00498
167 0.00502
180 0.004981
190 0.004985
143 0.004988
91 0.006023
68 0.005967
75 0.005988
91 0.004973
103 0.006
117 0.006018
130 0.004979
141 0.005032
140 0.004987
138 0.004983
138 0.005058
151 0.004986
160 0.004992
166 0.005025
174 0.004921
181 0.004917
157 0.005015
102 0.00601
72 0.005012
69 0.005022
82 0.004986
94 0.004995
101 0.004995
120 0.005017
132 0.005023
134 0.004988
132 0.004937
135 0.004955
141 0.003988
150 0.004995
156 0.004992
164 0.003965
172 0.004975
164 0.005039
109 0.004971
52 0.005001
52 0.004961
64 0.004992
84 0.00399
99 0.004961
120 0.00398
143 0.005
157 0.00401
165 0.003938
166 0.004004
164 0.003988
166 0.003938
174 0.00398
180 0.004929
185 0.005027
182 0.004981
130 0.004969
84 0.003991
69 0.005046
75 0.003991
91 0.003955
100 0.00399
110 0.003007
126 0.003956
151 0.004031
157 0.003975
160 0.003978
165 0.004002
167 0.003988
172 0.004057
181 0.003936
187 0.003905
194 0.004021
198 0.004025
151 0.003004
98 0.004019
72 0.003038
82 0.002971
97 0.003956
111 0.003989
129 0.003959
143 0.003989
154 0.00392
159 0.00401
159 0.002942
160 0.003947
163 0.003988
169 0.004039
182 0.003052
188 0.004003
195 0.003991
202 0.003996
156 0.00396
97 0.003025
71 0.002988
70 0.002979
83 0.002993
104 0.002977
112 0.002978
134 0.003991
143 0.001952
147 0.001932
145 0.003016
147 0.003991
150 0.003031
158 0.00303
164 0.00299
168 0.002992
173 0.003053
178 0.002937
129 0.00297
60 0.00399
56 0.002049
69 0.003018
88 0.003012
101 0.001968
120 0.002044
133 0.002043
136 0.002055
134 0.002979
132 0.003013
134 0.002979
138 0.002993
152 0.002984
159 0.001975
168 0.001999
169 0.003009
122 0.002043
64 0.001927
51 0.002061
57 0.00202
72 0.001963
87 0.001992
105 0.001996
122 0.001996
134 0.002992
135 0.002993
137 0.001995
143 0.002001
150 0.002004
161 0.00204
166 0.002003
172 0.002012
179 0.001995
168 0.001979
91 0.001997
62 0.001991
66 0.001996
83 0.000988
96 0.002022
105 0.000988
120 0.002025
140 0.001934
145 0.002034
148 0.002064
150 0.002029
152 0.002005
155 0.00201
163 0.002025
170 0.001994
178 0.001961
185 0.001947
152 0.00203
95 0.002045
66 0.001008
66 0.002044
79 0.002024
92 0.001995
104 0.002025
116 0.0
137 0.002016
145 0.001995
144 0.001943
149 0.002038
152 0.002022
160 0.001083
166 0.001099
175 0.001979
180 0.001051
187 0.000994
190 0.001
144 0.000969
76 0.0
63 0.000952
78 0.0
95 0.000997
108 0.000975
121 0.001
133 0.000996
142 0.001036
141 0.000994
139 0.00101
142 0.000963
148 0.000998
156 0.001033
165 0.000997
172 0.000998
181 0.000979
167 0.000952
111 0.000997
72 0.0
67 0.0
81 0.000992
99 0.000998
113 0.0
131 0.000967
146 0.0
148 0.001015
143 0.0
145 0.000998
149 0.000999
152 0.001006
155 0.000966
164 0.0
174 0.0
182 0.0
144 0.0
86 0.0
58 0.0
70 0.0
95 0.0
108 0.000976
120 0.0
133 0.0
139 0.00101
137 0.0
136 0.0
138 0.0
142 0.0
148 0.0
159 0.0
166 0.0
171 0.0
123 0.0
75 0.000969
58 0.0
61 0.0
79 0.000958
94 0.00203
103 0.002029
123 0.001015
131 0.000944
144 0.0
145 0.0
146 0.000982
153 0.001003
156 0.001994
163 0.0
171 0.0
179 0.0
170 0.002035
115 0.002036
64 0.000954
57 0.0
75 0.0
86 0.0
95 0.001017
110 0.001949
126 0.001991
137 0.0
139 0.000974
142 0.000946
147 0.002053
155 0.002022
170 0.000968
178 0.0
187 0.0
192 0.0
158 0.000947
102 0.001969
74 0.002014
73 0.001024
86 0.0
96 0.000952
102 0.002035
110 0.002015
124 0.0
126 0.000984
124 0.0
129 0.0
134 0.000963
142 0.002027
148 0.002011
159 0.0
164 0.0
168 0.001986
176 0.002002
135 0.002027
64 0.001004
48 0.001011
58 0.000957
73 0.0
83 0.000995
94 0.001987
108 0.001993
116 0.0
116 0.0
115 0.0
121 0.001995
128 0.002027
137 0.000965
142 0.0
147 0.000994
156 0.0
134 0.000971
78 0.002028
46 0.002041
41 0.000953
55 0.00092
75 0.0
93 0.000972
111 0.003033
126 0.003057
126 0.0
121 0.002992
122 0.00096
128 0.0
140 0.0
149 0.002027
156 0.002038
164 0.000957
162 0.000994
114 0.0
68 0.003045
51 0.003022
60 0.002993
74 0.003027
85 0.001996
96 0.000965
110 0.0
117 0.003027
117 0.002939
118 0.003987
123 0.000997
127 0.000954
134 0.003052
141 0.002999
151 0.002038
157 0.002992
104 0.00198
64 0.002994
49 0.000999
51 0.003019
62 0.00399
75 0.001991
84 0.001007
97 0.003011
111 0.003005
119 0.004018
122 0.002993
126 0.002994
133 0.002069
140 0.002007
149 0.002047
155 0.003024
161 0.002963
164 0.002012
119 0.002987
71 0.001993
54 0.003039
55 0.004023
71 0.003028
80 0.003989
94 0.002994
110 0.002965
120 0.002039
124 0.004035
127 0.004989
130 0.003002
133 0.003008
140 0.00201
150 0.002993
158 0.003034
166 0.00403
172 0.00402
148 0.001992
92 0.002011
59 0.001984
53 0.005022
59 0.003991
70 0.002036
78 0.002001
90 0.002986
104 0.005039
112 0.005024
116 0.00402
118 0.004026
124 0.003961
133 0.001998
140 0.002989
149 0.001994
156 0.00399
160 0.004023
170 0.002964
164 0.00294
110 0.003006
65 0.006017
54 0.00296
67 0.005041
80 0.004989
89 0.001997
101 0.002997
113 0.002982
116 0.005021
115 0.003988
120 0.003004
124 0.003003
130 0.003012
138 0.00503
147 0.002961
152 0.005024
160 0.005037
140 0.002021
88 0.002998
56 0.002991
52 0.005021
60 0.005031
79 0.00403
88 0.003006
101 0.003055
115 0.004989
124 0.00296
127 0.005017
132 0.004986
141 0.002992
149 0.00299
156 0.003001
158 0.004987
163 0.005986
170 0.003953
141 0.003975
89 0.004031
56 0.004005
64 0.003982
76 0.005019
86 0.004986
99 0.00295
113 0.003007
127 0.003019
134 0.005014
135 0.005955
135 0.003988
141 0.004019
150 0.004001
164 0.00399
168 0.003988
172 0.005983
175 0.005988
123 0.004032
76 0.003031
58 0.003977
60 0.005986
72 0.005019
85 0.00397
95 0.00399
108 0.003989
133 0.003984
138 0.004005
138 0.005985
141 0.006032
147 0.004016
154 0.004017
161 0.003958
168 0.004955
173 0.006984
179 0.00699
156 0.004051
100 0.00502
57 0.00403
60 0.004986
74 0.004029
85 0.005984
94 0.006013
113 0.004034
129 0.003983
136 0.004963
138 0.006936
139 0.006983
143 0.004939
147 0.004991
161 0.004988
169 0.004991
176 0.004942
184 0.006991
160 0.007979
103 0.005956
66 0.004024
61 0.004019
69 0.006983
83 0.006984
97 0.004949
109 0.004958
131 0.004985
133 0.004959
133 0.004979
132 0.007019
140 0.007982
148 0.004031
156 0.005042
160 0.005007
166 0.00798
175 0.007968
142 0.004989
88 0.005025
54 0.004989
64 0.004993
79 0.00502
89 0.007031
100 0.007012
118 0.005004
126 0.005944
127 0.005956
126 0.007981
128 0.007978
135 0.005955
145 0.00499
156 0.005981
162 0.005992
169 0.004937
121 0.007993
83 0.008003
47 0.004965
51 0.005952
64 0.005952
79 0.007981
89 0.007949
107 0.005962
122 0.005984
133 0.00599
134 0.005937
135 0.006014
134 0.007974
137 0.007983
140 0.004986
149 0.005965
161 0.005992
164 0.006937
114 0.008027
69 0.007012
55 0.0
73 0.007985
86 0.005985
99 0.006
109 0.00599
128 0.006984
137 0.007979
146 0.005984
146 0.006963
146 0.006957
154 0.007009
160 0.006981
173 0.006981
178 0.006981
189 0.006981
191 0.00599
155 0.005966
83 0.006981
64 0.007005
69 0.005955
84 0.006964
90 0.006973
105 0.006998
118 0.006982
138 0.007003
143 0.007013
143 0.005948
145 0.006958
149 0.006016
158 0.006013
167 0.006982
179 0.006018
185 0.006
188 0.006991
193 0.007025
182 0.007013
82 0.006983
57 0.006983
57 0.005974
68 0.00698
84 0.006951
92 0.006021
106 0.006012
122 0.006025
130 0.005958
133 0.006022
135 0.00599
140 0.005988
150 0.006033
159 0.007044
165 0.006951
170 0.006985
177 0.006982
182 0.006019
137 0.005994
73 0.005934
60 0.005982
67 0.005987
84 0.006028
101 0.006018
125 0.00602
137 0.006019
141 0.005977
140 0.00597
140 0.004992
144 0.005012
149 0.005996
160 0.006024
164 0.005982
166 0.006021
170 0.005979
177 0.005982
98 0.006018
62 0.006019
55 0.005971
71 0.005989
88 0.005984
99 0.005043
113 0.004996
127 0.005014
133 0.004981
132 0.004996
132 0.005972
133 0.006007
144 0.005942
153 0.006016
161 0.006011
169 0.005969
177 0.005982
149 0.004987
92 0.004991
60 0.004977
57 0.004964
71 0.004999
85 0.004967
96 0.003984
116 0.004987
128 0.006018
134 0.005986
135 0.006009
138 0.005985
143 0.005062
150 0.004972
157 0.004951
168 0.005031
173 0.004948
181 0.004975
158 0.004987
69 0.005022
54 0.004024
59 0.004037
77 0.004038
90 0.005023
101 0.004959
114 0.005008
126 0.004962
135 0.005012
135 0.004957
137 0.004955
148 0.004974
154 0.004987
161 0.005023
166 0.005029
174 0.004986
181 0.004045
138 0.004007
85 0.004069
62 0.003944
63 0.003945
74 0.004955
86 0.004987
105 0.004021
117 0.004031
121 0.004987
116 0.002992
113 0.003919
125 0.00399
133 0.004923
141 0.004012
149 0.003956
154 0.003957
161 0.003967
169 0.003956
103 0.00399
60 0.004022
44 0.004021
50 0.004058
69 0.003956
79 0.00399
88 0.003992
102 0.002992
106 0.001011
111 0.002977
112 0.004049
116 0.002998
131 0.003967
139 0.003975
145 0.00404
152 0.003989
162 0.004016
135 0.00399
83 0.002992
54 0.003993
51 0.002997
64 0.004023
85 0.003005
95 0.003023
119 0.002993
126 0.002995
127 0.002991
126 0.004026
131 0.003025
140 0.00301
149 0.002001
157 0.001997
161 0.002937
168 0.002959
155 0.00299
102 0.002986
58 0.002995
61 0.002905
72 0.002954
83 0.002942
90 0.003018
108 0.003023
121 0.001906
127 0.002989
129 0.002954
132 0.002957
138 0.001995
144 0.002018
156 0.001958
162 0.002026
171 0.003027
170 0.00299
124 0.003023
68 0.002992
55 0.001985
60 0.001994
71 0.002032
79 0.002038
93 0.001986
110 0.001973
128 0.002995
130 0.002025
133 0.003058
137 0.003026
143 0.002992
153 0.002996
161 0.002053
167 0.002071
174 0.002033
181 0.002012
141 0.001986
86 0.002041
56 0.002058
64 0.001995
76 0.001995
85 0.000998
95 0.002002
114 0.002949
122 0.00196
127 0.001995
128 0.002012
131 0.002006
137 0.001984
144 0.002037
156 0.001997
162 0.002027
164 0.001996
172 0.002
172 0.001989
124 0.002002
62 0.001029
51 0.001997
57 0.001998
73 0.002025
83 0.002035
101 0.00099
115 0.000988
120 0.00095
119 0.001996
119 0.001996
124 0.002003
130 0.000999
140 0.001964
148 0.001978
151 0.002003
159 0.000953
166 0.002042
96 0.000997
61 0.000997
54 0.000998
66 0.000996
82 0.001996
91 0.001998
103 0.002099
120 0.0
124 0.0
124 0.001994
126 0.000992
132 0.000974
146 0.000997
152 0.000976
154 0.001055
157 0.000963
157 0.000997
119 0.000997
65 0.002059
39 0.00096
44 0.00097
58 0.000967
72 0.000965
83 0.0
107 0.0
115 0.0
119 0.0
122 0.0
128 0.0
134 0.0
143 0.000997
155 0.0
161 0.001001
171 0.000949
171 0.0
123 0.0
63 0.0
60 0.0
74 0.0
85 0.0
93 0.0
107 0.0
124 0.0
135 0.000993
137 0.001005
139 0.001018
141 0.0
148 0.0
163 0.0
170 0.0
180 0.0
183 0.0
145 0.0
93 0.0
69 0.0
66 0.000955
79 0.0
90 0.0
99 0.000968
116 0.000968
130 0.000998
135 0.000998
137 0.0
140 0.002972
146 0.003024
154 0.0
164 0.0
169 0.000966
175 0.001968
180 0.001994
144 0.0
89 0.0
62 0.0
72 0.0
86 0.0
99 0.00203
107 0.002027
123 0.0
135 0.002028
140 0.0
138 0.002996
139 0.00298
146 0.0
152 0.000965
162 0.00098
165 0.001011
172 0.0
176 0.001965
132 0.001995
73 0.000999
64 0.0
72 0.000966
89 0.002006
103 0.00203
113 0.002025
134 0.002037
136 0.0
135 0.0
135 0.0
140 0.00203
145 0.002039
154 0.0
158 0.001023
160 0.000973
170 0.002025
167 0.003026
100 0.0
59 0.003
62 0.0
78 0.0
94 0.0
103 0.002029
116 0.002037
129 0.0
130 0.0
125 0.00103
125 0.003067
129 0.002002
139 0.0
151 0.001993
159 0.0
165 0.0
171 0.0
137 0.001993
86 0.001993
55 0.000965
58 0.000977
71 0.000957
84 0.002009
94 0.002048
109 0.0
124 0.002026
128 0.001995
131 0.0
136 0.0
141 0.0
149 0.001991
158 0.002028
167 0.000959
172 0.0
180 0.000967
182 0.003057
142 0.003036
67 0.002026
61 0.003042
75 0.0
88 0.000967
98 0.000954
108 0.002998
120 0.002961
135 0.002024
139 0.001067
138 0.000963
139 0.003999
143 0.003991
155 0.001998
163 0.001998
175 0.001995
184 0.001993
189 0.001987
194 0.003052
175 0.002992
98 0.001012
67 0.000967
67 0.000958
80 0.004031
96 0.004031
114 0.003024
128 0.003058
139 0.002004
141 0.002026
142 0.002029
142 0.004025
146 0.004058
153 0.002
158 0.001993
163 0.002009
171 0.003017
175 0.003991
182 0.002991
184 0.002992
124 0.002985
76 0.001998
61 0.002064
67 0.004006
86 0.004041
104 0.001998
115 0.001993
129 0.001987
136 0.003991
135 0.003989
132 0.003029
135 0.003025
143 0.002003
150 0.002002
158 0.002021
163 0.004051
168 0.004025
178 0.001997
157 0.002991
102 0.00301
68 0.004989
64 0.00399
72 0.0
101 0.003992
118 0.002012
131 0.001993
136 0.001998
135 0.003945
132 0.00399
132 0.003954
137 0.001994
146 0.002999
152 0.002034
163 0.001998
170 0.001993
174 0.004028
129 0.004988
69 0.001995
59 0.001994
70 0.001995
87 0.004987
104 0.00399
121 0.001994
134 0.002001
142 0.001998
144 0.001992
143 0.003014
144 0.003992
149 0.004981
160 0.002971
167 0.002989
173 0.002992
180 0.004975
179 0.005026
115 0.002034
78 0.001997
67 0.002
83 0.002001
96 0.002016
108 0.004987
118 0.004987
135 0.001994
144 0.003055
146 0.002968
146 0.005027
149 0.005017
157 0.00299
164 0.004062
173 0.001963
184 0.002999
193 0.002997
172 0.005022
115 0.004986
74 0.002026
71 0.002
81 0.002035
94 0.005019
104 0.004971
118 0.003012
133 0.003026
144 0.003947
147 0.002991
147 0.00299
151 0.005001
156 0.005044
167 0.002956
175 0.00298
181 0.003029
187 0.005018
194 0.006061
145 0.00399
94 0.003992
71 0.003998
81 0.002976
96 0.003988
106 0.006032
117 0.006051
134 0.002977
139 0.003959
140 0.00399
139 0.006039
141 0.005951
148 0.003981
156 0.003995
164 0.003953
176 0.003987
178 0.003977
185 0.006016
187 0.005974
140 0.005984
75 0.002994
63 0.003041
70 0.004003
86 0.006982
100 0.006985
114 0.00402
126 0.004007
130 0.003994
126 0.003966
125 0.003999
129 0.006998
135 0.00601
148 0.003957
156 0.003985
162 0.003989
166 0.006018
177 0.005984
148 0.004996
92 0.005002
60 0.005009
68 0.004045
86 0.004987
99 0.007012
110 0.006983
129 0.005017
132 0.003994
131 0.004012
129 0.006999
131 0.007016
137 0.004988
150 0.00798
160 0.003996
166 0.005036
173 0.004989
175 0.006984
130 0.007016
70 0.004996
55 0.004952
62 0.004037
76 0.007014
94 0.007955
105 0.005983
125 0.00798
131 0.004965
130 0.005024
131 0.004985
134 0.006982
142 0.007978
152 0.004986
160 0.005006
167 0.004988
173 0.007015
179 0.006948
136 0.005953
65 0.007939
58 0.005984
67 0.005983
80 0.004982
93 0.007975
108 0.007977
120 0.004987
131 0.004976
136 0.00501
136 0.007021
139 0.007115
145 0.004988
153 0.007014
165 0.005977
172 0.004988
178 0.005975
188 0.007979
161 0.007976
103 0.006017
69 0.005991
61 0.006949
69 0.005996
88 0.006961
98 0.006986
113 0.007979
128 0.007014
135 0.005998
135 0.005982
137 0.006008
142 0.00798
151 0.007978
159 0.006007
166 0.005999
173 0.005994
180 0.00798
187 0.00702
164 0.007985
90 0.007016
65 0.00601
64 0.005929
75 0.00598
93 0.006971
104 0.007013
115 0.006
126 0.005951
134 0.005993
138 0.006978
139 0.007011
147 0.00705
154 0.006985
163 0.006968
170 0.006979
174 0.016954
179 0.001006
188 0.006979
163 0.006981
102 0.006003
63 0.006
54 0.006955
66 0.005998
89 0.006974
99 0.006972
110 0.005986
116 0.005944
118 0.005984
120 0.006982
125 0.00704
132 0.006973
135 0.00602
144 0.006981
149 0.005999
155 0.006031
165 0.007014
125 0.007006
67 0.005975
56 0.005948
65 0.00599
81 0.006016
94 0.006019
115 0.005942
127 0.004989
130 0.006954
128 0.006025
125 0.006956
132 0.007017
139 0.005977
150 0.005945
154 0.005979
158 0.005989
166 0.005981
157 0.006027
88 0.006006
58 0.005973
55 0.005982
68 0.005013
93 0.006018
103 0.006023
116 0.006035
124 0.006015
127 0.005977
126 0.005984
129 0.005966
132 0.006031
140 0.006015
149 0.005998
156 0.005986
164 0.005037
146 0.005981
93 0.005955
60 0.005017
55 0.00504
65 0.005937
78 0.004983
88 0.005991
100 0.006036
112 0.005984
124 0.005986
127 0.005937
129 0.005964
139 0.005987
145 0.004972
155 0.005018
163 0.005018
173 0.005015
173 0.004959
128 0.004984
81 0.005022
62 0.005037
67 0.00596
77 0.004994
88 0.004981
106 0.004982
122 0.004987
132 0.004988
137 0.004986
139 0.005985
145 0.004988
148 0.004959
155 0.005019
161 0.005039
171 0.004978
178 0.004996
178 0.004986
98 0.004035
70 0.00403
66 0.003024
75 0.004987
90 0.005056
97 0.005024
109 0.00499
121 0.003988
131 0.004952
136 0.005058
137 0.00502
141 0.004001
150 0.003931
161 0.003975
167 0.00396
172 0.003955
182 0.004032
177 0.003954
127 0.004023
83 0.00399
68 0.003991
74 0.004001
89 0.004989
100 0.00399
115 0.004041
126 0.00399
130 0.004003
131 0.004044
133 0.00403
136 0.003989
143 0.003958
147 0.003988
153 0.003989
159 0.004045
164 0.003054
169 0.003038
142 0.00399
88 0.003044
61 0.003991
60 0.004029
73 0.004028
91 0.004048
101 0.003998
115 0.004034
126 0.003982
128 0.004042
129 0.003032
132 0.004027
141 0.002948
147 0.003989
156 0.002955
163 0.002992
166 0.003001
176 0.002992
164 0.004031
109 0.003025
70 0.003933
59 0.002974
72 0.003991
93 0.002993
109 0.003049
124 0.003076
132 0.003001
132 0.002992
129 0.002994
132 0.003024
138 0.00303
146 0.00299
154 0.002993
160 0.00302
167 0.002994
173 0.002992
112 0.002993
70 0.004054
58 0.00299
63 0.002993
76 0.003958
92 0.002008
102 0.002022
114 0.002993
123 0.003016
126 0.002994
127 0.003027
131 0.002992
140 0.003025
152 0.003031
159 0.001989
165 0.002027
174 0.001995
164 0.001997
111 0.001954
72 0.002018
60 0.002027
65 0.002032
81 0.002066
96 0.002992
113 0.003002
127 0.003003
134 0.001994
138 0.001981
141 0.001953
147 0.002029
154 0.002027
161 0.001995
171 0.001995
178 0.002022
187 0.002995
175 0.002045
119 0.001995
71 0.002026
65 0.000997
75 0.001046
88 0.001996
98 0.000987
111 0.001966
127 0.001995
137 0.001982
140 0.001991
142 0.001971
150 0.001994
157 0.001999
167 0.002029
177 0.001993
185 0.002028
188 0.000998
196 0.000998
177 0.000991
114 0.000997
72 0.002045
60 0.001995
67 0.002028
91 0.002006
100 0.001996
117 0.002027
129 0.002057
133 0.002037
133 0.000997
133 0.001949
141 0.002001
148 0.002031
157 0.000998
165 0.000998
172 0.000998
185 0.001005
171 0.000999
96 0.00203
66 0.001005
61 0.0
73 0.0
91 0.0
108 0.001996
123 0.0
136 0.001029
141 0.0
138 0.0
138 0.000998
143 0.000998
157 0.000997
163 0.000961
167 0.000996
174 0.000997
183 0.00103
133 0.00102
80 0.000998
57 0.000998
59 0.0
84 0.0
95 0.0
107 0.0
123 0.0
127 0.0
129 0.0
126 0.0
128 0.0
134 0.0
142 0.001048
150 0.000997
154 0.0
163 0.0
120 0.0
71 0.0
49 0.0
50 0.0
64 0.0
79 0.0
86 0.0
98 0.0
115 0.0
120 0.0
121 0.0
127 0.0
134 0.0
142 0.000998
151 0.000992
160 0.003023
170 0.003023
124 0.0
73 0.0
51 0.0
47 0.00203
57 0.003029
73 0.0
85 0.002028
98 0.000999
113 0.0
119 0.0
120 0.002026
124 0.00294
131 0.000964
138 0.00093
144 0.000974
150 0.002989
158 0.002027
140 0.0
73 0.003037
47 0.0
52 0.0
62 0.0
67 0.017948
75 0.002048
101 0.0
113 0.000949
116 0.0
114 0.002027
114 0.00201
120 0.0
131 0.001995
138 0.0
145 0.001018
156 0.0
145 0.003002
95 0.003024
51 0.0
46 0.0
56 0.0
70 0.002981
80 0.003013
95 0.0
113 0.002028
118 0.00106
117 0.0
117 0.0
123 0.002994
131 0.00205
140 0.0
145 0.001003
154 0.0
157 0.003001
120 0.00303
62 0.001014
51 0.003021
65 0.0
75 0.0
84 0.0
97 0.002026
112 0.002068
119 0.002025
119 0.0
118 0.0
122 0.000986
129 0.002028
136 0.002027
144 0.002027
151 0.002037
139 0.000975
89 0.0
52 0.0
42 0.002993
47 0.002984
62 0.0
71 0.0
81 0.001037
98 0.003001
111 0.002006
114 0.001893
114 0.00203
119 0.0
126 0.0
134 0.0
141 0.003017
148 0.003049
157 0.000985
128 0.000984
80 0.0
49 0.003041
50 0.0
63 0.003023
75 0.002993
89 0.0
103 0.003001
117 0.002999
122 0.002961
122 0.002991
127 0.002999
132 0.002
137 0.001995
145 0.002951
155 0.0
163 0.002992
172 0.003026
148 0.000939
96 0.002945
62 0.001995
54 0.004032
61 0.004022
79 0.001993
90 0.001995
103 0.001991
119 0.00303
136 0.002992
138 0.002992
139 0.002998
144 0.001986
149 0.001991
155 0.001989
162 0.004029
169 0.00401
176 0.001994
179 0.001994
184 0.002
180 0.003013
97 0.003005
70 0.003041
68 0.003026
87 0.002992
101 0.002984
108 0.00095
122 0.003988
136 0.003958
143 0.0
143 0.003001
145 0.0
147 0.00399
154 0.003984
159 0.002024
167 0.003958
171 0.004011
178 0.002013
184 0.001996
157 0.003014
109 0.00402
86 0.003957
91 0.002
106 0.00297
119 0.002994
136 0.003003
149 0.002992
152 0.003994
150 0.004052
144 0.002004
144 0.002029
148 0.00298
154 0.005021
159 0.005047
165 0.001989
169 0.002004
175 0.002002
130 0.002956
85 0.00299
65 0.004986
65 0.004035
77 0.003028
86 0.002998
92 0.003004
104 0.005049
112 0.00499
112 0.002959
106 0.002993
104 0.002995
109 0.004987
126 0.002005
127 0.004983
129 0.005022
134 0.002002
140 0.002044
127 0.001992
81 0.005016
50 0.004986
43 0.00204
56 0.002994
70 0.003009
89 0.002957
102 0.002974
114 0.005022
121 0.005021
125 0.002999
127 0.002994
130 0.001985
135 0.005029
143 0.005023
152 0.001965
158 0.003024
169 0.003965
167 0.003011
122 0.003018
78 0.006016
63 0.005983
70 0.003959
80 0.002999
92 0.003982
102 0.004972
114 0.004979
130 0.004012
137 0.004005
140 0.003997
142 0.004989
147 0.002996
155 0.005986
163 0.007036
172 0.002955
177 0.003006
185 0.003978
185 0.006014
141 0.006015
90 0.006975
69 0.00301
82 0.007012
100 0.004011
109 0.003984
118 0.003995
131 0.00603
138 0.005986
142 0.003993
145 0.004
148 0.002992
153 0.005984
163 0.005986
170 0.002995
175 0.005987
184 0.005038
169 0.004023
119 0.004018
85 0.006971
76 0.007026
91 0.003994
106 0.003986
117 0.003988
133 0.00603
145 0.006016
151 0.004004
150 0.007001
150 0.004957
156 0.005018
162 0.005014
169 0.007034
172 0.00696
181 0.003993
183 0.00396
147 0.003986
100 0.006947
80 0.006989
85 0.004998
112 0.007985
123 0.004961
135 0.005006
145 0.003954
151 0.006975
152 0.006975
150 0.00499
151 0.003968
157 0.003999
164 0.00698
169 0.007017
177 0.003975
178 0.00797
132 0.004998
90 0.004985
74 0.004965
81 0.00701
96 0.007015
112 0.005005
123 0.004987
135 0.006026
144 0.00798
149 0.00798
152 0.004957
153 0.00795
159 0.00499
164 0.00499
171 0.004968
180 0.007988
188 0.007975
158 0.00501
111 0.005008
84 0.004033
82 0.006984
93 0.00701
107 0.005004
121 0.007977
134 0.007982
145 0.005002
148 0.004989
149 0.004998
150 0.007974
152 0.007931
160 0.004994
166 0.005999
174 0.005979
183 0.006952
173 0.005984
106 0.00698
76 0.007007
72 0.005004
85 0.005992
99 0.005989
112 0.007972
119 0.007954
133 0.006002
138 0.005987
140 0.005009
139 0.007974
143 0.005978
148 0.006984
157 0.006985
165 0.005978
168 0.005982
177 0.005967
146 0.006005
95 0.006974
69 0.006007
67 0.005027
80 0.00695
98 0.006963
114 0.00695
129 0.007011
135 0.00699
137 0.006985
135 0.00695
136 0.005952
143 0.006955
150 0.006991
154 0.006018
162 0.005979
169 0.005984
150 0.006032
74 0.00599
60 0.006147
61 0.024965
67 0.0
93 0.006982
110 0.005984
122 0.006035
128 0.006989
129 0.006972
127 0.006956
126 0.005974
133 0.005989
144 0.005968
151 0.006015
157 0.006012
154 0.005978
108 0.005995
68 0.006027
54 0.005988
60 0.006025
78 0.005962
89 0.00598
101 0.005972
114 0.005986
126 0.006032
127 0.00598
127 0.005964
133 0.005974
138 0.005987
144 0.005942
152 0.005985
158 0.005961
167 0.006023
122 0.005987
78 0.005986
58 0.005985
67 0.005018
81 0.004965
90 0.004973
100 0.005036
117 0.005981
126 0.004986
130 0.006014
131 0.006052
134 0.00602
140 0.005968
148 0.005985
155 0.005982
167 0.004987
174 0.004945
154 0.004939
102 0.00502
61 0.004973
58 0.004949
70 0.004997
80 0.005019
88 0.005032
104 0.005947
115 0.005032
123 0.005972
129 0.004987
134 0.004976
138 0.004992
145 0.005003
155 0.004987
163 0.004931
167 0.004975
172 0.005031
175 0.00502
116 0.004988
70 0.00499
54 0.005003
66 0.003946
80 0.004972
90 0.005023
101 0.005052
116 0.004971
124 0.004984
125 0.004934
124 0.00498
128 0.005029
136 0.003933
142 0.00397
152 0.004002
156 0.003961
167 0.003993
166 0.003989
120 0.003959
68 0.004983
58 0.004928
67 0.004987
85 0.005163
98 0.004994
113 0.004003
125 0.003994
131 0.004006
130 0.00403
132 0.003937
136 0.005048
143 0.004063
155 0.004024
159 0.003947
164 0.00402
171 0.003991
162 0.003992
93 0.003975
65 0.003973
65 0.002991
85 0.00403
97 0.003996
105 0.004054
120 0.003992
130 0.004024
133 0.005016
133 0.004017
134 0.003929
138 0.00404
145 0.004033
158 0.004009
164 0.003022
173 0.002992
155 0.002952
102 0.002999
67 0.003028
57 0.003991
70 0.00396
84 0.003988
93 0.003989
103 0.003988
115 0.004021
127 0.00396
131 0.004022
134 0.00399
140 0.002951
144 0.00299
152 0.002992
159 0.004033
168 0.003019
177 0.004029
156 0.002993
102 0.003027
68 0.003991
61 0.003992
75 0.003988
89 0.003028
97 0.002964
110 0.00299
122 0.003049
127 0.002993
132 0.003027
136 0.003028
140 0.002992
146 0.002992
154 0.003162
161 0.003055
170 0.003008
175 0.002956
133 0.001995
79 0.001013
54 0.001995
52 0.001995
71 0.002028
84 0.00196
94 0.002007
107 0.001995
118 0.002031
124 0.001987
123 0.002997
124 0.002994
128 0.002992
132 0.0
144 0.002993
150 0.001991
158 0.002033
149 0.002034
102 0.00203
71 0.002027
61 0.001999
73 0.002047
91 0.00203
110 0.002991
124 0.002945
130 0.002028
131 0.002051
128 0.000999
125 0.000998
129 0.002004
136 0.002052
142 0.001996
147 0.001996
162 0.002037
135 0.001991
86 0.001966
56 0.001942
63 0.000978
81 0.002027
95 0.000997
110 0.000997
127 0.002053
135 0.002079
137 0.001997
133 0.001996
136 0.002049
142 0.001996
151 0.000997
157 0.002004
164 0.001989
157 0.000997
106 0.000987
64 0.000997
50 0.000997
60 0.001993
77 0.001998
91 0.002028
112 0.000998
124 0.002033
129 0.000972
127 0.001997
127 0.000998
130 0.002044
137 0.0
147 0.002001
158 0.001965
164 0.0
136 0.001965
85 0.002027
55 0.002048
59 0.0
71 0.0
88 0.000963
99 0.000969
115 0.001002
130 0.001
137 0.000998
137 0.000998
139 0.000998
143 0.000997
149 0.0
159 0.0
169 0.0
159 0.0
97 0.0
66 0.0
62 0.0
70 0.0
84 0.0
97 0.0
110 0.000999
127 0.000963
138 0.00097
146 0.0
146 0.001071
151 0.0
158 0.0
164 0.0
172 0.0
181 0.0
187 0.0
138 0.0
90 0.0
70 0.0
71 0.0
95 0.0
108 0.0
120 0.000965
136 0.000998
150 0.001003
153 0.0
151 0.000998
154 0.000998
156 0.000999
164 0.0
172 0.0
177 0.0
184 0.002011
162 0.000967
104 0.000991
70 0.001026
62 0.0
76 0.002028
100 0.001045
112 0.0
127 0.0
140 0.002998
145 0.003021
146 0.0
143 0.002962
147 0.001
152 0.000985
158 0.000966
163 0.003001
168 0.003029
174 0.0
137 0.0
88 0.000998
65 0.001997
69 0.002027
97 0.002027
111 0.003014
124 0.00194
139 0.000949
143 0.00097
137 0.002961
134 0.003021
139 0.0
144 0.0
151 0.0
156 0.00299
158 0.003022
164 0.002994
126 0.003023
70 0.000939
60 0.000967
68 0.0
86 0.003013
99 0.001964
115 0.0
124 0.001016
130 0.0
130 0.002025
129 0.002033
127 0.005985
137 0.001963
145 0.000965
148 0.0
154 0.000998
159 0.003022
135 0.003004
77 0.0
57 0.0
59 0.000988
72 0.002027
84 0.003035
96 0.003026
107 0.003068
113 0.003015
115 0.002
114 0.000969
115 0.0
120 0.003026
122 0.003026
131 0.0
139 0.000962
147 0.0
150 0.003025
82 0.0
56 0.003992
54 0.003973
73 0.000892
92 0.0
104 0.0
118 0.003047
128 0.002991
125 0.0
115 0.0
104 0.000965
102 0.002992
108 0.000935
115 0.003067
124 0.002995
137 0.000998
152 0.001009
134 0.0
92 0.002992
66 0.003025
56 0.0
62 0.0
74 0.000982
87 0.003026
109 0.00197
120 0.003998
124 0.002993
127 0.0
134 0.001039
137 0.0
142 0.003019
149 0.002994
156 0.0
158 0.0
164 0.0
152 0.003022
74 0.00094
58 0.00405
63 0.00399
92 0.001993
112 0.00295
131 0.000967
148 0.00399
153 0.003993
144 0.002025
134 0.002991
128 0.002992
131 0.003022
140 0.001996
145 0.003033
153 0.00399
179 0.002991
180 0.003013
155 0.002994
149 0.003991
156 0.004023
160 0.002992
167 0.003024
174 0.0
181 0.00399
185 0.0
182 0.003971
178 0.005039
180 0.000921
188 0.001981
197 0.003
204 0.004021
207 0.003961
213 0.003007
186 0.002991
130 0.002993
92 0.003982
99 0.002988
113 0.00199
125 0.004994
135 0.005027
150 0.003
158 0.000977
167 0.002997
195 0.004042
221 0.004021
235 0.003005
239 0.001989
245 0.002981
248 0.002992
249 0.002992
198 0.003997
143 0.004987
116 0.004987
119 0.003989
130 0.002982
140 0.004986
149 0.006021
168 0.003028
177 0.002995
188 0.00202
193 0.002962
199 0.002982
202 0.005035
208 0.005089
219 0.002998
228 0.002986
231 0.002984
181 0.005041
125 0.005022
99 0.002991
106 0.002996
124 0.002994
131 0.002024
141 0.002976
151 0.006034
158 0.00603
158 0.002992
154 0.002028
149 0.002025
148 0.005021
149 0.005003
152 0.002998
154 0.002992
157 0.002985
114 0.00399
69 0.004034
48 0.005987
51 0.006022
66 0.00299
78 0.003038
90 0.002994
105 0.004994
116 0.004979
121 0.003022
122 0.00298
128 0.002992
131 0.002976
136 0.003
141 0.006027
146 0.006011
156 0.002991
129 0.002958
82 0.003005
54 0.005984
51 0.006005
67 0.003024
81 0.003067
103 0.004008
117 0.00401
124 0.004947
123 0.002992
123 0.006019
126 0.005987
134 0.003009
143 0.003006
147 0.003001
151 0.006028
161 0.005958
139 0.002988
79 0.005949
59 0.003927
68 0.003997
84 0.003993
95 0.006016
105 0.007018
126 0.003959
134 0.00396
134 0.003961
132 0.006017
132 0.006018
139 0.002969
151 0.005987
160 0.002975
169 0.003962
166 0.003983
122 0.007014
78 0.007014
61 0.003948
69 0.003975
83 0.003965
96 0.006983
107 0.006982
129 0.007986
136 0.006008
135 0.004997
136 0.004978
138 0.004986
145 0.007019
152 0.007013
163 0.003958
170 0.003982
170 0.003996
131 0.006998
87 0.007035
71 0.007016
83 0.007965
97 0.003975
104 0.004988
114 0.004975
133 0.007977
137 0.007998
144 0.004979
151 0.003989
155 0.004002
155 0.006993
157 0.006967
166 0.007022
172 0.00798
176 0.006016
134 0.005015
90 0.004986
74 0.007979
82 0.007992
95 0.004997
106 0.004986
114 0.004014
128 0.00798
135 0.007014
147 0.00701
149 0.007981
155 0.00501
158 0.004957
163 0.005012
172 0.007969
179 0.007962
183 0.004958
193 0.004976
179 0.005009
126 0.004985
82 0.007977
80 0.004963
92 0.007019
107 0.006963
118 0.005018
131 0.004987
143 0.00501
151 0.007978
152 0.007948
154 0.004934
158 0.00497
163 0.005007
171 0.007991
181 0.005955
189 0.007022
198 0.007026
170 0.005996
117 0.005953
90 0.005935
90 0.006948
100 0.007004
113 0.006008
122 0.006951
134 0.005018
149 0.007938
155 0.004948
153 0.007027
154 0.006997
161 0.005956
167 0.005997
175 0.005979
186 0.00702
191 0.00698
196 0.005938
194 0.004989
143 0.004921
83 0.006985
75 0.005988
91 0.005994
106 0.00602
115 0.006983
127 0.006039
140 0.005972
145 0.006975
142 0.006955
142 0.005974
145 0.005952
153 0.005968
167 0.006952
