166 0.024971
179 0.007015
181 0.006009
185 0.006949
172 0.005985
92 0.007945
40 0.007029
32 0.007949
37 0.007948
48 0.006982
52 0.006972
57 0.007003
71 0.007959
79 0.007945
83 0.00698
86 0.00702
91 0.006981
99 0.007972
112 0.007909
128 0.007979
137 0.007978
151 0.007007
157 0.007978
165 0.007978
175 0.006981
180 0.007978
190 0.007978
194 0.007978
202 0.006982
209 0.007932
213 0.007919
152 0.007977
70 0.007965
39 0.00794
38 0.007978
49 0.007976
55 0.007946
60 0.007988
71 0.007049
80 0.006981
89 0.006981
92 0.007029
99 0.006984
107 0.007012
117 0.007012
132 0.007029
144 0.007012
156 0.007012
163 0.007979
173 0.007977
182 0.007948
189 0.007945
200 0.00703
207 0.007024
217 0.007028
224 0.00703
181 0.007019
238 0.007012
244 0.007021
250 0.007026
255 0.007018
240 0.007029
133 0.005984
80 0.006978
61 0.006981
62 0.006979
77 0.006979
83 0.00702
88 0.006987
100 0.007011
106 0.006984
108 0.006981
109 0.006968
111 0.006992
120 0.006016
129 0.006013
140 0.005973
158 0.005985
169 0.006031
177 0.005985
185 0.006015
192 0.006014
199 0.006031
204 0.006034
211 0.006021
217 0.006981
213 0.006981
133 0.007042
79 0.00695
53 0.00695
58 0.006949
68 0.005961
76 0.005985
82 0.005985
95 0.005984
104 0.005985
109 0.005984
111 0.005985
113 0.005988
120 0.005984
129 0.00598
147 0.005983
158 0.004986
169 0.005988
179 0.006024
188 0.005985
199 0.005985
205 0.005986
211 0.005985
218 0.005983
220 0.005943
146 0.005953
81 0.005943
40 0.004988
43 0.004995
54 0.004987
62 0.004986
69 0.004987
81 0.006011
91 0.005372
99 0.004985
103 0.004928
106 0.004969
112 0.004952
120 0.005018
138 0.005934
150 0.005951
161 0.00595
172 0.005954
182 0.005985
193 0.004985
200 0.004985
208 0.004985
214 0.004986
220 0.005
228 0.004954
234 0.003991
235 0.003984
164 0.003999
88 0.004999
49 0.005985
38 0.004982
47 0.004986
56 0.005
63 0.004987
71 0.004986
81 0.004985
92 0.004985
95 0.00493
98 0.004988
103 0.004987
110 0.004023
120 0.004025
131 0.005002
147 0.00399
158 0.00399
169 0.00499
177 0.004987
185 0.004987
195 0.004987
202 0.00502
210 0.004988
217 0.003989
224 0.005052
220 0.005038
153 0.004005
82 0.003991
38 0.004031
35 0.003992
43 0.003991
54 0.003991
61 0.003991
72 0.004988
85 0.004987
92 0.004979
94 0.00399
96 0.00399
101 0.00399
109 0.00399
124 0.003991
136 0.003832
147 0.003989
159 0.003989
170 0.00399
182 0.003992
193 0.002992
202 0.003607
210 0.003991
216 0.003957
223 0.00399
224 0.003959
136 0.003958
74 0.00403
45 0.003957
41 0.003987
48 0.002955
64 0.004037
72 0.002958
85 0.004004
93 0.00399
96 0.003941
96 0.003972
97 0.003989
104 0.00403
113 0.003989
124 0.003989
136 0.002992
148 0.002984
166 0.003032
174 0.003999
183 0.002992
189 0.002992
196 0.00407
198 0.002992
154 0.004052
71 0.003988
41 0.002992
34 0.002993
40 0.002992
49 0.002992
63 0.002992
73 0.003997
86 0.003989
90 0.002915
89 0.002992
90 0.00301
95 0.002993
106 0.002991
118 0.002992
129 0.002992
140 0.002993
151 0.002993
165 0.003003
172 0.00296
181 0.002997
183 0.003018
141 0.00299
76 0.002963
34 0.00305
19 0.002999
23 0.002996
32 0.00296
39 0.002992
45 0.002992
62 0.004065
70 0.002023
74 0.001952
78 0.002992
84 0.002037
92 0.002995
103 0.002008
114 0.001997
130 0.002992
141 0.003028
151 0.003024
160 0.002998
171 0.002041
178 0.002031
183 0.002027
134 0.002027
68 0.001995
27 0.001996
13 0.001995
16 0.00201
27 0.001995
34 0.001994
40 0.002993
50 0.002998
66 0.001996
71 0.001996
75 0.001997
83 0.002002
91 0.001996
103 0.001995
114 0.001995
127 0.001996
143 0.001995
153 0.001995
162 0.001963
170 0.001966
184 0.00199
191 0.002047
199 0.000953
207 0.001005
170 0.000998
100 0.001995
52 0.001995
32 0.001996
36 0.001969
45 0.001961
52 0.001996
57 0.001974
73 0.001961
81 0.000997
87 0.000999
90 0.000997
96 0.001016
105 0.000997
114 0.000998
126 0.001997
143 0.001996
154 0.000984
164 0.002042
177 0.002075
184 0.001069
190 0.000997
197 0.001001
199 0.000998
153 0.000998
89 0.000998
52 0.000997
39 0.000999
45 0.000997
53 0.000998
60 0.000997
75 0.000995
85 0.002047
92 0.000998
93 0.000998
96 0.000997
102 0.001036
112 0.00099
122 0.0
134 0.001009
149 0.00099
159 0.000998
168 0.0
180 0.000997
188 0.0
191 0.0
154 0.0
73 0.001044
38 0.001
30 0.000997
35 0.000997
45 0.000999
52 0.000997
63 0.000998
75 0.000997
91 0.0
95 0.0
99 0.0
104 0.0
113 0.0
129 0.0
142 0.000998
154 0.000997
166 0.001005
178 0.000997
189 0.000997
197 0.000997
210 0.0
203 0.0
138 0.0
70 0.0
31 0.0
19 0.001025
25 0.0
33 0.000997
40 0.0
49 0.0
66 0.0
78 0.0
87 0.0
93 0.0
101 0.0
111 0.000999
128 0.00099
142 0.000998
157 0.000998
171 0.0
183 0.0
194 0.0
206 0.0
214 0.0
228 0.0
218 0.000999
120 0.0
63 0.0
39 0.0
38 0.001038
47 0.000953
59 0.0
63 0.0
73 0.0
88 0.0
96 0.000993
102 0.000967
107 0.000952
118 0.0
129 0.0
142 0.0
156 0.000998
168 0.000997
183 0.001005
189 0.000997
200 0.0
206 0.000997
214 0.000997
182 0.0
112 0.0
53 0.0
43 0.000965
47 0.0
56 0.000999
65 0.000997
79 0.0
92 0.0
101 0.001063
106 0.000963
108 0.0
114 0.001001
122 0.000997
138 0.001056
152 0.000999
164 0.000998
175 0.000986
186 0.001995
195 0.000997
204 0.000996
211 0.000997
192 0.001024
79 0.0
42 0.0
32 0.000998
38 0.001041
52 0.000999
61 0.000998
71 0.000998
84 0.002051
95 0.002039
102 0.000997
105 0.000997
110 0.000998
122 0.001069
134 0.001033
152 0.002046
165 0.001038
181 0.00105
192 0.001005
201 0.000991
210 0.001998
217 0.002029
205 0.001026
134 0.001053
68 0.00099
28 0.000974
32 0.00197
43 0.002047
52 0.001995
65 0.002006
74 0.001028
85 0.002047
96 0.00206
99 0.002048
103 0.002016
113 0.001025
123 0.001048
145 0.000996
158 0.001066
171 0.001995
183 0.003006
197 0.001095
206 0.001008
214 0.001994
222 0.002993
227 0.003044
160 0.002031
88 0.002027
47 0.002026
36 0.002026
44 0.002026
58 0.002028
66 0.002992
81 0.001996
93 0.002005
99 0.002052
102 0.002992
104 0.003028
113 0.002031
123 0.001996
136 0.001994
158 0.001996
166 0.003026
180 0.00203
188 0.001991
198 0.001994
205 0.002032
209 0.002017
184 0.003025
115 0.002992
52 0.001953
39 0.001981
43 0.002025
60 0.001993
69 0.001988
81 0.003055
93 0.002943
102 0.002043
103 0.002023
104 0.002038
108 0.002992
117 0.003043
132 0.002029
145 0.002044
157 0.002976
176 0.002966
185 0.002955
193 0.003019
201 0.002992
204 0.002917
163 0.00302
95 0.003024
48 0.004021
30 0.003991
37 0.003024
50 0.002024
58 0.003002
78 0.003019
89 0.002992
96 0.003046
99 0.003989
102 0.003975
111 0.003026
121 0.003033
133 0.003019
146 0.003039
158 0.003991
170 0.003044
187 0.003999
198 0.003006
206 0.002961
196 0.002992
134 0.00399
71 0.004071
31 0.003028
31 0.003028
40 0.00399
49 0.003989
59 0.004015
70 0.00405
91 0.003989
99 0.003989
104 0.002993
108 0.003019
115 0.004052
125 0.004066
142 0.002979
155 0.002915
167 0.003036
178 0.004987
189 0.005026
199 0.004017
210 0.005006
216 0.004039
196 0.004058
104 0.003041
56 0.00402
39 0.003988
46 0.002979
56 0.004029
66 0.003025
75 0.005024
88 0.004987
100 0.004008
105 0.005036
107 0.00401
113 0.004041
122 0.004006
134 0.004986
146 0.004986
158 0.003928
169 0.005019
178 0.005051
189 0.004987
196 0.004999
204 0.004029
160 0.005008
74 0.004083
38 0.003988
31 0.004021
39 0.004993
50 0.004986
62 0.004034
73 0.005057
82 0.005051
96 0.004987
101 0.004986
103 0.005014
112 0.004987
124 0.004025
137 0.004002
149 0.004958
162 0.005015
174 0.004987
184 0.005984
196 0.004985
204 0.004986
211 0.004953
200 0.004987
136 0.005037
45 0.004994
32 0.005003
42 0.003991
52 0.004038
62 0.004957
71 0.006009
84 0.00599
98 0.005017
104 0.004966
107 0.00504
112 0.006016
119 0.005984
138 0.006018
151 0.006018
165 0.005035
182 0.004028
194 0.004936
203 0.005984
211 0.006015
221 0.004972
228 0.00502
236 0.004999
214 0.006015
137 0.005984
52 0.005985
43 0.006028
55 0.00502
66 0.004987
75 0.006018
86 0.006984
97 0.006981
107 0.00603
111 0.005994
112 0.005998
118 0.006027
132 0.005018
144 0.006043
156 0.007019
174 0.005018
185 0.005014
194 0.006047
202 0.00703
208 0.007042
216 0.006018
212 0.006036
155 0.006019
86 0.005984
41 0.006027
41 0.005949
52 0.006981
66 0.006982
73 0.006033
85 0.006034
100 0.006982
106 0.007013
108 0.006011
111 0.006034
118 0.006006
128 0.006981
149 0.005982
162 0.006981
174 0.007017
188 0.006033
196 0.006983
204 0.00603
211 0.007034
214 0.007015
146 0.006981
78 0.006017
39 0.005985
30 0.00698
45 0.006053
56 0.007019
65 0.007979
80 0.006031
93 0.006981
100 0.006981
103 0.007978
106 0.007978
112 0.007978
124 0.006978
136 0.006049
145 0.00701
171 0.006012
183 0.006032
193 0.007943
203 0.007982
214 0.006983
221 0.007003
226 0.006975
186 0.007978
108 0.007981
44 0.007009
33 0.007036
41 0.007012
59 0.007048
70 0.007991
78 0.007014
93 0.007983
100 0.006981
102 0.007026
104 0.007006
109 0.007978
118 0.007979
133 0.007015
145 0.00703
158 0.007016
175 0.006966
183 0.007019
190 0.007979
197 0.00798
200 0.007029
152 0.007012
83 0.007028
32 0.007967
26 0.007996
40 0.007009
51 0.00703
60 0.007036
72 0.007979
85 0.007917
94 0.007974
95 0.007979
100 0.007021
108 0.007016
119 0.007011
132 0.007013
144 0.007092
160 0.007084
169 0.007014
178 0.006985
186 0.007978
194 0.00698
190 0.007978
108 0.007007
36 0.007013
19 0.007003
23 0.00702
35 0.007013
44 0.007016
56 0.007006
70 0.00703
88 0.007018
93 0.007001
96 0.007016
102 0.007014
110 0.007005
126 0.007014
139 0.007012
152 0.007029
164 0.007034
175 0.007012
187 0.007034
194 0.007013
206 0.007037
212 0.006983
202 0.006979
111 0.00701
54 0.005985
29 0.006036
35 0.006015
46 0.007019
56 0.006983
65 0.007014
77 0.007031
93 0.007018
101 0.007028
105 0.007019
110 0.007018
119 0.006022
131 0.006016
143 0.006017
161 0.006016
173 0.006015
182 0.006017
190 0.005986
197 0.005023
205 0.007042
210 0.006056
144 0.006003
77 0.006015
41 0.006015
34 0.00603
43 0.00601
57 0.006032
66 0.005956
78 0.006018
91 0.006034
99 0.006021
103 0.005981
106 0.006016
116 0.005975
126 0.006008
139 0.00603
152 0.006035
163 0.005997
177 0.005966
185 0.006012
192 0.006024
200 0.006027
206 0.006014
164 0.006038
73 0.005044
30 0.004986
30 0.004987
40 0.005018
50 0.005986
58 0.006036
73 0.006018
87 0.00604
97 0.006012
102 0.006024
105 0.00502
113 0.006026
127 0.004987
144 0.005055
157 0.005034
170 0.005032
180 0.00502
190 0.005019
201 0.006021
208 0.004987
216 0.005027
220 0.005985
177 0.005018
80 0.00602
35 0.005009
39 0.00503
51 0.005038
62 0.005042
71 0.004986
83 0.00497
100 0.00502
108 0.005027
113 0.00505
117 0.003972
123 0.004016
138 0.005031
155 0.005045
174 0.005019
187 0.00496
200 0.004973
211 0.004992
221 0.004988
232 0.005021
239 0.00501
247 0.005023
255 0.005044
255 0.005013
163 0.004973
59 0.005051
23 0.003989
13 0.004019
16 0.003999
22 0.004033
30 0.004055
43 0.00402
58 0.005036
62 0.004985
63 0.004986
67 0.005012
84 0.004987
100 0.004987
117 0.003989
142 0.004057
161 0.004021
176 0.003989
190 0.003989
202 0.003989
218 0.004043
231 0.00399
234 0.00399
150 0.00399
18 0.004019
0 0.004024
0 0.00399
70 0.004033
75 0.00399
81 0.004038
89 0.004022
98 0.004029
105 0.004005
108 0.002991
112 0.003995
118 0.003966
131 0.003025
141 0.003033
150 0.003986
162 0.004029
171 0.004017
178 0.003995
185 0.003989
191 0.003985
199 0.004037
204 0.003989
209 0.00394
192 0.003989
102 0.004004
82 0.00303
78 0.003038
85 0.00402
92 0.003028
97 0.004035
104 0.003024
112 0.003988
120 0.004015
123 0.003989
124 0.00299
128 0.00299
138 0.002992
146 0.003187
155 0.003992
166 0.004025
174 0.002994
181 0.002995
188 0.003027
193 0.002995
201 0.003991
206 0.004041
205 0.003023
154 0.002038
89 0.002992
80 0.003037
81 0.003022
89 0.002995
96 0.002992
103 0.003029
111 0.002994
117 0.003024
120 0.003025
121 0.003051
123 0.003051
128 0.003022
140 0.003023
149 0.003034
157 0.002993
168 0.00296
176 0.003024
183 0.00303
189 0.003029
195 0.002977
200 0.002978
167 0.003029
112 0.002071
84 0.003003
76 0.002022
81 0.001998
87 0.002027
93 0.002045
102 0.001996
110 0.002016
115 0.001968
118 0.00304
120 0.00302
125 0.002995
131 0.002928
139 0.003022
153 0.002023
162 0.002026
170 0.001997
177 0.002027
186 0.00197
192 0.001996
198 0.001996
202 0.001999
174 0.002002
102 0.001997
79 0.000998
74 0.002027
79 0.002063
86 0.001995
92 0.001012
100 0.00197
110 0.002067
115 0.002031
117 0.001996
119 0.001994
123 0.001996
131 0.000998
139 0.001995
153 0.001995
162 0.000946
170 0.000987
177 0.000998
184 0.002063
192 0.002034
198 0.00195
202 0.001996
196 0.001996
139 0.001996
89 0.002004
77 0.00204
80 0.001995
86 0.002032
92 0.001995
99 0.001995
106 0.001
111 0.001004
111 0.000997
111 0.000998
113 0.000998
118 0.000999
127 0.002007
135 0.000998
149 0.001995
157 0.001995
164 0.00199
170 0.000998
176 0.000995
183 0.000998
169 0.000998
116 0.001026
82 0.0
67 0.000998
67 0.002036
72 0.001012
81 0.000997
88 0.000995
95 0.000997
101 0.000998
103 0.001019
105 0.000998
108 0.000998
114 0.0
121 0.0
130 0.001026
138 0.0
149 0.000999
160 0.000997
169 0.000997
176 0.000997
181 0.000964
186 0.000999
161 0.000997
95 0.000998
71 0.0
64 0.0
66 0.0
71 0.0
77 0.0
85 0.0
96 0.0
102 0.0
105 0.0
109 0.000998
113 0.000997
122 0.000998
130 0.0
138 0.00103
147 0.0
155 0.000998
165 0.0
174 0.000997
182 0.0
187 0.0
192 0.0
191 0.0
145 0.0
91 0.001035
76 0.0
73 0.0
79 0.000997
82 0.000998
89 0.000997
98 0.0
104 0.0
106 0.0
107 0.0
109 0.0
113 0.0
122 0.000999
130 0.001039
138 0.000998
148 0.000997
153 0.001006
163 0.000998
169 0.000997
174 0.001042
169 0.001067
127 0.000998
83 0.00104
70 0.000962
68 0.001997
72 0.002037
79 0.0
84 0.0
91 0.0
102 0.0
105 0.0
107 0.000984
110 0.001037
117 0.0
124 0.0
132 0.0
141 0.000998
149 0.000954
158 0.00097
165 0.0
171 0.0
180 0.0
182 0.0
148 0.001068
106 0.000998
77 0.00096
72 0.001005
75 0.0
79 0.001075
83 0.000998
91 0.0
98 0.0
104 0.0
109 0.0
112 0.0
116 0.0
122 0.000998
130 0.001995
140 0.0
148 0.000998
156 0.001
163 0.001996
170 0.001995
178 0.00105
183 0.00103
192 0.000948
177 0.000979
128 0.001038
94 0.000999
79 0.000999
77 0.0
82 0.000994
86 0.000971
91 0.001971
97 0.001995
105 0.000997
109 0.000999
112 0.0
115 0.001037
120 0.001018
126 0.001987
134 0.001947
144 0.00099
151 0.001015
157 0.001041
163 0.001994
168 0.001994
174 0.00096
178 0.001976
185 0.000958
186 0.000996
153 0.001016
111 0.002023
86 0.001969
77 0.001994
80 0.000998
85 0.00199
89 0.002985
95 0.002992
104 0.001996
108 0.001019
110 0.001048
112 0.001003
117 0.001015
122 0.001995
130 0.002047
140 0.001004
148 0.000997
155 0.001004
162 0.001995
168 0.002979
175 0.00198
180 0.001941
187 0.001955
163 0.001995
118 0.002062
89 0.002992
76 0.002992
77 0.002994
82 0.001984
87 0.000994
92 0.001994
100 0.002997
108 0.001963
112 0.001973
115 0.001964
119 0.002024
124 0.001994
131 0.003046
138 0.003043
149 0.002019
156 0.002026
164 0.003046
171 0.004024
177 0.002992
184 0.002059
190 0.002992
197 0.001999
201 0.001993
206 0.001992
208 0.002991
169 0.002992
105 0.001995
85 0.002012
81 0.001994
84 0.002026
89 0.00399
94 0.004031
103 0.004002
110 0.004028
114 0.002035
115 0.001999
117 0.002018
120 0.002985
125 0.002992
135 0.003013
142 0.00201
150 0.003027
157 0.00399
164 0.003965
173 0.003989
179 0.00399
184 0.001986
188 0.003026
192 0.002061
195 0.00399
178 0.00399
114 0.00201
88 0.003026
78 0.001998
79 0.003977
84 0.003989
94 0.00402
101 0.003989
111 0.00302
115 0.003054
117 0.003029
118 0.003989
120 0.005017
127 0.003022
134 0.003048
141 0.002983
150 0.003984
158 0.004019
170 0.004011
176 0.004053
183 0.002991
188 0.003045
193 0.002998
195 0.003989
162 0.004987
101 0.003988
80 0.003987
74 0.004019
77 0.004986
82 0.004987
91 0.004018
98 0.003989
107 0.002991
112 0.002989
114 0.003006
116 0.00399
119 0.00499
126 0.004038
133 0.004015
141 0.004026
148 0.005022
156 0.005016
168 0.004985
175 0.004986
183 0.003006
187 0.00402
192 0.002988
197 0.005034
200 0.005022
152 0.00399
103 0.004007
81 0.003989
74 0.005019
76 0.004986
85 0.004988
90 0.005026
99 0.004016
105 0.00295
108 0.003986
109 0.003964
110 0.006027
113 0.006124
119 0.003941
125 0.004004
132 0.00402
140 0.005033
153 0.004
159 0.004989
165 0.005015
171 0.004023
175 0.004989
179 0.003983
183 0.005963
187 0.00601
157 0.005014
107 0.005039
80 0.005012
69 0.003983
73 0.003985
80 0.005024
85 0.00502
94 0.00399
100 0.005006
104 0.005013
105 0.005983
106 0.005966
110 0.005035
115 0.005046
121 0.005014
134 0.005028
142 0.004997
149 0.004987
156 0.005986
164 0.004976
169 0.005002
173 0.004984
178 0.005984
182 0.006029
175 0.004996
128 0.005048
90 0.005039
68 0.005026
69 0.004
75 0.00598
80 0.005983
88 0.005984
95 0.004988
101 0.00499
104 0.006982
106 0.005984
109 0.006011
113 0.006007
118 0.004968
130 0.004961
138 0.004987
145 0.006023
152 0.006983
160 0.00499
166 0.004983
170 0.004997
175 0.006979
179 0.006017
185 0.00593
189 0.006011
192 0.006026
199 0.006015
191 0.006014
137 0.006981
95 0.007974
74 0.00495
73 0.004999
78 0.004988
84 0.006011
89 0.006985
96 0.006016
102 0.00601
105 0.005982
107 0.006011
109 0.006011
112 0.006972
117 0.006988
126 0.00602
133 0.005013
140 0.006016
147 0.007011
153 0.007985
161 0.005995
165 0.005982
169 0.005972
175 0.005995
179 0.005988
183 0.005987
179 0.006982
134 0.006981
86 0.006974
72 0.004999
70 0.006987
75 0.007978
82 0.007978
89 0.006968
96 0.005999
105 0.005985
107 0.005969
107 0.006025
107 0.006976
111 0.006983
118 0.006948
125 0.006981
133 0.006948
140 0.007978
147 0.007979
156 0.007008
161 0.00702
169 0.006962
173 0.005979
177 0.00598
164 0.00798
116 0.007977
77 0.006014
67 0.006944
68 0.006948
75 0.007965
81 0.007979
87 0.006982
93 0.006979
103 0.00698
105 0.006984
106 0.006016
109 0.007981
112 0.007976
122 0.006963
130 0.00698
135 0.00698
143 0.007976
150 0.007978
158 0.007008
165 0.007942
171 0.006988
174 0.006979
177 0.006963
180 0.007946
185 0.007021
154 0.00701
120 0.006968
80 0.00693
70 0.007014
71 0.007014
76 0.007025
84 0.007921
90 0.00698
97 0.006979
102 0.006983
105 0.007015
106 0.007018
110 0.007016
114 0.007007
119 0.007014
125 0.00702
132 0.006979
138 0.006978
148 0.007013
152 0.006981
156 0.006966
161 0.007015
164 0.007024
140 0.007015
88 0.007012
68 0.007016
62 0.007027
65 0.007014
71 0.00704
78 0.007014
86 0.00703
96 0.006006
100 0.005957
101 0.006035
102 0.006019
105 0.007019
110 0.006984
118 0.007016
125 0.007011
132 0.00702
137 0.007024
143 0.007015
150 0.006995
153 0.006017
154 0.006017
126 0.006015
89 0.005991
65 0.006021
57 0.006015
61 0.006981
67 0.005998
73 0.006016
78 0.00601
86 0.00603
98 0.006021
101 0.006015
104 0.005985
108 0.006024
113 0.006016
119 0.006018
126 0.005977
136 0.005985
143 0.005031
149 0.005985
154 0.004978
160 0.006975
167 0.005978
171 0.006014
176 0.006014
170 0.006018
129 0.005967
91 0.006135
71 0.006016
67 0.006017
72 0.005964
77 0.005981
82 0.00602
87 0.005006
100 0.006049
105 0.006027
109 0.005955
111 0.006013
114 0.005984
119 0.006042
126 0.006022
135 0.005983
142 0.006015
149 0.006014
155 0.00502
160 0.005031
167 0.005018
170 0.004999
175 0.004955
179 0.005017
178 0.005013
142 0.005975
103 0.005979
79 0.00602
78 0.005033
84 0.005965
90 0.004983
98 0.005983
104 0.005021
111 0.005018
115 0.005019
115 0.005035
117 0.004988
120 0.005017
125 0.005018
134 0.00502
141 0.00403
147 0.00502
153 0.005016
161 0.005038
165 0.005032
169 0.005036
174 0.005038
164 0.005037
125 0.005034
94 0.005025
80 0.00502
81 0.004988
87 0.005022
93 0.005018
99 0.004027
110 0.004014
116 0.004032
119 0.004022
121 0.004019
124 0.004987
127 0.005034
133 0.005022
139 0.005033
146 0.005021
155 0.005022
161 0.004993
166 0.004038
172 0.003976
176 0.00399
179 0.004031
183 0.004023
181 0.00399
143 0.004028
106 0.004024
87 0.004023
84 0.004987
91 0.00399
98 0.005027
103 0.004988
112 0.00402
117 0.004032
120 0.004011
121 0.004023
123 0.004022
125 0.003991
130 0.00401
135 0.004052
141 0.003039
149 0.003994
154 0.003942
159 0.004989
167 0.003991
171 0.003992
174 0.003036
177 0.004062
146 0.004043
109 0.003991
88 0.004031
83 0.004034
88 0.00399
97 0.00399
103 0.00399
109 0.004034
120 0.004023
124 0.003991
126 0.002994
127 0.003992
130 0.002993
134 0.002992
140 0.003007
147 0.003
153 0.003008
162 0.00399
168 0.003977
173 0.003951
180 0.00402
183 0.003974
187 0.002986
188 0.003035
147 0.003027
110 0.002939
91 0.002952
88 0.003045
92 0.003032
102 0.003988
108 0.002988
113 0.003026
123 0.002961
126 0.003991
126 0.003004
126 0.003027
129 0.002994
133 0.004007
139 0.003055
145 0.003014
151 0.003028
159 0.003053
165 0.003044
172 0.002994
176 0.002991
179 0.002992
182 0.002992
185 0.00303
187 0.002036
142 0.003025
103 0.002993
84 0.002044
81 0.002037
86 0.002022
96 0.002048
103 0.001995
112 0.00297
117 0.002989
120 0.002992
121 0.002989
121 0.002992
124 0.002962
129 0.003018
135 0.002052
141 0.002969
148 0.001996
157 0.00302
165 0.002979
172 0.001994
176 0.002027
180 0.002052
183 0.001995
187 0.002042
191 0.002047
194 0.001995
198 0.002005
200 0.002041
175 0.002046
107 0.002074
80 0.002046
80 0.002033
87 0.002041
95 0.001994
102 0.001995
108 0.001995
116 0.002047
119 0.001995
119 0.002042
118 0.000998
120 0.002045
125 0.002016
133 0.001996
141 0.001024
148 0.002066
155 0.000997
161 0.000998
166 0.001996
172 0.001995
176 0.000997
179 0.002029
182 0.001999
185 0.001961
184 0.00204
124 0.002064
84 0.002031
76 0.001995
78 0.001971
86 0.000998
93 0.000988
102 0.000997
109 0.00104
115 0.000997
117 0.000998
116 0.000998
114 0.002012
118 0.001995
125 0.002061
132 0.001995
138 0.002048
145 0.000998
152 0.000997
160 0.000998
164 0.000998
168 0.000998
172 0.001066
175 0.001953
179 0.001034
180 0.002036
127 0.000998
89 0.001996
71 0.000997
69 0.001009
74 0.000997
84 0.000997
90 0.000997
97 0.000974
103 0.000941
108 0.0
109 0.0
109 0.0
111 0.000993
117 0.001965
123 0.0
129 0.0
137 0.001014
143 0.000997
152 0.000998
157 0.000997
162 0.000998
166 0.0
169 0.0
174 0.0
178 0.0
181 0.0
150 0.0
103 0.0
76 0.0
68 0.000998
73 0.000997
80 0.000998
87 0.001002
92 0.0
103 0.0
106 0.0
106 0.0
105 0.0
107 0.0
111 0.0
116 0.0
122 0.0
132 0.000998
138 0.001003
144 0.000998
148 0.0
154 0.0
157 0.0
160 0.0
164 0.0
165 0.0
140 0.0
99 0.0
73 0.000997
65 0.001002
69 0.000998
76 0.000998
83 0.000958
95 0.0
99 0.000999
102 0.000997
102 0.000998
102 0.000967
104 0.000971
108 0.000997
114 0.000997
123 0.002043
130 0.002075
139 0.0
145 0.0
152 0.0
156 0.0
159 0.0
161 0.000999
164 0.001051
165 0.0
134 0.000968
93 0.001008
70 0.000999
63 0.000998
69 0.0
73 0.000998
84 0.0
90 0.0
96 0.0
99 0.001021
100 0.001026
101 0.0
103 0.000958
109 0.0
115 0.000999
122 0.000999
131 0.000961
135 0.000966
145 0.00099
151 0.0
154 0.00098
156 0.001009
160 0.000998
163 0.002059
167 0.0
170 0.0
173 0.0
177 0.001996
174 0.001995
119 0.0
79 0.00202
70 0.0
74 0.0
80 0.0
86 0.001036
91 0.001029
99 0.001011
102 0.001
101 0.000957
100 0.002024
101 0.001993
106 0.0
113 0.001993
122 0.001015
129 0.000983
135 0.000966
139 0.002026
143 0.002025
147 0.000908
149 0.00096
152 0.0
155 0.002031
155 0.001995
113 0.001958
72 0.001995
60 0.001996
63 0.002044
70 0.0
75 0.001995
80 0.001996
89 0.000997
94 0.000937
97 0.000994
99 0.002006
101 0.002992
107 0.002992
113 0.002992
122 0.000998
129 0.001004
136 0.000998
141 0.002052
146 0.002005
151 0.000965
154 0.000997
157 0.001005
160 0.002033
164 0.002028
156 0.003061
117 0.002992
76 0.00204
65 0.00105
67 0.000988
74 0.002992
80 0.003024
85 0.001962
91 0.000981
96 0.000995
100 0.002994
101 0.002995
105 0.003031
109 0.003023
117 0.002079
123 0.002021
130 0.001991
137 0.002992
143 0.002992
148 0.00099
152 0.001017
156 0.002009
158 0.001997
161 0.00397
166 0.001993
170 0.002997
171 0.002993
134 0.001964
96 0.002011
76 0.001963
71 0.003026
76 0.002992
84 0.002044
88 0.001983
92 0.002994
98 0.004041
103 0.001966
103 0.003989
104 0.004033
108 0.002004
113 0.001954
120 0.001997
126 0.002991
132 0.003023
139 0.002019
143 0.002994
147 0.003038
149 0.003989
153 0.003034
156 0.004023
159 0.00402
144 0.00402
107 0.002008
79 0.002017
69 0.004022
70 0.004021
78 0.002963
83 0.001965
86 0.002985
92 0.003992
102 0.002986
104 0.004026
105 0.003989
109 0.002993
114 0.003065
120 0.002041
126 0.004045
133 0.003988
141 0.002016
147 0.002014
151 0.003044
155 0.004986
160 0.003035
163 0.00399
166 0.003985
171 0.002038
174 0.002958
156 0.003028
115 0.004023
86 0.003988
73 0.002993
77 0.003024
83 0.004041
88 0.004989
94 0.003026
100 0.005015
105 0.004986
108 0.003058
109 0.003021
112 0.002993
117 0.004017
123 0.004023
131 0.002991
138 0.003
143 0.003966
152 0.004014
156 0.003975
159 0.005017
162 0.005018
166 0.002981
169 0.002984
173 0.002988
176 0.00502
179 0.004019
183 0.003975
187 0.004017
190 0.003997
147 0.003989
105 0.00399
82 0.004984
78 0.005044
82 0.00503
91 0.003026
95 0.002977
98 0.002996
103 0.006024
107 0.006016
109 0.004005
109 0.00399
114 0.003989
119 0.003993
125 0.003995
131 0.004986
137 0.005043
145 0.003025
149 0.004031
153 0.003981
156 0.005018
158 0.006028
161 0.003955
164 0.003939
169 0.003993
173 0.003984
174 0.003991
146 0.005022
106 0.00502
78 0.003992
75 0.00399
81 0.00499
87 0.005983
92 0.006003
97 0.00502
104 0.00502
110 0.004024
111 0.004025
112 0.003996
115 0.006018
120 0.005998
128 0.003991
135 0.00399
142 0.005022
148 0.006071
153 0.006043
158 0.00501
162 0.004951
167 0.004995
169 0.004989
173 0.004984
177 0.006018
179 0.005985
140 0.004927
101 0.004954
80 0.005023
75 0.006967
80 0.006977
89 0.004987
93 0.004994
101 0.004978
107 0.005042
111 0.004999
113 0.006045
114 0.006016
118 0.004021
123 0.005039
129 0.006027
136 0.006981
143 0.006985
151 0.004979
157 0.005
164 0.005029
167 0.004987
170 0.004992
173 0.005995
176 0.005959
181 0.00499
181 0.006016
150 0.005984
109 0.006965
85 0.00698
79 0.005982
84 0.006042
94 0.004989
98 0.005951
103 0.004985
109 0.006986
112 0.007971
112 0.007956
112 0.005986
115 0.006
119 0.005987
125 0.006999
131 0.006974
139 0.005956
147 0.006982
152 0.006029
154 0.004998
156 0.005986
160 0.007976
162 0.007971
143 0.006024
106 0.005988
79 0.006015
69 0.006987
71 0.006936
81 0.006981
85 0.00697
92 0.005028
99 0.006981
104 0.006947
107 0.007964
108 0.007956
111 0.005997
116 0.005972
122 0.006015
131 0.007977
136 0.007016
146 0.007014
151 0.007973
156 0.005989
159 0.006976
162 0.006974
165 0.007946
169 0.007945
155 0.006976
116 0.006021
85 0.005012
72 0.007977
73 0.007992
84 0.007979
88 0.00798
96 0.006938
100 0.00698
106 0.006977
109 0.007918
111 0.007912
114 0.006981
118 0.006983
124 0.006973
133 0.007967
137 0.00797
148 0.007939
155 0.007003
159 0.006942
163 0.006952
166 0.006964
170 0.006998
173 0.00701
178 0.00696
180 0.00699
184 0.006984
188 0.007976
191 0.007954
189 0.007984
144 0.007014
92 0.006986
78 0.006962
77 0.00698
85 0.007027
92 0.007007
97 0.006969
100 0.006976
107 0.006994
111 0.007015
112 0.007925
115 0.007017
118 0.007016
125 0.006987
131 0.006974
138 0.006987
145 0.007017
151 0.006968
156 0.006978
160 0.006978
163 0.006943
166 0.006989
170 0.006987
174 0.005982
178 0.007032
182 0.00704
167 0.006968
124 0.006988
92 0.006993
80 0.007012
81 0.007014
88 0.006988
95 0.006965
100 0.006963
107 0.006013
115 0.006039
117 0.006015
117 0.006029
119 0.006969
123 0.006959
129 0.00702
136 0.007014
143 0.007013
152 0.006984
157 0.00699
163 0.006015
166 0.006016
171 0.006015
174 0.006032
177 0.005991
159 0.005951
117 0.005968
88 0.006019
77 0.004981
79 0.007025
88 0.007012
95 0.006048
99 0.005999
109 0.006011
114 0.005992
116 0.006016
117 0.006017
119 0.005994
123 0.005982
129 0.006017
136 0.006015
143 0.005984
152 0.005985
158 0.005018
164 0.005984
171 0.006041
174 0.006049
177 0.005973
181 0.005985
185 0.006017
189 0.006013
192 0.006014
196 0.005985
189 0.005019
126 0.005042
90 0.005041
76 0.005016
80 0.004986
88 0.005031
93 0.004988
97 0.006015
105 0.006025
110 0.006035
112 0.006016
112 0.006011
114 0.006018
119 0.006014
124 0.005027
131 0.005035
142 0.005045
149 0.005032
156 0.005032
161 0.005016
167 0.004985
170 0.005036
173 0.005035
176 0.005021
179 0.003957
164 0.005069
120 0.005026
87 0.00502
74 0.00502
80 0.005019
87 0.005017
93 0.004989
98 0.005021
106 0.005027
111 0.004994
112 0.004984
113 0.004029
114 0.00402
119 0.004025
124 0.004986
136 0.004988
144 0.004991
150 0.005019
156 0.004023
161 0.003966
166 0.004007
168 0.004021
171 0.004028
174 0.003948
170 0.003947
119 0.005056
86 0.005024
72 0.005034
77 0.005017
85 0.004972
91 0.004021
97 0.00406
105 0.004023
110 0.003976
111 0.003993
111 0.004025
111 0.004026
116 0.004032
122 0.003985
134 0.003991
141 0.004052
147 0.004953
153 0.003921
158 0.004045
162 0.004056
165 0.003991
169 0.004028
169 0.00399
142 0.004051
90 0.004002
72 0.004021
72 0.004957
79 0.00399
85 0.003027
90 0.003005
97 0.002992
105 0.002988
109 0.002993
110 0.00299
111 0.002956
114 0.002992
120 0.003992
129 0.004073
139 0.00399
146 0.003985
152 0.003968
158 0.004028
162 0.003086
167 0.004033
170 0.003978
173 0.004027
177 0.004043
176 0.004052
128 0.003945
83 0.002993
71 0.004987
75 0.003023
83 0.003025
88 0.003037
93 0.002992
101 0.003038
107 0.003031
110 0.003042
111 0.003025
113 0.003055
118 0.004033
125 0.002019
135 0.005035
142 0.004015
149 0.003991
155 0.003991
161 0.002992
165 0.002997
170 0.003033
172 0.00301
175 0.003014
179 0.00298
182 0.002992
156 0.002994
111 0.003019
80 0.002992
77 0.003027
81 0.002023
89 0.002026
95 0.001995
102 0.002992
108 0.001995
112 0.002992
113 0.002992
113 0.00304
116 0.002981
120 0.002019
129 0.002033
135 0.002993
143 0.002022
149 0.001963
155 0.001995
161 0.001994
164 0.001994
167 0.002017
169 0.001993
173 0.001995
147 0.001994
106 0.002032
77 0.00205
74 0.00299
79 0.001995
86 0.001995
91 0.001995
98 0.002012
105 0.002033
109 0.001994
111 0.001997
112 0.002041
116 0.001996
121 0.002026
129 0.000999
136 0.000997
143 0.001995
149 0.002056
155 0.002027
162 0.001995
165 0.002057
168 0.002058
171 0.00199
175 0.000996
171 0.002995
131 0.001997
85 0.001006
73 0.000997
73 0.000998
79 0.002032
86 0.000998
92 0.001995
97 0.00197
104 0.001993
108 0.001996
110 0.002037
112 0.000997
116 0.000998
124 0.000997
130 0.000997
138 0.001
147 0.000965
152 0.001007
159 0.001016
164 0.000998
167 0.000997
169 0.000997
172 0.001
177 0.001976
159 0.000997
106 0.000997
81 0.000997
75 0.001982
80 0.001985
84 0.002025
92 0.001028
98 0.0
105 0.000997
109 0.000997
112 0.002051
112 0.000998
114 0.000998
119 0.000996
127 0.002001
133 0.000997
140 0.000997
146 0.000997
151 0.0
156 0.0
158 0.000995
161 0.000998
166 0.001015
158 0.0
122 0.0
89 0.0
71 0.0
73 0.0
79 0.0
85 0.0
89 0.0
97 0.000997
103 0.000997
107 0.001005
110 0.0
113 0.0
117 0.0
123 0.0
132 0.000997
139 0.000993
146 0.0
152 0.0
158 0.0
163 0.0
166 0.0
170 0.000997
175 0.001014
177 0.0
150 0.0
109 0.0
78 0.0
74 0.0
80 0.0
86 0.0
91 0.0
97 0.0
104 0.0
109 0.0
113 0.0
114 0.0
119 0.0
124 0.0
130 0.001009
137 0.002049
147 0.000992
153 0.0
158 0.0
162 0.000998
166 0.002002
170 0.0
175 0.001016
144 0.0
105 0.000963
81 0.0
75 0.000998
79 0.000999
87 0.0
93 0.0
98 0.0
105 0.002025
111 0.002027
114 0.0
116 0.002032
120 0.000992
125 0.000954
131 0.0
139 0.002048
145 0.002029
155 0.0
160 0.000944
165 0.0
169 0.001032
174 0.001029
172 0.001996
114 0.001995
86 0.000999
78 0.0
82 0.000965
90 0.0
96 0.001993
102 0.002022
112 0.0
118 0.0
120 0.0
120 0.002037
122 0.002026
128 0.001976
134 0.001029
144 0.0
149 0.000962
158 0.0
163 0.001028
167 0.001995
172 0.0
175 0.0
173 0.0
141 0.002027
86 0.0
77 0.00204
80 0.00204
90 0.0
97 0.0
103 0.0
110 0.001038
116 0.001995
119 0.001028
120 0.001028
121 0.0
125 0.002057
135 0.0
143 0.003018
150 0.002023
159 0.000972
165 0.000965
170 0.0
174 0.002007
177 0.002992
182 0.001994
168 0.0
123 0.0
89 0.002004
75 0.001006
80 0.001995
88 0.001995
96 0.000991
103 0.000948
110 0.001027
115 0.002005
118 0.002024
120 0.001995
122 0.002011
126 0.000966
132 0.002991
145 0.002027
152 0.002993
159 0.002981
168 0.001977
173 0.002
177 0.001993
181 0.001995
185 0.001995
190 0.001998
174 0.002008
126 0.001963
91 0.001995
77 0.002005
83 0.002992
91 0.002992
100 0.00195
107 0.001029
114 0.001023
119 0.002992
122 0.003029
122 0.000998
125 0.000989
129 0.000997
135 0.003029
147 0.001963
154 0.003991
162 0.002992
170 0.001964
174 0.001987
178 0.000991
182 0.001989
185 0.003043
185 0.003026
134 0.002046
96 0.002025
79 0.002007
82 0.001961
91 0.000997
99 0.002993
105 0.002992
116 0.001951
121 0.00203
122 0.001977
122 0.004021
122 0.002992
127 0.002005
133 0.001022
140 0.001994
152 0.002001
160 0.00103
166 0.002992
172 0.004019
177 0.001994
181 0.001972
185 0.001997
180 0.003994
139 0.003989
88 0.002031
74 0.001996
75 0.001994
87 0.001968
94 0.003002
101 0.002992
108 0.004028
116 0.003026
118 0.001993
118 0.001996
120 0.004029
123 0.004023
131 0.002005
138 0.001996
145 0.001995
158 0.001026
165 0.003017
172 0.005055
177 0.005017
183 0.002955
187 0.003005
190 0.002992
193 0.004021
189 0.004004
126 0.002
90 0.001995
73 0.002025
78 0.001971
86 0.001964
93 0.005016
99 0.004987
108 0.003002
113 0.002988
114 0.002993
114 0.005016
114 0.004073
119 0.003033
124 0.002999
136 0.002028
144 0.002962
150 0.002984
156 0.005036
161 0.005038
166 0.003003
169 0.00294
173 0.00302
175 0.004987
152 0.004987
95 0.002961
73 0.00301
71 0.002991
78 0.003964
85 0.003025
92 0.005022
99 0.005041
108 0.002983
111 0.002994
111 0.002987
111 0.004954
114 0.004979
118 0.00502
127 0.002035
138 0.004986
148 0.00394
154 0.00298
160 0.003991
165 0.005011
169 0.004983
174 0.00301
176 0.003992
152 0.002996
106 0.005016
78 0.004986
67 0.004009
74 0.005984
84 0.003997
90 0.003989
97 0.003004
104 0.004979
109 0.005012
111 0.004007
112 0.003006
115 0.002989
120 0.005033
126 0.006043
135 0.003953
145 0.005983
154 0.00401
160 0.001964
164 0.004015
168 0.005984
171 0.005984
176 0.00402
178 0.003987
151 0.003999
106 0.005022
79 0.005017
70 0.004996
78 0.005984
88 0.005008
94 0.003985
101 0.003994
107 0.005984
110 0.005999
110 0.003994
110 0.003989
112 0.003994
116 0.00698
123 0.007002
132 0.004955
141 0.007015
149 0.004903
154 0.004974
157 0.005024
161 0.005985
163 0.006024
167 0.003989
169 0.004006
144 0.004954
102 0.00595
75 0.006975
67 0.004994
74 0.007032
83 0.005986
88 0.004018
95 0.003999
102 0.005984
105 0.006049
107 0.005003
107 0.003992
110 0.003966
115 0.006998
121 0.006935
133 0.006981
140 0.007015
148 0.004983
153 0.005027
157 0.004989
160 0.006974
163 0.006016
167 0.005959
171 0.004981
174 0.006013
158 0.006968
115 0.006983
71 0.004981
68 0.007024
73 0.007031
83 0.00598
89 0.004991
95 0.004988
102 0.006981
108 0.007914
109 0.005979
110 0.006017
112 0.006028
116 0.007963
127 0.005055
134 0.007007
141 0.00702
149 0.005985
155 0.005028
159 0.004988
162 0.006983
165 0.007951
169 0.005986
172 0.006
175 0.005988
176 0.007953
128 0.004941
93 0.008039
76 0.007979
76 0.006002
82 0.005977
89 0.00504
95 0.006973
102 0.007968
110 0.006021
112 0.005961
112 0.005964
112 0.007972
117 0.005985
123 0.007978
132 0.007016
139 0.005998
146 0.005997
152 0.005994
156 0.007978
162 0.008005
165 0.006956
167 0.006965
171 0.006983
174 0.00798
134 0.005934
88 0.007945
73 0.007017
73 0.005984
80 0.00599
89 0.006971
95 0.007013
101 0.006971
110 0.006972
113 0.006983
114 0.00698
115 0.007939
119 0.006028
126 0.007994
131 0.007978
141 0.006016
148 0.006934
154 0.006966
162 0.007013
167 0.007021
173 0.006964
176 0.007002
180 0.006978
183 0.008023
184 0.006983
146 0.007979
94 0.007993
76 0.00698
77 0.00698
86 0.006947
93 0.006957
99 0.006983
107 0.006972
113 0.006979
116 0.006973
116 0.007018
118 0.005985
121 0.007021
127 0.006992
136 0.00698
143 0.00698
150 0.006017
156 0.007023
161 0.007017
165 0.007024
167 0.006981
170 0.006966
175 0.006947
171 0.006948
121 0.005982
89 0.007014
76 0.006979
76 0.006977
85 0.006014
93 0.005956
99 0.006019
106 0.005974
113 0.006948
116 0.00702
115 0.006978
117 0.006968
122 0.006975
128 0.006986
134 0.007011
142 0.006968
151 0.005985
156 0.005994
162 0.006045
166 0.00603
170 0.006002
174 0.006016
172 0.006009
136 0.005959
98 0.005945
78 0.005987
75 0.007041
83 0.006989
90 0.006005
96 0.005983
102 0.005968
109 0.006016
115 0.006026
118 0.006018
120 0.005991
123 0.005983
128 0.005939
135 0.004989
143 0.005984
153 0.00504
161 0.005048
168 0.006009
174 0.005958
179 0.006036
185 0.005983
188 0.006043
193 0.006031
196 0.005988
200 0.005983
204 0.006018
183 0.005986
92 0.004953
62 0.005033
53 0.005037
55 0.005035
62 0.005033
72 0.006007
78 0.006053
89 0.006001
92 0.005983
93 0.005979
93 0.005991
96 0.004986
106 0.005989
115 0.005028
124 0.005019
133 0.00502
142 0.005027
153 0.004985
160 0.00502
169 0.005985
174 0.005029
178 0.004988
181 0.005965
186 0.004987
190 0.005021
156 0.004987
94 0.004987
66 0.005041
58 0.005035
61 0.00502
73 0.005018
85 0.004983
98 0.004958
107 0.004988
112 0.003989
112 0.004988
111 0.004932
113 0.004989
118 0.005033
125 0.005012
133 0.004988
142 0.005037
153 0.005012
163 0.004978
171 0.004037
175 0.003992
180 0.004024
183 0.005038
154 0.005039
85 0.00399
63 0.003988
57 0.003991
59 0.003992
65 0.003958
73 0.003991
84 0.005003
95 0.005025
99 0.004971
98 0.00398
98 0.004987
99 0.004989
107 0.004943
115 0.004029
124 0.004025
133 0.004024
141 0.004038
153 0.003992
158 0.004985
164 0.002993
166 0.003992
133 0.005029
83 0.003991
56 0.003989
46 0.003999
51 0.003991
58 0.003988
65 0.004048
71 0.00403
85 0.004007
92 0.003988
95 0.002991
97 0.00302
101 0.002995
107 0.002993
115 0.004023
128 0.004001
138 0.00305
147 0.002993
155 0.00399
162 0.003989
171 0.003991
175 0.003963
181 0.003952
168 0.003991
113 0.003991
75 0.003991
59 0.003942
60 0.002989
68 0.003813
76 0.003034
82 0.002959
89 0.002942
101 0.002997
104 0.002953
106 0.004148
108 0.003019
113 0.002987
120 0.002994
129 0.003019
142 0.003027
151 0.002996
159 0.00395
166 0.003053
172 0.002959
180 0.003019
184 0.003059
190 0.00396
178 0.002994
124 0.003002
88 0.003025
74 0.003033
74 0.00298
84 0.002995
91 0.003002
97 0.003033
104 0.002992
114 0.002944
117 0.002995
117 0.003041
121 0.003045
126 0.003034
133 0.002048
141 0.001995
150 0.001997
160 0.003033
168 0.001996
174 0.002043
179 0.001995
185 0.002992
188 0.003
190 0.002055
195 0.003024
197 0.003006
164 0.002028
119 0.001995
99 0.002062
98 0.001994
105 0.001976
112 0.001995
118 0.002008
127 0.002036
132 0.002025
134 0.002021
134 0.001994
135 0.00305
138 0.002036
143 0.001996
149 0.001995
158 0.00203
164 0.001995
170 0.001966
175 0.002001
182 0.002002
185 0.003
187 0.003028
190 0.001996
193 0.00205
196 0.001996
194 0.001996
157 0.002023
117 0.002069
110 0.002053
112 0.001996
124 0.001058
129 0.002029
133 0.003026
138 0.000998
143 0.002042
143 0.000997
143 0.001995
144 0.001996
147 0.002043
154 0.001995
159 0.001995
164 0.000999
173 0.003028
177 0.002046
180 0.001994
183 0.001041
186 0.000998
188 0.001001
191 0.002035
192 0.0
170 0.002035
128 0.002032
116 0.000997
117 0.0
127 0.003036
132 0.000996
135 0.002012
139 0.000995
143 0.000994
145 0.001
144 0.000998
144 0.002033
146 0.0
150 0.000966
155 0.001995
160 0.001998
167 0.001996
170 0.000998
174 0.001001
176 0.000999
178 0.001002
180 0.000998
182 0.001004
184 0.000965
186 0.000998
188 0.002014
168 0.000998
130 0.001989
106 0.0
108 0.0
114 0.0
120 0.0
124 0.0
128 0.001003
132 0.000996
134 0.000999
134 0.000999
134 0.000997
136 0.00097
139 0.000994
147 0.0
152 0.0
157 0.0
161 0.0
164 0.0
168 0.000982
170 0.000997
171 0.0
173 0.001037
174 0.0
177 0.0
179 0.000997
134 0.0
99 0.0
85 0.001031
87 0.0
96 0.0
107 0.0
112 0.0
119 0.000972
123 0.0
125 0.0
122 0.000998
121 0.000957
127 0.000992
133 0.000987
140 0.0
148 0.0
154 0.0
163 0.000944
168 0.0
173 0.0
175 0.001003
178 0.0
182 0.001011
185 0.002024
123 0.002028
83 0.000999
68 0.000954
72 0.0
82 0.0
89 0.001048
94 0.002992
102 0.001052
109 0.0
112 0.0
112 0.001043
114 0.000967
119 0.001
125 0.002003
136 0.0
144 0.0
151 0.0
159 0.002008
165 0.001994
170 0.0
174 0.0
177 0.000997
181 0.0
187 0.0
191 0.0
195 0.002037
192 0.002042
115 0.000976
75 0.0
62 0.000951
66 0.002032
76 0.002024
88 0.0
93 0.001009
100 0.000952
109 0.00097
110 0.000994
110 0.002035
111 0.002045
117 0.0
124 0.0
132 0.0
140 0.001995
148 0.002016
157 0.0
162 0.0
167 0.0
173 0.000998
176 0.000952
180 0.003019
183 0.00202
188 0.000973
192 0.0
195 0.0
178 0.002023
117 0.002032
67 0.000977
60 0.0
66 0.0
81 0.0
87 0.0
92 0.001936
99 0.001031
103 0.0
101 0.0
100 0.0
101 0.002021
107 0.001994
116 0.0
124 0.0
133 0.0
146 0.0
152 0.0
157 0.002003
161 0.002028
165 0.000965
169 0.002008
173 0.00096
178 0.003005
177 0.002992
112 0.00103
67 0.0
49 0.0
54 0.0
64 0.001983
71 0.002038
77 0.002029
86 0.002992
92 0.001986
95 0.002013
96 0.002992
97 0.002993
104 0.003005
111 0.0
120 0.001028
135 0.001009
143 0.001995
151 0.002022
157 0.002027
164 0.002003
169 0.001996
173 0.002002
176 0.003025
181 0.002945
189 0.002007
193 0.001997
164 0.001999
71 0.003003
50 0.001955
50 0.002025
59 0.002992
70 0.002992
79 0.000998
86 0.002012
94 0.002015
99 0.002992
100 0.003019
100 0.001992
103 0.001994
113 0.001995
121 0.002018
130 0.001997
139 0.004021
147 0.003989
156 0.003013
161 0.001989
164 0.00202
167 0.003992
170 0.00399
176 0.001035
173 0.003991
104 0.002024
62 0.001998
45 0.002002
47 0.004988
58 0.003989
71 0.002975
77 0.002001
85 0.002044
93 0.00399
96 0.003989
96 0.001994
98 0.002991
105 0.002041
113 0.00199
119 0.003989
132 0.004024
141 0.003982
151 0.002004
157 0.001992
162 0.00199
166 0.00401
171 0.003985
177 0.001994
157 0.003986
81 0.00296
47 0.001996
37 0.001976
43 0.00399
54 0.003989
65 0.002962
71 0.002003
80 0.002975
88 0.004988
91 0.00399
94 0.001992
97 0.003989
107 0.002958
115 0.001968
125 0.002027
135 0.004979
145 0.005038
155 0.001997
163 0.001996
169 0.001995
173 0.004953
177 0.004954
183 0.001991
190 0.004975
185 0.001967
129 0.002961
74 0.001997
48 0.005031
46 0.004005
59 0.001993
68 0.001998
74 0.001993
80 0.003988
88 0.005082
94 0.002994
95 0.004975
97 0.002987
103 0.002993
111 0.003017
119 0.005017
129 0.004987
142 0.002974
149 0.00299
155 0.003038
159 0.004986
163 0.005024
167 0.005018
174 0.005045
159 0.005012
90 0.003015
56 0.003025
45 0.002992
51 0.005019
60 0.005984
70 0.003959
76 0.003039
86 0.002992
94 0.005984
97 0.005018
99 0.004952
102 0.005002
112 0.00302
121 0.002982
131 0.003951
140 0.005987
149 0.005035
158 0.002991
163 0.002956
168 0.002999
171 0.005955
176 0.005983
184 0.005984
163 0.005981
89 0.003984
55 0.004021
47 0.003033
53 0.004986
63 0.004948
72 0.002992
78 0.004011
87 0.003992
94 0.005982
100 0.003983
103 0.006021
107 0.006013
117 0.003988
126 0.003955
135 0.003986
145 0.005984
153 0.006018
162 0.003992
168 0.00399
173 0.003962
177 0.006036
184 0.003989
189 0.005984
194 0.005984
200 0.004001
205 0.003024
210 0.004959
215 0.005984
215 0.005984
139 0.004011
83 0.004989
57 0.003991
54 0.006034
69 0.003989
76 0.005983
81 0.005996
91 0.003984
97 0.004032
99 0.003989
99 0.005992
101 0.006981
108 0.004988
117 0.004989
127 0.004983
137 0.007022
152 0.005007
159 0.006984
166 0.005983
173 0.004975
177 0.004015
181 0.004944
186 0.006983
191 0.006981
200 0.004965
207 0.005969
198 0.003944
138 0.006982
64 0.004943
55 0.006981
60 0.007012
69 0.008027
79 0.003983
85 0.004017
94 0.004987
102 0.006989
107 0.007003
110 0.004986
113 0.004952
119 0.004986
133 0.004987
142 0.003989
153 0.006974
162 0.006998
174 0.005007
181 0.005959
187 0.004973
192 0.007015
199 0.007977
204 0.005978
208 0.004929
213 0.005045
222 0.004986
227 0.005001
191 0.006983
119 0.00798
66 0.004985
58 0.005966
63 0.005983
76 0.007978
83 0.007978
89 0.006947
97 0.004986
102 0.004944
101 0.005984
99 0.004996
102 0.006956
108 0.007978
120 0.005984
131 0.005949
141 0.005981
154 0.007986
162 0.007972
168 0.006952
172 0.005973
177 0.006004
185 0.006975
168 0.006964
129 0.007978
62 0.007978
42 0.005965
42 0.006001
51 0.006003
61 0.007978
68 0.007979
78 0.006
88 0.005992
95 0.005971
100 0.005945
103 0.006947
107 0.00798
115 0.007008
129 0.006971
140 0.006964
151 0.006985
164 0.006999
170 0.007978
179 0.006014
184 0.006006
193 0.005985
198 0.005998
165 0.006954
80 0.007018
47 0.006981
39 0.006982
51 0.006964
58 0.006979
71 0.006981
79 0.007033
93 0.006962
99 0.006977
104 0.005987
105 0.006029
111 0.005949
116 0.007978
129 0.007017
144 0.006991
151 0.006971
166 0.006974
174 0.007015
181 0.006983
187 0.006035
192 0.006968
200 0.006027
181 0.006981
138 0.006951
82 0.00698
52 0.005984
54 0.005985
65 0.006953
76 0.006964
85 0.006948
97 0.007019
105 0.007013
109 0.006978
109 0.007015
112 0.006965
118 0.006936
127 0.006967
137 0.006011
148 0.006016
162 0.005954
171 0.005954
179 0.00596
184 0.005985
189 0.006984
196 0.006981
186 0.00698
124 0.006983
61 0.006932
47 0.005974
53 0.005985
65 0.006017
80 0.005934
89 0.005933
100 0.005978
108 0.005984
111 0.005995
110 0.005948
112 0.005013
122 0.005982
131 0.005967
142 0.006016
153 0.005984
163 0.006032
175 0.006015
182 0.004999
188 0.004985
193 0.006016
198 0.004986
182 0.004986
97 0.005018
51 0.005008
47 0.00593
56 0.005949
68 0.005984
78 0.005973
90 0.005981
99 0.005979
105 0.005972
108 0.005983
108 0.006005
111 0.004985
120 0.006033
133 0.00595
144 0.00498
155 0.004985
165 0.004959
174 0.00499
184 0.004954
190 0.005946
195 0.005946
200 0.006021
205 0.005023
193 0.005992
103 0.005017
50 0.005988
44 0.004988
52 0.004985
65 0.005021
75 0.005028
85 0.00499
94 0.004988
102 0.005029
104 0.004985
105 0.004959
110 0.004982
117 0.004016
126 0.003994
140 0.005021
151 0.004987
161 0.005001
170 0.004997
178 0.005019
186 0.005045
190 0.005035
194 0.004986
198 0.005021
206 0.004992
209 0.004999
164 0.005021
76 0.003987
47 0.003944
44 0.003989
54 0.003992
67 0.005003
80 0.004987
90 0.005009
99 0.005022
104 0.005036
102 0.00502
103 0.00499
108 0.005026
118 0.003994
129 0.003991
140 0.004987
151 0.003987
161 0.00399
173 0.005037
179 0.004989
184 0.004995
188 0.00502
195 0.003907
188 0.003941
126 0.00399
54 0.003982
35 0.003942
38 0.003991
48 0.004004
60 0.003989
71 0.00399
81 0.003991
91 0.003988
97 0.004712
99 0.004041
102 0.00403
108 0.003995
119 0.003938
131 0.004039
143 0.003992
154 0.003993
165 0.00399
178 0.00399
185 0.003991
191 0.003991
196 0.00399
204 0.003998
208 0.003984
214 0.004026
217 0.003985
158 0.004052
85 0.002995
48 0.003021
39 0.003019
51 0.004042
63 0.003008
73 0.002988
81 0.003025
96 0.00301
101 0.002994
102 0.003991
104 0.003992
109 0.003
116 0.002995
127 0.003988
138 0.002991
154 0.002991
164 0.002993
174 0.003996
182 0.004046
191 0.003012
196 0.003018
200 0.003008
205 0.003047
210 0.002993
215 0.002992
220 0.003011
193 0.003025
115 0.003033
56 0.003039
46 0.003004
52 0.003028
71 0.003954
80 0.002992
89 0.003062
97 0.003
101 0.003004
99 0.003064
98 0.003044
101 0.003025
107 0.003038
120 0.003032
131 0.001993
149 0.002037
159 0.003037
167 0.001994
173 0.002968
177 0.002007
183 0.001963
187 0.002992
192 0.002992
174 0.001993
109 0.003024
48 0.002992
34 0.002992
47 0.001995
59 0.003026
68 0.00296
76 0.003013
86 0.001994
96 0.001995
97 0.001965
98 0.002004
101 0.002028
107 0.003092
119 0.002978
130 0.001989
149 0.001954
160 0.002028
169 0.003025
176 0.001996
183 0.001996
190 0.001995
194 0.002993
199 0.001998
203 0.002027
209 0.002044
200 0.003025
130 0.002038
49 0.00206
39 0.001996
46 0.002072
58 0.002064
68 0.003013
79 0.001997
87 0.002994
95 0.001995
97 0.000999
98 0.002028
100 0.002032
105 0.001997
120 0.002025
131 0.001967
141 0.001994
152 0.002027
161 0.001049
170 0.002025
175 0.001957
179 0.001042
182 0.001047
186 0.002038
192 0.001006
196 0.002027
119 0.001001
66 0.002078
41 0.002026
39 0.002002
49 0.001996
64 0.001996
72 0.000998
81 0.001022
90 0.001044
94 0.002009
94 0.000998
95 0.002037
103 0.001994
112 0.001997
122 0.00203
133 0.003031
144 0.001009
152 0.001036
163 0.001025
168 0.001003
173 0.000998
177 0.000998
181 0.002042
188 0.0
170 0.001036
88 0.001004
48 0.000998
36 0.000997
41 0.0
51 0.0
64 0.000999
71 0.0
80 0.001003
89 0.001002
94 0.000998
96 0.000999
100 0.000997
109 0.000997
119 0.000997
131 0.000963
142 0.0
153 0.0
165 0.0
172 0.0
178 0.0
182 0.0
187 0.000998
193 0.000997
200 0.000999
185 0.000985
121 0.0
69 0.0
47 0.0
48 0.0
61 0.0
70 0.0
78 0.0
86 0.000998
95 0.0
102 0.0
101 0.0
104 0.0
110 0.000964
118 0.000966
128 0.000991
139 0.0
152 0.0
160 0.0
167 0.0
172 0.0
176 0.0
182 0.0
187 0.0
193 0.0
167 0.0
86 0.0
59 0.0
42 0.000987
49 0.00203
60 0.002036
71 0.0
79 0.0
88 0.000967
100 0.0
101 0.0
103 0.0
107 0.002029
117 0.000956
128 0.001011
139 0.000997
150 0.002992
160 0.002038
171 0.000966
178 0.000958
184 0.0
192 0.000998
196 0.001009
201 0.003027
207 0.003027
213 0.0
180 0.0
110 0.000993
63 0.002045
47 0.002023
50 0.00199
65 0.000999
74 0.000958
87 0.0
96 0.000998
103 0.00097
106 0.002038
107 0.002992
112 0.0
118 0.0
127 0.000946
138 0.002992
149 0.002037
164 0.000996
173 0.0
185 0.0
191 0.001046
195 0.0
199 0.003024
203 0.003025
209 0.0
214 0.001
220 0.001
209 0.002035
140 0.002021
68 0.000824
50 0.0
60 0.00098
72 0.000947
82 0.0
90 0.003039
99 0.00305
107 0.0
107 0.001039
107 0.000999
108 0.00204
114 0.001996
126 0.000937
137 0.000996
156 0.0
167 0.000965
175 0.002013
183 0.002022
188 0.002038
194 0.0
199 0.0
204 0.000969
205 0.003022
158 0.002026
76 0.0
48 0.0
49 0.0
61 0.0
72 0.0
80 0.002043
90 0.002978
102 0.0
106 0.000999
107 0.000996
108 0.001991
112 0.002026
123 0.0
137 0.003024
153 0.0
164 0.0
175 0.0
184 0.002022
191 0.002058
200 0.0
205 0.0
209 0.0
214 0.003055
219 0.002992
176 0.002993
84 0.003001
46 0.0
47 0.0
57 0.0
69 0.002024
78 0.002992
90 0.001994
99 0.002983
104 0.000967
105 0.003009
104 0.002996
108 0.0
118 0.002991
131 0.0
142 0.0
153 0.0
163 0.003031
170 0.00399
178 0.002001
182 0.00202
186 0.001949
191 0.000952
196 0.003023
185 0.003003
83 0.003023
47 0.003028
40 0.000956
49 0.000996
61 0.001996
71 0.003031
81 0.004027
95 0.002963
101 0.001997
103 0.002996
103 0.002992
104 0.003033
116 0.003002
126 0.003033
141 0.002002
152 0.002935
163 0.002991
172 0.003989
180 0.003989
187 0.002016
191 0.001998
196 0.001983
202 0.00305
200 0.002992
100 0.00399
54 0.003035
38 0.003047
45 0.002059
58 0.000966
69 0.004039
78 0.003989
91 0.003008
99 0.002008
103 0.002028
103 0.003991
106 0.00399
115 0.003025
124 0.002982
139 0.00201
151 0.002028
163 0.001984
172 0.003996
181 0.003942
191 0.003016
196 0.003013
201 0.002993
207 0.003987
212 0.004057
214 0.004042
151 0.004023
68 0.001989
44 0.001999
44 0.002015
55 0.003989
68 0.003989
81 0.002989
90 0.00199
100 0.001994
106 0.005031
107 0.004989
108 0.004023
112 0.005017
122 0.002004
133 0.002
145 0.002985
157 0.005021
168 0.005039
181 0.001998
188 0.002013
193 0.001995
197 0.004033
204 0.002992
196 0.00399
135 0.004985
64 0.002999
44 0.002983
46 0.002965
58 0.004991
71 0.005013
84 0.002065
95 0.002007
104 0.001996
107 0.002004
106 0.001993
107 0.002994
113 0.004025
121 0.005021
136 0.003011
148 0.002963
159 0.002964
169 0.005039
178 0.00498
187 0.002995
193 0.002992
198 0.002992
186 0.002958
118 0.002992
64 0.005975
40 0.005986
42 0.003011
54 0.002995
67 0.002998
76 0.005986
87 0.004987
101 0.003963
106 0.002998
107 0.003983
110 0.003007
116 0.002995
126 0.006015
136 0.006029
152 0.003
164 0.003015
174 0.003
183 0.004986
191 0.005986
197 0.002991
202 0.003981
207 0.003949
206 0.003998
144 0.003992
79 0.005984
46 0.005988
41 0.00299
52 0.003999
65 0.003053
75 0.005968
85 0.006981
98 0.00301
104 0.003997
105 0.004018
107 0.003989
112 0.003995
120 0.006984
130 0.00597
145 0.004002
157 0.004002
167 0.00404
176 0.005984
183 0.006002
189 0.003032
192 0.003989
197 0.003988
196 0.001979
139 0.002993
77 0.006019
46 0.006019
43 0.00298
55 0.004047
68 0.004019
78 0.007019
88 0.007032
101 0.00398
105 0.003985
104 0.004988
106 0.003993
111 0.003987
119 0.005969
130 0.005987
145 0.003989
156 0.00499
165 0.005036
174 0.007035
180 0.007037
185 0.006982
192 0.004998
196 0.004982
131 0.003989
73 0.003988
44 0.004009
40 0.006986
48 0.00597
63 0.004957
72 0.004966
81 0.005014
91 0.00695
98 0.006981
102 0.004987
102 0.004987
110 0.004987
118 0.003989
129 0.003989
141 0.006982
157 0.007977
167 0.004993
175 0.004979
181 0.004992
186 0.007979
192 0.008023
196 0.004987
140 0.006966
66 0.004992
43 0.004993
44 0.005982
54 0.006982
69 0.007973
77 0.004963
87 0.004955
96 0.005007
104 0.007993
106 0.007979
108 0.005952
115 0.007978
128 0.003993
139 0.004952
151 0.004987
162 0.007977
177 0.007969
185 0.006
192 0.005977
199 0.006013
207 0.007965
203 0.007978
111 0.005985
27 0.007978
0 0.004956
3 0.004954
12 0.005983
26 0.006983
37 0.006982
50 0.005926
61 0.005944
66 0.005943
67 0.007945
72 0.007937
81 0.006957
102 0.007974
118 0.005025
133 0.005985
152 0.006961
159 0.00797
173 0.007978
182 0.005985
190 0.006017
191 0.005961
94 0.006974
32 0.007009
7 0.006009
9 0.007932
28 0.005942
41 0.005994
53 0.005982
72 0.006996
81 0.006944
85 0.006977
87 0.006006
90 0.006015
100 0.006988
112 0.006016
127 0.00697
151 0.006998
164 0.00698
178 0.006942
184 0.005988
194 0.006953
202 0.006981
192 0.007014
96 0.006949
59 0.006977
32 0.006964
32 0.007021
43 0.006989
63 0.006997
75 0.00695
94 0.006023
102 0.005954
105 0.006979
107 0.00701
112 0.005985
123 0.006966
135 0.006977
144 0.006945
163 0.006983
177 0.006982
196 0.00596
206 0.007013
215 0.005975
222 0.005963
225 0.005958
172 0.006016
94 0.006021
43 0.005994
38 0.006923
43 0.006013
59 0.006014
71 0.006937
92 0.007012
107 0.006978
118 0.005984
121 0.005978
124 0.005981
129 0.005973
139 0.005982
156 0.006896
166 0.00698
184 0.005908
197 0.00701
213 0.00698
225 0.005985
231 0.006042
239 0.005984
187 0.005983
186 0.005948
151 0.005984
113 0.005983
93 0.005928
92 0.005963
98 0.005962
105 0.006027
115 0.005984
121 0.006015
127 0.005029
128 0.004987
127 0.004984
128 0.005992
131 0.006026
136 0.005986
144 0.006002
151 0.006023
157 0.005993
163 0.00598
170 0.006013
173 0.00599
175 0.005985
177 0.00595
151 0.004975
113 0.004987
92 0.005019
86 0.004988
91 0.004935
97 0.004946
103 0.004934
108 0.004988
119 0.004984
122 0.004986
123 0.006019
123 0.005032
126 0.005017
131 0.004987
137 0.004974
144 0.005023
150 0.004987
158 0.00497
164 0.003989
168 0.004951
174 0.004025
176 0.006
179 0.00498
181 0.005021
143 0.004965
105 0.004986
87 0.004984
82 0.004934
86 0.005023
95 0.004989
100 0.004952
105 0.004993
114 0.004955
117 0.004956
117 0.003995
118 0.004025
121 0.00404
126 0.004992
132 0.004995
142 0.005017
150 0.004985
161 0.00505
167 0.004952
172 0.00489
179 0.004956
182 0.004986
185 0.004988
189 0.004957
188 0.004031
143 0.00403
98 0.004042
77 0.00399
72 0.004028
79 0.004074
87 0.004027
93 0.003991
105 0.002994
111 0.003927
112 0.002992
111 0.003962
112 0.003989
115 0.003964
120 0.003994
127 0.003988
135 0.004028
144 0.005052
151 0.003991
156 0.004028
163 0.003989
166 0.003043
169 0.004043
173 0.004955
169 0.002972
126 0.002998
87 0.003991
68 0.004045
65 0.003983
72 0.003956
79 0.003987
89 0.003992
96 0.004045
103 0.003023
106 0.003035
107 0.002992
109 0.004024
113 0.00394
119 0.003955
127 0.003977
135 0.004002
145 0.004021
152 0.003983
161 0.00403
165 0.003023
167 0.003054
171 0.002978
174 0.002992
170 0.004016
127 0.002008
87 0.001995
67 0.00305
62 0.003041
67 0.003023
75 0.002953
82 0.001999
92 0.002994
98 0.002992
102 0.003958
103 0.002994
104 0.003024
109 0.00303
116 0.003033
123 0.003017
132 0.003011
140 0.003042
150 0.003059
159 0.002992
165 0.003029
169 0.002983
172 0.003026
176 0.002027
180 0.001996
182 0.003009
146 0.002988
99 0.003019
75 0.003051
68 0.003026
74 0.002998
84 0.003026
92 0.002984
99 0.003024
105 0.001997
107 0.001996
106 0.002027
107 0.002993
110 0.002054
116 0.003023
123 0.002994
131 0.003041
142 0.004083
150 0.000999
157 0.002035
160 0.003063
163 0.003044
167 0.00297
165 0.002025
115 0.002045
81 0.001996
66 0.001986
64 0.001995
69 0.003023
78 0.003019
86 0.00203
96 0.001967
102 0.001962
104 0.001996
105 0.000997
106 0.002029
112 0.002955
119 0.002026
126 0.002035
134 0.001996
142 0.001996
151 0.00203
158 0.00203
163 0.002012
166 0.002039
170 0.002028
170 0.002044
135 0.002045
83 0.002027
66 0.000997
63 0.001
68 0.002031
75 0.002038
83 0.003008
92 0.002023
100 0.001997
103 0.002045
104 0.003021
106 0.003028
110 0.001997
119 0.00198
127 0.002013
135 0.001995
144 0.001995
151 0.00201
159 0.00301
166 0.002027
171 0.001955
174 0.002034
177 0.002036
181 0.002032
185 0.001999
189 0.001993
155 0.001031
106 0.000998
79 0.002043
72 0.002026
80 0.002
86 0.002061
91 0.002039
100 0.002029
106 0.002023
108 0.001995
109 0.001996
109 0.0
113 0.0
119 0.000997
126 0.000998
133 0.001022
146 0.000997
152 0.000999
157 0.001961
161 0.000996
164 0.001006
167 0.000966
170 0.000997
154 0.001001
99 0.0
75 0.0
68 0.0
71 0.0
82 0.0
87 0.001
93 0.0
103 0.001002
108 0.000997
109 0.000996
110 0.000997
113 0.0
121 0.0
128 0.0
137 0.0
144 0.0
156 0.0
162 0.0
166 0.0
171 0.0
175 0.0
178 0.0
156 0.000998
111 0.0
76 0.0
69 0.0
73 0.0
80 0.001032
89 0.0
95 0.0
102 0.000997
110 0.000999
112 0.003044
113 0.000998
115 0.000949
123 0.0
131 0.000997
139 0.000998
150 0.000956
158 0.000999
168 0.000998
173 0.0
177 0.0
180 0.002985
183 0.001993
188 0.0
191 0.000996
173 0.0
122 0.002988
88 0.003033
74 0.001026
78 0.000981
89 0.00102
93 0.000961
99 0.001028
103 0.001059
110 0.001962
112 0.002027
113 0.0
115 0.0
120 0.000968
127 0.003026
134 0.003025
144 0.000971
154 0.003024
161 0.0
165 0.0
168 0.0
170 0.002022
174 0.001998
179 0.001004
179 0.0
144 0.0
100 0.001994
77 0.001995
72 0.001006
80 0.002026
89 0.001041
94 0.0
100 0.0
108 0.002988
112 0.003023
114 0.0
116 0.0
120 0.0
126 0.003026
134 0.003023
149 0.002038
156 0.002029
165 0.000965
171 0.0
175 0.000984
179 0.003024
182 0.00299
187 0.0
191 0.0
180 0.0
130 0.002989
93 0.002978
76 0.002992
81 0.002986
91 0.0
98 0.0
103 0.0
112 0.002993
119 0.002963
123 0.0
124 0.0
126 0.0
130 0.001955
137 0.002045
150 0.002017
158 0.002025
169 0.001003
175 0.000957
180 0.00097
184 0.003036
188 0.002032
192 0.001032
194 0.0
197 0.0
201 0.003037
202 0.003033
133 0.002992
96 0.002988
81 0.0
85 0.0
94 0.0
101 0.001986
107 0.001993
117 0.0
122 0.001002
123 0.0
123 0.002001
123 0.002963
129 0.003011
136 0.002997
146 0.0
154 0.0
161 0.0
168 0.001995
173 0.00204
178 0.0
181 0.0
184 0.0
188 0.002994
191 0.002992
141 0.0
98 0.003059
78 0.002985
77 0.0
84 0.000956
93 0.001994
99 0.002993
105 0.003871
115 0.000953
120 0.002994
121 0.002991
122 0.00399
127 0.00307
133 0.003989
140 0.002973
151 0.002992
160 0.002031
167 0.0
174 0.002968
179 0.003031
185 0.001993
189 0.001999
192 0.003003
196 0.004019
201 0.002002
205 0.004027
208 0.003917
212 0.002997
189 0.001981
126 0.001995
89 0.003054
76 0.003019
81 0.003005
90 0.002995
98 0.003004
104 0.004034
115 0.002006
119 0.003986
120 0.004007
120 0.001974
122 0.002979
126 0.002992
132 0.004059
139 0.005025
150 0.003002
158 0.001984
164 0.003014
170 0.003989
177 0.002983
180 0.002993
182 0.004022
185 0.002986
188 0.002991
190 0.003014
168 0.004015
116 0.005022
78 0.002981
72 0.002992
77 0.002993
91 0.003016
98 0.001999
105 0.004961
112 0.004974
116 0.00301
115 0.003026
114 0.00299
116 0.003979
120 0.004001
129 0.003014
137 0.002031
144 0.00203
156 0.001998
162 0.002021
167 0.004951
170 0.005017
174 0.001994
178 0.00299
180 0.003002
158 0.004016
110 0.003992
73 0.002025
67 0.001997
72 0.002993
85 0.002958
91 0.002957
97 0.005019
104 0.00499
109 0.004957
110 0.00302
110 0.003029
112 0.002993
116 0.004986
122 0.004985
132 0.003015
140 0.002968
153 0.002992
159 0.002994
164 0.002993
168 0.005006
170 0.005022
174 0.002993
177 0.001998
161 0.001995
115 0.005061
82 0.004994
69 0.001997
73 0.002993
85 0.002988
91 0.002997
97 0.002995
104 0.006015
107 0.005984
108 0.001985
108 0.003008
110 0.001973
114 0.005019
120 0.004983
129 0.002952
136 0.002993
147 0.002995
152 0.002994
155 0.003
157 0.005952
160 0.006041
161 0.00196
130 0.002003
90 0.002992
68 0.005049
63 0.00503
70 0.003
78 0.004002
89 0.002993
96 0.003004
102 0.00297
105 0.004989
106 0.005994
107 0.003038
111 0.003
117 0.001973
123 0.004987
131 0.005981
141 0.002993
147 0.003947
155 0.003984
159 0.002996
162 0.003988
166 0.005993
156 0.006003
104 0.002998
77 0.003029
68 0.003011
70 0.005996
77 0.005968
86 0.004001
91 0.00399
102 0.003988
106 0.003992
108 0.004001
108 0.006008
111 0.005986
117 0.002974
124 0.003002
131 0.003002
138 0.006981
145 0.006964
153 0.003956
158 0.006944
161 0.003968
164 0.00493
168 0.004995
166 0.005957
136 0.006018
89 0.002995
75 0.003966
75 0.003983
81 0.005983
88 0.00698
93 0.006977
103 0.006992
107 0.007013
109 0.003949
109 0.004001
110 0.003963
114 0.00695
119 0.006979
127 0.00401
133 0.00397
139 0.003943
144 0.006981
147 0.005995
152 0.006994
155 0.006995
155 0.003985
132 0.004012
97 0.004041
75 0.00699
70 0.006992
77 0.003989
83 0.003982
88 0.004006
96 0.007963
103 0.007975
108 0.007978
109 0.006973
112 0.004948
115 0.004991
120 0.004985
127 0.006971
133 0.006984
142 0.003966
148 0.003993
152 0.004957
156 0.007966
158 0.007978
165 0.007947
167 0.007951
172 0.005028
126 0.00494
83 0.005935
62 0.006973
61 0.006933
72 0.003985
80 0.006002
86 0.004941
96 0.007963
101 0.007972
110 0.007966
112 0.007981
115 0.005027
120 0.005001
127 0.004045
136 0.006972
144 0.007919
155 0.004987
162 0.004982
167 0.004982
171 0.00797
175 0.007967
180 0.007978
185 0.007943
189 0.00502
194 0.005015
191 0.005932
130 0.006973
93 0.007979
78 0.005971
79 0.005028
87 0.00598
95 0.007973
103 0.007975
114 0.007941
118 0.007978
119 0.004932
118 0.005015
120 0.004991
126 0.006985
133 0.007011
141 0.005936
151 0.005986
155 0.005929
163 0.007923
168 0.007985
172 0.00795
175 0.007966
180 0.004985
184 0.004991
165 0.006026
120 0.00601
84 0.006989
78 0.006981
83 0.00599
91 0.005981
98 0.006018
108 0.005988
115 0.005992
121 0.007946
123 0.006987
124 0.005003
127 0.003998
135 0.006996
142 0.006983
150 0.006981
158 0.005989
165 0.006031
172 0.005987
181 0.005998
185 0.005982
190 0.007015
194 0.006969
198 0.005979
197 0.006001
125 0.005986
79 0.005996
57 0.006982
53 0.00698
61 0.006959
66 0.005982
76 0.006983
83 0.005984
93 0.006982
97 0.006039
98 0.005983
102 0.005989
108 0.005988
116 0.006014
126 0.00606
141 0.005983
151 0.006012
161 0.005985
174 0.005975
178 0.005979
185 0.007013
189 0.006998
195 0.005928
199 0.006019
203 0.005985
208 0.006027
212 0.006011
176 0.005981
102 0.005992
71 0.005994
68 0.005985
78 0.005982
88 0.005969
95 0.006047
105 0.005976
113 0.005965
116 0.005984
116 0.006014
115 0.006016
118 0.005996
126 0.005969
134 0.005953
151 0.005975
160 0.005978
168 0.004953
175 0.006017
183 0.006014
187 0.004954
190 0.004998
195 0.005021
199 0.005021
174 0.00598
108 0.006024
74 0.005999
67 0.005972
75 0.005974
85 0.005019
93 0.005989
102 0.004975
111 0.004985
118 0.004987
120 0.00496
120 0.004989
122 0.00502
129 0.004955
137 0.005017
154 0.006003
164 0.006019
173 0.005998
182 0.005018
189 0.005018
196 0.004993
200 0.004986
204 0.005018
208 0.00502
213 0.004981
179 0.004965
109 0.005987
68 0.004962
70 0.005971
79 0.003981
88 0.004104
95 0.005074
103 0.005017
111 0.004988
116 0.004956
117 0.005018
116 0.005021
119 0.004956
125 0.005006
139 0.003937
149 0.003961
158 0.00394
167 0.003992
175 0.00399
183 0.003961
187 0.003995
191 0.004927
194 0.004989
198 0.005047
178 0.004964
92 0.004988
59 0.00402
56 0.003991
63 0.004
73 0.004022
80 0.004033
89 0.003987
98 0.003958
102 0.004
103 0.00399
102 0.003993
105 0.003953
113 0.004985
125 0.004044
135 0.004021
145 0.00399
154 0.003945
162 0.003989
169 0.004029
174 0.003989
178 0.00399
183 0.004026
187 0.003956
150 0.003953
71 0.00399
46 0.003993
47 0.003961
57 0.003957
67 0.003998
75 0.00399
87 0.004007
95 0.002941
100 0.003015
101 0.002993
102 0.003001
107 0.003008
116 0.003018
129 0.002987
140 0.004029
151 0.004007
162 0.003992
170 0.003953
178 0.003942
182 0.003951
186 0.003949
190 0.003028
193 0.002994
131 0.003023
65 0.003018
46 0.003024
48 0.003022
56 0.003954
64 0.002992
70 0.003989
77 0.003962
87 0.003939
89 0.003936
89 0.003052
90 0.002992
94 0.002991
108 0.003047
118 0.002991
133 0.00302
142 0.001994
150 0.003022
157 0.003026
163 0.002033
170 0.001994
175 0.002949
152 0.002963
91 0.002992
53 0.003055
39 0.003029
46 0.002002
58 0.003045
65 0.003059
72 0.002992
82 0.002962
89 0.003
94 0.003023
96 0.002992
100 0.002993
108 0.003032
117 0.002992
136 0.002993
148 0.002094
161 0.002016
169 0.001958
175 0.002031
180 0.001996
186 0.002001
188 0.001995
142 0.002027
83 0.002029
53 0.002043
46 0.003025
59 0.002997
68 0.001995
77 0.001994
87 0.001994
96 0.001995
101 0.001993
103 0.001995
106 0.001996
111 0.002025
119 0.002007
129 0.001991
147 0.001993
158 0.003023
168 0.002026
178 0.002029
184 0.002027
188 0.002024
193 0.002003
197 0.001995
168 0.001972
104 0.001991
67 0.002028
55 0.002029
64 0.002029
74 0.00204
82 0.001997
94 0.002002
103 0.001039
107 0.000998
107 0.000966
107 0.00208
113 0.002026
120 0.002047
129 0.001956
140 0.002029
155 0.002031
163 0.001994
170 0.001055
176 0.002028
179 0.001996
184 0.002017
184 0.001963
141 0.000998
89 0.000998
59 0.000997
58 0.000998
66 0.002011
79 0.002025
85 0.002029
93 0.002089
101 0.00203
106 0.001986
107 0.001996
109 0.002034
115 0.00204
122 0.000996
135 0.001051
145 0.000997
155 0.00201
169 0.001043
176 0.000998
181 0.001003
185 0.002017
192 0.000997
196 0.000997
178 0.001976
114 0.0
76 0.0
62 0.0
67 0.0
77 0.0
88 0.000984
95 0.000998
104 0.000997
111 0.000998
115 0.000999
117 0.000999
120 0.000997
126 0.0
135 0.0
150 0.0
160 0.0
170 0.0
183 0.000998
189 0.000998
194 0.000997
197 0.0
201 0.0
206 0.0
210 0.0
191 0.0
121 0.0
75 0.0
68 0.0
73 0.0
88 0.0
94 0.0
101 0.0
109 0.0
113 0.0
112 0.0
113 0.0
116 0.0
123 0.0
135 0.0
145 0.002883
159 0.001021
170 0.000997
179 0.000958
184 0.000954
186 0.0
191 0.0
196 0.0
188 0.001008
125 0.0
78 0.0
60 0.001996
59 0.003068
74 0.003026
82 0.003024
91 0.0
101 0.00095
108 0.0
111 0.0
112 0.003025
113 0.002988
120 0.000999
128 0.0
137 0.0
148 0.002993
165 0.001007
173 0.002988
181 0.003037
189 0.0
194 0.000964
198 0.0
202 0.003025
206 0.002992
212 0.0
209 0.0
141 0.0
80 0.003027
56 0.000963
62 0.004029
73 0.003016
86 0.0
93 0.000968
102 0.0
110 0.002995
113 0.002993
112 0.0
114 0.0
120 0.0
128 0.003022
146 0.001001
157 0.003028
167 0.001997
179 0.000957
186 0.0
192 0.0
196 0.002959
199 0.001995
203 0.0
207 0.000967
209 0.001014
160 0.002991
65 0.000991
52 0.003027
55 0.003027
68 0.0
78 0.0
86 0.000966
96 0.003037
