195 0.006953
110 0.006983
53 0.006945
33 0.006981
47 0.00702
64 0.005036
84 0.00398
99 0.001996
102 0.001996
105 0.002037
112 0.001995
119 0.000998
133 0.000998
151 0.001013
163 0.0
174 0.0
181 0.0
192 0.0
116 0.0
53 0.000962
22 0.001995
33 0.001995
49 0.001944
61 0.00202
75 0.002026
87 0.002007
95 0.001991
100 0.002963
111 0.002994
119 0.003993
135 0.005029
151 0.005018
161 0.006015
177 0.007012
188 0.005984
195 0.006021
207 0.005034
168 0.004033
86 0.002991
31 0.001994
41 0.001
61 0.000961
70 0.001969
88 0.001995
99 0.00399
103 0.004041
108 0.00389
119 0.007018
129 0.007015
146 0.007027
155 0.006988
163 0.005985
175 0.006053
180 0.004955
190 0.002992
133 0.001945
53 0.001026
29 0.001996
44 0.001989
56 0.0
73 0.000998
92 0.0
97 0.000967
102 0.000955
106 0.000984
118 0.000998
131 0.002
144 0.001999
158 0.001995
172 0.001987
179 0.001995
190 0.001995
195 0.001996
121 0.002996
36 0.002992
111 0.002965
125 0.002993
125 0.002992
125 0.002999
125 0.004987
125 0.004986
125 0.005991
125 0.007972
125 0.005939
125 0.00399
125 0.005027
125 0.001984
127 0.001034
149 0.000997
166 0.0
174 0.000979
188 0.0
174 0.0
45 0.0
0 0.0
0 0.0
6 0.0
22 0.0
46 0.0
66 0.002027
71 0.001995
76 0.002992
89 0.003952
99 0.004987
121 0.005019
144 0.005006
157 0.00502
173 0.00702
186 0.006976
195 0.006005
174 0.006981
52 0.005984
0 0.005945
0 0.006021
16 0.005984
40 0.005959
64 0.005006
76 0.006124
89 0.00396
98 0.002031
108 0.0
124 0.0
146 0.0
160 0.000998
182 0.001011
194 0.001997
211 0.003
225 0.00399
238 0.005987
214 0.006932
76 0.006982
7 0.007935
6 0.005974
28 0.006015
50 0.005033
68 0.003947
90 0.002016
100 0.001995
112 0.001992
121 0.001995
135 0.002033
157 0.000996
181 0.0
190 0.0
210 0.0
225 0.00101
233 0.000989
188 0.001995
190 0.002006
125 0.001995
77 0.001987
76 0.001996
89 0.001979
96 0.001995
108 0.003955
115 0.004987
118 0.004987
119 0.006981
122 0.007015
127 0.007018
135 0.007944
147 0.007951
153 0.00798
158 0.006978
167 0.005028
171 0.005036
163 0.00508
114 0.004973
66 0.004983
68 0.003033
73 0.003034
85 0.002969
96 0.003026
103 0.003039
111 0.002991
115 0.000998
118 0.000997
127 0.0
133 0.0
144 0.000995
153 0.002992
161 0.004024
166 0.004949
172 0.006995
178 0.007884
169 0.007934
104 0.005981
66 0.00499
66 0.003982
79 0.003026
90 0.001
96 0.0
107 0.0
113 0.0
116 0.0
121 0.0
126 0.0
137 0.001995
148 0.001944
154 0.00399
164 0.002992
170 0.003992
175 0.005018
179 0.006022
180 0.006983
138 0.006948
76 0.007021
70 0.005961
77 0.006962
91 0.006018
102 0.003976
109 0.004034
115 0.004049
116 0.004989
119 0.004022
125 0.004006
131 0.003987
142 0.00399
151 0.003025
161 0.002991
166 0.003989
171 0.002992
176 0.003982
140 0.002992
92 0.002992
64 0.001996
67 0.002027
81 0.000997
88 0.001013
97 0.001044
107 0.0
113 0.0
116 0.0
122 0.001021
128 0.000998
139 0.000958
151 0.000998
158 0.001996
169 0.001985
179 0.003059
183 0.002989
190 0.003053
194 0.003039
182 0.003991
96 0.004987
76 0.004985
76 0.005955
89 0.007013
94 0.00597
104 0.004033
114 0.001994
119 0.00103
120 0.000962
125 0.000996
130 0.0
139 0.0
148 0.000998
154 0.000998
162 0.002024
168 0.004031
172 0.005021
173 0.005986
119 0.00695
75 0.005
68 0.003018
78 0.003989
92 0.002988
99 0.001996
111 0.002025
118 0.0
120 0.0
124 0.000998
129 0.001002
137 0.002931
149 0.00402
155 0.004
166 0.00399
174 0.004955
178 0.005952
185 0.006021
162 0.00695
107 0.006977
66 0.007014
68 0.006963
76 0.005983
89 0.005937
96 0.005981
109 0.004046
116 0.005019
119 0.004035
123 0.00498
130 0.005008
136 0.005034
148 0.004986
155 0.004986
166 0.002
174 0.001034
178 0.001001
183 0.0
188 0.0
182 0.0
101 0.0
68 0.0
70 0.0
84 0.000998
94 0.002962
101 0.00396
108 0.003991
109 0.004023
111 0.004951
118 0.004988
123 0.004988
134 0.004985
142 0.005949
150 0.006946
156 0.00687
163 0.007943
166 0.006982
149 0.006015
77 0.003023
59 0.002035
61 0.001032
75 0.00103
82 0.000998
92 0.0
99 0.0
107 0.0
111 0.0
115 0.0
124 0.0
134 0.0
142 0.0
153 0.000997
158 0.0
166 0.001996
172 0.001995
178 0.002992
184 0.003957
129 0.004025
85 0.00399
65 0.003956
71 0.004986
85 0.006022
95 0.006981
102 0.006162
108 0.006026
114 0.006019
116 0.004982
122 0.005021
132 0.003029
140 0.002989
151 0.003024
159 0.003025
165 0.000999
170 0.001047
174 0.000997
177 0.002038
168 0.001961
103 0.001995
70 0.001995
70 0.001956
81 0.002026
92 0.001962
104 0.002992
110 0.002992
115 0.00495
117 0.004951
120 0.006012
127 0.006942
137 0.007979
146 0.007014
156 0.006942
162 0.007012
170 0.005985
176 0.004958
179 0.005017
185 0.005019
150 0.005984
85 0.005023
64 0.004038
73 0.003037
81 0.002992
91 0.003028
97 0.002992
108 0.001052
113 0.000998
117 0.000961
122 0.000998
131 0.001984
138 0.001876
151 0.001999
162 0.002028
168 0.002992
175 0.003015
180 0.003
186 0.002994
191 0.002947
195 0.003312
200 0.004024
192 0.004026
136 0.00399
75 0.003991
71 0.003957
84 0.003991
96 0.004987
105 0.004982
113 0.007029
117 0.007995
118 0.005985
119 0.004027
126 0.002977
132 0.003998
144 0.002991
156 0.000997
160 0.000953
168 0.001006
175 0.00196
180 0.001993
182 0.00399
108 0.003026
75 0.004025
67 0.005003
81 0.006029
88 0.007014
97 0.006987
107 0.00697
112 0.006981
118 0.006553
120 0.006031
126 0.00498
133 0.003214
147 0.0
151 0.0
162 0.0
168 0.0
176 0.0
183 0.0
187 0.0
153 0.001996
77 0.001995
64 0.002995
72 0.005984
86 0.006901
92 0.006977
103 0.007001
110 0.007018
113 0.007034
115 0.007015
120 0.00702
125 0.006981
135 0.006985
142 0.006966
151 0.006982
158 0.004022
161 0.004985
167 0.002977
143 0.002988
82 0.000995
59 0.00098
69 0.0
75 0.001029
88 0.0
94 0.000999
103 0.001996
106 0.002991
107 0.002973
112 0.002993
123 0.002994
130 0.002993
140 0.002957
146 0.003002
155 0.002992
160 0.002932
165 0.004052
142 0.005984
72 0.006907
57 0.006983
60 0.007979
72 0.00498
78 0.005983
89 0.00502
100 0.003955
105 0.002979
110 0.002031
117 0.001008
121 0.0
132 0.0
143 0.0
149 0.000997
159 0.001999
165 0.001995
168 0.002026
174 0.001956
177 0.001966
115 0.002993
72 0.002027
65 0.002993
73 0.002947
82 0.002993
89 0.002992
101 0.002994
107 0.002961
112 0.002992
114 0.002992
121 0.003015
131 0.00296
137 0.004032
147 0.004035
155 0.00503
160 0.005028
165 0.005025
168 0.004987
170 0.004812
107 0.004987
75 0.005025
67 0.005051
75 0.004987
88 0.006016
96 0.005095
106 0.00784
111 0.006017
114 0.005959
116 0.004994
124 0.003015
134 0.002031
140 0.001002
151 0.000999
158 0.0
162 0.0
168 0.001977
174 0.001996
177 0.001861
129 0.002964
73 0.002993
66 0.004989
76 0.004984
84 0.006026
91 0.006002
100 0.005986
108 0.007012
113 0.007827
116 0.006006
123 0.004026
129 0.00402
140 0.002994
152 0.001992
158 0.001997
167 0.001037
171 0.0
177 0.000984
182 0.001995
185 0.001995
191 0.001993
187 0.002034
136 0.001958
77 0.001996
75 0.002993
83 0.00399
95 0.004986
102 0.006981
107 0.007977
115 0.006144
117 0.004958
120 0.004985
126 0.004987
137 0.003004
144 0.00301
154 0.002023
159 0.003028
166 0.001944
170 0.002053
174 0.001001
177 0.001028
127 0.0
87 0.0
69 0.001002
80 0.000934
88 0.000997
98 0.000966
105 0.001007
115 0.000985
119 0.002992
122 0.004024
128 0.004028
137 0.004021
146 0.003966
155 0.004893
164 0.004986
171 0.005012
178 0.005026
182 0.005025
187 0.00695
184 0.007022
138 0.007014
74 0.00698
66 0.006989
75 0.006976
83 0.007945
91 0.006945
103 0.004988
114 0.00498
117 0.005027
121 0.004986
125 0.004999
135 0.00502
144 0.00499
153 0.003034
161 0.00399
171 0.002993
176 0.002983
182 0.002992
185 0.003085
191 0.002032
196 0.0
180 0.0
93 0.0
69 0.0
72 0.0
86 0.001995
98 0.002
104 0.00307
112 0.002407
113 0.002985
114 0.004007
119 0.006027
124 0.006007
136 0.00702
146 0.007991
153 0.006983
160 0.007944
167 0.006017
171 0.00601
177 0.006013
123 0.005023
81 0.005976
61 0.004043
72 0.002021
81 0.001998
92 0.002011
99 0.002012
109 0.000999
113 0.0
116 0.0
123 0.0
131 0.000998
138 0.00096
149 0.001995
160 0.001992
165 0.002003
173 0.00202
176 0.002028
182 0.00296
173 0.004029
104 0.004986
66 0.005029
64 0.006982
72 0.006991
82 0.004967
91 0.003025
103 0.001041
107 0.001029
111 0.0
114 0.0
122 0.0
130 0.000965
137 0.000986
147 0.000999
156 0.000974
161 0.002012
167 0.002005
170 0.002003
175 0.002827
171 0.003956
124 0.003953
68 0.004986
64 0.006976
74 0.00697
84 0.007016
94 0.007977
101 0.007978
106 0.006981
108 0.003989
110 0.00499
117 0.004041
128 0.000998
134 0.0
142 0.0
150 0.0
153 0.0
158 0.0
162 0.000998
141 0.002032
74 0.002948
60 0.002953
65 0.002993
77 0.004983
82 0.005015
93 0.004987
100 0.00498
104 0.004953
106 0.006016
113 0.007014
117 0.007977
131 0.007991
137 0.007805
145 0.006985
153 0.004024
159 0.003029
162 0.003023
168 0.002994
156 0.002163
84 0.00204
59 0.002029
61 0.002002
72 0.0
80 0.0
85 0.0
97 0.0
102 0.000961
107 0.000997
112 0.00299
119 0.002971
127 0.004018
137 0.004975
144 0.00594
153 0.006019
160 0.006985
164 0.007984
169 0.007034
176 0.006982
180 0.007027
185 0.007013
159 0.006994
84 0.003996
68 0.005023
73 0.005019
82 0.00502
90 0.004971
98 0.003025
106 0.002992
111 0.001993
113 0.001962
120 0.002029
126 0.001995
137 0.001004
145 0.0
152 0.0
158 0.002953
162 0.002996
165 0.002997
170 0.002999
154 0.004939
109 0.005041
69 0.006019
74 0.006984
82 0.006931
92 0.006978
101 0.004987
108 0.005016
114 0.005019
116 0.002991
120 0.002025
128 0.003026
136 0.002104
146 0.001032
155 0.000998
162 0.000962
168 0.000997
173 0.000973
176 0.001008
181 0.001995
153 0.002019
104 0.002967
70 0.003006
75 0.002962
83 0.002959
92 0.003004
98 0.002955
108 0.003
115 0.004004
117 0.002981
123 0.002994
133 0.005965
139 0.005998
150 0.006019
156 0.006048
164 0.006991
172 0.007978
176 0.00703
180 0.007982
185 0.007979
188 0.007979
169 0.005973
117 0.006017
74 0.004939
77 0.002989
85 0.002992
95 0.0
106 0.0
112 0.0
117 0.000998
119 0.001004
122 0.000863
131 0.002952
141 0.004031
147 0.005043
157 0.006035
164 0.005983
167 0.00601
172 0.006979
176 0.007978
175 0.00702
107 0.004952
70 0.003035
71 0.004028
84 0.003027
95 0.002017
101 0.001998
111 0.0
114 0.0
115 0.002027
120 0.001995
130 0.001977
137 0.001999
148 0.002993
158 0.005017
163 0.005985
170 0.006986
173 0.006967
178 0.006973
171 0.007008
107 0.00703
75 0.006974
66 0.007012
73 0.007016
84 0.006981
88 0.007015
99 0.005986
107 0.005029
111 0.004987
116 0.004022
124 0.003997
130 0.004024
141 0.001032
151 0.000987
155 0.0
163 0.000998
169 0.001985
171 0.002005
177 0.003005
179 0.005034
142 0.005017
77 0.005018
69 0.005047
78 0.005983
85 0.007978
93 0.006974
99 0.006976
106 0.005984
108 0.005984
110 0.005954
116 0.00402
123 0.004987
134 0.003989
144 0.002998
149 0.001995
154 0.001031
160 0.0
164 0.0
124 0.0
72 0.002009
65 0.002957
74 0.004023
83 0.004956
88 0.005988
100 0.005973
105 0.005985
109 0.005996
113 0.005984
120 0.005981
126 0.005983
136 0.006024
143 0.006153
152 0.005021
160 0.003952
163 0.003981
168 0.002029
174 0.002042
178 0.002021
136 0.002008
93 0.002027
69 0.002034
76 0.000975
81 0.0
86 0.0
96 0.0
104 0.0
109 0.000999
111 0.0
117 0.001966
127 0.001872
133 0.002011
143 0.002029
150 0.003988
156 0.004025
161 0.004984
167 0.006018
170 0.007029
176 0.006982
174 0.006977
135 0.005994
82 0.006024
74 0.005983
82 0.005987
88 0.004025
92 0.004029
102 0.003051
106 0.004987
108 0.001996
112 0.001989
120 0.0
126 0.0
136 0.000998
143 0.000998
148 0.001963
153 0.003027
158 0.002995
162 0.00296
160 0.005022
112 0.006973
82 0.006981
69 0.004991
77 0.004985
82 0.004983
89 0.004985
101 0.002989
106 0.002987
111 0.003026
114 0.003027
121 0.00303
130 0.003986
138 0.001006
145 0.001996
154 0.000985
158 0.0
164 0.000997
168 0.001994
172 0.001963
177 0.001986
182 0.002018
186 0.00203
133 0.001997
94 0.001993
76 0.002992
85 0.003989
90 0.00497
96 0.004845
102 0.005021
111 0.005018
116 0.005019
119 0.005018
126 0.00497
137 0.006955
144 0.007013
153 0.006986
159 0.007078
165 0.006016
169 0.006981
172 0.004989
175 0.004983
180 0.003989
183 0.004025
131 0.003011
84 0.000995
81 0.002027
92 0.00099
101 0.002016
107 0.0
115 0.0
122 0.000992
124 0.003028
128 0.002993
133 0.003006
143 0.002942
153 0.003977
159 0.005021
168 0.00698
174 0.007012
177 0.006983
182 0.007014
186 0.007979
190 0.006984
153 0.007975
96 0.006026
79 0.004986
83 0.00299
95 0.00201
99 0.002984
108 0.001202
114 0.001041
120 0.0
123 0.0
126 0.000997
134 0.000998
145 0.000997
152 0.000996
162 0.001002
172 0.003033
176 0.003026
183 0.003039
188 0.004025
192 0.004987
196 0.004954
200 0.00598
184 0.00785
113 0.006024
78 0.003975
80 0.003991
94 0.002027
104 0.001015
109 0.000955
117 0.000999
121 0.001033
122 0.002993
126 0.003026
130 0.002966
140 0.002994
150 0.003031
155 0.002994
163 0.003967
168 0.004988
171 0.004878
177 0.006985
177 0.006962
130 0.004989
80 0.004987
70 0.005004
77 0.004969
92 0.004027
101 0.002004
109 0.001991
115 0.000998
116 0.002029
119 0.001027
127 0.0
131 0.0
142 0.0
152 0.0
158 0.0
166 0.001006
172 0.003051
174 0.003051
178 0.003054
159 0.003031
81 0.002965
61 0.00303
66 0.002993
79 0.002956
86 0.004025
94 0.004023
102 0.004981
108 0.007022
111 0.006955
118 0.007015
122 0.007978
132 0.006979
144 0.004022
150 0.004935
159 0.003997
166 0.003999
170 0.004044
175 0.002991
123 0.001998
83 0.001
66 0.001001
72 0.001001
85 0.001001
91 0.002024
99 0.001003
105 0.002027
106 0.000999
107 0.000998
113 0.0
119 0.0
130 0.001038
139 0.002958
146 0.001961
152 0.002957
158 0.004002
161 0.003993
115 0.004026
65 0.006018
60 0.005986
69 0.005975
76 0.005993
82 0.007042
92 0.006077
101 0.006015
105 0.003991
109 0.003984
115 0.002999
123 0.001978
135 0.002028
142 0.000998
151 0.001995
159 0.0
163 0.000998
168 0.0
172 0.0
171 0.000968
102 0.001998
72 0.000964
65 0.002054
76 0.001959
82 0.001976
90 0.003026
101 0.002975
106 0.003004
112 0.00399
115 0.002993
124 0.002993
135 0.002985
142 0.002991
152 0.004987
159 0.005987
164 0.005988
167 0.007979
174 0.006969
175 0.00797
128 0.00703
89 0.007028
71 0.006982
80 0.002992
86 0.005028
95 0.00299
105 0.000955
110 0.0
112 0.000996
116 0.002006
124 0.003954
131 0.00498
142 0.004009
148 0.003947
157 0.004988
163 0.004954
167 0.005016
172 0.005985
148 0.006986
102 0.004981
70 0.006016
71 0.006015
78 0.005977
87 0.006008
92 0.006019
104 0.004027
113 0.0
118 0.001965
122 0.001016
131 0.000999
138 0.001021
149 0.0
157 0.0
163 0.000963
172 0.002041
179 0.001955
183 0.003969
189 0.003001
176 0.003992
124 0.003992
76 0.003943
75 0.003945
87 0.00399
95 0.003988
103 0.003988
112 0.006032
119 0.005975
121 0.005983
125 0.006982
132 0.004976
139 0.005979
150 0.005011
156 0.00602
165 0.005143
170 0.002992
173 0.002991
179 0.003029
167 0.003028
118 0.003027
77 0.002992
75 0.001994
83 0.001966
96 0.000986
105 0.001965
115 0.002015
120 0.002002
122 0.002031
124 0.001995
131 0.002004
138 0.002037
149 0.004026
160 0.003967
166 0.003988
175 0.004987
179 0.00399
184 0.004985
190 0.006017
187 0.00701
107 0.006982
70 0.005987
70 0.00695
84 0.006978
89 0.005983
99 0.004025
109 0.002982
117 0.002992
119 0.002992
124 0.002033
130 0.0
139 0.000997
147 0.002008
158 0.002008
164 0.002002
172 0.003049
176 0.003987
183 0.00399
182 0.004021
137 0.004991
75 0.006022
70 0.006991
79 0.006981
91 0.006988
102 0.004987
109 0.003972
118 0.003965
120 0.004987
124 0.003954
130 0.002039
141 0.001995
148 0.001996
160 0.000998
168 0.001004
174 0.001021
180 0.000997
181 0.001007
126 0.000999
73 0.000998
69 0.000994
80 0.000998
89 0.000997
101 0.000996
113 0.001995
118 0.001961
121 0.002
123 0.002005
131 0.001819
141 0.004024
153 0.005968
160 0.005981
169 0.006018
174 0.007013
180 0.003982
150 0.005983
89 0.003972
71 0.004987
79 0.005184
88 0.005021
101 0.004979
112 0.002026
116 0.002988
116 0.00097
117 0.000998
122 0.000998
132 0.000997
143 0.001996
150 0.002991
160 0.004005
168 0.004982
170 0.004953
107 0.006978
69 0.006981
65 0.006961
75 0.005984
86 0.003996
93 0.003989
105 0.003027
112 0.001953
113 0.002989
117 0.001993
121 0.001996
132 0.002015
141 0.0
147 0.00098
157 0.001999
165 0.001997
168 0.001997
113 0.002986
67 0.002938
65 0.003004
76 0.002993
84 0.003
94 0.002958
107 0.004872
111 0.004958
116 0.005022
119 0.004993
126 0.005019
135 0.00502
147 0.006976
154 0.006947
160 0.007948
166 0.007983
172 0.007991
139 0.005986
95 0.005019
70 0.002027
79 0.001996
87 0.002023
97 0.001971
107 0.000998
113 0.0
115 0.0
118 0.0
122 0.001987
133 0.00399
144 0.003956
150 0.003983
159 0.00603
164 0.00595
170 0.005996
153 0.006982
94 0.007148
71 0.005982
70 0.00402
82 0.001996
87 0.00399
100 0.002
106 0.002993
114 0.002026
118 0.00201
122 0.002009
132 0.001994
138 0.002027
149 0.002016
160 0.001043
165 0.0
172 0.0
178 0.002028
183 0.0
188 0.001017
177 0.0
97 0.000995
73 0.002028
80 0.003945
90 0.005009
98 0.006019
109 0.00698
115 0.007
121 0.007013
124 0.004998
129 0.004986
138 0.002996
145 0.004028
157 0.002966
167 0.002973
172 0.002013
177 0.0
182 0.0
184 0.0
127 0.0
79 0.0
76 0.0
88 0.001002
101 0.003016
108 0.002986
120 0.002995
123 0.002992
124 0.003987
127 0.003953
132 0.003959
142 0.00399
154 0.004023
160 0.004002
170 0.004036
174 0.003992
180 0.003975
173 0.005017
125 0.006979
73 0.006993
70 0.005986
77 0.006016
90 0.005982
99 0.006019
109 0.004031
117 0.004022
121 0.003036
124 0.001032
132 0.000993
138 0.001027
149 0.000996
161 0.0
167 0.001076
175 0.001002
180 0.0
184 0.000999
190 0.001997
193 0.002993
155 0.002992
81 0.002992
70 0.002993
79 0.00399
93 0.004986
100 0.00498
112 0.004987
120 0.006981
122 0.006981
123 0.006018
129 0.006939
137 0.005984
145 0.006976
157 0.004987
164 0.004988
173 0.00399
179 0.000995
183 0.001995
184 0.0
125 0.000998
85 0.001995
71 0.001964
77 0.001983
94 0.001993
108 0.002949
115 0.002958
121 0.002959
121 0.002993
122 0.002965
129 0.003029
136 0.004022
148 0.00595
160 0.006031
166 0.006017
174 0.005981
179 0.005981
183 0.006979
159 0.006981
78 0.006018
62 0.004988
68 0.005019
83 0.002979
91 0.004025
103 0.002004
109 0.002973
115 0.0
118 0.0
123 0.000997
129 0.00301
140 0.002991
147 0.002997
158 0.002991
167 0.003989
172 0.004019
180 0.00399
177 0.005
128 0.004988
68 0.004987
62 0.004987
74 0.004986
86 0.004987
95 0.004987
106 0.004987
112 0.006981
114 0.006995
117 0.005984
123 0.00401
129 0.003988
142 0.004109
149 0.002996
159 0.004025
166 0.002968
169 0.003022
170 0.00203
117 0.002023
71 0.0
63 0.0
77 0.000997
85 0.000998
99 0.000997
108 0.00203
112 0.002993
113 0.003986
116 0.004949
121 0.00502
132 0.004989
139 0.006018
150 0.007975
157 0.004988
164 0.003996
169 0.003986
160 0.003987
111 0.003989
63 0.002001
62 0.000968
71 0.000952
83 0.0
91 0.002027
100 0.0
106 0.001996
109 0.002051
112 0.002027
121 0.001994
127 0.001995
139 0.0
147 0.002045
154 0.002044
160 0.001983
168 0.002027
173 0.001996
128 0.002014
70 0.005026
64 0.005022
74 0.006969
83 0.006974
89 0.006999
101 0.007007
107 0.006997
111 0.007017
114 0.006019
118 0.006021
129 0.005985
136 0.005983
147 0.00496
154 0.006992
159 0.004001
163 0.003989
168 0.003975
159 0.003992
89 0.003989
65 0.001966
69 0.001963
83 0.000989
89 0.002001
101 0.0
109 0.0
110 0.0
113 0.0
119 0.000985
125 0.001027
136 0.001003
142 0.000998
152 0.00399
159 0.003988
164 0.006018
168 0.006021
153 0.006017
122 0.00694
70 0.006019
66 0.006981
75 0.005
83 0.005001
92 0.004989
100 0.004985
108 0.005023
112 0.000998
115 0.002993
124 0.001028
135 0.0
139 0.0
151 0.0
155 0.0
163 0.0
171 0.000992
176 0.000996
182 0.000997
188 0.000971
186 0.000996
109 0.000999
79 0.000998
73 0.002047
84 0.001008
93 0.00096
100 0.000998
109 0.001995
114 0.002993
117 0.003032
119 0.002992
128 0.003959
139 0.005021
146 0.006956
155 0.006856
161 0.006977
164 0.006021
167 0.005987
172 0.004998
163 0.00499
93 0.003984
71 0.003024
74 0.002025
85 0.002038
96 0.000997
103 0.002952
113 0.002958
117 0.002989
119 0.003945
123 0.005872
133 0.00602
140 0.006018
149 0.006955
158 0.002998
163 0.003998
169 0.000993
175 0.0
179 0.0
168 0.0
93 0.0
72 0.0
72 0.0
84 0.002994
89 0.002995
99 0.002995
109 0.004025
113 0.005997
117 0.006986
121 0.007013
129 0.006857
135 0.00799
147 0.007026
153 0.00702
163 0.004983
170 0.002006
174 0.001026
180 0.0009
184 0.000998
165 0.000997
91 0.002011
72 0.001996
78 0.001966
90 0.002993
99 0.004006
106 0.004988
113 0.006987
115 0.006951
117 0.006991
123 0.005989
131 0.004031
140 0.003025
148 0.003026
155 0.002016
158 0.000983
162 0.0
166 0.001994
149 0.002988
93 0.003037
68 0.005983
72 0.007014
83 0.006989
93 0.004982
105 0.002023
110 0.000977
114 0.0
117 0.002029
121 0.0
129 0.001993
138 0.001032
147 0.001005
156 0.000998
160 0.002994
166 0.002989
171 0.004982
169 0.004982
117 0.007024
72 0.007982
69 0.005983
80 0.00502
90 0.002996
97 0.001998
104 0.001974
111 0.002019
114 0.001005
118 0.0
124 0.000999
131 0.0
142 0.000953
153 0.0
159 0.001955
167 0.002992
173 0.002986
176 0.002879
176 0.002994
139 0.003028
79 0.003022
72 0.003026
81 0.002961
90 0.002994
97 0.003032
106 0.003989
114 0.004023
116 0.003986
119 0.003993
127 0.005952
134 0.005985
142 0.006025
151 0.006034
156 0.005948
160 0.003984
165 0.002951
169 0.002004
136 0.001027
86 0.001995
71 0.0
78 0.002
89 0.0
97 0.000996
109 0.00399
116 0.003986
118 0.004032
121 0.006016
126 0.005986
134 0.006035
146 0.005998
151 0.005979
161 0.00746
166 0.006984
171 0.007981
175 0.006992
178 0.007962
147 0.007017
81 0.006002
71 0.00599
79 0.005985
91 0.005983
95 0.005994
106 0.004997
112 0.004001
118 0.002994
121 0.002993
127 0.002002
136 0.002992
148 0.003006
155 0.003013
165 0.002026
171 0.000998
176 0.001993
179 0.003981
185 0.004033
179 0.005957
104 0.005981
76 0.005987
80 0.005985
94 0.00602
104 0.006975
108 0.006005
119 0.003985
122 0.003025
124 0.000997
127 0.0
136 0.001035
142 0.002007
153 0.003013
160 0.002958
166 0.003002
171 0.00399
176 0.004979
169 0.004985
98 0.006027
74 0.005953
78 0.007016
90 0.006969
101 0.004986
109 0.004968
120 0.004033
123 0.003993
126 0.00399
131 0.003989
137 0.003991
148 0.003986
157 0.002992
165 0.001992
172 0.002992
177 0.002
181 0.001003
182 0.000997
128 0.00099
81 0.001043
72 0.001999
84 0.003862
92 0.005034
102 0.005979
112 0.006964
117 0.007006
122 0.004022
126 0.002998
131 0.002989
142 0.002999
155 0.000996
162 0.002002
172 0.000965
177 0.000997
183 0.000995
188 0.002967
181 0.000994
117 0.002026
80 0.001984
77 0.002027
91 0.0
99 0.0
109 0.001956
118 0.001992
123 0.002031
124 0.001995
128 0.003983
133 0.003956
143 0.004024
153 0.006945
159 0.00793
164 0.005985
170 0.004986
174 0.004995
157 0.004988
109 0.004979
70 0.00498
75 0.004991
85 0.004986
97 0.003972
107 0.00399
115 0.003021
119 0.004022
121 0.002965
124 0.002034
134 0.002002
143 0.0
152 0.001016
160 0.003002
168 0.003992
172 0.004024
177 0.004985
176 0.006029
134 0.005876
79 0.006982
65 0.007962
73 0.00698
87 0.006981
94 0.007013
106 0.005983
115 0.00602
119 0.004099
122 0.005984
127 0.003991
135 0.005993
146 0.005017
153 0.004987
164 0.005019
172 0.004024
175 0.004021
182 0.001028
172 0.0
123 0.001004
73 0.0
70 0.000997
81 0.0
94 0.0
100 0.0
111 0.0
115 0.0
116 0.000966
119 0.0
124 0.0
134 0.0
145 0.0
150 0.0
159 0.002038
164 0.001991
169 0.002964
152 0.002992
91 0.002992
63 0.002993
68 0.004981
76 0.005017
88 0.005981
97 0.006973
107 0.006981
113 0.00695
115 0.007024
119 0.005992
128 0.004988
135 0.004984
146 0.004985
156 0.005042
161 0.003989
167 0.004988
172 0.004963
176 0.002026
136 0.003979
81 0.002029
66 0.003989
77 0.003976
85 0.003969
95 0.003989
107 0.000968
112 0.001001
117 0.0
119 0.001031
125 0.0
134 0.0
139 0.0
150 0.0
160 0.001027
164 0.001996
169 0.001995
175 0.004046
171 0.004988
100 0.004991
69 0.005981
72 0.005982
86 0.005969
93 0.00603
104 0.005977
112 0.007987
114 0.005986
115 0.006151
120 0.005019
125 0.004974
136 0.004986
147 0.002993
152 0.004986
160 0.003003
163 0.004987
169 0.001965
168 0.002995
129 0.002992
72 0.002992
65 0.003011
74 0.002
85 0.00201
90 0.001964
100 0.0
110 0.0
113 0.0
117 0.001036
123 0.000994
131 0.001963
140 0.001995
150 0.002952
156 0.002957
164 0.003042
168 0.004029
175 0.006031
182 0.004966
183 0.005981
120 0.006845
76 0.006003
69 0.006018
79 0.005023
91 0.004987
96 0.002992
107 0.002993
113 0.005021
116 0.001995
119 0.002026
127 0.002012
134 0.0
145 0.0
151 0.0
160 0.0
165 0.0
170 0.0
174 0.0
146 0.000998
100 0.001964
71 0.001995
79 0.003949
88 0.004056
98 0.004951
110 0.006992
114 0.006963
117 0.006988
118 0.006981
125 0.00698
135 0.005985
142 0.006978
151 0.005985
158 0.006981
164 0.004991
169 0.007007
174 0.003992
167 0.004978
95 0.005187
72 0.005021
71 0.00497
84 0.001034
90 0.002992
100 0.001995
107 0.002952
115 0.00198
118 0.002002
122 0.002002
132 0.001997
142 0.001999
149 0.001994
162 0.00099
168 0.0
175 0.000997
181 0.001986
186 0.0
188 0.000998
122 0.004033
87 0.004026
77 0.003989
87 0.005987
96 0.005996
103 0.005987
114 0.006984
118 0.007947
120 0.007979
121 0.007979
128 0.007983
136 0.005948
143 0.006983
153 0.003984
160 0.00396
163 0.004006
166 0.003992
170 0.004071
155 0.004959
87 0.002991
72 0.004005
75 0.004986
90 0.004954
97 0.004965
108 0.004987
114 0.003989
119 0.001995
121 0.0
124 0.001961
132 0.000998
143 0.003991
154 0.003945
159 0.003945
166 0.00399
170 0.003989
176 0.005984
153 0.00602
119 0.006981
71 0.005987
72 0.005983
80 0.005012
91 0.005988
97 0.005971
108 0.00408
114 0.00502
116 0.003021
119 0.004989
127 0.004986
133 0.004987
144 0.005025
154 0.001993
159 0.002992
166 0.002002
169 0.002007
174 0.002034
177 0.0
147 0.001011
79 0.000998
68 0.003025
75 0.002995
88 0.002996
97 0.003018
104 0.002933
112 0.003008
115 0.003962
118 0.00396
124 0.004989
130 0.003968
142 0.006034
150 0.007019
155 0.006005
159 0.007003
164 0.006977
167 0.006981
161 0.005939
92 0.002986
72 0.003986
73 0.002026
86 0.002017
93 0.001012
104 0.001991
110 0.0
113 0.0
114 0.0
117 0.0
126 0.0
138 0.000956
144 0.001997
154 0.003988
161 0.004987
164 0.005987
169 0.006955
171 0.007024
135 0.006006
82 0.005946
67 0.004029
73 0.002993
84 0.002029
93 0.0
100 0.001994
108 0.0
111 0.0
114 0.002007
121 0.002029
131 0.00556
140 0.006983
148 0.006942
155 0.004942
161 0.003986
164 0.002995
170 0.002993
174 0.003957
146 0.00301
90 0.003958
69 0.000996
72 0.002008
84 0.002029
88 0.002037
97 0.002026
107 0.000948
110 0.0
113 0.002027
116 0.002054
125 0.003024
135 0.004027
142 0.003991
151 0.00303
158 0.003949
160 0.003964
165 0.00503
169 0.004986
155 0.006031
88 0.00698
72 0.006952
73 0.005967
83 0.006985
90 0.005952
98 0.007011
108 0.006978
111 0.004981
114 0.004026
120 0.000999
126 0.002985
136 0.001983
147 0.000958
150 0.000997
158 0.0
164 0.000998
166 0.000997
171 0.002032
172 0.003986
136 0.004979
80 0.005034
72 0.005017
79 0.005986
89 0.006975
93 0.005982
102 0.004987
110 0.005993
115 0.004953
118 0.005984
127 0.006003
133 0.004035
144 0.003987
155 0.00196
160 0.003031
168 0.001015
174 0.0
177 0.0
182 0.0
185 0.0
190 0.0
181 0.0
132 0.0
82 0.0
78 0.000955
89 0.0
98 0.00202
102 0.002029
112 0.000997
118 0.001961
119 0.003045
123 0.004948
130 0.004972
138 0.005984
147 0.007772
155 0.006951
161 0.006018
169 0.005026
175 0.002992
177 0.005028
183 0.002991
184 0.00198
149 0.001031
85 0.0
75 0.0
79 0.0
92 0.0
98 0.0
110 0.0
118 0.001007
121 0.001996
125 0.00102
132 0.001962
139 0.001995
150 0.004041
158 0.005032
166 0.004969
173 0.006032
179 0.006986
183 0.006786
189 0.006976
191 0.007979
197 0.007943
202 0.005969
193 0.00601
105 0.003996
74 0.002006
77 0.001979
91 0.002027
100 0.001996
107 0.0
115 0.000964
121 0.002997
122 0.002993
126 0.004039
133 0.005967
143 0.006001
152 0.006021
163 0.005997
169 0.00701
174 0.007992
180 0.005932
182 0.007083
187 0.004987
189 0.006981
171 0.004953
90 0.004977
73 0.004969
77 0.004991
86 0.004996
100 0.00399
112 0.002958
118 0.002033
121 0.00199
122 0.00399
126 0.001966
133 0.002029
144 0.000983
151 0.000997
162 0.001041
169 0.000998
176 0.000967
181 0.001047
184 0.00203
189 0.002001
177 0.001996
122 0.003002
68 0.002956
67 0.00382
76 0.004993
89 0.00698
97 0.005957
104 0.00698
112 0.006981
115 0.006945
121 0.006863
127 0.006977
137 0.006985
146 0.006977
156 0.006954
165 0.00404
172 0.006964
177 0.00499
181 0.006025
186 0.005073
188 0.005018
123 0.002994
70 0.000965
66 0.002043
79 0.0
92 0.0
96 0.000997
108 0.0
112 0.001995
112 0.002022
113 0.00399
120 0.005984
126 0.006981
136 0.005984
147 0.004985
152 0.002976
159 0.003988
164 0.004987
168 0.002998
141 0.004983
81 0.004007
58 0.003957
64 0.003027
73 0.002994
84 0.00202
96 0.000996
102 0.000974
106 0.0
108 0.001995
113 0.0
121 0.0
127 0.0
138 0.0
149 0.001001
154 0.000998
160 0.001979
166 0.002028
169 0.001995
126 0.002835
67 0.005013
59 0.004987
68 0.005022
75 0.005949
83 0.007952
90 0.007012
97 0.006962
103 0.006018
106 0.004976
110 0.005989
118 0.003999
129 0.003998
136 0.003958
146 0.003982
150 0.003989
156 0.002995
162 0.002995
164 0.003984
115 0.002032
81 0.001986
65 0.001995
72 0.003989
80 0.001992
86 0.00303
97 0.001989
101 0.0
103 0.002029
105 0.003993
111 0.005037
119 0.007035
129 0.007019
137 0.00501
142 0.007058
148 0.004982
151 0.006981
156 0.002959
109 0.00199
77 0.001965
62 0.0
70 0.0
76 0.0
83 0.0
93 0.0
99 0.0
104 0.000999
109 0.000998
114 0.000998
123 0.001964
130 0.001965
140 0.003001
147 0.004048
153 0.004033
157 0.003987
163 0.003991
166 0.00399
171 0.003989
177 0.005992
178 0.006028
116 0.006973
84 0.007017
70 0.004993
78 0.004983
84 0.002992
90 0.003956
101 0.003002
106 0.002985
110 0.002961
114 0.004199
120 0.002
127 0.001982
138 0.0
144 0.001033
152 0.000967
157 0.001996
162 0.001996
164 0.002991
169 0.005052
171 0.005021
176 0.006015
157 0.006966
112 0.007942
79 0.005987
75 0.006984
85 0.00399
94 0.00297
100 0.003995
110 0.002992
115 0.003026
116 0.002989
121 0.001994
128 0.003025
137 0.001995
145 0.001997
154 0.0
159 0.000998
165 0.001965
168 0.00195
174 0.001952
177 0.001995
181 0.001995
186 0.001996
177 0.003991
128 0.004007
78 0.004004
77 0.00598
82 0.005982
95 0.004983
103 0.006028
110 0.005979
119 0.004979
121 0.004063
125 0.002021
131 0.002953
139 0.001953
148 0.002962
159 0.003027
164 0.003029
172 0.002987
175 0.002995
179 0.003023
183 0.001991
185 0.002995
186 0.000997
117 0.0
86 0.000965
77 0.0
87 0.001995
96 0.00198
105 0.002013
112 0.002043
120 0.001996
123 0.00185
124 0.001982
131 0.001995
142 0.003988
149 0.002998
160 0.003937
168 0.006029
174 0.006963
178 0.007939
182 0.005993
185 0.006128
189 0.006017
123 0.002
84 0.003989
70 0.001965
82 0.000966
91 0.000964
100 0.0
104 0.0
115 0.000997
121 0.001028
122 0.001017
128 0.000998
139 0.000998
146 0.000997
158 0.001
165 0.001013
174 0.000998
182 0.001998
185 0.002989
190 0.002992
194 0.003027
158 0.003962
92 0.003025
72 0.004982
77 0.006885
93 0.00701
101 0.003987
108 0.005983
118 0.003012
121 0.002007
122 0.0
127 0.0
134 0.0
140 0.001996
152 0.000997
162 0.002992
166 0.00399
172 0.003995
175 0.00399
178 0.005973
114 0.005996
78 0.006981
67 0.006979
78 0.007018
88 0.006967
100 0.006949
111 0.007978
116 0.00698
119 0.005017
121 0.002995
124 0.004975
133 0.001997
145 0.001027
152 0.002005
161 0.0
169 0.001001
173 0.002044
178 0.001988
180 0.001997
117 0.001997
63 0.001996
59 0.001914
72 0.001962
82 0.003991
90 0.006021
98 0.005988
106 0.006019
108 0.00602
111 0.005989
115 0.005983
126 0.006034
138 0.005995
145 0.006019
156 0.006015
161 0.006961
166 0.005984
171 0.005952
173 0.004987
114 0.005019
64 0.004977
61 0.003976
74 0.001992
84 0.001996
91 0.0
99 0.0
106 0.001999
107 0.002003
111 0.004029
117 0.00399
126 0.004984
135 0.005984
145 0.006018
148 0.007978
155 0.00798
159 0.005981
160 0.007983
114 0.005017
70 0.00798
62 0.005005
75 0.005985
82 0.004988
92 0.00493
102 0.004981
105 0.004962
107 0.004986
110 0.003992
117 0.003
126 0.003994
135 0.002002
144 0.002031
151 0.001995
155 0.001996
160 0.002032
162 0.0
130 0.002026
70 0.001013
60 0.0
66 0.001958
77 0.003025
84 0.004
91 0.005022
101 0.005991
105 0.006073
107 0.004978
114 0.003991
124 0.00299
131 0.002989
141 0.001996
148 0.002027
153 0.0
158 0.002016
162 0.0
167 0.002025
163 0.0
120 0.0
71 0.0
68 0.000964
77 0.001994
84 0.002022
92 0.00299
99 0.004028
108 0.003963
110 0.004009
115 0.006017
123 0.005967
130 0.006969
139 0.006973
148 0.006981
154 0.006977
158 0.006979
161 0.006952
166 0.004994
171 0.007015
148 0.004992
93 0.007014
72 0.004992
75 0.005021
87 0.003024
94 0.000969
101 0.001993
109 0.0
112 0.0
113 0.001002
120 0.000998
129 0.001997
136 0.003002
146 0.00402
153 0.005987
158 0.005985
163 0.006
166 0.006979
169 0.005978
130 0.005984
83 0.006947
71 0.003985
77 0.005018
86 0.002024
91 0.004985
102 0.004988
108 0.003995
114 0.002045
119 0.000999
123 0.002002
133 0.001045
142 0.0
148 0.0
165 0.000983
170 0.0
178 0.0
185 0.00096
189 0.0
195 0.001998
201 0.002961
206 0.002949
172 0.002992
108 0.002961
63 0.003955
70 0.00499
79 0.004986
90 0.004993
99 0.004987
109 0.004989
115 0.006985
119 0.00798
122 0.006984
133 0.005984
147 0.003007
156 0.003977
169 0.002018
178 0.0
184 0.000957
189 0.0
194 0.000998
198 0.001995
204 0.004023
160 0.003999
100 0.005971
66 0.005989
74 0.006982
85 0.006982
99 0.006977
108 0.006945
120 0.006984
123 0.007001
124 0.00399
129 0.005115
139 0.003957
148 0.003991
162 0.003988
175 0.0
181 0.0
187 0.0
194 0.0
197 0.0
191 0.001002
96 0.003026
64 0.003992
60 0.003952
78 0.004028
87 0.004007
98 0.003989
107 0.003939
116 0.00399
120 0.005204
123 0.004986
133 0.006293
145 0.00694
154 0.005928
168 0.007979
177 0.006981
183 0.00598
191 0.003993
195 0.006014
203 0.003994
195 0.002985
132 0.001988
60 0.001991
58 0.002003
69 0.000962
85 0.000937
93 0.001989
102 0.001005
111 0.002042
115 0.002023
117 0.001995
128 0.002994
136 0.002957
151 0.003028
163 0.001952
172 0.002949
179 0.004027
186 0.00399
191 0.003841
156 0.003995
94 0.003988
52 0.004958
63 0.005019
74 0.006012
89 0.005967
104 0.006994
110 0.006957
113 0.006991
113 0.006019
118 0.006985
130 0.004972
139 0.004986
154 0.003947
163 0.005023
172 0.001978
178 0.004989
185 0.004016
178 0.003991
85 0.001995
47 0.0
47 0.001983
61 0.001997
75 0.00405
82 0.004954
96 0.006016
103 0.005985
106 0.007017
110 0.003999
121 0.003963
130 0.003007
145 0.002999
159 0.002989
165 0.00299
174 0.002989
179 0.002984
188 0.00299
178 0.003998
97 0.002957
52 0.003991
53 0.002986
63 0.003024
76 0.003022
85 0.0
97 0.0
104 0.0
106 0.000997
110 0.002044
120 0.004012
128 0.004022
142 0.00598
155 0.005998
164 0.004995
168 0.004981
175 0.003976
178 0.002991
111 0.002985
55 0.002976
52 0.002971
69 0.001994
82 0.00301
93 0.002994
104 0.003038
111 0.002006
112 0.002003
116 0.002029
123 0.002045
136 0.001962
150 0.0
157 0.001963
166 0.0
173 0.002996
177 0.002966
174 0.003992
86 0.003995
56 0.003991
53 0.004957
63 0.00502
77 0.005986
89 0.004989
98 0.005958
106 0.005987
112 0.007972
115 0.005947
123 0.007972
138 0.005022
147 0.004003
163 0.003
173 0.0
178 0.001997
184 0.0
190 0.000962
184 0.002995
94 0.004019
55 0.005971
58 0.005991
75 0.005956
85 0.005859
93 0.005898
107 0.006005
110 0.006996
113 0.006975
120 0.005999
127 0.005999
140 0.003995
151 0.005982
160 0.003991
167 0.004987
174 0.002958
178 0.002992
167 0.002032
95 0.001006
58 0.000999
59 0.001996
77 0.003048
84 0.002947
98 0.002999
111 0.002988
114 0.003046
117 0.003002
122 0.002915
134 0.004042
148 0.005983
157 0.005986
167 0.004989
177 0.003956
181 0.004028
188 0.003
193 0.003993
145 0.001981
75 0.00399
55 0.002
63 0.001957
80 0.002032
88 0.0
100 0.0
110 0.001982
118 0.003006
122 0.001945
131 0.003004
145 0.00502
154 0.00502
168 0.004954
176 0.004978
186 0.005047
193 0.005984
197 0.005988
204 0.005956
174 0.006974
128 0.004972
64 0.004923
61 0.004986
77 0.004973
91 0.006983
101 0.003014
113 0.003027
119 0.002
120 0.0
123 0.0
130 0.001994
144 0.002994
153 0.002992
166 0.003027
172 0.003964
180 0.006012
186 0.006015
190 0.00699
114 0.006952
56 0.006977
53 0.004981
68 0.005954
83 0.007978
93 0.005021
105 0.007107
115 0.00499
118 0.007015
122 0.004987
127 0.005013
139 0.005015
155 0.001992
164 0.003003
176 0.002003
186 0.0
191 0.001973
198 0.0
197 0.0
129 0.0
57 0.001997
55 0.00399
67 0.005015
85 0.004951
95 0.006983
104 0.005996
114 0.006987
116 0.005913
119 0.005983
129 0.007984
137 0.005981
152 0.007984
164 0.007019
171 0.006012
178 0.00402
184 0.002998
188 0.002993
175 0.0
79 0.0
55 0.0
57 0.000963
64 0.0
79 0.001008
93 0.002986
101 0.002957
105 0.003985
106 0.004987
109 0.005961
117 0.006959
132 0.006987
140 0.005943
152 0.006087
161 0.007949
165 0.005984
170 0.007978
168 0.005988
102 0.007017
46 0.006987
44 0.006011
60 0.007014
72 0.003988
80 0.006173
94 0.003993
99 0.007005
104 0.00399
111 0.002982
117 0.002021
131 0.002995
146 0.0
153 0.000985
162 0.0
170 0.000999
174 0.001002
181 0.001015
127 0.002992
77 0.003967
50 0.003964
60 0.004986
72 0.004987
80 0.00598
94 0.007849
102 0.007997
110 0.006022
112 0.007036
118 0.006031
129 0.003991
137 0.005983
151 0.003989
163 0.003009
168 0.003027
173 0.002031
181 0.0
174 0.0
90 0.0
61 0.000959
57 0.002042
73 0.001993
83 0.000967
94 0.002041
106 0.0
111 0.0
112 0.0
115 0.002047
124 0.001006
138 0.000998
146 0.001964
159 0.002017
167 0.001957
172 0.002964
179 0.004023
181 0.003991
112 0.003991
58 0.004037
55 0.004985
69 0.005989
80 0.006948
86 0.006969
100 0.006983
110 0.007979
113 0.004987
117 0.007015
125 0.003985
136 0.006998
150 0.006982
159 0.007014
170 0.006987
178 0.002975
183 0.003993
190 0.002995
193 0.003992
127 0.002979
63 0.002015
58 0.001027
72 0.000964
84 0.000998
96 0.003972
105 0.003995
116 0.003985
119 0.006964
122 0.006
131 0.00598
139 0.005983
154 0.003987
165 0.005018
175 0.00391
181 0.003986
188 0.004022
193 0.003986
182 0.001995
92 0.000993
67 0.002024
69 0.0
84 0.000965
92 0.002014
105 0.002995
119 0.002989
122 0.002961
126 0.004993
134 0.004953
141 0.004984
151 0.00696
166 0.005978
173 0.004998
184 0.006016
190 0.005015
197 0.002029
163 0.003025
79 0.002991
64 0.002007
74 0.002005
90 0.001998
103 0.00203
117 0.001994
130 0.001995
132 0.002887
136 0.004951
144 0.006003
151 0.007966
164 0.003975
178 0.00399
186 0.003035
196 0.002009
205 0.001993
206 0.002984
125 0.0
75 0.00203
70 0.0
85 0.000951
104 0.001995
113 0.002993
127 0.003035
132 0.005019
132 0.005094
133 0.005962
143 0.00695
151 0.007026
163 0.006023
174 0.006981
183 0.005995
190 0.004984
195 0.004019
153 0.003975
70 0.001995
57 0.001993
70 0.001934
86 0.002026
99 0.0
113 0.001991
123 0.000965
126 0.002026
129 0.002025
133 0.002961
146 0.0
157 0.0
169 0.0
180 0.000968
190 0.002967
196 0.002963
195 0.002988
140 0.003995
61 0.005988
53 0.006982
66 0.006952
81 0.006983
95 0.005967
104 0.005959
116 0.005979
121 0.005985
124 0.005995
133 0.005982
142 0.005994
156 0.00399
168 0.005951
178 0.002998
186 0.00502
196 0.003999
201 0.003989
132 0.003017
67 0.0
53 0.0
64 0.0
83 0.0
91 0.0
107 0.00099
113 0.0
118 0.002
122 0.002023
128 0.003015
141 0.003984
156 0.004986
164 0.004992
175 0.004989
184 0.005983
188 0.005983
170 0.005
128 0.006981
57 0.004987
53 0.00695
68 0.004023
84 0.004982
101 0.004986
110 0.003994
116 0.002991
117 0.0
120 0.002945
130 0.000998
144 0.002031
153 0.001995
166 0.003981
176 0.003989
181 0.003961
189 0.003979
138 0.003888
78 0.003998
45 0.003996
51 0.003993
70 0.004008
84 0.004971
94 0.004008
106 0.004996
111 0.005984
112 0.006985
119 0.007017
127 0.006977
141 0.007965
153 0.004976
164 0.00796
174 0.004986
183 0.005943
188 0.004986
187 0.004009
135 0.003006
59 0.001979
53 0.001981
68 0.001997
81 0.001009
90 0.0
100 0.0
109 0.001958
112 0.003953
116 0.004017
124 0.004995
136 0.005028
147 0.00402
159 0.003962
168 0.004988
172 0.004988
179 0.004987
156 0.005953
83 0.00698
52 0.005984
54 0.007014
71 0.004994
85 0.005002
95 0.004938
107 0.005001
109 0.004012
111 0.003958
119 0.002991
126 0.003987
140 0.00299
150 0.006026
159 0.002966
166 0.005022
172 0.002959
177 0.003996
118 0.002953
71 0.00203
47 0.0
56 0.001058
71 0.002991
77 0.004022
92 0.004028
101 0.006984
105 0.005992
110 0.006951
115 0.006987
126 0.004978
139 0.004988
152 0.003967
159 0.003027
167 0.002029
172 0.002992
178 0.0
176 0.002968
113 0.000966
61 0.002998
53 0.002993
62 0.002999
75 0.001998
84 0.001995
96 0.002984
104 0.005023
109 0.006983
111 0.007938
119 0.006018
133 0.002019
146 0.001995
154 0.002031
164 0.001982
167 0.0
172 0.0
178 0.0
183 0.001994
152 0.001997
76 0.00399
62 0.005961
69 0.005988
81 0.004979
91 0.007946
100 0.003992
107 0.00503
110 0.005008
112 0.005027
119 0.003025
127 0.003025
140 0.002959
152 0.0
159 0.000996
164 0.000962
170 0.00296
174 0.002955
175 0.004993
100 0.00695
62 0.004992
58 0.004958
71 0.003002
80 0.006001
88 0.001944
100 0.006053
107 0.001985
111 0.003992
116 0.003061
122 0.003026
134 0.000997
146 0.002041
158 0.002989
164 0.003008
171 0.001961
175 0.002999
182 0.001964
183 0.003996
141 0.004991
72 0.004954
62 0.004987
70 0.00595
81 0.005996
90 0.005975
99 0.006
111 0.006021
115 0.005985
120 0.005988
127 0.005993
136 0.003959
148 0.006015
161 0.006014
167 0.005942
177 0.006018
180 0.004032
185 0.003989
192 0.0
193 0.001978
124 0.0
77 0.0
76 0.0
86 0.0
99 0.000979
105 0.001036
119 0.003992
125 0.004985
126 0.005977
130 0.004992
141 0.003984
149 0.00401
163 0.003165
171 0.004027
178 0.002023
184 0.002993
190 0.002027
195 0.001995
198 0.0
146 0.0
98 0.000961
87 0.001032
98 0.003989
105 0.003823
114 0.004034
127 0.004038
134 0.005985
139 0.005937
144 0.003994
149 0.004019
160 0.002992
173 0.002993
180 0.002994
191 0.002032
197 0.001998
205 0.002964
210 0.004014
216 0.001985
220 0.003022
223 0.003048
188 0.002991
116 0.003035
102 0.002024
107 0.001996
116 0.0
121 0.000965
129 0.002002
138 0.002005
140 0.001997
142 0.003034
149 0.003985
154 0.003832
165 0.004962
176 0.005987
180 0.004966
185 0.003997
189 0.005988
193 0.00299
196 0.002989
144 0.002025
108 0.001984
92 0.0
100 0.000965
111 0.0
119 0.001965
131 0.00204
134 0.00204
135 0.002958
138 0.00498
142 0.005985
152 0.005959
161 0.006979
167 0.006979
176 0.004987
183 0.002989
187 0.00399
192 0.002999
181 0.001996
106 0.003001
81 0.004054
82 0.0
92 0.003027
100 0.002015
106 0.001994
116 0.002033
119 0.001
120 0.000999
123 0.001001
132 0.003029
139 0.003991
151 0.005037
163 0.004987
169 0.005984
175 0.005987
181 0.004993
184 0.005939
159 0.004001
108 0.004001
72 0.002977
75 0.002996
84 0.001993
91 0.0
99 0.003007
107 0.0
109 0.003002
110 0.003036
114 0.002059
123 0.001999
131 0.002026
139 0.003988
145 0.004947
151 0.005001
155 0.004991
163 0.005995
157 0.005035
87 0.005967
59 0.005985
58 0.006988
69 0.004989
80 0.003993
87 0.004024
99 0.003985
102 0.002995
102 0.001996
109 0.0
117 0.00303
124 0.000999
136 0.000995
146 0.001996
151 0.004021
158 0.00399
164 0.003998
157 0.005019
95 0.007938
56 0.007025
49 0.006943
59 0.007944
70 0.004165
75 0.006981
88 0.003988
94 0.006981
98 0.002992
103 0.00196
108 0.002984
121 0.002942
134 0.002992
141 0.002992
151 0.001977
158 0.00399
164 0.0
169 0.0
111 0.001993
73 0.001994
55 0.002026
62 0.002063
76 0.001994
84 0.004044
95 0.004044
102 0.006016
105 0.005983
107 0.003988
112 0.003993
123 0.002982
135 0.002994
142 0.001991
150 0.001952
156 0.002992
162 0.0
148 0.002033
75 0.001995
55 0.001996
58 0.001992
68 0.002974
79 0.00303
89 0.004946
99 0.005957
104 0.006011
108 0.005995
111 0.006008
123 0.006976
135 0.005981
145 0.007838
154 0.005021
163 0.002002
167 0.001994
174 0.000994
134 0.003007
85 0.000998
55 0.0
59 0.002029
68 0.003014
77 0.003031
89 0.004987
97 0.004983
104 0.006954
109 0.006981
113 0.005984
125 0.006992
136 0.005984
145 0.005989
159 0.005988
165 0.005983
173 0.006018
180 0.00399
184 0.005982
130 0.003041
70 0.002999
64 0.003006
78 0.00299
86 0.002989
95 0.0
108 0.000992
115 0.0
118 0.002028
123 0.002991
133 0.00399
141 0.003958
153 0.005989
161 0.007975
166 0.004988
171 0.006962
176 0.004977
180 0.007122
124 0.006979
83 0.006971
68 0.007016
84 0.003994
94 0.005985
106 0.003057
115 0.005987
123 0.002958
124 0.002993
127 0.002005
138 0.000965
151 0.0
160 0.001006
170 0.000997
180 0.000997
184 0.000997
194 0.001956
198 0.003991
158 0.004983
94 0.005958
75 0.007975
83 0.005978
97 0.006243
107 0.005944
115 0.005983
127 0.004958
132 0.002976
135 0.002992
142 0.0
154 0.0
163 0.0
173 0.0
184 0.0
190 0.0
197 0.00199
201 0.002039
208 0.00299
166 0.004027
110 0.005011
78 0.005982
86 0.006982
97 0.004991
107 0.007015
120 0.005029
131 0.001996
134 0.002993
136 0.001007
141 0.002
148 0.002999
160 0.002992
174 0.002865
182 0.002959
190 0.003958
195 0.004565
199 0.00598
198 0.005946
150 0.005042
92 0.006205
80 0.005989
90 0.00598
109 0.005954
123 0.007979
132 0.006039
137 0.007982
137 0.004984
138 0.003961
145 0.002963
157 0.0
164 0.002988
174 0.0
178 0.003027
183 0.000997
190 0.00192
195 0.001008
153 0.002991
71 0.004983
56 0.006016
62 0.005977
81 0.004986
90 0.005978
105 0.00399
115 0.001992
118 0.005042
120 0.003012
125 0.002991
135 0.000966
147 0.002027
162 0.001995
169 0.00199
179 0.003023
186 0.000998
192 0.002033
187 0.002962
90 0.003992
58 0.004035
56 0.002948
76 0.004986
86 0.005016
101 0.004961
110 0.006017
116 0.005958
117 0.005982
119 0.005962
128 0.003953
142 0.002994
151 0.003023
165 0.002005
172 0.005003
178 0.003026
184 0.004023
143 0.002993
84 0.002035
51 0.001968
60 0.0
76 0.0
90 0.002
106 0.002036
112 0.001995
112 0.001969
113 0.005994
117 0.006978
126 0.005984
142 0.004968
150 0.003998
163 0.00414
171 0.004987
178 0.001994
184 0.005992
134 0.002965
64 0.003971
44 0.004001
52 0.003988
69 0.003036
77 0.002992
90 0.002993
99 0.002981
101 0.003062
104 0.000976
113 0.00099
118 0.0
132 0.002051
146 0.002962
153 0.003959
162 0.003988
169 0.004988
171 0.003985
101 0.004952
44 0.005984
41 0.005985
54 0.00697
64 0.004979
76 0.004955
88 0.007015
97 0.003983
100 0.005984
103 0.005033
107 0.004989
119 0.004983
133 0.002976
142 0.006037
153 0.002992
158 0.003973
164 0.00299
171 0.001991
162 0.0
79 0.0
50 0.0
56 0.0
70 0.0
83 0.000987
91 0.001995
101 0.002988
103 0.005005
104 0.004985
112 0.005987
122 0.00699
130 0.004995
143 0.007937
150 0.004988
158 0.007979
164 0.006981
169 0.007977
147 0.007931
69 0.004961
52 0.005992
59 0.003003
75 0.002987
82 0.002022
95 0.001028
102 0.0
108 0.000962
112 0.0
115 0.0
127 0.0
142 0.001884
150 0.002992
161 0.005954
169 0.005993
175 0.007983
178 0.005975
183 0.006005
185 0.004021
144 0.00399
68 0.004034
56 0.003997
66 0.002997
80 0.0
85 0.003039
96 0.001022
107 0.001996
111 0.002026
116 0.003021
125 0.001996
133 0.001967
147 0.004038
159 0.002975
165 0.002994
173 0.003025
177 0.003025
181 0.003859
186 0.00303
192 0.003992
163 0.00598
78 0.005942
62 0.005982
72 0.006014
84 0.005009
90 0.00798
102 0.003979
109 0.006971
112 0.003977
114 0.002009
118 0.003978
132 0.002992
147 0.001988
154 0.002015
164 0.000966
170 0.002026
175 0.0
179 0.002992
184 0.000982
142 0.002992
71 0.002032
61 0.003035
72 0.002962
85 0.001995
93 0.003026
106 0.004948
116 0.005027
119 0.005019
122 0.006023
127 0.004876
140 0.005956
151 0.005983
161 0.006982
171 0.005986
180 0.00502
184 0.003984
190 0.003024
197 0.00297
196 0.002032
112 0.002963
74 0.00301
65 0.002989
78 0.004998
89 0.002989
97 0.004986
108 0.003033
116 0.004984
120 0.005016
121 0.002993
129 0.003041
140 0.0
151 0.00097
162 0.002008
173 0.002949
178 0.003009
183 0.004027
189 0.003999
193 0.004019
135 0.004977
68 0.004936
62 0.005979
74 0.006984
91 0.00598
98 0.004945
113 0.003988
119 0.00402
122 0.001979
123 0.004983
131 0.004032
139 0.002991
153 0.001986
166 0.001005
173 0.001001
179 0.00202
184 0.005001
189 0.005025
166 0.006019
77 0.006019
56 0.006975
59 0.005983
72 0.006985
86 0.006014
96 0.004983
105 0.005
114 0.005973
117 0.004994
121 0.004979
134 0.003995
144 0.003989
164 0.004022
176 0.006986
187 0.00401
193 0.007013
196 0.007017
198 0.00601
184 0.003991
122 0.006099
52 0.002991
52 0.003
64 0.001953
81 0.000998
91 0.0
99 0.0
108 0.000997
110 0.003026
111 0.003959
119 0.006016
130 0.005977
143 0.006982
153 0.003981
161 0.006144
168 0.003022
172 0.005025
171 0.004041
126 0.004046
55 0.003992
52 0.003022
63 0.00402
81 0.003006
96 0.0
105 0.0
111 0.000992
112 0.0
116 0.001011
127 0.002032
136 0.002027
151 0.002013
164 0.002032
171 0.002006
179 0.003941
186 0.003864
189 0.003963
117 0.004947
68 0.005984
48 0.005981
60 0.006014
73 0.005986
82 0.006018
96 0.00599
103 0.005984
108 0.006018
110 0.004947
119 0.007977
130 0.003012
147 0.0
155 0.0
166 0.0
177 0.002021
181 0.003037
187 0.003952
193 0.00399
193 0.003989
109 0.003991
56 0.005984
54 0.005985
69 0.002992
83 0.005987
91 0.002979
103 0.004987
111 0.004997
111 0.005019
114 0.005026
119 0.005023
132 0.002991
145 0.001002
153 0.003024
163 0.000966
168 0.000963
172 0.000966
167 0.0
117 0.0
61 0.0
51 0.0
61 0.002035
78 0.003986
91 0.003985
101 0.003851
109 0.005984
112 0.006978
114 0.006007
123 0.005954
137 0.006969
146 0.005941
157 0.008002
168 0.004006
172 0.005984
179 0.003975
186 0.002996
166 0.0
75 0.0
53 0.000998
56 0.000941
73 0.000965
77 0.0
89 0.001961
103 0.002009
110 0.003002
114 0.003026
122 0.00399
129 0.003989
144 0.003955
156 0.003047
166 0.004988
174 0.006941
181 0.00695
184 0.007016
191 0.006981
177 0.006951
86 0.006946
60 0.005985
66 0.006979
80 0.005977
93 0.003983
101 0.00402
114 0.004023
117 0.003989
118 0.003018
126 0.002991
133 0.0
149 0.001003
160 0.002037
168 0.0
175 0.0
181 0.000965
184 0.001964
144 0.001991
78 0.003025
59 0.003989
66 0.004026
83 0.004987
89 0.005987
104 0.006974
113 0.004974
115 0.00798
114 0.004966
119 0.007966
130 0.004985
145 0.004976
153 0.004014
163 0.003968
172 0.00301
176 0.002946
159 0.0
88 0.0
60 0.002026
58 0.003032
72 0.004986
78 0.004986
91 0.004957
101 0.007029
107 0.005985
109 0.007977
114 0.007015
121 0.00699
139 0.007977
155 0.00298
162 0.005015
171 0.001959
178 0.002993
181 0.002993
128 0.002996
78 0.000936
51 0.0
58 0.002001
71 0.001992
76 0.002013
90 0.003973
101 0.003991
105 0.003937
108 0.004952
114 0.007976
118 0.007011
132 0.005984
145 0.002018
152 0.005988
163 0.0
170 0.0
174 0.0
181 0.0
165 0.0
94 0.001
55 0.001997
57 0.002039
73 0.002991
85 0.00296
92 0.003977
106 0.003958
114 0.00396
116 0.003996
123 0.005979
134 0.005984
146 0.005988
156 0.006983
165 0.00598
175 0.006986
182 0.00699
186 0.007001
193 0.007992
200 0.004027
192 0.005984
116 0.002957
87 0.002991
91 0.002994
106 0.002991
113 0.001996
125 0.0
136 0.0
141 0.001028
143 0.001875
150 0.000957
157 0.001997
170 0.001983
182 0.001994
189 0.001996
197 0.002957
203 0.003991
208 0.004977
214 0.006012
197 0.006976
158 0.005985
126 0.005982
131 0.003012
140 0.005106
151 0.0
161 0.001022
166 0.0
170 0.000986
172 0.001029
175 0.000998
183 0.003032
193 0.002992
200 0.002967
209 0.003029
214 0.003939
219 0.005046
224 0.005947
223 0.005983
183 0.006978
154 0.007979
151 0.005566
160 0.005027
171 0.004986
175 0.004994
182 0.004986
182 0.002992
180 0.004034
182 0.000998
189 0.0
194 0.0
202 0.001009
208 0.001996
211 0.00099
216 0.002026
220 0.002997
205 0.00399
155 0.004028
145 0.002994
149 0.003952
158 0.005988
163 0.005988
168 0.006021
172 0.005971
172 0.006004
171 0.005988
172 0.005953
176 0.007979
183 0.003023
190 0.0
193 0.0
198 0.001007
201 0.001002
203 0.0
183 0.001008
149 0.0
126 0.0
130 0.002036
136 0.000998
141 0.003991
146 0.005976
148 0.007978
147 0.004985
147 0.007979
149 0.004005
153 0.005988
159 0.006021
163 0.006015
169 0.004991
173 0.002991
176 0.003983
180 0.0
179 0.0
151 0.001964
111 0.00204
107 0.003952
111 0.004981
118 0.004858
122 0.005999
124 0.006983
124 0.003974
122 0.002988
123 0.002996
127 0.002944
133 0.003989
138 0.0
143 0.003005
148 0.00203
150 0.000998
154 0.00203
152 0.004017
104 0.003958
86 0.004995
81 0.005979
85 0.00584
91 0.005995
95 0.003994
99 0.007978
99 0.004989
98 0.004028
100 0.005937
107 0.003987
112 0.003963
120 0.003
128 0.003002
133 0.003024
137 0.0
142 0.002024
144 0.0
120 0.001004
72 0.00296
61 0.003025
64 0.00399
70 0.005991
74 0.007964
78 0.007978
83 0.007971
84 0.003988
86 0.006958
92 0.002948
97 0.006016
108 0.003001
119 0.001011
126 0.0
131 0.0
138 0.0
142 0.0
148 0.0
103 0.0
75 0.0
63 0.0
70 0.001021
77 0.002989
81 0.003961
90 0.004954
93 0.005023
95 0.007975
98 0.003005
102 0.006011
112 0.001997
123 0.001996
130 0.0
138 0.002969
144 0.001983
148 0.0
154 0.0
142 0.0
90 0.002024
47 0.001997
53 0.004008
62 0.004005
75 0.004032
83 0.003908
95 0.003995
96 0.003981
97 0.003987
104 0.003957
115 0.00299
127 0.003989
142 0.004985
150 0.00498
161 0.00598
168 0.005982
172 0.006982
180 0.004988
175 0.002038
122 0.002986
53 0.002986
46 0.001003
55 0.001004
68 0.000998
76 0.002049
84 0.002018
93 0.003989
96 0.004986
102 0.006953
109 0.005985
121 0.007977
134 0.004984
149 0.007984
158 0.007974
164 0.007978
173 0.006018
180 0.003989
184 0.005019
190 0.0
129 0.0
75 0.000998
43 0.002985
56 0.00301
66 0.003965
78 0.005788
90 0.003999
99 0.002993
101 0.002977
106 0.002996
115 0.002987
128 0.001
141 0.002989
156 0.002981
163 0.002987
172 0.0
176 0.0
182 0.0
188 0.0
191 0.001011
134 0.002025
56 0.001995
46 0.004039
61 0.003823
