139 0.024971
142 0.006983
147 0.005977
127 0.007978
82 0.007982
51 0.007979
49 0.006973
57 0.007034
78 0.006981
89 0.007018
96 0.006982
97 0.00798
91 0.007979
91 0.007015
93 0.007014
101 0.00798
112 0.007981
123 0.007971
131 0.007978
134 0.007979
140 0.007979
78 0.007978
49 0.006972
30 0.007978
40 0.007978
52 0.006976
62 0.006979
75 0.00698
85 0.007025
89 0.007018
90 0.007003
91 0.007944
105 0.007979
114 0.007977
125 0.007979
130 0.007978
135 0.007979
147 0.007011
149 0.00698
133 0.007019
83 0.007015
41 0.007015
33 0.007017
42 0.007002
57 0.007026
65 0.007025
76 0.007012
84 0.007013
87 0.007017
88 0.006016
92 0.006014
100 0.007023
110 0.007011
121 0.007012
132 0.007016
139 0.007008
152 0.007012
157 0.00701
159 0.007026
158 0.005983
147 0.007018
88 0.007019
50 0.006018
38 0.006016
47 0.006027
57 0.005984
64 0.005983
72 0.006024
80 0.005983
86 0.005984
86 0.005983
89 0.005984
96 0.00695
105 0.005983
117 0.006002
126 0.005984
134 0.005978
138 0.006021
143 0.006068
147 0.005024
148 0.006034
157 0.006019
161 0.005964
144 0.005983
97 0.005983
63 0.006016
61 0.005989
73 0.005021
84 0.005021
90 0.006014
96 0.006017
105 0.006005
105 0.006017
103 0.006016
109 0.004986
118 0.004988
128 0.004988
135 0.004966
140 0.00498
145 0.00503
146 0.00503
147 0.005037
152 0.005041
160 0.005006
165 0.00502
150 0.006014
106 0.004986
71 0.004987
62 0.004999
72 0.005025
91 0.005029
103 0.005032
112 0.005029
117 0.005026
116 0.005019
110 0.003991
113 0.005032
123 0.00403
132 0.004022
140 0.004016
145 0.003989
151 0.003992
159 0.003992
164 0.005022
169 0.004987
176 0.004003
177 0.00399
118 0.00499
83 0.004986
67 0.004019
77 0.003987
91 0.004027
97 0.004021
102 0.003968
108 0.003989
108 0.00402
105 0.004024
107 0.004018
111 0.004057
123 0.004017
130 0.003991
135 0.003987
143 0.003991
147 0.002993
152 0.002993
158 0.002993
164 0.003998
163 0.003991
127 0.003952
76 0.003952
47 0.003935
54 0.00404
66 0.003954
76 0.003948
85 0.002992
93 0.00399
98 0.002991
99 0.002991
99 0.002987
105 0.00299
114 0.002999
121 0.003946
129 0.00199
141 0.00398
148 0.002947
154 0.002954
159 0.002994
165 0.003021
171 0.002992
163 0.002992
121 0.002985
65 0.003023
54 0.003023
63 0.001994
78 0.002029
98 0.002938
110 0.003022
117 0.002992
115 0.003013
114 0.002994
115 0.002994
122 0.002993
130 0.003045
143 0.001996
149 0.002028
155 0.001996
159 0.001996
166 0.001994
169 0.001996
172 0.002122
166 0.001995
106 0.001996
62 0.00203
48 0.002994
55 0.002988
69 0.000997
83 0.001995
95 0.001994
101 0.001993
101 0.002004
98 0.001994
99 0.001978
106 0.000997
116 0.001993
123 0.000993
130 0.001977
135 0.001963
138 0.001982
145 0.00202
150 0.002027
157 0.002035
139 0.001997
85 0.001962
37 0.001962
20 0.001994
31 0.001989
43 0.001993
51 0.001957
62 0.001964
71 0.000996
78 0.000997
77 0.000996
79 0.000997
88 0.001004
99 0.000969
108 0.000998
117 0.000998
122 0.001031
126 0.000993
130 0.000992
134 0.0
137 0.001031
142 0.00103
108 0.001053
36 0.000965
25 0.000998
34 0.000998
50 0.000997
60 0.000998
69 0.000998
74 0.001028
76 0.0
79 0.0
79 0.0
82 0.0
89 0.0
100 0.000998
106 0.0
111 0.0
120 0.001048
130 0.000998
132 0.000994
137 0.0
121 0.0
72 0.0
32 0.0
21 0.0
34 0.0
44 0.0
54 0.0
65 0.0
75 0.0
82 0.0
85 0.0
87 0.0
93 0.0
108 0.0
119 0.0
125 0.0
135 0.0
146 0.0
156 0.0
161 0.0
167 0.0
169 0.0
138 0.0
75 0.000975
56 0.0
62 0.000999
71 0.001053
76 0.0
81 0.0
94 0.0
106 0.0
108 0.000997
109 0.0
113 0.0
120 0.0
129 0.001067
137 0.001007
146 0.0
151 0.000998
156 0.001002
159 0.001006
166 0.000993
169 0.000998
173 0.001996
164 0.000988
118 0.000998
74 0.000992
59 0.000998
67 0.001963
82 0.0
86 0.000998
91 0.000967
103 0.000962
110 0.0
107 0.000966
107 0.001796
112 0.001962
123 0.0
133 0.000996
138 0.001972
146 0.000998
151 0.000996
156 0.001966
160 0.001963
169 0.000998
173 0.000952
158 0.000997
112 0.001964
74 0.001966
68 0.001
80 0.000999
92 0.000997
100 0.002772
108 0.002961
119 0.001994
121 0.002028
117 0.001996
118 0.001984
127 0.002029
139 0.002026
147 0.001952
153 0.001997
156 0.002031
161 0.002043
165 0.002003
170 0.001993
176 0.001986
159 0.001995
85 0.00103
66 0.001035
69 0.002045
80 0.00304
89 0.002994
97 0.001969
106 0.002023
113 0.00204
115 0.002993
115 0.002992
115 0.002032
123 0.001997
138 0.002028
145 0.00203
148 0.002032
154 0.002993
159 0.003045
165 0.002037
168 0.003
174 0.001995
175 0.002992
145 0.002992
81 0.003028
61 0.002029
71 0.002028
81 0.002032
87 0.002046
91 0.00399
101 0.004025
108 0.003033
109 0.003024
108 0.003064
111 0.003013
118 0.004066
126 0.004006
138 0.002992
145 0.004024
149 0.003039
153 0.002995
156 0.00399
160 0.00402
163 0.003991
168 0.00399
166 0.002967
126 0.003055
76 0.004034
52 0.004027
58 0.003023
69 0.00399
76 0.003031
82 0.003027
90 0.004019
94 0.00495
92 0.005059
92 0.004022
94 0.004032
102 0.004003
113 0.003974
121 0.004024
128 0.004029
138 0.004022
143 0.004038
149 0.002992
151 0.00502
156 0.005022
160 0.005017
168 0.004041
165 0.004026
131 0.003968
85 0.004987
63 0.004987
69 0.005022
89 0.005029
102 0.004036
110 0.004022
116 0.005018
118 0.005986
114 0.004987
112 0.004987
116 0.005021
124 0.005021
136 0.005021
145 0.004988
151 0.005021
160 0.005027
166 0.00402
171 0.004023
176 0.00502
181 0.006052
179 0.005985
129 0.005021
91 0.005019
81 0.004988
90 0.00498
104 0.005986
117 0.005033
130 0.004982
136 0.004987
137 0.005026
133 0.005019
132 0.005985
140 0.005985
149 0.005997
160 0.004995
167 0.005056
171 0.005055
176 0.005983
186 0.005021
190 0.005984
194 0.006034
198 0.005006
166 0.006046
114 0.005986
84 0.006996
81 0.007021
96 0.006056
103 0.006052
111 0.005977
117 0.005985
122 0.006029
122 0.005984
123 0.006025
127 0.005021
134 0.005986
144 0.005984
153 0.006982
159 0.006982
164 0.006024
167 0.006036
170 0.006013
175 0.006991
180 0.006018
185 0.006016
176 0.007022
132 0.006018
88 0.007026
68 0.006984
75 0.006982
86 0.006986
93 0.006017
99 0.006018
107 0.005984
111 0.006982
110 0.005967
110 0.006981
114 0.007013
126 0.006982
134 0.00698
140 0.006951
144 0.00798
148 0.007979
152 0.006978
154 0.006969
157 0.00703
159 0.006994
166 0.007981
165 0.007015
112 0.00698
68 0.007944
55 0.006982
66 0.00698
79 0.006981
89 0.007976
96 0.007979
107 0.007026
110 0.007025
105 0.007013
102 0.00698
108 0.007016
119 0.007976
124 0.007947
130 0.007981
135 0.007001
139 0.007035
144 0.007979
147 0.007979
153 0.006982
159 0.007026
161 0.006981
102 0.007014
64 0.006982
55 0.007943
71 0.007014
87 0.004987
101 0.007012
108 0.007014
113 0.00701
113 0.00702
110 0.007979
107 0.007049
113 0.007016
122 0.007925
133 0.007941
147 0.007014
154 0.007015
159 0.007025
162 0.007015
165 0.007024
168 0.007017
173 0.00702
161 0.007013
113 0.007019
51 0.007016
49 0.007013
62 0.007014
72 0.006022
80 0.006014
89 0.007018
98 0.007014
105 0.006994
103 0.007018
97 0.007013
103 0.006017
112 0.006019
123 0.006985
129 0.007016
132 0.00598
137 0.006017
140 0.005991
144 0.006016
150 0.006018
156 0.00603
159 0.006027
134 0.006022
84 0.006022
47 0.004991
56 0.006999
73 0.007032
79 0.005022
84 0.005047
92 0.006017
95 0.006039
91 0.006024
89 0.005975
94 0.006008
102 0.006017
113 0.00602
126 0.005984
139 0.005984
143 0.005984
146 0.006015
149 0.006016
154 0.005984
157 0.005024
146 0.005019
100 0.005005
62 0.005021
53 0.004986
65 0.005021
86 0.006017
99 0.006027
112 0.006019
119 0.005984
119 0.005984
118 0.005019
123 0.005018
136 0.004972
141 0.005017
150 0.00502
156 0.00502
159 0.005026
163 0.004988
169 0.005114
174 0.005021
179 0.005018
181 0.003989
166 0.004025
118 0.004026
74 0.005017
74 0.005024
87 0.005027
101 0.004987
109 0.004987
118 0.003991
125 0.005024
129 0.005024
129 0.005021
130 0.005018
137 0.004989
146 0.004025
155 0.004036
163 0.004032
169 0.00398
173 0.003979
176 0.003987
179 0.003992
184 0.003991
189 0.003991
191 0.003984
160 0.003958
112 0.004026
83 0.004021
82 0.004023
99 0.004022
108 0.004024
113 0.004028
121 0.003991
130 0.004027
135 0.004016
134 0.003989
137 0.003992
145 0.002994
153 0.002992
162 0.003019
167 0.003004
175 0.00399
178 0.004027
182 0.003035
186 0.00403
190 0.004035
198 0.00399
199 0.003995
158 0.004018
117 0.00399
97 0.003014
102 0.003992
117 0.002027
133 0.003027
139 0.003023
147 0.003025
150 0.003027
144 0.003026
144 0.003026
146 0.003025
157 0.003017
164 0.002992
170 0.003027
174 0.002993
178 0.003
182 0.002062
185 0.001987
188 0.001997
190 0.001949
194 0.002992
166 0.003029
116 0.002992
81 0.002992
83 0.002991
95 0.002992
107 0.003026
114 0.001995
123 0.002017
129 0.002029
129 0.002024
126 0.001994
128 0.002027
134 0.001996
142 0.001995
150 0.002026
156 0.002019
161 0.001995
164 0.002031
167 0.002029
169 0.001994
174 0.001983
176 0.001996
179 0.002025
138 0.001994
92 0.001995
70 0.001995
73 0.001995
90 0.001995
102 0.001995
110 0.002027
118 0.002034
121 0.000997
117 0.002032
111 0.000995
112 0.000997
123 0.000998
132 0.001002
139 0.000997
145 0.000998
151 0.001995
155 0.001996
158 0.002063
161 0.000996
165 0.001038
171 0.000984
161 0.001001
122 0.00099
70 0.000998
72 0.000997
84 0.000998
98 0.000998
115 0.002001
124 0.000998
127 0.001034
123 0.001999
117 0.000988
116 0.00104
121 0.000998
130 0.001036
142 0.000997
148 0.000968
153 0.000997
157 0.000997
162 0.001033
165 0.001009
169 0.0
157 0.0
115 0.0
67 0.0
61 0.001048
70 0.0
92 0.001015
102 0.0
112 0.000997
116 0.000998
116 0.0
107 0.000997
106 0.0
111 0.0
118 0.0
125 0.0
136 0.0
142 0.0
152 0.0
156 0.0
160 0.0
155 0.0
118 0.0
67 0.0
54 0.000968
64 0.0
72 0.0
85 0.0
101 0.0
115 0.0
116 0.0
112 0.0
111 0.0
115 0.0
123 0.0
134 0.0
142 0.001033
151 0.0
157 0.000994
162 0.0
165 0.001009
138 0.0
93 0.000998
61 0.001045
55 0.0
66 0.0
77 0.0
87 0.000997
97 0.001997
103 0.0
99 0.0
92 0.0
91 0.000999
102 0.0
111 0.000999
119 0.001043
127 0.0
132 0.0
137 0.0
140 0.001007
143 0.001981
140 0.001036
100 0.00101
54 0.001006
30 0.001995
38 0.0
52 0.001061
59 0.000955
66 0.001069
74 0.0
73 0.0
70 0.001034
70 0.002024
75 0.000999
86 0.000979
96 0.000997
103 0.001006
113 0.000996
117 0.001034
122 0.002029
125 0.002025
131 0.000997
135 0.001003
140 0.000998
131 0.002993
87 0.003025
34 0.002054
26 0.001996
36 0.002055
57 0.001906
65 0.002043
72 0.003028
79 0.002992
83 0.00199
81 0.001007
84 0.001026
91 0.002033
101 0.00199
111 0.002947
123 0.001997
130 0.001982
140 0.000997
145 0.001995
150 0.00305
156 0.002993
162 0.002004
167 0.002033
173 0.002029
178 0.002995
183 0.002992
149 0.002994
103 0.00203
76 0.003023
83 0.002028
98 0.003014
107 0.002991
114 0.002992
122 0.002012
124 0.001999
122 0.002015
122 0.002992
125 0.00399
135 0.001999
143 0.003027
151 0.003024
161 0.003034
165 0.003011
170 0.004021
175 0.004022
178 0.004023
184 0.003024
188 0.003027
192 0.003031
196 0.004022
201 0.003983
206 0.003986
203 0.003031
139 0.002988
113 0.002998
112 0.002992
122 0.003989
134 0.004033
144 0.003034
147 0.003022
150 0.004026
150 0.005025
147 0.005024
145 0.003031
151 0.005046
161 0.003026
167 0.002992
172 0.002979
176 0.004023
179 0.00399
183 0.002961
186 0.002993
189 0.003961
192 0.005017
195 0.004982
199 0.004037
204 0.004128
209 0.003991
198 0.004027
161 0.004022
132 0.004992
127 0.004993
139 0.004025
151 0.00403
156 0.00501
163 0.004955
166 0.004987
163 0.003984
155 0.00502
155 0.004019
159 0.003989
165 0.003985
171 0.005033
176 0.00502
179 0.003996
183 0.003988
185 0.005012
187 0.005984
188 0.005886
193 0.004986
194 0.004988
198 0.003946
201 0.004035
202 0.00504
177 0.004983
145 0.005018
132 0.004991
140 0.004989
151 0.005015
160 0.005025
166 0.005986
169 0.005987
164 0.005991
157 0.006018
153 0.005033
157 0.005031
163 0.004987
191 0.006983
199 0.006021
207 0.005022
212 0.005985
216 0.004987
222 0.006985
226 0.006983
234 0.006017
237 0.006016
241 0.005984
206 0.00497
156 0.005001
131 0.006021
134 0.006016
156 0.004977
169 0.005983
177 0.005985
183 0.007041
182 0.007021
170 0.007013
164 0.007017
172 0.00602
181 0.006019
189 0.005982
194 0.006995
198 0.007011
200 0.006014
202 0.005971
206 0.005953
207 0.006982
207 0.006981
211 0.007017
213 0.007012
178 0.005978
125 0.005969
95 0.006017
94 0.007018
108 0.006989
124 0.00698
128 0.007024
130 0.006984
131 0.007979
124 0.00798
110 0.006982
108 0.006982
115 0.006007
122 0.005986
126 0.005977
131 0.007025
133 0.006837
136 0.005983
135 0.007033
139 0.007017
142 0.007971
148 0.00702
156 0.007017
152 0.007945
107 0.007944
49 0.005982
38 0.005985
48 0.007004
58 0.006986
59 0.007979
59 0.006981
58 0.006982
55 0.006996
41 0.006981
39 0.006977
43 0.007977
50 0.007976
60 0.007014
64 0.00698
67 0.006981
75 0.007014
78 0.007011
84 0.00701
88 0.007011
91 0.007939
97 0.006939
103 0.00698
108 0.007943
91 0.007936
21 0.006984
58 0.006986
58 0.00701
66 0.007025
70 0.007012
72 0.00701
73 0.006964
72 0.006987
67 0.006984
66 0.007016
69 0.007011
76 0.007015
84 0.006991
87 0.006972
90 0.007012
93 0.007012
94 0.006974
97 0.00698
99 0.00701
100 0.006979
105 0.007013
108 0.007001
113 0.006982
113 0.007013
83 0.007011
59 0.006013
51 0.005979
57 0.005981
66 0.006019
73 0.006007
76 0.006987
78 0.006989
76 0.006981
75 0.006978
74 0.007013
77 0.007017
83 0.005982
91 0.005979
94 0.006014
97 0.006014
100 0.006014
103 0.006013
106 0.006001
109 0.006025
113 0.006037
117 0.006029
120 0.00602
125 0.006025
129 0.006037
119 0.006033
90 0.006017
65 0.006016
58 0.006021
64 0.006032
72 0.00601
73 0.006025
76 0.006018
78 0.006018
79 0.004986
78 0.005023
79 0.005021
85 0.005024
92 0.005021
100 0.005018
89 0.005021
92 0.006024
101 0.006018
104 0.005939
112 0.005984
116 0.006022
121 0.005019
126 0.005029
130 0.005007
137 0.004967
144 0.00502
142 0.00503
104 0.004974
55 0.00502
32 0.005012
40 0.003954
59 0.005017
63 0.005027
67 0.005018
73 0.004995
77 0.005019
72 0.00502
69 0.004985
75 0.004975
83 0.005023
95 0.005047
108 0.004985
117 0.004024
125 0.004978
130 0.004021
135 0.004023
138 0.004025
142 0.003991
148 0.005022
153 0.003992
158 0.003948
164 0.004023
166 0.005002
130 0.00399
58 0.004041
49 0.003997
69 0.00404
83 0.004031
90 0.004023
96 0.00399
103 0.004024
102 0.004027
99 0.00399
99 0.004003
104 0.004002
113 0.003032
131 0.003989
137 0.004027
146 0.003017
148 0.00399
152 0.003031
156 0.002963
162 0.003025
165 0.003124
170 0.003943
177 0.002992
182 0.003989
185 0.004035
186 0.003979
146 0.00402
76 0.004019
56 0.004073
61 0.003947
76 0.003991
86 0.003989
91 0.002963
97 0.003021
101 0.002995
100 0.003009
98 0.003017
103 0.003027
111 0.002992
125 0.003032
134 0.002938
143 0.00299
148 0.00399
154 0.002992
159 0.003
163 0.001995
168 0.002992
173 0.003045
177 0.003024
186 0.003026
193 0.003028
195 0.00304
163 0.002992
108 0.003028
72 0.003028
68 0.003026
84 0.002992
96 0.003025
101 0.003024
106 0.002031
113 0.002027
113 0.001995
109 0.002029
111 0.002029
122 0.002032
132 0.001992
142 0.001995
149 0.001995
156 0.001996
160 0.003026
164 0.003033
168 0.001973
170 0.001997
173 0.001995
175 0.002029
179 0.001995
187 0.00202
190 0.001996
166 0.002029
113 0.001995
73 0.001989
69 0.001983
86 0.001996
101 0.002039
111 0.000989
122 0.001
123 0.001002
118 0.000997
114 0.001002
116 0.000997
125 0.001997
138 0.001962
148 0.001987
156 0.001995
161 0.001991
164 0.000998
169 0.001951
170 0.001996
175 0.000992
178 0.000989
181 0.001995
187 0.000997
192 0.00101
163 0.000998
105 0.001027
59 0.000999
60 0.000997
73 0.001034
90 0.000998
94 0.000997
99 0.000997
103 0.002009
99 0.000997
97 0.001045
99 0.0
107 0.0
117 0.000999
132 0.000997
140 0.000997
146 0.000998
154 0.000998
155 0.000997
159 0.000997
163 0.000998
166 0.0
172 0.0
178 0.0
176 0.0
135 0.0
77 0.0
41 0.0
47 0.0
72 0.000997
79 0.0
84 0.0
89 0.0
91 0.0
88 0.0
86 0.0
91 0.0
101 0.0
112 0.0
122 0.0
129 0.001035
138 0.0
142 0.0
147 0.0
150 0.000997
153 0.000998
156 0.000966
161 0.000996
169 0.0
160 0.0
111 0.0
57 0.001029
34 0.000998
51 0.001025
65 0.000999
74 0.0
81 0.0
86 0.0
84 0.001006
80 0.000997
77 0.0
83 0.000998
97 0.0
108 0.000997
118 0.001995
128 0.001043
131 0.001032
137 0.0
140 0.0
142 0.0
145 0.001029
150 0.000999
160 0.0
161 0.000965
123 0.0
67 0.000999
36 0.001009
48 0.001052
64 0.001995
77 0.0
84 0.0
91 0.0
92 0.001996
88 0.001995
85 0.0
91 0.000984
101 0.00203
113 0.001996
123 0.002994
135 0.0
140 0.002041
146 0.002034
152 0.002014
155 0.001006
158 0.000998
162 0.000998
168 0.001994
174 0.001955
151 0.000984
88 0.000992
37 0.002027
27 0.000964
44 0.001995
55 0.001965
61 0.000975
68 0.000997
76 0.001033
78 0.001996
77 0.001997
80 0.000997
87 0.000998
100 0.000996
118 0.000999
126 0.001998
130 0.002992
135 0.002992
142 0.001994
145 0.001996
148 0.001995
152 0.002992
157 0.002992
164 0.000995
171 0.002008
162 0.002031
65 0.001028
24 0.000998
22 0.00203
36 0.00301
52 0.001991
55 0.001993
60 0.001992
66 0.003023
67 0.002992
59 0.002037
57 0.002043
64 0.001979
84 0.002033
95 0.000993
101 0.003989
108 0.00399
115 0.002016
118 0.001982
122 0.001992
128 0.003024
132 0.002998
139 0.001996
147 0.001998
148 0.001973
65 0.002022
16 0.001988
5 0.002976
18 0.003053
36 0.003994
50 0.00299
60 0.003028
68 0.00299
72 0.003982
70 0.003983
70 0.002986
77 0.003024
98 0.003037
111 0.003012
120 0.002989
128 0.003989
135 0.003989
142 0.003018
148 0.002995
152 0.002984
155 0.004023
161 0.003989
169 0.00299
175 0.002998
137 0.002979
69 0.002989
24 0.003026
16 0.003989
29 0.004986
51 0.003989
58 0.00402
65 0.00402
73 0.005018
76 0.004991
72 0.003002
72 0.003019
85 0.003026
98 0.002991
109 0.002991
118 0.003973
125 0.004987
133 0.004004
138 0.003986
142 0.003989
146 0.005018
151 0.004987
157 0.004023
164 0.004032
113 0.00403
48 0.004012
14 0.00402
15 0.006032
33 0.006017
56 0.004979
64 0.00504
73 0.003944
80 0.006018
77 0.005901
69 0.004
70 0.003988
87 0.003991
100 0.003989
111 0.003994
120 0.004955
129 0.006006
135 0.006018
141 0.005019
145 0.005022
151 0.005023
158 0.005991
146 0.006037
68 0.005005
11 0.006017
16 0.005017
35 0.003979
52 0.004002
63 0.006028
75 0.006021
82 0.004983
79 0.004986
75 0.004993
75 0.006022
84 0.005989
107 0.005992
120 0.005988
130 0.00502
137 0.005985
143 0.005023
148 0.007014
151 0.006996
158 0.006026
159 0.005996
124 0.006017
54 0.007022
2 0.006982
0 0.006019
15 0.00602
29 0.004984
36 0.004989
45 0.005995
51 0.007021
51 0.006017
48 0.005921
52 0.005953
62 0.005992
75 0.007022
88 0.007016
103 0.007022
111 0.007024
118 0.004993
124 0.005987
130 0.006016
136 0.006984
128 0.00799
69 0.005958
5 0.00599
0 0.005981
0 0.007013
0 0.006971
17 0.006989
23 0.006983
37 0.005981
42 0.005984
39 0.006983
39 0.007942
46 0.007946
61 0.007013
75 0.005964
86 0.00698
96 0.007926
102 0.007974
109 0.006987
117 0.007978
122 0.007965
128 0.00595
135 0.007001
117 0.00698
53 0.007945
0 0.007938
54 0.007015
62 0.006975
70 0.00702
76 0.007967
81 0.007019
85 0.007975
83 0.007975
82 0.006964
86 0.00694
89 0.006959
97 0.006981
104 0.007017
108 0.006975
112 0.00699
115 0.006994
118 0.007946
121 0.00702
124 0.00798
128 0.007949
123 0.006982
83 0.006978
58 0.006982
54 0.007015
63 0.007015
75 0.006977
81 0.006968
88 0.006983
91 0.007014
89 0.00698
86 0.007019
88 0.007012
96 0.006986
103 0.006018
110 0.00704
114 0.007013
118 0.007014
122 0.006968
125 0.007015
128 0.007015
132 0.006948
133 0.007023
108 0.006999
75 0.006981
56 0.00602
60 0.006014
69 0.005985
74 0.005976
75 0.00602
83 0.007016
88 0.006982
88 0.006964
87 0.005984
92 0.007011
99 0.00601
106 0.006016
111 0.005969
115 0.006023
118 0.006982
121 0.006018
124 0.006021
126 0.007016
130 0.006033
136 0.006023
99 0.006019
47 0.006028
21 0.006018
22 0.006024
33 0.006027
45 0.006018
49 0.005018
58 0.006017
70 0.005019
75 0.00502
74 0.005018
77 0.005021
91 0.005016
103 0.005018
113 0.006019
118 0.006022
123 0.006018
130 0.005021
133 0.005991
137 0.006018
142 0.005984
147 0.005987
153 0.00603
161 0.004991
115 0.005019
61 0.005018
32 0.00502
31 0.005028
43 0.004983
54 0.005022
56 0.005017
62 0.005021
70 0.004987
71 0.005017
69 0.005017
71 0.004019
86 0.003992
97 0.00399
104 0.004977
109 0.005025
115 0.005023
123 0.00502
127 0.00498
131 0.005017
134 0.005018
137 0.00502
146 0.00399
151 0.00403
118 0.00399
68 0.004019
40 0.004023
42 0.004018
55 0.00399
67 0.004007
73 0.004021
80 0.005016
87 0.005034
90 0.005019
88 0.004027
89 0.004021
99 0.004027
113 0.004021
121 0.004024
130 0.003985
136 0.003961
141 0.004022
148 0.004037
153 0.00396
156 0.003946
159 0.003991
163 0.00399
168 0.002982
178 0.002993
162 0.00299
109 0.002992
60 0.004025
44 0.004037
52 0.003956
67 0.003997
70 0.003991
73 0.004024
81 0.003964
88 0.003023
90 0.002993
88 0.002991
94 0.003018
103 0.002992
113 0.00303
120 0.004014
127 0.003004
134 0.003027
138 0.003024
143 0.003027
148 0.002027
152 0.001996
157 0.002992
161 0.003003
168 0.003029
173 0.002993
178 0.003038
175 0.002992
131 0.002993
61 0.003003
44 0.002998
51 0.002018
63 0.002992
69 0.001992
79 0.001995
89 0.001988
100 0.001997
100 0.00196
99 0.001961
104 0.001996
112 0.001961
126 0.002035
136 0.002027
144 0.002032
149 0.002011
154 0.001995
161 0.001963
166 0.001994
170 0.002053
178 0.002047
183 0.00202
187 0.001996
193 0.001995
198 0.002028
186 0.002031
135 0.002037
86 0.001996
68 0.001995
86 0.002033
100 0.001984
107 0.001996
116 0.002028
125 0.002007
129 0.001996
127 0.002036
124 0.001042
130 0.001044
138 0.000989
148 0.000992
157 0.001001
165 0.000997
168 0.000997
171 0.000998
176 0.001982
179 0.000997
182 0.000997
185 0.002042
189 0.000987
195 0.001995
196 0.002002
165 0.000997
106 0.000997
57 0.0
62 0.000999
74 0.001011
85 0.00199
88 0.001035
96 0.000998
104 0.000997
108 0.000997
107 0.000991
107 0.000997
113 0.000997
124 0.0
142 0.0
149 0.0
155 0.0
162 0.0
166 0.0
171 0.0
176 0.0
179 0.0
183 0.0
191 0.000997
194 0.0
170 0.0
82 0.001011
60 0.000998
63 0.0
77 0.000963
91 0.0
97 0.000998
104 0.0
110 0.0
112 0.000963
109 0.0
107 0.000997
113 0.0
130 0.0
139 0.000998
150 0.0
155 0.0
160 0.001038
164 0.001034
168 0.0
173 0.0
178 0.0
183 0.001009
181 0.000998
143 0.000997
70 0.001996
65 0.000948
80 0.0
96 0.0
107 0.001034
116 0.001032
122 0.0
120 0.0
115 0.0
112 0.000998
117 0.001031
133 0.001996
145 0.002009
153 0.0
158 0.000956
163 0.0
168 0.002028
171 0.001995
178 0.000991
182 0.0
183 0.0
153 0.002028
97 0.002026
51 0.002019
57 0.002029
76 0.0
87 0.0
94 0.0
104 0.001037
111 0.001031
112 0.0
110 0.000997
113 0.000997
122 0.001995
133 0.002035
150 0.001971
156 0.001962
160 0.003028
166 0.001038
170 0.001031
171 0.000995
176 0.002028
181 0.002028
161 0.001039
107 0.001003
62 0.000997
46 0.002027
61 0.001987
71 0.001988
78 0.001996
89 0.001978
96 0.002031
98 0.001037
96 0.002039
96 0.002019
106 0.000998
115 0.000999
124 0.001014
133 0.002906
143 0.001995
147 0.002044
150 0.002993
155 0.000965
159 0.000967
164 0.001013
168 0.003041
150 0.003048
80 0.002061
46 0.000982
42 0.000998
54 0.002992
74 0.000992
82 0.002992
91 0.003031
97 0.001033
95 0.000999
91 0.000997
91 0.004029
98 0.003989
113 0.002026
122 0.00196
128 0.001996
133 0.002992
139 0.00302
142 0.003048
146 0.004026
152 0.001979
153 0.00205
120 0.002016
69 0.00402
40 0.00399
45 0.00203
60 0.001984
73 0.001998
81 0.004031
95 0.001996
95 0.003028
92 0.005031
89 0.004042
96 0.001992
106 0.001993
116 0.002022
125 0.00399
132 0.004024
137 0.002984
141 0.002988
146 0.002995
154 0.002959
158 0.002963
136 0.004032
83 0.003988
34 0.00203
31 0.00203
43 0.002026
56 0.004996
61 0.005019
70 0.002991
80 0.002994
84 0.002992
83 0.002992
86 0.00299
94 0.004026
104 0.004021
117 0.004001
124 0.003023
130 0.003996
134 0.004986
138 0.005021
144 0.002982
148 0.002982
156 0.004
137 0.004015
85 0.003027
42 0.005985
30 0.005019
42 0.00399
54 0.003987
58 0.003988
63 0.005029
73 0.005041
83 0.003997
84 0.003992
87 0.005011
95 0.003989
105 0.005025
115 0.005986
121 0.006001
129 0.002988
134 0.003991
137 0.003996
141 0.004983
145 0.006017
150 0.00399
155 0.004038
161 0.003982
127 0.003986
72 0.004981
38 0.006013
128 0.005023
121 0.004985
121 0.004026
121 0.004985
121 0.00503
121 0.006018
121 0.005982
121 0.005024
121 0.007006
121 0.005989
121 0.004966
121 0.005015
121 0.007038
121 0.006016
121 0.003968
123 0.005001
128 0.004975
135 0.006954
141 0.007019
154 0.00499
140 0.007032
54 0.004989
9 0.004982
4 0.005981
25 0.006988
47 0.007014
64 0.004977
78 0.006038
88 0.006015
89 0.007019
84 0.006979
87 0.005986
102 0.006987
123 0.005974
135 0.005949
144 0.005952
151 0.006981
157 0.007023
163 0.005983
168 0.005986
173 0.005983
180 0.007013
186 0.007014
163 0.005984
66 0.006982
13 0.006017
17 0.006982
35 0.005998
51 0.007979
57 0.00798
71 0.005985
84 0.005977
89 0.005985
87 0.007967
89 0.007966
100 0.005981
121 0.007979
136 0.005982
146 0.006963
152 0.006998
158 0.007979
163 0.007939
169 0.00794
176 0.006972
180 0.006131
188 0.005978
192 0.007956
171 0.00797
36 0.00698
19 0.00798
29 0.006933
47 0.006952
56 0.006962
67 0.007014
79 0.007012
89 0.006981
93 0.006987
92 0.006963
96 0.007944
115 0.006956
131 0.007021
144 0.006981
153 0.006973
160 0.007018
166 0.006982
171 0.007014
174 0.007012
181 0.006981
184 0.006975
192 0.006977
202 0.007028
183 0.006978
85 0.008024
35 0.006994
32 0.00703
54 0.007054
71 0.006984
81 0.006978
91 0.007012
104 0.006978
102 0.00698
97 0.006961
96 0.007027
114 0.005988
129 0.006022
142 0.006007
154 0.006021
162 0.006018
166 0.006014
172 0.006018
175 0.006036
179 0.006014
184 0.006018
194 0.007031
198 0.007016
109 0.006023
42 0.00601
17 0.00602
38 0.005984
59 0.006022
69 0.006017
79 0.006018
93 0.005979
100 0.00602
97 0.006019
95 0.006018
102 0.005994
124 0.005023
138 0.005028
149 0.005058
160 0.005007
167 0.005019
174 0.005987
181 0.005032
186 0.005017
189 0.005024
197 0.004986
204 0.005994
205 0.006023
100 0.006022
35 0.006024
15 0.006038
28 0.005023
49 0.004966
58 0.006055
65 0.005022
76 0.005018
84 0.005029
87 0.005025
84 0.005022
89 0.005025
108 0.005019
122 0.004021
138 0.003989
147 0.005033
156 0.005027
162 0.004989
165 0.00503
169 0.006019
174 0.005021
186 0.005022
196 0.00502
193 0.005049
82 0.004992
30 0.00504
22 0.005025
39 0.005023
63 0.004971
73 0.004007
83 0.004033
94 0.005022
99 0.004044
93 0.003957
91 0.004023
98 0.003992
121 0.003985
137 0.004022
147 0.004972
155 0.003991
166 0.003947
172 0.005024
178 0.004988
187 0.004952
195 0.003991
170 0.003991
98 0.004015
40 0.003959
35 0.004035
56 0.004022
73 0.00398
83 0.002982
94 0.002993
103 0.003988
100 0.003953
93 0.003059
93 0.003061
103 0.003025
126 0.004027
144 0.003991
158 0.004031
164 0.002955
172 0.002992
181 0.002945
191 0.003026
203 0.005013
202 0.003023
158 0.002984
77 0.003062
26 0.002992
25 0.002998
49 0.003024
62 0.002994
68 0.003004
82 0.003005
94 0.002994
98 0.001994
96 0.002967
100 0.003043
110 0.002025
126 0.002993
139 0.003991
152 0.00301
162 0.003013
169 0.002993
175 0.002994
181 0.002995
187 0.001994
195 0.003042
194 0.001981
138 0.003025
60 0.002992
16 0.00296
14 0.001996
34 0.002951
47 0.001964
53 0.003026
67 0.00203
80 0.002028
82 0.001987
78 0.002034
83 0.001995
95 0.001995
110 0.003039
123 0.001995
135 0.003042
146 0.00295
157 0.001994
166 0.001995
173 0.001994
180 0.001988
189 0.001994
197 0.001991
166 0.001967
64 0.001997
22 0.001995
21 0.001995
41 0.002027
60 0.001995
76 0.000995
89 0.001028
95 0.001039
90 0.001044
86 0.001027
95 0.001027
108 0.000998
126 0.001995
142 0.002036
155 0.000997
164 0.000997
168 0.001995
182 0.002029
188 0.000996
194 0.000984
190 0.000998
140 0.000998
66 0.000997
25 0.000998
26 0.000997
45 0.001001
58 0.000997
63 0.000998
72 0.000996
92 0.001035
94 0.000965
90 0.002053
96 0.001029
110 0.0
125 0.002026
139 0.001038
151 0.001965
158 0.000941
162 0.000974
168 0.000969
173 0.000998
180 0.001
186 0.001041
185 0.001035
129 0.0
49 0.001036
2 0.001035
0 0.000985
22 0.000957
35 0.000954
39 0.000997
49 0.000998
69 0.0
72 0.0
69 0.0
75 0.0
89 0.0
104 0.0
117 0.0
128 0.0
139 0.0
147 0.0
154 0.0
161 0.0
171 0.0
177 0.0
184 0.000999
194 0.000998
181 0.001031
110 0.0
37 0.0
8 0.0
17 0.0
43 0.0
57 0.00093
72 0.0
91 0.001017
92 0.000998
83 0.0
83 0.0
96 0.000998
113 0.000998
133 0.000992
143 0.0
152 0.0
156 0.002029
164 0.001032
171 0.0
176 0.001035
182 0.0
188 0.0
196 0.0
169 0.001994
89 0.001029
10 0.00096
63 0.000979
68 0.000997
83 0.001995
89 0.000997
95 0.0
104 0.002024
107 0.0
107 0.0
107 0.0
111 0.002026
119 0.002025
130 0.0
135 0.0
139 0.0
142 0.001992
145 0.001028
150 0.0
154 0.001996
158 0.0
161 0.0
166 0.0
171 0.002031
168 0.002037
120 0.0
82 0.000999
66 0.0
69 0.00204
78 0.00204
86 0.002026
92 0.001999
99 0.002025
104 0.0
102 0.0
101 0.000996
104 0.003001
110 0.002982
121 0.000999
129 0.001996
134 0.001001
139 0.002994
143 0.002993
146 0.003041
148 0.003003
151 0.001994
155 0.001971
158 0.001998
163 0.003028
160 0.003026
113 0.001996
78 0.002002
67 0.001993
74 0.002992
87 0.003026
100 0.002992
107 0.002992
115 0.001986
116 0.002004
113 0.001993
110 0.002993
114 0.004022
124 0.002006
132 0.002006
138 0.001002
142 0.002025
146 0.003989
153 0.003172
155 0.003026
159 0.00202
161 0.001993
165 0.001992
169 0.004047
174 0.00403
158 0.002968
114 0.000991
78 0.001998
64 0.00399
77 0.00199
86 0.004022
92 0.00399
98 0.001997
104 0.001989
107 0.00199
107 0.004027
106 0.005021
110 0.002973
118 0.003039
127 0.001995
134 0.003892
143 0.002039
145 0.003025
148 0.00399
150 0.00399
153 0.001993
156 0.002019
159 0.00203
163 0.005018
167 0.003992
152 0.002008
109 0.001993
75 0.002957
70 0.002952
81 0.002959
92 0.005048
96 0.004987
104 0.002993
110 0.002986
109 0.002993
105 0.003989
103 0.004023
108 0.002992
116 0.002998
125 0.002986
135 0.003027
140 0.003028
143 0.005
145 0.004979
150 0.003011
152 0.002994
155 0.003003
160 0.005854
157 0.004987
113 0.003991
80 0.00299
68 0.004008
83 0.002986
94 0.003028
100 0.004988
107 0.004987
116 0.003006
117 0.00304
113 0.001955
112 0.006016
116 0.004987
126 0.003019
134 0.003988
141 0.003989
147 0.004
150 0.003992
153 0.00602
157 0.005982
160 0.004956
163 0.003989
167 0.003991
171 0.004987
156 0.004986
100 0.003985
74 0.00399
70 0.003991
85 0.004987
90 0.004989
94 0.005982
99 0.006022
108 0.00398
110 0.004028
109 0.004983
108 0.004985
113 0.006033
120 0.006013
131 0.004964
136 0.004986
144 0.005003
147 0.004981
150 0.004957
153 0.006016
156 0.006027
160 0.005996
163 0.005038
168 0.006009
166 0.005984
138 0.006017
91 0.003983
78 0.005018
91 0.005987
101 0.005043
107 0.004949
111 0.006982
116 0.007027
119 0.005024
115 0.004989
113 0.004984
117 0.006982
125 0.007017
135 0.005988
145 0.007014
151 0.005969
155 0.005982
158 0.005985
160 0.00699
162 0.006992
168 0.006009
173 0.005981
174 0.006015
152 0.006981
118 0.006972
98 0.005955
109 0.007976
118 0.005954
122 0.005996
128 0.006001
134 0.007981
138 0.007975
137 0.006003
136 0.006986
140 0.006984
147 0.007017
154 0.007021
162 0.006981
168 0.007988
171 0.006031
174 0.006004
178 0.00599
181 0.007979
184 0.007978
189 0.006969
193 0.006977
197 0.00695
186 0.005994
141 0.007017
118 0.006977
118 0.007979
124 0.007977
128 0.006984
130 0.006983
134 0.007002
141 0.006983
142 0.007976
141 0.006985
142 0.006987
145 0.006015
154 0.00697
159 0.006982
167 0.006973
171 0.007018
174 0.00698
178 0.006981
180 0.005995
183 0.00801
186 0.006991
191 0.006994
195 0.006964
196 0.006988
200 0.007012
184 0.007014
131 0.007015
118 0.007012
122 0.006992
133 0.006958
137 0.006978
140 0.00702
144 0.005979
146 0.005988
145 0.005987
142 0.006982
142 0.006981
146 0.005981
157 0.005978
163 0.005966
168 0.005982
170 0.005989
173 0.006956
175 0.006995
177 0.005992
181 0.00599
184 0.005983
188 0.006966
192 0.006011
192 0.006025
146 0.006021
123 0.006024
118 0.005023
126 0.006018
134 0.004945
137 0.005027
140 0.005059
145 0.005021
147 0.006019
145 0.006019
143 0.005026
145 0.005026
155 0.005019
161 0.005977
165 0.005991
170 0.006026
173 0.006018
176 0.005965
179 0.006022
180 0.004989
183 0.004994
185 0.005971
187 0.005987
191 0.005033
194 0.004987
172 0.005022
138 0.005022
113 0.00493
114 0.004953
121 0.004986
126 0.005014
129 0.003942
132 0.004946
137 0.004941
139 0.004026
136 0.00501
140 0.005021
147 0.005021
157 0.00497
168 0.004982
172 0.005028
177 0.005026
181 0.003996
183 0.004986
186 0.003949
189 0.005028
191 0.004066
198 0.00399
202 0.003996
207 0.003949
212 0.003994
176 0.004041
126 0.005005
96 0.004036
95 0.004038
108 0.004031
125 0.003989
132 0.004991
139 0.005024
146 0.003971
138 0.003957
133 0.004034
134 0.003997
142 0.003983
154 0.003998
163 0.004025
170 0.003031
174 0.003024
181 0.005026
185 0.003025
190 0.004039
199 0.003018
203 0.002995
209 0.00402
215 0.00405
217 0.004021
168 0.004027
119 0.002991
94 0.002991
96 0.003014
107 0.00399
117 0.004021
120 0.003016
129 0.002992
133 0.004034
132 0.002952
128 0.003043
127 0.003034
139 0.003018
150 0.003046
158 0.003047
166 0.001964
173 0.001959
178 0.002986
179 0.002992
182 0.002964
185 0.003005
187 0.00303
191 0.003004
193 0.003032
197 0.003029
170 0.002992
118 0.001968
81 0.002993
70 0.002045
84 0.002992
98 0.002993
109 0.001963
116 0.00195
120 0.003008
120 0.002992
115 0.003036
111 0.00304
117 0.001995
126 0.003028
135 0.001959
143 0.001971
151 0.002993
155 0.00203
161 0.002959
164 0.002026
167 0.002035
173 0.001937
180 0.001959
172 0.001957
130 0.002028
89 0.002042
69 0.000944
73 0.001994
91 0.002043
100 0.001995
112 0.000996
120 0.00095
120 0.001995
115 0.000993
111 0.00099
113 0.001027
125 0.001019
134 0.000975
143 0.001035
151 0.002014
157 0.000997
163 0.001996
167 0.00202
173 0.001014
176 0.001013
154 0.001035
108 0.000986
74 0.001014
68 0.000998
79 0.000984
91 0.001056
102 0.000996
111 0.000997
124 0.002049
122 0.0
114 0.0
113 0.0
118 0.0
128 0.0
140 0.0
152 0.0
157 0.0
161 0.000962
167 0.000999
170 0.000998
171 0.001036
140 0.0
82 0.0
61 0.0
65 0.0
78 0.0
90 0.0
98 0.0
107 0.0
114 0.0
116 0.0
112 0.0
114 0.0
122 0.0
138 0.0
148 0.0
155 0.0
162 0.0
167 0.0
173 0.0
179 0.0
184 0.0
189 0.0
186 0.0
114 0.0
76 0.0
68 0.0
79 0.000998
91 0.0
99 0.0
104 0.0
111 0.000997
118 0.0
117 0.0
115 0.0
121 0.0
132 0.0
145 0.000962
152 0.000955
157 0.00101
162 0.00104
167 0.001029
175 0.0
178 0.000992
183 0.000997
187 0.00203
193 0.001003
189 0.0
112 0.0
79 0.0
73 0.001007
84 0.001996
98 0.002039
107 0.0
113 0.0
119 0.0
122 0.002029
121 0.002034
119 0.0
124 0.0
139 0.0
147 0.000966
154 0.000961
160 0.002029
164 0.002035
171 0.001001
176 0.001006
179 0.002016
184 0.003035
188 0.001996
193 0.0
198 0.0
206 0.0
186 0.0
137 0.0
99 0.002049
86 0.00203
98 0.0
111 0.000966
118 0.001005
123 0.00203
130 0.002957
133 0.000977
130 0.0
127 0.0
133 0.000948
140 0.00099
149 0.001028
156 0.001996
162 0.001996
168 0.000967
172 0.0
175 0.0
180 0.002031
182 0.003023
188 0.002027
191 0.002035
198 0.002002
202 0.001998
187 0.0
141 0.003055
103 0.003026
90 0.0
100 0.0
114 0.0
122 0.003026
127 0.003036
136 0.004044
135 0.002994
128 0.0
126 0.002005
130 0.001985
139 0.003043
147 0.00195
155 0.0
160 0.001984
164 0.002027
168 0.002941
171 0.003017
176 0.003025
179 0.002993
183 0.002033
187 0.002007
192 0.000989
179 0.002987
137 0.002993
93 0.001977
88 0.001994
99 0.002001
112 0.004025
123 0.004001
135 0.004027
138 0.004032
132 0.001993
125 0.002043
124 0.001994
128 0.004018
136 0.004032
148 0.002994
153 0.001999
156 0.002044
160 0.004048
164 0.003032
170 0.003992
171 0.003049
175 0.002981
176 0.001971
155 0.002988
108 0.00399
73 0.00403
65 0.002036
76 0.001992
89 0.001987
98 0.001988
105 0.004988
113 0.002009
110 0.005023
105 0.004953
105 0.002027
112 0.002985
120 0.002043
130 0.005025
138 0.00402
145 0.003991
148 0.001994
153 0.003032
156 0.004987
162 0.002989
167 0.004984
174 0.005036
156 0.003037
107 0.00299
68 0.002986
55 0.004987
61 0.005035
75 0.002998
82 0.002995
87 0.002994
91 0.005021
91 0.003997
86 0.005996
84 0.005989
88 0.003993
97 0.003991
107 0.003993
115 0.00502
119 0.006017
125 0.003039
128 0.003998
131 0.004006
133 0.005035
138 0.004027
143 0.005991
145 0.005989
100 0.00398
54 0.003941
31 0.003992
30 0.005988
43 0.006069
60 0.00404
67 0.003989
75 0.003985
83 0.003987
80 0.003991
78 0.006023
81 0.005984
92 0.003992
103 0.004985
112 0.004992
121 0.006016
129 0.005979
138 0.004006
142 0.005003
148 0.004956
157 0.003991
154 0.003992
117 0.004958
72 0.006982
47 0.006984
51 0.004989
65 0.004986
79 0.004948
89 0.006984
100 0.006974
101 0.004995
96 0.004957
91 0.004985
98 0.004992
107 0.003988
116 0.007014
124 0.006986
132 0.004948
135 0.004992
141 0.003957
146 0.007029
151 0.007018
152 0.004996
122 0.004977
56 0.004956
49 0.004986
61 0.004995
78 0.00798
94 0.007969
103 0.004986
109 0.005987
109 0.005988
102 0.006949
97 0.007017
101 0.006005
108 0.006986
124 0.004988
131 0.005019
138 0.004987
144 0.007978
148 0.008003
153 0.005984
158 0.005975
139 0.005986
93 0.007979
55 0.007967
55 0.005998
71 0.00698
98 0.005981
110 0.006
119 0.006976
118 0.008
114 0.007974
109 0.005985
113 0.006016
119 0.005998
132 0.007974
141 0.007975
149 0.00598
155 0.006012
163 0.005984
170 0.006981
175 0.00698
170 0.006988
128 0.006988
77 0.006979
50 0.00697
56 0.006968
66 0.006036
81 0.007992
90 0.007979
102 0.006979
109 0.007971
107 0.00696
104 0.006979
108 0.006997
122 0.007013
134 0.006983
148 0.006962
158 0.006949
166 0.006978
174 0.007015
180 0.007017
187 0.006954
195 0.007015
161 0.006954
108 0.00695
76 0.006938
73 0.005985
87 0.006951
106 0.005964
114 0.005982
121 0.006969
130 0.005955
130 0.007013
127 0.006958
127 0.006906
136 0.00603
145 0.005981
154 0.006013
161 0.005964
167 0.005986
175 0.005992
180 0.005996
182 0.006014
187 0.006029
193 0.006017
161 0.006015
109 0.006017
75 0.005983
82 0.006958
97 0.005979
111 0.005975
123 0.005983
135 0.005978
136 0.00598
131 0.005982
125 0.005965
124 0.00602
139 0.005953
147 0.006017
158 0.006013
163 0.006016
168 0.004986
172 0.006014
175 0.004984
182 0.00502
187 0.005013
186 0.004956
149 0.005008
92 0.004984
53 0.005984
62 0.005022
78 0.004956
90 0.005976
95 0.006025
103 0.006014
109 0.004868
106 0.004953
100 0.004985
105 0.004992
114 0.004994
124 0.005017
139 0.004972
146 0.005018
154 0.004954
161 0.005026
166 0.003983
171 0.003958
177 0.005003
182 0.004038
153 0.004994
98 0.004976
63 0.004975
60 0.005023
83 0.004992
94 0.00502
102 0.003992
113 0.003935
119 0.003946
119 0.003957
117 0.003958
117 0.004029
124 0.003943
132 0.004975
140 0.00494
147 0.004044
153 0.004044
160 0.00503
164 0.003947
168 0.005018
173 0.003985
177 0.003989
177 0.003989
148 0.003976
83 0.00399
59 0.004046
64 0.003976
82 0.003993
101 0.004024
111 0.003986
118 0.00399
119 0.003996
113 0.002958
108 0.002986
113 0.003038
122 0.002997
136 0.003955
145 0.002982
153 0.00304
158 0.003953
165 0.004024
169 0.003999
173 0.004027
176 0.004023
139 0.003985
91 0.003049
64 0.002952
62 0.002991
73 0.002962
91 0.002944
104 0.003024
116 0.001994
123 0.003989
118 0.003022
114 0.002992
114 0.003026
120 0.002992
130 0.003029
141 0.002993
149 0.001963
153 0.003026
160 0.002937
165 0.002991
165 0.003989
131 0.003981
89 0.002991
69 0.002991
71 0.002991
89 0.00296
101 0.003026
110 0.002986
121 0.001995
130 0.001963
130 0.001996
123 0.002029
126 0.002993
135 0.002987
146 0.002025
156 0.003023
163 0.002025
171 0.002993
175 0.003027
179 0.000993
169 0.002044
130 0.001981
83 0.001994
75 0.001948
92 0.002029
101 0.002993
108 0.003005
117 0.001994
123 0.002008
124 0.002
119 0.001994
118 0.000997
124 0.001994
135 0.001032
147 0.003004
154 0.00196
162 0.00194
167 0.002026
172 0.000998
175 0.001
152 0.00201
109 0.000997
71 0.002064
71 0.002054
81 0.001027
90 0.000978
94 0.000999
104 0.001013
113 0.002044
115 0.001995
115 0.001031
118 0.000998
126 0.001996
137 0.002031
148 0.001971
153 0.002034
157 0.0
162 0.002026
167 0.0
177 0.0
176 0.001996
130 0.001996
95 0.001032
84 0.000992
92 0.000997
100 0.0
106 0.000949
112 0.0
120 0.0
128 0.000994
131 0.0
131 0.0
135 0.002064
146 0.002025
156 0.001996
164 0.0
169 0.0
173 0.0
180 0.0
184 0.0
189 0.0
193 0.001032
200 0.0
208 0.0
198 0.000998
148 0.000998
128 0.0
130 0.0
140 0.0
147 0.0
150 0.001031
155 0.0
162 0.0
166 0.0
167 0.0
167 0.0
173 0.000998
181 0.0
188 0.0
193 0.0
197 0.0
202 0.000999
206 0.00104
209 0.0
213 0.000999
218 0.001028
223 0.001008
226 0.000999
236 0.0
242 0.0
227 0.002026
191 0.000998
167 0.000998
167 0.000998
182 0.0
191 0.002038
192 0.00203
193 0.000978
195 0.000989
196 0.000963
193 0.0
194 0.0
197 0.002042
202 0.002993
210 0.000991
214 0.0
217 0.00099
221 0.002043
224 0.002048
226 0.000988
229 0.0
234 0.0
238 0.0
241 0.0
244 0.001982
249 0.002964
243 0.000963
212 0.0
185 0.000947
179 0.001999
186 0.002029
199 0.0
204 0.0
205 0.0
206 0.0
203 0.0
199 0.002026
197 0.001045
200 0.0
204 0.0
210 0.0
215 0.002027
219 0.002002
226 0.000958
129 0.0
235 0.0
238 0.0
188 0.0
190 0.003031
192 0.003033
194 0.003044
196 0.000946
192 0.000961
176 0.0
164 0.002008
164 0.002027
171 0.0
179 0.003028
181 0.002007
184 0.001992
185 0.002001
184 0.002015
182 0.002994
184 0.001991
187 0.001014
191 0.000966
195 0.003024
198 0.003051
199 0.002007
200 0.002998
201 0.001029
201 0.0
202 0.001985
202 0.004042
202 0.003952
203 0.002015
195 0.001975
177 0.002042
166 0.003043
165 0.003007
169 0.002007
174 0.002991
174 0.001996
175 0.001993
175 0.001995
173 0.003985
172 0.004022
172 0.001994
173 0.001997
177 0.001991
179 0.003991
181 0.00399
183 0.003007
184 0.004024
186 0.001959
186 0.002011
186 0.002014
187 0.004026
188 0.004027
188 0.002048
181 0.002983
164 0.002013
154 0.004986
155 0.004029
162 0.002
166 0.003972
168 0.002
168 0.00201
169 0.00199
168 0.002991
221 0.004986
219 0.005025
224 0.002987
229 0.001994
231 0.001962
231 0.003989
233 0.003986
232 0.004026
234 0.004019
231 0.001985
228 0.002004
227 0.002968
225 0.00503
222 0.004987
188 0.002962
149 0.002962
128 0.002996
131 0.006021
146 0.002998
151 0.00504
153 0.005023
156 0.002014
155 0.002036
149 0.003028
143 0.004987
144 0.004987
151 0.002984
158 0.00399
165 0.003
169 0.005024
175 0.002994
177 0.004985
177 0.005029
179 0.002996
179 0.00299
181 0.003993
176 0.006029
142 0.006021
100 0.003991
96 0.002994
106 0.003996
119 0.006021
127 0.004
131 0.005026
132 0.004996
126 0.002999
117 0.002999
111 0.003988
112 0.006033
117 0.005985
122 0.004007
125 0.004009
128 0.004958
128 0.006027
128 0.003958
124 0.006001
123 0.005967
125 0.00399
123 0.002953
100 0.00401
55 0.005996
22 0.006014
16 0.006015
30 0.003984
37 0.004991
39 0.005
42 0.003976
46 0.003997
47 0.006019
44 0.006025
43 0.002973
48 0.00499
55 0.004989
61 0.007033
65 0.007005
72 0.003989
75 0.00403
77 0.004988
84 0.003978
89 0.003995
96 0.005985
102 0.006018
97 0.005004
60 0.004989
22 0.005989
7 0.006989
16 0.007978
25 0.005003
23 0.00598
21 0.005981
26 0.004986
24 0.005017
18 0.007953
11 0.007963
12 0.004973
16 0.004989
20 0.004988
25 0.006993
32 0.007037
36 0.005998
40 0.005018
44 0.005984
52 0.004952
59 0.004998
67 0.006979
75 0.006943
84 0.005954
61 0.005983
18 0.005956
0 0.00699
0 0.008004
1 0.005992
11 0.006968
13 0.005075
24 0.004981
29 0.005002
28 0.006979
27 0.007976
29 0.005998
37 0.005983
51 0.005984
59 0.007978
62 0.00699
67 0.006972
74 0.006975
81 0.007975
87 0.00698
88 0.006977
95 0.006973
99 0.007978
106 0.007009
113 0.006952
102 0.006044
57 0.006
6 0.006985
0 0.00798
7 0.006979
21 0.00795
25 0.006976
31 0.006976
32 0.005954
31 0.006976
29 0.007013
29 0.00695
37 0.005983
49 0.006976
61 0.006025
71 0.005969
82 0.005966
93 0.007013
102 0.005988
108 0.00697
112 0.006977
122 0.007021
128 0.007012
136 0.006965
143 0.006998
135 0.006956
92 0.006016
48 0.005977
30 0.005957
45 0.006977
64 0.005985
70 0.006978
73 0.006981
78 0.006013
76 0.006018
69 0.005982
67 0.006008
71 0.005975
79 0.006018
86 0.006021
98 0.00493
107 0.006043
113 0.006976
116 0.006987
121 0.00598
125 0.007029
129 0.006017
137 0.005981
143 0.006015
140 0.005978
103 0.006021
57 0.004988
30 0.004994
41 0.006017
55 0.005981
67 0.005986
75 0.005985
81 0.004985
80 0.004982
70 0.005021
65 0.005984
68 0.004981
78 0.004986
92 0.003988
104 0.004986
118 0.006018
125 0.006017
136 0.005953
144 0.005979
148 0.005987
152 0.005034
157 0.005029
164 0.004973
161 0.004962
123 0.004941
70 0.00399
37 0.00399
39 0.005022
51 0.005017
65 0.005984
68 0.005985
74 0.005023
77 0.005021
76 0.005025
73 0.004986
76 0.005031
83 0.005017
93 0.004017
102 0.005983
114 0.005018
118 0.004025
122 0.004024
125 0.004021
129 0.003986
132 0.003957
136 0.004012
144 0.003964
144 0.003994
104 0.004964
52 0.003988
23 0.005014
32 0.005029
47 0.005022
62 0.004998
67 0.005055
76 0.004021
85 0.004023
85 0.004031
81 0.002995
83 0.003991
91 0.00399
101 0.002962
118 0.003992
126 0.004031
134 0.00399
142 0.004023
149 0.004024
153 0.004021
157 0.00303
160 0.003024
168 0.004023
171 0.00402
151 0.004
100 0.003991
41 0.003999
40 0.003061
53 0.004025
64 0.002992
73 0.003022
79 0.003016
84 0.003023
84 0.003037
83 0.002957
83 0.001993
90 0.003026
101 0.001992
118 0.003992
127 0.004001
134 0.004004
137 0.003023
145 0.002992
147 0.003022
148 0.003024
151 0.003025
157 0.002992
162 0.002955
153 0.003023
108 0.001951
42 0.002986
40 0.003033
52 0.003035
67 0.002993
83 0.002028
89 0.00299
98 0.002033
103 0.001995
104 0.003026
100 0.002993
107 0.00196
115 0.002049
132 0.00315
141 0.002992
148 0.00297
153 0.003004
157 0.002992
160 0.002993
163 0.001995
167 0.002014
172 0.001988
180 0.002038
181 0.000966
149 0.001029
63 0.001995
44 0.002026
51 0.001995
69 0.002037
83 0.001966
88 0.001995
95 0.001988
96 0.000994
93 0.002008
90 0.00103
92 0.00199
99 0.001989
116 0.002028
125 0.002027
133 0.001995
137 0.002018
141 0.001995
147 0.001995
150 0.00204
154 0.001027
158 0.001982
165 0.001995
171 0.002027
152 0.0
63 0.000997
38 0.000997
44 0.000962
60 0.002021
75 0.001992
88 0.002028
98 0.001048
105 0.001039
104 0.001034
100 0.001064
98 0.000987
106 0.0
125 0.000997
135 0.000997
143 0.000997
147 0.0
152 0.000998
158 0.002027
160 0.0
163 0.0
170 0.0
175 0.0
173 0.000982
115 0.000978
58 0.000997
48 0.001005
57 0.0
68 0.0
80 0.0
91 0.0
99 0.0
99 0.000996
93 0.0
87 0.0
91 0.0
105 0.0
121 0.0
129 0.0
135 0.000956
140 0.000997
147 0.0
152 0.0
157 0.0
161 0.0
165 0.0
169 0.000999
130 0.000996
35 0.0
16 0.0
22 0.002031
35 0.002025
46 0.0
50 0.0
57 0.001971
62 0.002038
61 0.000983
59 0.001004
62 0.000956
73 0.000995
93 0.001015
102 0.000977
113 0.002027
121 0.003023
128 0.000992
134 0.0
141 0.0
145 0.001948
151 0.002005
162 0.0
159 0.000949
116 0.000981
21 0.0
6 0.0
16 0.001989
32 0.002025
44 0.0
49 0.000997
57 0.0
63 0.002026
63 0.002031
62 0.0
66 0.0
79 0.0
104 0.0
115 0.0
120 0.002031
123 0.002024
131 0.0
137 0.0
141 0.001004
144 0.002028
149 0.002031
159 0.000952
162 0.0
134 0.001029
32 0.0
8 0.001003
16 0.003018
32 0.001995
47 0.0
52 0.0
61 0.0
68 0.002001
69 0.002027
66 0.002029
62 0.0
70 0.000965
91 0.0
97 0.000997
103 0.001993
107 0.003029
114 0.002993
124 0.0
131 0.0
138 0.002017
146 0.002997
153 0.004026
164 0.002036
167 0.002032
89 0.001984
29 0.002015
8 0.001996
17 0.003013
36 0.002993
50 0.003007
57 0.001992
68 0.00203
73 0.002995
71 0.004025
72 0.002026
76 0.002997
88 0.001999
99 0.001986
110 0.001985
119 0.00304
126 0.00399
131 0.001996
137 0.001988
142 0.002025
145 0.003991
148 0.003964
157 0.001983
165 0.003023
133 0.001996
67 0.001993
17 0.001989
5 0.003023
17 0.002962
41 0.002009
53 0.001995
62 0.002006
70 0.003994
72 0.00499
63 0.00304
61 0.00399
71 0.001996
84 0.002014
94 0.002972
100 0.005021
107 0.005041
118 0.001999
125 0.002004
130 0.002032
134 0.002004
141 0.005023
147 0.006022
160 0.004023
150 0.003978
72 0.002027
17 0.001997
0 0.001989
6 0.004021
27 0.00399
45 0.001997
53 0.002997
63 0.003022
69 0.004988
66 0.004995
60 0.004986
65 0.004992
82 0.003003
96 0.001998
108 0.001993
120 0.004985
127 0.006021
133 0.002993
139 0.002993
145 0.002992
148 0.004987
152 0.005021
163 0.004987
159 0.005024
83 0.003013
17 0.00299
0 0.002999
0 0.005021
12 0.004993
28 0.003982
36 0.003988
46 0.003026
54 0.005985
54 0.005952
46 0.005021
49 0.005999
63 0.00302
78 0.002993
91 0.00299
101 0.006024
108 0.006022
117 0.003993
122 0.00399
127 0.003995
132 0.006983
137 0.006017
148 0.006016
155 0.006054
121 0.002997
48 0.002972
0 0.003992
50 0.006983
56 0.006978
69 0.003998
74 0.003993
77 0.003992
83 0.00399
87 0.007984
84 0.00399
83 0.005985
86 0.005981
94 0.004007
101 0.00399
107 0.003988
112 0.005988
116 0.007015
120 0.003986
122 0.004985
125 0.004991
128 0.006983
134 0.004977
138 0.007978
135 0.007012
95 0.003996
61 0.004988
47 0.004999
50 0.006975
60 0.00698
70 0.003983
74 0.005987
79 0.006021
82 0.004954
79 0.004982
77 0.006938
79 0.006986
88 0.004954
95 0.004969
101 0.005003
107 0.007975
110 0.006982
114 0.00394
118 0.006
120 0.005984
123 0.005984
126 0.005022
130 0.007975
123 0.007942
83 0.004993
54 0.004968
46 0.00498
51 0.006956
62 0.007981
71 0.005989
77 0.006007
81 0.005954
79 0.005964
74 0.005997
73 0.007979
78 0.007978
88 0.005984
95 0.005985
100 0.004987
105 0.005984
108 0.007973
105 0.006981
109 0.005984
113 0.005984
123 0.005984
112 0.005985
69 0.00595
15 0.00798
5 0.00798
16 0.00599
31 0.005996
40 0.00499
48 0.007983
58 0.008034
59 0.005986
53 0.00698
54 0.00698
59 0.006015
73 0.006977
84 0.006982
92 0.007014
98 0.005985
102 0.005996
106 0.005964
112 0.006984
116 0.00698
125 0.005982
127 0.005992
82 0.006983
30 0.006982
2 0.006976
68 0.007023
74 0.007016
79 0.005983
80 0.005979
85 0.005989
89 0.006016
90 0.005989
89 0.005978
90 0.005981
98 0.005987
103 0.005993
108 0.005985
112 0.005961
115 0.006008
118 0.005983
120 0.005983
121 0.00698
123 0.006016
127 0.006021
125 0.005984
107 0.005985
72 0.005991
69 0.005983
75 0.005979
81 0.00602
84 0.005984
87 0.00596
92 0.005982
95 0.005974
94 0.005018
94 0.004975
95 0.004989
100 0.004933
107 0.00503
113 0.005964
116 0.00599
118 0.005965
120 0.005021
123 0.006016
125 0.005977
128 0.004985
131 0.005019
127 0.004987
106 0.00502
81 0.004958
79 0.005032
89 0.004979
94 0.004962
98 0.004017
103 0.00399
106 0.005024
104 0.005019
103 0.003949
103 0.005021
107 0.005018
113 0.003959
121 0.005021
124 0.004987
128 0.005036
130 0.00495
132 0.004984
134 0.004032
137 0.004985
145 0.00399
119 0.00399
77 0.003938
51 0.003948
50 0.00502
69 0.00498
78 0.005037
85 0.004954
93 0.004981
100 0.004021
101 0.004969
100 0.004952
104 0.004985
111 0.00399
119 0.003989
128 0.00399
135 0.003865
144 0.00399
149 0.003979
153 0.003982
157 0.003978
162 0.003989
168 0.003989
168 0.003974
129 0.003989
86 0.003999
64 0.003031
63 0.003974
72 0.004003
83 0.004005
85 0.003991
93 0.003989
103 0.003978
102 0.003952
100 0.005009
102 0.004029
107 0.002992
118 0.002969
127 0.004058
135 0.003021
141 0.003026
149 0.003031
153 0.002992
156 0.002992
160 0.004022
166 0.003934
174 0.004052
170 0.00399
137 0.002993
87 0.003048
75 0.003025
81 0.003008
93 0.00304
104 0.003033
109 0.003036
117 0.002994
120 0.00303
117 0.003023
115 0.001942
120 0.001993
128 0.003028
140 0.002025
147 0.002025
153 0.001996
156 0.002035
162 0.001997
166 0.001994
172 0.00197
179 0.002992
185 0.001984
174 0.001997
138 0.00296
105 0.002964
96 0.002991
105 0.002952
115 0.002028
123 0.001995
135 0.001955
139 0.001952
138 0.001993
132 0.002027
134 0.002028
140 0.002027
149 0.00199
157 0.001996
165 0.002002
170 0.001987
174 0.001969
178 0.00199
184 0.001997
188 0.002052
193 0.002043
197 0.002028
171 0.001991
129 0.002021
100 0.000999
95 0.000983
104 0.000962
115 0.001017
118 0.000997
126 0.000998
130 0.002029
131 0.002043
129 0.001997
129 0.001994
137 0.001028
143 0.001045
152 0.000997
160 0.001027
166 0.001007
172 0.000997
176 0.000998
181 0.001997
184 0.002018
189 0.002026
194 0.00204
189 0.002041
142 0.001994
108 0.001028
95 0.002012
100 0.002042
110 0.0
120 0.001028
125 0.000997
133 0.000998
131 0.000997
126 0.001
124 0.00105
129 0.000997
139 0.0
147 0.000997
153 0.000998
159 0.000997
163 0.0
170 0.0
174 0.0
181 0.0
184 0.0
184 0.0
158 0.0
118 0.0
92 0.0
96 0.0
107 0.0
116 0.0
122 0.0
132 0.0
134 0.0
129 0.0
128 0.0
132 0.000998
140 0.000998
148 0.000998
156 0.0
161 0.0
167 0.0
169 0.0
172 0.0
175 0.0
178 0.002025
186 0.0
171 0.002044
129 0.002025
84 0.0
77 0.001003
85 0.000961
95 0.002043
103 0.002
110 0.0
116 0.0
118 0.000964
115 0.003024
111 0.001011
115 0.001994
122 0.002984
134 0.000987
142 0.000964
148 0.001013
153 0.002994
157 0.003028
162 0.0
165 0.0
171 0.0
173 0.003025
145 0.0
101 0.002032
75 0.002007
73 0.0
84 0.0
96 0.001
103 0.002028
110 0.002028
116 0.0
115 0.000969
112 0.0
111 0.002025
119 0.0
125 0.002027
133 0.001996
142 0.0
147 0.0
149 0.0
153 0.002017
157 0.002036
161 0.0
166 0.0
164 0.000967
133 0.002027
79 0.001017
73 0.001995
83 0.002038
102 0.00101
111 0.0
120 0.00099
125 0.003023
123 0.002027
115 0.0
115 0.0
119 0.000999
132 0.001014
139 0.0
147 0.00102
153 0.003066
158 0.002992
163 0.0
168 0.0
172 0.0
176 0.002993
160 0.00299
103 0.0
72 0.00199
70 0.000966
82 0.002008
93 0.00196
101 0.003011
109 0.003038
116 0.001994
115 0.002003
111 0.001996
109 0.003024
114 0.00402
125 0.003023
132 0.002001
142 0.003996
147 0.00198
152 0.001996
156 0.002992
158 0.003003
164 0.001987
168 0.001994
153 0.001976
113 0.004018
76 0.00402
63 0.002
71 0.002002
90 0.00201
96 0.001987
104 0.001991
109 0.003002
107 0.002986
103 0.001999
103 0.002995
108 0.002993
116 0.003992
126 0.004022
136 0.002015
143 0.002995
152 0.001998
156 0.001981
158 0.001989
161 0.004023
165 0.004028
164 0.002002
133 0.001998
91 0.002006
69 0.004024
67 0.004988
84 0.001952
97 0.002991
107 0.004989
116 0.001994
117 0.002003
114 0.001992
111 0.004992
112 0.005043
119 0.002991
128 0.001989
137 0.002008
143 0.00406
148 0.004035
153 0.002992
156 0.004987
160 0.002996
164 0.001995
169 0.003028
164 0.005019
130 0.004988
82 0.00299
72 0.001978
81 0.002994
96 0.005019
109 0.004984
122 0.002992
129 0.005985
124 0.002967
118 0.002998
115 0.00299
120 0.005019
128 0.004986
140 0.002989
145 0.00301
151 0.00299
157 0.004986
162 0.006024
164 0.00399
169 0.007019
174 0.003995
174 0.002993
146 0.002987
99 0.005977
68 0.006017
64 0.002988
77 0.003001
89 0.002949
97 0.006024
104 0.005982
113 0.006979
111 0.006983
107 0.004001
109 0.002967
117 0.003991
127 0.00602
138 0.00598
150 0.003965
157 0.002985
163 0.003993
167 0.006017
172 0.005983
178 0.006982
183 0.007971
187 0.006994
163 0.003989
116 0.004028
82 0.003982
74 0.007975
82 0.007022
99 0.00398
107 0.003989
113 0.004985
119 0.006982
117 0.005009
113 0.007017
112 0.007016
118 0.003989
125 0.004988
133 0.004998
139 0.006978
145 0.006989
151 0.003973
154 0.003999
159 0.00399
164 0.007965
168 0.004958
172 0.007976
155 0.008005
112 0.004988
77 0.00502
68 0.00498
77 0.006981
90 0.006977
105 0.004985
114 0.004985
118 0.002008
117 0.007021
106 0.005994
106 0.007976
112 0.007971
122 0.004982
132 0.004961
138 0.004979
143 0.007978
146 0.007977
151 0.004985
155 0.00499
160 0.004988
157 0.007976
108 0.005998
73 0.00798
62 0.007947
77 0.005985
90 0.005985
100 0.005987
112 0.007979
117 0.007975
119 0.004988
115 0.004987
112 0.004974
116 0.005982
133 0.005985
142 0.00598
148 0.007017
153 0.006981
156 0.005987
160 0.005994
165 0.00698
169 0.007976
173 0.007974
156 0.005983
111 0.006978
71 0.005976
64 0.006973
75 0.006017
83 0.00698
86 0.006979
91 0.005998
99 0.005964
103 0.005981
100 0.00698
101 0.005986
109 0.006015
119 0.005981
124 0.006983
138 0.006977
144 0.005993
149 0.006987
152 0.006974
156 0.005959
161 0.006973
167 0.005983
173 0.00598
156 0.00698
98 0.005981
72 0.005982
71 0.005985
90 0.004976
98 0.004997
103 0.006029
111 0.006018
117 0.006978
121 0.006981
119 0.00698
120 0.006014
127 0.006014
139 0.005984
147 0.005982
157 0.004955
161 0.00502
164 0.004962
167 0.006018
169 0.006009
174 0.005987
177 0.005986
182 0.005982
188 0.005002
176 0.005017
121 0.004989
90 0.005986
89 0.006016
106 0.004995
114 0.005004
121 0.005961
129 0.006016
131 0.006013
124 0.005976
121 0.004987
122 0.004983
129 0.005016
138 0.005004
147 0.004986
158 0.004001
163 0.005003
164 0.003985
168 0.004984
172 0.004981
176 0.004945
183 0.004982
184 0.004976
164 0.004983
122 0.004963
88 0.005035
81 0.004984
96 0.003989
106 0.003993
110 0.003998
118 0.004988
123 0.005046
123 0.00503
121 0.004969
123 0.004983
130 0.003982
138 0.004021
147 0.004019
155 0.00399
161 0.004987
165 0.005016
169 0.002969
171 0.004949
173 0.005022
177 0.005032
183 0.004959
185 0.004035
167 0.003988
123 0.003991
86 0.003955
76 0.003992
88 0.002993
98 0.002964
100 0.002998
107 0.004018
113 0.004989
115 0.00399
112 0.00399
113 0.004022
118 0.003958
127 0.004004
134 0.003991
144 0.004041
150 0.002992
156 0.002945
158 0.003008
161 0.00399
163 0.004024
167 0.002992
170 0.002996
177 0.002988
180 0.004024
160 0.003023
116 0.002989
81 0.002975
76 0.002976
89 0.001962
101 0.002992
107 0.003989
115 0.004023
118 0.002941
116 0.003022
111 0.003022
113 0.003024
118 0.002995
128 0.002991
137 0.002992
148 0.001964
153 0.00196
158 0.001965
161 0.002957
164 0.002024
166 0.001995
169 0.001995
177 0.002971
179 0.003005
161 0.003044
117 0.002992
71 0.00201
75 0.002013
86 0.002023
99 0.001996
104 0.002001
110 0.002028
114 0.00203
114 0.002032
110 0.001995
111 0.001995
117 0.001994
126 0.002993
140 0.001999
146 0.002975
151 0.002004
156 0.001957
160 0.001977
161 0.002
166 0.001992
169 0.001995
174 0.002029
178 0.001979
184 0.001026
178 0.00204
107 0.002989
72 0.002038
64 0.00201
75 0.002028
84 0.001003
89 0.001
94 0.000998
100 0.001001
104 0.000998
103 0.000998
101 0.002035
104 0.001988
118 0.001004
126 0.001027
135 0.000961
141 0.001037
147 0.000998
151 0.000967
155 0.0
158 0.00096
161 0.000998
166 0.001041
170 0.0
174 0.0
175 0.002023
141 0.0
95 0.0
68 0.0
69 0.001002
81 0.000996
91 0.000997
97 0.000998
102 0.000993
110 0.000985
108 0.001032
104 0.000997
104 0.001012
111 0.000997
120 0.001024
129 0.0
138 0.0
142 0.0
146 0.0
149 0.0
153 0.0
157 0.0
159 0.0
164 0.001012
172 0.0
167 0.0
130 0.0
87 0.0
64 0.0
71 0.0
84 0.0
96 0.0
104 0.0
114 0.0
117 0.0
112 0.0
108 0.0
110 0.001036
122 0.000963
128 0.000962
140 0.000993
146 0.00304
150 0.003024
155 0.0
159 0.0
162 0.0
164 0.003028
167 0.001969
174 0.003024
178 0.002971
146 0.001008
96 0.0
60 0.0
52 0.001985
61 0.002001
76 0.000995
84 0.000964
89 0.0
96 0.002985
100 0.002024
96 0.003023
94 0.003041
101 0.0
110 0.0
120 0.0
129 0.003022
136 0.003027
141 0.0
145 0.0
149 0.001
152 0.003027
157 0.000972
160 0.003017
165 0.002027
172 0.000965
161 0.0
116 0.000961
70 0.003024
48 0.002028
55 0.000993
69 0.0
79 0.001009
84 0.003022
96 0.0
99 0.002996
96 0.002989
92 0.0
96 0.0
105 0.0
115 0.003005
124 0.003025
134 0.0
140 0.0
144 0.0
147 0.003041
152 0.0
156 0.002028
159 0.002029
164 0.001002
170 0.000987
174 0.0
156 0.0
107 0.001997
66 0.002986
52 0.0
63 0.0
79 0.0
95 0.0
104 0.000942
108 0.003987
105 0.003039
98 0.000967
96 0.0
101 0.0
111 0.002991
121 0.003022
132 0.00101
139 0.0
145 0.0
152 0.0
154 0.0
158 0.002993
160 0.003032
167 0.0
170 0.001999
161 0.003005
117 0.003029
71 0.003027
49 0.00299
56 0.0
72 0.00396
89 0.0
96 0.003018
102 0.003031
103 0.004034
97 0.002997
95 0.002994
99 0.002988
107 0.004026
118 0.002951
129 0.00198
136 0.002992
141 0.002994
148 0.003024
151 0.002043
155 0.004023
158 0.005021
164 0.002005
168 0.001997
156 0.003003
109 0.003942
63 0.004034
43 0.001998
51 0.001997
65 0.001996
80 0.002993
88 0.002994
95 0.005031
97 0.00602
91 0.002971
89 0.002992
93 0.002991
102 0.004025
113 0.003992
123 0.004033
133 0.002992
138 0.001987
146 0.002025
150 0.003
153 0.002995
156 0.005024
160 0.006047
167 0.001996
171 0.002992
155 0.002016
105 0.004998
60 0.004989
42 0.002035
57 0.004987
74 0.00299
82 0.003018
89 0.002988
96 0.005031
96 0.005022
91 0.002997
89 0.001993
93 0.003011
103 0.004986
113 0.004983
125 0.001991
134 0.005997
142 0.003007
146 0.002995
148 0.002984
150 0.006913
154 0.007025
160 0.00299
165 0.003011
169 0.001987
147 0.00502
95 0.00502
48 0.001991
48 0.005986
70 0.002973
84 0.002994
93 0.003999
103 0.007024
108 0.006991
103 0.002991
97 0.003024
98 0.00301
104 0.005984
114 0.005988
127 0.003029
136 0.006023
142 0.003027
146 0.003995
152 0.004035
154 0.00703
156 0.007016
162 0.003997
168 0.002992
155 0.002957
108 0.006979
60 0.006991
40 0.007014
54 0.006981
71 0.006981
86 0.004992
96 0.002976
103 0.005
101 0.007013
93 0.005984
89 0.003945
94 0.002993
103 0.003988
115 0.006019
126 0.006981
138 0.007974
142 0.006994
147 0.004986
151 0.004977
153 0.005051
156 0.007977
161 0.006978
162 0.00399
125 0.003986
69 0.004982
27 0.00797
26 0.007971
46 0.00704
58 0.007016
68 0.006013
76 0.005984
80 0.00402
79 0.007018
75 0.006982
75 0.003991
82 0.003988
93 0.004986
107 0.007979
115 0.00797
125 0.006974
130 0.007978
134 0.005989
137 0.005959
140 0.005994
147 0.007957
151 0.007021
141 0.004986
93 0.003995
42 0.005001
18 0.007972
20 0.007968
49 0.006987
57 0.00699
65 0.006983
72 0.005982
75 0.005977
72 0.006972
69 0.006982
75 0.005979
86 0.005982
97 0.005983
111 0.006948
118 0.006947
128 0.007023
131 0.006981
134 0.006984
137 0.005985
143 0.006976
148 0.006759
154 0.007015
139 0.006991
87 0.005991
40 0.005992
22 0.005954
51 0.005977
64 0.006016
71 0.006999
80 0.006016
84 0.005984
80 0.005984
76 0.006977
76 0.007987
82 0.006978
97 0.006936
104 0.006014
114 0.005843
127 0.005983
131 0.005956
136 0.005987
138 0.005992
142 0.005981
146 0.005967
153 0.006015
153 0.006976
116 0.006015
43 0.006024
17 0.005981
19 0.00598
44 0.005982
54 0.005994
61 0.005989
69 0.006974
74 0.005978
71 0.005952
68 0.005982
70 0.006016
78 0.006017
96 0.005984
107 0.005991
115 0.005984
125 0.005977
131 0.004986
136 0.004957
140 0.004987
144 0.004983
149 0.004959
154 0.004006
160 0.004989
146 0.006015
75 0.005998
30 0.005997
17 0.005981
37 0.004998
49 0.005944
57 0.004981
64 0.005004
75 0.005
77 0.005018
75 0.004948
72 0.004988
77 0.005976
87 0.004965
102 0.004984
112 0.004983
123 0.004987
130 0.004083
134 0.003955
138 0.003978
141 0.007021
147 0.005951
150 0.003961
157 0.005955
163 0.004987
148 0.004961
76 0.004955
36 0.004986
31 0.003989
45 0.004016
59 0.004998
68 0.003982
76 0.003995
84 0.003972
83 0.005007
77 0.004974
75 0.005041
80 0.004988
94 0.004988
105 0.005022
120 0.004046
127 0.003951
132 0.003982
137 0.00395
141 0.003992
145 0.002982
149 0.002997
155 0.003948
162 0.004
159 0.004033
101 0.003948
51 0.003971
33 0.003946
48 0.003035
65 0.002993
78 0.001995
89 0.004026
99 0.002976
98 0.00301
90 0.003992
86 0.00402
89 0.003989
103 0.003982
118 0.002992
130 0.002984
138 0.002993
145 0.002958
150 0.002991
153 0.002994
157 0.004001
160 0.002925
165 0.004038
169 0.003022
150 0.002939
94 0.002996
25 0.003957
22 0.001964
39 0.002996
49 0.002963
55 0.002958
61 0.002992
68 0.001995
69 0.002952
65 0.002984
65 0.003
69 0.003029
77 0.002997
96 0.002013
104 0.002016
113 0.001997
118 0.00201
122 0.002992
126 0.002027
129 0.002984
136 0.002992
143 0.001996
144 0.002025
112 0.001996
61 0.003023
21 0.001964
29 0.002
49 0.00199
57 0.001962
61 0.001959
71 0.001971
76 0.002046
72 0.002041
67 0.002992
68 0.00199
76 0.002026
87 0.001995
104 0.002028
112 0.001026
119 0.001989
122 0.001998
126 0.002026
131 0.001957
137 0.001996
145 0.002993
138 0.001034
97 0.000997
52 0.001995
32 0.001995
47 0.000985
62 0.001961
74 0.001959
84 0.000993
94 0.002004
93 0.00103
89 0.001032
86 0.002011
92 0.001029
103 0.001029
115 0.000952
124 0.000998
135 0.0
140 0.0
144 0.0
149 0.0
154 0.0
159 0.0
164 0.002051
154 0.001004
91 0.001998
51 0.000998
39 0.000998
47 0.000998
64 0.0
68 0.0
75 0.0
89 0.0
92 0.0
92 0.0
93 0.0
99 0.0
111 0.000999
122 0.000998
132 0.0
139 0.0
147 0.0
150 0.000994
153 0.0
159 0.0
163 0.0
168 0.000965
173 0.0
160 0.001077
97 0.000997
63 0.000965
56 0.000998
65 0.000997
81 0.0
85 0.0
94 0.0
103 0.0
104 0.0
103 0.001038
105 0.001008
110 0.0
123 0.0
134 0.0
142 0.0
152 0.000992
159 0.0
161 0.001028
165 0.001046
168 0.000999
172 0.001039
177 0.000998
183 0.001038
190 0.000969
173 0.003039
127 0.002952
88 0.000999
78 0.004034
91 0.003028
106 0.0
112 0.001002
121 0.0
126 0.003041
125 0.001027
118 0.000997
119 0.0
126 0.000995
136 0.002988
147 0.003032
160 0.002992
165 0.003023
171 0.000997
174 0.0
177 0.0
180 0.003023
184 0.003027
194 0.0
192 0.0
160 0.0
114 0.003026
87 0.002999
90 0.003025
103 0.003992
113 0.00101
120 0.0
130 0.0
133 0.002963
132 0.002984
129 0.0
132 0.0
140 0.0
150 0.002991
159 0.003025
170 0.002999
175 0.00303
180 0.0
184 0.000962
185 0.001009
187 0.00303
191 0.00399
198 0.001032
204 0.001
193 0.0
149 0.00302
105 0.002993
86 0.003004
96 0.003039
109 0.0
113 0.0
120 0.0
126 0.003024
130 0.003031
129 0.0
127 0.0
131 0.000953
138 0.002993
147 0.003991
161 0.004001
166 0.003034
172 0.003023
178 0.0
181 0.000999
185 0.0
189 0.003031
193 0.003
200 0.000985
206 0.0
209 0.0
186 0.004037
110 0.000963
89 0.00399
91 0.002998
106 0.0
116 0.0
122 0.0
129 0.002993
134 0.002995
134 0.002982
130 0.0
129 0.002971
135 0.00399
151 0.003003
160 0.003998
168 0.005033
175 0.0
179 0.003982
181 0.004023
184 0.004029
186 0.00505
190 0.003991
195 0.00201
199 0.001045
178 0.002006
133 0.0
99 0.005026
88 0.005028
101 0.003009
116 0.001007
128 0.0
137 0.005039
146 0.005015
146 0.003984
140 0.003027
135 0.002989
141 0.003996
150 0.003024
160 0.005069
166 0.00395
173 0.002972
177 0.003981
181 0.003003
184 0.00399
187 0.004988
192 0.002994
197 0.002992
200 0.002989
145 0.002998
99 0.003
76 0.004001
76 0.006016
91 0.002976
101 0.002968
107 0.002991
114 0.003057
119 0.005985
119 0.005015
113 0.002972
112 0.003014
121 0.002012
129 0.001995
138 0.003026
146 0.005017
153 0.006036
160 0.003041
163 0.002998
167 0.002959
169 0.006014
172 0.00602
177 0.002992
161 0.002995
88 0.002995
62 0.002992
61 0.003019
73 0.006018
86 0.007018
96 0.002994
105 0.002032
112 0.003987
114 0.006027
110 0.00601
108 0.002985
112 0.003956
126 0.003008
135 0.002986
142 0.002996
148 0.005983
154 0.006985
159 0.002977
163 0.002994
167 0.002989
172 0.006944
174 0.006948
142 0.002995
99 0.002989
68 0.004013
77 0.004007
92 0.002991
103 0.005984
111 0.007027
121 0.004007
121 0.003989
114 0.003977
108 0.007023
108 0.007032
118 0.002978
128 0.002995
144 0.004003
150 0.003999
155 0.003961
162 0.00797
167 0.007967
173 0.002976
173 0.004992
149 0.004982
107 0.004983
78 0.007015
73 0.005986
88 0.003991
