178 0.027901
178 0.003991
179 0.004046
138 0.003987
52 0.003025
42 0.002978
60 0.003028
90 0.003989
128 0.003986
142 0.004987
145 0.003995
138 0.002992
136 0.00302
141 0.002987
150 0.003989
159 0.003989
168 0.003989
172 0.00399
175 0.003985
178 0.004987
176 0.004029
94 0.00403
49 0.00399
49 0.003881
74 0.004022
113 0.003989
134 0.004031
147 0.00399
148 0.003016
140 0.00399
137 0.003992
147 0.00399
156 0.00399
163 0.004987
168 0.004987
172 0.002993
175 0.004025
167 0.003989
101 0.004985
44 0.004986
39 0.003989
64 0.003989
84 0.004982
120 0.004995
134 0.005036
137 0.005005
131 0.004987
130 0.00399
134 0.004987
143 0.004972
155 0.004987
161 0.004981
167 0.004995
171 0.003984
160 0.004024
46 0.005019
26 0.005018
35 0.004987
58 0.005019
83 0.005025
102 0.004988
119 0.004031
123 0.005
120 0.004987
119 0.005036
126 0.003989
136 0.005044
152 0.003991
159 0.00502
165 0.006019
167 0.006026
94 0.004988
38 0.004821
28 0.004987
40 0.004977
61 0.005982
84 0.005968
104 0.004955
119 0.005021
116 0.005005
114 0.00502
118 0.00501
127 0.006018
137 0.005985
149 0.00496
157 0.004986
165 0.005982
161 0.006016
98 0.005939
40 0.005994
38 0.005984
62 0.005985
85 0.00602
107 0.006017
125 0.006101
126 0.007028
120 0.005984
119 0.005021
126 0.004986
135 0.005984
145 0.006982
156 0.005028
164 0.006048
167 0.005983
110 0.005983
60 0.005984
51 0.005985
62 0.005989
83 0.005984
116 0.004972
135 0.005987
139 0.006997
133 0.006981
123 0.005984
127 0.005972
143 0.005971
153 0.006013
161 0.006018
168 0.007014
175 0.006016
146 0.004941
99 0.006982
62 0.005989
63 0.006982
79 0.007009
109 0.005983
132 0.006008
140 0.006023
129 0.006018
119 0.005984
122 0.007013
132 0.007051
148 0.005983
157 0.006963
163 0.006981
172 0.007022
163 0.006982
101 0.006982
67 0.006982
70 0.006985
84 0.006966
105 0.006981
122 0.006983
131 0.007979
125 0.006982
117 0.007036
118 0.006981
129 0.007978
137 0.007978
153 0.007014
164 0.007024
171 0.006973
154 0.007014
92 0.007023
65 0.006983
74 0.007977
84 0.006985
94 0.006981
105 0.006971
118 0.007974
119 0.007979
116 0.007934
115 0.00798
125 0.007958
136 0.007022
147 0.006996
157 0.007023
167 0.007988
166 0.007977
118 0.006979
80 0.007979
73 0.007979
86 0.007978
95 0.007978
108 0.007014
116 0.006976
119 0.007011
116 0.007004
116 0.007948
119 0.007974
131 0.007981
139 0.00798
149 0.007979
160 0.006981
168 0.007937
176 0.007009
105 0.007976
82 0.007973
84 0.006994
92 0.006966
100 0.00702
105 0.007
112 0.006981
119 0.007979
121 0.007974
120 0.007013
121 0.006981
127 0.007015
143 0.006981
154 0.006996
166 0.006975
173 0.006949
180 0.006981
186 0.006981
191 0.006981
150 0.006977
99 0.007022
86 0.006982
89 0.006965
96 0.006906
106 0.007984
113 0.00796
122 0.006976
126 0.006995
126 0.007024
126 0.006987
130 0.007016
141 0.006951
152 0.006947
164 0.005933
173 0.005988
180 0.00668
189 0.007033
193 0.007015
197 0.007027
158 0.006974
105 0.006997
90 0.006016
93 0.007019
105 0.006013
113 0.005982
121 0.007018
131 0.005951
137 0.007016
135 0.006987
135 0.005951
142 0.006979
153 0.005982
165 0.005983
174 0.005981
182 0.005979
187 0.006018
192 0.005984
196 0.006018
200 0.006015
203 0.006018
170 0.006008
104 0.006022
86 0.005944
92 0.005977
106 0.00603
124 0.006019
140 0.006018
152 0.005984
154 0.005983
146 0.006027
141 0.005015
150 0.004981
160 0.004975
168 0.005983
175 0.004976
183 0.006021
188 0.006036
192 0.006013
195 0.005983
198 0.005969
150 0.005984
93 0.006018
81 0.006015
100 0.004987
123 0.004984
142 0.004992
157 0.004986
161 0.004989
154 0.006016
147 0.005013
148 0.004751
154 0.005017
164 0.005018
172 0.006032
177 0.005982
185 0.004981
188 0.004983
191 0.005025
187 0.004987
109 0.004988
76 0.004977
74 0.004981
86 0.00502
107 0.00503
132 0.005034
144 0.004724
149 0.004987
143 0.005
140 0.004998
143 0.004996
149 0.005011
159 0.004983
165 0.005021
170 0.004964
175 0.004971
178 0.005092
182 0.005658
174 0.004987
113 0.004987
65 0.004987
70 0.004992
85 0.004973
104 0.005029
126 0.005021
136 0.005026
139 0.003989
136 0.003991
132 0.004399
135 0.003955
141 0.005041
148 0.004031
159 0.003991
163 0.003959
167 0.004029
171 0.004667
173 0.004991
139 0.004708
79 0.003953
60 0.003521
64 0.004039
87 0.004046
108 0.003989
124 0.004224
135 0.003989
133 0.003957
128 0.00399
127 0.003989
132 0.003988
140 0.003991
147 0.003993
153 0.004998
157 0.00399
162 0.003989
166 0.003989
167 0.003988
96 0.004986
63 0.004048
62 0.004016
77 0.003987
101 0.003959
126 0.00399
137 0.003939
139 0.004027
133 0.00401
125 0.003989
127 0.004028
133 0.003979
144 0.004033
150 0.003992
154 0.003989
158 0.003986
161 0.003956
152 0.002961
95 0.002962
60 0.002998
57 0.00403
70 0.003986
102 0.004027
120 0.00399
135 0.003977
131 0.003988
123 0.004006
120 0.004012
124 0.003004
134 0.003989
141 0.003989
147 0.003991
151 0.002991
156 0.003026
159 0.002993
103 0.00299
49 0.002994
46 0.002989
56 0.003023
73 0.00415
92 0.003
111 0.004166
115 0.003023
111 0.003243
104 0.002993
103 0.001998
113 0.002992
125 0.003019
135 0.002959
140 0.002978
145 0.003028
150 0.002995
139 0.002971
63 0.003014
43 0.002994
44 0.001995
55 0.002989
71 0.00298
90 0.002955
106 0.002976
106 0.003027
99 0.001994
98 0.002991
104 0.001995
115 0.002992
127 0.001994
134 0.001995
140 0.002031
145 0.002028
150 0.003031
137 0.002992
65 0.001967
47 0.003023
56 0.003013
73 0.003021
92 0.001998
109 0.00205
119 0.002026
114 0.002026
104 0.001994
102 0.002031
109 0.001995
121 0.001994
135 0.000998
141 0.001979
148 0.000985
153 0.001002
147 0.000995
94 0.000999
54 0.001996
49 0.001997
61 0.002027
78 0.001995
93 0.001995
108 0.001996
112 0.00199
103 0.001994
100 0.000996
108 0.001002
119 0.000999
129 0.001996
136 0.002008
144 0.000986
148 0.002005
152 0.002085
134 0.001988
74 0.001995
44 0.001995
50 0.002025
65 0.001994
75 0.002035
84 0.000997
93 0.000991
95 0.00101
91 0.000963
92 0.000998
99 0.001002
111 0.000997
122 0.000968
136 0.000998
142 0.001049
149 0.001001
148 0.001029
100 0.001003
59 0.001969
47 0.000974
53 0.001
62 0.000998
69 0.000998
77 0.001995
85 0.00199
89 0.000996
88 0.001032
92 0.001002
101 0.001028
112 0.001027
124 0.000996
133 0.0
142 0.0
147 0.000998
152 0.000999
153 0.0
79 0.0
56 0.0
55 0.0
66 0.000999
75 0.000995
82 0.001053
91 0.00105
97 0.0
97 0.001047
95 0.0
98 0.0
108 0.0
128 0.0
139 0.0
146 0.0
153 0.0
156 0.0
160 0.0
164 0.001029
168 0.000955
122 0.0
75 0.0
63 0.0
69 0.0
93 0.0
105 0.0
118 0.0
121 0.0
111 0.001037
106 0.001
110 0.0
121 0.001
135 0.0
148 0.0
155 0.0
159 0.0
165 0.0
168 0.0
172 0.0
154 0.0
94 0.0
66 0.001034
64 0.0
79 0.0
93 0.0
104 0.000969
117 0.001
122 0.0
113 0.001006
114 0.0
124 0.0
136 0.0
147 0.0
156 0.000998
163 0.000996
167 0.0
171 0.0
175 0.000999
179 0.000999
169 0.0
86 0.001031
60 0.0
64 0.0
77 0.0
90 0.001
100 0.001017
115 0.0
119 0.0
118 0.0
113 0.000964
117 0.001008
131 0.0
147 0.001132
155 0.000998
163 0.0
167 0.001002
172 0.002047
176 0.001041
179 0.001022
184 0.0
161 0.0
93 0.000998
65 0.001088
69 0.0
91 0.0
109 0.000993
129 0.000996
136 0.000997
132 0.001995
122 0.001996
120 0.000997
130 0.0
143 0.001048
154 0.000998
161 0.000997
168 0.0
173 0.001996
177 0.000987
180 0.000964
164 0.000996
99 0.002002
69 0.001957
70 0.000997
84 0.000997
100 0.000997
115 0.001996
130 0.001999
136 0.000997
124 0.001996
120 0.001819
129 0.000991
143 0.000999
154 0.0
162 0.002714
168 0.002999
174 0.001006
178 0.000997
182 0.001031
176 0.001995
81 0.000998
65 0.001996
69 0.001998
85 0.001001
96 0.0
105 0.001043
115 0.003042
120 0.002993
116 0.001028
114 0.002045
118 0.000998
127 0.001995
147 0.000987
156 0.002031
163 0.001997
170 0.000997
174 0.001996
175 0.002014
135 0.001994
83 0.002994
68 0.002033
75 0.001945
86 0.001992
96 0.001996
110 0.001961
117 0.001961
117 0.002772
113 0.00285
113 0.002998
121 0.000997
133 0.002995
145 0.00199
158 0.00203
164 0.000998
167 0.001998
172 0.002994
178 0.001996
157 0.002997
95 0.00303
69 0.001992
74 0.002038
87 0.00195
100 0.002993
112 0.002994
125 0.00143
125 0.002993
118 0.002041
112 0.003039
121 0.002953
133 0.00399
145 0.003025
158 0.002024
164 0.002026
168 0.001979
172 0.003026
175 0.003027
162 0.002026
102 0.00201
74 0.002026
74 0.002991
95 0.003041
112 0.004026
128 0.004026
137 0.002017
128 0.00302
115 0.002026
112 0.003029
118 0.002993
134 0.002993
146 0.002992
155 0.002996
160 0.004026
167 0.003043
171 0.004022
163 0.004021
88 0.001971
66 0.003032
67 0.003037
77 0.003961
89 0.003011
100 0.003991
113 0.003016
115 0.002989
108 0.003036
102 0.002984
108 0.003021
118 0.004035
130 0.004038
143 0.002957
149 0.003007
155 0.003024
161 0.00403
164 0.003999
114 0.003097
71 0.003021
60 0.00303
70 0.004006
78 0.004021
84 0.004043
90 0.005047
97 0.003989
96 0.00399
94 0.00399
95 0.004988
100 0.004989
113 0.004023
120 0.00404
135 0.00399
144 0.002962
151 0.003991
157 0.003991
146 0.004988
79 0.003992
60 0.004041
61 0.002991
68 0.004954
77 0.005024
84 0.003997
91 0.004028
96 0.004007
94 0.003011
93 0.004017
98 0.005019
107 0.00503
122 0.004187
133 0.003991
141 0.005028
147 0.005729
153 0.004919
158 0.005012
163 0.005013
100 0.00399
67 0.004928
62 0.003989
70 0.004987
81 0.004986
94 0.004986
103 0.00399
109 0.005033
106 0.006021
99 0.005019
99 0.005035
106 0.004986
125 0.005596
140 0.004159
147 0.005011
152 0.005999
158 0.005998
164 0.005031
164 0.005046
119 0.005027
76 0.005998
66 0.006018
75 0.004986
88 0.004987
103 0.00503
115 0.004988
117 0.00495
107 0.005046
102 0.006021
109 0.00504
120 0.005038
133 0.005011
144 0.005025
151 0.00599
157 0.006028
164 0.00502
169 0.005985
120 0.004986
75 0.005985
62 0.005984
66 0.005988
76 0.006018
88 0.004956
95 0.005026
103 0.005012
105 0.005985
102 0.006013
101 0.005004
110 0.006027
126 0.005027
138 0.005982
147 0.004942
154 0.006944
160 0.005984
165 0.006939
169 0.005989
136 0.005321
82 0.006961
63 0.007025
66 0.006018
78 0.005985
83 0.006023
91 0.004997
98 0.004986
100 0.005985
98 0.005986
101 0.006015
107 0.004947
118 0.004989
130 0.006647
140 0.006982
151 0.005983
159 0.006981
166 0.005983
170 0.006979
171 0.006251
108 0.007486
75 0.006982
71 0.005984
80 0.005985
89 0.006037
96 0.007016
102 0.006976
109 0.005971
108 0.007017
107 0.005983
112 0.00603
121 0.005984
133 0.006973
145 0.006977
154 0.006983
163 0.007067
167 0.006982
172 0.007022
176 0.007441
164 0.007981
106 0.007016
81 0.007016
86 0.007025
97 0.00702
113 0.007974
121 0.007015
132 0.007019
129 0.005984
123 0.006981
117 0.007977
121 0.007979
140 0.00702
151 0.008022
162 0.005981
167 0.007013
172 0.007021
176 0.007947
180 0.007985
152 0.006983
100 0.007565
82 0.006673
85 0.007807
99 0.006967
112 0.006994
121 0.007948
127 0.006984
121 0.006982
115 0.006975
115 0.00794
122 0.007946
137 0.007978
147 0.00717
153 0.007978
161 0.006944
167 0.007979
175 0.006976
169 0.00702
114 0.007978
78 0.006989
78 0.006973
86 0.006981
94 0.00698
100 0.006982
106 0.007978
111 0.007978
111 0.006986
107 0.007978
112 0.006986
120 0.007969
130 0.007979
143 0.006973
150 0.007118
154 0.007012
162 0.006736
168 0.00699
168 0.007218
118 0.007011
82 0.006967
74 0.006985
83 0.00698
90 0.006977
94 0.007974
99 0.006965
104 0.007006
105 0.006958
104 0.006975
105 0.006956
114 0.006978
123 0.006965
133 0.006986
143 0.006977
154 0.006982
160 0.006983
166 0.007194
174 0.006979
163 0.006982
107 0.006981
78 0.006981
74 0.00698
81 0.0
93 0.00602
98 0.005987
104 0.005983
111 0.005991
108 0.005984
106 0.006972
112 0.006984
122 0.007006
134 0.00695
145 0.006965
154 0.006962
162 0.006982
167 0.006973
171 0.006528
175 0.00683
179 0.006981
131 0.007012
86 0.006982
77 0.005976
86 0.005959
99 0.005983
112 0.005983
123 0.006018
129 0.00598
120 0.005989
112 0.006053
117 0.006012
129 0.005984
142 0.005984
153 0.005984
161 0.005987
167 0.00598
171 0.007044
175 0.006791
180 0.005982
177 0.005977
104 0.005977
75 0.005966
79 0.005984
91 0.005986
104 0.006017
115 0.005965
124 0.005983
121 0.006017
113 0.004943
111 0.004986
118 0.005028
129 0.005021
147 0.005964
157 0.006044
168 0.006033
172 0.005988
176 0.005986
179 0.00598
180 0.005019
112 0.005016
73 0.004987
65 0.004984
72 0.004953
82 0.005015
93 0.004986
100 0.005984
109 0.005983
106 0.005988
104 0.004971
107 0.005021
115 0.004977
132 0.00497
145 0.005022
154 0.004978
161 0.004984
166 0.004969
172 0.004976
176 0.00502
163 0.006027
99 0.004997
69 0.005021
65 0.004987
73 0.004986
87 0.00499
93 0.004019
100 0.004989
107 0.003988
108 0.00399
104 0.004002
107 0.004025
124 0.004974
137 0.004975
149 0.00499
158 0.005019
165 0.003979
171 0.003998
174 0.003942
178 0.003989
183 0.003989
179 0.003994
100 0.004984
70 0.004983
75 0.004988
89 0.00402
102 0.005003
112 0.00402
122 0.004981
120 0.003991
112 0.003991
110 0.003991
117 0.004024
131 0.003994
149 0.00402
158 0.003989
168 0.004029
172 0.005005
174 0.004695
178 0.003726
182 0.004006
164 0.004021
99 0.003967
71 0.002993
71 0.003034
83 0.002929
102 0.00404
122 0.003989
136 0.004022
125 0.004025
114 0.003992
114 0.00399
124 0.002993
139 0.003989
155 0.003989
163 0.003985
168 0.002971
172 0.003957
175 0.003957
180 0.004036
182 0.004051
111 0.002948
68 0.002994
60 0.002992
69 0.002973
82 0.002922
97 0.002987
107 0.002993
114 0.002999
111 0.002994
105 0.003023
109 0.003026
120 0.003007
139 0.002968
150 0.003944
158 0.003026
163 0.002986
167 0.004394
172 0.002989
176 0.003031
177 0.002992
135 0.003028
76 0.002961
57 0.003005
65 0.003989
79 0.002992
84 0.002993
91 0.002992
99 0.002997
100 0.002992
98 0.002
101 0.002999
109 0.002994
122 0.002992
136 0.002988
152 0.002992
158 0.004034
164 0.004048
168 0.003035
172 0.002991
176 0.00299
168 0.002989
89 0.002982
63 0.001939
63 0.001976
73 0.001939
85 0.001996
98 0.002992
107 0.003024
109 0.00296
104 0.002984
105 0.001995
112 0.001995
126 0.001994
145 0.001995
155 0.002025
162 0.00203
166 0.001994
169 0.001994
175 0.002005
180 0.001996
173 0.003029
114 0.003033
74 0.002046
69 0.001994
80 0.00197
102 0.001985
116 0.001996
129 0.003007
133 0.002041
123 0.002017
114 0.001962
122 0.002
136 0.002029
153 0.001996
161 0.001987
167 0.00199
171 0.001993
174 0.002049
179 0.001019
183 0.001026
161 0.002005
96 0.002051
63 0.00203
72 0.002027
87 0.00202
104 0.000999
115 0.000982
121 0.000986
118 0.001995
111 0.00096
113 0.000998
124 0.000997
139 0.000997
151 0.000952
164 0.001995
168 0.001995
172 0.000997
177 0.001031
181 0.002016
177 0.001035
122 0.001032
71 0.000997
59 0.000982
68 0.002014
79 0.001006
87 0.001994
100 0.001003
106 0.000982
106 0.000964
104 0.000987
109 0.000996
120 0.001021
134 0.001027
147 0.000997
158 0.001011
164 0.000986
168 0.001036
172 0.000996
179 0.001001
178 0.000997
131 0.001
68 0.0
62 0.001003
70 0.0
83 0.0
91 0.000996
102 0.001001
110 0.001034
112 0.0
109 0.000997
114 0.0
125 0.0
138 0.0
154 0.0
162 0.0
167 0.0
171 0.001012
175 0.001046
179 0.001014
184 0.000997
183 0.000997
93 0.000997
68 0.000997
71 0.000998
85 0.0
106 0.0
118 0.0
130 0.0
130 0.001
120 0.000999
115 0.001013
122 0.0
136 0.0
155 0.0
163 0.0
167 0.0
170 0.0
173 0.0
178 0.0
181 0.0
166 0.0
104 0.0
68 0.000997
69 0.001978
84 0.001014
111 0.001044
124 0.001003
129 0.0
123 0.000999
114 0.000999
116 0.001997
127 0.00104
145 0.0
156 0.0
163 0.0
168 0.001034
171 0.0
177 0.000999
180 0.001989
175 0.000998
97 0.0
63 0.0
59 0.0
69 0.001
86 0.0
94 0.0
100 0.001005
110 0.000948
109 0.001
106 0.000999
112 0.000998
129 0.0
142 0.0
152 0.0
159 0.001031
164 0.001
168 0.0
173 0.0
177 0.0
161 0.001001
99 0.00101
58 0.001028
63 0.002043
75 0.000997
85 0.0
92 0.0
102 0.001033
105 0.001
102 0.0
103 0.0
110 0.0
121 0.001036
135 0.00204
151 0.000999
158 0.000999
163 0.0
167 0.0
170 0.00097
176 0.001992
156 0.001996
81 0.0
65 0.0
70 0.0
82 0.001996
94 0.000998
111 0.001995
118 0.001002
112 0.000944
106 0.000996
109 0.0
118 0.002028
131 0.001996
146 0.0
155 0.0
160 0.000966
164 0.001993
170 0.000996
174 0.001036
169 0.001995
99 0.000972
73 0.000997
72 0.001005
82 0.001997
95 0.001999
110 0.0
120 0.002003
121 0.001
113 0.002059
108 0.001008
115 0.002021
127 0.002038
139 0.002005
152 0.002001
159 0.001994
163 0.001037
167 0.001948
171 0.001994
176 0.000997
145 0.001995
90 0.001
69 0.001996
76 0.001996
86 0.001961
95 0.001986
103 0.002049
107 0.001002
106 0.002156
102 0.002845
102 0.003092
111 0.001962
122 0.002168
133 0.000998
149 0.000998
155 0.001007
160 0.003026
164 0.002992
170 0.002004
174 0.00197
164 0.002002
105 0.004048
74 0.003027
69 0.001995
76 0.002038
84 0.000997
91 0.002038
97 0.001994
100 0.003024
99 0.003028
99 0.000965
103 0.000997
111 0.001995
121 0.002993
132 0.002991
144 0.001995
151 0.001956
156 0.001977
163 0.002027
168 0.001995
174 0.004021
174 0.00298
109 0.002743
76 0.003102
70 0.003044
77 0.004082
86 0.002991
96 0.002997
102 0.001986
107 0.001995
104 0.001989
101 0.002036
105 0.003993
113 0.003989
128 0.002959
139 0.002945
147 0.003036
154 0.003989
159 0.004024
164 0.001958
168 0.002993
173 0.002993
179 0.002045
140 0.002997
90 0.00399
76 0.004
83 0.002993
96 0.002993
107 0.002982
117 0.004002
125 0.004036
121 0.004073
111 0.003949
110 0.003008
123 0.003019
135 0.002991
147 0.003039
156 0.00399
163 0.005206
169 0.002994
172 0.002991
175 0.002994
180 0.004025
182 0.00403
127 0.003992
85 0.003041
78 0.00402
87 0.003025
98 0.003028
106 0.003989
114 0.005021
117 0.002997
113 0.002994
109 0.003955
111 0.004989
118 0.004988
134 0.003982
148 0.004987
159 0.002991
166 0.002996
170 0.003989
174 0.00504
177 0.00502
183 0.00303
177 0.003961
119 0.003993
80 0.00504
72 0.005019
80 0.004021
92 0.004986
99 0.004023
105 0.004036
108 0.003989
106 0.004954
104 0.004988
108 0.003988
115 0.004984
126 0.004038
137 0.006016
147 0.005985
156 0.003957
163 0.005018
169 0.004024
172 0.004021
177 0.003985
182 0.004982
174 0.006018
98 0.004987
75 0.004048
75 0.004006
84 0.005985
94 0.005986
103 0.003989
111 0.004987
111 0.004011
106 0.003994
105 0.004018
110 0.005994
119 0.006018
133 0.004983
143 0.004988
150 0.004989
156 0.006032
160 0.006032
164 0.004949
171 0.006019
176 0.003991
143 0.003987
97 0.00399
84 0.004983
88 0.005981
102 0.004996
114 0.00499
124 0.004967
130 0.005988
126 0.006037
116 0.004994
115 0.006017
125 0.00502
135 0.003984
145 0.003996
153 0.005018
159 0.00603
163 0.006027
169 0.004954
174 0.004981
177 0.003989
150 0.005984
103 0.005987
87 0.005996
95 0.005981
108 0.005018
115 0.004983
121 0.006029
123 0.00702
119 0.00598
114 0.005429
116 0.006278
121 0.006024
130 0.005986
139 0.00598
150 0.005969
154 0.005984
158 0.004986
162 0.005003
166 0.005984
168 0.006983
136 0.006982
92 0.006011
86 0.006019
92 0.005977
100 0.007019
107 0.006983
112 0.006988
109 0.007017
107 0.004989
105 0.004995
107 0.005982
112 0.006982
122 0.006982
136 0.005988
144 0.005988
150 0.005986
156 0.007019
164 0.006015
171 0.006967
176 0.006982
128 0.006015
84 0.005986
72 0.005954
77 0.006984
88 0.00633
97 0.006884
101 0.00598
106 0.005988
108 0.006977
106 0.00595
107 0.006981
112 0.007014
122 0.006023
132 0.00604
141 0.006014
148 0.007017
153 0.00704
160 0.006003
165 0.006028
170 0.006766
181 0.00797
147 0.006016
92 0.007972
73 0.007977
79 0.006987
91 0.006982
99 0.006981
103 0.007975
108 0.00797
109 0.007022
105 0.006977
105 0.006951
107 0.006979
120 0.006982
135 0.007805
144 0.00797
151 0.007017
157 0.005987
162 0.006989
168 0.006979
174 0.007975
180 0.007978
189 0.006996
143 0.006982
88 0.007013
75 0.006964
87 0.007016
105 0.007025
113 0.007966
122 0.006978
122 0.006981
109 0.006982
105 0.007682
109 0.007341
119 0.006985
137 0.00698
149 0.006969
163 0.006982
167 0.00698
172 0.006982
176 0.006986
182 0.006982
190 0.00699
183 0.006981
94 0.006978
67 0.006954
71 0.006982
84 0.007011
98 0.006956
115 0.006965
119 0.006981
112 0.007013
102 0.007014
101 0.006982
108 0.006979
127 0.007013
142 0.006987
154 0.006997
164 0.006983
173 0.006952
178 0.006982
185 0.007012
192 0.007016
199 0.007017
173 0.007012
72 0.006983
50 0.006018
53 0.007009
65 0.005987
78 0.005951
87 0.006985
93 0.005985
96 0.005987
89 0.006986
90 0.007013
97 0.007012
109 0.007014
130 0.007014
145 0.006985
155 0.007013
164 0.005975
171 0.00598
178 0.00598
184 0.005985
190 0.005983
203 0.006029
193 0.006016
101 0.006014
49 0.007013
42 0.007014
53 0.007034
67 0.00596
76 0.005981
82 0.00598
90 0.006014
90 0.005987
87 0.006014
93 0.006017
105 0.006034
122 0.00601
140 0.005039
158 0.006021
168 0.006657
176 0.005982
183 0.005985
188 0.005983
193 0.005982
200 0.005987
208 0.006017
218 0.005005
198 0.005702
94 0.005953
44 0.005945
39 0.005917
58 0.005418
79 0.004991
92 0.005001
103 0.004972
111 0.005017
102 0.006038
93 0.005969
103 0.006019
120 0.006019
141 0.005978
158 0.005996
171 0.005019
182 0.00502
187 0.005018
191 0.004998
194 0.005028
197 0.004989
201 0.005017
210 0.005019
216 0.005032
155 0.006031
63 0.005985
38 0.005985
44 0.004994
76 0.005989
102 0.004939
122 0.004984
135 0.004984
128 0.005016
104 0.004952
102 0.005018
122 0.00502
144 0.00499
163 0.005028
176 0.004022
184 0.004022
191 0.003992
195 0.004019
198 0.003989
201 0.004962
204 0.004956
209 0.00497
218 0.005019
167 0.005019
61 0.00402
26 0.005002
28 0.003958
44 0.005024
73 0.003979
88 0.003945
102 0.003957
106 0.003959
98 0.003957
88 0.005019
97 0.005028
122 0.004991
143 0.004985
160 0.004988
171 0.004993
179 0.004021
185 0.004021
189 0.00398
193 0.003959
196 0.003957
199 0.003989
207 0.004966
214 0.003991
129 0.004021
41 0.004021
20 0.003998
27 0.003993
46 0.003991
72 0.004036
84 0.003973
94 0.003988
96 0.004001
90 0.004007
84 0.004996
95 0.003024
113 0.002992
141 0.004035
157 0.003046
168 0.004021
175 0.004021
180 0.00399
185 0.004037
188 0.002941
192 0.003993
196 0.00299
208 0.003988
183 0.002992
80 0.002991
27 0.002992
33 0.00399
55 0.003961
83 0.003954
103 0.00399
123 0.00402
119 0.004027
102 0.003017
90 0.00299
104 0.002979
125 0.003989
145 0.003988
165 0.003989
173 0.003014
178 0.003025
182 0.002992
185 0.003028
188 0.002976
193 0.002027
198 0.002998
168 0.001996
36 0.003004
24 0.003028
36 0.002992
68 0.002992
88 0.001995
104 0.001996
113 0.002988
105 0.002991
90 0.002991
91 0.001994
104 0.001996
124 0.001995
155 0.001993
166 0.001997
174 0.003044
180 0.003031
184 0.002992
187 0.003029
191 0.002998
196 0.003027
178 0.003025
80 0.001996
24 0.001996
16 0.00296
39 0.001989
56 0.002993
65 0.001995
75 0.001995
79 0.001995
77 0.001995
75 0.003035
80 0.002949
98 0.003013
117 0.002986
136 0.002979
150 0.002991
165 0.003035
170 0.001995
175 0.002992
181 0.001962
187 0.002056
190 0.001991
135 0.001995
52 0.001996
25 0.001995
36 0.002044
55 0.002993
71 0.001032
90 0.001996
98 0.002005
94 0.000998
85 0.002055
90 0.001995
104 0.002004
123 0.000994
143 0.001033
157 0.002023
169 0.002003
174 0.002
178 0.001994
185 0.001995
191 0.001995
190 0.001997
124 0.000998
42 0.001001
35 0.002038
50 0.002033
74 0.001039
94 0.001036
115 0.002004
119 0.000997
108 0.000996
96 0.001015
105 0.000988
124 0.001992
144 0.000997
165 0.001995
174 0.001996
180 0.001995
185 0.001007
188 0.000993
194 0.001044
199 0.001021
174 0.001006
42 0.000998
27 0.00102
36 0.000977
55 0.000962
74 0.000998
85 0.001004
95 0.001031
94 0.001033
88 0.001011
89 0.000997
100 0.000998
131 0.000961
148 0.001996
161 0.000991
170 0.000996
176 0.000997
181 0.000998
186 0.001995
191 0.000997
197 0.000998
174 0.0
58 0.0
27 0.0
38 0.0
54 0.000999
65 0.0
72 0.0
81 0.000997
85 0.000998
83 0.001003
85 0.000997
94 0.000997
111 0.0
136 0.0
152 0.0
169 0.0
176 0.0
181 0.0
186 0.0
190 0.0
197 0.000998
204 0.000998
203 0.000997
128 0.000998
51 0.0
34 0.0
48 0.0
80 0.0
91 0.0
102 0.0
106 0.0
99 0.0
95 0.0
102 0.0
119 0.0
139 0.0
157 0.001002
171 0.0
178 0.0
185 0.0
188 0.0
192 0.0
198 0.0
205 0.0
181 0.0
67 0.000999
39 0.000963
45 0.0
74 0.001
95 0.000997
111 0.000988
124 0.0
113 0.001022
105 0.000998
114 0.0
125 0.000997
153 0.0
170 0.001
181 0.000998
191 0.0
196 0.0
201 0.0
204 0.001003
208 0.000997
215 0.001044
220 0.001031
147 0.0
52 0.0
25 0.0
31 0.000997
50 0.000984
67 0.000997
81 0.0
91 0.0
97 0.002001
94 0.0
97 0.001067
108 0.001033
133 0.0
153 0.00096
168 0.0
178 0.000998
185 0.001006
192 0.0
196 0.0
200 0.001063
205 0.002048
215 0.0
203 0.001999
107 0.001989
31 0.0
31 0.0
51 0.0
75 0.001003
91 0.001032
109 0.0
116 0.0
112 0.0
106 0.001003
116 0.0
136 0.001997
156 0.001995
176 0.000971
185 0.0
192 0.000999
196 0.001995
200 0.001995
205 0.0
210 0.0
216 0.0
140 0.000956
56 0.0
36 0.001989
49 0.002051
91 0.000956
119 0.001996
139 0.002
146 0.001995
138 0.002023
119 0.001992
120 0.0
135 0.0
166 0.00103
179 0.001011
189 0.001987
195 0.001995
202 0.001031
206 0.000999
210 0.001024
215 0.00203
196 0.001995
96 0.001996
24 0.001994
27 0.001964
71 0.002029
96 0.000993
115 0.000987
127 0.001996
124 0.001995
109 0.001995
108 0.000998
121 0.000997
140 0.002003
158 0.003031
175 0.002008
183 0.001992
193 0.001028
197 0.000997
201 0.0
206 0.001997
206 0.003025
99 0.001994
25 0.001039
13 0.001994
26 0.003044
51 0.002992
78 0.002
92 0.002028
104 0.001027
98 0.001022
94 0.001003
101 0.002992
117 0.003044
143 0.001005
159 0.000997
170 0.001962
178 0.003018
184 0.003024
189 0.001992
194 0.001998
201 0.001991
156 0.000997
59 0.000998
22 0.002998
26 0.00399
60 0.000994
87 0.001003
106 0.001049
121 0.003019
121 0.002989
103 0.002034
99 0.001035
123 0.001997
142 0.001981
158 0.002003
168 0.004039
175 0.004021
182 0.001991
186 0.001993
191 0.001996
196 0.003988
172 0.003988
54 0.000975
23 0.002018
46 0.00196
76 0.002002
101 0.002001
120 0.00403
128 0.003992
113 0.002027
103 0.001983
107 0.002016
124 0.003023
143 0.003989
163 0.001997
174 0.001995
184 0.001994
189 0.001996
192 0.000966
197 0.004028
201 0.002992
148 0.001031
48 0.001995
13 0.002996
16 0.004041
35 0.004023
61 0.002977
76 0.003977
88 0.001995
86 0.002009
82 0.00299
85 0.00399
97 0.003989
115 0.003989
140 0.002999
154 0.001988
163 0.002959
170 0.004989
175 0.005022
182 0.004995
187 0.00399
195 0.003041
185 0.001999
97 0.003003
29 0.005023
17 0.005024
35 0.002994
56 0.003989
69 0.002992
81 0.004986
90 0.004986
88 0.00399
88 0.004992
100 0.003002
118 0.003013
138 0.003993
154 0.003989
165 0.004021
174 0.003995
179 0.003988
183 0.003988
186 0.005018
190 0.004987
201 0.004987
207 0.005014
137 0.004049
51 0.002991
28 0.003977
38 0.005986
64 0.006014
95 0.00399
111 0.002993
121 0.003025
115 0.006021
103 0.00508
105 0.004986
122 0.005024
147 0.004046
161 0.003982
170 0.003992
176 0.004988
181 0.005985
185 0.003988
189 0.003989
193 0.00399
200 0.004983
199 0.004981
70 0.005017
28 0.006032
36 0.00403
60 0.004021
85 0.004003
103 0.005986
118 0.005987
114 0.003978
103 0.003987
102 0.00396
113 0.005981
132 0.005299
161 0.005023
172 0.005984
181 0.004007
186 0.003981
191 0.004984
194 0.006016
197 0.005984
204 0.004988
209 0.005026
176 0.004022
71 0.006035
20 0.006018
25 0.006026
45 0.006018
62 0.00494
72 0.00399
83 0.00399
86 0.005983
84 0.005984
85 0.00598
100 0.005031
118 0.00398
138 0.004023
154 0.005991
170 0.00501
176 0.007041
181 0.006982
187 0.004992
192 0.005006
199 0.004943
200 0.005985
138 0.005984
36 0.00499
24 0.004032
37 0.003955
71 0.004972
84 0.004995
98 0.007015
104 0.006981
99 0.005016
97 0.004984
104 0.004988
122 0.005984
142 0.005979
162 0.004984
172 0.004994
179 0.005985
187 0.005982
191 0.005977
196 0.006982
203 0.006982
171 0.004987
80 0.004992
38 0.005006
39 0.007015
62 0.006981
99 0.006015
120 0.005981
135 0.005166
123 0.004961
112 0.00501
114 0.007009
129 0.006943
153 0.004989
168 0.004945
178 0.00595
185 0.007976
189 0.008005
194 0.004979
199 0.006001
203 0.005955
120 0.00598
43 0.006012
25 0.006982
37 0.007009
69 0.006023
89 0.006015
105 0.006014
115 0.007978
107 0.007975
100 0.005982
103 0.00599
118 0.005983
150 0.005983
163 0.005979
173 0.006987
179 0.007979
185 0.006008
190 0.005957
195 0.006033
200 0.007968
188 0.007978
69 0.005985
21 0.006985
17 0.005984
43 0.005991
57 0.005958
66 0.007968
78 0.007945
85 0.00698
84 0.005997
86 0.006981
95 0.007974
119 0.007936
139 0.006028
154 0.00599
165 0.006983
176 0.007014
181 0.006995
185 0.005985
191 0.007979
200 0.007022
181 0.006981
119 0.007139
29 0.00698
22 0.007979
36 0.006982
55 0.006978
71 0.00698
90 0.006977
94 0.006949
93 0.006981
91 0.007979
96 0.007981
117 0.006015
138 0.00598
159 0.006979
169 0.007013
176 0.007974
181 0.00604
186 0.006975
194 0.006972
201 0.006985
201 0.006971
108 0.006981
44 0.006964
37 0.006981
57 0.007056
75 0.006981
101 0.007015
118 0.00703
122 0.006986
112 0.006978
109 0.006978
118 0.00697
143 0.005984
160 0.007014
172 0.007024
181 0.00698
188 0.006981
193 0.006982
196 0.006986
202 0.007017
207 0.006678
134 0.006978
37 0.006981
27 0.006017
41 0.00698
64 0.007013
82 0.006963
101 0.006981
109 0.006974
107 0.006981
101 0.007
104 0.006981
122 0.006994
148 0.006981
167 0.007016
174 0.00698
183 0.005987
188 0.00597
192 0.006021
198 0.006016
204 0.005979
209 0.005993
187 0.00602
87 0.006022
22 0.005956
28 0.006022
53 0.006019
66 0.006015
77 0.005985
90 0.005985
95 0.005985
93 0.005985
96 0.006008
108 0.006001
126 0.006015
146 0.005982
165 0.006967
177 0.005869
186 0.005776
191 0.006189
195 0.006026
200 0.005982
206 0.00601
213 0.006015
187 0.006018
85 0.005949
31 0.006017
26 0.005451
43 0.006019
79 0.006027
93 0.00602
110 0.006014
111 0.006024
106 0.004987
106 0.005022
116 0.005017
141 0.005017
158 0.005002
172 0.005029
181 0.006016
188 0.005744
196 0.005988
201 0.004986
209 0.004987
214 0.004988
189 0.005014
97 0.004981
43 0.004948
45 0.004987
73 0.004986
104 0.005957
127 0.004987
143 0.005994
136 0.00471
125 0.004988
128 0.005098
143 0.004993
159 0.004983
174 0.004983
185 0.003991
195 0.005014
200 0.003986
205 0.003992
209 0.005023
214 0.005022
163 0.003951
64 0.004231
25 0.005028
39 0.005048
69 0.004367
98 0.003942
118 0.004996
133 0.005018
128 0.005023
118 0.00402
116 0.003989
126 0.00399
155 0.00399
170 0.003989
184 0.00449
191 0.004024
197 0.004023
201 0.004016
205 0.003991
212 0.003989
194 0.004018
93 0.004051
22 0.003991
17 0.00396
40 0.00398
64 0.003991
85 0.004987
100 0.004955
104 0.004033
100 0.004019
98 0.004023
111 0.004032
128 0.004561
146 0.004503
161 0.004477
178 0.004
184 0.003989
190 0.003991
198 0.004022
204 0.004024
185 0.00399
87 0.003977
22 0.003989
14 0.003986
32 0.003989
55 0.003989
71 0.003991
97 0.00399
102 0.004017
99 0.004023
98 0.00302
111 0.003024
129 0.004019
147 0.002992
162 0.004061
174 0.002992
184 0.003025
190 0.003033
196 0.004023
206 0.00395
205 0.003989
140 0.004024
48 0.00399
19 0.002992
34 0.002993
62 0.002992
87 0.002995
105 0.003008
121 0.004026
117 0.002992
109 0.003023
115 0.003944
132 0.003999
149 0.00399
164 0.004
177 0.004031
184 0.002957
190 0.002992
195 0.002991
199 0.002993
207 0.002997
183 0.003039
89 0.002992
25 0.002961
40 0.003037
72 0.00399
102 0.001995
130 0.003023
136 0.003034
127 0.002989
115 0.00304
114 0.002992
132 0.003016
150 0.002992
164 0.002981
181 0.002059
188 0.002992
194 0.00196
198 0.002029
205 0.001995
208 0.001995
163 0.001997
59 0.001997
15 0.001986
21 0.002956
46 0.002031
72 0.002028
104 0.002041
112 0.001996
108 0.001994
101 0.001995
105 0.001994
120 0.002993
138 0.001997
154 0.002001
167 0.00199
178 0.000999
184 0.001953
190 0.002982
198 0.001995
204 0.002028
180 0.001995
78 0.002053
11 0.002969
12 0.002963
30 0.002962
53 0.001994
69 0.001994
90 0.002009
97 0.002032
94 0.001965
94 0.001987
106 0.002028
124 0.002007
143 0.00202
162 0.002001
171 0.002028
179 0.002043
185 0.000998
190 0.001007
196 0.000998
201 0.001998
114 0.001
25 0.001996
20 0.001994
37 0.001996
64 0.001992
85 0.000998
109 0.000989
116 0.000999
112 0.000997
105 0.001004
108 0.001007
128 0.000996
151 0.001027
168 0.001999
177 0.001995
184 0.001998
190 0.002028
195 0.001996
203 0.001034
189 0.000996
105 0.000997
41 0.000998
30 0.000997
59 0.001002
100 0.001005
130 0.000997
138 0.000998
130 0.000997
117 0.001005
115 0.000998
132 0.002052
149 0.001997
163 0.000997
174 0.001995
182 0.000998
189 0.001996
197 0.000997
202 0.000987
156 0.001003
60 0.000998
21 0.000997
23 0.000997
55 0.001001
82 0.000997
103 0.00099
118 0.000998
116 0.0
101 0.000997
103 0.001041
124 0.001018
142 0.0
156 0.001025
166 0.000997
173 0.000997
181 0.0
186 0.0
192 0.0
184 0.0
102 0.0
16 0.001005
13 0.0
37 0.001001
53 0.0
66 0.0
80 0.000997
85 0.000997
81 0.0
82 0.0
92 0.0
109 0.0
129 0.0
149 0.0
161 0.0
169 0.00099
175 0.0
181 0.0
180 0.00097
143 0.0
35 0.0
15 0.002024
26 0.0
38 0.0
56 0.0
69 0.000961
84 0.000997
85 0.0
83 0.002028
90 0.002029
110 0.0
130 0.0
147 0.0
159 0.00105
167 0.001035
175 0.0
180 0.000963
186 0.0
192 0.0
138 0.0
54 0.001994
28 0.001995
38 0.0
58 0.0
77 0.0
94 0.001994
108 0.002994
105 0.0
96 0.0
105 0.0
122 0.0
141 0.00096
156 0.001032
167 0.002036
175 0.0
180 0.0
184 0.0
190 0.002028
195 0.00204
155 0.0
68 0.001005
31 0.0
46 0.0
70 0.0
92 0.002042
112 0.002037
120 0.0
110 0.000961
102 0.0
106 0.001016
122 0.001032
141 0.000985
162 0.0
178 0.0
184 0.0
189 0.001248
195 0.000996
200 0.001995
186 0.0
94 0.000996
34 0.000993
23 0.001996
33 0.001995
57 0.0
71 0.0
94 0.0
98 0.0
94 0.0
92 0.00202
100 0.001995
123 0.0
142 0.000968
158 0.0
169 0.001996
177 0.00204
185 0.000968
192 0.0
198 0.0
147 0.0
58 0.0
26 0.001991
28 0.002034
48 0.000987
63 0.000995
76 0.002014
92 0.002999
100 0.002994
97 0.000996
97 0.001994
111 0.002992
137 0.001995
154 0.001995
168 0.001996
178 0.002002
185 0.00199
192 0.000965
199 0.001021
205 0.000967
187 0.00203
97 0.002992
36 0.002019
42 0.002986
70 0.000984
90 0.00296
110 0.001994
123 0.002993
118 0.002993
104 0.001994
105 0.001998
119 0.00198
138 0.003033
155 0.00301
171 0.001018
181 0.003059
188 0.001015
195 0.002029
201 0.001988
180 0.003024
90 0.002993
37 0.002015
39 0.001971
55 0.001995
76 0.002993
95 0.002992
118 0.001995
113 0.001996
99 0.002027
101 0.00105
114 0.001971
132 0.003989
150 0.004023
168 0.001996
177 0.001984
184 0.001993
190 0.002992
196 0.004027
189 0.001964
75 0.002961
32 0.000997
34 0.001965
47 0.001995
60 0.003045
71 0.004048
86 0.002959
90 0.001992
87 0.002003
85 0.00399
89 0.004023
110 0.003035
127 0.003028
148 0.002049
160 0.002962
168 0.002003
176 0.002977
185 0.00399
183 0.001994
107 0.001994
51 0.00199
36 0.003989
41 0.00404
61 0.003966
70 0.003997
83 0.002027
89 0.002056
88 0.001995
86 0.002992
89 0.00399
101 0.002027
116 0.002991
132 0.00298
145 0.003948
156 0.003955
171 0.003961
180 0.00404
185 0.004991
106 0.002008
57 0.002
46 0.001995
53 0.003989
67 0.003983
85 0.002991
99 0.003998
106 0.003004
101 0.004987
90 0.003015
95 0.004987
107 0.004988
126 0.002953
140 0.002953
151 0.002992
160 0.004988
169 0.004987
181 0.002992
167 0.002961
95 0.002045
56 0.005045
54 0.003008
68 0.00499
81 0.004989
99 0.003002
107 0.003003
102 0.001995
94 0.005026
92 0.004997
103 0.003992
116 0.003002
131 0.002953
143 0.005021
159 0.002998
168 0.006039
177 0.006033
151 0.002991
80 0.002977
49 0.002995
45 0.005011
54 0.00494
68 0.002988
76 0.002994
86 0.002991
91 0.005024
86 0.003995
85 0.005985
92 0.005984
107 0.003989
121 0.003989
133 0.003984
143 0.005019
152 0.005062
166 0.003028
172 0.00298
124 0.002992
65 0.006022
43 0.003999
50 0.00603
60 0.00604
69 0.004015
79 0.003953
86 0.002992
87 0.005984
85 0.005985
89 0.003028
97 0.004983
109 0.004974
123 0.006015
143 0.00481
152 0.005719
162 0.005875
175 0.004947
182 0.003993
139 0.003017
73 0.006965
49 0.006965
52 0.004986
64 0.004992
73 0.004985
80 0.005988
94 0.00399
96 0.005981
92 0.00599
94 0.00602
104 0.003998
117 0.003994
132 0.004986
146 0.007014
158 0.007015
170 0.003996
177 0.004995
188 0.004023
197 0.003021
207 0.004955
176 0.005986
92 0.006805
56 0.004955
60 0.00499
74 0.004989
89 0.007028
101 0.005988
114 0.005
112 0.00499
100 0.004987
104 0.004975
115 0.004935
130 0.006981
147 0.007019
165 0.004985
174 0.004993
182 0.00396
189 0.007015
194 0.007974
205 0.005985
213 0.004986
121 0.004985
66 0.005003
54 0.006018
62 0.006986
78 0.007014
97 0.00402
110 0.004952
118 0.004954
113 0.007022
104 0.006978
106 0.004999
118 0.004992
147 0.005018
164 0.005952
177 0.004928
188 0.007026
196 0.006982
204 0.005022
210 0.005945
215 0.005979
222 0.006977
224 0.006975
112 0.005017
53 0.005958
44 0.005987
58 0.00595
71 0.005984
83 0.007983
90 0.007979
98 0.005989
96 0.004992
94 0.005985
102 0.007978
110 0.007979
134 0.005985
152 0.00698
176 0.005985
186 0.006006
194 0.005978
202 0.007973
206 0.007983
216 0.006004
223 0.005987
216 0.005987
89 0.007672
46 0.007947
41 0.00595
55 0.005943
84 0.005981
98 0.005953
111 0.005987
113 0.007
105 0.006973
102 0.007018
110 0.006978
127 0.005972
156 0.006979
174 0.007014
188 0.007018
197 0.006004
207 0.007982
212 0.005017
218 0.006019
226 0.00698
191 0.006982
90 0.006983
50 0.006977
54 0.006983
77 0.006981
106 0.007015
133 0.007013
154 0.006978
136 0.006981
118 0.006975
117 0.006936
138 0.006962
160 0.007013
179 0.007008
192 0.006977
202 0.005947
208 0.006978
214 0.005988
220 0.007026
207 0.007014
103 0.007013
44 0.006943
38 0.006971
57 0.005993
84 0.007013
110 0.00713
138 0.006979
136 0.006978
119 0.006814
107 0.005866
111 0.006016
143 0.005985
164 0.005934
185 0.005985
195 0.005984
201 0.005988
208 0.00698
213 0.006976
215 0.005978
147 0.006957
50 0.006948
21 0.007014
31 0.006948
65 0.00599
81 0.005984
103 0.006983
106 0.005984
99 0.005974
92 0.006007
98 0.006017
119 0.005984
141 0.006005
161 0.006015
176 0.006022
186 0.006014
199 0.005969
207 0.005982
173 0.005305
69 0.005887
27 0.005946
25 0.005991
39 0.005997
66 0.005984
81 0.006999
98 0.005018
106 0.005988
102 0.005985
96 0.005983
107 0.005985
132 0.005984
154 0.005983
171 0.004988
184 0.006015
193 0.005019
204 0.006014
211 0.005018
200 0.005018
103 0.004972
41 0.005019
38 0.005024
61 0.005021
86 0.005025
115 0.005022
130 0.006024
126 0.005956
112 0.006017
106 0.005023
122 0.004991
144 0.005155
166 0.005022
182 0.005976
199 0.005024
207 0.004987
214 0.003985
218 0.003945
149 0.005988
61 0.004945
38 0.00502
48 0.00499
85 0.004988
116 0.004989
144 0.004988
153 0.004988
125 0.003973
113 0.003954
121 0.00402
148 0.004991
168 0.004991
184 0.004995
195 0.004988
203 0.00502
213 0.004987
210 0.004973
125 0.005019
46 0.004023
35 0.003993
56 0.004027
84 0.003947
117 0.004402
133 0.005026
128 0.004023
111 0.003958
102 0.003991
116 0.004058
137 0.00395
158 0.003979
174 0.003957
192 0.004027
201 0.003959
204 0.004941
96 0.005025
33 0.005036
22 0.003989
34 0.004985
55 0.003989
79 0.00399
97 0.003989
107 0.004257
94 0.004009
89 0.004002
98 0.004021
116 0.004051
143 0.004021
160 0.003975
173 0.00403
184 0.004021
193 0.003986
130 0.003965
47 0.003959
22 0.003958
36 0.003988
52 0.003031
63 0.002969
75 0.003028
87 0.003029
85 0.003989
80 0.003986
83 0.00396
95 0.002993
113 0.002992
136 0.003026
152 0.003992
173 0.003994
176 0.003993
111 0.003988
48 0.003989
31 0.002992
40 0.002992
53 0.003989
62 0.002992
71 0.003016
81 0.003029
83 0.003042
80 0.002992
87 0.002991
98 0.002953
112 0.002995
126 0.002984
138 0.003033
152 0.002987
156 0.002991
109 0.003026
62 0.003989
48 0.002992
55 0.002992
66 0.00303
78 0.001966
87 0.001963
91 0.002996
90 0.002952
89 0.002991
95 0.002985
104 0.002992
114 0.003024
124 0.002992
133 0.002992
145 0.003028
140 0.002995
75 0.002991
62 0.001994
66 0.001994
76 0.00299
83 0.001977
93 0.002999
101 0.001995
103 0.002993
100 0.002994
101 0.002983
109 0.002027
116 0.002028
131 0.001995
139 0.002039
147 0.002036
152 0.002007
127 0.002001
80 0.002005
72 0.001994
78 0.002996
87 0.003027
95 0.002993
105 0.001995
110 0.002016
109 0.002026
109 0.002028
113 0.001974
120 0.002008
128 0.002014
138 0.002004
145 0.002028
151 0.000992
158 0.001996
163 0.001995
126 0.001996
90 0.000997
84 0.001996
95 0.001994
104 0.00199
112 0.001964
119 0.002014
120 0.001995
115 0.00202
114 0.002044
119 0.002003
127 0.002024
139 0.002027
148 0.001953
155 0.001993
160 0.001985
165 0.001968
171 0.002009
174 0.000992
137 0.000988
93 0.001043
91 0.000999
102 0.000997
115 0.000998
127 0.000998
140 0.001984
134 0.000968
124 0.00103
125 0.001959
133 0.001995
142 0.001949
152 0.001049
162 0.00099
168 0.000999
174 0.000997
180 0.000997
187 0.002001
144 0.000996
100 0.00105
91 0.0
100 0.002025
114 0.001012
124 0.000995
134 0.001002
138 0.000986
131 0.000997
126 0.002008
127 0.002024
135 0.000997
154 0.0
164 0.0
173 0.000998
179 0.0
186 0.0
194 0.000975
196 0.00103
127 0.0
90 0.000998
84 0.000998
92 0.000997
106 0.0
119 0.000998
127 0.0
127 0.0
123 0.0
121 0.001
125 0.001032
134 0.000997
151 0.0
163 0.0
172 0.0
180 0.0
187 0.0
200 0.0
207 0.0
144 0.0
89 0.001025
76 0.001017
81 0.0
94 0.00099
108 0.0
117 0.0
124 0.0
124 0.001018
119 0.0
120 0.0
128 0.000965
146 0.0
160 0.0
172 0.0
183 0.0
192 0.0
203 0.0
212 0.0
216 0.0
156 0.001
91 0.0
79 0.000999
99 0.0
116 0.002026
129 0.001996
141 0.000998
138 0.001
127 0.0
124 0.000998
130 0.001029
143 0.001999
165 0.0
180 0.0
199 0.000977
209 0.0
216 0.000948
141 0.00203
235 0.002028
146 0.000957
90 0.0
82 0.001037
94 0.001986
116 0.001997
150 0.0
172 0.0
159 0.0
136 0.0
128 0.0
135 0.002993
150 0.00104
173 0.00096
188 0.0
200 0.000985
212 0.001998
226 0.002048
241 0.0
188 0.002009
84 0.001017
73 0.0
84 0.000999
108 0.001994
134 0.002
166 0.001991
172 0.000997
156 0.001001
135 0.002041
129 0.002029
143 0.0
168 0.002027
192 0.0
206 0.0
216 0.0
224 0.003034
232 0.003467
232 0.0
139 0.000996
71 0.0
60 0.002
71 0.001994
99 0.0
125 0.001994
144 0.000965
141 0.000958
127 0.000965
117 0.00298
119 0.002027
137 0.001985
156 0.0
174 0.000943
187 0.002027
198 0.002029
211 0.000953
222 0.002993
147 0.0
73 0.0
55 0.00095
61 0.002983
79 0.002018
104 0.000961
118 0.0
128 0.000998
125 0.003027
113 0.002993
107 0.0
118 0.002993
140 0.0
157 0.000997
171 0.0
182 0.002994
191 0.00299
204 0.0
196 0.0
113 0.0
63 0.001995
55 0.002028
65 0.002014
95 0.002955
110 0.002986
125 0.001
121 0.000951
109 0.001009
104 0.002993
108 0.00302
125 0.001073
142 0.0
158 0.001952
170 0.002994
179 0.002993
192 0.001999
201 0.002992
198 0.000961
116 0.000964
61 0.000989
52 0.001997
62 0.002993
90 0.0
109 0.0
125 0.002021
129 0.002993
116 0.002998
99 0.002956
104 0.002994
123 0.001995
141 0.0
156 0.000984
167 0.002992
176 0.004035
187 0.0
195 0.002966
201 0.000967
157 0.002993
78 0.002992
53 0.004066
68 0.004988
102 0.002998
130 0.001998
149 0.002008
142 0.004025
118 0.00399
101 0.001995
108 0.000999
123 0.001995
142 0.002998
167 0.002994
177 0.004031
186 0.004028
199 0.002985
198 0.001994
117 0.003
53 0.00403
40 0.005041
54 0.003015
78 0.003036
102 0.001989
122 0.003966
119 0.0
101 0.003988
91 0.004028
101 0.002001
118 0.003
138 0.001988
155 0.004044
168 0.004025
181 0.002981
191 0.002941
194 0.002002
128 0.003989
33 0.002995
30 0.004023
44 0.00399
69 0.002963
84 0.002961
98 0.001994
100 0.00399
89 0.003991
80 0.001993
86 0.002993
100 0.001994
118 0.00197
144 0.002944
156 0.002955
166 0.00499
177 0.004988
164 0.002989
80 0.001992
35 0.001994
28 0.005021
39 0.004958
59 0.002993
71 0.001995
82 0.002996
87 0.003003
80 0.00299
78 0.005985
85 0.006002
103 0.002992
120 0.002937
135 0.002952
146 0.004987
156 0.005029
169 0.002956
172 0.002969
112 0.002998
36 0.00399
35 0.002991
47 0.004948
62 0.005984
76 0.001993
87 0.00399
90 0.002988
85 0.004978
81 0.004986
88 0.003006
101 0.002988
117 0.003017
141 0.002995
151 0.002998
159 0.006023
169 0.006027
179 0.004003
142 0.003953
70 0.003976
43 0.005989
44 0.005934
64 0.002963
78 0.002992
90 0.002951
103 0.003026
96 0.002994
89 0.004988
92 0.005985
107 0.003002
124 0.003987
140 0.003995
153 0.005987
162 0.006846
173 0.00399
181 0.003029
190 0.003996
144 0.00399
73 0.003988
52 0.005985
57 0.005985
82 0.00399
102 0.003988
120 0.00399
128 0.006037
116 0.005986
100 0.003996
101 0.00402
114 0.00397
144 0.003988
159 0.003971
171 0.007029
179 0.00596
190 0.004955
200 0.004023
200 0.003996
131 0.007015
67 0.00703
51 0.00299
64 0.003027
96 0.00396
114 0.003987
125 0.005022
119 0.004937
105 0.006983
99 0.007016
111 0.004971
128 0.004986
146 0.004981
162 0.007012
173 0.006978
185 0.004986
198 0.006983
194 0.003989
113 0.004975
56 0.005424
44 0.006896
54 0.006913
76 0.005994
88 0.005943
101 0.00598
108 0.007977
104 0.007946
94 0.004014
101 0.007015
122 0.004987
140 0.004988
155 0.004955
167 0.007037
176 0.006978
189 0.004988
197 0.004986
173 0.005954
88 0.007913
49 0.007979
47 0.004968
66 0.007981
82 0.004962
93 0.005952
102 0.004975
102 0.006987
96 0.006983
98 0.004956
109 0.003939
125 0.005938
148 0.007978
158 0.007979
172 0.004986
185 0.007985
194 0.004973
203 0.004989
187 0.005981
100 0.006984
54 0.007317
50 0.005165
69 0.006965
79 0.005985
91 0.008024
102 0.006937
105 0.004979
99 0.00798
99 0.005985
108 0.005955
123 0.005955
141 0.007943
156 0.007935
171 0.00595
179 0.00595
186 0.006979
196 0.007056
205 0.006976
203 0.005016
79 0.007985
56 0.005989
61 0.004988
79 0.005975
103 0.007031
112 0.007979
127 0.006981
121 0.005984
108 0.005984
105 0.006981
116 0.00698
133 0.006008
162 0.007012
177 0.006189
182 0.006965
189 0.006952
195 0.006939
206 0.007918
213 0.007814
140 0.006982
86 0.006977
55 0.005981
60 0.006975
78 0.006975
106 0.006984
120 0.006994
122 0.006014
107 0.005985
102 0.005987
107 0.006982
121 0.007961
140 0.005984
158 0.006982
175 0.00698
184 0.006877
195 0.006981
202 0.006975
209 0.006972
215 0.005998
146 0.005987
66 0.005984
43 0.006981
47 0.005984
67 0.005989
80 0.005989
89 0.005968
99 0.006987
97 0.006989
92 0.004979
96 0.006958
111 0.006963
123 0.006944
142 0.00695
163 0.007014
174 0.006013
185 0.006015
191 0.006021
197 0.005983
205 0.005829
220 0.006063
183 0.006977
82 0.006105
38 0.00599
41 0.006051
56 0.006016
71 0.00599
80 0.006016
93 0.006953
97 0.006987
95 0.006952
91 0.006992
104 0.005988
121 0.005984
141 0.005984
164 0.00598
177 0.00598
186 0.005984
194 0.005969
201 0.006029
209 0.006024
218 0.005977
228 0.004994
225 0.005994
71 0.004942
41 0.004931
45 0.005022
71 0.005983
91 0.006017
105 0.006016
119 0.006017
119 0.00601
104 0.004944
100 0.004988
109 0.005987
129 0.005675
164 0.005485
181 0.006221
192 0.00502
202 0.005244
207 0.005035
212 0.005029
217 0.004987
225 0.004979
232 0.005983
164 0.004965
67 0.005984
40 0.004986
61 0.004991
89 0.004988
113 0.004987
135 0.004962
139 0.004987
122 0.00597
109 0.00601
112 0.004955
129 0.005003
160 0.005922
181 0.005002
197 0.004982
211 0.004969
217 0.004986
221 0.005016
225 0.004985
233 0.005018
194 0.004
138 0.004978
46 0.005022
24 0.005029
39 0.00499
64 0.003979
86 0.003949
114 0.003937
117 0.003989
106 0.004025
97 0.004989
104 0.004987
122 0.005016
146 0.004981
168 0.004985
186 0.003989
200 0.004986
207 0.003993
211 0.004983
219 0.00502
225 0.005014
227 0.004959
167 0.004991
36 0.005017
16 0.004028
26 0.003985
48 0.003992
70 0.004959
92 0.004942
106 0.005027
99 0.004994
92 0.003984
96 0.004954
111 0.004021
134 0.003975
165 0.004007
181 0.003962
193 0.004022
201 0.004035
206 0.003994
212 0.005
218 0.003989
221 0.004894
140 0.004989
45 0.002989
22 0.003956
32 0.003992
70 0.002992
98 0.002992
121 0.003989
135 0.00399
127 0.00399
103 0.00399
100 0.003976
130 0.003997
155 0.002992
175 0.002976
189 0.002999
197 0.003029
204 0.002991
208 0.003953
213 0.002989
219 0.002991
210 0.003988
77 0.003989
25 0.003988
28 0.003989
67 0.004039
99 0.002983
126 0.004033
140 0.004022
130 0.003033
101 0.003019
98 0.003024
112 0.003964
136 0.002991
159 0.002994
181 0.00299
193 0.002996
201 0.003029
206 0.002993
211 0.002992
215 0.002992
168 0.002992
32 0.002996
8 0.003022
16 0.002994
39 0.003003
64 0.003032
88 0.002992
103 0.002993
90 0.002006
80 0.002984
84 0.003046
100 0.003027
123 0.003032
152 0.003028
168 0.002992
179 0.003024
186 0.002986
193 0.002975
201 0.001993
204 0.003024
90 0.003157
19 0.001996
4 0.002995
15 0.003025
35 0.001982
55 0.002985
68 0.00204
80 0.001982
82 0.001951
77 0.001995
78 0.001995
95 0.001995
123 0.001996
143 0.002998
160 0.003019
172 0.002002
181 0.001993
192 0.001969
200 0.002021
202 0.001996
139 0.001005
46 0.001959
16 0.003023
34 0.002004
61 0.002127
76 0.001996
91 0.002036
99 0.002995
95 0.001998
87 0.002048
93 0.000998
109 0.002001
131 0.001001
153 0.000996
179 0.00203
188 0.000962
198 0.002046
205 0.001994
213 0.001964
209 0.001993
126 0.000996
36 0.001989
31 0.001001
50 0.001994
78 0.001995
103 0.000999
134 0.000993
127 0.000999
104 0.001998
101 0.000995
114 0.000997
137 0.001036
160 0.000946
182 0.002
193 0.002028
200 0.001988
207 0.002019
213 0.002021
207 0.001995
111 0.002028
32 0.00198
31 0.002041
51 0.001003
79 0.001999
103 0.001982
125 0.001026
130 0.001035
114 0.001035
102 0.001997
107 0.001996
141 0.000998
163 0.000997
181 0.002033
196 0.000967
203 0.000981
209 0.001959
214 0.0
220 0.001995
189 0.001996
75 0.001995
22 0.000998
18 0.001999
50 0.002006
69 0.000998
83 0.000997
100 0.001031
100 0.001031
92 0.001012
91 0.001005
101 0.001987
128 0.000966
151 0.001992
170 0.0
184 0.0
198 0.0
204 0.001043
211 0.0
218 0.0
179 0.0
68 0.001
21 0.001
19 0.0
43 0.0
62 0.0
75 0.0
90 0.0
99 0.000998
94 0.0
95 0.000998
110 0.000998
132 0.000998
155 0.000998
175 0.0
188 0.0
200 0.0
206 0.0
212 0.0
219 0.0
218 0.0
128 0.0
43 0.0
28 0.0
47 0.0
75 0.0
97 0.0
118 0.0
131 0.0
120 0.0
109 0.000965
111 0.0
142 0.0
165 0.0
183 0.000998
198 0.000996
206 0.001002
212 0.0
216 0.0
224 0.0
218 0.0
129 0.002013
35 0.000975
29 0.0
65 0.0
108 0.0
135 0.0
152 0.000997
145 0.001996
120 0.0
117 0.0
125 0.000947
155 0.000981
177 0.001995
197 0.0
208 0.002033
215 0.002987
223 0.0
228 0.0
213 0.0
105 0.002025
29 0.002987
20 0.0
41 0.0
71 0.0
95 0.001983
116 0.002007
124 0.002029
111 0.002023
106 0.0
120 0.0
143 0.000987
165 0.001989
182 0.003025
197 0.00102
204 0.0
211 0.00103
217 0.003031
218 0.002003
68 0.002002
15 0.002994
16 0.0
39 0.0
64 0.0
82 0.00303
101 0.001991
111 0.000997
103 0.000969
98 0.000973
105 0.002033
122 0.00204
160 0.002029
178 0.002997
193 0.000972
201 0.0
208 0.00098
214 0.002957
215 0.001993
148 0.001999
28 0.000955
14 0.0
29 0.001995
55 0.002992
95 0.002992
116 0.001995
122 0.0
110 0.0
104 0.000964
112 0.001972
131 0.002028
161 0.0
179 0.0
191 0.000957
199 0.001995
207 0.001994
219 0.002001
216 0.001999
102 0.0
33 0.0
25 0.0
45 0.001994
80 0.002994
122 0.0
146 0.001001
149 0.0
132 0.001983
114 0.001982
126 0.001988
148 0.001996
175 0.0
188 0.0
197 0.0
205 0.002033
212 0.00203
216 0.001955
164 0.001981
59 0.0
21 0.002963
27 0.002026
79 0.003043
113 0.003013
140 0.003037
144 0.0
126 0.001012
112 0.0
117 0.002977
135 0.001994
164 0.000998
180 0.0
190 0.0
199 0.003004
211 0.001984
210 0.003991
134 0.003945
19 0.001986
9 0.0
25 0.001297
52 0.003023
77 0.003053
108 0.0
117 0.001034
108 0.0
94 0.002015
105 0.0
125 0.002994
147 0.003022
170 0.001991
181 0.0
190 0.0
199 0.003023
203 0.003026
111 0.000999
26 0.0
7 0.000964
32 0.00299
56 0.001991
74 0.00402
94 0.003903
103 0.001993
94 0.002992
89 0.001994
96 0.002993
114 0.002992
143 0.001992
162 0.000997
175 0.000936
190 0.002013
197 0.002046
204 0.003991
197 0.004023
70 0.001992
15 0.002009
10 0.000971
26 0.003991
47 0.004026
68 0.0
86 0.000999
94 0.0
86 0.0
85 0.001991
95 0.004026
113 0.003989
141 0.001995
160 0.002035
173 0.001995
182 0.004947
188 0.004998
198 0.002994
204 0.002039
179 0.003001
35 0.001986
19 0.002023
29 0.003989
50 0.003989
75 0.001993
94 0.002992
105 0.001982
100 0.004018
90 0.004037
91 0.003015
104 0.001996
124 0.002982
157 0.001991
171 0.001991
182 0.004987
189 0.005022
197 0.001993
203 0.002993
210 0.002995
201 0.004987
108 0.005027
41 0.005021
31 0.001992
49 0.001996
92 0.001999
116 0.00201
129 0.002999
118 0.005017
100 0.005022
94 0.003963
106 0.002026
126 0.00202
148 0.005021
166 0.004986
182 0.003952
190 0.003005
201 0.001995
208 0.001994
211 0.001995
157 0.004987
62 0.005025
30 0.002957
40 0.002948
64 0.002952
91 0.004987
116 0.004987
134 0.003033
120 0.002991
97 0.00199
103 0.001971
121 0.003002
142 0.005975
163 0.006014
181 0.00296
191 0.00299
199 0.003966
205 0.005037
211 0.005023
167 0.002992
63 0.003947
23 0.002996
34 0.003037
55 0.002001
76 0.00598
95 0.005937
110 0.002969
102 0.002994
88 0.00295
86 0.005984
96 0.005984
122 0.003988
149 0.004986
169 0.002989
179 0.003973
187 0.004011
195 0.006017
203 0.005984
161 0.003989
61 0.00399
23 0.003029
21 0.005942
35 0.005984
59 0.004033
78 0.007034
94 0.004954
91 0.003993
83 0.003998
81 0.005986
89 0.006025
113 0.004006
133 0.003996
152 0.002968
166 0.004993
177 0.007019
188 0.003948
200 0.00602
194 0.003994
100 0.003004
35 0.003991
21 0.006015
29 0.006026
52 0.004023
66 0.003959
80 0.004943
92 0.005984
93 0.005974
85 0.004983
89 0.006022
107 0.005008
127 0.00399
147 0.00399
163 0.006981
176 0.006982
189 0.003989
198 0.004028
206 0.004018
208 0.003948
134 0.006999
52 0.007017
32 0.007013
46 0.006033
72 0.004994
88 0.003984
106 0.004024
112 0.007015
102 0.007973
96 0.004002
102 0.004985
118 0.004986
138 0.007041
159 0.006955
186 0.007013
197 0.006979
207 0.004994
215 0.004972
222 0.004987
204 0.006982
74 0.007978
39 0.00399
39 0.004987
57 0.004995
91 0.007977
114 0.007978
137 0.007016
132 0.006978
113 0.004986
111 0.004946
124 0.004933
144 0.008013
165 0.008012
189 0.004981
201 0.004956
210 0.004975
217 0.006981
225 0.00702
228 0.006946
151 0.007014
49 0.005079
41 0.005984
59 0.005986
105 0.007979
130 0.007979
169 0.005992
171 0.006
149 0.005984
126 0.007971
125 0.007944
154 0.006983
182 0.006986
198 0.004987
209 0.004988
217 0.005985
227 0.00798
231 0.007981
204 0.004988
92 0.005011
37 0.005043
38 0.007004
79 0.006002
129 0.00797
161 0.007955
167 0.005962
149 0.004955
125 0.005993
120 0.007979
133 0.007941
162 0.004986
182 0.005952
196 0.006948
208 0.00696
221 0.006943
219 0.006983
129 0.006986
36 0.005964
15 0.005992
25 0.005991
52 0.006176
92 0.007014
119 0.006034
135 0.006949
118 0.005985
106 0.006948
103 0.005984
122 0.006981
153 0.006981
172 0.006983
186 0.005985
199 0.006975
205 0.006008
198 0.007005
94 0.007017
23 0.005973
11 0.006938
23 0.005987
69 0.005994
82 0.005985
108 0.006966
108 0.006992
96 0.005995
89 0.005982
101 0.006813
121 0.006981
144 0.007134
164 0.006933
178 0.006936
193 0.005986
195 0.006982
140 0.006009
27 0.006981
13 0.006983
28 0.006979
42 0.006981
60 0.006982
83 0.006015
96 0.006016
95 0.006978
85 0.005985
87 0.005985
111 0.005983
132 0.005988
151 0.006309
166 0.007013
177 0.006941
188 0.00695
198 0.006982
164 0.005977
62 0.006015
19 0.006016
24 0.005958
39 0.00599
63 0.005984
77 0.00597
88 0.005992
88 0.00599
82 0.006106
85 0.005995
91 0.006824
111 0.006021
130 0.006032
152 0.006017
165 0.005989
176 0.005944
193 0.005959
184 0.005977
97 0.006051
44 0.006018
37 0.006
50 0.005981
66 0.005969
79 0.004987
93 0.004986
103 0.004987
97 0.005989
91 0.005999
100 0.005993
115 0.005999
133 0.006015
149 0.006017
167 0.005022
177 0.00578
186 0.004953
196 0.005018
203 0.005513
128 0.006041
63 0.004987
48 0.005019
68 0.004989
88 0.004991
106 0.004942
124 0.005021
127 0.00502
108 0.006019
100 0.005945
106 0.004943
119 0.004925
137 0.005009
159 0.004987
174 0.005018
186 0.00497
196 0.004991
203 0.004909
175 0.005051
91 0.004988
52 0.003989
58 0.004997
75 0.004992
95 0.004987
116 0.00398
135 0.004997
120 0.005015
104 0.00503
107 0.00499
120 0.005035
138 0.004991
155 0.004021
174 0.00399
185 0.005014
196 0.003978
206 0.003988
206 0.004031
99 0.003957
44 0.004031
49 0.004973
65 0.004984
83 0.003979
98 0.005025
112 0.004989
112 0.00402
100 0.005004
95 0.004993
102 0.003969
117 0.00399
142 0.003988
164 0.00396
179 0.003981
189 0.00399
200 0.003989
208 0.004987
177 0.003988
61 0.003994
37 0.004881
40 0.004034
55 0.004576
71 0.003996
87 0.00401
104 0.00404
101 0.004019
94 0.003991
95 0.004989
104 0.004026
121 0.004024
147 0.00396
164 0.003979
177 0.003989
187 0.002994
197 0.002997
210 0.00399
187 0.002979
65 0.004025
36 0.00303
38 0.004028
53 0.004023
70 0.004019
89 0.00399
104 0.003991
108 0.003988
102 0.00299
96 0.004027
104 0.002988
125 0.003991
153 0.002993
170 0.003989
184 0.002997
195 0.003023
204 0.004047
215 0.00399
223 0.003025
203 0.003985
97 0.002953
44 0.002986
38 0.002945
67 0.003028
89 0.003
116 0.00301
129 0.002987
125 0.002994
111 0.002996
106 0.002991
120 0.003027
140 0.002998
162 0.002988
181 0.002982
196 0.003025
212 0.003025
220 0.003021
195 0.002028
195 0.002959
160 0.002028
67 0.003024
42 0.003025
59 0.003045
89 0.002987
122 0.002902
155 0.001993
169 0.001995
137 0.001994
121 0.002027
131 0.003045
152 0.002971
174 0.002017
193 0.001995
206 0.001995
218 0.002997
226 0.001991
233 0.003001
232 0.002955
78 0.00304
35 0.001962
36 0.001989
69 0.001996
103 0.002032
135 0.002038
158 0.002003
154 0.001996
124 0.003001
116 0.002021
126 0.002035
147 0.001997
183 0.001994
199 0.001995
209 0.001995
221 0.002029
228 0.001994
231 0.002049
171 0.002009
54 0.001995
15 0.001995
26 0.000997
51 0.002992
79 0.001997
121 0.002039
131 0.000999
121 0.002021
103 0.001942
106 0.002
124 0.001993
148 0.001957
170 0.001996
192 0.001967
204 0.002027
213 0.002024
220 0.002027
195 0.001994
73 0.001027
17 0.000997
16 0.000997
38 0.002026
65 0.001964
88 0.001995
112 0.001995
123 0.00203
111 0.001968
101 0.001982
106 0.002128
138 0.001999
162 0.001046
182 0.000998
199 0.001996
209 0.001995
217 0.000999
224 0.001994
199 0.001994
82 0.001001
15 0.001999
19 0.000999
42 0.000965
88 0.000997
114 0.002026
130 0.0
125 0.001017
108 0.002028
108 0.001015
122 0.001007
144 0.000972
168 0.000997
190 0.000998
202 0.0
211 0.000999
223 0.002002
228 0.000998
186 0.0
68 0.002004
19 0.000998
30 0.000998
60 0.000997
94 0.000997
126 0.000997
151 0.000979
141 0.000983
120 0.000989
117 0.000997
136 0.000997
158 0.000997
178 0.000998
197 0.000998
206 0.0
212 0.0
219 0.0
225 0.0
203 0.0
91 0.000994
29 0.0
37 0.0
72 0.0
112 0.0
147 0.0
163 0.001016
146 0.000969
123 0.0
118 0.0
131 0.0
161 0.0
180 0.0
201 0.0
209 0.0
216 0.0
222 0.0
223 0.0
110 0.0
25 0.0
9 0.0
25 0.0
57 0.0
103 0.0
132 0.0
134 0.0
113 0.000998
102 0.000998
117 0.000998
132 0.0
162 0.002028
179 0.002019
194 0.0
202 0.0
209 0.0
215 0.0
213 0.002013
46 0.001994
2 0.0
9 0.000952
35 0.0
64 0.000967
89 0.00203
112 0.002021
113 0.001009
99 0.0
93 0.0
102 0.0
122 0.003039
160 0.001031
177 0.002021
189 0.002993
199 0.0
207 0.0
212 0.0
205 0.00204
109 0.002028
9 0.0
3 0.0
20 0.000994
47 0.002992
87 0.0
108 0.002996
111 0.003043
97 0.0
94 0.0
104 0.0
124 0.002035
148 0.002993
175 0.0
188 0.000966
198 0.000997
206 0.002999
216 0.001003
201 0.002991
96 0.003017
15 0.001013
16 0.0
40 0.0
72 0.002047
101 0.003002
132 0.0
134 0.0
118 0.000992
105 0.002991
122 0.0
144 0.003056
166 0.003022
186 0.0
195 0.0
203 0.0
210 0.002993
216 0.002989
209 0.0
116 0.0
34 0.0
19 0.001985
59 0.0
97 0.002992
132 0.002993
155 0.000962
143 0.000982
120 0.0
111 0.002988
122 0.003038
151 0.0
171 0.0
185 0.0
195 0.002025
208 0.0
215 0.00199
208 0.002038
77 0.000999
17 0.0
13 0.0
34 0.003026
66 0.002949
108 0.001
133 0.0
134 0.00096
117 0.002991
102 0.0
117 0.003046
138 0.002991
165 0.0
180 0.0
190 0.0
198 0.002992
206 0.001995
193 0.000998
85 0.001006
13 0.000997
10 0.000979
32 0.0
56 0.003022
77 0.003025
103 0.0
103 0.0
93 0.001035
89 0.0
98 0.002992
117 0.003031
147 0.001019
165 0.001955
185 0.000957
194 0.002967
202 0.003003
206 0.002992
155 0.004026
25 0.0
4 0.002017
13 0.003008
34 0.002992
54 0.002935
78 0.002002
95 0.0
93 0.002999
88 0.001979
93 0.001995
109 0.002992
132 0.002992
160 0.002992
176 0.001994
186 0.003004
195 0.004021
203 0.004023
212 0.003003
184 0.000963
31 0.001993
14 0.000966
26 0.002024
49 0.003996
72 0.003983
100 0.0
115 0.001955
112 0.002002
102 0.003991
101 0.002987
118 0.002982
139 0.0
174 0.001992
187 0.002025
197 0.002033
205 0.004022
212 0.004022
221 0.002977
210 0.003013
114 0.002992
38 0.00402
25 0.003958
52 0.002995
84 0.003988
136 0.002992
153 0.00399
146 0.001996
127 0.003989
120 0.003986
138 0.00299
162 0.002987
182 0.003013
198 0.005018
209 0.004984
220 0.003001
229 0.003017
238 0.001982
191 0.002041
85 0.002039
42 0.003988
48 0.003989
96 0.001995
137 0.001995
171 0.001984
186 0.004977
181 0.004022
155 0.001995
152 0.001984
176 0.002979
194 0.00299
208 0.00299
220 0.005031
229 0.005026
240 0.003
246 0.002999
224 0.002988
118 0.001996
40 0.00399
30 0.00399
69 0.000998
125 0.004993
168 0.001984
179 0.001984
169 0.001994
149 0.004028
141 0.00395
154 0.001994
171 0.002028
186 0.002981
198 0.00499
208 0.005019
221 0.004993
221 0.00496
110 0.002007
22 0.001994
5 0.002945
23 0.005019
55 0.005026
100 0.003008
130 0.002987
141 0.003006
131 0.005048
111 0.005025
114 0.005023
135 0.004983
162 0.002954
179 0.002993
191 0.002986
201 0.005987
209 0.00599
187 0.002957
70 0.002994
2 0.002992
64 0.004988
73 0.004987
98 0.004984
113 0.005984
126 0.00299
124 0.002988
116 0.002983
112 0.005798
117 0.006017
132 0.003031
143 0.003014
151 0.003035
156 0.006019
161 0.006052
167 0.006016
169 0.006032
111 0.002989
68 0.002992
60 0.003991
66 0.00698
77 0.005976
92 0.003025
104 0.003024
114 0.002959
115 0.005939
110 0.005988
110 0.005987
118 0.005986
134 0.004007
145 0.003982
153 0.003013
158 0.005984
162 0.006981
165 0.003989
168 0.003989
170 0.003955
159 0.006021
98 0.00695
63 0.006017
67 0.006041
79 0.004008
88 0.002941
96 0.003978
106 0.006038
110 0.005865
106 0.003993
104 0.00399
108 0.003956
118 0.005989
130 0.006982
148 0.006982
155 0.006979
160 0.006978
164 0.003978
167 0.003989
169 0.002974
172 0.006981
157 0.006014
86 0.003981
73 0.003992
74 0.003992
81 0.00695
95 0.003998
102 0.006982
110 0.006985
114 0.003989
111 0.00399
109 0.003989
114 0.007973
120 0.007013
134 0.003996
146 0.003985
155 0.004022
161 0.007034
169 0.003991
171 0.006977
175 0.007977
178 0.005013
180 0.004999
152 0.004981
96 0.006982
81 0.006986
84 0.004986
91 0.004986
99 0.004988
106 0.007979
117 0.00395
120 0.007979
117 0.007992
115 0.00401
118 0.004998
126 0.004022
136 0.007033
151 0.007985
159 0.004989
166 0.004996
171 0.004971
176 0.00399
179 0.004988
182 0.006982
185 0.007977
188 0.004987
157 0.005995
101 0.005987
87 0.007987
91 0.007972
99 0.00498
107 0.005005
114 0.004987
127 0.006008
129 0.003989
125 0.007961
122 0.00795
125 0.005952
132 0.005025
143 0.004985
158 0.006974
164 0.007982
174 0.005982
178 0.00599
181 0.004988
185 0.005993
187 0.005983
191 0.006981
174 0.006987
113 0.005986
91 0.006123
90 0.005995
99 0.007017
108 0.007978
116 0.004985
123 0.004991
132 0.005987
131 0.005984
127 0.005985
127 0.006969
133 0.006976
143 0.006003
159 0.005966
165 0.005984
174 0.006977
179 0.006979
182 0.006951
184 0.005981
186 0.005977
189 0.006982
188 0.005984
141 0.00502
94 0.006983
91 0.006979
97 0.005994
106 0.004989
115 0.005986
127 0.006982
136 0.005984
137 0.005984
134 0.005984
129 0.006981
132 0.006941
145 0.006979
156 0.006978
166 0.006964
173 0.005977
177 0.005984
180 0.005987
183 0.006981
184 0.005986
187 0.005989
180 0.005986
100 0.006727
92 0.006012
92 0.005959
103 0.006978
114 0.006031
129 0.005985
141 0.006014
145 0.005952
140 0.00602
131 0.006017
129 0.005952
135 0.005991
153 0.006018
163 0.005985
170 0.005983
174 0.006054
177 0.006029
180 0.005993
182 0.006016
183 0.005985
149 0.006019
101 0.006015
90 0.005993
95 0.005984
113 0.00499
125 0.005986
133 0.006978
145 0.005545
142 0.005985
130 0.005982
127 0.005984
131 0.005984
140 0.005984
151 0.005986
163 0.005009
170 0.005029
174 0.004987
177 0.004986
179 0.005037
180 0.00499
171 0.004851
100 0.005943
86 0.005735
87 0.005993
95 0.005018
105 0.005018
118 0.004988
132 0.005015
134 0.004987
126 0.004955
119 0.00495
120 0.006046
127 0.006021
140 0.005987
151 0.004986
158 0.005015
164 0.005028
167 0.005033
171 0.005942
173 0.005985
170 0.005953
119 0.004987
88 0.005985
82 0.005984
87 0.004988
95 0.005016
108 0.004953
116 0.004995
125 0.003958
126 0.004987
120 0.004987
113 0.003922
117 0.00398
129 0.004987
139 0.005028
148 0.004986
154 0.005028
159 0.004988
163 0.003963
166 0.003946
167 0.004989
155 0.005027
102 0.005016
79 0.003973
82 0.004528
94 0.004426
103 0.004419
112 0.005192
122 0.005046
122 0.005025
113 0.004946
108 0.004955
111 0.003964
118 0.004989
128 0.003991
144 0.003987
150 0.00399
156 0.003994
159 0.003989
161 0.003994
161 0.004038
126 0.003993
80 0.003957
75 0.00295
80 0.003987
88 0.00399
99 0.003989
116 0.002984
121 0.003991
114 0.003998
107 0.003992
106 0.002992
112 0.002991
121 0.004994
134 0.003956
143 0.004644
149 0.004052
153 0.003978
156 0.003989
160 0.003984
153 0.003979
90 0.004024
74 0.003995
74 0.00399
81 0.00399
91 0.003989
103 0.004014
114 0.003023
117 0.002993
112 0.00399
105 0.002991
105 0.003988
113 0.00403
125 0.002999
137 0.003001
146 0.003223
154 0.002992
159 0.00305
165 0.00307
167 0.003045
129 0.002992
72 0.002989
56 0.003004
63 0.002997
75 0.002993
91 0.002986
105 0.002992
113 0.003027
108 0.004033
98 0.003052
96 0.003022
103 0.003026
115 0.002963
128 0.003027
146 0.002995
154 0.002003
160 0.003045
165 0.002992
168 0.00299
125 0.003032
72 0.002958
57 0.002993
60 0.002994
74 0.002992
88 0.002992
102 0.003019
117 0.002996
110 0.002993
100 0.002961
98 0.002996
108 0.002993
120 0.001998
133 0.002031
145 0.002025
153 0.002961
161 0.00303
165 0.002029
169 0.001975
161 0.001999
95 0.002026
62 0.002007
58 0.002042
69 0.00298
84 0.001994
99 0.003019
114 0.003038
121 0.002992
110 0.003048
100 0.001992
99 0.002036
115 0.001992
129 0.001997
141 0.002029
151 0.001987
160 0.002003
165 0.001994
169 0.001996
172 0.001996
148 0.001996
73 0.001995
60 0.000999
64 0.001031
87 0.002013
105 0.001001
123 0.002006
130 0.002029
115 0.002042
104 0.002027
104 0.001006
112 0.001006
125 0.001982
143 0.00197
153 0.001994
160 0.00204
168 0.001999
173 0.0
173 0.00203
126 0.000999
66 0.001988
61 0.000987
68 0.002022
84 0.002031
103 0.00099
129 0.001969
134 0.001994
124 0.001998
106 0.0
110 0.001996
121 0.001995
135 0.000998
151 0.001994
160 0.001984
166 0.001994
171 0.001995
175 0.002027
177 0.002034
117 0.001025
71 0.000931
66 0.001009
80 0.001046
100 0.000998
122 0.002055
140 0.001995
138 0.002002
122 0.001039
112 0.000998
115 0.002026
126 0.002034
144 0.0
155 0.000998
168 0.0
173 0.0
177 0.000998
180 0.001031
168 0.002027
85 0.0
65 0.0
68 0.0
84 0.0
108 0.0
139 0.0
150 0.000998
132 0.000997
116 0.001
116 0.000991
125 0.0
140 0.001032
156 0.001012
164 0.0
169 0.001055
174 0.000998
179 0.0
162 0.000939
79 0.0
62 0.0
72 0.000997
91 0.0
115 0.0
136 0.00095
146 0.0
134 0.0
117 0.0
113 0.0
121 0.0
139 0.0
155 0.0
165 0.0
171 0.0
176 0.0
