113 0.018952
105 0.002969
57 0.003036
17 0.00299
6 0.002999
10 0.003988
17 0.002991
22 0.002994
29 0.003026
38 0.002992
46 0.002992
51 0.002992
56 0.002983
61 0.00402
64 0.00299
71 0.002935
80 0.00304
91 0.003989
96 0.003988
104 0.002992
112 0.002983
116 0.002992
123 0.002992
108 0.003026
46 0.002931
21 0.002991
21 0.002992
25 0.002992
34 0.002968
42 0.003985
49 0.00399
56 0.00399
56 0.002992
57 0.002984
59 0.002993
67 0.002993
75 0.002992
81 0.00302
88 0.00296
97 0.002992
102 0.002993
114 0.002978
118 0.002992
127 0.002981
131 0.003991
95 0.001995
53 0.003004
33 0.003012
33 0.002961
42 0.002992
51 0.002992
55 0.002993
62 0.003004
68 0.002996
68 0.001994
68 0.001994
71 0.001976
79 0.002027
87 0.001993
93 0.002038
101 0.001994
112 0.003006
116 0.002992
121 0.002929
126 0.002992
105 0.002997
59 0.002992
34 0.003023
29 0.002976
35 0.002994
44 0.001979
49 0.001964
57 0.001995
66 0.002933
69 0.002941
66 0.002992
68 0.002992
77 0.003029
84 0.001995
90 0.001963
99 0.001995
106 0.001995
112 0.00198
116 0.00296
125 0.002991
109 0.003033
62 0.002993
33 0.002993
23 0.002995
31 0.002989
35 0.001997
40 0.002037
52 0.001996
56 0.001947
58 0.001996
58 0.002011
61 0.001995
67 0.001996
74 0.002998
80 0.003033
87 0.002998
99 0.002951
106 0.002992
112 0.001992
120 0.001995
121 0.001929
83 0.001996
40 0.002001
22 0.000998
18 0.000996
24 0.001995
29 0.000997
32 0.001995
46 0.002996
50 0.002025
52 0.00199
55 0.001995
58 0.001987
64 0.001912
73 0.001921
79 0.002011
89 0.002997
98 0.002007
104 0.001945
110 0.00199
120 0.002051
126 0.002037
134 0.001995
95 0.001995
54 0.001994
32 0.001995
30 0.002035
36 0.001995
44 0.001
48 0.000998
56 0.001018
62 0.001995
70 0.001995
71 0.001995
76 0.002056
81 0.003632
91 0.002992
100 0.001997
107 0.001997
113 0.000998
125 0.000997
133 0.000998
138 0.002025
144 0.001996
155 0.002038
162 0.001994
161 0.001995
101 0.001997
67 0.001996
57 0.001949
58 0.000999
69 0.00101
74 0.001012
79 0.001043
88 0.001035
92 0.000998
95 0.001995
96 0.00196
101 0.001994
111 0.001994
117 0.001997
123 0.001992
129 0.002014
137 0.001309
144 0.001994
153 0.001992
158 0.000997
164 0.000969
171 0.000997
136 0.001
89 0.000997
64 0.000997
66 0.000997
72 0.000984
77 0.001989
82 0.002003
92 0.001995
95 0.001965
99 0.000997
97 0.000997
101 0.000997
106 0.000998
115 0.000997
124 0.000997
131 0.000997
141 0.000963
149 0.000998
155 0.000997
162 0.001962
168 0.001995
173 0.000997
173 0.000997
102 0.001007
73 0.000998
66 0.000978
72 0.000997
78 0.000998
82 0.000997
88 0.000985
96 0.000997
98 0.000998
102 0.0
104 0.0
106 0.001014
117 0.001067
126 0.000996
134 0.000997
140 0.000997
149 0.000997
158 0.00103
164 0.001029
168 0.000998
176 0.000997
182 0.00104
187 0.001006
174 0.000997
93 0.000998
75 0.000998
71 0.000997
79 0.0
88 0.0
91 0.0
94 0.0
101 0.0
105 0.000997
104 0.000997
108 0.000997
114 0.000974
125 0.000997
132 0.001011
140 0.0
145 0.0
154 0.0
159 0.0
165 0.0
173 0.0
181 0.000998
189 0.0
194 0.0
201 0.0
135 0.0
96 0.0
85 0.0
89 0.0
101 0.0
105 0.000997
111 0.001003
122 0.0
127 0.0
132 0.0
134 0.0
136 0.0
145 0.0
151 0.0
161 0.001017
169 0.0
178 0.000998
186 0.000997
193 0.0
199 0.0
205 0.0
213 0.0
219 0.0
214 0.0
134 0.0
108 0.0
103 0.0
112 0.0
123 0.0
129 0.0
139 0.0
146 0.0
145 0.0
142 0.0
140 0.0
143 0.0
152 0.0
159 0.0
167 0.0
173 0.0
184 0.0
190 0.0
195 0.000999
201 0.001
200 0.000998
142 0.0
104 0.0
92 0.0
99 0.0
106 0.0
110 0.0
118 0.000997
127 0.0
127 0.00103
124 0.0
126 0.000997
128 0.000998
136 0.000979
145 0.001024
151 0.0
163 0.0
169 0.0
173 0.0
179 0.000998
176 0.000999
131 0.000998
87 0.000998
68 0.000997
66 0.001012
70 0.000997
75 0.000998
81 0.001005
90 0.0
95 0.0
95 0.0
96 0.0
100 0.000999
105 0.001048
113 0.000969
120 0.000952
128 0.000998
138 0.000997
145 0.001018
151 0.000997
159 0.000995
126 0.000998
79 0.0
49 0.0
39 0.0
43 0.0
49 0.000998
49 0.000997
58 0.000998
68 0.000988
68 0.000997
69 0.000999
74 0.001019
83 0.000989
89 0.001005
101 0.001995
113 0.0
122 0.000994
133 0.000968
142 0.001034
149 0.000998
161 0.000997
135 0.000999
87 0.000968
49 0.000998
48 0.000998
56 0.000998
58 0.000997
63 0.0
73 0.001051
79 0.001008
82 0.001048
84 0.000998
88 0.000964
93 0.001008
103 0.001006
117 0.000999
128 0.001042
135 0.001995
145 0.001996
149 0.001
159 0.001995
160 0.000998
124 0.001047
80 0.001045
60 0.00098
58 0.000997
64 0.000998
71 0.000998
79 0.000996
87 0.000983
90 0.000998
91 0.000967
93 0.003017
97 0.002007
104 0.001994
112 0.002046
120 0.001995
130 0.001007
140 0.001048
150 0.001029
157 0.001031
159 0.001028
125 0.001035
84 0.002024
56 0.001995
56 0.001962
61 0.001995
61 0.001995
64 0.001995
77 0.001996
85 0.002001
91 0.001002
91 0.000997
97 0.000996
107 0.001972
113 0.001995
124 0.001987
134 0.001995
141 0.002054
150 0.001992
156 0.001954
165 0.001995
167 0.002055
96 0.000998
64 0.001029
52 0.001995
55 0.001995
60 0.001973
62 0.002005
69 0.001996
78 0.001995
84 0.001995
93 0.001994
94 0.002069
97 0.002004
111 0.000998
123 0.000997
132 0.001995
144 0.001994
154 0.001994
164 0.001995
171 0.003025
178 0.001993
190 0.001985
194 0.001995
170 0.001994
122 0.002002
80 0.001995
81 0.002
86 0.001996
88 0.00205
89 0.001996
102 0.002027
108 0.002039
117 0.000997
118 0.001974
122 0.001995
129 0.001994
139 0.001992
156 0.002024
165 0.001978
174 0.001994
186 0.000997
191 0.002025
204 0.002994
211 0.003024
222 0.001952
229 0.002018
238 0.001989
246 0.002
253 0.002023
183 0.001995
147 0.001965
135 0.001958
139 0.001998
146 0.001964
150 0.002962
157 0.003043
168 0.002023
171 0.001995
175 0.002047
178 0.002019
181 0.002002
192 0.00199
198 0.002024
211 0.001002
219 0.001001
225 0.001987
233 0.003008
242 0.002995
249 0.000997
255 0.002084
255 0.001005
255 0.002988
255 0.003002
251 0.003036
203 0.002039
175 0.002031
170 0.001995
177 0.002992
184 0.003002
190 0.003036
200 0.001995
205 0.001998
206 0.001996
205 0.003
203 0.002991
211 0.003041
218 0.002985
224 0.002008
117 0.001004
237 0.000998
189 0.003052
192 0.003023
195 0.002972
199 0.001004
201 0.002054
200 0.003988
179 0.002026
147 0.00402
144 0.002019
146 0.001999
150 0.000994
153 0.000986
155 0.003019
158 0.003021
160 0.000998
159 0.001021
158 0.002027
160 0.003039
162 0.003024
168 0.001995
172 0.002991
174 0.002964
180 0.001012
182 0.000998
184 0.000991
186 0.002992
190 0.00304
190 0.002046
160 0.000998
139 0.001003
131 0.002985
132 0.014994
136 0.001019
137 0.004027
142 0.0
145 0.000992
145 0.001
147 0.00303
147 0.002992
148 0.000997
151 0.000997
155 0.001995
158 0.002991
163 0.001002
166 0.003996
170 0.003977
174 0.0
175 0.0
180 0.001007
178 0.002981
155 0.002994
128 0.0
122 0.000983
124 0.002017
128 0.003988
132 0.001995
136 0.004021
139 0.003988
142 0.000989
143 0.000994
144 0.000984
147 0.004015
149 0.002992
172 0.002999
175 0.002991
182 0.002984
188 0.002974
197 0.002047
202 0.003974
206 0.004039
212 0.000981
201 0.001
160 0.000972
130 0.00399
119 0.00406
127 0.00097
134 0.001971
136 0.0
142 0.003958
149 0.0
151 0.00399
150 0.004026
151 0.000983
155 0.000999
160 0.0
164 0.003032
169 0.003961
177 0.001011
181 0.000992
186 0.001003
189 0.00403
199 0.0
181 0.004016
141 0.003989
111 0.0
110 0.0
116 0.001011
121 0.003987
126 0.003989
133 0.0
137 0.0
138 0.0
138 0.003984
137 0.0
142 0.004044
147 0.004042
154 0.0
159 0.000997
163 0.000998
169 0.004022
173 0.003977
177 0.0
178 0.001024
148 0.000964
109 0.003952
87 0.000994
89 0.004023
95 0.004018
99 0.000988
103 0.000977
110 0.000995
114 0.005013
114 0.005018
115 0.0
118 0.000976
122 0.000953
128 0.004944
138 0.0
145 0.003977
153 0.004031
161 0.0
167 0.0
172 0.0
166 0.004986
127 0.004987
87 0.0
83 0.0
84 0.0
89 0.004992
94 0.0
101 0.005038
107 0.004016
109 0.0
109 0.001002
111 0.00101
113 0.005033
118 0.005035
129 0.000999
135 0.001048
140 0.0
146 0.004987
155 0.0
161 0.005052
165 0.006008
171 0.000997
153 0.0
110 0.0
85 0.004988
77 0.00502
84 0.0
89 0.0
92 0.0
98 0.005019
107 0.0
112 0.004989
112 0.005022
115 0.0
119 0.000942
127 0.000997
132 0.005038
139 0.005004
146 0.005004
153 0.0
158 0.0
165 0.0
171 0.000997
175 0.000939
180 0.005983
172 0.005036
117 0.0
92 0.001016
90 0.000976
95 0.00495
100 0.005005
106 0.00102
110 0.00097
116 0.001046
119 0.0
117 0.000998
119 0.004987
123 0.004986
131 0.000998
138 0.001072
144 0.001025
150 0.005041
156 0.005029
163 0.0
166 0.001005
172 0.001024
159 0.001002
133 0.00196
92 0.005018
87 0.006
93 0.002027
97 0.000989
102 0.000996
107 0.005992
112 0.004976
117 0.0
116 0.001012
116 0.000968
122 0.001025
129 0.001003
136 0.005984
141 0.005984
148 0.000974
154 0.000997
158 0.001055
162 0.005984
168 0.005984
169 0.00197
135 0.002
97 0.000956
76 0.001995
81 0.002039
86 0.005987
89 0.006024
93 0.000977
98 0.000996
103 0.00103
103 0.006018
103 0.005997
107 0.000991
112 0.0
117 0.0
128 0.002022
136 0.001036
140 0.005985
147 0.00603
154 0.000971
161 0.000998
168 0.001967
171 0.006037
143 0.006008
91 0.000997
76 0.000997
65 0.000997
76 0.002022
77 0.001995
81 0.006035
90 0.006034
98 0.001028
98 0.002015
100 0.002025
105 0.005984
109 0.006008
119 0.0
130 0.000998
139 0.000994
150 0.001994
157 0.00205
163 0.00599
172 0.005983
180 0.002997
189 0.002996
188 0.002964
141 0.006993
92 0.007026
72 0.001981
75 0.001939
84 0.001994
92 0.001967
99 0.001996
107 0.005977
114 0.005988
114 0.001973
113 0.002959
119 0.001034
126 0.005984
134 0.005961
147 0.001029
156 0.000999
162 0.001664
173 0.000997
182 0.002052
188 0.006016
194 0.006022
203 0.001981
193 0.001995
139 0.00203
96 0.007006
87 0.006983
95 0.001988
104 0.002046
113 0.002024
126 0.002048
135 0.002016
136 0.005994
134 0.006037
137 0.003022
141 0.002
149 0.002996
155 0.006976
163 0.006989
174 0.002024
182 0.002002
187 0.002023
197 0.001995
206 0.002029
200 0.006
148 0.006013
101 0.002995
95 0.002992
102 0.002992
111 0.007002
121 0.007013
129 0.00302
137 0.002069
143 0.002003
143 0.002015
142 0.002001
144 0.007006
154 0.006029
164 0.002992
170 0.001
177 0.003014
184 0.006996
192 0.00699
198 0.007031
207 0.002003
209 0.00202
135 0.003949
96 0.002994
87 0.00298
94 0.007985
102 0.007946
109 0.002969
115 0.003001
124 0.002991
130 0.00695
129 0.006948
130 0.00202
134 0.00204
148 0.002047
155 0.002021
162 0.001995
170 0.007979
177 0.007934
183 0.003042
192 0.002992
196 0.002993
201 0.007021
184 0.007031
112 0.00299
84 0.003061
86 0.00296
97 0.000999
103 0.004017
109 0.007916
116 0.007979
129 0.003001
130 0.002993
129 0.003042
132 0.007031
136 0.006784
145 0.00196
154 0.001962
166 0.001997
174 0.00303
177 0.003052
186 0.007978
192 0.007981
199 0.002992
200 0.003021
156 0.002991
113 0.007018
94 0.007015
97 0.002984
105 0.002993
114 0.003025
124 0.002992
132 0.003019
134 0.007979
136 0.007979
137 0.003044
140 0.002992
147 0.00399
156 0.007048
161 0.006986
169 0.003991
178 0.002956
188 0.004013
193 0.003016
197 0.003018
193 0.007979
146 0.007978
95 0.000997
91 0.002993
98 0.001994
108 0.007979
116 0.007959
124 0.002989
131 0.002946
135 0.00304
131 0.003992
131 0.003993
138 0.007955
145 0.007954
153 0.003045
157 0.003009
164 0.002932
171 0.007002
181 0.007935
184 0.003997
157 0.004014
88 0.004021
74 0.003993
78 0.004018
89 0.007972
95 0.007979
104 0.002998
114 0.003987
117 0.004954
114 0.00698
115 0.006982
116 0.003958
122 0.003991
136 0.004024
144 0.003952
152 0.003992
159 0.007929
166 0.006983
173 0.005013
143 0.003991
90 0.004955
55 0.006956
53 0.006981
57 0.003959
64 0.004031
71 0.00399
81 0.003992
86 0.003997
89 0.00798
86 0.007986
90 0.004022
97 0.003949
103 0.004068
116 0.006972
123 0.006967
131 0.00404
139 0.004006
150 0.004001
139 0.003981
86 0.003016
39 0.007978
31 0.007974
35 0.002992
40 0.002991
43 0.00401
50 0.007963
58 0.007974
64 0.003018
68 0.003026
70 0.004013
76 0.004017
81 0.003996
95 0.006952
105 0.006987
112 0.003984
123 0.002989
131 0.002981
141 0.006993
150 0.006948
127 0.003982
75 0.00399
33 0.005051
38 0.005016
45 0.004996
52 0.006959
58 0.006982
68 0.006961
76 0.004018
82 0.004016
84 0.003999
88 0.006966
95 0.006973
106 0.003988
122 0.0069
131 0.00499
140 0.005015
152 0.004008
158 0.007027
164 0.006933
175 0.003951
181 0.004002
155 0.004957
96 0.005971
77 0.006981
79 0.004995
95 0.006987
103 0.004994
110 0.004997
121 0.003997
128 0.006995
129 0.006948
128 0.003988
131 0.004016
141 0.003042
151 0.006976
159 0.006061
169 0.004023
179 0.005985
186 0.00493
192 0.004017
201 0.004968
204 0.007016
166 0.007014
128 0.004022
112 0.00397
117 0.003996
130 0.006941
136 0.006952
144 0.004993
156 0.005985
161 0.004988
160 0.004993
160 0.004983
166 0.00603
174 0.006995
181 0.004003
189 0.003981
196 0.00502
201 0.006962
207 0.005977
214 0.00499
222 0.00601
226 0.004956
192 0.004991
141 0.004941
130 0.006965
133 0.00698
145 0.004953
150 0.005986
153 0.004972
164 0.005979
170 0.005984
171 0.005982
172 0.006018
176 0.005969
180 0.004967
186 0.004993
194 0.005965
199 0.005936
206 0.004979
211 0.004986
215 0.004955
223 0.00599
228 0.005881
233 0.004987
199 0.006016
147 0.005968
136 0.004972
140 0.004966
151 0.005979
155 0.005969
159 0.004979
168 0.004968
170 0.004989
173 0.00598
161 0.005954
104 0.004984
14 0.005949
0 0.005032
0 0.005986
0 0.00501
0 0.005988
0 0.005954
0 0.004983
0 0.004997
0 0.004982
0 0.005028
17 0.005977
59 0.005982
85 0.006025
75 0.00598
91 0.005987
119 0.005026
140 0.005015
159 0.004986
179 0.005025
196 0.005019
204 0.005016
209 0.005034
209 0.005017
213 0.005984
223 0.005984
150 0.005979
237 0.005977
243 0.004989
249 0.006017
254 0.005989
255 0.004976
198 0.004995
200 0.004995
201 0.004989
204 0.004971
207 0.005027
200 0.005021
171 0.00598
154 0.005018
152 0.005041
160 0.005016
164 0.005019
168 0.004963
171 0.004954
174 0.004957
174 0.005011
173 0.00496
170 0.004994
172 0.005984
175 0.004989
176 0.005012
180 0.005008
183 0.006017
185 0.005015
188 0.004995
190 0.004995
192 0.004987
194 0.004952
195 0.004968
169 0.004962
145 0.005017
145 0.004981
151 0.004999
156 0.00496
160 0.004993
164 0.004956
167 0.00498
167 0.004989
165 0.004957
164 0.004967
165 0.00498
167 0.004939
171 0.004987
175 0.004987
178 0.004963
179 0.004949
182 0.004974
184 0.004996
186 0.004981
188 0.004979
186 0.004968
159 0.004966
137 0.004976
131 0.003989
136 0.003988
141 0.004019
146 0.003985
149 0.003979
154 0.005005
153 0.005018
152 0.00498
152 0.004989
152 0.005031
153 0.004962
173 0.004967
179 0.00498
184 0.004986
190 0.004019
193 0.003982
196 0.003983
200 0.004017
202 0.004987
193 0.004996
136 0.004982
111 0.004946
107 0.004947
114 0.004959
124 0.004982
133 0.004018
138 0.003989
143 0.003959
144 0.003989
141 0.003973
137 0.003989
142 0.003985
147 0.004987
150 0.004972
156 0.004939
159 0.004981
164 0.003976
169 0.004013
173 0.003982
178 0.003925
180 0.003985
168 0.003954
123 0.00403
92 0.003983
88 0.004972
94 0.003975
104 0.005002
109 0.003981
113 0.003982
121 0.003984
122 0.003989
120 0.003989
121 0.003963
122 0.004987
128 0.004946
136 0.004022
138 0.004947
142 0.004938
149 0.00396
150 0.003941
154 0.00396
160 0.00399
164 0.003958
164 0.003991
123 0.003959
86 0.003961
75 0.003026
78 0.003027
90 0.002971
95 0.003976
98 0.003984
104 0.003994
108 0.004018
105 0.003984
103 0.003989
107 0.003985
113 0.003984
119 0.003976
123 0.003974
128 0.003983
136 0.003977
138 0.003023
143 0.002991
144 0.002991
150 0.004029
125 0.003989
86 0.003989
62 0.004023
64 0.003988
75 0.00399
79 0.003975
85 0.002993
94 0.002987
96 0.002975
93 0.002983
91 0.002992
93 0.003966
98 0.00402
102 0.004026
109 0.003996
114 0.004014
119 0.002862
122 0.002994
127 0.002985
132 0.002994
133 0.00401
134 0.004005
95 0.003996
59 0.003983
40 0.002993
47 0.002992
55 0.003029
55 0.002994
60 0.002986
64 0.002971
66 0.003004
64 0.002993
62 0.003996
66 0.003984
71 0.003998
78 0.00297
86 0.003988
90 0.002978
97 0.002997
102 0.00298
105 0.002991
109 0.002994
115 0.002986
113 0.00299
74 0.003001
38 0.002994
20 0.002974
21 0.002994
31 0.004007
36 0.002992
37 0.003022
44 0.002951
48 0.002962
49 0.002027
47 0.001988
49 0.002015
56 0.003039
60 0.003017
67 0.003026
73 0.002972
84 0.002984
90 0.002992
99 0.002992
107 0.002994
113 0.002985
119 0.001993
119 0.001998
76 0.001977
35 0.00302
29 0.002973
33 0.003001
42 0.002986
48 0.00299
56 0.002987
61 0.002993
63 0.002
65 0.002989
63 0.002019
68 0.001983
75 0.001993
84 0.001986
90 0.00199
97 0.00299
106 0.002978
114 0.00303
119 0.003025
123 0.003024
133 0.002976
134 0.002995
92 0.001983
58 0.001978
44 0.002002
51 0.002012
62 0.002967
68 0.003021
73 0.003036
84 0.002026
86 0.002991
82 0.001992
83 0.002
88 0.002009
94 0.001996
101 0.002037
109 0.002026
115 0.002027
122 0.002
129 0.002028
135 0.002981
144 0.002961
128 0.001987
84 0.001978
53 0.002047
51 0.002019
59 0.002028
66 0.002032
69 0.002019
77 0.00203
85 0.002029
85 0.002019
82 0.002021
84 0.002026
92 0.002992
97 0.00296
105 0.001955
112 0.002014
120 0.001962
124 0.001992
130 0.001962
138 0.001993
144 0.00199
128 0.001999
83 0.001982
42 0.002994
45 0.002002
51 0.001952
54 0.002032
57 0.001989
64 0.002008
70 0.001035
69 0.00202
71 0.001994
73 0.001977
77 0.000988
84 0.000998
94 0.000997
103 0.000998
108 0.000998
117 0.000997
127 0.000981
130 0.000993
137 0.001994
138 0.001994
88 0.001996
55 0.001998
43 0.002015
45 0.001996
54 0.001996
57 0.000997
61 0.002992
71 0.000997
75 0.000998
75 0.001014
78 0.001994
82 0.002023
92 0.002
101 0.00198
108 0.002035
119 0.001997
130 0.00199
137 0.001996
142 0.000984
152 0.000993
160 0.001069
157 0.000999
117 0.000997
81 0.001003
67 0.002039
72 0.001997
80 0.001002
86 0.00101
96 0.000988
103 0.000998
106 0.000991
106 0.001026
106 0.000963
110 0.000959
118 0.001039
123 0.0
135 0.0
145 0.001053
149 0.001036
156 0.001991
166 0.001995
176 0.001037
168 0.001006
116 0.000998
96 0.001004
94 0.000993
102 0.001013
110 0.000997
119 0.001981
127 0.001973
133 0.001977
136 0.000993
133 0.00098
136 0.000994
142 0.000997
148 0.001029
159 0.000998
164 0.001003
170 0.001003
175 0.000978
182 0.001028
190 0.001991
195 0.0
192 0.000981
126 0.001003
108 0.000995
107 0.000989
114 0.001
127 0.001003
129 0.000973
136 0.0
142 0.0
147 0.0
144 0.0
146 0.0
150 0.0
161 0.000996
167 0.001029
172 0.001043
179 0.001019
189 0.000986
193 0.0
200 0.001003
203 0.001028
211 0.001029
196 0.0
151 0.0
123 0.0
120 0.0
129 0.0
135 0.001003
140 0.001059
148 0.000996
151 0.000964
155 0.001004
156 0.000989
156 0.001001
161 0.0
167 0.0
174 0.0
184 0.0
190 0.0
196 0.0
202 0.0
206 0.000978
211 0.000994
216 0.000997
219 0.001021
211 0.0
155 0.0
128 0.0
124 0.0
134 0.0
143 0.0
144 0.0
152 0.0
158 0.000995
161 0.001015
159 0.0
159 0.0
162 0.0
170 0.0
174 0.0
180 0.0
189 0.0
194 0.0
198 0.0
202 0.0
208 0.001006
212 0.0
217 0.001028
217 0.0
189 0.0
138 0.0
121 0.0
126 0.0
139 0.000997
145 0.0
148 0.0
155 0.000997
161 0.0
159 0.000961
160 0.001995
162 0.0
167 0.0
173 0.0
179 0.0
187 0.0
196 0.0
199 0.0
204 0.000992
207 0.000999
215 0.000996
217 0.001003
222 0.001004
201 0.000998
156 0.0
127 0.000997
129 0.001998
139 0.002032
150 0.001007
157 0.001041
163 0.000997
166 0.000971
166 0.0
162 0.000949
165 0.000967
167 0.000968
174 0.000969
180 0.001005
187 0.000972
191 0.001001
198 0.002034
200 0.002001
204 0.001997
211 0.000948
204 0.000977
163 0.000995
130 0.000998
118 0.000999
125 0.00102
139 0.001034
142 0.000989
147 0.001024
156 0.001008
156 0.001991
153 0.001984
155 0.000978
158 0.000987
163 0.000996
168 0.001021
173 0.000997
177 0.001004
184 0.001013
187 0.001008
190 0.001011
195 0.000993
200 0.001011
192 0.001997
145 0.000986
103 0.000993
100 0.00098
106 0.000991
112 0.001142
118 0.000968
122 0.00099
127 0.002
131 0.000997
127 0.00099
130 0.000997
133 0.00105
136 0.002051
136 0.001061
141 0.002028
144 0.001024
148 0.000968
152 0.000991
156 0.000999
164 0.00101
169 0.000997
158 0.000998
113 0.00402
82 0.004953
74 0.000982
80 0.000972
89 0.001957
95 0.002044
98 0.001998
106 0.001972
108 0.001063
109 0.00202
109 0.001
112 0.000997
119 0.000999
123 0.001008
131 0.001987
138 0.000982
143 0.000991
149 0.002013
156 0.001991
160 0.001992
164 0.001017
173 0.001001
154 0.000958
86 0.001966
74 0.001971
80 0.00201
89 0.002053
95 0.002003
99 0.001987
109 0.002007
111 0.001929
112 0.001956
110 0.002025
112 0.001996
119 0.000988
129 0.001032
136 0.001033
141 0.000998
149 0.002003
154 0.001024
161 0.002066
165 0.00197
170 0.001963
173 0.002009
145 0.001992
95 0.001992
83 0.001972
92 0.000991
100 0.002021
106 0.001025
112 0.001008
118 0.001988
123 0.001973
118 0.001985
116 0.002011
121 0.002041
127 0.002013
132 0.001995
140 0.002028
149 0.001069
155 0.001991
159 0.001044
164 0.001024
168 0.002013
143 0.00201
100 0.002053
77 0.001997
76 0.002016
82 0.002047
91 0.001997
97 0.001995
105 0.001999
108 0.001988
105 0.002983
102 0.002037
105 0.001996
110 0.002
116 0.002031
122 0.002024
130 0.00205
133 0.00199
141 0.001987
146 0.001995
155 0.002957
151 0.00295
108 0.00296
73 0.003006
58 0.001951
58 0.002958
66 0.001996
69 0.001994
71 0.002031
74 0.002028
82 0.002027
82 0.002031
81 0.002027
84 0.00303
90 0.001985
98 0.002992
105 0.002991
111 0.002089
120 0.003016
124 0.002027
130 0.002957
133 0.003025
141 0.000991
118 0.002026
54 0.002002
43 0.002004
41 0.002044
50 0.002009
51 0.002993
55 0.003022
62 0.003041
68 0.002993
68 0.002983
68 0.002985
71 0.003
75 0.002998
85 0.002022
94 0.00206
101 0.002019
107 0.002049
111 0.002994
122 0.002992
129 0.003025
139 0.002993
143 0.002974
132 0.00298
73 0.002963
52 0.003993
53 0.004
61 0.002956
62 0.0
66 0.002972
74 0.002955
83 0.0
86 0.002989
87 0.004983
89 0.001999
97 0.002945
104 0.002993
114 0.003051
123 0.002951
135 0.002992
141 0.002968
152 0.002948
158 0.001964
162 0.001961
169 0.002989
175 0.002994
154 0.001995
111 0.001995
91 0.002992
83 0.002999
95 0.002991
102 0.002993
103 0.003935
114 0.002003
119 0.001992
117 0.001995
119 0.002991
121 0.003024
127 0.002051
135 0.002015
142 0.002002
150 0.003014
159 0.002025
165 0.004003
171 0.004035
179 0.002019
185 0.00098
188 0.001982
160 0.003998
118 0.003965
96 0.002992
102 0.002016
109 0.002001
115 0.002994
124 0.002988
133 0.002992
134 0.00396
133 0.003027
135 0.003041
138 0.001991
145 0.003997
150 0.002992
160 0.003025
166 0.002022
172 0.001992
177 0.002992
185 0.002993
191 0.004009
196 0.003967
192 0.002026
153 0.002958
113 0.001992
97 0.003984
96 0.003989
107 0.002025
111 0.002003
112 0.002048
119 0.003002
123 0.002993
126 0.001997
128 0.002994
123 0.003989
127 0.001995
134 0.001995
146 0.001028
152 0.003999
159 0.000996
164 0.000992
170 0.000995
177 0.003989
184 0.001995
183 0.003988
143 0.003992
97 0.000997
85 0.000989
87 0.003006
95 0.003993
98 0.003995
102 0.001964
110 0.001954
113 0.000999
118 0.004987
117 0.001995
123 0.003948
129 0.003955
141 0.000997
149 0.002056
156 0.002021
165 0.003955
172 0.004902
179 0.000997
186 0.001945
194 0.000994
197 0.005037
135 0.002975
105 0.004046
100 0.004015
108 0.001994
117 0.000999
121 0.002007
130 0.003993
135 0.003994
140 0.002019
140 0.001013
138 0.0
142 0.004986
151 0.000964
159 0.004026
164 0.004991
175 0.002029
183 0.001999
188 0.001
194 0.003986
198 0.003982
189 0.001967
144 0.000995
114 0.000958
106 0.003994
116 0.0
125 0.004986
131 0.005016
139 0.001016
143 0.001001
142 0.000971
139 0.003988
139 0.003986
146 0.000977
153 0.000993
157 0.000958
166 0.00399
175 0.00096
180 0.004991
185 0.004977
189 0.00199
158 0.001998
115 0.001035
95 0.004962
95 0.003952
104 0.002006
111 0.0
114 0.000991
123 0.005018
128 0.001006
127 0.004991
126 0.004979
131 0.001999
135 0.000965
142 0.000998
149 0.002003
154 0.004005
161 0.003988
168 0.0
172 0.000991
179 0.0
143 0.001005
102 0.0
79 0.005018
80 0.005011
88 0.0
91 0.0
94 0.0
100 0.004988
105 0.00499
108 0.0
107 0.0
107 0.000998
115 0.000963
121 0.0
128 0.005942
135 0.004986
144 0.0
149 0.0
156 0.001
160 0.004959
163 0.004987
115 0.000966
80 0.0
66 0.001027
72 0.001005
78 0.001002
79 0.005984
88 0.006043
97 0.001025
98 0.0
101 0.001004
101 0.004984
105 0.004992
115 0.001003
124 0.00097
133 0.000973
144 0.001965
154 0.0
161 0.005988
167 0.005993
177 0.0
171 0.002014
132 0.001995
96 0.005984
89 0.004987
95 0.0
99 0.0
105 0.002025
115 0.001002
123 0.001035
124 0.005956
126 0.006001
129 0.000997
132 0.001996
139 0.0
146 0.005956
153 0.00599
161 0.002043
168 0.000997
173 0.000945
183 0.001015
191 0.001964
188 0.005997
153 0.005953
111 0.002006
101 0.0
107 0.0
115 0.005989
125 0.005999
133 0.000996
139 0.0
143 0.00101
140 0.001021
139 0.001
142 0.005967
152 0.005992
161 0.001007
164 0.001042
172 0.0
177 0.006027
181 0.00698
186 0.001994
191 0.002004
180 0.001024
116 0.000981
99 0.000995
100 0.005993
108 0.00598
113 0.002007
119 0.000994
129 0.000998
132 0.005974
133 0.005991
131 0.002036
131 0.001995
136 0.001057
146 0.00103
152 0.002012
158 0.005981
167 0.005974
172 0.001991
177 0.001011
185 0.002008
187 0.005989
160 0.005958
107 0.001023
91 0.002056
90 0.001994
99 0.001996
103 0.001977
107 0.006981
116 0.006991
120 0.002016
121 0.000989
122 0.000971
123 0.005956
132 0.005984
141 0.002015
146 0.001054
153 0.001003
163 0.0
170 0.001006
175 0.005987
181 0.006976
186 0.00098
151 0.001008
108 0.001009
90 0.00699
89 0.005984
97 0.001004
101 0.001084
108 0.001038
118 0.000992
122 0.002005
122 0.00698
122 0.006998
127 0.001001
133 0.000995
140 0.00099
146 0.006985
156 0.007949
165 0.002995
170 0.001996
180 0.002002
191 0.002012
198 0.001035
184 0.006989
144 0.006996
113 0.006975
106 0.002021
116 0.001971
125 0.001021
131 0.007024
136 0.006016
147 0.000998
148 0.00102
148 0.001024
151 0.001974
157 0.002007
164 0.006987
171 0.006983
179 0.00103
187 0.00094
192 0.002083
198 0.006017
202 0.008005
212 0.002004
219 0.001032
164 0.001992
132 0.002028
124 0.00201
133 0.006931
140 0.007007
150 0.001981
161 0.001991
166 0.002027
168 0.00703
166 0.007015
164 0.001988
166 0.001988
176 0.001175
184 0.002992
190 0.002927
194 0.007968
198 0.00794
204 0.00196
211 0.00197
212 0.001969
188 0.006926
144 0.006936
118 0.002967
124 0.003023
138 0.003022
145 0.002958
151 0.002967
159 0.007975
160 0.007986
154 0.002003
152 0.001058
156 0.001019
161 0.007011
168 0.007041
174 0.001995
181 0.001997
190 0.00201
195 0.002002
199 0.002015
180 0.007945
134 0.007975
105 0.001979
98 0.000996
104 0.003003
112 0.008011
115 0.007014
124 0.002024
133 0.002
133 0.001999
131 0.002986
129 0.003035
136 0.007979
144 0.007947
148 0.00204
154 0.00301
161 0.003047
165 0.007965
171 0.008017
177 0.003963
176 0.003992
108 0.002994
82 0.002959
78 0.002991
83 0.007981
91 0.007974
96 0.003002
104 0.003014
109 0.003993
112 0.007979
112 0.007949
109 0.00297
114 0.003011
122 0.002981
128 0.002962
133 0.002957
141 0.007989
144 0.007958
151 0.001987
158 0.002039
162 0.003021
151 0.007979
110 0.008022
72 0.002982
67 0.003019
78 0.00202
86 0.003043
89 0.001996
99 0.007978
104 0.008005
104 0.003011
104 0.002986
105 0.001941
115 0.006956
118 0.007981
128 0.002987
137 0.002989
148 0.002992
155 0.001965
160 0.003041
166 0.00796
170 0.007923
174 0.001997
139 0.002044
98 0.002997
81 0.007979
86 0.00795
93 0.000992
99 0.003989
108 0.00296
116 0.003025
116 0.00296
114 0.007946
114 0.007936
119 0.00296
126 0.00396
131 0.003964
142 0.006982
149 0.006983
153 0.004004
161 0.003048
168 0.002985
175 0.002994
170 0.003958
120 0.006921
91 0.005991
82 0.002958
89 0.003957
97 0.004018
100 0.006986
110 0.007009
115 0.003014
116 0.002988
112 0.002999
113 0.003981
117 0.003003
125 0.007019
131 0.006981
138 0.002929
145 0.002959
150 0.00399
156 0.006982
162 0.006921
167 0.006949
172 0.002993
116 0.006957
81 0.003983
67 0.00399
73 0.001993
78 0.007935
80 0.006953
85 0.003989
91 0.003022
94 0.003946
96 0.006984
94 0.006978
96 0.003991
104 0.006974
112 0.003996
120 0.003995
127 0.003982
135 0.006968
141 0.006987
147 0.00399
151 0.003973
159 0.00402
156 0.006981
114 0.006982
77 0.004024
59 0.007038
65 0.003939
71 0.003936
74 0.002991
82 0.006992
86 0.006983
91 0.003989
88 0.003028
90 0.004008
95 0.005994
102 0.007007
109 0.002988
121 0.006979
130 0.002995
136 0.00305
143 0.002989
152 0.007014
157 0.006977
164 0.002947
168 0.004022
148 0.004019
87 0.005987
66 0.005985
66 0.004987
77 0.00696
84 0.003957
89 0.003993
99 0.003983
107 0.006975
106 0.006962
108 0.003988
113 0.005003
120 0.003955
131 0.005982
139 0.005979
146 0.004949
158 0.006981
166 0.004983
172 0.003939
180 0.002993
188 0.00695
195 0.006974
195 0.004019
154 0.004036
112 0.003991
95 0.005985
98 0.006027
110 0.004024
119 0.006983
127 0.002998
135 0.002992
137 0.004006
133 0.005982
133 0.005976
139 0.003999
144 0.003998
152 0.005019
164 0.006009
169 0.005974
176 0.00399
185 0.006008
192 0.00402
202 0.004979
205 0.004019
159 0.006027
119 0.005961
103 0.005019
104 0.004987
113 0.004955
124 0.005986
131 0.005985
142 0.00499
142 0.005976
142 0.003974
140 0.004964
145 0.003988
152 0.004963
157 0.005984
165 0.004981
169 0.004987
176 0.004993
183 0.005014
188 0.005984
197 0.004957
174 0.005961
127 0.003987
94 0.004986
90 0.005003
97 0.004986
104 0.00502
112 0.005974
117 0.004988
124 0.005018
123 0.006021
121 0.006018
123 0.004994
130 0.005967
136 0.004989
142 0.004015
149 0.004981
158 0.00497
163 0.004019
170 0.004983
174 0.00502
179 0.005018
149 0.006034
101 0.005983
74 0.004994
69 0.004979
77 0.004987
83 0.004995
87 0.004986
94 0.004985
96 0.004983
97 0.004986
97 0.004983
98 0.004987
105 0.005976
112 0.005977
121 0.004998
131 0.005999
141 0.004985
149 0.004977
153 0.00498
162 0.004985
155 0.004954
113 0.004987
64 0.004991
52 0.004987
52 0.004978
63 0.005935
70 0.003993
80 0.005981
88 0.004978
94 0.004966
93 0.004993
97 0.004987
104 0.004979
112 0.005013
122 0.004984
132 0.004979
141 0.004992
147 0.004981
157 0.004981
169 0.00498
177 0.004952
157 0.004981
111 0.004983
84 0.004985
75 0.004987
82 0.004954
92 0.004977
94 0.004977
102 0.003979
110 0.003993
113 0.004022
112 0.004987
117 0.004951
125 0.004008
134 0.003981
143 0.00402
149 0.004986
155 0.004987
163 0.004987
172 0.004986
179 0.004988
180 0.004986
147 0.004986
91 0.005023
87 0.004962
95 0.004987
103 0.004025
109 0.003986
117 0.004022
124 0.004039
125 0.00501
121 0.005005
123 0.004983
129 0.004986
137 0.005012
148 0.004954
155 0.003989
166 0.004992
170 0.003955
177 0.003951
183 0.003965
172 0.00399
112 0.003987
85 0.004966
82 0.005014
85 0.004986
93 0.005019
102 0.004983
110 0.004983
116 0.003981
114 0.003996
114 0.003978
116 0.004019
124 0.00399
131 0.003949
141 0.00399
151 0.004972
156 0.005032
163 0.004983
173 0.004986
182 0.004991
171 0.003987
125 0.003992
91 0.003983
78 0.004016
80 0.004018
88 0.003992
92 0.003971
96 0.003959
102 0.004994
109 0.004987
111 0.004984
113 0.00498
119 0.003983
127 0.003982
137 0.00399
143 0.00399
152 0.003989
163 0.003991
168 0.003963
175 0.004962
179 0.004987
188 0.003964
143 0.004957
105 0.003962
82 0.003965
86 0.003992
96 0.00397
100 0.003994
104 0.00399
115 0.00393
118 0.003978
121 0.003975
121 0.003015
126 0.003021
137 0.003993
146 0.004038
157 0.003989
167 0.003994
175 0.003963
182 0.003971
192 0.003956
202 0.004021
207 0.003977
216 0.002998
213 0.002987
168 0.003024
116 0.002977
115 0.004013
129 0.004009
133 0.004023
139 0.003988
148 0.003989
155 0.003989
155 0.003951
156 0.002998
159 0.003985
162 0.003021
171 0.002975
183 0.002977
189 0.00398
202 0.004023
208 0.004005
217 0.003974
221 0.003971
229 0.002993
235 0.002991
219 0.003989
174 0.002981
138 0.003016
131 0.003024
143 0.002992
152 0.002983
161 0.003008
167 0.002977
173 0.004001
171 0.003942
167 0.004
169 0.003988
174 0.003989
179 0.002957
181 0.002985
189 0.002993
195 0.00299
200 0.002992
204 0.002989
210 0.003968
216 0.003955
193 0.004037
147 0.003992
115 0.003991
108 0.003985
118 0.002994
123 0.002964
127 0.003017
138 0.003024
141 0.003022
139 0.002992
138 0.00299
141 0.002987
148 0.002991
153 0.002989
160 0.003026
169 0.003001
177 0.001956
183 0.003987
191 0.002992
199 0.002966
207 0.00299
200 0.00299
137 0.002997
101 0.00299
90 0.002974
95 0.002992
102 0.003017
109 0.001997
116 0.002978
124 0.001962
129 0.003011
126 0.002972
126 0.00299
130 0.003
138 0.002993
146 0.002982
153 0.00297
159 0.002995
166 0.001992
172 0.002024
178 0.002016
182 0.001987
190 0.002022
150 0.003005
101 0.003004
78 0.003023
77 0.00299
85 0.001995
90 0.002982
98 0.00299
105 0.002992
111 0.001994
115 0.001998
111 0.001964
112 0.001996
119 0.002986
129 0.002992
137 0.003021
146 0.003019
156 0.002947
164 0.002998
171 0.002017
177 0.002038
188 0.002025
184 0.001994
138 0.001988
98 0.002017
80 0.001986
89 0.002002
98 0.001978
105 0.002946
117 0.002991
124 0.002038
127 0.001996
125 0.002035
127 0.002017
133 0.001987
138 0.001993
147 0.001995
161 0.001972
170 0.002018
176 0.00199
183 0.001954
190 0.00196
198 0.002946
198 0.002996
158 0.002038
103 0.002021
91 0.00203
94 0.001983
104 0.001993
114 0.001974
123 0.002001
128 0.001998
130 0.00203
127 0.001982
126 0.000997
131 0.000996
140 0.001995
149 0.002045
158 0.001988
164 0.001972
171 0.001995
180 0.002038
187 0.001959
186 0.001998
134 0.001959
94 0.000998
78 0.000996
81 0.000998
89 0.002
97 0.001999
106 0.001998
115 0.002021
118 0.001997
113 0.001973
112 0.000944
117 0.001026
127 0.00103
136 0.000986
142 0.002041
150 0.0
156 0.0
163 0.001995
171 0.001991
176 0.000989
165 0.000996
85 0.002003
61 0.000997
57 0.000998
61 0.001045
68 0.001003
71 0.00097
79 0.000998
83 0.000997
87 0.001997
85 0.001969
85 0.000997
91 0.002008
102 0.002011
112 0.001051
119 0.001997
131 0.002027
140 0.001998
145 0.002037
153 0.002048
157 0.001028
139 0.0
75 0.000997
45 0.000996
39 0.0
48 0.001008
54 0.000996
57 0.001026
66 0.000997
75 0.001014
75 0.001003
75 0.000999
79 0.001
86 0.000998
96 0.002026
105 0.001002
115 0.000997
127 0.0
137 0.001011
142 0.000997
151 0.00099
162 0.001007
165 0.000997
134 0.000998
85 0.000993
59 0.000989
52 0.001002
59 0.000971
64 0.0
74 0.0
85 0.0
90 0.000964
94 0.0
96 0.000998
101 0.001002
111 0.000989
121 0.000988
131 0.000998
144 0.000965
155 0.00099
164 0.000997
177 0.0
185 0.0
192 0.0
203 0.0
176 0.000965
131 0.0
105 0.000998
97 0.000999
104 0.0
117 0.0
120 0.0
129 0.0
141 0.0
145 0.0
143 0.0
145 0.0
156 0.000996
164 0.0
172 0.0
178 0.0
188 0.0
199 0.001
203 0.000997
209 0.0
222 0.000991
223 0.0
188 0.0
147 0.0
129 0.0
132 0.0
142 0.0
147 0.0
156 0.0
166 0.0
168 0.000964
169 0.000998
167 0.0
174 0.0
178 0.0
184 0.0
197 0.0
202 0.001023
208 0.0
214 0.0
221 0.0
227 0.0
234 0.0
239 0.0
181 0.0
145 0.0
133 0.001
138 0.0
147 0.0
151 0.0
158 0.0
165 0.0
170 0.0
170 0.0
168 0.0
172 0.0
177 0.0
185 0.000997
189 0.001004
197 0.000983
205 0.0
209 0.0
215 0.001053
219 0.00103
225 0.001033
142 0.001022
203 0.002031
160 0.00203
128 0.001995
133 0.002027
140 0.002992
147 0.002026
150 0.001994
157 0.001057
162 0.000987
161 0.002047
160 0.00205
163 0.000997
165 0.000997
172 0.001997
180 0.001991
189 0.001959
193 0.002026
200 0.002028
206 0.002025
210 0.001961
215 0.001042
220 0.001032
212 0.001022
154 0.000974
123 0.001991
118 0.002029
128 0.001987
135 0.002029
140 0.002028
147 0.001999
151 0.002042
153 0.001997
154 0.002026
152 0.000995
159 0.00099
164 0.001029
171 0.001036
180 0.001005
188 0.001992
197 0.001991
201 0.001993
206 0.002022
211 0.002048
219 0.002007
212 0.001987
168 0.002039
135 0.001994
122 0.001056
130 0.001998
141 0.002035
150 0.002
156 0.002024
160 0.002024
161 0.002028
157 0.002029
157 0.001027
163 0.002053
168 0.001998
175 0.00201
181 0.002066
188 0.001023
194 0.000999
201 0.002
207 0.001989
211 0.001994
203 0.001995
160 0.001994
122 0.00203
120 0.002028
130 0.001995
138 0.002036
143 0.002034
156 0.000997
160 0.000992
158 0.002002
155 0.001993
155 0.001069
161 0.001995
165 0.001987
173 0.002002
179 0.001995
184 0.002045
187 0.002026
191 0.001898
198 0.002031
200 0.002044
137 0.001028
110 0.001054
104 0.001033
112 0.002021
119 0.00204
129 0.001031
134 0.002039
141 0.002044
142 0.002002
139 0.002048
136 0.002044
140 0.00202
148 0.002001
154 0.000999
160 0.001995
166 0.001995
170 0.001994
176 0.001991
182 0.002037
184 0.002045
171 0.002031
125 0.002044
87 0.001982
85 0.002046
95 0.002012
103 0.00196
105 0.002033
111 0.002993
115 0.000942
115 0.001023
113 0.00206
115 0.002046
121 0.001987
125 0.002005
133 0.002044
141 0.002048
149 0.002048
153 0.002061
156 0.001993
165 0.002999
166 0.002993
140 0.002002
95 0.001931
69 0.001994
65 0.00204
69 0.002064
77 0.001998
81 0.001995
90 0.002027
95 0.002045
95 0.003001
93 0.002021
93 0.002029
98 0.002036
103 0.002039
111 0.002948
117 0.002992
120 0.002044
130 0.002002
138 0.002006
145 0.001979
152 0.002046
147 0.002034
108 0.001995
71 0.002954
58 0.001964
65 0.002001
71 0.00297
77 0.002027
86 0.002944
92 0.002994
96 0.003045
97 0.001995
100 0.002012
104 0.001995
113 0.002006
119 0.002008
130 0.002029
137 0.001983
146 0.001988
152 0.002046
154 0.002992
162 0.002977
167 0.003047
147 0.003004
103 0.003063
79 0.001995
76 0.002933
84 0.002961
96 0.003041
100 0.003057
105 0.002961
115 0.003005
116 0.002992
114 0.002962
115 0.003003
120 0.002993
130 0.003003
136 0.003008
143 0.003028
154 0.002993
155 0.003004
162 0.004023
167 0.003031
175 0.001984
168 0.002992
129 0.002959
87 0.002989
85 0.002022
93 0.002992
99 0.002981
104 0.002992
114 0.002028
119 0.002995
116 0.003059
114 0.003008
114 0.002965
121 0.002978
125 0.00198
136 0.002998
145 0.002047
152 0.002992
154 0.003041
164 0.001978
171 0.002028
165 0.00204
124 0.002992
87 0.003011
72 0.002985
76 0.002996
84 0.003023
88 0.003965
97 0.003039
102 0.003959
105 0.003028
104 0.002019
103 0.002068
108 0.001969
116 0.003064
122 0.002959
129 0.002954
139 0.002972
144 0.002959
149 0.002992
157 0.000997
164 0.003021
137 0.004041
80 0.001977
62 0.002006
64 0.002009
72 0.004038
77 0.003043
82 0.001977
91 0.001997
95 0.002024
97 0.002986
95 0.001995
99 0.003019
106 0.003991
114 0.00299
122 0.002028
129 0.00203
136 0.004022
140 0.003976
151 0.002029
158 0.002028
164 0.00199
158 0.003037
86 0.002011
69 0.004009
68 0.004021
82 0.000991
91 0.002026
94 0.002964
103 0.00499
110 0.004987
113 0.001986
114 0.003063
115 0.003034
122 0.003024
135 0.001989
142 0.004037
149 0.003994
159 0.002014
164 0.001995
169 0.002028
177 0.003996
182 0.003997
167 0.003027
122 0.002963
93 0.003011
90 0.00399
103 0.00203
112 0.004029
119 0.004017
142 0.001011
153 0.000997
153 0.000997
151 0.003974
154 0.003991
159 0.001998
165 0.001962
169 0.002006
172 0.004987
175 0.000999
176 0.004035
180 0.004039
186 0.002001
175 0.001963
131 0.003002
96 0.003958
84 0.004988
93 0.001967
104 0.002031
108 0.002018
116 0.004989
123 0.001038
123 0.003991
121 0.004003
123 0.001952
130 0.00303
136 0.001973
143 0.004028
150 0.004955
158 0.001985
163 0.002041
165 0.001995
172 0.00502
152 0.000998
105 0.004014
77 0.004018
72 0.001999
79 0.00203
87 0.001008
92 0.004985
98 0.003995
107 0.000982
108 0.00101
104 0.001012
104 0.005017
111 0.000998
119 0.005024
124 0.005011
132 0.001995
140 0.002005
145 0.000997
151 0.003991
157 0.003981
133 0.002001
87 0.000962
62 0.001003
57 0.00497
67 0.000997
70 0.002938
74 0.004987
84 0.001995
86 0.001995
86 0.001992
86 0.001994
86 0.004989
93 0.005021
101 0.001014
107 0.002
114 0.002988
124 0.002016
131 0.002055
135 0.004986
141 0.005021
107 0.0
66 0.00096
44 0.0
43 0.005026
49 0.004991
54 0.001011
58 0.0
66 0.001013
75 0.000997
75 0.0
78 0.004945
83 0.004988
92 0.001961
101 0.001989
110 0.002005
117 0.005022
125 0.005013
138 0.0
143 0.0
149 0.000971
147 0.000966
107 0.000967
74 0.005956
65 0.004955
70 0.001994
78 0.0
82 0.000994
88 0.005989
94 0.005954
102 0.0
100 0.001027
101 0.001023
108 0.001032
116 0.0
127 0.004993
135 0.005999
142 0.0
152 0.0
157 0.001006
163 0.005958
171 0.006017
160 0.0
116 0.001005
88 0.001014
83 0.0
93 0.000998
98 0.005022
101 0.005017
113 0.001014
116 0.001004
114 0.0
113 0.00603
115 0.00602
122 0.0
131 0.00102
140 0.002009
152 0.000996
157 0.001956
163 0.005955
167 0.004993
175 0.001058
157 0.0
113 0.0
82 0.006073
75 0.006018
80 0.0
85 0.0
88 0.0
102 0.0
105 0.001963
103 0.005995
104 0.006022
108 0.000999
112 0.000998
121 0.0
128 0.005981
133 0.006017
141 0.002007
148 0.001033
153 0.0
162 0.0
134 0.0
91 0.006009
67 0.005976
61 0.001997
66 0.002001
73 0.002034
74 0.00601
81 0.006017
88 0.001993
88 0.0
87 0.001993
89 0.001993
96 0.001
103 0.006974
113 0.006991
122 0.003005
132 0.001998
138 0.002031
144 0.005977
150 0.006024
162 0.002004
144 0.001034
97 0.000997
57 0.000993
57 0.0
66 0.00702
69 0.007031
75 0.0
85 0.0
89 0.0
91 0.006016
92 0.006014
97 0.001999
101 0.001992
111 0.0
126 0.002028
135 0.002028
142 0.007007
150 0.007029
161 0.001991
169 0.001077
174 0.001049
184 0.006981
176 0.005957
119 0.001004
89 0.001996
84 0.002962
98 0.002031
102 0.00198
107 0.006973
116 0.006944
125 0.006975
131 0.001994
133 0.002001
137 0.00096
144 0.007021
152 0.006063
164 0.000996
173 0.0
188 0.001032
195 0.002024
200 0.002044
209 0.006984
217 0.007018
226 0.002007
219 0.001995
174 0.001977
137 0.007011
123 0.006988
135 0.001964
142 0.001998
153 0.001993
160 0.002025
168 0.002045
169 0.00698
168 0.006977
172 0.001978
179 0.001996
185 0.002003
192 0.007015
199 0.007016
208 0.002004
213 0.001964
221 0.001966
227 0.002958
234 0.003008
226 0.006984
177 0.006984
136 0.002997
131 0.003021
137 0.002996
144 0.006985
151 0.007948
161 0.001993
167 0.003008
165 0.002002
163 0.003036
167 0.002001
171 0.006979
178 0.006955
189 0.001971
194 0.002024
199 0.002018
206 0.006974
213 0.007031
218 0.001999
220 0.000999
154 0.001994
124 0.001994
116 0.000987
124 0.00798
130 0.007981
138 0.001997
144 0.00104
152 0.001996
154 0.007024
155 0.007014
153 0.000969
157 0.002991
167 0.001995
174 0.001991
180 0.002021
186 0.00801
194 0.007944
199 0.001996
204 0.002023
207 0.00202
174 0.007016
128 0.006978
102 0.002025
104 0.001985
115 0.003015
121 0.001976
127 0.002967
134 0.007987
139 0.007953
136 0.001968
136 0.002998
141 0.003022
147 0.007968
155 0.007988
163 0.002
168 0.001998
178 0.001983
182 0.0
189 0.001988
195 0.00798
183 0.007979
121 0.001996
95 0.001996
88 0.001014
95 0.007992
100 0.007978
106 0.002
113 0.002038
122 0.002025
124 0.001982
122 0.001992
125 0.007996
132 0.007996
143 0.002004
152 0.002033
160 0.002987
166 0.007969
179 0.007942
185 0.002042
191 0.002005
194 0.003017
150 0.001988
113 0.001985
98 0.008031
101 0.007987
115 0.001997
120 0.001996
126 0.002985
139 0.007953
141 0.007969
137 0.001986
139 0.001998
145 0.003002
153 0.00204
161 0.002997
169 0.007996
176 0.007969
182 0.003007
186 0.002008
194 0.002015
197 0.00698
159 0.007933
118 0.002996
101 0.002013
109 0.001992
115 0.003025
123 0.003997
133 0.007959
140 0.00795
140 0.003001
134 0.003015
135 0.001981
140 0.007981
147 0.006939
152 0.002996
159 0.002996
169 0.003962
173 0.002968
177 0.003958
184 0.00296
147 0.007011
104 0.006982
83 0.004958
82 0.002964
87 0.002995
96 0.00699
103 0.007008
109 0.001995
111 0.007924
106 0.003014
107 0.002027
109 0.002019
117 0.006994
126 0.006947
132 0.00297
138 0.002002
144 0.003036
152 0.007025
158 0.007004
147 0.002987
74 0.006982
52 0.00204
47 0.00296
51 0.002957
56 0.008002
59 0.007042
68 0.002992
74 0.003139
75 0.003002
75 0.006998
77 0.006992
82 0.003032
95 0.007017
102 0.003936
110 0.003006
117 0.003018
126 0.007981
135 0.005988
131 0.003028
90 0.002996
50 0.002958
26 0.007006
27 0.007012
34 0.002958
41 0.006983
51 0.002996
58 0.001979
62 0.003969
65 0.005988
67 0.006984
72 0.003963
81 0.002993
89 0.002021
102 0.006955
114 0.006959
123 0.001994
141 0.006982
149 0.002992
152 0.002987
113 0.003963
58 0.006981
44 0.006949
45 0.003967
54 0.004018
60 0.003945
68 0.006015
78 0.005992
85 0.003031
89 0.006985
91 0.002983
97 0.003
106 0.003022
120 0.00598
130 0.005957
139 0.004009
150 0.002963
157 0.002991
173 0.006018
185 0.006014
182 0.002992
110 0.005984
82 0.001997
79 0.002993
86 0.001985
93 0.006987
102 0.005984
112 0.003997
118 0.001999
118 0.002959
117 0.006036
120 0.006983
125 0.001994
139 0.00695
147 0.002982
156 0.003992
164 0.002973
177 0.006992
186 0.005943
195 0.004001
196 0.00399
156 0.003955
99 0.006017
83 0.005978
84 0.003953
97 0.006017
101 0.004023
112 0.003998
120 0.004973
119 0.006024
120 0.005994
120 0.004994
125 0.004082
134 0.003989
146 0.005983
154 0.005947
162 0.001992
175 0.006018
183 0.004953
191 0.00496
198 0.003926
175 0.005017
124 0.005986
90 0.004985
83 0.00402
89 0.004022
95 0.005984
101 0.005967
109 0.003978
124 0.005984
126 0.004987
128 0.002981
133 0.004987
137 0.004963
147 0.00498
154 0.004989
162 0.00396
171 0.003
180 0.005982
187 0.005961
196 0.002948
209 0.005986
173 0.004942
139 0.00498
107 0.004999
100 0.004988
106 0.004987
115 0.004979
120 0.003957
127 0.004017
136 0.004991
140 0.005987
138 0.004
142 0.004984
151 0.005003
159 0.004976
164 0.004974
175 0.004982
184 0.00498
194 0.004978
199 0.004972
205 0.004983
216 0.004984
223 0.005971
225 0.005975
153 0.004989
122 0.004974
120 0.004965
126 0.003969
134 0.003963
143 0.004987
152 0.004986
162 0.003989
164 0.004004
167 0.004996
168 0.005941
171 0.006028
186 0.005984
196 0.004943
205 0.004986
212 0.004955
219 0.004983
227 0.004985
232 0.004007
240 0.004035
249 0.003991
248 0.004028
204 0.004027
159 0.004028
143 0.004985
151 0.005017
161 0.004992
165 0.004962
178 0.004982
184 0.004945
185 0.004983
182 0.004958
181 0.00399
183 0.00399
191 0.004043
198 0.00399
209 0.004955
214 0.00503
221 0.00498
224 0.004975
233 0.004978
239 0.004987
238 0.004983
197 0.004952
153 0.003983
130 0.003967
135 0.003981
144 0.00399
156 0.004016
164 0.004981
168 0.004984
170 0.004977
164 0.004977
163 0.004987
167 0.005019
175 0.004978
179 0.003959
187 0.003956
194 0.003982
197 0.003968
207 0.004999
211 0.004989
220 0.003989
209 0.004969
176 0.004987
116 0.005002
101 0.004987
105 0.003995
113 0.00499
118 0.004012
123 0.003988
128 0.003978
131 0.004022
127 0.003978
127 0.002985
130 0.004023
136 0.003978
145 0.004023
153 0.003978
159 0.005014
166 0.003962
171 0.003971
177 0.003988
181 0.003994
175 0.00398
123 0.003981
75 0.003996
64 0.003964
69 0.004024
77 0.003017
79 0.003985
87 0.004985
95 0.004048
96 0.00402
96 0.003991
95 0.004029
102 0.00399
109 0.004021
118 0.003981
127 0.003989
136 0.004019
142 0.00399
147 0.003963
155 0.002966
163 0.003936
165 0.00399
139 0.003988
88 0.003992
52 0.004022
53 0.003035
63 0.003021
68 0.00302
75 0.003023
85 0.002988
88 0.003007
89 0.003022
90 0.003025
93 0.003024
101 0.002993
112 0.003983
128 0.003974
136 0.003989
148 0.003993
156 0.003939
163 0.002996
170 0.002991
178 0.003986
184 0.00297
143 0.002993
95 0.002993
73 0.002992
69 0.002988
85 0.003989
91 0.002987
102 0.004014
110 0.003981
110 0.00399
111 0.004021
110 0.003015
115 0.002985
124 0.002982
134 0.003011
141 0.002982
150 0.00298
163 0.002995
168 0.003989
176 0.003989
185 0.003993
187 0.002994
149 0.002992
102 0.003
79 0.002993
80 0.002985
87 0.002996
95 0.00296
109 0.002992
115 0.002958
116 0.002995
112 0.003988
111 0.003024
115 0.00296
125 0.002984
130 0.002992
138 0.002991
151 0.00297
156 0.002992
163 0.002999
174 0.002991
182 0.003005
181 0.001995
135 0.001997
76 0.004003
59 0.002994
61 0.002963
67 0.002968
73 0.002997
81 0.002972
88 0.002993
94 0.002938
94 0.001995
96 0.002991
101 0.003025
109 0.001995
121 0.001989
129 0.002045
139 0.001994
145 0.003005
153 0.002992
163 0.002991
170 0.003012
179 0.002984
146 0.002983
96 0.002969
62 0.002985
53 0.00299
62 0.002995
67 0.001999
70 0.001997
80 0.001999
88 0.002991
92 0.002993
92 0.002991
94 0.002991
103 0.002986
112 0.002937
119 0.003003
130 0.002028
142 0.001982
148 0.002044
158 0.001989
164 0.00199
174 0.001995
183 0.001983
184 0.002979
138 0.00297
69 0.001959
61 0.002993
64 0.003043
72 0.002028
77 0.002011
85 0.001962
94 0.00201
97 0.001987
98 0.002015
100 0.001985
104 0.001973
112 0.002984
127 0.002959
138 0.002974
148 0.002024
160 0.002044
170 0.00201
180 0.001991
189 0.002002
196 0.001995
206 0.001994
201 0.001996
148 0.001989
104 0.001996
88 0.001985
98 0.001987
107 0.002037
113 0.002027
125 0.001996
132 0.001963
135 0.001995
133 0.001968
135 0.001991
141 0.001994
149 0.001972
160 0.001995
172 0.001962
181 0.002019
189 0.001005
197 0.002043
209 0.002978
215 0.001978
224 0.001993
192 0.002002
142 0.001031
107 0.002974
107 0.00203
117 0.002023
131 0.002016
144 0.001033
151 0.002027
153 0.002007
150 0.002003
147 0.001992
150 0.00199
157 0.001994
167 0.00197
176 0.002018
183 0.001975
192 0.002028
201 0.000963
209 0.002001
213 0.000999
197 0.001986
128 0.001986
94 0.002002
89 0.00202
94 0.001999
102 0.001995
111 0.00201
119 0.002005
125 0.000998
124 0.001005
120 0.000974
120 0.001013
128 0.000998
136 0.000997
144 0.001994
152 0.002015
161 0.001963
166 0.002006
170 0.001991
184 0.002022
181 0.002009
98 0.001998
63 0.001943
52 0.001964
57 0.000956
61 0.001966
66 0.003019
76 0.00196
81 0.001936
83 0.00203
81 0.000997
83 0.001028
86 0.000987
99 0.000966
108 0.002014
118 0.002007
126 0.000964
132 0.001994
142 0.00201
151 0.001982
149 0.000996
109 0.0
59 0.00202
24 0.000991
23 0.001006
29 0.000998
34 0.00099
41 0.000992
51 0.002027
53 0.002018
56 0.001023
58 0.001953
62 0.001972
71 0.000963
81 0.001011
91 0.000963
103 0.00096
119 0.001032
132 0.000999
140 0.0
151 0.000998
152 0.0
94 0.000987
53 0.000958
36 0.0
39 0.0
46 0.0
53 0.0
63 0.0
79 0.000997
83 0.00099
85 0.000992
89 0.000997
96 0.000998
109 0.000973
120 0.000997
131 0.000972
145 0.001003
153 0.0
166 0.0
175 0.0
191 0.0
186 0.000964
137 0.000997
92 0.000994
73 0.000993
73 0.001025
81 0.001064
90 0.0
100 0.0
108 0.0
115 0.0
114 0.0
115 0.0
122 0.0
130 0.0
141 0.0
149 0.000983
160 0.000997
171 0.0
176 0.0
185 0.0
192 0.0
182 0.0
131 0.0
69 0.0
65 0.0
69 0.0
75 0.0
80 0.0
94 0.000974
99 0.000988
100 0.000986
97 0.001001
98 0.0
105 0.0
115 0.0
130 0.0
139 0.0
148 0.0
157 0.0
164 0.001002
177 0.0
185 0.001019
167 0.0
115 0.0
68 0.0
41 0.000996
42 0.0
49 0.0
56 0.0
65 0.0
73 0.0
77 0.0
78 0.0
81 0.000999
88 0.003056
99 0.000997
110 0.002988
124 0.002016
138 0.0
155 0.001995
165 0.00203
172 0.0
185 0.0
189 0.001002
135 0.001005
84 0.002962
55 0.001003
51 0.001957
56 0.002976
65 0.001994
76 0.001994
95 0.001994
105 0.001994
107 0.001995
113 0.001996
122 0.002957
133 0.001948
151 0.001961
165 0.00298
178 0.003022
189 0.002992
205 0.00299
219 0.002992
235 0.00296
247 0.001995
247 0.001995
198 0.001952
144 0.001999
118 0.001964
120 0.001963
126 0.001964
136 0.001994
145 0.002961
159 0.002027
166 0.002964
170 0.002995
171 0.00203
177 0.002034
187 0.002992
198 0.002003
207 0.001997
221 0.002165
229 0.002993
239 0.003018
246 0.00201
255 0.002985
255 0.002018
216 0.002026
145 0.00202
125 0.003006
124 0.003023
131 0.002
143 0.001988
157 0.001993
165 0.001989
170 0.001992
169 0.001998
166 0.003041
169 0.002006
178 0.00196
190 0.004057
197 0.003006
206 0.001982
215 0.003039
224 0.002025
234 0.001994
186 0.002013
183 0.002028
154 0.002019
126 0.002001
110 0.001993
109 0.002029
116 0.002002
118 0.001993
126 0.001979
129 0.002996
131 0.003004
130 0.00203
130 0.002025
134 0.001992
138 0.001999
142 0.001992
149 0.002027
156 0.00199
162 0.001993
165 0.001984
171 0.002033
174 0.002978
154 0.002994
114 0.004016
99 0.00503
95 0.003027
98 0.002981
103 0.001979
109 0.002976
117 0.002032
121 0.00302
122 0.002028
122 0.002992
125 0.003026
130 0.001991
137 0.002988
143 0.002987
149 0.002998
155 0.003001
161 0.001997
168 0.001989
177 0.002028
159 0.001988
129 0.002035
110 0.001995
105 0.002002
109 0.001979
116 0.002996
122 0.001997
130 0.002992
136 0.002984
139 0.003025
139 0.001981
142 0.001988
146 0.002017
153 0.001998
158 0.002032
162 0.00199
168 0.001994
174 0.001986
178 0.002027
184 0.002945
181 0.003962
164 0.002002
118 0.001997
107 0.00299
114 0.002028
120 0.002056
128 0.001978
139 0.002027
143 0.002032
141 0.002004
139 0.002992
141 0.003018
146 0.003997
152 0.003004
160 0.004035
167 0.003026
175 0.003033
181 0.003047
187 0.002041
187 0.002052
152 0.001962
100 0.001981
82 0.002013
83 0.002031
87 0.003027
93 0.003016
103 0.002009
112 0.002026
112 0.001999
110 0.002997
112 0.001972
118 0.003029
123 0.001986
132 0.001983
141 0.001992
147 0.001993
152 0.002011
160 0.001996
170 0.001993
148 0.002992
104 0.002988
64 0.003007
57 0.003023
58 0.003047
63 0.002984
66 0.002984
79 0.002994
85 0.002992
88 0.00298
89 0.001989
91 0.001965
101 0.002983
110 0.002995
118 0.003041
127 0.002988
135 0.003008
142 0.003014
150 0.002995
160 0.002028
159 0.003998
123 0.00299
79 0.001979
51 0.002024
43 0.002992
47 0.002976
53 0.003018
60 0.003023
72 0.002979
76 0.002987
78 0.003001
78 0.002999
83 0.002984
91 0.002991
100 0.001995
108 0.002966
123 0.002956
131 0.002997
142 0.002959
149 0.002994
158 0.002993
165 0.002956
149 0.002021
90 0.003011
62 0.003002
53 0.002
57 0.002997
65 0.003032
79 0.002976
87 0.002992
97 0.003004
101 0.002931
105 0.002949
112 0.003005
117 0.002997
131 0.002995
142 0.002984
153 0.003004
166 0.003979
172 0.00296
188 0.002973
195 0.002966
203 0.003033
205 0.002958
153 0.002956
125 0.002984
98 0.004016
94 0.004032
100 0.003952
106 0.003017
117 0.003058
127 0.003007
133 0.002979
133 0.001995
135 0.00399
140 0.003995
146 0.002959
158 0.002994
167 0.002992
174 0.002968
181 0.003005
191 0.002992
197 0.001971
203 0.003025
199 0.003
155 0.002992
113 0.002944
93 0.003044
91 0.003042
96 0.003029
103 0.003982
113 0.004003
123 0.00399
130 0.002991
129 0.003022
129 0.003964
136 0.002985
144 0.003953
153 0.003024
161 0.004008
169 0.002999
180 0.003003
186 0.004008
192 0.004026
201 0.003989
208 0.002991
176 0.002993
126 0.001994
78 0.002969
76 0.002026
80 0.003989
85 0.003952
96 0.003023
105 0.003025
109 0.003008
113 0.004009
113 0.004951
116 0.002
123 0.001993
133 0.002034
148 0.002045
156 0.00198
165 0.003998
172 0.003951
182 0.002991
189 0.00299
198 0.00304
199 0.004011
161 0.003991
97 0.003939
73 0.002995
68 0.003935
78 0.002955
84 0.001997
93 0.003956
104 0.003952
111 0.00299
113 0.004019
113 0.002991
120 0.004955
126 0.004952
140 0.003988
151 0.003049
162 0.003024
180 0.002027
189 0.003005
199 0.00396
209 0.004015
221 0.003033
215 0.001988
165 0.002012
122 0.004998
102 0.004987
104 0.001986
113 0.002
120 0.002027
140 0.001986
150 0.002028
155 0.001997
156 0.003977
158 0.00496
166 0.002035
174 0.002014
183 0.001992
190 0.004991
200 0.004987
210 0.001995
218 0.001993
231 0.002008
239 0.001991
236 0.001993
188 0.003982
143 0.003987
120 0.002032
122 0.00199
132 0.001987
143 0.004966
154 0.004992
167 0.001992
171 0.00199
166 0.000996
167 0.003025
170 0.002997
177 0.00398
185 0.003994
194 0.002018
201 0.002027
209 0.002981
215 0.00497
222 0.004948
225 0.002001
183 0.002992
112 0.003039
100 0.003036
103 0.001977
110 0.003997
120 0.005969
134 0.001996
142 0.001028
143 0.002085
142 0.00494
141 0.004993
145 0.002028
152 0.00202
164 0.00096
171 0.001967
177 0.00202
184 0.003977
192 0.005025
199 0.003012
170 0.001995
116 0.002032
79 0.005018
64 0.005017
68 0.001972
74 0.001997
88 0.000964
97 0.001984
103 0.001
103 0.00499
103 0.004972
106 0.001985
112 0.001994
119 0.001994
128 0.005981
136 0.005989
147 0.001993
155 0.002029
167 0.002
147 0.001996
96 0.003052
58 0.005031
42 0.005921
43 0.000989
49 0.00101
57 0.001028
67 0.005941
78 0.005991
84 0.000994
86 0.001005
93 0.0
100 0.001995
112 0.001969
123 0.004988
134 0.006008
150 0.000992
159 0.001984
170 0.0
179 0.00599
159 0.005974
95 0.002037
68 0.000964
66 0.001009
75 0.000997
83 0.002023
93 0.005938
105 0.005944
115 0.000997
115 0.002028
118 0.002027
122 0.005967
131 0.005953
144 0.002025
153 0.00204
171 0.00099
179 0.002019
188 0.001981
196 0.006955
181 0.004986
118 0.000968
86 0.0
76 0.001985
83 0.005986
92 0.005966
107 0.001994
120 0.000992
129 0.0
127 0.001058
127 0.0
130 0.006031
139 0.005982
147 0.001034
156 0.0
165 0.0
171 0.005975
177 0.005991
188 0.0
179 0.00101
100 0.001046
69 0.001006
62 0.0
68 0.005979
77 0.005985
89 0.0
102 0.0
109 0.000856
110 0.005961
110 0.006925
112 0.0
117 0.000968
133 0.000997
142 0.001012
151 0.0
161 0.00598
168 0.006978
180 0.000998
180 0.0
141 0.000997
92 0.006965
65 0.006989
60 0.0
65 0.000998
79 0.0
89 0.001017
101 0.0
106 0.000984
109 0.005937
110 0.006949
119 0.0
127 0.0
137 0.0
147 0.006941
155 0.007015
166 0.0
176 0.006986
189 0.001994
179 0.0
132 0.0
91 0.005984
70 0.005971
68 0.001969
75 0.0
80 0.002002
90 0.006974
100 0.007002
108 0.0
110 0.006988
113 0.0
120 0.001987
127 0.003019
136 0.006981
145 0.005985
156 0.002002
165 0.001988
172 0.002996
179 0.006979
184 0.006969
164 0.001025
101 0.006977
71 0.001994
68 0.0
74 0.0
84 0.007941
89 0.006984
103 0.001021
111 0.0
112 0.0
113 0.006948
115 0.007041
124 0.0
136 0.006957
147 0.001034
157 0.000995
165 0.0
176 0.007962
184 0.007971
193 0.001005
198 0.000968
173 0.002997
127 0.006984
95 0.00699
86 0.0
98 0.006943
109 0.001993
120 0.00098
133 0.0
139 0.006957
140 0.007943
143 0.0
148 0.003014
153 0.000995
163 0.006981
172 0.006994
183 0.001971
195 0.006982
205 0.002955
214 0.00195
220 0.002003
228 0.006951
228 0.006981
171 0.00099
139 0.003048
126 0.00303
131 0.007953
139 0.006998
152 0.001978
165 0.00698
171 0.003063
172 0.002958
171 0.002986
172 0.006968
176 0.007012
185 0.000996
195 0.00202
202 0.003016
211 0.006945
217 0.007954
227 0.002992
239 0.006976
241 0.0
207 0.0
162 0.000998
139 0.006982
136 0.006992
144 0.001986
154 0.001006
163 0.0
175 0.00798
177 0.007959
176 0.002993
173 0.007013
178 0.001006
184 0.0
191 0.001999
199 0.006983
205 0.00697
213 0.001994
219 0.002995
225 0.003019
232 0.001994
227 0.006962
164 0.001995
121 0.007969
120 0.002967
128 0.002994
136 0.002992
145 0.007979
157 0.006983
161 0.002993
160 0.002958
158 0.002991
160 0.006979
163 0.007976
170 0.001984
182 0.006979
189 0.0
195 0.0
201 0.002
208 0.006994
216 0.006962
193 0.0
143 0.0
110 0.001031
101 0.007937
107 0.007926
111 0.001991
125 0.007009
134 0.001992
138 0.001981
136 0.001973
135 0.006983
139 0.006948
144 0.003
150 0.00299
158 0.002992
165 0.002979
173 0.007989
179 0.007985
189 0.007985
195 0.007955
183 0.002993
133 0.003006
94 0.003989
76 0.006984
77 0.007017
85 0.002959
91 0.004019
101 0.003958
110 0.007958
112 0.007919
113 0.00699
114 0.007918
120 0.003027
126 0.003032
135 0.002991
145 0.007003
151 0.00698
158 0.002989
165 0.002027
171 0.00301
180 0.006014
182 0.007942
113 0.00698
77 0.00698
63 0.004004
64 0.003987
72 0.002992
79 0.006987
87 0.006964
96 0.00299
99 0.00299
99 0.003947
102 0.006053
104 0.005984
116 0.007011
124 0.007035
134 0.004031
141 0.004023
151 0.003988
160 0.007025
167 0.006972
175 0.003051
184 0.004963
181 0.003014
120 0.007939
84 0.006953
73 0.005953
79 0.007029
88 0.004939
95 0.003965
106 0.003986
116 0.006994
116 0.006987
117 0.00498
117 0.004983
124 0.002999
134 0.006985
141 0.005991
156 0.005969
162 0.005987
171 0.00395
177 0.004023
185 0.003989
197 0.006998
190 0.00598
142 0.004005
102 0.004959
84 0.004953
86 0.007007
96 0.006016
112 0.006037
123 0.005984
130 0.004953
129 0.004999
127 0.00395
127 0.005994
133 0.005978
141 0.005026
148 0.00303
157 0.00299
167 0.005995
173 0.006987
185 0.006011
192 0.005996
199 0.003956
169 0.002994
120 0.004011
83 0.006982
79 0.006972
85 0.005
93 0.002983
104 0.003941
115 0.006016
120 0.005975
119 0.006005
117 0.00601
119 0.004
124 0.003989
133 0.004011
142 0.006
150 0.004978
158 0.00299
164 0.004001
170 0.004018
180 0.006009
180 0.005937
105 0.005979
69 0.005998
58 0.004991
60 0.004981
68 0.003964
77 0.005976
87 0.005991
95 0.003949
97 0.004947
96 0.005025
96 0.005973
99 0.005987
111 0.005995
119 0.005987
128 0.003988
136 0.004987
142 0.003989
151 0.005984
160 0.005974
166 0.004987
127 0.004019
78 0.005024
49 0.006017
39 0.006013
46 0.005972
52 0.006011
60 0.004967
69 0.004955
73 0.003989
75 0.006021
74 0.00601
75 0.004987
81 0.004952
90 0.002993
100 0.004984
108 0.005021
120 0.006016
129 0.005984
136 0.00496
143 0.004953
133 0.004021
90 0.004972
40 0.005985
25 0.004984
28 0.00499
34 0.004986
42 0.004999
52 0.005025
64 0.004986
70 0.00502
73 0.005012
80 0.004987
85 0.004967
94 0.004953
105 0.005973
114 0.004947
127 0.005016
136 0.004969
144 0.004986
153 0.00498
160 0.004942
117 0.005022
75 0.004985
53 0.004974
51 0.005038
55 0.003977
64 0.004979
74 0.004959
83 0.004955
90 0.004955
91 0.003936
91 0.004987
97 0.004957
107 0.004983
115 0.004992
126 0.003958
133 0.005001
143 0.004987
151 0.006021
159 0.004986
166 0.004986
151 0.005004
107 0.004981
73 0.005019
61 0.005022
67 0.004982
73 0.005062
85 0.005016
93 0.004971
98 0.00396
99 0.004015
99 0.003993
103 0.004015
110 0.004984
116 0.004962
126 0.005022
139 0.004006
148 0.004986
156 0.004975
164 0.004956
170 0.00495
168 0.004957
127 0.00498
83 0.004976
57 0.004013
55 0.003959
60 0.005053
65 0.005029
79 0.004964
88 0.004986
92 0.004975
93 0.004957
95 0.005012
101 0.004015
107 0.003976
117 0.003986
129 0.004017
137 0.003987
147 0.003996
154 0.003985
167 0.005032
175 0.004971
182 0.004956
166 0.004965
104 0.004018
70 0.004012
55 0.003981
57 0.003988
63 0.004024
67 0.003988
76 0.003971
87 0.004026
94 0.004008
94 0.004958
96 0.00501
106 0.005029
115 0.004995
124 0.003999
134 0.004011
145 0.003987
154 0.003957
162 0.004029
170 0.003993
177 0.003989
189 0.003978
193 0.00405
170 0.003983
106 0.003993
76 0.003999
67 0.003988
70 0.004015
76 0.004001
81 0.00398
92 0.003988
100 0.003981
105 0.003991
109 0.00404
113 0.005014
121 0.003991
134 0.004022
145 0.004052
156 0.003972
167 0.003979
177 0.003965
189 0.003909
198 0.003964
206 0.004003
213 0.00399
227 0.003025
226 0.003997
182 0.002976
126 0.003981
111 0.003989
113 0.003981
119 0.003991
124 0.003998
136 0.003989
146 0.003989
152 0.00399
155 0.002994
156 0.003981
161 0.003985
168 0.002993
179 0.002997
189 0.002996
196 0.003958
205 0.003993
214 0.00396
221 0.00397
228 0.003993
236 0.003943
243 0.003987
209 0.003033
162 0.004025
137 0.002989
129 0.003019
139 0.003027
146 0.002994
154 0.002967
164 0.003992
171 0.00401
170 0.003992
168 0.003974
170 0.003928
177 0.004032
185 0.003987
192 0.003053
200 0.002991
209 0.003037
215 0.00299
222 0.003974
139 0.003015
234 0.002992
241 0.003982
216 0.003982
164 0.002996
121 0.00399
121 0.003024
128 0.002926
135 0.00291
145 0.002992
155 0.002989
159 0.002983
160 0.002995
160 0.002987
162 0.004003
166 0.00399
172 0.002992
185 0.003958
193 0.003008
199 0.00298
207 0.002979
214 0.003956
220 0.001998
227 0.002989
232 0.001994
224 0.002013
157 0.00303
121 0.002031
106 0.001969
111 0.002973
120 0.003015
126 0.001999
135 0.002995
144 0.003028
145 0.003018
144 0.002975
144 0.002984
149 0.003042
157 0.002004
164 0.001999
173 0.002979
185 0.002963
192 0.003017
199 0.002986
205 0.002998
214 0.003018
219 0.002992
216 0.003001
167 0.002992
122 0.002001
97 0.003
99 0.002002
106 0.001987
117 0.001995
126 0.002992
134 0.002993
136 0.003015
137 0.003002
138 0.003004
143 0.003006
149 0.002993
158 0.002993
169 0.002985
177 0.002985
186 0.002992
200 0.002006
206 0.002974
213 0.002025
221 0.002956
220 0.003025
170 0.001995
130 0.001993
111 0.002992
109 0.002993
120 0.002011
129 0.00204
138 0.001976
152 0.001993
153 0.001986
151 0.001995
151 0.002038
156 0.002006
163 0.002991
171 0.003008
178 0.001995
187 0.001994
196 0.002992
201 0.002989
207 0.001984
218 0.00199
201 0.003027
151 0.002014
119 0.001995
109 0.001972
114 0.00294
124 0.002985
134 0.002992
144 0.001994
153 0.001995
151 0.002042
146 0.002014
146 0.00209
151 0.002004
157 0.002005
163 0.001972
172 0.001962
178 0.001966
183 0.001965
188 0.00199
196 0.001997
179 0.00195
127 0.001992
93 0.002989
79 0.002015
86 0.002994
92 0.002038
100 0.00202
112 0.001989
114 0.002002
112 0.001986
109 0.002029
110 0.002028
116 0.001993
122 0.002007
130 0.001953
140 0.001031
148 0.001994
153 0.002025
160 0.001999
166 0.001993
131 0.000958
83 0.00201
54 0.002026
47 0.00202
49 0.002018
55 0.001966
61 0.001993
75 0.001986
78 0.001953
76 0.002025
77 0.002004
81 0.00198
86 0.001991
95 0.001985
103 0.002048
111 0.001996
118 0.001995
129 0.002001
136 0.001008
144 0.00201
112 0.001168
66 0.000998
37 0.001965
26 0.001968
29 0.001997
34 0.000996
39 0.000995
49 0.001037
55 0.000994
61 0.001031
62 0.001013
66 0.0
72 0.001027
81 0.00103
91 0.002041
99 0.0
110 0.0
120 0.001983
127 0.001002
135 0.001032
145 0.000998
123 0.000999
77 0.001015
34 0.002007
33 0.000989
39 0.001056
45 0.002008
51 0.00199
67 0.001008
74 0.0
77 0.00096
80 0.001994
83 0.001037
93 0.001041
102 0.000972
120 0.001005
131 0.001023
140 0.000984
148 0.000996
156 0.000987
166 0.001025
176 0.00199
175 0.00196
137 0.000997
94 0.001013
65 0.000997
65 0.000998
75 0.001035
82 0.000997
92 0.001007
101 0.001009
105 0.000994
107 0.000991
107 0.001004
113 0.0
121 0.0
129 0.0
140 0.0
150 0.001015
163 0.00102
169 0.000974
175 0.000972
185 0.0
186 0.001031
135 0.000953
94 0.0
75 0.000997
73 0.0
78 0.0
86 0.0
95 0.0
108 0.0
110 0.001036
109 0.00103
110 0.000994
115 0.000996
124 0.000982
134 0.000986
143 0.000964
152 0.0
159 0.0
169 0.0
177 0.0
189 0.000994
195 0.0
169 0.000998
120 0.001017
82 0.000976
66 0.001022
70 0.000941
74 0.000966
78 0.0
87 0.0
99 0.0
103 0.0
104 0.0
108 0.0
114 0.0
123 0.001003
133 0.000999
146 0.000989
155 0.00099
161 0.0
170 0.0
177 0.0
186 0.0
195 0.0
179 0.000975
129 0.0
89 0.000999
73 0.000997
70 0.000998
78 0.0
83 0.0
90 0.0
102 0.000995
107 0.0
110 0.0
113 0.0
119 0.0
128 0.0
137 0.0
147 0.0
156 0.0
168 0.0
177 0.000974
185 0.000997
193 0.0
199 0.0
209 0.0
205 0.0
126 0.0
96 0.0
87 0.0
92 0.0
99 0.001009
109 0.0
122 0.0
131 0.0
137 0.0
139 0.0
143 0.0
149 0.001012
162 0.001001
173 0.0
183 0.0
193 0.002992
202 0.0
212 0.002998
221 0.002992
228 0.000996
235 0.0
242 0.0
220 0.002979
168 0.002997
125 0.002948
125 0.001004
134 0.003046
144 0.002017
153 0.002001
163 0.002
172 0.003027
170 0.003027
168 0.003022
171 0.002999
174 0.003028
184 0.002992
195 0.002996
205 0.002995
212 0.003023
219 0.003019
228 0.002993
232 0.002995
241 0.002986
227 0.002946
160 0.003014
130 0.003989
120 0.00299
126 0.00404
140 0.002989
151 0.001996
160 0.000982
165 0.003002
163 0.002966
161 0.002956
162 0.003022
166 0.00303
173 0.002991
182 0.003006
187 0.002991
196 0.00303
203 0.002983
213 0.002987
220 0.002993
220 0.003008
191 0.003024
124 0.002994
99 0.003022
95 0.001965
100 0.002999
106 0.002987
117 0.002992
127 0.003
133 0.002956
131 0.002991
128 0.003955
133 0.002947
136 0.002992
145 0.002993
153 0.003998
160 0.003987
167 0.003058
177 0.002994
183 0.002964
190 0.004986
186 0.002992
120 0.003027
83 0.002983
68 0.002992
68 0.002988
76 0.002977
82 0.003025
92 0.003022
100 0.002994
104 0.00299
103 0.002998
103 0.003029
108 0.002028
116 0.001994
123 0.003023
134 0.003039
143 0.002982
149 0.002986
158 0.003023
164 0.002989
173 0.002993
150 0.002986
116 0.003033
67 0.00299
55 0.00298
61 0.001986
71 0.002997
79 0.002984
91 0.001981
101 0.002019
103 0.00304
104 0.002995
107 0.002997
116 0.002993
125 0.002989
135 0.002971
148 0.002992
161 0.003025
168 0.004023
