0 0.03691
0 0.004859
0 0.004954
0 0.005945
0 0.006956
6 0.006978
15 0.006989
28 0.006943
0 0.007942
23 0.00794
28 0.006014
36 0.005016
47 0.004936
52 0.005983
55 0.004994
60 0.002992
64 0.000997
70 0.000998
73 0.000965
47 0.001
25 0.000996
29 0.001963
37 0.002003
48 0.001957
53 0.001994
56 0.00197
58 0.001956
63 0.002997
70 0.002992
74 0.002994
59 0.002957
26 0.003989
29 0.003957
37 0.003989
46 0.004986
53 0.005988
56 0.007949
58 0.00499
61 0.004982
67 0.003956
70 0.003993
75 0.003029
49 0.002989
30 0.002991
36 0.004074
44 0.002022
54 0.000936
60 0.000998
63 0.0
66 0.000998
69 0.000997
73 0.000966
78 0.000995
84 0.000859
23 0.000997
0 0.001038
40 0.002953
50 0.003988
58 0.005996
65 0.007934
67 0.007025
67 0.005941
70 0.005963
75 0.004989
81 0.005027
87 0.005033
90 0.006025
57 0.006016
53 0.004986
60 0.004985
69 0.004987
77 0.005028
83 0.002988
83 0.002983
88 0.001995
92 0.000966
97 0.0
102 0.0
107 0.000966
86 0.001981
63 0.001961
69 0.001969
77 0.001961
85 0.001967
91 0.001994
94 0.003983
95 0.003951
100 0.003959
104 0.00498
108 0.00498
113 0.006981
105 0.007977
77 0.006972
72 0.007013
81 0.00697
87 0.00593
95 0.006025
99 0.005706
101 0.006026
103 0.005984
89 0.005021
103 0.005023
108 0.00504
111 0.005984
78 0.003021
33 0.002992
43 0.000972
58 0.002038
71 0.001966
83 0.0
90 0.0
90 0.0
96 0.0
101 0.0
108 0.0
111 0.0
122 0.001997
110 0.000998
50 0.000997
53 0.00103
68 0.002002
83 0.003997
93 0.006008
99 0.005948
99 0.005981
102 0.006939
106 0.006978
114 0.005951
122 0.005975
138 0.006942
108 0.00702
66 0.006016
71 0.004988
90 0.003024
101 0.003989
107 0.004025
116 0.003012
114 0.002042
125 0.0
130 0.000998
139 0.00099
144 0.000998
150 0.000995
98 0.000998
59 0.001962
73 0.003965
89 0.003011
99 0.002961
111 0.003958
113 0.003989
118 0.005983
119 0.005943
130 0.005983
135 0.005985
145 0.006981
138 0.007022
86 0.006981
58 0.00698
75 0.005984
90 0.00503
99 0.006008
107 0.004975
111 0.004028
113 0.002993
120 0.003032
131 0.003033
137 0.004025
143 0.003233
143 0.001995
84 0.001002
56 0.0
72 0.002007
80 0.001995
90 0.002003
100 0.002993
103 0.003995
103 0.003991
106 0.00399
113 0.00399
121 0.00399
128 0.003991
139 0.00501
115 0.004987
60 0.004988
59 0.005882
71 0.005984
83 0.005983
87 0.005985
91 0.00698
93 0.007006
97 0.006979
105 0.006995
113 0.006949
120 0.006979
133 0.005014
92 0.005988
37 0.005981
47 0.005961
66 0.005983
81 0.002988
88 0.003034
89 0.003098
91 0.003989
99 0.004019
107 0.001994
110 0.003038
123 0.002992
120 0.002998
48 0.002992
38 0.000997
48 0.000999
52 0.000965
62 0.001967
69 0.003979
76 0.005001
74 0.005953
82 0.00599
93 0.005984
100 0.006982
105 0.006981
76 0.007097
10 0.005996
14 0.005019
22 0.00398
34 0.00503
45 0.004986
53 0.004027
58 0.004015
67 0.002984
75 0.001995
82 0.0
89 0.0
97 0.001994
85 0.001956
9 0.002042
0 0.001994
7 0.001995
18 0.001981
31 0.001963
40 0.003997
47 0.004998
50 0.006867
57 0.006984
68 0.006983
73 0.006984
76 0.007019
85 0.006981
46 0.006037
0 0.006019
0 0.005984
3 0.003988
15 0.003989
23 0.003028
29 0.003015
31 0.003025
37 0.001039
44 0.00103
54 0.0
63 0.0
71 0.0
60 0.0
0 0.0
44 0.0
54 0.0
64 0.0
70 0.000998
74 0.001955
76 0.003018
78 0.002953
85 0.002994
93 0.002992
96 0.004979
101 0.004987
99 0.007014
66 0.005983
48 0.004024
57 0.004019
63 0.003989
69 0.001995
76 0.002017
82 0.000974
82 0.0
88 0.0
96 0.0
102 0.0
106 0.0
114 0.001994
89 0.000998
54 0.001991
52 0.001996
62 0.002975
68 0.002992
77 0.002952
78 0.002993
80 0.003976
86 0.004986
93 0.005017
99 0.005012
106 0.00597
110 0.007968
113 0.006991
119 0.006014
75 0.002996
59 0.002992
66 0.003147
73 0.00203
50 0.001994
61 0.002007
65 0.001995
67 0.000992
72 0.001101
83 0.0
93 0.000998
103 0.001996
109 0.002019
117 0.001995
119 0.00197
50 0.00399
28 0.003983
41 0.005004
49 0.004982
61 0.005112
71 0.004986
78 0.004983
80 0.006014
85 0.006979
95 0.007866
102 0.006933
109 0.006978
117 0.00695
126 0.007977
94 0.007947
49 0.006985
49 0.004971
65 0.005037
79 0.002983
90 0.002992
92 0.001983
97 0.000996
103 0.001042
113 0.001982
122 0.001995
131 0.0
135 0.002992
148 0.002987
136 0.002992
66 0.002993
64 0.00399
82 0.004987
92 0.004987
103 0.005026
110 0.00702
110 0.007025
113 0.007027
123 0.004942
133 0.006016
142 0.006013
150 0.005985
157 0.003997
165 0.002982
166 0.003024
109 0.003989
67 0.003029
79 0.002028
89 0.000997
97 0.0
108 0.0
112 0.001034
114 0.001987
121 0.002992
130 0.004988
139 0.006014
143 0.007015
150 0.007015
155 0.00598
162 0.003026
164 0.001985
114 0.001006
75 0.001005
87 0.001028
96 0.0
104 0.0
111 0.0
111 0.000992
111 0.001183
116 0.0
124 0.0
128 0.001992
135 0.001992
142 0.001995
146 0.002011
154 0.001865
149 0.001989
82 0.002011
69 0.001998
79 0.001995
89 0.001992
99 0.002959
103 0.00399
102 0.003983
102 0.003991
109 0.003956
119 0.00399
128 0.003808
135 0.00402
143 0.00498
147 0.005979
92 0.00698
67 0.007018
75 0.006985
84 0.006995
92 0.006986
103 0.006979
104 0.006024
107 0.007161
113 0.00698
123 0.005985
132 0.006014
138 0.005989
143 0.006982
144 0.005025
97 0.004026
68 0.001008
71 0.0
73 0.0
81 0.0
88 0.0
94 0.0
94 0.0
99 0.0
109 0.002013
114 0.002992
122 0.002963
129 0.002993
138 0.003031
79 0.003032
42 0.003026
43 0.002992
50 0.00301
58 0.003022
68 0.004987
74 0.003958
71 0.004987
80 0.007027
91 0.00698
96 0.006982
102 0.007978
109 0.005979
116 0.002992
129 0.002028
95 0.000998
43 0.001028
33 0.0
40 0.0
40 0.000997
52 0.000998
60 0.00091
60 0.001968
61 0.002991
70 0.002992
79 0.005017
90 0.004986
96 0.005048
103 0.007016
111 0.007024
118 0.00702
122 0.005982
61 0.005948
26 0.007018
32 0.006019
36 0.004961
45 0.003002
53 0.000963
54 0.002043
57 0.001995
70 0.001006
82 0.000998
92 0.002023
103 0.001996
112 0.001017
114 0.000997
124 0.000993
91 0.000955
41 0.003031
40 0.002998
51 0.003039
61 0.002956
73 0.002997
83 0.002989
88 0.003991
96 0.004032
107 0.003798
118 0.003991
128 0.004046
137 0.00399
145 0.004024
154 0.004038
145 0.003991
79 0.004022
64 0.00399
75 0.004037
82 0.004003
93 0.004961
104 0.006018
111 0.007024
114 0.006979
122 0.005985
132 0.006025
143 0.004028
152 0.004986
160 0.004966
167 0.003025
178 0.001006
187 0.000997
145 0.001994
88 0.002028
86 0.002007
96 0.001957
99 0.001996
111 0.003985
114 0.00399
114 0.004019
117 0.006016
128 0.00586
139 0.00698
146 0.005981
150 0.007021
158 0.006987
164 0.006027
169 0.005993
177 0.00619
148 0.006968
85 0.007028
85 0.005026
97 0.003993
105 0.003013
115 0.003982
119 0.001985
118 0.001035
121 0.002021
130 0.001002
142 0.0
148 0.0
156 0.0
165 0.0
168 0.001002
179 0.000998
148 0.002979
95 0.005024
97 0.005986
110 0.006982
120 0.006873
125 0.006943
132 0.006951
135 0.00698
142 0.00698
156 0.006949
160 0.006978
168 0.006976
178 0.007006
184 0.006967
191 0.006981
199 0.005957
161 0.006023
105 0.005006
108 0.00402
120 0.003022
127 0.004022
136 0.00402
142 0.001121
146 0.001009
150 0.001047
159 0.002012
169 0.000998
173 0.0
181 0.0
190 0.002051
197 0.00399
207 0.004024
194 0.004986
127 0.007014
107 0.006965
118 0.007023
129 0.006026
133 0.004033
140 0.003025
145 0.000996
144 0.000956
145 0.000998
153 0.004045
158 0.00595
165 0.007933
171 0.007961
177 0.007027
178 0.006973
187 0.007012
164 0.007003
99 0.006981
89 0.003986
104 0.004028
115 0.00498
121 0.00501
124 0.004031
123 0.002997
124 0.003041
127 0.004027
134 0.003989
146 0.001999
154 0.002063
163 0.002012
166 0.003052
140 0.003026
81 0.000998
80 0.000992
96 0.0
104 0.001982
110 0.001033
119 0.0
117 0.001995
121 0.003056
131 0.002889
142 0.005024
145 0.00502
151 0.005043
163 0.005018
146 0.004993
81 0.005021
67 0.00502
78 0.00503
88 0.004989
95 0.006028
103 0.006023
106 0.00598
110 0.005984
119 0.006981
124 0.007019
136 0.007026
143 0.007979
152 0.007977
162 0.007016
161 0.004993
90 0.004021
66 0.00402
73 0.003993
80 0.001992
86 0.001004
95 0.0
95 0.00098
91 0.00101
100 0.0
111 0.0
122 0.0
127 0.001042
138 0.001995
142 0.001995
154 0.001846
151 0.001995
86 0.001994
47 0.001996
54 0.003023
64 0.002026
69 0.003023
81 0.003028
82 0.003036
80 0.002996
89 0.00498
97 0.005976
109 0.005981
120 0.005984
129 0.00598
135 0.005984
141 0.005991
148 0.007025
155 0.006877
144 0.006974
67 0.00698
41 0.006979
50 0.00694
58 0.006017
65 0.004986
72 0.004047
73 0.001989
75 0.002034
80 0.003989
86 0.002992
98 0.001998
110 0.002006
120 0.001995
127 0.003029
133 0.003022
142 0.002027
146 0.00198
81 0.001995
47 0.003004
52 0.00296
64 0.0
69 0.000956
79 0.001015
83 0.001994
86 0.001995
90 0.002986
102 0.002992
109 0.003936
120 0.004986
132 0.005982
132 0.006015
143 0.005984
121 0.006975
66 0.007013
45 0.006014
58 0.006009
65 0.003989
77 0.002029
85 0.001961
88 0.002028
93 0.002033
101 0.001029
115 0.000997
126 0.001046
137 0.000997
148 0.0
151 0.0
161 0.000998
144 0.000997
71 0.000997
55 0.001995
67 0.003991
72 0.004025
81 0.005984
91 0.005984
95 0.00584
100 0.00599
111 0.005986
117 0.005971
132 0.005991
140 0.005966
152 0.007015
157 0.007035
168 0.004028
165 0.00402
92 0.004024
63 0.004987
71 0.004986
73 0.004023
84 0.001995
93 0.001984
97 0.002998
98 0.001996
107 0.000987
118 0.0
129 0.002
142 0.002992
152 0.002989
160 0.002878
166 0.003984
176 0.006016
168 0.006982
95 0.00498
61 0.004987
72 0.004986
79 0.004023
85 0.002007
93 0.000999
98 0.0
99 0.001956
102 0.000956
114 0.000905
123 0.003327
137 0.003958
143 0.005654
156 0.00701
159 0.007981
172 0.00698
142 0.007021
73 0.007031
62 0.007011
76 0.004986
87 0.003026
97 0.00303
102 0.003989
103 0.002035
111 0.001037
120 0.0
134 0.0
144 0.000999
155 0.0
159 0.0
169 0.0
170 0.001002
108 0.001996
67 0.002997
79 0.001986
93 0.003815
101 0.004999
111 0.005018
114 0.004998
120 0.005984
127 0.005982
137 0.006006
150 0.004985
159 0.004021
170 0.005001
182 0.003988
187 0.001995
198 0.001019
163 0.0
103 0.000997
87 0.000998
97 0.000998
106 0.002998
113 0.003
122 0.004023
123 0.004986
129 0.004987
139 0.005019
150 0.004986
162 0.005997
171 0.005982
184 0.005992
192 0.005983
199 0.006019
209 0.005967
208 0.007017
175 0.007981
103 0.006014
101 0.004953
114 0.003976
117 0.003962
128 0.005071
134 0.00498
134 0.004019
139 0.001975
149 0.000997
155 0.000986
166 0.000996
172 0.000997
182 0.001013
187 0.000998
193 0.001
205 0.000997
192 0.000998
117 0.001002
91 0.000997
103 0.00295
110 0.002993
118 0.002992
122 0.002993
123 0.00502
126 0.005985
135 0.005981
143 0.007015
153 0.006956
165 0.007011
172 0.005981
176 0.006996
187 0.00698
167 0.004045
94 0.003209
79 0.000984
90 0.001029
102 0.001001
109 0.0
118 0.0
116 0.0
122 0.001003
136 0.0
144 0.001964
156 0.003027
166 0.003958
171 0.002959
184 0.00399
183 0.003956
115 0.004994
75 0.00499
85 0.005026
93 0.004987
101 0.007016
109 0.006981
113 0.006022
115 0.005983
122 0.005025
133 0.006005
143 0.00602
156 0.004986
167 0.004996
174 0.005015
188 0.004991
182 0.004986
106 0.003991
74 0.004024
74 0.001146
75 0.00199
82 0.002025
91 0.000994
94 0.0
94 0.0
104 0.0
115 0.0
129 0.0
143 0.0
152 0.0
162 0.000964
164 0.000998
173 0.000999
171 0.003004
96 0.003003
57 0.003035
63 0.002993
67 0.003002
72 0.004021
82 0.004979
85 0.004988
85 0.005018
94 0.006019
106 0.005892
120 0.006017
131 0.007012
135 0.007942
143 0.007943
150 0.00699
165 0.006969
133 0.005977
71 0.007015
54 0.005973
70 0.004977
78 0.004988
91 0.004981
97 0.005993
101 0.005984
107 0.005025
118 0.003989
131 0.002984
138 0.00399
151 0.004092
159 0.001988
168 0.002008
173 0.001999
132 0.002992
74 0.003025
70 0.002026
82 0.0
84 0.000977
102 0.00101
106 0.001962
110 0.0
117 0.001001
124 0.001976
138 0.001995
150 0.001953
159 0.002023
172 0.001998
184 0.003982
195 0.00394
205 0.005021
166 0.006026
89 0.007017
82 0.005983
99 0.007058
96 0.007013
103 0.007016
113 0.006925
115 0.005992
119 0.006032
133 0.006984
146 0.00698
158 0.003988
171 0.003977
182 0.002977
188 0.003978
197 0.004008
207 0.002997
156 0.002989
96 0.000993
93 0.002029
106 0.001965
109 0.000998
120 0.0
127 0.000998
131 0.001012
135 0.002052
141 0.002006
155 0.001999
163 0.002033
173 0.002985
185 0.003029
186 0.002042
196 0.003026
194 0.003023
118 0.004989
87 0.006013
94 0.00603
107 0.006018
114 0.006015
123 0.006023
125 0.006016
127 0.006015
135 0.006025
147 0.007027
158 0.00602
165 0.006979
171 0.007089
181 0.007049
181 0.005987
111 0.005988
77 0.005989
88 0.005004
103 0.004986
112 0.002989
122 0.001033
125 0.001988
124 0.003036
131 0.003135
147 0.0
160 0.0
166 0.0
179 0.000998
186 0.0
147 0.0
82 0.0
82 0.001995
95 0.002009
102 0.003038
108 0.00399
118 0.003032
120 0.006015
127 0.006018
136 0.007012
151 0.007027
164 0.007016
173 0.006999
184 0.007018
190 0.00698
148 0.004986
78 0.003979
77 0.001988
93 0.002001
97 0.00103
108 0.002004
115 0.0
116 0.000997
121 0.000986
133 0.000999
143 0.00101
152 0.000998
162 0.000952
166 0.000998
174 0.000997
181 0.001999
131 0.001996
66 0.002998
62 0.002998
77 0.002963
82 0.004005
93 0.005014
98 0.004983
102 0.005051
109 0.005007
120 0.005033
127 0.006035
137 0.00502
147 0.006049
156 0.00596
165 0.005985
156 0.005875
79 0.005988
50 0.006038
65 0.006025
77 0.005985
86 0.006012
92 0.00698
94 0.006932
97 0.006001
107 0.00503
116 0.006017
128 0.006019
139 0.004987
147 0.00299
158 0.001987
142 0.00198
69 0.002026
54 0.000949
68 0.000998
78 0.0
85 0.00103
96 0.0
94 0.0
104 0.0
112 0.0
125 0.001998
141 0.003954
152 0.003999
163 0.005025
174 0.00499
167 0.006978
100 0.00703
58 0.006026
64 0.003976
79 0.003988
80 0.004027
95 0.00502
103 0.004024
94 0.000994
106 0.0
117 0.0
126 0.0
142 0.0
148 0.000998
158 0.000998
166 0.001035
178 0.002862
142 0.002993
77 0.002993
60 0.002994
75 0.00602
81 0.006981
88 0.007022
93 0.006745
97 0.006977
95 0.006982
113 0.006937
115 0.004996
126 0.00602
140 0.005023
148 0.002941
154 0.002989
170 0.001998
177 0.003027
153 0.002972
73 0.002146
64 0.001038
83 0.001028
87 0.002042
97 0.00203
101 0.0
100 0.000967
106 0.0
117 0.001031
128 0.000997
139 0.000997
150 0.002992
158 0.002991
169 0.004024
175 0.003958
149 0.002992
74 0.004005
67 0.003988
91 0.00399
100 0.005983
113 0.006016
122 0.007011
122 0.007015
124 0.006005
132 0.00702
145 0.004986
157 0.003952
169 0.003989
177 0.003974
184 0.004956
190 0.004021
123 0.002968
77 0.002949
90 0.00394
102 0.003998
111 0.004988
120 0.002005
125 0.002011
125 0.0
130 0.001978
144 0.002018
153 0.0
164 0.0
173 0.0
177 0.000998
187 0.000984
188 0.000998
117 0.000998
71 0.000998
86 0.003023
99 0.002948
103 0.003948
112 0.004987
114 0.004943
115 0.005984
121 0.006983
131 0.007981
142 0.007989
151 0.005006
157 0.004967
162 0.003988
166 0.006017
174 0.006019
129 0.004022
59 0.005022
58 0.003165
72 0.005019
76 0.00399
85 0.0
87 0.000969
87 0.0
93 0.001032
102 0.001998
111 0.0
123 0.000949
126 0.0
133 0.0
141 0.000998
116 0.000997
46 0.001995
34 0.002993
51 0.003955
60 0.003042
68 0.003954
75 0.003989
73 0.005974
79 0.006
87 0.007016
97 0.007978
109 0.004994
118 0.004012
127 0.003943
119 0.005984
50 0.00501
24 0.004001
39 0.003959
47 0.00198
53 0.002992
63 0.003054
65 0.002023
70 0.000974
86 0.000992
95 0.002992
108 0.002025
119 0.001945
129 0.000955
142 0.0
128 0.0
49 0.000998
26 0.000982
40 0.001995
47 0.001869
55 0.002991
69 0.003988
68 0.004002
76 0.00499
86 0.006041
103 0.005974
117 0.006986
124 0.006992
137 0.007012
146 0.006975
158 0.00698
166 0.006983
120 0.006972
52 0.007029
45 0.005974
58 0.00499
64 0.002955
76 0.003989
83 0.001995
85 0.002012
93 0.000996
102 0.0
115 0.0
127 0.0
132 0.0
141 0.0
150 0.000998
160 0.002039
167 0.001992
130 0.002029
62 0.003962
63 0.00499
79 0.00694
81 0.007968
93 0.007978
103 0.005982
101 0.005984
108 0.003977
118 0.005987
132 0.004986
144 0.002958
155 0.001991
166 0.002008
174 0.002029
185 0.002023
140 0.0
78 0.0
77 0.0
94 0.001033
100 0.002002
109 0.001996
121 0.004028
123 0.004978
128 0.005979
141 0.00698
147 0.007973
165 0.007972
171 0.005999
180 0.006
189 0.005983
197 0.005992
204 0.004989
148 0.003982
88 0.002025
99 0.001971
111 0.002029
115 0.002029
125 0.0
132 0.0
129 0.0
135 0.0
148 0.001963
159 0.003007
169 0.005016
180 0.005984
187 0.005974
192 0.005942
201 0.006976
208 0.007951
205 0.006916
132 0.004991
84 0.004985
96 0.006015
107 0.005985
114 0.004007
119 0.001993
122 0.001991
124 0.003026
130 0.002987
140 0.0
150 0.0
157 0.000998
162 0.0
170 0.000997
179 0.003001
181 0.00503
191 0.004957
155 0.005017
93 0.005009
77 0.007978
98 0.00695
111 0.00502
118 0.004986
124 0.003992
124 0.00402
127 0.002154
138 0.002018
147 0.001994
158 0.004042
170 0.001997
177 0.0
186 0.0
188 0.0
137 0.001034
81 0.00101
87 0.000998
109 0.001001
120 0.000964
126 0.001986
132 0.001998
137 0.001961
144 0.002012
154 0.002992
167 0.002955
170 0.003968
172 0.004028
179 0.00399
189 0.004043
180 0.003989
97 0.005985
65 0.006014
84 0.00601
94 0.006043
104 0.006953
111 0.006978
115 0.006981
115 0.006987
122 0.005019
132 0.003953
143 0.003021
150 0.003989
160 0.001984
166 0.0
178 0.000887
163 0.002001
82 0.002992
60 0.004991
74 0.005985
81 0.006809
86 0.005971
91 0.00499
91 0.002977
91 0.005024
98 0.004986
109 0.002994
116 0.003011
123 0.003941
128 0.001991
133 0.002002
141 0.0
103 0.0
33 0.0
31 0.0
48 0.001991
55 0.001974
63 0.002996
68 0.003004
64 0.002997
67 0.002984
83 0.002994
94 0.002866
106 0.002993
110 0.003988
117 0.005985
124 0.007977
68 0.005986
19 0.005982
29 0.005981
41 0.006981
47 0.004987
58 0.003956
61 0.003953
65 0.003982
70 0.004978
81 0.004952
96 0.000998
107 0.000961
115 0.000998
127 0.002997
130 0.001969
55 0.0
19 0.0
29 0.0
41 0.0
46 0.0
53 0.000966
61 0.001982
64 0.001991
73 0.002014
87 0.003024
99 0.00402
112 0.005021
125 0.005014
134 0.004987
146 0.005021
144 0.004984
67 0.006982
33 0.005983
43 0.004993
54 0.003983
59 0.004981
71 0.004028
78 0.001026
81 0.000961
88 0.000961
105 0.001001
108 0.003031
120 0.002993
131 0.005983
140 0.005984
150 0.00602
154 0.006003
163 0.005939
160 0.006982
79 0.007024
48 0.004986
59 0.006014
69 0.003989
75 0.002035
86 0.0
87 0.000991
91 0.001994
98 0.001965
111 0.0
126 0.0
134 0.0
143 0.00102
152 0.001042
152 0.001996
161 0.001987
171 0.003028
147 0.004987
74 0.005983
66 0.007985
91 0.007972
100 0.005976
110 0.005972
117 0.005988
114 0.008018
116 0.005065
126 0.002993
139 0.002002
152 0.0
160 0.001994
167 0.001995
174 0.0
184 0.001999
191 0.003025
182 0.003951
102 0.00503
78 0.006023
97 0.006046
109 0.005983
116 0.006015
124 0.006968
128 0.007977
131 0.007978
139 0.005996
151 0.00398
163 0.002991
163 0.003995
172 0.002992
181 0.001993
186 0.002009
193 0.00201
193 0.001967
123 0.002036
84 0.0
96 0.0
113 0.0
119 0.0
121 0.002054
126 0.000878
123 0.003021
129 0.003987
142 0.004943
149 0.005005
159 0.005021
167 0.006989
174 0.006002
180 0.006989
186 0.007989
184 0.007945
112 0.006015
71 0.005988
87 0.005984
101 0.007946
104 0.007978
113 0.002992
111 0.002985
109 0.002965
117 0.003975
127 0.004142
137 0.001995
143 0.002031
150 0.002008
154 0.003977
157 0.003988
165 0.0
159 0.000999
81 0.0
48 0.0
66 0.0
81 0.001004
86 0.000998
92 0.000987
91 0.000998
91 0.000921
99 0.002956
106 0.00399
117 0.004956
121 0.005997
128 0.006958
134 0.007011
143 0.007017
101 0.004986
43 0.004996
46 0.003984
64 0.004026
72 0.002027
81 0.000997
83 0.000998
81 0.00202
84 0.003989
95 0.003985
110 0.006017
117 0.008019
126 0.006012
134 0.005976
134 0.004969
80 0.006975
32 0.005016
46 0.004978
60 0.003016
68 0.005073
76 0.005014
81 0.001046
81 0.001956
89 0.002028
101 0.001995
111 0.002018
121 0.001019
127 0.001961
134 0.0
90 0.002026
31 0.002033
36 0.0
52 0.0
56 0.000952
67 0.0
74 0.000988
75 0.001995
76 0.00399
89 0.004998
99 0.005946
108 0.006053
120 0.007978
124 0.008
134 0.005017
100 0.005978
36 0.005948
30 0.007016
45 0.006949
45 0.004965
55 0.004942
61 0.003033
61 0.003111
62 0.003033
74 0.001042
86 0.001048
95 0.0
102 0.003024
110 0.002027
114 0.000955
125 0.0
95 0.000961
35 0.001033
24 0.001033
40 0.0
45 0.00101
53 0.001996
62 0.002045
63 0.003023
66 0.003909
76 0.00503
87 0.005016
97 0.004979
108 0.007005
115 0.007981
120 0.007976
128 0.006921
108 0.00499
44 0.004031
37 0.006018
57 0.006019
66 0.003957
78 0.003987
82 0.003989
88 0.003032
92 0.00198
101 0.00199
115 0.002964
118 0.002996
128 0.003025
138 0.001959
144 0.000986
153 0.000982
155 0.002028
91 0.002042
56 0.000994
70 0.0
86 0.001996
89 0.002023
101 0.003008
100 0.00397
102 0.005976
109 0.005944
119 0.005954
132 0.006973
144 0.007975
148 0.007978
156 0.005961
165 0.004969
171 0.003953
172 0.004988
174 0.003989
103 0.003003
67 0.001994
86 0.000958
99 0.002027
102 0.001988
111 0.0
116 0.000985
115 0.0
123 0.001028
133 0.0
136 0.0
146 0.002992
149 0.003003
156 0.003027
160 0.002992
166 0.002997
171 0.003986
155 0.004947
80 0.005984
65 0.007015
76 0.00602
90 0.005985
97 0.003989
102 0.003988
104 0.002043
105 0.004035
109 0.002025
118 0.0
125 0.0
136 0.0
142 0.0
145 0.0
147 0.001995
154 0.002016
126 0.003019
59 0.005021
56 0.004956
81 0.004985
92 0.005953
103 0.00698
104 0.006966
104 0.006982
105 0.00701
115 0.006982
122 0.006975
133 0.00596
139 0.007018
146 0.007016
152 0.00518
121 0.004984
57 0.004992
58 0.00701
80 0.007979
89 0.004986
97 0.004955
102 0.004985
102 0.005984
102 0.006028
112 0.002987
121 0.002995
128 0.001997
135 0.002041
143 0.001991
121 0.000964
55 0.0
45 0.0
65 0.0
71 0.001996
75 0.001996
83 0.002005
83 0.001997
85 0.003953
92 0.00402
105 0.003998
110 0.004013
117 0.003957
125 0.005018
117 0.00502
62 0.004988
30 0.006008
39 0.005947
48 0.004954
52 0.003992
56 0.004984
61 0.003989
56 0.0
61 0.0
70 0.0
79 0.0
89 0.0
94 0.000968
100 0.001995
76 0.003006
13 0.003965
2 0.003991
19 0.003774
23 0.005986
34 0.005986
41 0.006985
43 0.00701
44 0.00704
58 0.006981
67 0.00695
74 0.006831
81 0.00701
82 0.006979
94 0.005016
60 0.00402
1 0.002995
5 0.003991
24 0.003994
29 0.003026
43 0.001968
48 0.001019
46 0.002997
53 0.003025
65 0.001997
78 0.001972
88 0.001993
91 0.001947
97 0.001996
106 0.001994
54 0.002064
11 0.000984
26 0.002044
42 0.001996
47 0.0
58 0.0
64 0.002004
67 0.000997
73 0.003002
80 0.005031
91 0.006018
100 0.00698
108 0.006017
115 0.003989
123 0.003989
132 0.003027
138 0.0
74 0.0
37 0.0
52 0.000997
64 0.000976
68 0.002033
79 0.002992
88 0.002984
88 0.00399
93 0.004984
104 0.004986
115 0.004988
122 0.00599
128 0.006964
134 0.006966
140 0.007967
146 0.005974
155 0.003984
157 0.006024
107 0.006947
63 0.006018
77 0.003993
91 0.003956
94 0.003989
100 0.005987
105 0.004978
104 0.003979
107 0.002993
118 0.002004
126 0.003022
134 0.002999
136 0.000998
142 0.0
148 0.0
152 0.0
156 0.0
158 0.003008
95 0.002992
60 0.002997
79 0.002991
91 0.003003
95 0.002991
101 0.00303
104 0.002992
103 0.004003
107 0.004965
117 0.007018
126 0.007979
130 0.006011
135 0.005985
142 0.005976
148 0.007975
153 0.006981
116 0.004995
61 0.002992
71 0.001994
91 0.002991
97 0.001971
107 0.000965
110 0.0
107 0.0
110 0.002006
120 0.000996
126 0.000996
134 0.001986
142 0.000997
145 0.001844
150 0.002
127 0.002993
67 0.003019
67 0.002994
88 0.002989
91 0.002992
97 0.002978
104 0.002992
103 0.003983
108 0.005021
114 0.004993
120 0.005901
130 0.007017
136 0.006998
142 0.004994
150 0.007018
128 0.004977
61 0.002997
53 0.002978
75 0.001964
77 0.002973
82 0.002998
91 0.001997
92 0.002
92 0.001003
100 0.001996
108 0.002039
120 0.001002
125 0.0
131 0.0
135 0.0
123 0.0
61 0.0
36 0.001998
53 0.001979
64 0.002993
65 0.00399
74 0.003987
74 0.005953
74 0.006009
81 0.005977
89 0.005933
95 0.006022
105 0.006951
105 0.006974
109 0.006958
124 0.006962
98 0.007966
32 0.006981
30 0.003987
47 0.003122
54 0.00299
60 0.004986
67 0.00502
66 0.002998
68 0.001993
78 0.00198
81 0.0
90 0.000965
96 0.000998
105 0.00199
105 0.001967
48 0.003989
19 0.003858
36 0.005019
50 0.006034
58 0.005988
67 0.004988
67 0.006977
65 0.007017
70 0.007015
82 0.005991
91 0.005009
99 0.00698
106 0.006981
115 0.003002
87 0.00298
29 0.002009
22 0.00299
40 0.003009
44 0.001971
51 0.001998
63 0.0
64 0.002992
65 0.002957
75 0.0
85 0.001995
96 0.0
103 0.0
109 0.0019
113 0.002033
103 0.002016
38 0.002038
29 0.001959
46 0.004021
47 0.004027
54 0.00503
66 0.006863
67 0.005988
68 0.005015
70 0.007013
83 0.00702
91 0.003021
100 0.002991
103 0.002994
107 0.004965
112 0.002994
120 0.001987
69 0.000967
25 0.001016
37 0.002004
50 0.0
51 0.0
61 0.001955
68 0.002012
68 0.005022
71 0.004989
80 0.007031
87 0.006024
94 0.00598
101 0.00416
106 0.003013
107 0.003991
116 0.004003
121 0.00196
58 0.001988
39 0.0
57 0.000987
74 0.002037
81 0.0
84 0.0
90 0.002961
90 0.0
99 0.0
104 0.0
116 0.0
127 0.000996
133 0.001995
139 0.001996
143 0.001005
108 0.003033
58 0.00399
67 0.004027
90 0.004015
98 0.004027
109 0.004989
112 0.004964
113 0.004948
117 0.004988
124 0.004988
131 0.004987
140 0.00498
147 0.006951
149 0.006972
154 0.007013
161 0.00603
128 0.004984
72 0.004979
74 0.006985
96 0.005984
106 0.002959
111 0.003986
118 0.002996
117 0.006066
122 0.005996
128 0.002028
139 0.001953
143 0.002025
151 0.003008
155 0.001962
161 0.0
163 0.00103
148 0.0
90 0.002026
76 0.002014
99 0.000998
111 0.000989
112 0.002038
119 0.001943
116 0.002041
115 0.001996
116 0.001949
125 0.001996
129 0.000997
139 0.001996
142 0.001964
146 0.001995
154 0.001954
158 0.001993
97 0.002026
58 0.00399
71 0.003952
87 0.00399
93 0.004024
97 0.003958
101 0.003987
101 0.00402
106 0.003969
117 0.006974
122 0.00702
132 0.007972
131 0.003977
135 0.002993
142 0.00398
134 0.005985
68 0.00608
53 0.003979
76 0.003015
89 0.003955
98 0.006026
101 0.004986
99 0.002988
100 0.003125
104 0.002008
109 0.002025
116 0.002044
121 0.0
127 0.0
137 0.0
128 0.0
58 0.003029
46 0.001996
63 0.005023
73 0.006033
73 0.005951
80 0.006982
83 0.006983
79 0.00703
87 0.006061
95 0.006972
104 0.00699
110 0.007032
120 0.00698
125 0.004989
129 0.004987
73 0.003959
31 0.005018
36 0.004026
52 0.002048
53 0.001986
59 0.000954
60 0.002025
59 0.0
65 0.0
77 0.002029
82 0.002962
92 0.00402
96 0.006998
97 0.006966
102 0.006017
101 0.003042
35 0.00402
4 0.001964
16 0.004022
22 0.0
22 0.000959
31 0.0
33 0.003003
29 0.002025
34 0.000965
41 0.0
48 0.00098
49 0.002036
54 0.002029
58 0.000982
66 0.0
72 0.001996
32 0.001961
0 0.004023
0 0.002991
0 0.003991
0 0.003996
4 0.003991
7 0.006026
0 0.005954
4 0.00701
13 0.004965
24 0.005963
31 0.004957
38 0.007977
45 0.006979
50 0.002991
59 0.002991
27 0.001994
0 0.003027
0 0.003999
0 0.001989
0 0.000999
0 0.001998
6 0.002992
2 0.002955
11 0.0
19 0.000969
29 0.000998
37 0.0
43 0.0
52 0.000998
59 0.002009
65 0.00299
42 0.00399
49 0.003959
48 0.003991
55 0.005985
56 0.006031
61 0.005979
66 0.006974
66 0.007031
66 0.007024
70 0.004992
77 0.004953
82 0.004989
88 0.007017
90 0.005027
96 0.003953
99 0.001996
102 0.004033
101 0.002046
66 0.0
56 0.0
64 0.0
64 0.002041
64 0.002042
71 0.000967
72 0.0
71 0.0
74 0.000999
79 0.000969
83 0.002055
88 0.001942
91 0.001962
95 0.001994
99 0.001995
101 0.001993
105 0.001975
108 0.001996
76 0.002
56 0.002005
62 0.001962
69 0.001998
70 0.001995
75 0.003951
78 0.005021
79 0.00598
82 0.007022
54 0.006979
57 0.006939
65 0.005939
72 0.00698
79 0.006981
85 0.002975
93 0.000991
98 0.002041
53 0.003032
19 0.002041
28 0.0
40 0.000998
47 0.001982
56 0.001988
59 0.002041
60 0.004007
66 0.004013
78 0.003991
90 0.005018
98 0.004981
107 0.006016
110 0.007009
116 0.006949
102 0.005019
42 0.004025
34 0.004982
52 0.005017
60 0.002977
65 0.003979
74 0.002984
77 0.002996
79 0.00198
84 0.001997
95 0.0
103 0.000998
112 0.002051
120 0.0
124 0.0
137 0.0
113 0.001998
50 0.001996
45 0.0
61 0.0
67 0.0
72 0.002039
77 0.003946
78 0.006031
75 0.006039
80 0.005991
88 0.005972
91 0.005983
101 0.007987
107 0.007981
111 0.005986
118 0.005996
124 0.005928
80 0.006982
30 0.00602
37 0.003971
54 0.003989
55 0.002987
61 0.00399
66 0.003982
65 0.000979
69 0.0
78 0.0
88 0.0
97 0.0
102 0.0
110 0.0
118 0.0
88 0.001951
34 0.002
34 0.005035
52 0.004979
60 0.004862
67 0.005969
74 0.006972
78 0.007986
80 0.00698
90 0.004969
98 0.004019
106 0.003003
109 0.004022
116 0.001982
119 0.001042
81 0.0
36 0.0
44 0.000988
59 0.002992
64 0.004004
71 0.003987
77 0.00399
73 0.00399
77 0.003991
86 0.005983
98 0.005983
103 0.006992
109 0.00698
120 0.00703
125 0.007013
67 0.006972
32 0.005953
39 0.004952
49 0.006989
51 0.007011
59 0.004018
66 0.005009
67 0.004027
70 0.006981
82 0.00699
92 0.00301
101 0.002993
107 0.0
107 0.002031
114 0.0
106 0.0
40 0.0
18 0.0
32 0.002029
37 0.002045
40 0.003991
51 0.005041
51 0.005038
50 0.005985
58 0.005965
64 0.006981
76 0.007887
82 0.006023
87 0.005991
98 0.004988
102 0.006981
51 0.005978
10 0.004
21 0.002991
26 0.002024
31 0.003955
41 0.003989
44 0.0
43 0.0
45 0.001008
60 0.002
77 0.002026
88 0.003938
96 0.004033
102 0.004947
92 0.006971
38 0.00601
13 0.007978
27 0.007961
42 0.005977
44 0.004982
36 0.003996
39 0.005974
37 0.001995
46 0.001994
58 0.002992
68 0.002992
78 0.002994
88 0.001965
101 0.002026
113 0.0
95 0.001978
31 0.002041
8 0.000984
27 0.000995
32 0.0
37 0.000997
50 0.000997
52 0.000977
57 0.001995
65 0.000947
78 0.001965
91 0.002024
94 0.00296
105 0.005025
111 0.004939
116 0.006969
118 0.006964
67 0.007019
32 0.007977
44 0.005001
60 0.004999
65 0.003989
66 0.003986
73 0.002992
74 0.0
76 0.001028
86 0.000799
95 0.002046
104 0.002044
111 0.001969
116 0.004023
132 0.003951
137 0.003988
85 0.003988
45 0.004023
57 0.006038
71 0.005957
77 0.00597
88 0.005989
92 0.006025
93 0.005984
97 0.004004
109 0.003975
122 0.001979
124 0.004023
130 0.003989
140 0.001996
140 0.0
83 0.0
61 0.002011
77 0.000964
92 0.002004
98 0.001964
107 0.001005
110 0.002001
105 0.0
114 0.002011
124 0.002994
135 0.004029
146 0.003955
151 0.004015
160 0.007013
135 0.005973
77 0.002998
79 0.004002
91 0.004023
99 0.004023
109 0.000964
116 0.00199
118 0.001992
121 0.002043
129 0.00204
140 0.0
149 0.00095
152 0.0
162 0.003026
162 0.0
111 0.0
74 0.0
91 0.000975
103 0.000999
107 0.0
114 0.001995
116 0.003
114 0.003024
124 0.004003
136 0.005031
145 0.00399
150 0.006016
153 0.005028
161 0.00398
149 0.002954
97 0.003989
66 0.003971
81 0.003003
91 0.001979
99 0.002036
106 0.003022
109 0.002031
105 0.0
111 0.0
119 0.00101
124 0.000993
133 0.001994
135 0.000998
143 0.001994
135 0.003042
71 0.003983
58 0.004024
76 0.005985
87 0.006017
98 0.005983
100 0.006978
98 0.005954
97 0.006029
107 0.006006
115 0.004984
124 0.004988
133 0.006981
138 0.006987
141 0.004021
86 0.004994
58 0.003
71 0.004986
89 0.005022
99 0.002965
107 0.002021
107 0.002994
106 0.002005
115 0.002025
125 0.0
138 0.001032
145 0.0
153 0.003032
158 0.002028
103 0.000943
68 0.0
81 0.0
94 0.003021
103 0.000997
109 0.002989
112 0.004048
114 0.003959
120 0.005985
136 0.006949
143 0.007947
151 0.00798
155 0.006017
163 0.003022
161 0.003991
104 0.006102
63 0.005984
71 0.001997
77 0.0
89 0.000953
84 0.0
89 0.001988
91 0.002984
95 0.004068
105 0.005029
119 0.00499
125 0.004953
132 0.005041
141 0.004976
148 0.005995
127 0.005981
62 0.005986
56 0.00598
76 0.006021
93 0.00595
101 0.006949
106 0.005032
101 0.00506
104 0.004027
114 0.003004
121 0.002024
130 0.004026
138 0.002993
148 0.0
155 0.0
162 0.000997
98 0.0
64 0.001967
73 0.0
92 0.00303
106 0.003037
109 0.003024
109 0.004969
112 0.005043
120 0.004989
131 0.005938
142 0.006018
148 0.004997
152 0.005984
149 0.006015
88 0.003005
63 0.002966
87 0.00299
102 0.001994
116 0.002003
120 0.0
124 0.0
123 0.0
136 0.0
150 0.001057
153 0.000998
158 0.000974
155 0.003044
90 0.002995
64 0.002991
82 0.00498
96 0.005983
105 0.006021
114 0.006016
116 0.006969
115 0.006979
114 0.007013
126 0.003989
131 0.00399
140 0.002978
136 0.006031
74 0.003989
52 0.0
67 0.0
81 0.000969
91 0.002027
97 0.003027
95 0.000997
93 0.000998
98 0.000895
112 0.00298
119 0.002993
123 0.003955
127 0.00502
63 0.00598
34 0.005954
45 0.007015
56 0.006982
63 0.004993
71 0.004972
72 0.003008
74 0.006021
78 0.004982
90 0.002996
100 0.0
108 0.0
115 0.002992
83 0.003029
33 0.0
35 0.000997
54 0.000998
62 0.002991
75 0.002994
76 0.002899
76 0.003981
81 0.003956
90 0.005991
103 0.004983
104 0.006984
116 0.005016
110 0.002948
45 0.001977
35 0.001994
52 0.002178
69 0.002992
78 0.0
85 0.0
85 0.001992
92 0.001998
99 0.00097
108 0.000999
116 0.000982
126 0.001031
133 0.00295
71 0.003992
46 0.003955
61 0.003995
81 0.003986
88 0.005984
94 0.005987
101 0.005985
99 0.005937
104 0.006053
116 0.006015
125 0.005932
132 0.007011
140 0.005986
143 0.002955
91 0.003016
49 0.002028
63 0.003024
81 0.002992
92 0.0
98 0.00099
104 0.000996
106 0.001998
108 0.002033
119 0.003992
128 0.003982
139 0.004009
144 0.00602
151 0.005986
158 0.007015
129 0.005005
69 0.006014
64 0.004952
84 0.007032
93 0.005016
98 0.002012
102 0.001998
102 0.001994
105 0.003025
117 0.003031
125 0.001972
134 0.002992
139 0.001988
142 0.001989
148 0.0
136 0.002028
70 0.001996
61 0.001995
80 0.003956
95 0.004956
111 0.005989
115 0.007984
112 0.005998
118 0.004985
124 0.004959
132 0.005987
142 0.004027
146 0.002992
157 0.00299
159 0.0
115 0.002994
76 0.002031
96 0.0
114 0.0
127 0.0
128 0.002052
124 0.002027
124 0.0
132 0.0
144 0.0
150 0.001992
155 0.0
163 0.0
164 0.00199
100 0.001955
66 0.003964
86 0.004007
98 0.003976
108 0.005
118 0.006863
118 0.006945
118 0.006982
125 0.006984
133 0.006975
143 0.006968
149 0.005974
155 0.007009
162 0.005987
116 0.005982
66 0.004984
78 0.003993
94 0.006939
110 0.006017
116 0.001975
116 0.002013
115 0.002987
123 0.002051
135 0.002025
140 0.0
148 0.0
151 0.001996
160 0.001797
138 0.001979
77 0.002035
63 0.002994
83 0.004952
97 0.005984
105 0.005983
107 0.005991
102 0.007013
104 0.004963
114 0.003998
123 0.002986
125 0.006983
136 0.004023
137 0.002993
143 0.0
115 0.0
66 0.0
57 0.000992
74 0.002009
93 0.001991
101 0.00304
104 0.004018
102 0.004963
100 0.006982
110 0.007016
118 0.00697
131 0.006959
135 0.00602
150 0.007015
127 0.006977
72 0.003991
57 0.003989
82 0.002991
91 0.004985
103 0.001993
107 0.0
100 0.0
104 0.0
114 0.0
127 0.001998
132 0.002992
139 0.004007
148 0.003989
112 0.005961
59 0.006017
51 0.007021
70 0.006969
80 0.006947
89 0.006978
94 0.00702
91 0.007948
92 0.004133
103 0.004999
115 0.003981
116 0.006983
122 0.006037
131 0.003989
79 0.002993
35 0.0
38 0.002014
57 0.001994
71 0.0
73 0.0
75 0.000996
72 0.001996
73 0.003952
79 0.005982
88 0.006022
95 0.005974
100 0.003994
100 0.00399
61 0.005976
18 0.004986
25 0.002972
41 0.002986
52 0.001996
53 0.002992
50 0.001998
55 0.000988
61 0.002003
73 0.001995
84 0.003956
93 0.003826
102 0.004987
91 0.004987
31 0.004986
17 0.004984
36 0.00498
43 0.005076
54 0.006945
54 0.005984
54 0.005957
55 0.005985
65 0.006981
78 0.005984
88 0.002997
94 0.002961
101 0.003001
65 0.002994
11 0.002
11 0.001995
33 0.002992
40 0.003989
53 0.002987
58 0.005022
56 0.005986
59 0.006976
65 0.005984
81 0.005984
94 0.007853
99 0.007979
112 0.004974
89 0.003976
24 0.003988
18 0.005971
37 0.00701
44 0.003989
58 0.001998
63 0.001997
62 0.001996
68 0.002991
74 0.0
89 0.0
101 0.0
108 0.001964
116 0.001998
123 0.001933
74 0.002988
36 0.003025
51 0.002992
64 0.004986
68 0.004987
76 0.007014
76 0.006817
75 0.005984
83 0.005985
94 0.006994
103 0.007011
114 0.002995
125 0.001992
129 0.002035
137 0.001973
138 0.001993
92 0.0
52 0.000958
69 0.003013
86 0.003981
91 0.005983
98 0.006976
98 0.006986
98 0.003991
102 0.002978
116 0.002003
124 0.002036
132 0.002979
144 0.000999
149 0.0
156 0.0
128 0.0
75 0.0
76 0.001952
96 0.004031
116 0.004976
125 0.005987
127 0.005984
125 0.006036
129 0.005981
141 0.002988
154 0.002993
156 0.003992
162 0.004083
173 0.001973
173 0.003009
122 0.002985
88 0.003018
102 0.003
117 0.002999
130 0.0
135 0.0
138 0.00101
136 0.000996
140 0.0
149 0.001004
159 0.0
165 0.002026
170 0.0
177 0.003027
179 0.00399
121 0.005982
84 0.005958
103 0.005977
123 0.00798
131 0.007981
134 0.004981
131 0.003985
129 0.00302
134 0.003989
146 0.002984
152 0.000998
162 0.0
165 0.000963
170 0.000997
176 0.003035
166 0.005029
101 0.00703
80 0.006972
96 0.004995
110 0.004984
118 0.005027
121 0.004022
116 0.000983
113 0.0
122 0.001017
126 0.003023
132 0.001979
139 0.000998
145 0.001001
156 0.001008
163 0.002984
127 0.004984
79 0.006988
71 0.006983
88 0.005974
105 0.002974
113 0.003974
115 0.007017
109 0.005162
109 0.001981
117 0.00299
125 0.004013
136 0.002032
137 0.0
143 0.0
150 0.0
110 0.0
63 0.001963
72 0.001995
94 0.001994
104 0.002032
112 0.004024
105 0.004948
107 0.004986
115 0.005939
122 0.005981
130 0.006014
139 0.003992
143 0.00602
149 0.006016
137 0.002993
65 0.003132
57 0.002939
76 0.005013
94 0.005016
94 0.002953
100 0.003094
93 0.003026
95 0.005019
103 0.005015
115 0.002991
123 0.000967
127 0.0
133 0.002991
122 0.001997
70 0.002028
36 0.003
53 0.00403
65 0.004001
73 0.003989
78 0.003971
76 0.005038
77 0.00498
82 0.004957
93 0.004985
100 0.004985
106 0.005026
111 0.005976
104 0.005984
56 0.00698
21 0.006974
33 0.006973
41 0.005973
48 0.003975
56 0.004022
52 0.005985
51 0.004026
59 0.000966
68 0.000988
78 0.003034
83 0.003008
90 0.0
97 0.000998
62 0.0
15 0.002001
9 0.002992
27 0.000952
32 0.0
42 0.000955
43 0.0
40 0.001995
49 0.003036
63 0.003992
71 0.004946
80 0.004982
85 0.004987
91 0.00698
83 0.007939
29 0.003033
3 0.003024
23 0.001994
39 0.004995
48 0.004987
53 0.0
53 0.0
57 0.000985
64 0.001997
75 0.002029
86 0.00096
91 0.0
99 0.0
108 0.001856
98 0.002002
49 0.001994
24 0.00202
42 0.002956
55 0.003031
58 0.003031
66 0.002992
68 0.004976
72 0.003993
82 0.00499
94 0.006978
98 0.005986
109 0.007014
117 0.005992
123 0.005939
122 0.004022
83 0.007031
38 0.007017
48 0.004982
67 0.003936
74 0.002998
79 0.004988
85 0.004987
82 0.002993
88 0.001004
98 0.0
102 0.003017
112 0.004023
118 0.0
127 0.0
134 0.00204
121 0.003027
63 0.000953
53 0.001007
68 0.000997
77 0.000967
89 0.000997
96 0.000998
92 0.001002
98 0.002008
112 0.00399
120 0.003958
128 0.00598
136 0.007005
140 0.002976
146 0.004991
146 0.002996
104 0.005985
69 0.005026
88 0.002997
104 0.002996
114 0.002961
121 0.004987
120 0.004024
117 0.002037
128 0.002938
137 0.0
143 0.003042
151 0.002027
158 0.002049
166 0.002991
140 0.002991
87 0.002992
87 0.002991
111 0.003952
119 0.004977
131 0.004958
130 0.006974
129 0.006967
132 0.00701
140 0.006982
148 0.006929
157 0.005998
163 0.006978
171 0.00798
167 0.007975
115 0.003991
76 0.004116
92 0.002038
107 0.005026
115 0.005013
123 0.000954
121 0.0
120 0.001048
126 0.0
135 0.0
144 0.0
154 0.001995
157 0.001962
163 0.002002
163 0.001994
120 0.001995
72 0.001991
80 0.002948
98 0.003989
102 0.003949
108 0.004998
106 0.005029
104 0.004829
106 0.004958
118 0.004993
125 0.006979
132 0.005988
134 0.004025
139 0.004986
146 0.005036
144 0.005019
77 0.000997
57 0.000949
79 0.000997
100 0.002995
110 0.0
112 0.0
108 0.0
105 0.0
105 0.0
114 0.0
117 0.001996
131 0.002
138 0.003958
143 0.003959
95 0.005
61 0.005994
66 0.005977
83 0.005984
97 0.006023
104 0.005955
100 0.005983
98 0.00698
102 0.003979
112 0.002992
120 0.004015
131 0.003986
138 0.001998
146 0.0
103 0.0
55 0.0
55 0.002027
70 0.003005
84 0.0
92 0.0
93 0.0
86 0.001049
92 0.000999
101 0.000961
113 0.002036
121 0.002025
128 0.001983
134 0.002981
101 0.004978
47 0.005978
41 0.005983
59 0.00592
65 0.006981
70 0.005968
73 0.005987
72 0.003014
75 0.004956
83 0.006018
94 0.004993
104 0.003007
111 0.0
118 0.001007
113 0.002999
53 0.002986
22 0.0
34 0.000977
44 0.0
52 0.0
57 0.000997
57 0.003026
58 0.002993
67 0.005984
76 0.005979
79 0.005953
89 0.006984
95 0.006976
100 0.005983
107 0.003984
72 0.004001
25 0.006022
12 0.002984
28 0.000964
35 0.0
38 0.000826
41 0.00196
38 0.003959
41 0.00502
53 0.004988
63 0.005988
80 0.006949
86 0.006982
89 0.007011
96 0.006968
104 0.003978
78 0.003977
19 0.004996
15 0.007016
35 0.006981
45 0.002994
54 0.002991
55 0.003004
53 0.004968
61 0.005012
77 0.003073
86 0.003
98 0.001974
102 0.003948
112 0.002984
120 0.0
110 0.0
47 0.001987
33 0.003007
52 0.003997
65 0.003993
78 0.005987
83 0.005984
78 0.004981
82 0.005978
94 0.005981
106 0.003001
118 0.002996
131 0.002975
139 0.004989
148 0.003988
150 0.002995
86 0.0
45 0.000997
49 0.001994
64 0.002965
70 0.0
81 0.001972
84 0.003989
85 0.004953
96 0.005973
106 0.005983
118 0.005992
129 0.006981
133 0.006125
145 0.005951
153 0.007978
151 0.007977
83 0.003988
55 0.002991
74 0.002994
83 0.002992
92 0.002984
100 0.0
99 0.001005
100 0.000998
106 0.001993
119 0.002992
127 0.0
138 0.001991
148 0.004023
147 0.00598
158 0.006021
158 0.007974
109 0.006987
63 0.002988
72 0.002996
89 0.003005
95 0.001995
104 0.0
109 0.0
104 0.001002
114 0.000999
124 0.001026
135 0.002994
141 0.001991
152 0.002993
163 0.004034
166 0.005991
142 0.006977
80 0.004979
75 0.001994
86 0.0
102 0.000998
112 0.000998
112 0.002993
110 0.003942
114 0.004
127 0.004837
143 0.004987
149 0.005953
159 0.005986
170 0.005952
164 0.005993
99 0.004942
69 0.005964
85 0.00798
105 0.007974
112 0.004982
121 0.003
116 0.0
120 0.003989
131 0.002049
143 0.0
149 0.0
158 0.0
169 0.0
172 0.000966
127 0.002002
75 0.002987
81 0.002967
96 0.003989
104 0.003959
110 0.004939
111 0.004912
112 0.00495
120 0.005019
132 0.004955
141 0.004987
150 0.004965
162 0.00495
169 0.005983
145 0.005944
75 0.006976
67 0.007015
82 0.004009
92 0.002998
101 0.002991
103 0.003989
99 0.004001
104 0.0
117 0.000958
124 0.000998
135 0.003023
142 0.002999
146 0.000967
158 0.000962
133 0.0
81 0.000988
60 0.001992
71 0.003991
85 0.003022
94 0.005995
103 0.005986
103 0.007971
103 0.007978
115 0.004027
130 0.003994
138 0.002991
146 0.00603
153 0.00402
169 0.0
170 0.000961
109 0.0
77 0.0
85 0.000871
99 0.002005
113 0.003041
116 0.002025
113 0.003025
120 0.005035
134 0.004024
150 0.003997
163 0.005944
172 0.005987
179 0.002999
189 0.00698
189 0.006973
129 0.003994
93 0.003992
107 0.003989
122 0.007016
131 0.005977
139 0.002959
140 0.002983
144 0.001987
149 0.00402
159 0.003976
170 0.0
183 0.0
191 0.000961
204 0.002001
195 0.002939
123 0.000993
97 0.000959
113 0.000998
121 0.000998
130 0.000987
138 0.002044
141 0.002993
144 0.00598
150 0.004946
163 0.004958
176 0.004951
190 0.005021
197 0.005994
206 0.005974
208 0.006031
154 0.005943
111 0.006018
114 0.004021
130 0.004988
142 0.005985
150 0.006016
152 0.002988
151 0.003989
156 0.002
165 0.00399
176 0.003002
184 0.0
190 0.003013
201 0.0
205 0.003024
179 0.002027
127 0.000997
111 0.001974
123 0.003038
130 0.004986
140 0.004836
140 0.004992
135 0.006992
136 0.00502
144 0.002984
154 0.002003
167 0.004014
179 0.004024
187 0.0
190 0.0
136 0.0
98 0.001014
105 0.003022
122 0.000995
136 0.001029
138 0.0
136 0.002034
135 0.001008
147 0.003015
161 0.003999
170 0.00395
185 0.005985
194 0.005978
199 0.005955
156 0.005983
105 0.005987
105 0.003949
123 0.004989
135 0.007014
146 0.007946
147 0.003995
147 0.0
154 0.0
164 0.0
180 0.000966
185 0.00103
194 0.000997
204 0.000995
182 0.001023
117 0.000997
103 0.002024
118 0.004002
128 0.003957
136 0.003993
142 0.005024
142 0.003985
147 0.004001
158 0.004988
170 0.004945
174 0.004992
181 0.005062
188 0.004985
194 0.005982
156 0.006003
105 0.006973
104 0.006979
117 0.005005
117 0.003973
129 0.003988
129 0.006015
129 0.004982
136 0.000967
147 0.0
157 0.0
163 0.002999
171 0.003029
175 0.000997
182 0.0
181 0.002025
122 0.000965
88 0.000998
94 0.001995
103 0.002993
110 0.002994
120 0.004983
120 0.005977
122 0.006995
131 0.006013
145 0.0
151 0.0
155 0.0
164 0.001043
170 0.000998
179 0.003963
187 0.00511
146 0.006941
96 0.005952
102 0.006948
112 0.006873
117 0.006975
124 0.004036
126 0.003984
124 0.003961
133 0.006981
144 0.007019
156 0.003999
163 0.002981
172 0.003015
177 0.003041
184 0.002027
189 0.0
154 0.002041
105 0.002954
112 0.003989
125 0.003977
132 0.003951
143 0.00406
147 0.003988
146 0.005983
155 0.00599
164 0.005978
177 0.005988
178 0.005983
188 0.006976
194 0.006991
201 0.006936
208 0.005982
187 0.004987
121 0.004963
111 0.007023
130 0.005973
135 0.003977
142 0.002988
150 0.002944
144 0.002991
149 0.003005
159 0.000939
171 0.0
178 0.000994
189 0.002995
193 0.0
200 0.0
204 0.000997
210 0.001958
173 0.002032
110 0.001812
110 0.003959
129 0.00602
134 0.00595
143 0.004985
146 0.004927
145 0.006954
144 0.007016
153 0.003993
160 0.002984
168 0.003996
173 0.00598
177 0.005953
186 0.002985
191 0.002011
195 0.001966
166 0.003022
101 0.004024
100 0.0
116 0.0
127 0.0
138 0.003018
137 0.002983
133 0.000977
139 0.000967
150 0.001963
159 0.002036
163 0.003957
167 0.00399
172 0.005983
184 0.004986
204 0.002991
180 0.005983
95 0.005984
85 0.002991
103 0.001998
114 0.003998
117 0.003973
115 0.004035
113 0.001984
116 0.002005
126 0.000967
139 0.003025
146 0.003028
156 0.001009
158 0.000954
163 0.000992
164 0.0
97 0.0
62 0.0
76 0.001945
93 0.001963
101 0.003026
107 0.003991
109 0.00399
108 0.004937
113 0.005028
127 0.005955
134 0.00601
140 0.006961
145 0.007137
150 0.003984
155 0.003987
135 0.003006
78 0.00502
56 0.005985
73 0.003002
83 0.0
92 0.004021
94 0.003026
92 0.002938
92 0.000996
99 0.0
113 0.0
121 0.0
124 0.0
133 0.0
140 0.0
137 0.0
70 0.0
41 0.0
49 0.001996
67 0.002999
73 0.003004
80 0.002907
77 0.00499
75 0.004964
83 0.005026
94 0.004996
100 0.005984
108 0.006062
111 0.006986
115 0.005976
119 0.004986
78 0.00302
26 0.007016
24 0.004973
43 0.002999
49 0.0
60 0.0
62 0.002994
61 0.000973
66 0.002026
76 0.002957
86 0.004021
99 0.004991
100 0.006013
107 0.006976
118 0.007993
109 0.004975
45 0.004976
31 0.004977
45 0.007015
59 0.006952
72 0.003987
76 0.004988
72 0.002959
69 0.004941
81 0.004019
92 0.003956
107 0.0
112 0.0
118 0.002018
128 0.001987
116 0.00405
54 0.00386
44 0.003989
65 0.003944
73 0.005987
85 0.006984
88 0.006979
87 0.004022
89 0.00399
100 0.003984
110 0.006982
122 0.006981
131 0.002992
