124 0.005564
124 0.004791
132 0.004616
144 0.004956
150 0.004991
155 0.004986
158 0.004956
161 0.003959
165 0.00494
168 0.004025
169 0.004986
146 0.003988
82 0.003989
44 0.005041
61 0.003851
90 0.003993
103 0.004029
112 0.005497
121 0.004029
127 0.003803
127 0.004482
126 0.003864
128 0.003854
134 0.003956
143 0.002996
154 0.003989
162 0.003987
164 0.003991
167 0.00397
169 0.004067
170 0.003992
171 0.00299
167 0.004986
100 0.003938
51 0.004986
45 0.003321
62 0.003988
85 0.004814
109 0.002972
119 0.002943
130 0.003032
133 0.002986
133 0.003991
134 0.003295
137 0.003178
146 0.002993
152 0.002995
158 0.001993
162 0.002993
165 0.003991
167 0.00367
169 0.002669
171 0.003988
172 0.004017
154 0.003135
95 0.00406
53 0.0042
54 0.002739
74 0.003028
93 0.001404
103 0.003019
111 0.002991
123 0.002996
123 0.002996
121 0.00307
123 0.002994
128 0.001997
135 0.002985
143 0.002701
149 0.002041
152 0.002567
154 0.001958
157 0.001563
159 0.002104
141 0.002037
84 0.00276
44 0.002753
52 0.001971
71 0.001998
89 0.003036
99 0.002992
113 0.001996
119 0.003029
118 0.001998
115 0.001878
115 0.001991
126 0.001995
134 0.001999
143 0.001997
147 0.001998
150 0.001796
153 0.00201
156 0.002079
152 0.001998
110 0.002042
58 0.001992
42 0.002034
50 0.001994
75 0.00299
83 0.001755
92 0.001671
106 0.001844
110 0.0022
110 0.001092
109 0.001062
112 0.001732
122 0.001732
130 0.001
136 0.001249
141 0.001029
147 0.000962
149 0.001
151 0.000956
155 0.001995
157 0.001683
139 0.000989
83 0.000996
44 0.001994
43 0.002029
54 0.000958
64 0.001644
69 0.000999
85 0.002028
98 0.000866
104 0.00116
104 0.001002
106 0.001003
111 0.000999
118 0.000991
126 0.001898
135 0.000996
140 0.0
144 0.001041
148 0.000965
153 0.0
155 0.000767
157 0.00103
161 0.00059
166 0.000808
164 0.000761
128 0.0
70 0.0
46 0.000665
55 0.0
69 0.000998
77 0.001
87 0.000641
101 0.001032
113 0.001037
116 0.0
116 0.0
118 0.0
124 0.0
131 0.0
141 0.0
147 0.0
151 0.001
155 0.000412
160 0.0
162 0.0
164 0.000956
167 0.000421
170 0.0
174 0.0
174 0.0
140 0.0
66 0.0
53 0.0
64 0.001004
86 0.0
95 0.0
105 0.0
114 0.0
121 0.0
120 0.001002
118 0.001
121 0.0
128 0.0
139 0.0
145 0.001007
149 0.001003
153 0.0
159 0.00061
160 0.0
144 0.0
78 0.0
58 0.0
64 0.001003
84 0.0
95 0.0
102 0.0
114 0.0
124 0.002003
127 0.0
125 0.0
129 0.0
136 0.0
145 0.0
152 0.000428
158 0.001042
164 0.0
167 0.0
170 0.0
172 0.001005
174 0.001992
177 0.000999
179 0.001048
181 0.0
184 0.0
182 0.0
141 0.000937
75 0.000824
47 0.0
57 0.0
73 0.001002
84 0.001006
88 0.000998
97 0.000996
112 0.001992
119 0.0
120 0.001002
121 0.0
126 0.001999
134 0.001278
142 0.001005
148 0.001007
156 0.001001
160 0.001991
163 0.002037
167 0.001003
170 0.001138
173 0.000977
176 0.0
178 0.001994
159 0.001959
97 0.001965
56 0.001989
56 0.0
73 0.001003
88 0.001735
96 0.002175
101 0.001995
119 0.001783
125 0.002025
126 0.000999
126 0.001
130 0.002001
137 0.002105
146 0.002226
155 0.002
160 0.002033
164 0.002001
167 0.002996
169 0.002996
171 0.00218
173 0.002644
177 0.001028
175 0.001019
132 0.002023
74 0.001752
54 0.003123
69 0.001993
88 0.000996
99 0.002401
105 0.003018
114 0.002253
126 0.002997
125 0.003005
123 0.001912
126 0.001673
132 0.001996
141 0.002599
148 0.002219
154 0.001986
157 0.002004
161 0.002028
163 0.003017
152 0.004763
70 0.003023
53 0.004157
66 0.001996
83 0.001979
94 0.001034
100 0.00363
112 0.003352
124 0.003197
125 0.002171
124 0.001992
126 0.003391
131 0.003025
143 0.0025
148 0.002903
154 0.002993
157 0.00314
160 0.002002
163 0.003342
166 0.003956
169 0.002989
170 0.002995
172 0.002454
174 0.003042
175 0.004159
99 0.003763
51 0.004216
46 0.002362
59 0.002956
72 0.002605
77 0.003994
81 0.004692
91 0.004268
106 0.003127
111 0.003802
112 0.004379
114 0.004323
123 0.003051
132 0.004099
139 0.003275
147 0.00199
152 0.003024
156 0.003766
159 0.004016
162 0.005029
165 0.003989
168 0.003786
171 0.00342
169 0.003805
87 0.003955
52 0.004332
50 0.005217
68 0.003025
79 0.004081
83 0.003957
89 0.004988
101 0.005966
113 0.003977
114 0.00392
114 0.002991
116 0.005857
128 0.004239
137 0.003958
143 0.00482
150 0.004191
154 0.004184
157 0.004326
159 0.004865
161 0.00504
164 0.004103
167 0.004693
172 0.0036
159 0.005476
69 0.003704
52 0.006086
60 0.003989
81 0.004902
89 0.003995
93 0.004022
103 0.004987
115 0.007197
118 0.003486
116 0.00521
117 0.004906
122 0.006462
133 0.0045
144 0.005236
149 0.005631
153 0.005138
156 0.004904
161 0.003985
163 0.005623
142 0.005941
75 0.003989
58 0.005
62 0.004854
77 0.006636
92 0.003577
98 0.005696
111 0.005311
122 0.004656
123 0.003969
122 0.004993
125 0.005017
132 0.006637
141 0.004845
152 0.005994
158 0.004565
161 0.004944
167 0.004874
170 0.004604
172 0.00563
174 0.006144
177 0.004058
179 0.003912
181 0.005797
183 0.006528
184 0.007291
186 0.00579
186 0.006242
161 0.006871
59 0.005604
47 0.005023
57 0.006012
74 0.005974
85 0.003991
87 0.004986
94 0.006021
106 0.007015
114 0.006829
118 0.005523
119 0.005968
124 0.005964
136 0.003988
144 0.00658
150 0.007033
155 0.007045
160 0.00604
164 0.005143
166 0.006048
169 0.007392
171 0.007167
173 0.005967
175 0.005984
178 0.005122
180 0.004986
149 0.007018
87 0.00735
56 0.008036
61 0.004762
78 0.006549
92 0.006466
97 0.007243
102 0.006682
117 0.006871
126 0.006259
129 0.006295
130 0.00597
134 0.0059
142 0.006753
150 0.006878
158 0.005496
164 0.006583
167 0.00596
171 0.007939
173 0.006988
175 0.006987
176 0.00751
178 0.006984
181 0.005752
182 0.006223
172 0.005359
116 0.007759
61 0.007057
61 0.006945
87 0.006979
99 0.007178
110 0.007154
113 0.008001
125 0.007666
131 0.006977
131 0.006683
131 0.007597
134 0.005874
142 0.00788
153 0.007829
161 0.007653
164 0.006842
166 0.007006
168 0.007577
171 0.006429
167 0.007362
126 0.006992
60 0.006981
59 0.007448
73 0.006114
98 0.007581
108 0.007055
114 0.007481
124 0.006991
131 0.00698
131 0.00698
130 0.006372
134 0.007587
141 0.006984
154 0.006714
159 0.006984
164 0.007014
167 0.008007
170 0.006087
172 0.006829
174 0.005598
175 0.006342
176 0.006716
177 0.005958
180 0.006086
182 0.005557
158 0.006017
113 0.00713
51 0.006736
48 0.006961
64 0.006811
86 0.006596
93 0.006382
97 0.007008
105 0.00664
113 0.006464
119 0.006837
120 0.006247
125 0.006826
133 0.006678
141 0.005958
147 0.005832
153 0.005599
159 0.005993
162 0.005051
164 0.005984
166 0.005137
168 0.0066
170 0.004994
172 0.006157
173 0.006566
142 0.007292
80 0.006173
50 0.007337
52 0.005927
69 0.005335
89 0.005429
95 0.005224
101 0.00593
110 0.004953
117 0.004986
120 0.005721
121 0.005937
127 0.005972
135 0.00596
144 0.005948
151 0.005986
155 0.005834
160 0.005018
162 0.005976
163 0.004336
164 0.005322
166 0.005337
169 0.004947
165 0.005579
97 0.005119
56 0.004779
52 0.00526
68 0.004988
87 0.005466
99 0.004988
104 0.005924
113 0.00618
119 0.005018
119 0.004989
118 0.004479
122 0.005018
132 0.004814
141 0.005991
147 0.005013
152 0.004987
154 0.005094
159 0.003994
161 0.005023
150 0.003992
100 0.004988
59 0.005609
57 0.005978
74 0.005819
90 0.004234
96 0.004983
105 0.004987
114 0.003983
116 0.004021
116 0.004423
118 0.004944
123 0.003836
130 0.003987
138 0.004039
148 0.004023
152 0.003989
157 0.003902
160 0.003991
162 0.003991
164 0.00499
165 0.00399
167 0.00403
169 0.004989
171 0.002993
163 0.004396
108 0.003517
44 0.003984
47 0.003974
60 0.003961
72 0.003646
74 0.002973
80 0.003026
92 0.002581
102 0.003917
105 0.004985
107 0.003989
111 0.003127
117 0.002993
130 0.003272
136 0.00399
141 0.003989
147 0.003717
150 0.003962
153 0.003102
155 0.003958
157 0.0027
161 0.003194
165 0.003376
163 0.003156
122 0.000992
53 0.002994
51 0.003986
62 0.003992
74 0.003993
78 0.003991
85 0.002993
98 0.002872
109 0.003194
113 0.002995
114 0.003726
117 0.003025
123 0.00302
136 0.002991
143 0.003992
149 0.002827
153 0.002459
157 0.002956
159 0.002993
161 0.002994
163 0.002957
167 0.003033
171 0.003036
172 0.002992
147 0.00204
66 0.002987
58 0.002986
69 0.003014
87 0.002732
93 0.003028
98 0.002567
109 0.002586
118 0.002245
120 0.001953
119 0.001712
121 0.002001
128 0.002029
142 0.002995
148 0.002588
152 0.001729
156 0.001998
159 0.002
163 0.002002
165 0.002024
148 0.001996
84 0.001995
63 0.000995
67 0.001995
80 0.001993
96 0.002047
103 0.000953
114 0.002919
124 0.001599
126 0.001743
126 0.001997
128 0.001822
134 0.001004
143 0.001187
152 0.001994
158 0.001
162 0.000955
168 0.001992
171 0.000972
173 0.001119
175 0.001994
177 0.000964
179 0.001001
181 0.001213
182 0.001985
184 0.001611
182 0.001001
148 0.001058
84 0.001002
53 0.001053
65 0.001768
79 0.000999
86 0.001581
89 0.001996
99 0.001023
110 0.002065
116 0.0
119 0.0
121 0.0
125 0.000998
132 0.001036
144 0.000999
150 0.00056
156 0.000691
160 0.0
164 0.000766
167 0.0
169 0.0
170 0.0
172 0.0
175 0.0
177 0.0
178 0.0
116 0.001039
68 0.000662
56 0.000997
67 0.0
89 0.000968
96 0.0
99 0.001034
107 0.0
118 0.000665
126 0.000615
128 0.00103
130 0.001139
139 0.0
146 0.0
153 0.000996
158 0.000953
164 0.0
166 0.0
168 0.0
170 0.0
172 0.001042
174 0.0
175 0.000277
178 0.0
180 0.000997
160 0.0
101 0.0
66 0.0
69 0.000999
87 0.001
102 0.000971
110 0.000997
116 0.000996
123 0.001003
130 0.001
130 0.0
131 0.0
136 0.001011
143 0.0
153 0.0
157 0.0
161 0.002
163 0.00203
166 0.000998
168 0.0
164 0.0
125 0.002
78 0.003036
67 0.000961
85 0.0
105 0.0
111 0.0
120 0.0
129 0.001038
132 0.0
132 0.0
133 0.0
137 0.0
143 0.002001
151 0.002035
160 0.000997
164 0.001005
168 0.0
170 0.0
172 0.0
173 0.001993
175 0.001961
176 0.0
177 0.000998
180 0.0
181 0.0
171 0.000999
79 0.000135
54 0.000273
65 0.000997
83 0.0
93 0.0
96 0.001378
101 0.002333
114 0.0
121 0.0
123 0.001
124 0.002638
128 0.003
138 0.003001
145 0.000955
153 0.0
157 0.001002
159 0.000998
161 0.001409
163 0.002371
165 0.0
166 0.0
169 0.000964
171 0.0
163 0.000999
79 0.00098
56 0.001209
60 0.002059
79 0.001025
88 0.000964
92 0.000998
98 0.002008
109 0.001985
117 0.001001
119 0.001987
120 0.001034
123 0.00227
134 0.001002
141 0.002007
147 0.001963
152 0.00092
155 0.000997
158 0.001983
159 0.002361
161 0.002289
163 0.002001
165 0.002028
167 0.001994
157 0.001995
73 0.000976
54 0.002986
61 0.003042
81 0.000994
89 0.000145
92 0.00099
100 0.002743
109 0.001986
114 0.000956
114 0.001034
115 0.002107
119 0.002752
131 0.001929
137 0.001898
142 0.003037
146 0.000998
149 0.001997
152 0.001989
145 0.00303
102 0.004026
59 0.00099
57 0.000958
68 0.002026
80 0.003037
91 0.0
102 0.003117
110 0.003161
113 0.001993
112 0.002002
114 0.001999
119 0.003391
127 0.002992
136 0.002994
141 0.001998
145 0.001962
149 0.003992
154 0.001996
156 0.003613
158 0.002987
160 0.001998
163 0.001996
166 0.001986
157 0.003747
107 0.003734
53 0.002992
49 0.003215
58 0.001997
67 0.002992
72 0.00352
80 0.001949
93 0.00354
103 0.004829
107 0.002036
108 0.002986
112 0.002956
118 0.004667
125 0.004442
134 0.00322
139 0.002757
143 0.002992
149 0.003123
152 0.003851
154 0.003353
156 0.003975
160 0.003359
163 0.002981
166 0.003852
151 0.004865
98 0.004508
52 0.002954
51 0.00377
61 0.001956
71 0.002989
74 0.001988
83 0.004382
97 0.004531
108 0.003562
110 0.003339
112 0.003411
116 0.003989
122 0.004377
131 0.003636
138 0.002959
143 0.00399
150 0.002026
154 0.003949
158 0.005095
161 0.005723
164 0.001986
167 0.003566
169 0.00404
172 0.004719
173 0.005245
133 0.003991
78 0.004
55 0.003942
67 0.003997
80 0.003066
85 0.005096
87 0.005856
101 0.003028
112 0.003818
116 0.002989
117 0.004869
118 0.006204
125 0.005207
134 0.004075
142 0.004328
151 0.003089
155 0.004612
158 0.005911
161 0.004987
164 0.004614
165 0.00508
167 0.004193
170 0.005673
174 0.006594
175 0.005989
131 0.003961
78 0.004865
62 0.004024
76 0.003987
91 0.003945
98 0.006497
103 0.006072
116 0.004633
121 0.005047
122 0.004289
122 0.006232
124 0.006445
133 0.00494
142 0.005436
153 0.003945
156 0.003956
160 0.004019
162 0.006374
166 0.006268
168 0.00499
150 0.004886
98 0.005035
65 0.006626
62 0.006933
81 0.005285
94 0.005023
104 0.005668
114 0.00499
124 0.005454
128 0.006157
128 0.00673
130 0.004897
135 0.0045
143 0.006138
151 0.007133
157 0.005938
164 0.005916
167 0.005393
171 0.005692
173 0.005365
175 0.005936
177 0.007419
178 0.006981
181 0.006488
183 0.005764
184 0.006045
186 0.007127
188 0.00726
175 0.005879
116 0.004985
52 0.005101
58 0.004958
75 0.006247
91 0.007444
93 0.007461
98 0.006032
108 0.005627
116 0.005851
121 0.006981
123 0.007708
127 0.007263
133 0.006504
147 0.005861
153 0.006036
158 0.005082
161 0.00759
164 0.007521
167 0.006367
169 0.005563
171 0.007021
173 0.006816
174 0.008137
176 0.007793
178 0.005878
139 0.007019
66 0.007322
57 0.006988
67 0.007195
91 0.007586
99 0.007747
103 0.005795
111 0.006929
123 0.007002
126 0.007259
127 0.007982
128 0.006526
138 0.007722
146 0.005758
155 0.006899
158 0.005983
161 0.008016
163 0.00698
165 0.006603
168 0.007105
163 0.00695
119 0.006981
71 0.007338
58 0.006929
75 0.008014
97 0.007001
107 0.006937
111 0.006984
123 0.006621
126 0.006978
125 0.006056
123 0.006978
129 0.006981
138 0.006939
148 0.007283
159 0.006144
164 0.006992
167 0.006981
169 0.005983
170 0.006858
171 0.007236
172 0.005988
173 0.005991
174 0.005931
175 0.006184
155 0.006371
91 0.006985
48 0.007171
58 0.006981
81 0.006999
88 0.00616
90 0.006123
98 0.00694
107 0.007079
113 0.00598
114 0.006007
116 0.005984
120 0.006168
128 0.00574
138 0.006773
146 0.006479
151 0.005982
154 0.006524
156 0.006178
158 0.006303
160 0.006016
161 0.00626
165 0.006054
165 0.005411
145 0.00704
86 0.00499
50 0.006
54 0.006023
68 0.005982
76 0.006046
79 0.006091
88 0.006019
101 0.006231
108 0.005982
112 0.006885
113 0.005984
118 0.006658
124 0.004997
132 0.005856
142 0.004991
147 0.004989
152 0.005953
155 0.005034
157 0.005021
159 0.004991
161 0.006201
164 0.004989
167 0.004661
162 0.005496
114 0.005479
63 0.0057
53 0.004997
67 0.005984
81 0.004782
83 0.005022
90 0.005023
102 0.004026
111 0.004986
113 0.004989
113 0.005014
116 0.005031
124 0.004985
132 0.004021
142 0.005341
145 0.00481
150 0.005028
155 0.004983
157 0.004134
141 0.005026
90 0.00573
56 0.005681
60 0.004036
74 0.004127
86 0.003992
92 0.004266
108 0.003993
117 0.004003
118 0.004982
117 0.003988
120 0.004022
127 0.003903
135 0.003955
145 0.004332
151 0.003408
154 0.003992
158 0.003993
161 0.005369
166 0.00399
167 0.003991
170 0.004615
173 0.003989
176 0.003855
166 0.003526
109 0.003162
62 0.00393
55 0.003637
68 0.003992
80 0.003988
84 0.002981
94 0.002935
107 0.004006
115 0.004465
118 0.003987
120 0.00416
123 0.003677
130 0.003742
138 0.003364
147 0.003783
152 0.002923
157 0.00326
160 0.002952
164 0.00303
166 0.002992
168 0.001958
171 0.002994
174 0.002958
172 0.00303
136 0.00399
78 0.004503
53 0.00399
61 0.002966
73 0.002857
81 0.003815
87 0.002453
99 0.001998
111 0.002942
118 0.002921
120 0.002036
122 0.003022
128 0.002994
135 0.001987
145 0.001993
151 0.002028
156 0.002993
160 0.002978
165 0.002333
168 0.002986
170 0.00149
172 0.002244
175 0.002145
177 0.001989
170 0.00245
117 0.002361
60 0.001999
57 0.002997
71 0.001993
86 0.001955
94 0.002969
102 0.001992
114 0.002993
122 0.002755
123 0.002073
123 0.001329
127 0.001232
135 0.001236
146 0.002068
152 0.001103
156 0.001294
159 0.002422
164 0.001998
167 0.002051
167 0.001996
137 0.001
73 0.001448
61 0.001828
71 0.001994
88 0.003073
100 0.001023
107 0.002024
118 0.002033
126 0.002992
126 0.002031
126 0.001204
130 0.001831
138 0.001011
149 0.000883
156 0.001636
161 0.001993
165 0.001997
167 0.002113
171 0.001996
173 0.001956
174 0.00199
177 0.001205
179 0.001108
181 0.000759
183 0.001675
173 0.000798
114 0.000699
63 0.000903
53 0.000763
65 0.001133
88 0.001093
95 0.0
98 0.000998
113 0.00103
120 0.0
123 0.000996
125 0.000997
129 0.000986
136 0.000998
144 0.000996
151 0.000928
156 0.000747
162 0.000766
165 0.001998
168 0.0
171 0.0
173 0.0
175 0.0
177 0.0
180 0.0
176 0.000997
135 0.0
75 0.0
55 0.000998
68 0.000996
86 0.000958
97 0.001031
104 0.0
115 0.0
124 0.0
128 0.001005
131 0.000555
134 0.0
139 0.0
146 0.0
153 0.0
161 0.0
165 0.0
168 0.0
172 0.000997
174 0.001025
176 0.0
177 0.0
179 0.0
182 0.000961
181 0.0
155 0.0
92 0.0
61 0.000972
71 0.0
92 0.0
112 0.001047
115 0.001003
126 0.000961
131 0.0
131 0.0
130 0.0
133 0.0
138 0.0
149 0.000992
155 0.0
160 0.001
163 0.001045
167 0.00204
169 0.001
168 0.000999
135 0.000998
81 0.0
62 0.002035
71 0.001987
96 0.000968
109 0.0
116 0.0
125 0.000998
132 0.001067
131 0.000999
130 0.001004
132 0.001
141 0.0
148 0.0
154 0.002035
159 0.002037
163 0.0
164 0.001
167 0.0
169 0.000481
170 0.001998
172 0.000967
174 0.001021
177 0.0
169 0.001002
120 0.0
65 0.001033
51 0.002
69 0.0
88 0.000995
98 0.0
101 0.001001
108 0.002994
119 0.001328
121 0.002344
123 0.000965
127 0.001001
133 0.0
140 0.001209
147 0.00129
154 0.0
157 0.000962
159 0.000999
162 0.000965
164 0.002022
167 0.002034
169 0.001342
171 0.00204
172 0.001023
152 0.0
93 0.00096
55 0.001215
53 0.001407
74 0.000998
87 0.001
92 0.0
96 0.001221
111 0.002998
116 0.002039
118 0.002245
122 0.0
126 0.000958
133 0.0
141 0.003031
147 0.002979
153 0.001031
156 0.000995
160 0.001
162 0.002285
165 0.00095
167 0.00208
169 0.002259
172 0.001613
171 0.002032
146 0.00201
88 0.002955
59 0.00304
66 0.000998
83 0.0
95 0.0
99 0.002348
111 0.000958
118 0.002709
122 0.002721
124 0.000997
127 0.002042
132 0.001996
139 0.002938
145 0.002093
152 0.001945
156 0.002993
159 0.002
161 0.002937
164 0.001997
165 0.002321
167 0.003227
171 0.001975
167 0.000955
129 0.002003
78 0.003993
63 0.003029
80 0.001997
98 0.000997
108 0.001965
112 0.002891
124 0.000964
126 0.002428
125 0.003425
125 0.001931
129 0.001928
136 0.00199
143 0.002617
148 0.003728
152 0.001969
155 0.001947
158 0.001996
160 0.003302
130 0.001983
81 0.003989
62 0.004028
67 0.003741
89 0.000991
99 0.002065
105 0.002997
114 0.003672
121 0.003759
122 0.001984
121 0.002955
123 0.002686
133 0.00299
140 0.001995
145 0.003992
150 0.003991
154 0.001958
156 0.003014
158 0.001994
160 0.004123
161 0.004944
164 0.001994
166 0.003174
165 0.001996
93 0.001348
55 0.003085
49 0.004364
60 0.004491
74 0.002949
77 0.001995
80 0.001954
90 0.005992
99 0.003994
104 0.001994
106 0.00295
108 0.002042
118 0.003379
125 0.001994
131 0.00473
136 0.004877
140 0.002994
143 0.002867
145 0.002517
147 0.005066
149 0.005448
153 0.002035
156 0.003889
146 0.002988
66 0.003793
47 0.002762
51 0.004987
60 0.005383
67 0.003337
70 0.003123
78 0.003621
92 0.005025
101 0.005528
105 0.004041
107 0.002003
111 0.003784
123 0.004558
129 0.003351
135 0.005473
139 0.005322
144 0.004143
148 0.003711
151 0.001991
153 0.004987
155 0.005374
159 0.003536
163 0.001994
160 0.002946
83 0.00399
55 0.002997
55 0.002983
66 0.005559
76 0.005485
81 0.002989
88 0.004365
100 0.00364
109 0.005771
111 0.005995
112 0.004713
115 0.004015
128 0.004988
136 0.003926
141 0.002983
145 0.006182
148 0.005951
151 0.003686
153 0.005212
155 0.004951
158 0.00616
162 0.006275
163 0.003123
128 0.003949
62 0.004117
60 0.004314
71 0.005175
84 0.006016
90 0.006196
98 0.004888
110 0.004491
116 0.00431
116 0.005863
117 0.00753
120 0.004145
127 0.004254
141 0.005544
146 0.004022
151 0.004989
155 0.006495
157 0.007218
160 0.003945
163 0.003989
165 0.005053
168 0.006983
170 0.006635
135 0.004948
81 0.002989
57 0.004972
68 0.004941
80 0.004869
86 0.006809
89 0.007409
104 0.005027
114 0.004908
118 0.004818
119 0.007338
121 0.006784
128 0.004005
136 0.004924
147 0.004985
153 0.005263
157 0.005838
161 0.007529
164 0.007009
167 0.004921
169 0.005619
170 0.004937
174 0.007975
177 0.007075
171 0.007953
124 0.00487
59 0.007685
60 0.0058
73 0.005678
84 0.006702
90 0.00697
94 0.007721
108 0.006604
118 0.005894
123 0.005276
125 0.007946
128 0.008034
134 0.003952
147 0.006923
153 0.005937
158 0.006864
162 0.006653
166 0.007682
168 0.006952
170 0.006979
172 0.006953
174 0.007054
177 0.008276
180 0.008233
166 0.006707
78 0.00768
63 0.006986
71 0.005182
89 0.005982
102 0.007268
106 0.007025
118 0.006983
124 0.005984
129 0.005454
129 0.006924
130 0.007336
135 0.005436
147 0.007016
154 0.006544
160 0.006984
163 0.006985
166 0.006932
169 0.006873
169 0.006021
140 0.006934
103 0.006842
66 0.007916
71 0.006843
92 0.007107
106 0.006891
116 0.006025
126 0.006896
131 0.006274
132 0.006623
131 0.006982
134 0.007141
141 0.006049
149 0.006801
156 0.005935
161 0.005985
165 0.006925
170 0.006
173 0.005965
174 0.005986
176 0.006986
178 0.005207
179 0.005532
181 0.005979
182 0.007096
160 0.005705
117 0.006983
58 0.0068
55 0.006562
81 0.006359
91 0.004881
96 0.005993
103 0.005579
113 0.005257
119 0.006697
121 0.004989
123 0.005652
128 0.005987
135 0.004989
143 0.005077
149 0.005635
157 0.005982
160 0.005984
164 0.006059
166 0.005992
167 0.004784
169 0.004743
171 0.005634
173 0.005557
155 0.005185
97 0.004832
59 0.004943
53 0.00549
76 0.004989
86 0.005003
91 0.006018
99 0.005025
109 0.005982
116 0.004939
119 0.005449
121 0.005561
125 0.006012
133 0.005489
140 0.005325
147 0.005021
155 0.00369
159 0.004506
162 0.004169
164 0.005078
165 0.004008
167 0.00399
170 0.004173
173 0.004028
166 0.004992
117 0.00571
67 0.005047
54 0.005506
75 0.005188
89 0.003917
96 0.00445
101 0.004104
112 0.003808
117 0.003304
118 0.003914
118 0.003993
122 0.005022
129 0.00403
137 0.004128
144 0.003978
151 0.003991
153 0.003992
156 0.00399
160 0.004757
154 0.003861
110 0.004632
68 0.003967
57 0.003796
73 0.00499
87 0.005051
95 0.004124
101 0.003989
117 0.002993
119 0.003022
118 0.002994
119 0.003751
125 0.003989
132 0.003771
140 0.003989
147 0.004801
152 0.004142
155 0.003848
158 0.003912
161 0.004324
164 0.002995
166 0.004308
167 0.003084
171 0.003951
173 0.003808
163 0.003572
106 0.003754
60 0.003027
53 0.004093
67 0.003285
81 0.003995
86 0.003977
94 0.003994
106 0.003612
112 0.003947
115 0.00359
117 0.004361
121 0.003196
128 0.002942
136 0.003492
144 0.002751
149 0.00272
154 0.003991
157 0.003029
162 0.002993
164 0.002933
166 0.002032
168 0.003928
171 0.003047
173 0.002026
157 0.002001
99 0.003027
55 0.001994
57 0.003457
70 0.003082
81 0.002992
87 0.002993
95 0.001997
108 0.002492
117 0.002833
120 0.002995
122 0.002772
126 0.001796
133 0.001996
143 0.002983
149 0.002605
154 0.002607
158 0.001993
164 0.002949
166 0.002992
169 0.003024
170 0.000994
173 0.001952
175 0.002992
145 0.002991
123 0.000998
63 0.00299
58 0.00299
72 0.002992
92 0.002992
96 0.002993
102 0.001991
113 0.001623
121 0.001011
122 0.000993
122 0.00095
126 0.002021
133 0.001998
144 0.001997
151 0.00096
155 0.001998
159 0.001998
162 0.00146
164 0.000998
165 0.001995
124 0.001
77 0.002992
63 0.000999
75 0.000998
87 0.000997
101 0.000999
106 0.001031
116 0.001971
127 0.000698
126 0.001008
126 0.001555
129 0.0
138 0.001006
147 0.001053
153 0.001033
159 0.001995
162 0.001948
166 0.001416
168 0.001049
170 0.0
173 0.000998
175 0.000996
177 0.000621
179 0.000805
180 0.001059
155 0.001276
92 0.000807
57 0.0
57 0.001
80 0.001
92 0.001009
97 0.000997
108 0.0
117 0.000998
122 0.000998
124 0.000995
127 0.001953
132 0.001016
139 0.00122
147 0.000999
153 0.0
159 0.001028
163 0.001035
165 0.001032
169 0.001027
171 0.000992
172 0.0
174 0.000997
176 0.001004
171 0.001041
125 0.0
72 0.0
56 0.0
65 0.0
87 0.0
95 0.0
102 0.001991
113 0.000969
123 0.0
126 0.000995
127 0.0
130 0.0
136 0.0
143 0.0
151 0.0
156 0.000762
161 0.0
165 0.0
169 0.0
171 0.00203
173 0.0
175 0.0
178 0.0
178 0.002031
153 0.002038
93 0.000963
62 0.0
68 0.0
87 0.0
101 0.000998
109 0.0
117 0.001045
126 0.0
128 0.000946
129 0.0
131 0.002044
136 0.002034
146 0.0
151 0.001001
157 0.000997
162 0.002017
164 0.002035
167 0.001999
169 0.002237
171 0.0
173 0.0
175 0.0
169 0.002032
125 0.002163
68 0.000939
67 0.0
84 0.0
103 0.001997
112 0.001262
122 0.001996
130 0.000512
130 0.000999
128 0.0
128 0.0
133 0.002033
140 0.002035
149 0.0
154 0.0
157 0.0
159 0.001
162 0.001997
162 0.0
129 0.001384
79 0.00123
61 0.0
74 0.0
92 0.0
105 0.001143
112 0.002004
124 0.0
128 0.0
127 0.0
127 0.002001
132 0.001
139 0.001996
145 0.00227
153 0.0
158 0.0
160 0.001024
163 0.001207
165 0.001997
168 0.001995
169 0.0
170 0.0
172 0.002998
171 0.0
136 0.002996
74 0.002
48 0.001994
59 0.000997
76 0.0
86 0.002297
89 0.002225
98 0.000997
108 0.000966
114 0.001229
116 0.002996
120 0.0
125 0.002393
132 0.002297
141 0.0
146 0.000943
150 0.0
153 0.003139
156 0.002174
159 0.000999
160 0.001312
162 0.000994
165 0.002031
150 0.001
94 0.003983
56 0.003276
55 0.002015
70 0.001995
83 0.001995
89 0.002983
93 0.002477
106 0.001029
113 0.001006
116 0.000998
118 0.003182
124 0.001
132 0.003297
139 0.003396
147 0.001982
151 0.0
154 0.002979
157 0.003462
159 0.003384
161 0.001994
163 0.000985
165 0.001959
168 0.002001
152 0.003031
96 0.001045
60 0.004007
57 0.003439
78 0.001994
92 0.003002
97 0.002462
102 0.003687
111 0.002905
118 0.001622
118 0.000957
119 0.001959
126 0.001995
134 0.001995
141 0.004322
146 0.004033
151 0.001979
153 0.0
156 0.002991
159 0.003993
151 0.004844
89 0.002334
62 0.001992
64 0.002477
90 0.001958
99 0.001996
106 0.004507
116 0.004419
123 0.001948
123 0.001995
122 0.001998
124 0.003987
131 0.003989
141 0.001994
148 0.003022
153 0.00299
158 0.002993
161 0.001993
163 0.003734
164 0.004478
166 0.003194
168 0.002814
170 0.002028
171 0.004137
150 0.004153
75 0.003995
54 0.001996
60 0.001995
85 0.00302
91 0.002983
95 0.004987
104 0.005737
115 0.002454
118 0.002354
119 0.002676
122 0.004994
126 0.005273
136 0.002061
142 0.001993
147 0.002062
154 0.002272
157 0.003027
159 0.005038
162 0.004991
164 0.002953
166 0.003145
168 0.001985
161 0.004884
112 0.005758
58 0.002121
55 0.001993
68 0.003657
87 0.004009
90 0.002979
97 0.002995
108 0.005645
116 0.004828
121 0.002994
123 0.002957
127 0.003031
134 0.006266
141 0.007084
149 0.003993
154 0.00398
160 0.003492
162 0.004625
164 0.004314
166 0.006736
167 0.006308
171 0.004061
172 0.002992
154 0.001001
97 0.00664
63 0.006724
67 0.002993
84 0.003044
101 0.004017
104 0.00416
114 0.003977
122 0.005971
125 0.005893
125 0.00494
127 0.004102
132 0.00472
140 0.006088
147 0.00686
153 0.002992
156 0.003841
161 0.003011
163 0.005521
158 0.005206
118 0.007192
75 0.006877
66 0.004703
80 0.003735
95 0.003989
103 0.006019
110 0.006248
124 0.004413
127 0.004749
126 0.00582
127 0.005491
133 0.004003
141 0.007116
149 0.006708
156 0.004989
160 0.002994
163 0.004027
166 0.0077
167 0.007894
169 0.005624
171 0.004001
174 0.006061
176 0.005681
163 0.005871
108 0.006948
65 0.007184
61 0.003019
77 0.002985
91 0.003604
96 0.00778
100 0.007972
110 0.007819
119 0.004649
122 0.007773
125 0.006184
130 0.003921
137 0.005439
146 0.007947
150 0.007853
156 0.006276
159 0.006149
162 0.004943
164 0.007865
166 0.008104
168 0.004951
172 0.007804
164 0.005273
118 0.005767
70 0.006073
60 0.007835
68 0.007947
87 0.003989
94 0.003954
99 0.005304
108 0.007982
119 0.007663
123 0.005982
126 0.006985
130 0.006727
136 0.00522
143 0.005439
151 0.00765
156 0.007973
160 0.006378
163 0.005698
166 0.006048
168 0.007383
169 0.007105
172 0.005953
171 0.007007
121 0.006981
84 0.006892
60 0.005511
70 0.006827
87 0.007115
98 0.006228
102 0.006823
109 0.005942
119 0.006917
122 0.00729
123 0.006529
126 0.006408
132 0.006292
140 0.006252
147 0.006644
152 0.006209
155 0.006972
158 0.006641
161 0.004986
162 0.005948
133 0.006814
82 0.006015
63 0.00718
79 0.006267
99 0.005961
103 0.005757
111 0.006483
122 0.005983
123 0.006036
121 0.006994
120 0.005281
123 0.005985
130 0.005985
140 0.006981
146 0.006908
152 0.006277
154 0.005598
157 0.006907
159 0.006391
160 0.00612
163 0.005887
165 0.006018
153 0.005852
100 0.00596
69 0.005989
54 0.005519
67 0.006684
89 0.006016
94 0.005984
104 0.006668
112 0.006459
114 0.005969
116 0.005966
117 0.004919
124 0.005769
131 0.004985
138 0.004957
144 0.005157
149 0.004867
154 0.004994
156 0.006138
159 0.004989
161 0.004938
163 0.005992
165 0.006085
160 0.006407
97 0.006229
59 0.005484
53 0.004847
64 0.006184
78 0.005425
87 0.005335
94 0.004883
108 0.004994
114 0.003992
117 0.006002
118 0.004986
122 0.004989
131 0.004871
138 0.005751
144 0.004983
150 0.005567
153 0.005722
158 0.005021
161 0.005034
163 0.005656
165 0.004983
167 0.004778
170 0.005027
165 0.00482
102 0.003989
63 0.003898
58 0.005592
72 0.003873
86 0.00457
96 0.003987
103 0.003991
116 0.004953
122 0.005441
124 0.004988
126 0.004953
129 0.005478
136 0.004284
145 0.005116
151 0.005377
155 0.00404
159 0.003063
163 0.003993
166 0.003556
167 0.002995
169 0.004989
171 0.002995
174 0.003955
173 0.003984
147 0.004325
77 0.002994
63 0.003989
73 0.0038
92 0.003035
107 0.003585
112 0.003106
122 0.004166
127 0.003031
127 0.003751
126 0.002888
129 0.004029
135 0.002909
145 0.00297
151 0.003034
155 0.004031
157 0.002982
162 0.003593
164 0.002847
158 0.003033
99 0.003993
68 0.003441
67 0.004489
82 0.004355
99 0.003005
110 0.003993
118 0.003313
128 0.002995
131 0.00294
130 0.002125
131 0.002951
136 0.002971
146 0.002993
152 0.002716
157 0.002787
161 0.002768
164 0.001998
167 0.003037
169 0.003035
171 0.002795
173 0.001957
175 0.001989
178 0.001993
179 0.002996
151 0.002898
90 0.002851
59 0.002695
60 0.002123
76 0.001882
94 0.002989
99 0.003097
103 0.00306
112 0.002996
122 0.002989
125 0.002994
126 0.001994
133 0.001745
140 0.002976
146 0.002536
151 0.002709
155 0.001811
158 0.00251
162 0.002551
163 0.001686
165 0.001891
168 0.001993
170 0.001994
171 0.002046
151 0.002035
79 0.001998
57 0.001997
62 0.001998
78 0.002
90 0.000996
97 0.002236
104 0.000813
114 0.002025
122 0.002736
123 0.001108
126 0.001009
131 0.002146
140 0.002034
146 0.001708
151 0.00078
155 0.001954
158 0.002031
161 0.002066
163 0.002035
164 0.000997
167 0.002999
169 0.001986
171 0.000831
158 0.001995
89 0.001837
61 0.000813
64 0.002124
80 0.000842
95 0.000997
102 0.002
108 0.000627
116 0.001039
120 0.000805
121 0.000921
122 0.001001
127 0.001054
137 0.001001
143 0.001997
148 0.002079
151 0.000985
153 0.0
157 0.000535
159 0.001062
152 0.0
79 0.001994
61 0.000992
67 0.000767
83 0.001963
98 0.000732
104 0.000736
114 0.0
120 0.001002
120 0.0
119 0.000948
120 0.000691
126 0.001
138 0.0
144 0.0
148 0.001
152 0.0
155 0.000677
157 0.001007
159 0.001
160 0.001246
161 0.0
163 0.0
167 0.0
160 0.001
77 0.002995
52 0.001
55 0.0
68 0.0
80 0.0
86 0.0
92 0.0
102 0.001001
108 0.0
111 0.0
113 0.0
118 0.0
129 0.0
136 0.0
142 0.001001
146 0.001001
150 0.000963
153 0.000915
155 0.0
157 0.0
159 0.000997
162 0.000998
165 0.0
153 0.0
70 0.002997
53 0.002063
60 0.0
77 0.0
84 0.0
88 0.002031
97 0.002034
110 0.0
115 0.0
117 0.0
118 0.003047
122 0.002281
136 0.003061
143 0.003028
150 0.0
153 0.0
156 0.0
158 0.002034
160 0.001996
163 0.0
164 0.000997
167 0.0
170 0.000942
169 0.002033
104 0.003216
64 0.002288
61 0.000997
75 0.0
87 0.0
93 0.001002
98 0.003092
110 0.0
117 0.0
120 0.0
121 0.001995
123 0.00196
133 0.001995
141 0.002036
147 0.002303
152 0.000954
156 0.0
159 0.0
161 0.001251
163 0.002174
164 0.000991
167 0.0
170 0.0
172 0.001991
139 0.0
83 0.001229
63 0.002001
74 0.0
91 0.0
102 0.0
106 0.001994
113 0.000997
123 0.0
124 0.0
123 0.0
124 0.002058
134 0.0
141 0.002956
148 0.002507
153 0.0
156 0.000998
158 0.0
161 0.001986
163 0.002035
149 0.000957
98 0.0
67 0.0
65 0.002229
90 0.000993
101 0.002364
108 0.002012
121 0.002028
127 0.002042
127 0.0
126 0.002996
128 0.002467
136 0.000998
143 0.0
150 0.000997
155 0.002992
161 0.001995
164 0.00222
166 0.002978
168 0.0
170 0.002014
172 0.002037
174 0.002256
175 0.002311
177 0.002035
180 0.001954
180 0.001983
157 0.003959
65 0.0
54 0.003988
65 0.002841
87 0.001958
94 0.001002
97 0.001995
104 0.002961
114 0.003006
120 0.001956
123 0.001956
124 0.001956
129 0.002636
141 0.001975
147 0.004171
152 0.00274
156 0.003471
160 0.00203
163 0.002991
165 0.001999
167 0.002995
169 0.003197
171 0.000998
174 0.001033
175 0.0
152 0.001992
94 0.000987
61 0.003847
60 0.003602
80 0.001997
94 0.0
99 0.001994
103 0.003021
113 0.004711
122 0.002981
125 0.003044
127 0.002052
133 0.002991
139 0.003012
146 0.003225
151 0.004051
158 0.00399
161 0.002987
164 0.002567
166 0.004955
168 0.004078
170 0.001955
172 0.002034
174 0.001962
178 0.002931
171 0.002928
131 0.004987
78 0.004336
62 0.003226
76 0.003024
94 0.00299
106 0.003844
111 0.003866
120 0.00196
125 0.002959
127 0.002
128 0.002959
131 0.001993
137 0.003975
143 0.005045
151 0.000997
155 0.0
158 0.001956
160 0.005018
162 0.004991
164 0.001994
165 0.003991
167 0.002986
170 0.002992
156 0.0031
106 0.005163
69 0.004985
70 0.003015
88 0.003068
105 0.003146
113 0.005066
119 0.005979
127 0.002951
128 0.002994
126 0.004004
126 0.004189
131 0.003951
138 0.003038
144 0.005887
149 0.005105
153 0.002994
156 0.002978
158 0.003989
160 0.00505
156 0.00584
102 0.003811
65 0.002992
67 0.003021
83 0.003952
97 0.003186
103 0.005043
111 0.005468
121 0.003374
121 0.002954
120 0.003929
121 0.004988
126 0.005929
134 0.003026
141 0.002975
149 0.003713
152 0.003
154 0.003026
156 0.006801
158 0.006455
160 0.004549
161 0.003989
163 0.003983
165 0.00602
167 0.005993
153 0.005917
98 0.003947
47 0.003964
54 0.00196
67 0.00391
76 0.006703
78 0.005984
86 0.0045
96 0.002992
102 0.002992
106 0.005617
108 0.006096
113 0.002994
119 0.004178
131 0.003991
135 0.003965
139 0.004982
142 0.007018
145 0.00702
148 0.00498
150 0.004999
153 0.004008
156 0.006983
158 0.007374
139 0.00399
86 0.001993
51 0.004532
59 0.001991
71 0.00295
77 0.007732
80 0.006879
92 0.004987
102 0.005004
108 0.003378
110 0.006316
112 0.006768
118 0.004315
125 0.003033
136 0.001959
141 0.003018
145 0.004613
149 0.002992
152 0.006737
154 0.007333
157 0.004887
159 0.003992
161 0.004991
165 0.007406
161 0.007729
119 0.005829
63 0.006981
62 0.00578
76 0.004059
87 0.004942
91 0.007629
96 0.007741
110 0.003023
115 0.003989
116 0.00301
117 0.007606
119 0.007975
127 0.004778
138 0.007962
144 0.003969
147 0.004971
150 0.006141
153 0.007949
156 0.00757
147 0.00399
103 0.005574
70 0.005128
65 0.007924
75 0.007905
90 0.005696
97 0.00794
112 0.003986
119 0.004985
120 0.004965
119 0.006674
121 0.007647
127 0.005671
135 0.006023
143 0.006737
150 0.008234
153 0.008142
156 0.005798
161 0.007027
163 0.00698
164 0.005985
166 0.006834
170 0.006497
172 0.007005
164 0.005984
113 0.004012
67 0.004709
58 0.007067
70 0.007704
80 0.005388
84 0.007966
97 0.006712
108 0.006715
112 0.003993
115 0.006988
118 0.005982
122 0.006025
129 0.00595
139 0.006982
145 0.006978
149 0.007016
154 0.006303
158 0.007089
160 0.006732
162 0.004986
165 0.005814
167 0.006941
170 0.006377
162 0.006007
94 0.006566
61 0.005984
57 0.005985
69 0.006793
78 0.00566
84 0.006984
92 0.006981
108 0.005986
115 0.006376
117 0.00661
119 0.006728
123 0.006279
132 0.006026
140 0.005985
146 0.00629
151 0.006095
156 0.005248
162 0.005025
165 0.005938
167 0.005942
169 0.005985
171 0.006496
174 0.006499
175 0.006447
140 0.005987
83 0.005616
59 0.004986
63 0.00585
77 0.004986
91 0.006003
95 0.005984
108 0.006026
117 0.005951
121 0.005746
122 0.005015
124 0.005006
131 0.005017
139 0.004981
146 0.005986
152 0.006013
156 0.005991
161 0.006028
163 0.005285
165 0.00544
167 0.005447
170 0.005985
173 0.004987
167 0.005019
102 0.00533
66 0.00539
63 0.005464
77 0.00399
93 0.003991
103 0.004826
111 0.004831
122 0.005019
123 0.003897
122 0.004846
123 0.004993
127 0.004961
137 0.004988
145 0.004992
151 0.00399
155 0.004945
158 0.003993
163 0.003982
163 0.004987
139 0.004254
73 0.004749
57 0.004017
64 0.004823
80 0.004685
92 0.003951
101 0.00503
111 0.003963
120 0.004032
123 0.003987
123 0.003739
126 0.004033
132 0.004988
142 0.003606
149 0.004031
155 0.003994
159 0.004804
162 0.003985
165 0.004986
167 0.003635
169 0.003795
171 0.004986
174 0.004015
176 0.004008
176 0.003765
134 0.003816
70 0.003582
45 0.003993
50 0.004659
66 0.003809
82 0.003991
86 0.003024
92 0.003
102 0.003028
114 0.002977
116 0.002827
118 0.003128
124 0.004369
132 0.004024
140 0.002723
147 0.002898
152 0.00303
158 0.003623
161 0.002725
164 0.002992
166 0.003992
169 0.003698
172 0.002807
172 0.00299
127 0.002958
68 0.002668
48 0.00399
54 0.003991
71 0.003947
87 0.003034
91 0.002991
99 0.003065
110 0.003015
118 0.002616
119 0.003978
121 0.003958
128 0.002813
136 0.002996
144 0.002407
151 0.002142
156 0.002639
161 0.003042
164 0.001998
167 0.001993
169 0.002128
157 0.001804
102 0.001904
60 0.002743
54 0.001671
74 0.001892
92 0.002001
102 0.001994
109 0.003018
119 0.001673
125 0.00181
125 0.002994
124 0.003003
131 0.002028
139 0.003035
147 0.002953
153 0.001995
160 0.001991
164 0.003034
166 0.002036
148 0.001883
92 0.00191
57 0.001997
64 0.002027
84 0.002954
109 0.001748
119 0.00166
129 0.001041
131 0.001033
126 0.001997
124 0.001986
128 0.001977
135 0.000886
144 0.001996
152 0.001993
156 0.00104
160 0.001997
165 0.001702
159 0.000944
110 0.000966
62 0.002001
53 0.000899
68 0.001995
85 0.000996
95 0.000997
102 0.000998
115 0.001005
119 0.000997
118 0.001997
119 0.002009
125 0.000968
133 0.000742
141 0.000778
148 0.001517
152 0.001994
156 0.000726
159 0.00199
159 0.000995
109 0.002113
60 0.0
46 0.0
62 0.0
74 0.000704
80 0.0
87 0.001035
102 0.00105
108 0.001014
110 0.0
111 0.000954
114 0.0
123 0.0
130 0.0
136 0.001009
144 0.000628
148 0.001231
151 0.000652
155 0.001994
156 0.00104
114 0.001096
64 0.0
46 0.0
51 0.0
62 0.0
70 0.0
74 0.001
95 0.0
104 0.0
108 0.0
109 0.000997
112 0.000999
120 0.001
128 0.0
134 0.0
140 0.0
145 0.0
149 0.003993
152 0.0
156 0.0
159 0.0
164 0.000998
167 0.0
145 0.0
72 0.0
52 0.0
56 0.0
68 0.0
76 0.000994
81 0.0
93 0.0
111 0.0
113 0.0
112 0.0
116 0.0
123 0.0
132 0.003019
139 0.003033
144 0.000958
148 0.0
151 0.000962
154 0.003034
156 0.001004
164 0.001993
166 0.002032
124 0.0
75 0.00096
59 0.000959
65 0.003028
78 0.003032
87 0.0
92 0.0
105 0.0
116 0.002041
119 0.002001
119 0.001993
122 0.001994
132 0.0
140 0.000998
147 0.0
152 0.001995
156 0.002751
161 0.0
164 0.0
167 0.0
169 0.002042
172 0.002373
177 0.0
181 0.002331
178 0.002065
110 0.0
66 0.0
58 0.0
68 0.002996
80 0.001996
87 0.0
91 0.000997
103 0.0
115 0.002242
122 0.0
123 0.001996
126 0.001001
135 0.0
143 0.000962
150 0.001029
155 0.001265
160 0.001999
165 0.0
168 0.0
170 0.0
173 0.00303
177 0.000959
180 0.002992
184 0.001996
185 0.0
156 0.000963
93 0.0
63 0.001284
64 0.001294
85 0.0
97 0.0
101 0.0
107 0.002321
126 0.0
131 0.002302
132 0.001999
133 0.000756
138 0.0
146 0.001996
153 0.001996
160 0.002946
166 0.000961
170 0.001003
173 0.0
176 0.003025
179 0.0
181 0.001995
184 0.002261
188 0.0
187 0.002037
151 0.0
89 0.002308
66 0.002403
77 0.0
98 0.001995
110 0.001961
114 0.00339
129 0.0
134 0.002736
133 0.002993
132 0.002943
134 0.000998
142 0.002012
151 0.00314
159 0.003279
165 0.001966
168 0.002038
171 0.002031
175 0.003992
173 0.001955
131 0.004015
81 0.002588
66 0.00258
80 0.001957
98 0.001968
110 0.00199
117 0.003138
128 0.003994
136 0.002966
136 0.001994
135 0.002032
140 0.002949
149 0.0
157 0.003028
164 0.003613
171 0.002114
175 0.000997
177 0.002075
179 0.003505
181 0.00391
184 0.0
185 0.002024
187 0.0
190 0.002952
192 0.001961
181 0.003034
119 0.004987
57 0.000965
56 0.00098
73 0.001993
91 0.002997
99 0.004022
104 0.00199
113 0.001988
121 0.001961
127 0.001429
129 0.000997
132 0.00411
139 0.004158
151 0.002953
159 0.001997
164 0.002028
168 0.00496
171 0.005316
174 0.002028
176 0.003022
177 0.003029
180 0.001954
183 0.003008
180 0.004984
138 0.004592
66 0.002908
56 0.001989
70 0.002455
90 0.005236
102 0.004985
108 0.00299
117 0.003031
125 0.002982
128 0.002384
128 0.002994
130 0.004982
137 0.005007
149 0.003026
156 0.003308
161 0.002993
164 0.005026
167 0.005026
171 0.002964
171 0.001961
146 0.003013
67 0.003958
62 0.00399
76 0.003973
95 0.005983
105 0.005983
114 0.002993
125 0.003755
128 0.002992
126 0.005445
125 0.00586
129 0.002197
136 0.003054
149 0.003431
155 0.00299
159 0.002952
162 0.006417
165 0.004724
167 0.002994
168 0.00399
170 0.004008
172 0.005392
174 0.005413
169 0.002952
119 0.001965
52 0.003898
55 0.002991
71 0.001994
85 0.005983
91 0.006412
98 0.002991
108 0.002048
113 0.002955
114 0.005964
115 0.005989
120 0.003988
128 0.004364
140 0.003878
146 0.002958
150 0.00241
153 0.006229
156 0.006042
159 0.003955
161 0.00402
163 0.003996
167 0.006755
167 0.006001
126 0.004041
72 0.003988
53 0.004895
65 0.002024
77 0.001994
82 0.00748
85 0.006986
100 0.003903
110 0.004505
114 0.003952
117 0.007104
119 0.006548
128 0.005147
135 0.002957
146 0.005007
151 0.00395
155 0.00397
158 0.007035
161 0.00695
164 0.002991
167 0.002959
170 0.003378
173 0.007333
168 0.007784
121 0.007049
63 0.004998
62 0.007051
83 0.002993
92 0.004985
95 0.004938
102 0.007006
114 0.006984
121 0.004993
121 0.005953
122 0.00599
126 0.007021
133 0.007858
144 0.005984
151 0.007235
155 0.002992
158 0.002991
162 0.002993
165 0.007671
142 0.007907
90 0.004992
64 0.005942
67 0.005984
86 0.007926
94 0.007934
103 0.005982
120 0.007986
124 0.005582
124 0.004016
124 0.003959
128 0.007054
135 0.0075
144 0.003024
150 0.006215
156 0.004555
161 0.006971
164 0.007246
167 0.006138
169 0.007976
171 0.005026
173 0.005674
176 0.004341
170 0.007435
119 0.007171
69 0.003024
57 0.006436
67 0.006206
85 0.007063
90 0.007711
94 0.005844
112 0.00756
118 0.00499
120 0.003989
121 0.006003
126 0.007978
133 0.007014
143 0.006981
149 0.006888
153 0.006336
156 0.00793
161 0.00671
165 0.006347
168 0.006578
170 0.006588
173 0.003952
175 0.006215
153 0.006983
94 0.006062
61 0.006176
60 0.006482
74 0.004941
88 0.007014
92 0.006375
98 0.006442
116 0.006419
121 0.00708
124 0.004988
126 0.005017
133 0.005956
142 0.005896
149 0.005984
157 0.00599
162 0.005983
164 0.006979
168 0.007209
170 0.006982
173 0.006982
175 0.00698
178 0.006844
181 0.00656
177 0.00595
115 0.00633
70 0.006255
64 0.006119
74 0.005734
94 0.006865
100 0.006227
105 0.005782
121 0.004987
125 0.0064
126 0.004986
128 0.006021
132 0.005752
140 0.006009
148 0.00591
156 0.004985
160 0.004987
163 0.006302
165 0.005819
169 0.006025
159 0.005994
108 0.005602
66 0.005065
70 0.005985
87 0.005982
102 0.005989
110 0.005481
122 0.005118
131 0.004989
132 0.005953
131 0.005986
131 0.004991
139 0.004986
147 0.004718
156 0.005161
162 0.004846
165 0.005351
168 0.004804
171 0.004982
174 0.004951
176 0.005283
177 0.00491
180 0.005987
183 0.00499
164 0.004949
101 0.004987
59 0.005984
65 0.004774
83 0.004991
97 0.004977
103 0.004549
111 0.004561
119 0.004971
124 0.003961
125 0.004017
126 0.004978
134 0.004019
141 0.003777
149 0.003954
156 0.004729
160 0.003993
164 0.003949
166 0.004549
168 0.004775
169 0.003808
172 0.003642
174 0.005023
173 0.003139
108 0.003955
63 0.003977
55 0.004837
73 0.004752
87 0.004517
94 0.003901
98 0.003759
107 0.004292
117 0.003954
121 0.003991
122 0.003951
125 0.005021
136 0.005034
144 0.004962
150 0.005019
156 0.003989
160 0.004045
163 0.00399
165 0.003994
166 0.003989
168 0.003935
171 0.003991
173 0.00299
164 0.002995
78 0.002799
57 0.00385
63 0.00396
85 0.003973
96 0.003956
100 0.003991
107 0.003959
116 0.002993
120 0.002777
120 0.002995
121 0.003029
126 0.003026
140 0.003031
146 0.003023
150 0.002967
155 0.002703
158 0.002668
161 0.003973
162 0.003239
143 0.00326
77 0.0027
60 0.002609
68 0.002941
85 0.001996
101 0.002776
109 0.002788
119 0.001876
122 0.003495
120 0.001998
120 0.003029
124 0.002991
132 0.001993
142 0.002991
148 0.00199
153 0.002991
156 0.002995
160 0.002009
161 0.002594
163 0.003464
165 0.001815
168 0.001747
170 0.001685
148 0.002532
89 0.002548
57 0.002178
61 0.002501
77 0.001945
88 0.002026
95 0.002475
105 0.002136
113 0.002994
116 0.001803
117 0.002027
121 0.001937
128 0.00203
135 0.001999
142 0.001948
150 0.002991
154 0.003019
157 0.001997
162 0.001869
164 0.001726
166 0.001843
168 0.001834
170 0.002
154 0.001992
99 0.001996
62 0.001997
57 0.002041
74 0.001046
85 0.001994
89 0.002037
101 0.001995
111 0.001965
117 0.001996
119 0.002028
123 0.001717
128 0.001022
134 0.002069
142 0.00104
149 0.001199
155 0.000995
160 0.00175
163 0.000998
166 0.000813
168 0.000735
170 0.001001
173 0.002148
171 0.001001
138 0.0
83 0.0
60 0.001981
64 0.000965
85 0.0
95 0.001993
100 0.002012
114 0.000997
120 0.000523
122 0.001755
123 0.001961
127 0.000624
133 0.0
142 0.000534
149 0.0
154 0.0
158 0.0
161 0.00101
164 0.0
165 0.000999
133 0.001043
83 0.0
65 0.001001
72 0.0
93 0.000697
104 0.001001
111 0.000997
121 0.001032
128 0.0
126 0.0
124 0.003991
130 0.0
138 0.001
147 0.000999
153 0.0
157 0.0
161 0.0
163 0.0
165 0.0
167 0.000998
168 0.0
171 0.0
174 0.0
152 0.0
92 0.0
60 0.0
60 0.0
75 0.0
94 0.004028
100 0.000996
110 0.0
116 0.0
121 0.000993
122 0.003044
123 0.002994
132 0.000999
139 0.003053
148 0.000995
152 0.0
157 0.0
161 0.002035
163 0.00203
166 0.0
167 0.0
169 0.0
172 0.00206
170 0.003028
97 0.001567
60 0.002001
59 0.0
75 0.000997
87 0.0
92 0.002965
97 0.003037
110 0.000992
117 0.0
120 0.0
122 0.002052
125 0.002143
135 0.001155
143 0.002191
151 0.0
156 0.0
160 0.0
163 0.003267
166 0.002042
168 0.002991
170 0.0
173 0.001
174 0.0
159 0.002265
75 0.001003
60 0.001193
70 0.001218
91 0.0
100 0.000998
104 0.000961
113 0.003276
121 0.002031
125 0.0
126 0.0
128 0.0
133 0.001988
145 0.000998
151 0.002
155 0.00203
159 0.0
163 0.0
166 0.0
167 0.002772
155 0.002188
90 0.0
67 0.0
71 0.001038
87 0.003264
107 0.0
115 0.001241
125 0.002046
129 0.000955
127 0.0
126 0.0
129 0.003312
135 0.003032
146 0.0
152 0.0
156 0.0
159 0.001303
162 0.0
164 0.001998
167 0.001995
158 0.000998
109 0.001019
68 0.001995
61 0.002961
73 0.003003
94 0.002007
102 0.0
109 0.0
119 0.003952
123 0.0
122 0.002992
124 0.00221
131 0.0
139 0.0
145 0.001995
151 0.003012
155 0.001994
159 0.001995
162 0.002032
164 0.002
166 0.002993
169 0.001993
170 0.003006
173 0.002919
172 0.003992
125 0.000998
71 0.00154
53 0.001995
60 0.00414
74 0.003034
86 0.0
89 0.002017
97 0.001994
112 0.0
115 0.002992
117 0.002768
120 0.00331
127 0.0
135 0.0
142 0.000997
147 0.003291
152 0.002994
156 0.003051
159 0.002967
161 0.001928
164 0.00199
167 0.001964
168 0.003719
148 0.00395
80 0.002854
60 0.002036
66 0.003002
81 0.003993
91 0.003252
98 0.0
107 0.002992
116 0.002002
124 0.002
125 0.001995
128 0.004209
133 0.004243
143 0.001995
149 0.002988
154 0.001957
158 0.004626
161 0.004247
164 0.003032
166 0.001956
168 0.002981
172 0.002007
174 0.001986
160 0.004999
108 0.004997
66 0.002987
69 0.002061
85 0.001954
100 0.004023
107 0.003716
116 0.002006
124 0.002979
126 0.002196
125 0.002021
126 0.002164
132 0.00569
140 0.005087
149 0.002239
153 0.002928
156 0.002988
159 0.005216
162 0.004349
159 0.002992
121 0.001994
77 0.001989
69 0.003961
83 0.002959
97 0.002954
105 0.005421
114 0.006117
125 0.00228
127 0.002047
126 0.002026
126 0.005014
130 0.005023
140 0.002994
147 0.003037
155 0.003303
159 0.003989
162 0.002952
164 0.004857
166 0.005224
168 0.003168
170 0.002959
171 0.002965
173 0.005264
173 0.005171
130 0.003993
73 0.00295
56 0.003024
70 0.002954
83 0.003033
89 0.005936
92 0.005718
105 0.003989
113 0.003945
117 0.002675
119 0.005251
122 0.005879
129 0.002989
136 0.002962
147 0.002984
151 0.00296
155 0.00399
158 0.006978
160 0.005956
163 0.003958
165 0.004568
167 0.00479
170 0.00676
167 0.006936
110 0.004004
67 0.003531
62 0.004242
77 0.003425
89 0.003987
94 0.006635
100 0.005991
114 0.003713
119 0.003948
122 0.004325
124 0.007042
127 0.006699
135 0.003957
143 0.003491
153 0.003593
156 0.003992
160 0.00409
162 0.00685
164 0.007527
166 0.005002
168 0.005026
171 0.004664
174 0.006817
166 0.006976
100 0.004988
65 0.005021
67 0.006989
90 0.00299
102 0.003936
107 0.004825
115 0.007438
123 0.007368
125 0.003994
124 0.004708
125 0.00468
129 0.007645
137 0.007923
147 0.004382
153 0.008039
157 0.004945
160 0.004945
163 0.005054
163 0.007387
147 0.007615
81 0.004026
61 0.00495
67 0.004419
89 0.007647
97 0.00792
108 0.005993
123 0.007588
126 0.005536
125 0.00597
124 0.005018
129 0.007977
137 0.007595
144 0.005148
150 0.004083
155 0.004561
159 0.006922
162 0.007766
164 0.005032
167 0.007985
168 0.00596
170 0.005028
172 0.005983
172 0.006912
145 0.00736
83 0.00621
53 0.00455
54 0.005513
68 0.00786
85 0.007487
90 0.005804
102 0.007587
110 0.006135
114 0.00562
115 0.005273
119 0.007206
124 0.007983
132 0.005955
139 0.005984
146 0.006248
150 0.006687
153 0.007979
157 0.005984
161 0.006894
162 0.005941
164 0.005963
167 0.005986
165 0.006976
131 0.006027
63 0.006898
50 0.006318
55 0.006606
73 0.005985
82 0.005983
87 0.005984
101 0.006984
110 0.006951
116 0.006947
118 0.00591
121 0.006429
127 0.006315
135 0.007183
144 0.006475
147 0.006145
153 0.006513
156 0.006794
159 0.006942
163 0.006991
165 0.00545
168 0.006071
171 0.006564
171 0.006221
145 0.005846
86 0.005712
55 0.006063
63 0.006787
79 0.006325
90 0.006192
95 0.0069
108 0.006971
115 0.006635
117 0.006669
118 0.006043
119 0.006113
126 0.006112
135 0.005855
145 0.005984
149 0.006588
152 0.005385
155 0.005691
158 0.004988
161 0.005871
136 0.005673
74 0.006019
61 0.00635
70 0.006093
86 0.005734
98 0.005597
108 0.005537
119 0.005812
125 0.005608
124 0.004984
123 0.005391
127 0.006008
134 0.004991
145 0.005562
151 0.005908
155 0.005406
158 0.004812
161 0.00473
164 0.00501
166 0.005905
167 0.004595
169 0.004041
171 0.005532
171 0.004026
134 0.005002
66 0.004988
55 0.003938
64 0.004962
81 0.005688
92 0.004744
97 0.003709
107 0.004084
115 0.003799
118 0.004538
119 0.003936
123 0.004985
129 0.003931
137 0.004035
146 0.003875
152 0.003605
155 0.004025
158 0.004954
161 0.003987
164 0.003986
165 0.005018
167 0.005331
170 0.003993
154 0.004034
97 0.00499
59 0.004899
57 0.004428
71 0.003717
83 0.003738
89 0.003992
94 0.003892
108 0.005029
115 0.003805
118 0.004253
119 0.003993
125 0.003996
132 0.002974
140 0.004022
149 0.004047
154 0.00368
158 0.004054
161 0.003565
163 0.002792
166 0.002835
167 0.003561
170 0.004031
172 0.00264
157 0.002952
101 0.003965
64 0.003958
62 0.003654
77 0.003991
91 0.003967
97 0.003004
101 0.002992
114 0.003024
120 0.00296
122 0.003035
123 0.002994
128 0.002598
136 0.002039
143 0.002697
151 0.002909
156 0.004049
159 0.00266
161 0.002714
163 0.00204
165 0.003006
167 0.003036
170 0.002993
171 0.002919
120 0.002994
72 0.002989
60 0.002713
77 0.002757
94 0.002996
103 0.002992
109 0.002992
118 0.002552
124 0.002063
124 0.00181
123 0.003385
125 0.001997
136 0.002992
144 0.002942
150 0.002016
155 0.002896
159 0.002996
162 0.001937
165 0.001713
157 0.002992
112 0.002035
64 0.001505
63 0.002037
78 0.001788
102 0.002083
109 0.002399
119 0.001253
127 0.001702
128 0.002216
127 0.002023
129 0.001993
135 0.003036
143 0.001962
152 0.001971
157 0.001995
161 0.001961
166 0.001995
168 0.001998
170 0.001995
172 0.001587
173 0.001612
175 0.001544
177 0.001672
175 0.001695
137 0.002041
64 0.001793
51 0.000985
62 0.001461
88 0.001996
95 0.002006
99 0.001037
108 0.000995
118 0.000999
121 0.001
123 0.0
126 0.002016
132 0.000953
142 0.001705
148 0.002038
154 0.000999
160 0.001997
163 0.0
165 0.000944
167 0.000519
170 0.001675
171 0.000754
173 0.002001
162 0.000975
110 0.000997
59 0.001961
58 0.001001
74 0.001996
96 0.00072
101 0.0
109 0.0
119 0.000686
126 0.0
128 0.0
129 0.002038
133 0.000994
140 0.0
147 0.0
154 0.001052
159 0.000552
164 0.0
167 0.001001
168 0.001006
170 0.0
172 0.000997
175 0.0
168 0.0
122 0.0
73 0.001
61 0.0
79 0.000997
97 0.000996
111 0.000974
119 0.0
128 0.0
130 0.001001
128 0.0
128 0.000713
132 0.0
139 0.0
146 0.001001
151 0.0
155 0.001
158 0.000483
163 0.0
157 0.0
117 0.0
72 0.0
59 0.0
74 0.0
90 0.0
102 0.0
111 0.0
121 0.000967
123 0.003027
122 0.000972
123 0.001946
128 0.001966
138 0.0
145 0.0
150 0.0
154 0.003038
157 0.002032
160 0.0
162 0.0
164 0.0
165 0.00403
168 0.00219
148 0.002038
91 0.0022
57 0.0
65 0.0
83 0.0
95 0.003235
99 0.003164
108 0.0
117 0.0
121 0.0
122 0.003025
122 0.001967
127 0.0
133 0.003025
139 0.002234
146 0.0
150 0.0
153 0.000998
155 0.002993
157 0.002992
160 0.0
161 0.0
147 0.0
94 0.002
51 0.0
58 0.00317
71 0.00233
82 0.0
87 0.0
98 0.0
109 0.003363
113 0.00203
115 0.0
117 0.0
123 0.0
129 0.003253
141 0.0
146 0.002261
150 0.002289
153 0.000956
155 0.0
157 0.0
159 0.002273
162 0.00232
164 0.0
136 0.000998
79 0.0
53 0.003012
65 0.000977
78 0.002989
84 0.001997
92 0.0
105 0.001995
112 0.0
114 0.003333
113 0.002196
117 0.0
123 0.0
131 0.000999
138 0.002236
145 0.0
148 0.002987
151 0.002218
156 0.0
158 0.0
141 0.0
90 0.002026
61 0.003022
63 0.0
77 0.000998
89 0.0
95 0.001995
113 0.0
119 0.002215
120 0.00232
120 0.000898
123 0.0
130 0.001967
139 0.002959
146 0.002994
151 0.004
156 0.0
160 0.0
163 0.001995
167 0.0
169 0.001999
171 0.002254
173 0.003186
176 0.00096
167 0.0
111 0.0
64 0.003227
53 0.004027
68 0.002993
81 0.002015
87 0.001952
98 0.0
109 0.002996
116 0.003944
119 0.003397
121 0.001962
125 0.002039
133 0.001964
141 0.004035
148 0.003947
155 0.0
159 0.0
162 0.001955
167 0.00299
168 0.001964
170 0.003023
172 0.002996
175 0.002004
178 0.001957
165 0.001998
108 0.004043
65 0.003941
58 0.00099
72 0.001
86 0.002994
94 0.000962
103 0.002029
114 0.004121
121 0.004204
124 0.00299
126 0.002026
130 0.002059
137 0.003981
145 0.003519
154 0.002022
159 0.001956
163 0.001992
169 0.002961
172 0.002985
174 0.004368
175 0.004179
178 0.001993
181 0.002993
182 0.000998
168 0.005032
112 0.004984
63 0.001993
65 0.002996
82 0.001995
104 0.002036
109 0.001955
118 0.00493
127 0.004996
132 0.001954
132 0.001955
134 0.00236
139 0.004293
146 0.005064
154 0.004481
161 0.001993
165 0.001995
170 0.002489
172 0.002003
173 0.001999
174 0.004987
176 0.005273
179 0.002516
179 0.002992
153 0.001994
96 0.005166
68 0.004752
77 0.002944
97 0.002425
118 0.003192
125 0.002988
134 0.003004
137 0.005027
136 0.00499
134 0.003985
137 0.002731
143 0.00299
151 0.005137
157 0.005858
163 0.002991
166 0.003057
170 0.002958
172 0.001996
162 0.002984
114 0.006072
73 0.005244
68 0.003022
85 0.002888
103 0.002991
114 0.005492
123 0.005358
135 0.003113
137 0.002979
136 0.003157
137 0.002018
142 0.003945
148 0.006221
155 0.00616
162 0.003037
165 0.002955
168 0.002992
170 0.006984
172 0.006983
174 0.002991
175 0.002953
178 0.002963
180 0.00299
179 0.002977
149 0.005978
86 0.007286
52 0.004489
60 0.002991
78 0.00399
93 0.006677
98 0.006105
105 0.003957
114 0.003953
120 0.004021
121 0.004462
124 0.003981
129 0.006017
136 0.006213
144 0.002994
149 0.002991
153 0.003998
156 0.006981
158 0.006974
160 0.006938
162 0.002994
164 0.006606
166 0.004
149 0.004032
93 0.003976
56 0.007666
51 0.007279
70 0.002957
83 0.00399
89 0.005139
94 0.007244
104 0.00638
112 0.003987
115 0.007209
118 0.004809
123 0.004955
131 0.002941
138 0.006952
144 0.006983
149 0.004986
152 0.00399
154 0.005104
156 0.007652
158 0.007842
161 0.005013
164 0.007685
139 0.005102
83 0.003955
55 0.004948
56 0.00798
71 0.00725
88 0.004944
92 0.005069
100 0.004984
112 0.00795
114 0.007582
114 0.005645
118 0.00769
124 0.00619
133 0.005862
140 0.004541
145 0.007014
148 0.007748
151 0.005342
154 0.004415
155 0.00503
121 0.007725
74 0.00734
56 0.004988
68 0.007978
87 0.005987
94 0.005986
102 0.004945
115 0.007459
118 0.007152
116 0.003953
116 0.005772
120 0.00529
131 0.007229
138 0.007824
144 0.003939
151 0.006982
154 0.006047
156 0.00593
158 0.006091
162 0.006981
165 0.006981
160 0.006288
136 0.005913
79 0.005983
51 0.007528
59 0.006429
73 0.006895
85 0.006302
91 0.006209
102 0.004986
110 0.005455
113 0.006341
115 0.005949
118 0.005987
127 0.005952
132 0.006486
139 0.005983
146 0.006771
151 0.006458
156 0.005929
158 0.006645
160 0.005951
163 0.005795
165 0.006468
168 0.006346
170 0.00598
155 0.006976
80 0.005768
53 0.005983
54 0.005983
66 0.005979
79 0.005983
82 0.005953
96 0.006475
106 0.006365
110 0.006451
113 0.006426
115 0.005956
122 0.00594
129 0.006133
137 0.005796
142 0.006416
147 0.004971
154 0.005645
157 0.0053
161 0.006375
163 0.005725
165 0.004902
168 0.005669
171 0.005513
168 0.005954
128 0.00625
74 0.005917
55 0.006262
60 0.005574
81 0.004924
87 0.005348
94 0.004709
106 0.004903
114 0.005088
117 0.005262
118 0.004987
123 0.00497
129 0.005726
137 0.005872
144 0.005624
150 0.005001
157 0.00473
160 0.005055
162 0.005027
165 0.005018
167 0.004981
170 0.004877
173 0.00499
169 0.004985
105 0.004033
67 0.005238
62 0.00399
75 0.004987
97 0.005017
102 0.003597
111 0.003827
122 0.004357
124 0.003672
123 0.004607
124 0.003763
129 0.003813
139 0.004144
147 0.005029
153 0.004989
157 0.005027
162 0.003988
165 0.003894
168 0.003992
147 0.004288
93 0.003716
65 0.004204
66 0.004251
81 0.004031
98 0.00399
105 0.003984
115 0.004987
125 0.004031
129 0.003992
128 0.003959
130 0.003984
138 0.00399
146 0.003849
154 0.00397
159 0.003943
164 0.003992
168 0.00394
171 0.003597
172 0.004033
174 0.00356
177 0.003992
179 0.002994
180 0.003019
182 0.004023
185 0.003992
180 0.00299
138 0.002805
75 0.002964
51 0.003184
63 0.003989
81 0.002532
91 0.002993
97 0.003036
107 0.002739
116 0.002745
121 0.003945
123 0.00393
127 0.002929
132 0.002997
140 0.003
150 0.00299
155 0.002963
160 0.003002
163 0.002491
167 0.002669
170 0.002635
171 0.002958
173 0.001916
176 0.002992
178 0.002549
169 0.002636
118 0.001884
68 0.001693
57 0.002551
72 0.002996
89 0.002943
101 0.001996
108 0.002989
119 0.001993
126 0.002995
130 0.001969
132 0.001892
135 0.001557
141 0.001567
149 0.001995
157 0.003285
161 0.001995
165 0.001997
170 0.001995
172 0.001938
173 0.001998
174 0.001995
177 0.002039
179 0.001501
174 0.002022
133 0.002027
78 0.001994
63 0.001963
78 0.002021
97 0.001996
112 0.00202
118 0.002004
127 0.001972
129 0.001963
128 0.001783
128 0.002121
132 0.001961
138 0.001859
146 0.001884
153 0.000998
156 0.002028
159 0.001996
163 0.002996
163 0.001001
145 0.000979
92 0.001995
60 0.002027
67 0.001961
86 0.000996
100 0.001977
108 0.001942
121 0.001933
127 0.000996
126 0.002034
123 0.001033
126 0.001
133 0.0009
141 0.000782
149 0.0
154 0.000663
157 0.0
159 0.00165
161 0.000817
163 0.001963
164 0.001099
166 0.001032
163 0.001003
120 0.001042
65 0.000729
48 0.000588
55 0.0
75 0.00096
83 0.0
87 0.001
95 0.0
105 0.0
109 0.001
110 0.000556
115 0.0
122 0.0
129 0.0
136 0.0
141 0.0
146 0.001005
148 0.0
150 0.0
153 0.0
156 0.0
153 0.001001
117 0.001014
50 0.0
48 0.0
59 0.0
69 0.0
73 0.0
81 0.0
93 0.0
101 0.0
104 0.001001
106 0.0
110 0.0
116 0.0
127 0.0
132 0.004023
137 0.0
141 0.0
145 0.0
148 0.004024
150 0.002995
153 0.0
157 0.000998
150 0.0
105 0.0
61 0.001998
52 0.003035
62 0.002044
71 0.0
74 0.001006
84 0.0
97 0.002039
105 0.004989
108 0.0
110 0.00096
115 0.0
122 0.00404
131 0.0
140 0.00302
145 0.002951
150 0.0
153 0.0
156 0.000967
158 0.002008
160 0.001981
162 0.002038
166 0.0
170 0.0
172 0.0
161 0.002236
72 0.000954
55 0.002237
62 0.002995
79 0.0
85 0.0
88 0.000999
98 0.003001
109 0.002994
113 0.0
113 0.000959
115 0.0
120 0.002991
134 0.0
140 0.0021
144 0.001999
148 0.0
151 0.0
156 0.0
158 0.002246
139 0.002357
79 0.0
62 0.0
67 0.0
81 0.001995
94 0.0
102 0.002244
114 0.002028
121 0.0
120 0.0
120 0.0
124 0.002026
131 0.004063
141 0.00099
148 0.0
153 0.0
157 0.003032
162 0.0
165 0.002188
167 0.002138
170 0.000997
172 0.0
175 0.0
178 0.002201
177 0.002182
119 0.0
68 0.0
55 0.0
62 0.003275
81 0.0
83 0.00328
88 0.002281
105 0.000968
113 0.000947
117 0.0
118 0.002504
121 0.002959
129 0.0
138 0.000996
144 0.001006
150 0.003195
157 0.000998
161 0.001996
164 0.002995
167 0.0
169 0.0
172 0.000997
175 0.002027
175 0.003029
130 0.000969
76 0.0
56 0.0
61 0.002992
79 0.001995
82 0.0
86 0.002223
98 0.003179
113 0.0
118 0.0
120 0.0
122 0.002995
128 0.003923
137 0.000997
145 0.002949
151 0.001987
158 0.0
162 0.0
165 0.003227
168 0.003221
171 0.001994
174 0.003023
177 0.003026
180 0.002994
169 0.003257
94 0.002977
61 0.0
60 0.000999
82 0.00295
90 0.002985
94 0.003986
103 0.003953
118 0.002992
124 0.002991
126 0.001998
126 0.003989
130 0.004021
139 0.001968
147 0.002863
153 0.001958
162 0.0
165 0.002995
168 0.004005
170 0.003332
172 0.00295
174 0.0
177 0.002183
179 0.004271
165 0.003744
88 0.001056
62 0.001986
64 0.002036
92 0.00199
101 0.002992
106 0.005364
116 0.003887
125 0.00299
125 0.0
124 0.002964
125 0.00478
131 0.00499
143 0.001995
150 0.002995
155 0.002984
160 0.002992
165 0.0
168 0.004692
165 0.004691
106 0.002814
67 0.002996
60 0.002998
72 0.004859
89 0.004527
99 0.004987
109 0.003577
121 0.002993
128 0.002984
127 0.002892
128 0.00299
132 0.005502
140 0.005172
151 0.001982
158 0.002994
163 0.001
166 0.005532
170 0.003993
173 0.002992
175 0.001945
177 0.003138
179 0.00304
182 0.002992
182 0.00544
158 0.006173
73 0.002028
50 0.002796
55 0.002799
72 0.006489
85 0.005951
91 0.002916
97 0.002938
115 0.002993
119 0.002992
120 0.00396
123 0.005994
128 0.005151
138 0.003989
146 0.002975
152 0.002991
157 0.005942
161 0.005985
165 0.002222
167 0.002995
170 0.002992
173 0.002981
175 0.001992
172 0.005792
130 0.005466
60 0.002993
49 0.002926
60 0.003021
75 0.005985
85 0.005989
91 0.002985
101 0.002923
117 0.003985
120 0.004117
122 0.003678
125 0.00602
131 0.006038
141 0.002995
149 0.003084
154 0.00402
158 0.006861
162 0.006175
165 0.003928
166 0.002786
170 0.002992
173 0.002952
174 0.002999
143 0.006631
81 0.006167
52 0.003024
61 0.003006
78 0.000999
89 0.006968
94 0.006957
101 0.006888
114 0.00203
117 0.007977
117 0.00403
120 0.00395
126 0.004005
134 0.006982
142 0.007049
148 0.003984
151 0.004041
156 0.00216
160 0.007901
156 0.006873
96 0.00399
55 0.007423
61 0.004971
76 0.003934
87 0.004411
94 0.006936
104 0.00564
116 0.002923
117 0.003027
116 0.000995
116 0.006471
121 0.007066
132 0.003911
144 0.007726
149 0.004697
153 0.004794
156 0.002959
159 0.007659
161 0.006825
164 0.00499
167 0.004016
171 0.002992
163 0.006981
108 0.006982
51 0.004986
55 0.00798
67 0.005942
75 0.005025
78 0.005308
86 0.006981
99 0.006942
107 0.002991
110 0.002992
111 0.00399
118 0.007832
125 0.007019
133 0.003997
143 0.006829
148 0.006186
152 0.005983
155 0.005852
158 0.00796
162 0.007791
165 0.00404
162 0.000998
121 0.003005
59 0.007424
51 0.007763
59 0.003987
74 0.007051
77 0.005789
85 0.004427
99 0.005989
109 0.007983
113 0.007974
115 0.006575
118 0.006044
125 0.005993
133 0.006896
141 0.006361
147 0.007093
154 0.006435
158 0.00619
161 0.006259
163 0.006203
166 0.004949
172 0.006587
172 0.007068
140 0.005983
82 0.005024
57 0.00495
63 0.00593
76 0.006437
85 0.006959
92 0.006954
108 0.0063
114 0.005961
116 0.004986
116 0.007144
119 0.005962
126 0.004973
138 0.006035
143 0.00571
149 0.006949
153 0.005981
156 0.006979
158 0.005972
161 0.005845
168 0.006217
170 0.003943
145 0.005984
91 0.006021
61 0.006082
64 0.004987
82 0.004983
92 0.005172
97 0.005737
115 0.00576
122 0.006366
123 0.005809
122 0.004985
126 0.00621
133 0.005677
141 0.005672
151 0.005491
154 0.004985
160 0.004953
163 0.004986
166 0.005031
170 0.004587
172 0.004549
179 0.00585
181 0.004956
162 0.005439
101 0.004988
64 0.005
64 0.004961
77 0.005592
88 0.00567
91 0.00555
97 0.005121
117 0.00499
123 0.004981
125 0.005171
126 0.004989
132 0.005373
139 0.005845
147 0.004705
154 0.004989
161 0.003988
164 0.005022
168 0.004953
171 0.00499
175 0.003992
176 0.004992
179 0.005027
183 0.004344
184 0.005021
155 0.004979
92 0.004497
60 0.005122
64 0.003553
79 0.004572
89 0.004756
93 0.003991
108 0.004016
119 0.004994
125 0.003821
127 0.005027
130 0.004987
135 0.003635
143 0.003991
151 0.004052
160 0.004217
165 0.003981
169 0.003861
172 0.003696
176 0.00381
178 0.003062
180 0.003964
183 0.004201
186 0.004186
186 0.003708
152 0.004035
87 0.00396
59 0.003985
69 0.003519
88 0.004043
101 0.00374
109 0.003024
120 0.004639
127 0.002992
129 0.003989
128 0.003916
130 0.002808
136 0.003989
145 0.003844
155 0.00399
160 0.003065
163 0.003269
165 0.002865
172 0.002745
169 0.002681
131 0.002827
69 0.003006
61 0.003991
74 0.002991
93 0.002992
105 0.003989
115 0.002985
127 0.002996
132 0.002993
131 0.002989
129 0.003987
134 0.002995
142 0.002993
154 0.002991
161 0.002993
166 0.002994
170 0.003027
173 0.002823
175 0.00275
178 0.002993
179 0.002992
181 0.002959
185 0.002581
187 0.002031
178 0.002996
118 0.001999
53 0.002032
50 0.003029
66 0.002589
85 0.00187
95 0.001963
100 0.002072
110 0.001996
119 0.001614
122 0.002049
124 0.001538
127 0.002993
134 0.002994
146 0.001617
154 0.001997
159 0.001995
164 0.002033
167 0.002006
170 0.002994
172 0.001996
174 0.002
178 0.001655
180 0.001994
167 0.001955
106 0.00178
51 0.001763
52 0.001661
69 0.002034
86 0.002046
95 0.001656
102 0.00181
113 0.000999
120 0.001685
124 0.001158
126 0.001171
130 0.002
138 0.002035
149 0.002036
156 0.002995
161 0.00155
165 0.001867
168 0.001569
172 0.000997
173 0.00103
175 0.00199
179 0.001996
180 0.001994
166 0.001992
103 0.001611
53 0.001997
57 0.001996
76 0.001542
95 0.001994
103 0.001994
111 0.001994
120 0.001996
124 0.001995
123 0.001995
124 0.001995
130 0.002269
139 0.001992
147 0.000998
156 0.001994
159 0.001667
162 0.001608
164 0.000602
167 0.000875
162 0.0
115 0.000677
55 0.0
61 0.000718
81 0.000565
97 0.000582
105 0.0
117 0.001028
124 0.000999
124 0.000991
121 0.000969
121 0.000998
128 0.00099
137 0.0
150 0.0
155 0.0
158 0.0
161 0.0
163 0.0
166 0.0
167 0.0
169 0.0
173 0.001
173 0.001
118 0.0
62 0.0
52 0.0
70 0.0
86 0.0
92 0.0
97 0.0
110 0.0
115 0.0
116 0.0
117 0.0
120 0.0
129 0.000964
137 0.003025
149 0.003064
153 0.0
156 0.0
159 0.001
161 0.000968
163 0.002027
166 0.002045
170 0.0
157 0.0
99 0.0
54 0.002038
45 0.002
67 0.002995
78 0.00303
84 0.0
92 0.000957
104 0.000949
111 0.002043
114 0.002296
116 0.0
121 0.0
129 0.0
138 0.0
145 0.002994
155 0.0
159 0.003003
163 0.003037
166 0.000995
168 0.000997
171 0.0
173 0.002318
171 0.002036
107 0.0
60 0.0
51 0.0
62 0.0022
87 0.0
92 0.002993
99 0.002956
114 0.0
119 0.000998
120 0.0
121 0.004033
123 0.003025
133 0.0
142 0.000996
149 0.000999
154 0.002327
159 0.0
162 0.004333
164 0.00221
168 0.0
171 0.00101
158 0.000997
99 0.001992
61 0.002973
61 0.000996
78 0.0
94 0.000967
103 0.0022
118 0.0
125 0.003024
125 0.005035
123 0.0
125 0.0
131 0.0
139 0.002997
148 0.002992
155 0.000957
159 0.0
163 0.0
166 0.002992
167 0.0
132 0.002192
78 0.001996
58 0.0
68 0.0
86 0.000956
98 0.002328
