152 0.024936
152 0.006979
146 0.006937
100 0.006981
61 0.006949
49 0.00698
59 0.00798
76 0.006953
91 0.006989
97 0.006977
102 0.007979
104 0.007978
100 0.00794
104 0.007961
110 0.006979
118 0.006982
125 0.006969
131 0.00698
132 0.007979
139 0.006972
146 0.007979
149 0.007961
122 0.006947
73 0.007027
38 0.006982
37 0.006974
50 0.00695
57 0.007979
69 0.007946
82 0.007985
85 0.007979
88 0.007978
80 0.007921
80 0.006991
86 0.007013
88 0.007939
97 0.007014
104 0.006981
107 0.006981
116 0.007012
121 0.007027
122 0.00701
123 0.007025
92 0.007015
24 0.007029
15 0.008023
27 0.007014
43 0.00702
53 0.006982
58 0.006981
64 0.007031
66 0.006981
59 0.006982
59 0.006018
65 0.007016
71 0.005987
81 0.006014
89 0.005984
96 0.006981
103 0.00704
111 0.005985
117 0.006026
117 0.006985
124 0.006981
98 0.007027
47 0.006981
16 0.006017
10 0.006019
33 0.005984
42 0.006015
54 0.005952
62 0.005958
63 0.005984
60 0.006025
60 0.006041
66 0.005986
71 0.006026
80 0.006021
88 0.005032
89 0.005031
102 0.004986
110 0.005933
116 0.004984
120 0.005984
129 0.005985
135 0.005984
96 0.005984
52 0.004971
31 0.005983
40 0.004986
55 0.005998
68 0.004986
83 0.005984
84 0.005985
82 0.005968
78 0.005952
81 0.004944
88 0.004986
98 0.004987
105 0.004982
117 0.004988
125 0.00499
131 0.004954
136 0.004988
143 0.005018
144 0.004926
150 0.004978
108 0.004986
60 0.004955
37 0.00502
36 0.004021
48 0.004987
67 0.005041
71 0.005005
77 0.004988
83 0.00496
77 0.004999
79 0.005002
85 0.005017
94 0.004987
103 0.004985
109 0.004011
114 0.003989
116 0.004038
124 0.004043
130 0.004045
136 0.003023
138 0.002982
138 0.00499
99 0.00502
49 0.005024
20 0.004987
25 0.00399
40 0.004035
50 0.00399
55 0.003958
66 0.004024
66 0.004021
64 0.004022
62 0.003991
69 0.003959
74 0.004
81 0.005029
91 0.00399
100 0.003991
106 0.003023
115 0.002979
121 0.002973
126 0.002952
131 0.003989
138 0.003988
135 0.00403
55 0.00399
19 0.003983
12 0.003975
23 0.003962
40 0.00396
48 0.00302
57 0.002993
66 0.003007
67 0.002994
64 0.002992
68 0.00399
73 0.002992
86 0.002992
93 0.002999
101 0.002992
108 0.002992
123 0.003991
130 0.003981
136 0.003961
139 0.003045
146 0.003003
140 0.003991
90 0.002993
44 0.002994
33 0.002993
48 0.002994
63 0.002958
72 0.003008
85 0.003988
88 0.001996
85 0.001997
81 0.002993
85 0.001996
94 0.002994
103 0.002994
113 0.003028
123 0.002992
130 0.001994
135 0.002951
141 0.001996
150 0.001996
151 0.002033
161 0.002027
150 0.002031
99 0.002058
40 0.001997
27 0.002028
32 0.001995
51 0.00193
60 0.000997
64 0.002993
68 0.000998
69 0.00202
69 0.00197
71 0.002004
80 0.001999
89 0.00202
99 0.002033
109 0.001996
116 0.001941
125 0.001948
129 0.001995
137 0.001963
141 0.000998
152 0.000999
141 0.000999
88 0.00103
41 0.001009
24 0.000999
28 0.001996
45 0.000999
52 0.00196
64 0.001995
68 0.001965
68 0.001939
70 0.001003
73 0.000998
77 0.000999
86 0.000965
95 0.000997
100 0.001037
105 0.000999
121 0.001069
128 0.000998
140 0.000997
147 0.000988
156 0.000998
140 0.0
87 0.0
32 0.000997
28 0.0
38 0.0
51 0.0
60 0.0
70 0.0
76 0.0
77 0.0
78 0.0
85 0.0
92 0.0
102 0.0
114 0.000998
118 0.000997
124 0.0
132 0.0
139 0.0
145 0.0
149 0.0
87 0.0
45 0.0
31 0.0
39 0.0
53 0.0
66 0.0
74 0.000968
80 0.000967
82 0.0
78 0.0
79 0.000966
86 0.00097
94 0.0
107 0.0
113 0.0
120 0.0
127 0.000996
138 0.0
143 0.00097
148 0.000964
153 0.0
136 0.000961
66 0.0
27 0.000966
23 0.0
37 0.0
46 0.000952
53 0.0
60 0.0
68 0.0
68 0.000997
66 0.000999
71 0.0
80 0.0
90 0.0
96 0.000978
110 0.0
116 0.000964
122 0.000966
133 0.000999
147 0.000998
154 0.000997
126 0.000968
72 0.001977
25 0.000991
21 0.000999
33 0.001006
52 0.000981
73 0.000999
84 0.000997
89 0.001032
88 0.0
87 0.000999
91 0.000998
100 0.00204
107 0.001999
120 0.000999
130 0.000999
138 0.000997
143 0.001035
153 0.000998
168 0.000958
160 0.001029
111 0.002024
58 0.000982
49 0.002006
57 0.002021
79 0.002993
91 0.002998
103 0.000999
108 0.000941
110 0.001993
106 0.000998
109 0.001041
118 0.001995
129 0.001994
144 0.000989
150 0.00204
158 0.002046
165 0.001995
170 0.001995
177 0.002047
182 0.002992
185 0.001992
173 0.001042
119 0.000987
66 0.001963
40 0.003026
46 0.002036
58 0.002047
65 0.002021
73 0.002992
80 0.002992
86 0.001946
88 0.002028
91 0.002992
102 0.002043
112 0.003022
123 0.00399
130 0.003037
136 0.003052
142 0.003047
147 0.003045
157 0.00299
161 0.002992
169 0.002039
159 0.002013
107 0.002991
40 0.002051
39 0.002055
51 0.003038
65 0.003996
75 0.003021
86 0.003051
92 0.003035
94 0.00399
97 0.004015
101 0.002982
104 0.004028
115 0.002983
133 0.002057
141 0.003022
150 0.002992
154 0.00399
158 0.003026
169 0.002978
180 0.003044
160 0.004034
106 0.00399
66 0.004026
57 0.003994
70 0.00399
96 0.003038
105 0.003036
115 0.003032
117 0.004989
118 0.004954
120 0.003989
123 0.004021
131 0.004015
141 0.003989
150 0.003991
161 0.003027
166 0.003035
176 0.003041
180 0.00299
188 0.003986
189 0.005018
153 0.004987
79 0.003989
54 0.00398
54 0.003988
67 0.005033
82 0.005614
95 0.004012
103 0.004015
107 0.003993
106 0.004027
105 0.00402
107 0.004986
116 0.004991
130 0.004056
138 0.005014
146 0.005014
152 0.00595
159 0.005991
170 0.00502
174 0.00502
174 0.00502
138 0.00502
82 0.004991
45 0.004987
50 0.00503
67 0.004031
75 0.005042
84 0.004002
94 0.004987
99 0.005994
99 0.004985
97 0.005007
104 0.004983
111 0.005019
122 0.004993
133 0.005984
142 0.005992
152 0.005033
159 0.005029
162 0.005021
173 0.00502
165 0.005984
115 0.005997
64 0.006023
46 0.005995
61 0.006035
78 0.006015
95 0.005
109 0.006027
119 0.005984
117 0.005009
114 0.006037
116 0.005984
126 0.006986
136 0.006982
148 0.006018
159 0.006981
164 0.006018
167 0.006019
177 0.006043
172 0.006027
122 0.006968
71 0.005031
64 0.007013
71 0.007009
94 0.007014
110 0.006984
126 0.006009
132 0.006951
128 0.006025
130 0.006015
134 0.00606
141 0.006985
149 0.007978
154 0.007005
155 0.007016
165 0.007016
177 0.006935
182 0.007979
183 0.007032
130 0.007944
79 0.00699
51 0.006991
52 0.006983
65 0.00694
73 0.006985
84 0.006053
88 0.006928
86 0.006961
83 0.00798
83 0.007929
90 0.006946
102 0.007936
117 0.006988
122 0.006968
130 0.00703
137 0.006937
146 0.007953
154 0.007016
131 0.007014
77 0.00697
36 0.007928
22 0.007979
31 0.007978
49 0.007923
58 0.007929
68 0.006916
74 0.006951
80 0.006976
78 0.00701
81 0.007978
95 0.007015
110 0.007028
123 0.007012
131 0.007027
134 0.00704
135 0.007011
140 0.007015
126 0.006984
73 0.006976
30 0.006981
24 0.008026
31 0.007981
56 0.00701
67 0.007014
80 0.007012
87 0.007027
86 0.006934
86 0.006981
92 0.006986
103 0.006988
111 0.007018
120 0.006973
130 0.006984
139 0.007028
148 0.007014
158 0.006986
156 0.006977
115 0.007033
69 0.006011
46 0.006982
58 0.007031
71 0.007016
82 0.007014
93 0.007017
99 0.007016
97 0.006032
95 0.006015
101 0.006012
109 0.006016
116 0.006017
125 0.006017
138 0.006066
143 0.006015
152 0.006016
157 0.006034
167 0.006018
168 0.005983
171 0.006015
148 0.007016
87 0.007032
38 0.007022
24 0.006013
35 0.006029
51 0.005979
52 0.00602
57 0.00603
67 0.005983
70 0.006017
70 0.006014
72 0.005035
78 0.005017
89 0.005985
98 0.005016
104 0.00504
110 0.004996
124 0.006014
133 0.006001
138 0.005984
146 0.005977
150 0.006012
153 0.006027
122 0.004986
66 0.005034
19 0.005021
19 0.004988
33 0.004986
43 0.005006
52 0.005019
60 0.00499
68 0.00502
75 0.004985
74 0.004987
80 0.004982
88 0.005022
93 0.004025
104 0.005026
114 0.004034
121 0.004026
126 0.004034
138 0.003989
144 0.005052
151 0.005019
163 0.005108
151 0.004987
96 0.004987
48 0.005003
35 0.004988
51 0.004986
67 0.004988
77 0.004042
86 0.004028
96 0.004032
92 0.003994
88 0.004031
93 0.003989
102 0.003991
118 0.00399
123 0.004042
122 0.004026
132 0.004987
143 0.002993
149 0.003989
155 0.002992
162 0.00402
167 0.00399
171 0.004036
140 0.004023
63 0.004043
28 0.003989
25 0.00399
38 0.004028
52 0.003989
58 0.002949
68 0.00399
77 0.002992
79 0.003023
78 0.004035
84 0.002944
90 0.002993
103 0.002992
114 0.003993
124 0.003039
131 0.003991
139 0.003041
147 0.002991
153 0.003949
158 0.004002
169 0.003933
176 0.002992
182 0.002965
184 0.002992
115 0.002992
56 0.00293
30 0.002993
36 0.002996
50 0.003034
61 0.003957
66 0.003026
74 0.002023
84 0.002992
83 0.003026
82 0.002992
82 0.001991
101 0.002992
114 0.003006
124 0.003034
134 0.002981
141 0.002022
148 0.002993
154 0.002023
161 0.002021
174 0.001995
183 0.001969
192 0.001995
196 0.002022
133 0.001996
75 0.001997
51 0.001952
58 0.001997
75 0.001997
94 0.000997
107 0.001994
116 0.00303
122 0.001995
118 0.002017
119 0.001995
123 0.001987
133 0.001964
147 0.002
157 0.002001
165 0.001968
172 0.002045
179 0.001996
185 0.001945
191 0.002078
203 0.001994
192 0.002001
135 0.000998
85 0.000999
68 0.001038
82 0.00103
97 0.001052
111 0.001995
119 0.002031
128 0.001995
132 0.002024
128 0.002041
127 0.000997
133 0.001994
142 0.001962
153 0.001996
162 0.000999
172 0.000884
180 0.001003
184 0.000998
190 0.001003
195 0.000998
201 0.001998
205 0.000999
189 0.000999
122 0.000997
69 0.000998
54 0.0
62 0.001996
81 0.001005
90 0.0
96 0.0
104 0.001064
109 0.000997
108 0.00103
106 0.0
113 0.000997
121 0.001001
131 0.000998
142 0.0
150 0.0
159 0.0
167 0.0
177 0.0
187 0.0
194 0.0
202 0.0
211 0.000988
156 0.000995
90 0.0
57 0.000997
58 0.0
76 0.0
92 0.0
111 0.0
128 0.0
136 0.0
140 0.0
137 0.0
134 0.0
142 0.0
158 0.0
172 0.0
184 0.0
191 0.000997
196 0.000998
205 0.000997
211 0.000997
219 0.000995
158 0.000997
239 0.000997
215 0.001043
111 0.0
88 0.000926
93 0.001059
116 0.0
132 0.0
143 0.0
148 0.000999
153 0.000997
147 0.0
140 0.0
141 0.0
148 0.001997
162 0.000994
172 0.000998
184 0.002001
198 0.0
206 0.0
209 0.0
211 0.001004
220 0.00101
216 0.0
158 0.000959
107 0.000982
87 0.000961
89 0.000997
101 0.000996
110 0.001996
124 0.000997
132 0.000999
130 0.000997
125 0.002045
123 0.001995
124 0.00106
131 0.000997
141 0.0
150 0.001995
161 0.000997
165 0.00203
173 0.001995
180 0.000997
184 0.001007
184 0.000996
141 0.000997
73 0.001995
34 0.001997
32 0.001994
45 0.000999
52 0.001997
59 0.000997
64 0.001995
75 0.00302
81 0.003026
77 0.001996
78 0.001995
88 0.001034
97 0.001981
104 0.001995
117 0.002037
124 0.00101
131 0.002028
146 0.001999
154 0.001001
162 0.003044
159 0.018949
137 0.001011
10 0.001982
17 0.002941
34 0.003014
42 0.001951
46 0.002001
61 0.001992
76 0.001973
75 0.002041
76 0.002998
83 0.003014
98 0.001991
107 0.002049
113 0.002026
117 0.003038
118 0.00399
121 0.002035
136 0.002993
151 0.002967
128 0.002996
65 0.00301
23 0.003989
13 0.00399
30 0.003039
41 0.002044
48 0.002992
60 0.003021
71 0.002992
75 0.002984
72 0.002961
75 0.003044
86 0.002984
95 0.003038
104 0.00404
115 0.00399
125 0.003989
135 0.003058
144 0.003042
156 0.003063
160 0.00402
118 0.004987
40 0.00399
15 0.004037
32 0.003024
48 0.00298
65 0.002953
77 0.004044
87 0.004024
85 0.003042
81 0.002957
83 0.003989
93 0.00399
102 0.004987
116 0.004052
124 0.002975
138 0.003978
143 0.003985
152 0.003989
154 0.004028
111 0.004051
38 0.004022
17 0.003977
25 0.00397
42 0.005016
61 0.00502
81 0.004033
89 0.003989
84 0.004024
79 0.003959
83 0.003974
90 0.004992
98 0.004987
114 0.004018
123 0.003976
131 0.004039
140 0.004987
148 0.006025
153 0.005036
120 0.004973
25 0.004996
7 0.004954
11 0.003986
26 0.004934
38 0.004991
50 0.004017
60 0.004023
64 0.004024
61 0.005985
61 0.006015
69 0.004982
79 0.005039
96 0.005022
106 0.005045
114 0.00504
124 0.005984
133 0.005986
141 0.006059
143 0.005985
92 0.005018
27 0.005986
0 0.006983
1 0.005994
26 0.004981
42 0.005988
58 0.005031
66 0.005016
66 0.004929
64 0.005985
62 0.005984
73 0.004969
85 0.005067
96 0.005989
107 0.007014
118 0.006029
132 0.005018
147 0.006983
164 0.006024
174 0.006031
145 0.006028
74 0.007026
25 0.007009
15 0.006022
29 0.005017
49 0.005954
65 0.006053
81 0.006981
95 0.005933
92 0.005967
92 0.00599
98 0.006012
110 0.006013
119 0.006981
129 0.006981
137 0.006036
146 0.006038
152 0.006047
159 0.006994
172 0.007979
148 0.005984
64 0.007931
22 0.006984
31 0.00703
52 0.007033
70 0.007979
84 0.007014
97 0.007014
97 0.005976
92 0.005965
92 0.00798
97 0.007038
111 0.007006
127 0.007944
141 0.007033
146 0.007026
152 0.006998
160 0.007979
167 0.007979
174 0.007979
182 0.006988
134 0.006953
61 0.007022
13 0.007009
18 0.007004
39 0.007979
55 0.007974
72 0.006981
79 0.006987
82 0.006983
78 0.007979
78 0.007931
87 0.007003
98 0.007044
109 0.007015
119 0.007015
129 0.007015
145 0.007024
154 0.007014
165 0.007026
174 0.007014
178 0.007972
126 0.006983
78 0.007978
9 0.006981
11 0.007078
31 0.006988
48 0.00701
55 0.007049
75 0.007012
77 0.007009
76 0.007024
78 0.007052
84 0.007015
97 0.00704
108 0.007031
120 0.007002
131 0.006958
140 0.007015
150 0.006033
158 0.006983
172 0.006017
175 0.005984
98 0.005981
36 0.006031
14 0.006016
23 0.005981
43 0.005961
68 0.006033
84 0.007029
96 0.006985
102 0.006979
101 0.006984
98 0.006031
103 0.007024
119 0.006009
134 0.006017
148 0.006023
159 0.005989
168 0.006015
179 0.00603
192 0.005985
200 0.006034
164 0.005043
96 0.005034
44 0.006017
54 0.005021
74 0.005036
103 0.005987
127 0.005038
145 0.004988
148 0.004988
143 0.005018
138 0.005021
142 0.006031
153 0.006027
165 0.004988
189 0.00503
200 0.005019
208 0.006018
222 0.005049
231 0.004995
225 0.005008
168 0.005018
111 0.005027
80 0.004987
80 0.005018
92 0.00502
108 0.005019
142 0.004989
153 0.00499
157 0.005021
139 0.004931
129 0.005021
114 0.005065
117 0.005019
139 0.00402
165 0.004923
177 0.003992
189 0.004983
199 0.004964
153 0.005023
80 0.005002
32 0.005019
18 0.005019
31 0.004989
48 0.003949
60 0.004958
67 0.003988
82 0.004019
93 0.00399
101 0.003992
108 0.004097
129 0.003991
145 0.003989
160 0.003991
171 0.004964
177 0.004015
185 0.00399
202 0.003995
210 0.004017
192 0.00399
113 0.004016
50 0.004034
18 0.004007
8 0.004037
19 0.00399
31 0.004027
36 0.004027
48 0.003981
64 0.003992
76 0.004026
83 0.004016
79 0.003038
90 0.002997
110 0.002994
123 0.003018
138 0.003989
156 0.004067
159 0.002995
168 0.003991
181 0.003956
188 0.001994
178 0.002993
113 0.003996
36 0.003949
0 0.002996
0 0.002944
7 0.002992
29 0.002994
41 0.002994
54 0.002994
67 0.002947
80 0.003026
75 0.003051
71 0.003028
79 0.002994
93 0.003025
108 0.002045
121 0.002034
135 0.002013
145 0.001996
154 0.001964
164 0.002027
173 0.001995
187 0.002994
201 0.001987
209 0.001994
165 0.001997
87 0.002995
26 0.002936
22 0.002994
36 0.002997
55 0.00303
62 0.003018
73 0.002029
82 0.002027
83 0.001996
84 0.002005
92 0.002003
100 0.001996
111 0.002025
120 0.002051
134 0.001997
143 0.001989
158 0.001996
168 0.001033
177 0.000999
186 0.000999
197 0.000999
210 0.002006
176 0.00204
102 0.001995
49 0.00203
38 0.001996
58 0.001996
76 0.000997
98 0.001032
108 0.001055
113 0.000991
108 0.001001
105 0.000959
112 0.001951
118 0.000998
131 0.001996
146 0.000998
159 0.001965
171 0.001001
181 0.000998
193 0.001998
201 0.000996
207 0.002002
171 0.00201
101 0.001012
48 0.000998
50 0.000997
70 0.001004
88 0.000998
104 0.002004
120 0.002001
127 0.000964
120 0.000993
121 0.0
130 0.0
139 0.0
152 0.000998
164 0.000998
167 0.000997
175 0.000998
185 0.000999
193 0.00099
201 0.000998
208 0.0
188 0.0
115 0.0
55 0.0
35 0.0
48 0.0
75 0.0
86 0.0
97 0.0
107 0.0
114 0.000999
112 0.0
110 0.0
116 0.001001
130 0.000998
142 0.001001
150 0.0
158 0.0
166 0.0
174 0.0
181 0.001048
192 0.0
200 0.0
206 0.0
183 0.0
88 0.001008
37 0.000985
42 0.000998
63 0.000998
83 0.000998
89 0.000996
100 0.001
110 0.000998
121 0.00099
116 0.0
120 0.0
128 0.000998
147 0.0
155 0.001961
164 0.001988
173 0.0
179 0.0
185 0.000997
195 0.001996
200 0.002005
218 0.0
200 0.0
128 0.0
65 0.000979
51 0.0
71 0.000994
90 0.001039
109 0.000946
121 0.000995
125 0.000994
126 0.002002
123 0.002045
124 0.002032
132 0.002006
144 0.001007
154 0.001996
170 0.001004
176 0.001995
179 0.001995
185 0.001013
189 0.001043
199 0.002037
185 0.001996
119 0.001996
58 0.001042
40 0.000999
62 0.000988
88 0.000949
114 0.000999
124 0.000991
126 0.001996
120 0.001997
114 0.000997
117 0.001046
127 0.002047
134 0.005985
153 0.002992
165 0.001035
171 0.000997
173 0.000999
184 0.000968
186 0.001022
194 0.002001
187 0.001995
95 0.001987
43 0.000981
30 0.002021
46 0.002996
69 0.002994
87 0.002066
96 0.001995
104 0.002031
98 0.00198
94 0.001998
97 0.002995
106 0.003968
120 0.001046
130 0.002034
138 0.001003
145 0.004004
151 0.002988
163 0.001975
168 0.001994
174 0.001958
139 0.001996
67 0.002055
23 0.002992
19 0.002992
43 0.002057
63 0.002025
73 0.002963
83 0.003991
90 0.00399
87 0.003034
84 0.003009
85 0.002945
99 0.003018
108 0.003043
117 0.004986
126 0.00399
131 0.00399
144 0.002966
153 0.002969
164 0.002046
173 0.003992
159 0.00399
61 0.003015
12 0.002995
15 0.00302
45 0.004013
65 0.003008
78 0.003989
93 0.005014
100 0.004042
92 0.002997
91 0.002982
98 0.004986
107 0.004987
117 0.002991
126 0.002981
138 0.003011
145 0.003005
151 0.003005
157 0.004987
166 0.003989
162 0.002962
98 0.004015
35 0.003989
7 0.004981
16 0.005011
48 0.004019
67 0.004
91 0.003986
95 0.004017
89 0.004007
80 0.005025
80 0.005038
93 0.003049
111 0.004043
122 0.004027
125 0.004988
128 0.004974
141 0.003989
150 0.003997
166 0.003985
172 0.004016
172 0.004006
117 0.004986
40 0.004987
0 0.003995
0 0.004052
16 0.005041
33 0.005984
45 0.005994
59 0.005019
62 0.005028
61 0.004004
63 0.004015
71 0.004036
79 0.004967
90 0.004987
108 0.004987
116 0.004991
123 0.005035
131 0.005035
140 0.005984
150 0.006036
157 0.005039
156 0.005994
67 0.005031
5 0.006002
0 0.006065
2 0.006982
26 0.006982
44 0.004999
52 0.005985
63 0.005037
66 0.006015
62 0.00602
68 0.005
77 0.006007
95 0.00599
108 0.004948
118 0.004988
129 0.006017
140 0.006029
150 0.005016
160 0.005983
171 0.006044
178 0.006951
188 0.006968
179 0.006026
74 0.006982
11 0.006043
11 0.005004
33 0.00497
57 0.006981
71 0.007979
88 0.005988
93 0.00602
88 0.006024
84 0.006959
86 0.006985
99 0.005995
112 0.007011
130 0.006025
142 0.005981
150 0.005982
161 0.006986
168 0.007951
174 0.00703
180 0.007019
192 0.007005
152 0.007963
73 0.007969
25 0.005999
29 0.007955
52 0.006042
71 0.005986
85 0.006981
96 0.006981
101 0.007978
99 0.007979
93 0.006987
96 0.00697
106 0.007002
119 0.007945
132 0.007945
153 0.007979
163 0.007014
170 0.006032
177 0.006032
185 0.006926
199 0.007028
207 0.006943
221 0.006966
215 0.006964
106 0.006935
28 0.007944
0 0.006982
29 0.007916
43 0.007978
61 0.00699
73 0.006978
84 0.007019
88 0.00798
83 0.00798
82 0.006974
89 0.00703
102 0.006979
119 0.007039
132 0.007014
148 0.007015
156 0.007014
166 0.006971
177 0.006996
193 0.006946
205 0.007015
215 0.006967
197 0.006016
144 0.007023
29 0.006016
0 0.006015
7 0.007036
49 0.007029
65 0.007012
83 0.007029
96 0.007027
94 0.007016
88 0.007033
89 0.006982
99 0.007006
110 0.00705
126 0.006014
141 0.005986
152 0.005902
166 0.00604
173 0.006044
195 0.006015
207 0.006029
217 0.006043
221 0.006015
159 0.005023
72 0.006016
24 0.004989
36 0.005027
62 0.005019
83 0.006022
106 0.006029
116 0.006021
115 0.005987
107 0.004978
107 0.00602
113 0.006018
126 0.005927
142 0.005986
160 0.006018
172 0.006024
180 0.005019
188 0.005987
202 0.004982
213 0.005057
220 0.005021
133 0.004989
52 0.004987
16 0.005927
19 0.004987
43 0.006022
75 0.00595
89 0.005982
103 0.005035
111 0.005018
104 0.005038
105 0.005063
111 0.004995
124 0.005012
137 0.004983
148 0.005021
156 0.005043
163 0.005034
172 0.005035
182 0.005034
193 0.005027
202 0.005018
204 0.005033
129 0.003983
40 0.004039
59 0.005015
64 0.004067
76 0.00399
85 0.004994
91 0.005028
100 0.005019
104 0.005021
103 0.005029
102 0.004988
105 0.003991
110 0.003992
116 0.00399
124 0.004068
133 0.00405
139 0.003991
144 0.003991
150 0.004038
154 0.00399
161 0.004026
166 0.004028
167 0.004037
106 0.002994
68 0.003005
57 0.00299
62 0.003034
79 0.00399
88 0.003991
94 0.002994
103 0.003942
106 0.004038
104 0.003948
105 0.003988
108 0.00396
118 0.003981
125 0.002916
133 0.004989
139 0.002993
145 0.002948
150 0.002961
155 0.003061
160 0.002992
164 0.002994
174 0.002992
155 0.002999
106 0.002988
66 0.003026
70 0.003999
86 0.004001
98 0.002
110 0.002994
117 0.001997
117 0.003026
113 0.003061
111 0.002992
114 0.002992
119 0.002992
127 0.002991
139 0.00304
145 0.002992
150 0.002944
154 0.001994
160 0.003043
164 0.003025
168 0.00199
170 0.002025
139 0.001992
81 0.00203
62 0.001995
65 0.001995
86 0.002036
96 0.001995
102 0.002024
108 0.002001
110 0.002045
108 0.001996
108 0.001996
111 0.001995
117 0.001996
124 0.001995
134 0.002011
139 0.001995
147 0.001997
152 0.000998
157 0.001995
163 0.002018
168 0.001996
173 0.002046
174 0.001009
142 0.002017
92 0.002001
63 0.002054
61 0.001967
72 0.002002
87 0.00105
92 0.000997
99 0.000997
104 0.002002
105 0.001023
104 0.000983
106 0.000998
112 0.000995
119 0.000987
127 0.000998
137 0.001996
142 0.000998
150 0.00207
154 0.000997
159 0.000989
165 0.000999
170 0.001046
156 0.000997
109 0.000997
71 0.000998
59 0.000997
67 0.000997
87 0.000998
97 0.000997
109 0.000998
114 0.000998
113 0.001005
111 0.0
110 0.0
117 0.0
125 0.0
133 0.0
140 0.0
146 0.0
152 0.0
157 0.0
162 0.000998
170 0.0
158 0.0
112 0.001013
76 0.0
66 0.0
78 0.0
93 0.0
103 0.0
112 0.001
118 0.0
117 0.0
112 0.000998
115 0.001006
120 0.000997
127 0.001
139 0.0
145 0.0
149 0.0
154 0.001001
160 0.0
164 0.0
168 0.00096
173 0.001035
115 0.0
72 0.000997
54 0.000998
59 0.001009
72 0.000965
83 0.000998
92 0.00206
99 0.000997
103 0.0
102 0.0
101 0.0
103 0.002044
113 0.0
121 0.001049
130 0.001084
138 0.0
143 0.000998
149 0.000946
154 0.000998
160 0.001032
167 0.0
165 0.0
142 0.000997
80 0.001042
55 0.0
63 0.001995
77 0.001995
88 0.0
94 0.0
103 0.000952
106 0.001035
105 0.001049
104 0.0
108 0.0
115 0.0
121 0.000948
133 0.001999
140 0.002064
145 0.001995
150 0.001995
158 0.0
165 0.001045
167 0.001034
137 0.002059
89 0.001998
58 0.001016
62 0.001087
76 0.001015
96 0.000976
105 0.001041
112 0.001995
111 0.002037
106 0.000934
105 0.000951
108 0.001006
116 0.001996
124 0.001994
132 0.001008
137 0.001977
142 0.00202
152 0.001983
158 0.002045
161 0.002963
131 0.002992
75 0.002014
54 0.001975
55 0.001035
67 0.003024
80 0.002992
91 0.001
100 0.001963
105 0.001993
100 0.001993
100 0.00199
104 0.003048
111 0.002992
121 0.001985
128 0.001995
135 0.002008
139 0.003024
144 0.002992
150 0.002063
156 0.002994
161 0.001983
109 0.002011
66 0.002022
46 0.00399
48 0.004038
63 0.002021
74 0.002017
80 0.002943
89 0.003023
94 0.003022
95 0.004088
95 0.002865
97 0.002994
108 0.001995
115 0.002961
122 0.002954
129 0.004035
133 0.004037
142 0.001996
149 0.002977
155 0.003014
158 0.004018
133 0.004035
74 0.002992
52 0.00301
60 0.003052
74 0.002986
84 0.003988
93 0.00399
102 0.00399
104 0.004022
102 0.002991
106 0.00301
111 0.004987
117 0.004986
130 0.002993
140 0.003036
152 0.003039
159 0.003022
166 0.002988
175 0.003989
177 0.004969
136 0.004006
95 0.003994
75 0.004052
77 0.004982
91 0.004988
109 0.004017
122 0.004041
141 0.004038
141 0.002972
136 0.004039
133 0.004986
136 0.005986
148 0.003979
157 0.003995
167 0.004044
175 0.005049
179 0.005018
189 0.003986
196 0.00405
163 0.004006
119 0.004923
93 0.004968
88 0.005039
97 0.005984
113 0.004987
126 0.004082
139 0.004031
149 0.00397
146 0.006042
138 0.006031
133 0.00396
138 0.00596
146 0.003993
150 0.004937
153 0.002975
155 0.006057
160 0.005984
161 0.004991
135 0.004972
93 0.004987
65 0.006016
59 0.006049
70 0.005015
87 0.005984
103 0.003007
114 0.004985
118 0.00601
115 0.006986
116 0.006985
118 0.004985
122 0.004988
131 0.004968
140 0.006015
147 0.005978
155 0.004991
163 0.006001
155 0.00501
113 0.005955
71 0.005978
50 0.007011
46 0.006997
56 0.006026
64 0.006023
72 0.005013
82 0.007005
94 0.006979
100 0.004985
99 0.006982
102 0.004977
108 0.005996
117 0.006001
125 0.007034
132 0.007003
142 0.005999
148 0.005994
155 0.006003
162 0.007007
151 0.00698
91 0.005993
48 0.006978
44 0.006957
50 0.00703
56 0.006005
60 0.007949
74 0.00796
87 0.005981
95 0.005985
99 0.00598
102 0.006004
107 0.00794
114 0.006985
127 0.007949
136 0.007955
139 0.007007
145 0.006989
152 0.006981
162 0.007938
169 0.007979
178 0.005985
162 0.007011
133 0.006919
81 0.007012
67 0.006982
74 0.00701
81 0.007027
84 0.006945
92 0.006949
106 0.006983
112 0.007928
115 0.007916
116 0.00695
119 0.006981
125 0.00698
134 0.007013
140 0.007947
156 0.006998
162 0.006964
170 0.00697
175 0.006962
181 0.006985
186 0.006981
192 0.007015
196 0.006981
182 0.006973
127 0.006978
101 0.007029
92 0.007026
104 0.007012
111 0.007043
119 0.006989
128 0.006977
137 0.006982
141 0.006982
141 0.007015
143 0.006974
149 0.006989
156 0.007035
163 0.007032
169 0.007013
178 0.006016
183 0.005976
190 0.006982
195 0.005985
200 0.006017
205 0.006016
209 0.006022
177 0.006028
138 0.006018
119 0.006017
118 0.006027
126 0.005033
139 0.006016
145 0.004987
152 0.004986
157 0.006981
158 0.005987
157 0.005984
158 0.005984
163 0.005986
172 0.005985
179 0.005011
185 0.006009
190 0.006018
197 0.006014
201 0.006025
205 0.00502
211 0.00501
214 0.005012
190 0.005017
153 0.005002
135 0.004968
139 0.005017
151 0.005042
161 0.005981
168 0.005987
178 0.004965
178 0.004986
173 0.005018
173 0.005014
176 0.004983
180 0.004984
186 0.005017
193 0.005023
198 0.005001
201 0.00494
205 0.005021
208 0.00502
214 0.005022
217 0.004929
220 0.004937
188 0.004985
151 0.005038
136 0.005029
140 0.005021
150 0.004983
158 0.005036
164 0.005021
171 0.005034
175 0.004986
172 0.005031
171 0.003959
172 0.004044
178 0.004031
183 0.004034
187 0.003991
191 0.004072
193 0.004037
199 0.005049
204 0.004989
208 0.005014
212 0.005053
212 0.004082
200 0.003989
162 0.004021
135 0.00402
131 0.003991
138 0.003989
149 0.004043
158 0.004046
167 0.004036
173 0.004041
170 0.004017
169 0.003982
168 0.003035
170 0.004004
174 0.003026
182 0.004034
192 0.002993
194 0.003059
195 0.004058
199 0.004074
203 0.004036
206 0.003989
210 0.004061
200 0.004037
148 0.00399
140 0.004041
145 0.003992
157 0.004017
169 0.002993
174 0.002994
180 0.003026
182 0.002994
180 0.002992
177 0.003026
178 0.003025
178 0.003025
183 0.003021
185 0.003026
185 0.002993
188 0.002977
191 0.002996
197 0.001995
204 0.003011
202 0.00296
170 0.003039
138 0.002993
137 0.003035
145 0.002981
165 0.003035
172 0.002022
176 0.003023
175 0.002992
171 0.002994
170 0.00203
194 0.002026
199 0.001995
209 0.001995
222 0.002026
227 0.00203
231 0.001997
232 0.001996
235 0.001995
226 0.002992
185 0.003035
147 0.001995
143 0.001995
162 0.001995
184 0.002041
196 0.002028
202 0.002025
205 0.002034
201 0.002006
190 0.001996
190 0.002002
202 0.002047
211 0.002045
215 0.001
216 0.000998
221 0.001001
225 0.000997
228 0.000969
234 0.000999
197 0.001996
144 0.002012
127 0.001996
144 0.001997
161 0.001995
170 0.001999
178 0.001999
187 0.000999
184 0.000999
180 0.000998
178 0.000997
179 0.00105
184 0.001972
189 0.000997
197 0.000997
202 0.000997
205 0.000998
207 0.002036
200 0.001996
143 0.001992
116 0.000999
114 0.001015
128 0.001027
145 0.000996
160 0.000997
166 0.000969
163 0.001995
159 0.001015
155 0.000998
156 0.000997
161 0.000997
168 0.000995
171 0.000981
176 0.000997
179 0.0
182 0.0
179 0.0
141 0.0
99 0.0
105 0.000998
123 0.000998
137 0.0
142 0.0
149 0.0
153 0.000997
145 0.0
137 0.0
136 0.000997
139 0.0
146 0.000999
155 0.0
158 0.0
162 0.0
166 0.0
157 0.0
116 0.0
84 0.0
87 0.0
101 0.0
116 0.0
129 0.0
137 0.000998
135 0.0
126 0.000998
122 0.002037
130 0.0
135 0.0
139 0.0
145 0.002039
150 0.001993
153 0.0
155 0.0
135 0.0
94 0.001959
71 0.0
83 0.002065
98 0.002035
110 0.0
121 0.0
125 0.0
118 0.001029
112 0.00105
111 0.0
114 0.000955
119 0.000998
128 0.001035
132 0.000999
141 0.002044
143 0.001996
145 0.0
128 0.0
83 0.0
51 0.001994
47 0.00197
53 0.001
70 0.0
78 0.0
86 0.002035
89 0.0
84 0.002032
80 0.001031
84 0.001994
92 0.0
99 0.0
105 0.0
108 0.002018
114 0.001999
121 0.0
123 0.002004
123 0.000939
71 0.001969
35 0.000949
28 0.001951
39 0.002029
51 0.00198
55 0.001978
63 0.001992
69 0.002004
70 0.001995
67 0.001033
70 0.001
75 0.001013
88 0.001978
96 0.000959
100 0.002992
105 0.003023
110 0.001998
115 0.001978
122 0.001983
129 0.001995
113 0.002005
56 0.001981
32 0.001976
31 0.001991
51 0.002028
60 0.001995
67 0.002987
73 0.002992
75 0.000999
73 0.001012
77 0.001017
80 0.003
90 0.003026
101 0.000964
107 0.000995
113 0.001019
120 0.002007
128 0.001996
134 0.002992
139 0.003042
151 0.001996
137 0.002027
87 0.001043
49 0.003046
43 0.003026
61 0.000984
76 0.001029
87 0.002008
99 0.002008
97 0.002012
91 0.004046
88 0.004023
93 0.002001
98 0.001993
106 0.002005
111 0.003043
118 0.00403
126 0.003044
133 0.003016
140 0.003023
147 0.003041
152 0.002028
156 0.002013
139 0.004039
85 0.004022
42 0.001963
40 0.003008
53 0.002057
67 0.004026
74 0.005013
85 0.003012
89 0.002996
82 0.002974
80 0.002036
85 0.002991
95 0.004035
103 0.005066
114 0.002987
122 0.002984
124 0.00304
126 0.004022
131 0.003965
142 0.002032
148 0.002993
153 0.002975
153 0.002987
118 0.002984
68 0.005024
40 0.004986
44 0.00403
52 0.002963
62 0.002994
70 0.005021
80 0.00502
85 0.003015
83 0.00299
83 0.002976
88 0.002988
97 0.002987
106 0.005036
114 0.005018
125 0.003999
132 0.003993
137 0.003989
144 0.005015
150 0.004992
156 0.003973
161 0.003023
174 0.002976
163 0.002988
106 0.004013
59 0.005997
46 0.006026
63 0.004008
80 0.004003
93 0.003978
101 0.00502
109 0.005058
110 0.005022
106 0.00399
106 0.005953
116 0.005018
123 0.004997
131 0.004996
140 0.006027
150 0.005982
157 0.003993
162 0.00401
167 0.003992
172 0.005987
177 0.005982
188 0.00399
157 0.007016
84 0.004995
55 0.004987
59 0.004973
76 0.005988
90 0.005985
104 0.004995
115 0.005023
119 0.005002
113 0.006984
110 0.006949
114 0.005985
124 0.006981
135 0.00501
145 0.004993
151 0.004955
155 0.006977
162 0.006982
170 0.004989
175 0.004954
180 0.004978
185 0.005968
191 0.006975
197 0.005909
136 0.006981
65 0.005028
47 0.005994
57 0.004992
72 0.00699
83 0.007004
90 0.004967
97 0.004992
102 0.00499
100 0.007954
98 0.007975
100 0.005995
117 0.007975
128 0.005995
139 0.006002
146 0.005019
149 0.006979
156 0.006922
165 0.005985
171 0.004983
179 0.005025
185 0.006989
191 0.007977
192 0.007946
100 0.007979
54 0.007972
47 0.005935
62 0.006007
78 0.006012
93 0.007979
104 0.007013
115 0.006979
114 0.005992
109 0.006972
110 0.007958
116 0.007916
137 0.00795
149 0.007946
163 0.007016
169 0.00698
175 0.006004
184 0.00797
194 0.007975
202 0.005987
212 0.006981
178 0.00698
116 0.00701
81 0.007014
87 0.007011
108 0.007014
125 0.007004
147 0.006955
163 0.006971
168 0.00703
165 0.007946
158 0.006934
160 0.006985
167 0.006963
180 0.007013
191 0.007014
208 0.007015
216 0.006962
226 0.006969
234 0.006948
239 0.006973
201 0.007013
143 0.006013
105 0.006973
106 0.005969
120 0.005989
137 0.006976
152 0.006017
179 0.006963
180 0.007014
167 0.006981
161 0.006974
155 0.005987
160 0.007015
170 0.006013
187 0.006016
195 0.005964
198 0.005963
203 0.006018
203 0.006032
143 0.005946
91 0.006007
65 0.005983
65 0.005985
79 0.005985
97 0.007035
114 0.006012
133 0.005987
135 0.006067
126 0.006019
115 0.005978
110 0.005975
101 0.006019
104 0.006019
115 0.006018
123 0.006018
133 0.005989
139 0.005982
134 0.005033
86 0.005021
20 0.004988
1 0.004993
5 0.005022
18 0.00502
37 0.005019
49 0.00502
65 0.005021
74 0.005017
71 0.005991
70 0.005047
74 0.006048
81 0.005019
96 0.005015
106 0.005036
116 0.005019
127 0.005035
143 0.005017
153 0.00502
159 0.004988
169 0.005033
151 0.005022
81 0.005019
19 0.003991
0 0.004022
0 0.00502
0 0.005034
0 0.005023
0 0.005027
6 0.004988
16 0.005041
22 0.005031
27 0.005033
32 0.00403
41 0.003989
53 0.004038
64 0.004022
76 0.004022
92 0.003992
101 0.004027
110 0.004023
124 0.003994
133 0.005018
144 0.00399
158 0.004969
124 0.004021
54 0.003993
2 0.003984
0 0.00399
0 0.004024
1 0.004032
6 0.003952
7 0.00395
29 0.003987
47 0.002993
56 0.00399
56 0.004022
62 0.002991
73 0.002992
84 0.002993
97 0.003006
110 0.004069
122 0.004018
129 0.004036
139 0.003991
152 0.004034
161 0.004021
172 0.003985
182 0.003928
193 0.003023
200 0.002985
187 0.002993
130 0.003013
75 0.003028
50 0.002992
58 0.004016
71 0.00203
82 0.002032
87 0.003006
99 0.002992
109 0.003035
115 0.003071
114 0.003076
117 0.003005
126 0.002992
140 0.002992
155 0.003003
163 0.002999
171 0.003022
187 0.002992
193 0.001995
196 0.002022
201 0.002043
210 0.00203
219 0.001996
227 0.001995
233 0.002027
233 0.002029
182 0.001995
133 0.001961
109 0.001995
118 0.001995
130 0.001997
132 0.002005
136 0.002999
143 0.002042
155 0.003057
159 0.002994
160 0.002001
162 0.002027
167 0.001995
179 0.002032
184 0.002011
197 0.001983
207 0.002035
216 0.001995
223 0.001932
228 0.001966
231 0.002
234 0.001975
238 0.001995
246 0.001995
253 0.001991
255 0.002041
255 0.002042
198 0.000998
156 0.000998
145 0.000997
154 0.001002
167 0.001998
175 0.000997
178 0.000998
184 0.001006
193 0.002034
197 0.001996
197 0.00203
197 0.001972
200 0.000991
206 0.001963
213 0.000998
221 0.000997
225 0.001003
228 0.001021
231 0.000989
237 0.001012
242 0.000998
249 0.001002
252 0.000999
254 0.0
255 0.000994
255 0.000997
171 0.000997
148 0.000999
139 0.000964
144 0.0
153 0.0
159 0.0
163 0.0
165 0.0
166 0.0
165 0.0
163 0.0
166 0.000999
169 0.0
171 0.0
173 0.0
175 0.0
182 0.0
186 0.0
187 0.0
187 0.0
189 0.0
191 0.0
192 0.0
166 0.0
149 0.0
147 0.0
152 0.0
161 0.0
170 0.0
174 0.002036
176 0.0
174 0.0
170 0.0
169 0.001995
172 0.0
172 0.002025
174 0.002043
180 0.0
184 0.0
185 0.0
185 0.002029
185 0.002036
191 0.0
193 0.0
192 0.000998
191 0.001043
161 0.000949
143 0.002016
142 0.002001
151 0.0
154 0.001031
161 0.000961
163 0.002012
167 0.002044
172 0.0
168 0.0
164 0.000974
163 0.002044
166 0.001007
169 0.002057
174 0.002047
178 0.0
243 0.0
241 0.000963
248 0.001028
253 0.001028
196 0.0
197 0.00101
180 0.0
152 0.0
140 0.000967
149 0.000991
159 0.001981
164 0.001995
167 0.0
168 0.0
168 0.0
166 0.002027
163 0.002028
165 0.0
169 0.0
172 0.000966
174 0.001999
177 0.002007
179 0.001995
181 0.001995
185 0.001994
188 0.001995
188 0.000995
173 0.001995
147 0.002051
133 0.001036
139 0.00198
149 0.002011
158 0.000967
160 0.00195
165 0.002993
164 0.002993
162 0.001971
162 0.001994
164 0.001988
165 0.003025
167 0.002992
173 0.002153
175 0.001964
179 0.001963
180 0.001031
181 0.002066
182 0.003022
169 0.002992
139 0.001963
134 0.002006
142 0.002012
152 0.003047
158 0.003023
165 0.002037
170 0.001963
170 0.001993
163 0.001991
161 0.002011
162 0.003024
163 0.003025
167 0.001029
169 0.000971
172 0.001005
175 0.003036
177 0.004039
177 0.001027
239 0.001972
199 0.001995
133 0.001982
142 0.001998
160 0.000973
174 0.003989
182 0.004022
198 0.00201
203 0.001968
194 0.002006
183 0.003989
178 0.003989
175 0.002963
183 0.002018
198 0.001949
205 0.001977
212 0.002962
213 0.004024
214 0.00394
222 0.00202
200 0.001996
146 0.002023
117 0.004018
117 0.004991
140 0.002989
158 0.00294
175 0.002975
183 0.003009
182 0.003008
175 0.004964
169 0.004032
168 0.003029
176 0.002993
183 0.002974
189 0.004022
195 0.004986
198 0.003994
198 0.003976
204 0.003
197 0.003033
149 0.002994
105 0.005017
94 0.005005
112 0.002996
132 0.003018
144 0.003002
153 0.005018
157 0.005976
152 0.003979
144 0.003998
143 0.004009
150 0.003987
156 0.004
162 0.004986
162 0.005046
164 0.002992
172 0.002981
178 0.002992
177 0.004023
179 0.005984
155 0.006037
87 0.003949
74 0.006015
99 0.003991
119 0.003996
127 0.004019
128 0.00602
133 0.005957
130 0.004032
124 0.003994
125 0.003998
132 0.006981
144 0.006012
150 0.00397
157 0.006026
165 0.003951
169 0.004002
172 0.003972
170 0.006053
171 0.006022
114 0.004024
75 0.003993
70 0.004005
84 0.007028
103 0.00603
120 0.004972
120 0.006979
129 0.005007
124 0.004989
113 0.004984
112 0.006995
117 0.006005
121 0.004984
129 0.005014
132 0.005983
131 0.007017
140 0.006994
147 0.005986
150 0.006998
150 0.004996
104 0.004984
54 0.004994
35 0.00704
44 0.007039
68 0.004973
79 0.004981
87 0.005052
101 0.006978
106 0.007945
99 0.005976
91 0.007978
98 0.006025
111 0.005994
124 0.005999
133 0.007977
138 0.006957
146 0.006015
150 0.006002
155 0.006949
155 0.00798
119 0.006981
63 0.007979
35 0.007967
45 0.00798
60 0.005942
68 0.005976
72 0.005981
79 0.007969
79 0.007984
73 0.00599
72 0.00602
81 0.006004
93 0.007001
99 0.006994
109 0.007939
120 0.007967
124 0.005984
128 0.005987
128 0.005965
76 0.007938
31 0.007972
17 0.006981
29 0.005982
49 0.005034
64 0.007016
71 0.00706
76 0.007018
78 0.007032
74 0.006976
75 0.005994
82 0.006977
106 0.007021
118 0.007012
122 0.006981
130 0.006982
137 0.00697
139 0.007016
143 0.007014
117 0.007013
61 0.007026
25 0.006977
27 0.00698
42 0.006027
59 0.007014
67 0.007012
75 0.006982
73 0.006016
68 0.006001
63 0.006014
64 0.00602
80 0.007017
86 0.007012
93 0.00697
103 0.006978
110 0.006967
113 0.006017
119 0.007016
127 0.006982
100 0.005985
45 0.005965
13 0.005984
15 0.006027
50 0.005987
62 0.00602
74 0.005984
84 0.005961
80 0.005961
70 0.006978
70 0.007006
75 0.006981
87 0.006019
100 0.006018
108 0.005979
114 0.00595
124 0.005993
130 0.005982
136 0.006016
104 0.005979
49 0.005991
18 0.005984
20 0.006019
35 0.005038
55 0.004924
64 0.004992
75 0.004987
77 0.004986
63 0.004943
64 0.005976
72 0.004992
83 0.00599
97 0.005018
109 0.006044
115 0.00601
122 0.006015
133 0.005023
139 0.006
138 0.004997
93 0.005048
10 0.005006
4 0.005031
17 0.005012
37 0.005023
50 0.005021
58 0.005033
66 0.005025
66 0.005038
60 0.004041
62 0.005037
72 0.003991
82 0.003983
96 0.003985
106 0.004068
114 0.004036
126 0.004088
132 0.004027
137 0.004014
109 0.00396
49 0.00399
1 0.004988
5 0.004024
23 0.005052
35 0.004011
53 0.005034
65 0.004033
68 0.00396
64 0.005014
63 0.005024
68 0.005023
79 0.004987
89 0.003988
96 0.003984
107 0.003021
118 0.003932
127 0.003949
138 0.003994
144 0.00299
104 0.002993
37 0.002992
0 0.004029
15 0.003967
38 0.004039
54 0.003991
65 0.003992
80 0.003961
81 0.002994
73 0.002991
72 0.003035
81 0.003995
91 0.003955
102 0.002992
115 0.002992
121 0.003027
131 0.002992
140 0.00298
148 0.002993
166 0.001994
155 0.00204
91 0.003997
26 0.002992
32 0.00299
50 0.004043
71 0.004039
93 0.002992
107 0.003961
115 0.002993
110 0.002994
104 0.003026
107 0.002986
112 0.002958
124 0.002994
145 0.00299
157 0.003027
163 0.002992
171 0.003084
183 0.003
176 0.002992
114 0.002992
59 0.002964
42 0.002027
59 0.003048
83 0.001996
103 0.001997
129 0.001995
134 0.001994
122 0.001987
112 0.002028
113 0.002027
122 0.001991
132 0.002041
144 0.00204
157 0.001065
167 0.002036
180 0.002992
188 0.003047
150 0.002038
82 0.001995
42 0.001995
40 0.001996
58 0.001995
83 0.001996
98 0.001996
109 0.002027
114 0.002006
107 0.002005
98 0.001935
100 0.00104
112 0.000999
124 0.001996
139 0.000999
148 0.000999
161 0.000999
172 0.000997
180 0.001046
162 0.001995
93 0.002043
34 0.000998
11 0.002024
24 0.002022
50 0.001995
59 0.002021
69 0.002007
78 0.000998
75 0.000998
69 0.001002
72 0.001023
80 0.000946
89 0.001
100 0.001994
112 0.000978
124 0.000999
139 0.002016
148 0.000997
148 0.002014
94 0.0
25 0.000999
0 0.001002
0 0.0
2 0.0
12 0.0
16 0.000998
31 0.000997
39 0.000998
37 0.000998
36 0.001024
42 0.000996
55 0.000998
66 0.0
79 0.0
90 0.0
98 0.0
109 0.0
121 0.0
130 0.0
129 0.000984
48 0.0
0 0.0
0 0.000997
0 0.0
4 0.0
16 0.000997
26 0.001041
38 0.001032
40 0.000995
38 0.0
38 0.00094
49 0.0
66 0.0
84 0.002026
93 0.002025
109 0.0
119 0.0
129 0.0
142 0.002027
156 0.002021
171 0.000987
174 0.000979
125 0.0
53 0.002032
7 0.000948
23 0.00104
48 0.002032
72 0.0
85 0.000951
97 0.0
98 0.000964
91 0.002029
87 0.0
94 0.0
102 0.0
115 0.002027
137 0.0
147 0.002026
155 0.00203
166 0.0
172 0.0
180 0.0
184 0.001996
138 0.00196
53 0.000952
30 0.000997
38 0.000966
58 0.002037
79 0.000951
92 0.001993
103 0.001998
99 0.001
92 0.000941
97 0.000986
107 0.001028
117 0.001025
128 0.001996
144 0.0
152 0.0
162 0.0
175 0.0
186 0.0
193 0.002029
202 0.002025
203 0.0
142 0.0
67 0.0
26 0.002994
27 0.002993
47 0.001973
59 0.00095
70 0.002948
88 0.001992
92 0.0
86 0.002033
84 0.001995
93 0.001991
103 0.001992
114 0.001984
129 0.002028
143 0.002981
155 0.001972
164 0.002014
177 0.002991
190 0.001995
199 0.001983
194 0.003023
135 0.002992
45 0.002023
21 0.001042
30 0.002967
52 0.003035
69 0.003035
83 0.00097
97 0.001011
102 0.002068
101 0.000965
103 0.002028
111 0.003025
123 0.002922
143 0.001989
158 0.001997
171 0.002057
181 0.002992
190 0.003043
204 0.002024
214 0.00199
227 0.001965
200 0.002039
117 0.001954
63 0.00201
53 0.004043
69 0.004025
98 0.001953
118 0.00201
131 0.002037
139 0.003989
135 0.003989
125 0.001988
126 0.001998
141 0.002023
154 0.001995
168 0.001997
179 0.004022
189 0.004
203 0.001952
208 0.002961
216 0.002044
226 0.003982
205 0.003958
101 0.001969
52 0.001987
56 0.001991
78 0.002015
92 0.001996
107 0.003983
123 0.004021
127 0.002979
118 0.002951
112 0.003009
116 0.004987
126 0.004987
142 0.002993
155 0.002961
172 0.002028
183 0.001997
194 0.001992
203 0.003989
211 0.004983
216 0.002997
186 0.002992
102 0.003022
43 0.004987
22 0.005018
41 0.003006
59 0.002978
76 0.002989
90 0.003001
98 0.002997
96 0.004997
91 0.005017
100 0.003975
115 0.003958
124 0.003996
135 0.005985
149 0.005985
162 0.003985
171 0.002985
188 0.003005
198 0.003033
200 0.003985
149 0.003926
68 0.005019
20 0.005984
18 0.003987
40 0.003955
60 0.003985
75 0.005984
94 0.00606
108 0.00497
108 0.005943
104 0.003987
112 0.003987
124 0.003989
137 0.005953
153 0.007011
172 0.004939
181 0.00498
189 0.004045
201 0.006024
212 0.006947
178 0.004017
73 0.006026
31 0.004024
41 0.003992
63 0.004027
82 0.006983
97 0.005984
116 0.004983
113 0.004937
104 0.005002
99 0.007034
103 0.006981
118 0.00404
138 0.006966
154 0.004018
167 0.005019
176 0.005021
181 0.006982
189 0.007013
156 0.004981
79 0.005968
24 0.005974
8 0.007979
24 0.007975
41 0.00504
62 0.006975
82 0.004983
82 0.004952
73 0.004986
70 0.006998
73 0.006981
86 0.00501
99 0.005985
111 0.004985
121 0.007979
133 0.007013
150 0.006001
164 0.007971
145 0.007971
72 0.005983
9 0.005982
0 0.005038
0 0.00796
12 0.007944
27 0.005938
37 0.00593
50 0.005989
54 0.007963
51 0.007984
56 0.007971
64 0.007946
77 0.005981
88 0.005987
101 0.006035
111 0.007936
123 0.007933
138 0.005939
148 0.005977
147 0.006942
63 0.007017
0 0.007014
0 0.006991
0 0.007018
11 0.005983
27 0.006023
41 0.006999
53 0.007979
58 0.00795
56 0.006009
61 0.00696
67 0.006979
86 0.007027
101 0.006957
124 0.007014
137 0.006974
152 0.006968
162 0.006972
170 0.006968
153 0.006944
78 0.006982
14 0.006994
58 0.006981
69 0.005984
80 0.006981
88 0.007013
100 0.006944
103 0.007018
97 0.007004
96 0.006975
96 0.00695
105 0.007038
112 0.00703
121 0.006955
126 0.005993
130 0.006023
135 0.006036
140 0.006017
147 0.006025
145 0.006018
97 0.00695
63 0.005982
51 0.005985
52 0.005939
62 0.006025
72 0.005984
79 0.006951
90 0.005983
90 0.006034
87 0.006029
89 0.00599
95 0.007023
101 0.006019
112 0.005982
119 0.006011
124 0.005984
129 0.005991
135 0.006017
143 0.005951
149 0.004989
154 0.004993
147 0.006027
82 0.005022
57 0.005003
55 0.004952
66 0.004987
73 0.005029
78 0.005058
84 0.005976
91 0.004965
91 0.004989
90 0.00597
92 0.006018
97 0.005038
109 0.005017
116 0.004971
123 0.00498
132 0.00503
138 0.005022
144 0.005018
150 0.005074
156 0.00502
166 0.005032
172 0.004987
161 0.004921
115 0.005034
65 0.003996
64 0.004035
76 0.00502
90 0.005042
97 0.005034
105 0.005029
112 0.005015
112 0.005025
110 0.005023
112 0.004982
118 0.005026
124 0.005032
137 0.005053
145 0.005034
150 0.004988
155 0.005019
160 0.004022
165 0.004026
171 0.003954
169 0.003957
136 0.004989
87 0.003987
73 0.003983
79 0.003999
98 0.004997
107 0.005053
115 0.004015
121 0.004987
118 0.003989
115 0.003989
115 0.003969
120 0.003989
128 0.003991
139 0.00396
148 0.00403
154 0.004024
160 0.004048
164 0.004025
168 0.003937
173 0.00396
181 0.002994
185 0.004989
170 0.003024
121 0.003003
81 0.003028
61 0.002992
67 0.003949
77 0.003988
88 0.003931
94 0.00395
99 0.00406
102 0.003991
100 0.004024
101 0.004023
106 0.003006
114 0.003048
123 0.003037
134 0.002982
141 0.003028
145 0.003019
155 0.003
160 0.003029
166 0.003026
172 0.003024
179 0.003047
178 0.002978
138 0.002011
91 0.003038
68 0.002038
70 0.002025
80 0.001983
88 0.002993
99 0.002994
107 0.003024
110 0.003022
108 0.003055
108 0.002036
112 0.00304
118 0.002037
126 0.001995
137 0.002026
146 0.002009
156 0.00205
162 0.00201
171 0.002035
177 0.00204
183 0.002031
190 0.002055
198 0.002027
167 0.002009
114 0.001982
85 0.00204
83 0.002034
95 0.002018
111 0.003061
117 0.002043
132 0.002028
134 0.001994
129 0.002066
125 0.001986
127 0.001994
133 0.001994
140 0.002016
151 0.002003
160 0.002035
163 0.00103
168 0.003045
173 0.001975
185 0.001031
189 0.000974
165 0.002028
114 0.002043
80 0.002039
75 0.001972
84 0.002038
95 0.002042
105 0.001039
113 0.002003
124 0.002995
122 0.000998
118 0.002027
119 0.002043
123 0.000998
134 0.002033
147 0.001041
156 0.000999
160 0.000999
164 0.001028
172 0.002041
177 0.000991
185 0.0
187 0.0
112 0.001032
73 0.000998
64 0.0
73 0.0
84 0.000997
95 0.001032
104 0.001059
113 0.000998
114 0.000995
112 0.00099
110 0.0
114 0.0
124 0.0
138 0.0
144 0.0
149 0.0
158 0.0
164 0.0
171 0.0
179 0.0
181 0.0
143 0.0
91 0.0
64 0.000999
71 0.0
90 0.0
103 0.0
112 0.001005
119 0.000968
122 0.0
118 0.001995
117 0.0
126 0.0
133 0.0
140 0.0
149 0.002994
164 0.000998
173 0.0
178 0.002039
187 0.0
173 0.0
124 0.0
86 0.002026
74 0.002042
84 0.000932
101 0.000977
118 0.000958
129 0.002025
141 0.000963
136 0.002027
130 0.002047
130 0.000974
133 0.0
139 0.0
149 0.002055
160 0.002026
169 0.0
175 0.000965
182 0.0
181 0.002028
113 0.0
83 0.002105
74 0.002026
84 0.0
96 0.000997
108 0.000994
119 0.001997
126 0.002058
119 0.0
114 0.0
113 0.001008
117 0.0
130 0.0
137 0.0
146 0.002039
152 0.003031
158 0.0
163 0.000995
146 0.001035
98 0.001995
60 0.00204
45 0.000964
49 0.0
59 0.000971
71 0.0
80 0.000969
85 0.003034
85 0.003006
84 0.002042
88 0.000932
91 0.000967
96 0.003991
102 0.002992
112 0.0
120 0.0
128 0.000984
138 0.0
127 0.0
89 0.002027
51 0.002041
30 0.000991
31 0.001014
39 0.0
44 0.002993
50 0.002992
65 0.002949
72 0.002948
73 0.001991
73 0.001994
79 0.002006
88 0.002993
97 0.003021
109 0.002996
116 0.003001
122 0.002043
128 0.00396
135 0.003989
145 0.002027
134 0.002028
92 0.002005
39 0.001994
35 0.001976
44 0.003012
53 0.002992
61 0.001994
70 0.001994
77 0.002962
79 0.003989
80 0.004056
82 0.004001
91 0.00299
99 0.002988
109 0.003014
115 0.003025
121 0.002042
128 0.00399
136 0.003982
146 0.002028
151 0.002029
155 0.002026
135 0.003039
92 0.004015
54 0.001992
48 0.001971
60 0.001994
67 0.001974
75 0.002988
86 0.00399
91 0.005015
91 0.003049
88 0.003067
91 0.002992
98 0.004987
107 0.005018
118 0.001987
125 0.002009
133 0.001985
139 0.002932
147 0.001988
154 0.00502
160 0.004029
142 0.002952
97 0.002001
64 0.00296
54 0.004989
63 0.005025
80 0.003941
90 0.002956
108 0.003985
108 0.002946
104 0.002026
104 0.004987
108 0.005985
118 0.002992
127 0.00195
135 0.001993
142 0.005985
147 0.006019
155 0.002997
161 0.002993
174 0.002983
172 0.003986
134 0.003043
92 0.004986
73 0.004987
78 0.003008
90 0.002994
102 0.002992
112 0.005984
120 0.005985
120 0.006021
115 0.003022
114 0.006036
120 0.004009
125 0.003043
134 0.003023
143 0.005
149 0.007017
156 0.003025
164 0.004008
169 0.002991
171 0.005904
160 0.005985
103 0.003972
67 0.005984
69 0.003987
77 0.003983
87 0.004012
98 0.006078
109 0.005984
113 0.004122
111 0.004008
108 0.00497
109 0.007061
115 0.007004
126 0.004985
139 0.007
149 0.003966
156 0.004041
160 0.004002
165 0.006007
173 0.00595
172 0.003991
135 0.004953
87 0.005027
65 0.00698
63 0.006982
78 0.005001
90 0.006981
103 0.004989
111 0.005
109 0.004982
105 0.00799
104 0.00798
114 0.005021
122 0.00398
130 0.005019
139 0.00798
143 0.006975
154 0.004981
165 0.006981
173 0.004956
176 0.006002
145 0.005995
94 0.007015
67 0.00798
64 0.007981
78 0.005943
92 0.005968
105 0.006022
118 0.007957
122 0.007988
118 0.007978
118 0.007991
121 0.005029
129 0.004987
138 0.005952
148 0.007017
157 0.007989
167 0.005982
174 0.006001
182 0.005996
188 0.007978
147 0.007988
89 0.007979
75 0.007994
85 0.005979
97 0.005787
109 0.005954
121 0.007975
127 0.007979
127 0.005975
122 0.006978
121 0.006024
127 0.006986
133 0.006988
146 0.00703
155 0.006987
160 0.005967
167 0.005987
174 0.005992
176 0.007955
148 0.007974
86 0.006939
64 0.006939
64 0.006969
81 0.007027
91 0.007031
111 0.007027
118 0.007013
115 0.006955
112 0.006939
113 0.00696
118 0.006983
125 0.007028
134 0.005966
144 0.005978
151 0.005989
157 0.006027
161 0.007014
164 0.00702
131 0.007015
72 0.005974
53 0.005974
51 0.005981
61 0.006093
71 0.005985
81 0.006045
93 0.006954
100 0.006028
98 0.006002
93 0.006016
97 0.006031
107 0.005982
117 0.006019
128 0.005968
136 0.005963
142 0.005946
147 0.00502
154 0.006019
141 0.005005
96 0.004996
57 0.004939
43 0.005022
56 0.006009
69 0.006011
79 0.006024
95 0.006002
100 0.005971
97 0.005925
97 0.00504
101 0.00597
110 0.005965
118 0.005049
126 0.004939
135 0.004992
149 0.004939
156 0.004986
164 0.005027
158 0.004955
112 0.004969
70 0.004929
54 0.004999
61 0.005985
81 0.004983
94 0.004987
106 0.005927
113 0.005947
109 0.00499
106 0.005025
106 0.005018
116 0.00494
125 0.005012
131 0.004986
138 0.00502
145 0.004988
154 0.004998
160 0.005017
164 0.005033
138 0.005019
69 0.004934
57 0.003989
66 0.005033
85 0.004989
93 0.004972
103 0.00395
110 0.004007
109 0.004987
105 0.003991
106 0.00399
110 0.005001
116 0.005023
130 0.003024
138 0.004034
144 0.003989
152 0.005006
160 0.003985
164 0.00399
157 0.00399
116 0.004011
74 0.00399
54 0.00399
61 0.00399
70 0.003959
85 0.003957
95 0.002993
102 0.003018
102 0.003036
99 0.003971
100 0.003991
105 0.004037
113 0.004036
122 0.003067
133 0.003034
140 0.003989
146 0.004037
155 0.002976
162 0.002958
150 0.00402
105 0.003998
60 0.00301
53 0.003015
61 0.002938
75 0.003025
86 0.003018
100 0.002993
108 0.003008
109 0.003028
105 0.002959
108 0.002993
117 0.003022
125 0.001996
137 0.00297
144 0.003023
149 0.001997
157 0.00204
165 0.001992
175 0.002996
177 0.002989
141 0.003041
75 0.001996
70 0.002994
82 0.002956
98 0.003037
113 0.003032
122 0.003027
127 0.003007
124 0.002039
119 0.002027
119 0.00203
128 0.002021
135 0.001963
145 0.001988
152 0.001997
159 0.001996
166 0.003013
172 0.002037
177 0.003046
170 0.003019
127 0.003057
88 0.002026
74 0.001996
83 0.002993
93 0.002046
111 0.001996
124 0.001996
129 0.001997
124 0.00205
118 0.002035
119 0.00205
128 0.001956
139 0.001027
146 0.001043
152 0.001022
158 0.002014
164 0.000998
175 0.000997
179 0.001997
185 0.001997
177 0.002032
128 0.002033
76 0.002055
67 0.002039
78 0.002043
90 0.002037
100 0.001002
110 0.001025
119 0.00202
123 0.002019
120 0.002073
121 0.002026
126 0.002037
137 0.001018
149 0.001038
154 0.00203
158 0.0
163 0.0
173 0.0
182 0.000997
187 0.000998
192 0.001005
150 0.000998
102 0.000986
80 0.000998
83 0.0
98 0.0
119 0.0
128 0.0
137 0.0
141 0.0
142 0.0
140 0.0
142 0.0
153 0.0
162 0.0
171 0.001002
177 0.0
183 0.001017
190 0.000998
196 0.0
202 0.0
209 0.0
201 0.0
135 0.0
100 0.0
108 0.0
125 0.0
138 0.0
148 0.0
162 0.000986
163 0.00204
157 0.001998
152 0.0
154 0.000941
158 0.000933
165 0.001995
180 0.0
185 0.003006
191 0.003039
196 0.0
201 0.0
207 0.0
197 0.002035
149 0.002024
104 0.000961
98 0.0
110 0.0
124 0.002027
141 0.000953
151 0.002036
154 0.002026
146 0.000967
142 0.00102
146 0.000947
151 0.001996
158 0.002013
169 0.001016
173 0.000984
176 0.0
183 0.002992
195 0.0
201 0.003027
202 0.002024
148 0.0
102 0.0
86 0.0
90 0.000972
102 0.002028
113 0.002027
125 0.0
136 0.000994
141 0.0
135 0.000967
134 0.0
139 0.003023
145 0.003023
153 0.0
161 0.0
167 0.0
174 0.00304
180 0.004018
188 0.0
192 0.000954
195 0.0
127 0.0
93 0.000973
85 0.00204
94 0.003028
112 0.000948
123 0.0
133 0.000997
143 0.002993
144 0.003026
135 0.0
134 0.0
136 0.0
150 0.0
158 0.0
165 0.003018
171 0.00206
177 0.0
184 0.0
193 0.0
200 0.002038
170 0.002029
105 0.0
87 0.000995
90 0.002011
114 0.001996
130 0.000973
143 0.002993
150 0.002987
146 0.002995
143 0.003027
141 0.001979
144 0.002989
152 0.002999
165 0.002024
171 0.002022
177 0.001998
188 0.002014
195 0.002987
202 0.002998
181 0.003041
114 0.00201
95 0.00299
97 0.002996
111 0.002991
125 0.002992
138 0.002993
150 0.002989
152 0.003003
142 0.002991
141 0.002974
145 0.001992
150 0.004032
157 0.00404
168 0.002039
175 0.002952
184 0.002964
190 0.00402
195 0.003029
196 0.001996
156 0.001993
84 0.002993
75 0.002974
85 0.002013
98 0.00399
111 0.004035
124 0.002993
132 0.001979
132 0.002994
127 0.004987
124 0.004021
126 0.001991
132 0.002035
147 0.00299
155 0.002044
162 0.002033
167 0.00503
171 0.00504
177 0.001996
164 0.003994
112 0.001996
74 0.005026
63 0.00499
75 0.001997
88 0.001996
105 0.002035
115 0.001989
120 0.00296
115 0.003989
109 0.004989
110 0.002953
117 0.002002
126 0.003011
134 0.005011
142 0.005051
150 0.003013
156 0.002996
171 0.001998
176 0.003019
146 0.002996
93 0.005954
63 0.006037
62 0.002985
77 0.003001
92 0.002951
104 0.00299
117 0.005024
123 0.004975
118 0.003031
114 0.005026
119 0.003003
127 0.002983
135 0.003985
143 0.00601
147 0.006033
152 0.003023
157 0.00401
163 0.003972
163 0.005983
125 0.006017
72 0.003003
64 0.005984
84 0.003039
100 0.002995
113 0.002993
124 0.006064
122 0.005984
108 0.004043
107 0.00399
111 0.003989
120 0.006025
127 0.005993
137 0.004012
142 0.006007
155 0.002989
158 0.00304
163 0.003042
162 0.006982
120 0.006959
65 0.004021
55 0.003998
64 0.003952
77 0.006981
87 0.005984
98 0.003961
106 0.005997
102 0.004012
98 0.00498
101 0.003983
109 0.007044
117 0.007014
130 0.005003
138 0.004997
143 0.004996
149 0.006991
153 0.006951
145 0.005006
87 0.006981
53 0.003988
54 0.004953
66 0.005004
76 0.007979
84 0.007946
96 0.00499
102 0.005004
102 0.005003
100 0.005004
101 0.006997
107 0.006986
118 0.006981
127 0.007959
139 0.00599
148 0.005001
155 0.004956
156 0.007979
120 0.007968
77 0.004966
56 0.005006
57 0.004985
72 0.007022
82 0.007949
95 0.007024
108 0.007949
110 0.006011
107 0.005987
108 0.006982
113 0.00796
119 0.007951
127 0.006033
136 0.006976
144 0.006009
152 0.007978
160 0.007977
160 0.006959
122 0.007027
82 0.005936
65 0.006015
69 0.006002
90 0.006965
102 0.007029
115 0.006013
127 0.005947
132 0.005945
126 0.007977
124 0.007977
131 0.007955
140 0.007019
149 0.006005
156 0.006951
167 0.00698
171 0.007029
175 0.007031
176 0.006979
146 0.00695
101 0.006007
77 0.006944
84 0.006981
109 0.006993
122 0.006986
135 0.006006
137 0.005992
129 0.005959
126 0.006016
128 0.00598
135 0.007017
143 0.006996
154 0.006979
159 0.006004
169 0.007017
174 0.006036
176 0.007015
152 0.006947
90 0.005955
68 0.005987
69 0.006949
81 0.006021
94 0.006038
111 0.005972
125 0.005984
128 0.006
123 0.006016
117 0.005941
121 0.006011
130 0.005019
142 0.004973
148 0.005029
155 0.004981
162 0.004988
167 0.00502
174 0.005986
164 0.005988
117 0.005996
76 0.006016
63 0.005939
73 0.005022
88 0.006018
103 0.005976
113 0.005949
118 0.00503
114 0.005985
110 0.005039
115 0.004974
123 0.004975
133 0.005004
142 0.005066
152 0.004987
158 0.005959
164 0.004985
174 0.005984
162 0.004986
115 0.005944
76 0.005028
63 0.005017
78 0.004956
94 0.004945
110 0.004977
121 0.005019
136 0.004937
135 0.004937
133 0.00394
137 0.004008
144 0.005002
153 0.004006
157 0.004024
165 0.00404
175 0.00403
181 0.004027
187 0.003991
186 0.003995
117 0.003989
88 0.00399
87 0.004985
101 0.004001
122 0.004017
134 0.002993
146 0.005007
149 0.005033
142 0.00399
138 0.004983
142 0.005009
147 0.004033
159 0.004001
164 0.004017
172 0.003991
179 0.003965
187 0.003991
191 0.003999
175 0.004056
128 0.003979
91 0.004035
83 0.004027
95 0.003995
107 0.00299
126 0.002992
135 0.003962
137 0.002997
134 0.004034
132 0.004026
136 0.003972
143 0.004
149 0.00399
154 0.00399
164 0.003989
173 0.003995
177 0.004004
187 0.003004
170 0.003008
124 0.003027
90 0.003025
83 0.003043
96 0.003019
108 0.002992
117 0.003028
127 0.003971
137 0.003993
136 0.003025
133 0.002991
136 0.003035
140 0.00204
147 0.002045
156 0.002992
167 0.002994
175 0.002994
180 0.002961
185 0.003029
188 0.002992
147 0.003001
104 0.002994
85 0.003036
100 0.003022
114 0.002964
127 0.002008
140 0.001996
151 0.002037
149 0.003054
144 0.002025
145 0.002068
149 0.002019
155 0.001007
167 0.001956
176 0.002992
188 0.002038
192 0.002032
197 0.00202
193 0.002019
152 0.002066
106 0.002024
102 0.001995
112 0.001979
126 0.001988
140 0.001995
158 0.002025
164 0.001957
153 0.001014
147 0.001983
147 0.000998
153 0.001003
162 0.002044
173 0.001996
181 0.001995
185 0.001996
189 0.001995
192 0.002032
153 0.001983
107 0.002026
81 0.002029
90 0.001023
104 0.000994
118 0.001028
130 0.000998
142 0.001996
135 0.002007
126 0.000963
124 0.002034
129 0.002001
141 0.002044
148 0.001952
158 0.00203
163 0.001998
168 0.001176
172 0.0
161 0.0
103 0.000998
72 0.000998
67 0.001997
77 0.001
88 0.000997
102 0.001012
111 0.000997
117 0.000998
112 0.0
107 0.000965
109 0.0
115 0.0
123 0.000998
133 0.0
141 0.0
147 0.0
152 0.0
158 0.001049
142 0.0
85 0.000998
57 0.000997
62 0.0
76 0.0
89 0.0
99 0.0
113 0.0
115 0.0
114 0.0
111 0.0
114 0.0
125 0.0
135 0.000998
144 0.000967
149 0.0
159 0.000987
165 0.0
169 0.0
140 0.0
99 0.002026
73 0.0
81 0.001
98 0.000997
110 0.00203
127 0.0
131 0.003027
125 0.003027
120 0.0
122 0.00097
130 0.0
137 0.003026
144 0.002996
149 0.0
155 0.0
161 0.0
167 0.001982
170 0.000964
136 0.002038
96 0.002029
79 0.001015
87 0.0
100 0.00103
109 0.002993
116 0.003024
125 0.0
125 0.0
120 0.0
118 0.0
127 0.0
134 0.0
141 0.002041
147 0.002028
153 0.000964
158 0.0
162 0.0
166 0.002028
172 0.002993
175 0.0
151 0.0
105 0.0
74 0.0
81 0.0
93 0.003047
104 0.003
113 0.0
120 0.0
122 0.0
117 0.003037
114 0.003037
121 0.000943
129 0.0
136 0.0
144 0.000995
147 0.00094
150 0.00399
156 0.003042
165 0.000967
171 0.0
174 0.000966
174 0.002027
149 0.002992
91 0.001019
75 0.0
81 0.000967
101 0.001027
108 0.0
114 0.003038
122 0.003025
123 0.000969
120 0.0
119 0.0
122 0.003023
129 0.001982
140 0.000966
148 0.0
155 0.0
161 0.003026
165 0.0
170 0.002994
175 0.002992
183 0.002998
189 0.002991
161 0.0
114 0.002963
89 0.003054
94 0.002969
109 0.002069
123 0.0
137 0.00303
142 0.0
140 0.002985
135 0.003987
133 0.004035
140 0.002995
146 0.002993
150 0.002979
156 0.004002
163 0.004007
170 0.00302
174 0.002985
180 0.003007
184 0.003009
190 0.002995
177 0.003008
131 0.004024
92 0.002996
89 0.001996
99 0.001997
110 0.004019
119 0.004043
130 0.001996
135 0.001998
128 0.001999
126 0.002991
131 0.001962
137 0.004986
144 0.005032
154 0.002991
158 0.002991
160 0.00299
164 0.004032
169 0.005006
175 0.00299
180 0.002997
187 0.003053
183 0.001989
140 0.002041
96 0.004956
80 0.004997
84 0.002012
94 0.001984
104 0.001985
111 0.00498
120 0.005028
124 0.001988
120 0.001993
117 0.002993
123 0.002988
131 0.00299
140 0.005986
145 0.005032
152 0.002986
156 0.003993
163 0.004002
170 0.005016
176 0.004984
179 0.005035
185 0.003043
166 0.005985
100 0.003021
76 0.003012
75 0.002986
88 0.005985
104 0.005984
118 0.002992
126 0.002991
132 0.002985
130 0.005978
126 0.005059
125 0.003001
134 0.005984
146 0.003945
154 0.002991
160 0.003039
166 0.00605
172 0.006037
180 0.002995
184 0.003004
190 0.003024
185 0.006021
136 0.005983
87 0.002994
85 0.005993
106 0.003982
119 0.003958
127 0.002997
136 0.006994
141 0.006984
135 0.003999
131 0.003992
131 0.003999
137 0.005996
147 0.006
157 0.003996
167 0.005984
178 0.003957
183 0.004005
186 0.004004
188 0.006993
195 0.00697
184 0.003983
126 0.003984
83 0.003997
70 0.007018
77 0.007011
92 0.003986
105 0.006015
115 0.004987
121 0.005007
120 0.004006
117 0.006973
117 0.006991
122 0.00399
129 0.003988
139 0.003925
149 0.006946
156 0.00698
163 0.004986
169 0.006947
175 0.00798
183 0.004989
162 0.004989
107 0.005006
63 0.007983
59 0.007948
73 0.004981
88 0.004996
100 0.005952
108 0.006985
117 0.006954
114 0.006982
112 0.007981
115 0.005034
123 0.004953
132 0.004996
141 0.007972
147 0.007985
159 0.004992
165 0.005
172 0.00503
182 0.007948
185 0.007964
126 0.007014
68 0.007986
62 0.006
72 0.006005
88 0.005977
104 0.007989
118 0.007975
128 0.005995
126 0.005984
118 0.006013
113 0.007943
116 0.007926
133 0.007009
144 0.007018
153 0.004983
159 0.005986
164 0.005985
175 0.006942
178 0.00697
140 0.005994
88 0.006043
62 0.005991
64 0.006979
75 0.007959
104 0.007975
120 0.007014
125 0.006957
122 0.006968
114 0.006007
115 0.00703
119 0.007022
124 0.005983
134 0.006932
146 0.006947
157 0.006977
162 0.006957
168 0.005968
177 0.005984
147 0.006982
88 0.005981
52 0.005959
48 0.005962
62 0.006984
73 0.006017
85 0.005982
94 0.005963
102 0.005978
102 0.006015
93 0.005992
96 0.006011
104 0.006015
114 0.006999
128 0.006977
133 0.006983
139 0.006014
145 0.005978
155 0.005986
157 0.005987
122 0.005984
70 0.005982
34 0.005938
44 0.004993
59 0.00598
73 0.005977
82 0.005986
91 0.005983
90 0.004999
86 0.005018
86 0.006012
94 0.004977
102 0.006026
110 0.006015
122 0.005982
130 0.006014
140 0.006043
151 0.005926
156 0.006094
154 0.005987
110 0.00502
61 0.004986
40 0.005027
49 0.004972
63 0.004987
75 0.005019
95 0.004943
105 0.004929
103 0.004987
95 0.00496
97 0.004981
105 0.004943
115 0.00501
125 0.004035
136 0.003964
141 0.003999
145 0.005
152 0.005029
164 0.00501
137 0.004996
83 0.005016
50 0.005019
50 0.004939
66 0.005002
82 0.004983
93 0.004032
104 0.004005
106 0.003987
100 0.004003
99 0.003979
104 0.003975
111 0.004049
119 0.00399
128 0.003997
140 0.004941
147 0.004939
153 0.004945
157 0.004047
164 0.003984
170 0.003939
136 0.003985
80 0.003989
41 0.002962
47 0.002993
61 0.002961
75 0.004004
89 0.003971
98 0.004015
97 0.00299
92 0.003011
92 0.002991
99 0.004024
109 0.002996
117 0.002991
128 0.002993
134 0.002994
142 0.003037
149 0.002992
158 0.003994
164 0.003025
168 0.003025
156 0.003022
104 0.002961
50 0.003965
40 0.002994
48 0.003943
70 0.003017
81 0.002968
94 0.003022
102 0.003025
98 0.003023
95 0.003022
98 0.002999
107 0.003024
120 0.003019
134 0.003022
140 0.003
146 0.003023
160 0.003026
169 0.003035
177 0.001995
185 0.002052
187 0.001993
124 0.002065
75 0.003024
57 0.002024
63 0.002992
77 0.002992
96 0.002009
110 0.003024
126 0.002045
122 0.001995
115 0.002026
112 0.002029
117 0.002018
132 0.002028
144 0.001983
150 0.001987
155 0.002975
161 0.001995
170 0.002027
177 0.001996
184 0.001
147 0.001004
90 0.002058
58 0.000998
55 0.001997
75 0.001997
93 0.00198
107 0.002027
120 0.002028
123 0.001998
115 0.001994
112 0.001032
120 0.001996
130 0.000997
138 0.002041
147 0.000997
155 0.002037
164 0.002026
170 0.002026
177 0.001995
182 0.002028
188 0.002032
170 0.000997
106 0.001972
47 0.000998
49 0.000999
61 0.000998
76 0.000997
88 0.000997
103 0.001
109 0.001984
107 0.002026
101 0.000998
101 0.000997
109 0.000997
124 0.000997
138 0.0
147 0.0
153 0.0
161 0.0
169 0.0
177 0.0
188 0.0
178 0.001
117 0.000968
64 0.000997
43 0.000997
55 0.000997
79 0.000997
93 0.0
106 0.0
115 0.001029
115 0.0
111 0.0
113 0.0
121 0.001047
129 0.000997
139 0.0
151 0.0
166 0.001035
176 0.0
185 0.000992
193 0.003024
199 0.000997
144 0.000996
86 0.0
61 0.000996
62 0.003035
83 0.0
100 0.000965
115 0.000997
129 0.002066
131 0.001002
122 0.003021
117 0.003025
124 0.0
136 0.0
147 0.0
159 0.003026
167 0.003038
176 0.0
181 0.0
189 0.0
192 0.003024
105 0.0
62 0.003039
50 0.002977
66 0.0
84 0.0
96 0.000964
110 0.002989
121 0.003037
120 0.003021
111 0.0
112 0.000978
118 0.0
134 0.0
144 0.0
151 0.002992
159 0.003031
169 0.0
178 0.0
186 0.0
191 0.003027
162 0.002994
77 0.0
45 0.0
41 0.0
64 0.0
75 0.0
86 0.002995
99 0.002994
106 0.0
101 0.0
99 0.001
100 0.003046
107 0.003047
123 0.0
135 0.0
144 0.0
156 0.0
164 0.0
171 0.002961
180 0.003027
173 0.0
114 0.0
60 0.0
38 0.003035
42 0.002832
66 0.000966
80 0.0
92 0.0
110 0.000975
110 0.000965
110 0.002993
110 0.002993
120 0.0
133 0.00103
146 0.0
158 0.003039
170 0.003041
185 0.0
193 0.0
203 0.0
213 0.0
170 0.0
102 0.003025
68 0.004027
71 0.0
90 0.0
112 0.0
126 0.004024
148 0.003956
159 0.0
152 0.0
144 0.0
145 0.0
158 0.0
171 0.002965
186 0.003957
199 0.002983
213 0.0
223 0.002995
155 0.002024
228 0.003992
177 0.002991
105 0.002993
87 0.002992
105 0.003027
128 0.002989
146 0.002995
166 0.002994
175 0.003049
161 0.002991
150 0.002985
147 0.001987
149 0.004038
156 0.003988
171 0.001983
179 0.001997
191 0.001991
197 0.002992
198 0.002953
159 0.005021
94 0.004022
48 0.003
43 0.002992
50 0.002025
62 0.003991
75 0.003994
97 0.002987
104 0.002026
91 0.002022
89 0.002991
93 0.002976
102 0.004002
113 0.004025
128 0.002993
137 0.00199
146 0.002993
155 0.004989
163 0.004991
143 0.002993
82 0.002999
19 0.002992
16 0.003015
25 0.003004
38 0.00497
48 0.005081
62 0.00298
74 0.002968
78 0.002994
79 0.004975
82 0.004982
88 0.001974
100 0.002948
118 0.004992
133 0.003982
144 0.003
154 0.00299
162 0.003987
168 0.003997
135 0.002987
75 0.002984
34 0.00298
22 0.005966
31 0.006025
49 0.002991
63 0.005999
82 0.002975
92 0.003021
94 0.003038
92 0.00502
95 0.00502
103 0.002958
112 0.00297
126 0.002992
137 0.005991
146 0.006026
156 0.003021
166 0.005983
177 0.002987
183 0.003957
189 0.002991
157 0.005984
92 0.007015
38 0.003997
40 0.003993
54 0.003989
69 0.006002
80 0.00597
97 0.003016
112 0.006002
111 0.002958
110 0.002986
112 0.002995
120 0.005973
133 0.006992
149 0.003992
159 0.003957
167 0.003962
175 0.006986
182 0.00698
192 0.003999
204 0.006967
206 0.003998
161 0.004974
98 0.004954
66 0.006999
60 0.006969
77 0.004019
93 0.003997
107 0.004022
123 0.006987
133 0.006984
128 0.003998
122 0.007933
126 0.007947
140 0.003989
153 0.005013
165 0.004023
176 0.007979
186 0.007956
193 0.003982
198 0.003987
205 0.003983
215 0.007011
223 0.007005
156 0.007981
92 0.006989
65 0.003985
73 0.004013
92 0.004986
120 0.00795
139 0.007969
151 0.004032
148 0.005005
137 0.004982
131 0.007971
133 0.007948
153 0.006949
166 0.007977
177 0.004981
186 0.004981
199 0.004994
205 0.007963
209 0.007964
211 0.004992
180 0.004984
114 0.004985
66 0.006983
64 0.007015
91 0.006989
111 0.006983
130 0.00599
144 0.005991
144 0.005994
132 0.006971
129 0.00697
133 0.005985
140 0.00498
151 0.004989
168 0.00797
178 0.007978
