82 0.007979
85 0.006928
94 0.006981
98 0.006982
101 0.00666
108 0.007125
113 0.006023
121 0.006013
129 0.005992
137 0.003988
144 0.004986
148 0.003989
154 0.003947
161 0.002992
170 0.002007
132 0.001044
82 0.001002
75 0.000998
91 0.0
93 0.000963
88 0.000988
91 0.001995
88 0.002995
84 0.002997
84 0.003021
90 0.00299
101 0.003989
117 0.003957
124 0.003997
132 0.006024
140 0.006016
146 0.005909
153 0.007027
172 0.006981
192 0.006039
199 0.006981
197 0.005964
198 0.00503
154 0.005034
115 0.001995
120 0.002993
132 0.000968
133 0.001995
132 0.0
134 0.0
134 0.000951
129 0.001012
136 0.002991
142 0.002977
154 0.002997
161 0.003173
165 0.003987
172 0.004841
178 0.004945
183 0.005946
188 0.006943
194 0.00698
201 0.007025
209 0.007024
214 0.007028
225 0.006981
200 0.007025
157 0.007045
124 0.007944
122 0.007978
127 0.007979
119 0.007978
111 0.006981
110 0.006928
108 0.00698
102 0.005978
106 0.005983
113 0.004994
123 0.00304
132 0.002137
137 0.001995
144 0.001995
153 0.001032
157 0.000997
164 0.0
173 0.00098
180 0.001001
188 0.000997
196 0.000998
200 0.001
193 0.000997
154 0.000998
104 0.001023
107 0.000998
112 0.00104
111 0.001905
107 0.001994
111 0.002009
108 0.00399
107 0.00399
114 0.004016
127 0.003846
135 0.003947
145 0.00399
147 0.00399
153 0.004956
160 0.004939
166 0.006972
173 0.007942
179 0.006943
183 0.006963
190 0.005983
203 0.004038
205 0.003988
146 0.004
115 0.003997
108 0.003991
114 0.003989
114 0.00399
106 0.002988
109 0.003021
104 0.001037
102 0.001034
108 0.0
114 0.0
128 0.0
134 0.000968
141 0.000998
146 0.000999
151 0.000996
158 0.002993
167 0.003988
173 0.002989
181 0.002991
186 0.002992
194 0.003013
195 0.003956
158 0.004971
99 0.005041
92 0.004955
96 0.004955
95 0.004983
92 0.004962
93 0.005956
88 0.006949
85 0.006946
91 0.006949
102 0.006944
113 0.007934
123 0.007978
128 0.007019
136 0.007811
144 0.007979
149 0.007951
157 0.00795
165 0.005974
171 0.005948
180 0.005033
184 0.006019
192 0.004946
200 0.003001
205 0.003031
148 0.000997
97 0.001992
84 0.001994
85 0.001005
85 0.001995
78 0.001035
79 0.002003
74 0.001046
68 0.001996
74 0.001995
81 0.001994
95 0.001996
102 0.001025
109 0.000981
114 0.0
118 0.001
126 0.0
127 0.016955
139 0.000984
148 0.0
152 0.0
159 0.0
174 0.0
180 0.0
146 0.0
102 0.0
71 0.0
80 0.0
87 0.0
86 0.0
89 0.0
90 0.000997
87 0.001996
91 0.003063
105 0.000991
119 0.001995
128 0.002992
138 0.002983
145 0.004989
150 0.004958
159 0.004983
165 0.004993
175 0.005946
183 0.005985
187 0.005983
196 0.007029
186 0.005989
139 0.005036
90 0.0051
82 0.003989
88 0.003032
86 0.00301
82 0.000997
84 0.0
82 0.000998
80 0.000999
86 0.000998
97 0.000998
108 0.000994
117 0.002011
127 0.001958
130 0.002953
139 0.002962
148 0.002954
152 0.002963
163 0.002948
169 0.002954
177 0.004994
185 0.004954
191 0.004954
196 0.004986
127 0.005984
85 0.00698
65 0.007979
70 0.006984
68 0.007979
61 0.007978
61 0.00797
60 0.007021
56 0.006024
57 0.007024
68 0.006017
84 0.004033
89 0.005032
97 0.003989
102 0.003989
109 0.004031
121 0.002999
124 0.00399
138 0.002991
150 0.002996
156 0.003024
166 0.002993
171 0.00299
180 0.00317
189 0.003035
147 0.000997
79 0.002039
45 0.000997
46 0.001995
51 0.001996
44 0.001995
44 0.003006
45 0.00402
42 0.003948
43 0.00402
54 0.004797
65 0.00598
82 0.005947
93 0.006023
99 0.007016
111 0.006985
116 0.007978
121 0.007979
132 0.00702
140 0.00702
150 0.00699
158 0.007975
162 0.006981
171 0.007969
167 0.006024
121 0.005984
42 0.006012
25 0.003026
30 0.004029
32 0.002993
24 0.002982
25 0.002993
22 0.002033
20 0.002033
27 0.0
44 0.0
54 0.0
68 0.0
74 0.0
85 0.001995
94 0.003991
105 0.003957
114 0.005943
129 0.006982
143 0.007943
151 0.005983
164 0.003959
159 0.002999
113 0.002992
46 0.002992
39 0.0
47 0.002027
53 0.0
55 0.000998
59 0.000998
57 0.013963
53 0.002993
60 0.00399
81 0.006981
101 0.007979
104 0.007947
120 0.005201
129 0.005023
140 0.004024
150 0.003989
159 0.004035
170 0.002043
179 0.002992
188 0.002028
196 0.002992
198 0.001994
151 0.001995
56 0.001989
29 0.000999
32 0.000999
33 0.0
26 0.0
28 0.000998
30 0.0
30 0.001013
34 0.000998
51 0.000998
64 0.000999
82 0.002026
94 0.002901
101 0.002993
113 0.002992
121 0.002993
132 0.003979
142 0.004032
154 0.004033
164 0.003986
174 0.003989
182 0.004059
196 0.003986
196 0.003999
108 0.003972
52 0.003976
24 0.004034
33 0.003983
35 0.003986
29 0.003989
35 0.005985
36 0.007008
38 0.006981
44 0.006982
63 0.006992
85 0.006981
95 0.007055
107 0.006848
115 0.007965
121 0.005985
130 0.00702
140 0.006029
149 0.006982
164 0.005019
171 0.004985
181 0.002992
190 0.000997
196 0.000998
205 0.001038
142 0.001012
63 0.0
32 0.0
40 0.0
46 0.000998
37 0.000997
39 0.000998
42 0.000998
38 0.002027
40 0.002993
54 0.003965
73 0.004024
82 0.004023
92 0.003989
98 0.003991
107 0.003985
116 0.004025
125 0.00404
134 0.003959
147 0.004024
153 0.004024
164 0.005985
171 0.00696
186 0.006965
177 0.004982
90 0.004025
56 0.004021
54 0.004151
65 0.004026
72 0.002027
77 0.002043
83 0.001032
82 0.002034
82 0.001995
92 0.001995
115 0.001027
127 0.001067
143 0.0
154 0.000997
163 0.000949
172 0.001995
182 0.002002
190 0.002026
203 0.001963
215 0.001994
223 0.002994
235 0.002959
215 0.002951
134 0.003005
106 0.002988
109 0.00296
116 0.003006
111 0.002994
109 0.002953
114 0.006012
114 0.006011
113 0.005983
124 0.006983
134 0.006985
150 0.007027
160 0.007018
166 0.006982
174 0.00712
180 0.007019
190 0.00602
201 0.005019
209 0.005985
220 0.005034
181 0.00504
234 0.004032
244 0.004023
222 0.000999
172 0.000997
121 0.001033
118 0.000998
123 0.0
118 0.001001
111 0.000997
112 0.000999
108 0.000997
106 0.003024
111 0.002984
121 0.002954
133 0.002947
142 0.002993
149 0.002997
156 0.002968
164 0.003005
169 0.002959
179 0.005017
190 0.005254
196 0.006045
206 0.006021
210 0.006018
219 0.006016
231 0.006017
223 0.007014
145 0.007008
104 0.006937
98 0.006972
104 0.006985
103 0.006014
93 0.004987
96 0.004985
96 0.005009
96 0.004986
105 0.003989
114 0.004991
126 0.004038
128 0.003035
128 0.002033
122 0.001982
128 0.001028
133 0.000998
141 0.0
148 0.0
155 0.0
160 0.000998
166 0.0
171 0.001
179 0.0
167 0.0
91 0.0
63 0.0
62 0.0
70 0.0
73 0.0
78 0.0
83 0.0
81 0.0
84 0.0
93 0.0
115 0.0
125 0.000997
139 0.001013
142 0.001009
146 0.001995
154 0.003289
164 0.002955
171 0.002955
184 0.004038
191 0.004026
180 0.003959
97 0.003991
71 0.00399
74 0.003989
83 0.003988
86 0.003988
87 0.003989
91 0.003991
90 0.003982
91 0.004023
98 0.005023
113 0.004981
123 0.003995
135 0.004987
142 0.004991
144 0.004984
153 0.004996
158 0.005025
167 0.005021
177 0.004898
184 0.005023
198 0.004987
183 0.005026
101 0.006017
67 0.005984
68 0.005813
73 0.006016
67 0.005996
65 0.006018
66 0.006017
64 0.005989
63 0.006
76 0.006018
87 0.006019
104 0.006019
111 0.006982
117 0.007985
128 0.005935
135 0.005982
145 0.006016
153 0.005982
159 0.005963
170 0.006017
177 0.006025
183 0.005989
131 0.006969
81 0.005978
73 0.005984
78 0.0
83 0.006007
77 0.006016
81 0.005984
82 0.005977
81 0.005134
85 0.005983
97 0.005025
105 0.005984
115 0.00498
121 0.005023
124 0.003984
131 0.004976
135 0.003985
145 0.003964
153 0.003997
159 0.004024
168 0.003961
176 0.003978
171 0.003026
121 0.003987
83 0.002989
82 0.004023
93 0.002968
92 0.002988
87 0.002994
89 0.003022
87 0.001995
86 0.0
91 0.001033
105 0.0
119 0.0
123 0.0
135 0.000997
141 0.000997
147 0.000998
158 0.002018
163 0.002991
175 0.003031
185 0.004021
191 0.00399
148 0.005019
105 0.005998
105 0.006023
118 0.006013
120 0.007013
116 0.006971
120 0.007017
120 0.005979
119 0.003989
123 0.002992
134 0.000996
145 0.000949
152 0.002033
159 0.003026
162 0.002994
170 0.005001
178 0.005023
183 0.005023
192 0.004023
200 0.004987
205 0.004986
211 0.005038
217 0.005018
220 0.007979
169 0.007933
116 0.006945
100 0.007978
103 0.007943
100 0.005982
83 0.004031
84 0.002987
84 0.003994
81 0.001981
89 0.000983
97 0.001038
110 0.000965
117 0.000996
124 0.000974
133 0.001004
139 0.000988
149 0.001059
155 0.00104
164 0.000974
172 0.002006
179 0.001008
188 0.000998
196 0.0
200 0.0
209 0.0
215 0.0
209 0.0
149 0.0
103 0.0
90 0.0
93 0.0
98 0.0
90 0.000999
90 0.002046
88 0.002926
81 0.003049
86 0.002993
97 0.002993
107 0.002992
120 0.002991
122 0.002994
123 0.003022
125 0.003946
140 0.003029
147 0.005021
153 0.006009
160 0.007975
165 0.007
172 0.005971
178 0.006019
177 0.00602
176 0.006018
185 0.005939
149 0.005984
81 0.005035
70 0.005985
82 0.00197
90 0.003026
83 0.003034
80 0.002033
80 0.001988
70 0.002159
67 0.003
74 0.000997
86 0.002952
97 0.001006
102 0.00101
107 0.002054
111 0.002022
116 0.002007
122 0.001995
135 0.00299
148 0.004018
166 0.003995
173 0.00402
185 0.003992
208 0.003969
206 0.003987
136 0.003981
104 0.00396
97 0.003943
107 0.004951
110 0.004962
111 0.006992
112 0.006952
108 0.006983
105 0.007362
107 0.007011
122 0.006979
136 0.006944
146 0.004978
150 0.004993
154 0.003989
157 0.002992
160 0.002992
166 0.001039
172 0.003021
185 0.002031
192 0.002992
207 0.000966
176 0.00103
121 0.000998
63 0.000995
59 0.000998
61 0.000978
57 0.0
54 0.0
57 0.0
55 0.000998
51 0.0
56 0.0
66 0.000959
84 0.002038
97 0.001025
104 0.0
115 0.000992
124 0.002006
133 0.001996
145 0.002022
154 0.002049
162 0.002019
173 0.002041
182 0.002026
170 0.002993
83 0.00402
52 0.00399
45 0.007023
55 0.005971
57 0.006027
54 0.004981
58 0.004029
56 0.005029
54 0.006196
65 0.00399
78 0.004032
98 0.003997
106 0.004016
116 0.004015
125 0.002027
130 0.00399
143 0.002029
150 0.004039
163 0.002001
175 0.002033
181 0.001959
193 0.001996
149 0.0
101 0.0
70 0.0
75 0.001027
82 0.002012
79 0.000998
76 0.001019
77 0.000998
71 0.001997
70 0.001995
79 0.004022
91 0.00399
101 0.00399
107 0.005022
111 0.005984
117 0.006019
125 0.005985
128 0.007012
135 0.006991
142 0.006981
150 0.006983
155 0.004973
89 0.004978
60 0.004986
56 0.004968
64 0.005018
73 0.00502
78 0.005005
81 0.00502
75 0.004026
74 0.005984
82 0.00497
94 0.006009
107 0.003966
114 0.005022
121 0.00502
126 0.005165
134 0.005023
140 0.005019
150 0.004987
163 0.003987
162 0.004991
94 0.00403
63 0.00502
56 0.004037
64 0.004027
63 0.001995
62 0.002037
63 0.000999
61 0.001023
63 0.001005
72 0.00101
87 0.0
99 0.000998
110 0.002992
116 0.004022
126 0.003991
134 0.004839
139 0.005982
146 0.006016
154 0.006983
164 0.006987
129 0.007014
79 0.00698
44 0.006963
42 0.00702
44 0.00698
36 0.005982
39 0.004994
41 0.004966
39 0.005025
42 0.005021
55 0.005019
68 0.005025
80 0.002049
87 0.00399
100 0.002028
105 0.000998
116 0.001046
127 0.000998
136 0.001997
142 0.002994
156 0.003992
164 0.003989
144 0.004901
71 0.005995
54 0.005989
60 0.00695
65 0.007027
59 0.007013
60 0.006025
64 0.006017
64 0.006014
65 0.005983
72 0.006017
87 0.006027
95 0.006025
103 0.005
109 0.005984
116 0.003023
124 0.004028
134 0.003029
139 0.004023
145 0.003034
154 0.001995
160 0.003033
173 0.002016
172 0.00213
111 0.000998
82 0.000998
90 0.002967
98 0.002962
97 0.002993
96 0.00399
102 0.003989
102 0.003993
104 0.003991
115 0.003845
126 0.004008
140 0.004024
147 0.004044
152 0.004022
159 0.003986
168 0.004839
176 0.006018
183 0.006984
192 0.006981
199 0.007021
204 0.007016
207 0.00702
199 0.00703
137 0.005995
115 0.006022
115 0.00603
118 0.005025
111 0.005057
106 0.004987
109 0.004021
107 0.003991
103 0.005013
111 0.004022
121 0.004982
129 0.00495
137 0.004986
143 0.004991
148 0.005031
158 0.003039
170 0.001994
178 0.003029
189 0.001995
196 0.002992
205 0.002028
211 0.001035
184 0.001995
123 0.001002
110 0.001035
112 0.000997
114 0.002991
106 0.00285
108 0.003033
109 0.002992
108 0.002992
112 0.004983
124 0.007017
137 0.007982
144 0.006983
151 0.005034
159 0.003989
165 0.004022
173 0.002986
183 0.000967
189 0.000998
200 0.0
208 0.0
212 0.0
221 0.0
227 0.0
192 0.001035
125 0.002958
111 0.003022
113 0.002992
116 0.002952
111 0.002994
111 0.006087
109 0.006032
105 0.005984
111 0.005975
119 0.005987
135 0.006019
145 0.005987
152 0.005984
159 0.006017
166 0.00602
172 0.005989
183 0.005984
190 0.006083
200 0.005855
206 0.005984
216 0.007015
223 0.00399
109 0.003995
233 0.003988
241 0.003991
245 0.003986
192 0.003032
129 0.002992
103 0.002178
105 0.002978
110 0.002992
104 0.002992
101 0.001999
98 0.001029
89 0.000998
89 0.0
95 0.0
107 0.0
119 0.0
124 0.0
130 0.0
133 0.0
140 0.0
148 0.0
154 0.000998
165 0.000998
170 0.000997
180 0.001039
190 0.000998
197 0.000998
207 0.000993
147 0.001004
104 0.000957
82 0.000998
87 0.000998
97 0.000996
101 0.001995
107 0.003983
105 0.002998
97 0.004007
98 0.003993
112 0.00399
122 0.00402
138 0.005984
149 0.006018
154 0.005987
162 0.005989
171 0.005985
177 0.006019
187 0.006036
192 0.006878
197 0.007021
206 0.007014
207 0.007021
134 0.00698
85 0.006983
56 0.00698
60 0.007017
65 0.007012
60 0.007015
64 0.007972
64 0.006987
57 0.005985
61 0.003992
68 0.00497
89 0.003988
101 0.003989
112 0.001996
122 0.0
126 0.0
132 0.0
142 0.0
148 0.0
159 0.0
172 0.001
180 0.000986
148 0.000965
92 0.001007
34 0.000998
30 0.001
39 0.001006
38 0.000997
38 0.000998
42 0.000999
39 0.002015
40 0.002
50 0.00203
74 0.001967
87 0.002002
102 0.001998
108 0.001995
119 0.004041
130 0.004026
137 0.003988
148 0.003876
160 0.004994
167 0.005998
178 0.006022
154 0.006013
64 0.006022
30 0.006017
31 0.006016
39 0.006016
37 0.005981
37 0.006015
37 0.006018
35 0.006015
36 0.00502
46 0.006977
58 0.00698
76 0.006943
89 0.00499
96 0.003989
106 0.004021
110 0.004021
121 0.002028
132 0.000995
142 0.001016
162 0.001146
147 0.001994
83 0.0
42 0.0
44 0.001008
56 0.001004
64 0.000997
69 0.001024
74 0.000997
71 0.001995
72 0.003025
84 0.002993
105 0.002945
117 0.002995
132 0.002988
142 0.003998
147 0.005019
158 0.004991
166 0.005017
178 0.004986
190 0.006021
199 0.005985
161 0.005996
78 0.006979
62 0.006978
57 0.007947
65 0.007018
65 0.006979
65 0.005021
69 0.004987
69 0.005095
70 0.003992
77 0.003987
95 0.001996
112 0.001998
119 0.001983
130 0.00202
140 0.001045
150 0.0
159 0.0
166 0.0
176 0.0
184 0.001997
194 0.0
205 0.001994
195 0.0
120 0.0
54 0.0
48 0.0
56 0.000992
53 0.002027
50 0.001996
55 0.001998
54 0.00199
53 0.002995
61 0.003021
72 0.002992
91 0.002993
103 0.004025
111 0.00599
122 0.007015
133 0.007018
140 0.007013
150 0.006979
163 0.006016
171 0.006016
181 0.005972
187 0.00597
200 0.003027
198 0.00299
130 0.000998
63 0.000987
41 0.000961
46 0.000147
50 0.002028
48 0.0
51 0.001029
50 0.0
49 0.0
58 0.0
71 0.0
83 0.0
98 0.0
105 0.0
113 0.0
123 0.0
129 0.0
139 0.0
149 0.002045
155 0.002029
163 0.003973
172 0.004035
179 0.004045
194 0.003959
181 0.004001
86 0.004031
38 0.004034
30 0.003981
36 0.003988
40 0.004044
45 0.004069
49 0.003953
46 0.004028
42 0.004041
48 0.004026
70 0.004988
93 0.00502
104 0.005023
119 0.007016
127 0.007015
135 0.007006
149 0.007011
157 0.007012
168 0.005988
182 0.006985
200 0.005983
213 0.006982
155 0.006985
99 0.005983
55 0.004986
62 0.00299
71 0.003983
84 0.002993
97 0.003982
97 0.002989
87 0.002994
91 0.002997
104 0.002982
126 0.002001
139 0.001991
153 0.000988
160 0.001086
168 0.002037
173 0.001991
179 0.0
187 0.001046
196 0.0
204 0.0
158 0.0
90 0.0
24 0.0
20 0.0
28 0.0
30 0.0
29 0.0
29 0.001044
27 0.0
29 0.001015
48 0.000966
73 0.001013
89 0.001001
108 0.001995
114 0.001995
125 0.001996
135 0.001992
140 0.002044
152 0.002992
166 0.003988
177 0.002982
186 0.004023
142 0.003023
41 0.004032
12 0.00391
20 0.004022
32 0.003991
32 0.00399
41 0.003989
47 0.003989
48 0.00403
55 0.004045
78 0.00602
93 0.00602
115 0.006025
125 0.00605
136 0.006021
148 0.006018
155 0.006982
168 0.007028
176 0.00698
190 0.00688
202 0.007015
198 0.007031
148 0.007009
64 0.006981
48 0.005017
56 0.002033
59 0.001006
58 0.003117
65 0.001978
61 0.001008
60 0.0
67 0.000997
84 0.00103
95 0.003029
109 0.003991
119 0.004025
124 0.003992
135 0.005024
147 0.006095
155 0.006105
172 0.006021
184 0.006983
185 0.006026
124 0.007941
71 0.005968
63 0.007973
75 0.005985
80 0.005983
86 0.003989
90 0.001986
87 0.003023
88 0.002007
95 0.002992
117 0.000969
136 0.0
143 0.000956
151 0.0
162 0.001073
168 0.0
177 0.000998
188 0.000968
196 0.000966
210 0.001006
201 0.000993
114 0.001029
60 0.000998
58 0.001029
65 0.000998
61 0.000998
62 0.002037
67 0.000998
64 0.000997
64 0.002004
72 0.001996
88 0.001996
108 0.001996
116 0.002029
127 0.002038
136 0.002995
144 0.004024
156 0.004022
163 0.004043
176 0.00399
189 0.004051
198 0.003991
140 0.004041
68 0.004043
40 0.004032
43 0.003951
49 0.004957
46 0.005021
52 0.005081
52 0.005021
50 0.004995
53 0.005032
68 0.005021
89 0.006032
98 0.007021
109 0.006992
118 0.00699
123 0.006982
132 0.006754
138 0.006943
149 0.006973
158 0.005028
164 0.005042
176 0.004027
175 0.006982
105 0.004973
38 0.00497
21 0.003032
31 0.002036
39 0.001996
42 0.002027
51 0.001994
50 0.002036
50 0.001996
63 0.0
82 0.000997
100 0.0
116 0.0
123 0.000998
139 0.0
149 0.0
157 0.000997
170 0.001006
185 0.001997
194 0.002994
208 0.002993
147 0.004969
85 0.004984
37 0.005024
40 0.006971
47 0.006994
44 0.006979
48 0.007011
55 0.007979
54 0.007755
57 0.007955
75 0.007974
90 0.007981
111 0.007979
122 0.00399
128 0.006025
138 0.004021
150 0.003952
159 0.003982
171 0.003991
179 0.003993
192 0.003001
201 0.00199
208 0.001951
217 0.00301
152 0.003025
87 0.00399
39 0.003032
40 0.002992
52 0.003023
48 0.0
53 0.002033
58 0.0
56 0.0
59 0.0
78 0.0
104 0.000997
117 0.002031
133 0.002025
140 0.002993
152 0.004038
168 0.005044
183 0.006983
192 0.006979
207 0.006978
217 0.007014
237 0.00698
232 0.007171
162 0.006016
96 0.007022
80 0.006034
88 0.004989
98 0.004988
107 0.003021
112 0.002992
111 0.002027
113 0.001997
121 0.000999
145 0.000998
159 0.000998
176 0.0
189 0.000947
195 0.000961
205 0.0
212 0.0
226 0.0
238 0.001041
246 0.0
255 0.001023
255 0.0
255 0.001995
197 0.001033
133 0.002039
84 0.002042
88 0.0
96 0.000865
94 0.000998
99 0.001995
98 0.001996
93 0.001995
96 0.002993
110 0.002949
134 0.002961
146 0.004986
160 0.004977
171 0.004983
177 0.005978
185 0.006975
199 0.005975
207 0.004957
219 0.004987
227 0.004956
238 0.004986
188 0.006018
172 0.004025
132 0.004029
107 0.003023
107 0.00399
113 0.001989
114 0.004026
115 0.000997
114 0.000966
112 0.0
113 0.0
120 0.000967
126 0.0
135 0.000993
138 0.000997
144 0.0
148 0.002031
152 0.0
157 0.000997
164 0.001011
168 0.002038
176 0.001935
182 0.002992
165 0.003986
133 0.003985
119 0.006986
123 0.007997
131 0.007969
134 0.006194
137 0.007026
136 0.006026
133 0.007021
133 0.004026
140 0.002976
146 0.002975
155 0.002997
159 0.002979
162 0.003999
165 0.001991
168 0.002027
171 0.001976
175 0.002026
178 0.0
182 0.0
185 0.000997
167 0.001995
122 0.002992
107 0.002961
109 0.001995
112 0.001987
97 0.004024
99 0.004984
100 0.004991
96 0.005986
98 0.006982
110 0.006976
117 0.007979
133 0.007033
142 0.005968
146 0.005988
153 0.005952
162 0.005983
168 0.005934
174 0.005995
180 0.005991
189 0.005986
197 0.005984
195 0.004022
141 0.004987
76 0.005027
68 0.00502
77 0.004986
80 0.004987
80 0.002989
86 0.002989
83 0.002991
79 0.002989
84 0.003
103 0.002994
122 0.002024
129 0.002036
138 0.000998
143 0.002992
150 0.000995
157 0.002065
167 0.0
174 0.000998
189 0.000998
194 0.002009
147 0.001998
86 0.002
61 0.002035
66 0.001995
76 0.002026
77 0.001995
84 0.003476
84 0.004032
81 0.003999
88 0.003985
99 0.003996
119 0.003986
129 0.003997
139 0.003973
148 0.003984
152 0.003993
160 0.003985
169 0.004022
175 0.003991
186 0.004964
189 0.003986
125 0.005986
68 0.006971
56 0.006982
67 0.007973
77 0.007984
79 0.007979
87 0.007994
83 0.005028
80 0.005986
87 0.001974
107 0.001002
120 0.0
132 0.000997
143 0.0
147 0.0
153 0.0
158 0.0
166 0.0
173 0.002008
179 0.001989
190 0.001998
141 0.001976
87 0.002008
44 0.001993
48 0.001993
63 0.002992
68 0.001997
75 0.002963
74 0.003995
66 0.005002
67 0.004996
81 0.005985
94 0.006015
113 0.006014
126 0.005956
132 0.005986
140 0.006015
147 0.006985
153 0.005989
164 0.005972
173 0.006011
181 0.005986
134 0.006992
71 0.006003
51 0.006979
68 0.005984
78 0.004991
91 0.004995
99 0.004983
94 0.004989
87 0.002989
93 0.004988
112 0.002989
135 0.001996
144 0.000996
154 0.000991
160 0.0
162 0.0
171 0.0
175 0.0
185 0.0
191 0.0
151 0.0
63 0.0
41 0.000999
49 0.00296
64 0.002979
67 0.003007
73 0.002828
71 0.002987
69 0.003006
73 0.003005
92 0.002993
106 0.00402
125 0.004986
133 0.005019
141 0.004984
151 0.006028
156 0.007018
164 0.00499
172 0.004983
179 0.005236
194 0.003026
149 0.001996
88 0.000983
34 0.000994
42 0.001996
57 0.0
61 0.002
71 0.001984
71 0.001997
65 0.001
67 0.000997
82 0.001008
103 0.0
115 0.001111
128 0.000963
137 0.002029
146 0.0
154 0.0
160 0.0
167 0.000997
177 0.0
191 0.0
187 0.001002
140 0.000996
52 0.002011
32 0.001996
41 0.002988
57 0.003988
63 0.004003
67 0.003991
64 0.003992
60 0.004023
66 0.003997
84 0.004026
96 0.004005
113 0.005017
125 0.005964
130 0.007013
137 0.006985
144 0.005987
149 0.00598
158 0.005982
165 0.004995
180 0.004971
139 0.004991
82 0.004997
29 0.004984
29 0.004988
49 0.002986
60 0.003977
73 0.002992
78 0.00399
70 0.003992
69 0.003992
87 0.00398
101 0.003999
122 0.003993
140 0.001976
147 0.004019
154 0.002171
161 0.002003
168 0.001993
181 0.001996
190 0.001997
144 0.001999
54 0.001996
37 0.000997
40 0.000998
60 0.001992
66 0.0
79 0.0
80 0.0
73 0.0
79 0.001997
91 0.003021
115 0.004995
131 0.00502
144 0.005037
154 0.007012
160 0.007979
166 0.006981
175 0.005983
185 0.00404
196 0.005987
199 0.003982
101 0.002989
49 0.001
26 0.0
39 0.001999
49 0.0
55 0.001996
61 0.0
59 0.000999
55 0.001009
61 0.001977
84 0.002952
104 0.005021
123 0.006015
131 0.007021
141 0.007028
146 0.007017
155 0.007019
164 0.00698
171 0.007943
188 0.006977
154 0.005982
88 0.004986
17 0.004987
17 0.002993
30 0.001993
42 0.001991
48 0.00201
47 0.002002
41 0.002989
40 0.0
51 0.001027
76 0.000994
90 0.000995
107 0.000996
114 0.000998
124 0.00202
132 0.0
138 0.001998
151 0.0
161 0.001984
175 0.0
105 0.0
50 0.0
17 0.000997
33 0.001009
50 0.001003
70 0.001029
80 0.001031
78 0.001034
72 0.000997
76 0.000997
98 0.001024
114 0.001041
136 0.001028
150 0.002042
155 0.001032
163 0.001989
170 0.001995
180 0.003027
192 0.003029
169 0.003052
92 0.002977
37 0.003026
36 0.00399
54 0.00399
64 0.003997
72 0.00402
75 0.004991
72 0.004022
75 0.005975
96 0.006983
112 0.006977
133 0.006981
145 0.007846
153 0.005982
160 0.007015
170 0.00598
178 0.004992
190 0.004986
201 0.004988
202 0.004991
107 0.002996
58 0.004956
38 0.002983
53 0.002977
58 0.003005
67 0.000998
69 0.0
65 0.0
64 0.001031
71 0.0
93 0.0
116 0.001992
128 0.001033
139 0.0
149 0.001962
154 0.001956
165 0.002043
172 0.002061
187 0.001962
200 0.002018
166 0.002047
81 0.002024
26 0.00399
27 0.00499
46 0.006999
53 0.006964
61 0.00798
59 0.004996
54 0.006962
53 0.00605
73 0.003949
99 0.000992
112 0.000996
127 0.002997
134 0.002961
139 0.000998
147 0.001
155 0.001042
167 0.001034
185 0.001032
189 0.000997
107 0.000998
39 0.001962
19 0.000996
35 0.001009
52 0.001954
67 0.002007
78 0.002038
72 0.002019
65 0.001996
73 0.002002
98 0.002029
127 0.002029
142 0.002021
158 0.00402
170 0.005982
174 0.005956
185 0.006951
199 0.006983
207 0.005979
215 0.006965
166 0.00699
59 0.005974
27 0.007016
36 0.004977
50 0.00602
60 0.00302
68 0.006033
68 0.003991
64 0.006015
70 0.00401
96 0.002971
115 0.002009
140 0.001027
154 0.002039
161 0.002002
170 0.001125
175 0.001966
186 0.000998
198 0.002016
213 0.00095
218 0.002994
119 0.001995
56 0.002043
18 0.002026
27 0.002038
45 0.0
56 0.0
62 0.00198
59 0.0
56 0.0
62 0.001865
88 0.002036
117 0.002993
130 0.00399
148 0.00399
155 0.004005
164 0.004943
176 0.005014
182 0.005953
195 0.006969
212 0.006652
219 0.006925
191 0.006973
92 0.006943
27 0.006983
19 0.00798
35 0.005983
48 0.006018
60 0.006025
63 0.006018
54 0.006018
50 0.005984
60 0.004994
88 0.003954
105 0.006211
127 0.003996
140 0.002972
146 0.002965
155 0.001972
161 0.002037
175 0.0
195 0.001026
206 0.0
149 0.0
66 0.0
34 0.0
40 0.0
65 0.0
78 0.0
97 0.000998
92 0.002994
81 0.003955
84 0.004986
97 0.004987
128 0.004989
155 0.005018
167 0.004984
180 0.00498
188 0.004973
192 0.005018
203 0.004982
213 0.004978
208 0.005976
158 0.006
86 0.005987
26 0.005986
28 0.005784
50 0.005979
61 0.007969
70 0.005947
73 0.007972
64 0.007978
67 0.007984
89 0.007979
101 0.008052
130 0.006058
151 0.002952
163 0.003032
167 0.00101
173 0.0
179 0.0
193 0.001998
212 0.0
221 0.0
147 0.0
51 0.0
14 0.002002
18 0.000998
43 0.003959
51 0.002993
64 0.002986
63 0.00399
55 0.003968
59 0.003782
77 0.003994
102 0.004023
123 0.003989
138 0.003999
151 0.004021
157 0.003987
166 0.003992
178 0.003956
186 0.003953
205 0.004982
216 0.004987
138 0.004987
27 0.004988
4 0.004987
19 0.00498
37 0.004985
56 0.004985
68 0.004987
63 0.004986
51 0.004987
58 0.007974
74 0.006981
99 0.007979
122 0.005986
142 0.007869
153 0.007978
157 0.007978
164 0.007979
174 0.004985
182 0.005984
203 0.004012
212 0.005985
121 0.00296
22 0.002008
7 0.001994
29 0.001968
51 0.00204
72 0.0
82 0.002028
67 0.002044
60 0.002047
72 0.002036
90 0.002032
123 0.0
145 0.000998
160 0.002072
169 0.001995
175 0.001996
181 0.001994
194 0.001995
204 0.001995
218 0.003984
119 0.003996
49 0.003943
5 0.004016
26 0.003985
43 0.004993
63 0.005993
72 0.006998
65 0.006976
59 0.006981
68 0.006981
92 0.004987
117 0.005985
139 0.002981
154 0.005023
164 0.006039
168 0.004988
177 0.005037
189 0.003001
198 0.004988
218 0.002995
217 0.004988
99 0.001993
5 0.001962
0 0.002005
21 0.001002
38 0.0
48 0.0
58 0.000998
51 0.002993
49 0.005023
67 0.005989
101 0.00598
114 0.006986
137 0.006976
148 0.007013
157 0.004983
164 0.004023
173 0.004036
180 0.002992
196 0.002027
218 0.0
211 0.002029
115 0.000997
8 0.0
0 0.001995
17 0.002034
40 0.002956
51 0.002962
58 0.005016
49 0.005988
48 0.005951
62 0.005012
94 0.003987
113 0.003007
133 0.003989
146 0.004027
152 0.003022
161 0.002992
168 0.0
178 0.000997
190 0.000998
210 0.000994
222 0.000966
170 0.000967
85 0.000963
0 0.002041
67 0.002988
77 0.003996
87 0.004986
94 0.006981
94 0.006968
88 0.005992
90 0.00695
98 0.006984
115 0.005972
123 0.006976
133 0.005988
137 0.007978
141 0.005991
145 0.007979
152 0.007978
155 0.007978
163 0.007032
170 0.005017
175 0.004985
118 0.003993
83 0.006032
66 0.003029
82 0.002977
91 0.001993
103 0.000983
106 0.001016
100 0.0
97 0.0
105 0.000998
116 0.001997
133 0.002995
144 0.005984
148 0.006981
152 0.006984
155 0.006986
159 0.004988
164 0.007013
171 0.005981
177 0.004992
186 0.004986
134 0.0
94 0.002026
65 0.0
73 0.001966
82 0.001997
92 0.002992
100 0.003985
98 0.003957
93 0.00499
99 0.006025
108 0.006998
121 0.005971
135 0.005945
142 0.006968
146 0.005982
149 0.005984
153 0.002994
158 0.003988
162 0.002985
170 0.002006
182 0.0
181 0.00103
117 0.0
72 0.000999
61 0.0
74 0.0
82 0.0
89 0.0
94 0.001997
92 0.000817
89 0.000996
97 0.002007
106 0.002002
123 0.003996
135 0.005976
140 0.005986
145 0.005998
149 0.007016
151 0.005982
157 0.007977
164 0.007975
169 0.006978
180 0.004986
177 0.005982
111 0.004969
62 0.002974
59 0.004987
73 0.003993
84 0.003013
90 0.002992
92 0.0
87 0.0
87 0.0
95 0.0
111 0.002992
120 0.002962
131 0.004985
137 0.005985
139 0.006018
143 0.005942
146 0.005981
151 0.003978
158 0.005986
169 0.005984
174 0.006018
133 0.004987
92 0.005985
58 0.004987
68 0.002962
79 0.004986
92 0.002985
98 0.004987
96 0.002996
90 0.002996
92 0.001997
107 0.000985
124 0.002002
133 0.001992
142 0.001995
145 0.001995
149 0.0
154 0.0
158 0.001983
165 0.00196
173 0.001989
181 0.001994
144 0.001995
78 0.003989
60 0.00399
67 0.006014
83 0.005978
87 0.007979
96 0.005986
94 0.004988
92 0.005981
94 0.005985
109 0.003992
120 0.002994
134 0.001995
140 0.002973
144 0.0
148 0.002053
151 0.000996
156 0.00203
164 0.002025
169 0.002026
181 0.001997
154 0.0
108 0.001993
64 0.000971
56 0.001029
68 0.000998
80 0.001003
85 0.000998
91 0.000998
88 0.001987
87 0.003018
97 0.001997
106 0.003026
123 0.003004
134 0.00399
138 0.003988
143 0.005038
148 0.005011
151 0.004956
158 0.006033
165 0.007014
174 0.006976
179 0.007013
140 0.006961
96 0.005984
58 0.005024
60 0.005023
77 0.00499
87 0.00298
92 0.003991
92 0.002986
89 0.0
91 0.0
101 0.0
118 0.0
127 0.0
137 0.0
141 0.001006
146 0.001012
151 0.001
154 0.001001
161 0.002948
170 0.003001
176 0.002946
174 0.002998
138 0.002992
78 0.003989
65 0.003026
75 0.003991
87 0.006019
96 0.006038
100 0.006014
96 0.006021
92 0.006015
96 0.005985
110 0.005886
120 0.005985
133 0.005984
140 0.006995
143 0.006951
148 0.006982
151 0.00695
157 0.006948
167 0.006955
176 0.007006
173 0.006952
126 0.006949
86 0.008022
75 0.007925
82 0.007972
97 0.005986
109 0.00397
113 0.005982
108 0.003993
105 0.001995
109 0.001975
125 0.0
139 0.000956
147 0.000996
154 0.001017
157 0.002041
160 0.002048
164 0.00296
171 0.004034
176 0.003962
187 0.004026
184 0.005981
120 0.006046
78 0.005892
68 0.005989
77 0.007668
87 0.007984
89 0.007964
97 0.007972
95 0.003989
94 0.005989
100 0.003972
109 0.00598
126 0.003995
138 0.003992
143 0.00399
148 0.003995
152 0.003993
158 0.002987
165 0.003994
169 0.003024
180 0.003013
184 0.004022
144 0.001965
91 0.002993
67 0.001994
72 0.001992
86 0.00203
90 0.002044
97 0.002012
96 0.000967
94 0.000995
97 0.0
111 0.002027
121 0.00303
136 0.004989
145 0.005051
148 0.006017
153 0.005981
157 0.005128
164 0.005956
171 0.006985
174 0.006964
184 0.005986
190 0.007979
153 0.005969
87 0.007979
69 0.005013
71 0.007978
86 0.005954
91 0.00598
99 0.006018
96 0.00398
92 0.006037
94 0.002943
100 0.00597
116 0.003974
129 0.002983
135 0.002939
141 0.002983
146 0.002993
149 0.002994
154 0.002975
158 0.002977
169 0.003119
177 0.003039
148 0.0
97 0.003023
72 0.002045
78 0.002017
96 0.00296
103 0.001994
113 0.002009
110 0.000997
107 0.003017
108 0.000997
121 0.0
130 0.002994
144 0.002054
150 0.000998
157 0.002032
162 0.002994
166 0.003991
172 0.005977
176 0.006
181 0.003985
186 0.003942
167 0.004987
124 0.003973
76 0.00499
73 0.005029
84 0.002959
92 0.003989
102 0.004033
106 0.00301
102 0.002993
99 0.001947
102 0.001049
115 0.000959
125 0.003041
136 0.0
143 0.0
147 0.0
149 0.0
154 0.0
159 0.0
170 0.0
177 0.0
189 0.0
147 0.0
105 0.001996
77 0.00396
83 0.005022
96 0.006039
105 0.005975
116 0.005988
117 0.006051
110 0.006018
108 0.006015
119 0.005976
135 0.005994
143 0.006015
152 0.005963
157 0.005971
158 0.005984
162 0.004979
164 0.00498
173 0.00499
174 0.004951
143 0.004983
83 0.004987
69 0.004944
79 0.004982
91 0.007026
98 0.002984
104 0.007015
103 0.006029
101 0.004003
105 0.004996
113 0.005023
131 0.003984
144 0.00186
148 0.001999
153 0.001039
156 0.0
158 0.000976
162 0.0
168 0.000997
174 0.000997
151 0.002992
83 0.003003
64 0.004985
68 0.005948
80 0.003983
85 0.003016
94 0.004975
96 0.00403
93 0.0
93 0.002048
105 0.0
115 0.0
129 0.0
136 0.000997
141 0.001984
144 0.002997
149 0.004021
153 0.004021
161 0.004021
170 0.004024
156 0.003992
94 0.003997
72 0.00498
75 0.006979
92 0.006267
96 0.006876
105 0.004979
106 0.007017
102 0.004966
102 0.006981
114 0.007023
124 0.006019
138 0.004987
148 0.002
151 0.004025
156 0.002038
159 0.004026
166 0.002028
175 0.001025
163 0.002001
111 0.000952
93 0.001992
94 0.002002
108 0.001003
114 0.002947
122 0.001953
120 0.002994
116 0.001
118 0.002036
127 0.0
139 0.0
152 0.000997
157 0.00102
163 0.000997
166 0.002992
170 0.002985
174 0.002949
182 0.002959
185 0.004011
142 0.004024
114 0.005019
99 0.005979
106 0.005988
114 0.007968
119 0.005983
122 0.005991
119 0.005994
115 0.005953
122 0.004976
129 0.003053
142 0.001997
150 0.001995
155 0.0
157 0.0
161 0.0
164 0.0
172 0.000976
180 0.001011
166 0.000973
125 0.001963
103 0.002011
103 0.00399
115 0.004025
120 0.003997
128 0.004642
123 0.004992
119 0.004987
119 0.006969
130 0.00697
138 0.006968
152 0.006978
156 0.00698
161 0.004991
164 0.00797
166 0.003004
171 0.00399
178 0.004037
182 0.004021
149 0.004022
100 0.002026
90 0.00402
96 0.0
95 0.0
99 0.0
104 0.0
102 0.0
95 0.0
100 0.000997
109 0.000997
129 0.00197
143 0.001995
150 0.001995
157 0.001898
161 0.001997
167 0.003951
176 0.005019
185 0.006995
192 0.005973
157 0.007015
94 0.005018
65 0.006983
69 0.006031
79 0.00403
89 0.003198
97 0.001993
94 0.002027
89 0.001023
95 0.0
106 0.0
126 0.000951
138 0.000998
146 0.000963
154 0.002012
159 0.004003
163 0.003991
172 0.005034
184 0.006043
189 0.006936
152 0.005982
77 0.007985
58 0.005992
60 0.007015
76 0.003981
85 0.006115
95 0.004953
94 0.004946
85 0.005026
89 0.003001
98 0.005043
119 0.002989
130 0.004022
142 0.001995
149 0.001994
152 0.002029
158 0.002001
167 0.001984
175 0.000956
186 0.000998
137 0.002061
90 0.0
55 0.000997
61 0.001995
82 0.003003
93 0.004021
103 0.005983
99 0.005993
90 0.007016
95 0.005968
106 0.007019
128 0.005938
139 0.006015
153 0.004005
160 0.003965
162 0.003966
168 0.003972
173 0.003992
186 0.00399
181 0.003994
134 0.003989
61 0.001993
51 0.004023
66 0.001991
80 0.002046
92 0.002038
96 0.002044
89 0.001992
86 0.001993
94 0.0
110 0.0
128 0.0
142 0.0
152 0.0
155 0.0
161 0.002012
167 0.002993
173 0.002995
183 0.003946
192 0.003954
180 0.003991
88 0.003959
51 0.003992
45 0.003992
58 0.003948
73 0.00502
84 0.006975
85 0.006982
78 0.006961
78 0.007979
86 0.004176
104 0.006016
125 0.005981
134 0.005983
143 0.006013
147 0.005984
152 0.005985
159 0.003983
164 0.005984
175 0.003991
189 0.003982
182 0.001984
92 0.002026
36 0.0
35 0.0
53 0.000998
69 0.000991
77 0.001015
80 0.000998
75 0.001995
72 0.003029
87 0.002993
100 0.002981
122 0.004001
133 0.005986
140 0.006015
143 0.007961
147 0.00593
151 0.007979
162 0.00498
178 0.002987
187 0.001996
139 0.001993
58 0.0
43 0.0
59 0.0
79 0.001996
95 0.0
105 0.001999
100 0.0
93 0.002029
100 0.002006
113 0.001995
138 0.0
153 0.001017
162 0.000997
167 0.000997
170 0.000998
173 0.001966
181 0.00396
187 0.003987
202 0.004027
172 0.003976
109 0.00399
38 0.005969
40 0.005952
54 0.005951
68 0.005985
73 0.006976
80 0.004986
75 0.003985
75 0.003988
87 0.00199
106 0.002992
124 0.002028
136 0.002985
144 0.002042
148 0.001996
154 0.002025
162 0.0
168 0.002993
178 0.0
195 0.002956
185 0.003959
87 0.003991
29 0.003988
31 0.00396
58 0.003989
68 0.00399
81 0.005018
83 0.005985
80 0.005983
81 0.005979
100 0.005819
110 0.006975
134 0.006978
145 0.006971
152 0.00697
157 0.006989
162 0.006975
166 0.007961
175 0.006981
182 0.005984
197 0.005988
183 0.001996
120 0.003004
38 0.0
34 0.0
50 0.0
71 0.0
80 0.0
86 0.0
79 0.0
75 0.0
84 0.001995
108 0.002008
123 0.003004
140 0.002993
146 0.001995
151 0.003006
154 0.002993
159 0.003398
167 0.003953
183 0.003004
194 0.004019
162 0.002993
100 0.002993
39 0.004027
50 0.003991
69 0.004033
92 0.003952
104 0.004017
103 0.003959
90 0.004982
91 0.00499
111 0.005965
138 0.005982
151 0.005981
164 0.004987
168 0.00498
171 0.006923
176 0.007031
181 0.006963
194 0.007014
206 0.00698
181 0.00694
76 0.005077
30 0.002017
37 0.002979
65 0.002002
80 0.0
89 0.001026
88 0.000972
85 0.000997
87 0.0
104 0.0
120 0.0
143 0.000997
156 0.002974
161 0.002977
166 0.003992
172 0.005898
179 0.005954
193 0.006948
204 0.007973
169 0.004984
83 0.007964
27 0.005982
31 0.006017
59 0.005984
70 0.00502
85 0.003994
86 0.00197
81 0.001992
84 0.0
105 0.001023
122 0.001011
144 0.000967
155 0.001995
160 0.0
164 0.000998
171 0.002028
176 0.002995
190 0.003985
202 0.004947
161 0.004956
77 0.004967
31 0.00495
31 0.007963
59 0.007019
79 0.003019
90 0.004021
91 0.0
81 0.002011
82 0.0
100 0.0
116 0.0
139 0.0
152 0.000941
156 0.001007
159 0.0
162 0.0
171 0.001962
183 0.00301
194 0.0
142 0.002041
55 0.001009
37 0.0
55 0.000998
80 0.001027
99 0.001957
111 0.001967
103 0.001996
92 0.004035
98 0.005026
112 0.005986
140 0.007012
162 0.006947
169 0.006985
174 0.004971
178 0.004974
182 0.003987
194 0.00497
203 0.004037
160 0.003984
61 0.00402
34 0.003975
46 0.002983
68 0.006017
82 0.003991
95 0.005984
93 0.003979
86 0.006019
90 0.005984
103 0.004986
131 0.00298
153 0.001997
162 0.002989
171 0.000965
174 0.0
177 0.001
186 0.001996
202 0.00299
211 0.001992
135 0.003023
72 0.002992
28 0.004952
49 0.005987
66 0.006001
84 0.005983
93 0.006042
89 0.005983
83 0.006017
88 0.005975
106 0.006017
134 0.007974
143 0.006973
160 0.007979
167 0.004983
170 0.006981
175 0.002027
184 0.002976
194 0.002987
203 0.002025
111 0.00197
54 0.002002
26 0.0
40 0.002025
70 0.003009
84 0.002993
92 0.002995
85 0.002986
76 0.0
80 0.000997
103 0.002
124 0.001996
140 0.002029
149 0.003022
153 0.002003
155 0.00098
161 0.001995
168 0.002049
184 0.002003
184 0.003
96 0.002992
31 0.001996
29 0.003992
59 0.004987
79 0.005025
93 0.005981
95 0.006942
83 0.00498
80 0.004948
96 0.005984
118 0.006043
138 0.003011
152 0.00602
160 0.002948
165 0.006017
172 0.00501
180 0.004959
194 0.005021
176 0.004986
91 0.003032
55 0.001995
63 0.003025
88 0.0
105 0.000962
114 0.0
110 0.002039
106 0.0
113 0.0
134 0.0
148 0.0
165 0.001042
173 0.000968
178 0.001033
184 0.003954
193 0.003983
200 0.003941
211 0.003976
194 0.006033
147 0.006033
95 0.007954
92 0.005965
103 0.00798
109 0.005966
115 0.008008
118 0.004022
115 0.005977
116 0.005991
128 0.004965
140 0.003997
159 0.004023
172 0.002976
177 0.003034
185 0.000966
190 0.002026
199 0.00199
205 0.0
217 0.001997
223 0.002029
175 0.002992
127 0.003997
112 0.003989
120 0.003989
129 0.006048
130 0.006035
134 0.005986
128 0.006948
125 0.007985
128 0.003964
142 0.004973
152 0.004988
164 0.005824
170 0.003001
173 0.002985
177 0.003014
181 0.003039
187 0.0
194 0.003027
202 0.000951
211 0.001001
173 0.000997
132 0.001953
107 0.002989
117 0.002863
128 0.002992
134 0.002992
139 0.003038
136 0.003013
129 0.00296
130 0.002988
142 0.002992
157 0.004995
165 0.006035
173 0.006001
178 0.005992
180 0.005988
186 0.005987
191 0.005981
199 0.006981
209 0.003955
192 0.005022
138 0.0
109 0.003035
113 0.0
122 0.000997
128 0.000999
132 0.002
132 0.003031
127 0.002982
127 0.003988
133 0.004989
149 0.004987
157 0.005029
166 0.004982
172 0.006016
175 0.005979
181 0.005934
187 0.005986
192 0.005983
200 0.005988
206 0.005981
214 0.005141
157 0.007982
117 0.005991
96 0.007982
103 0.007029
110 0.005978
113 0.005985
116 0.006016
115 0.005019
111 0.002995
112 0.004019
123 0.002997
140 0.0
148 0.0
156 0.0
161 0.000964
163 0.0
169 0.000934
176 0.002051
180 0.000998
188 0.002992
199 0.004023
199 0.005982
137 0.006021
98 0.004974
78 0.005982
86 0.005985
93 0.006979
100 0.007969
104 0.007974
102 0.006994
96 0.006019
101 0.003023
109 0.006022
127 0.00399
136 0.006021
146 0.003977
154 0.002992
158 0.002994
164 0.002958
172 0.002008
178 0.0
191 0.0
192 0.002042
143 0.0
95 0.001993
80 0.0
90 0.000998
104 0.002989
110 0.002993
117 0.002993
113 0.002996
108 0.003956
111 0.007971
128 0.007975
139 0.00798
153 0.007981
161 0.005983
166 0.007896
171 0.004009
178 0.00299
181 0.00198
190 0.003022
198 0.002986
206 0.0
187 0.003023
110 0.0
85 0.000997
84 0.003986
96 0.002992
102 0.002992
108 0.003001
109 0.002988
103 0.005029
103 0.00495
110 0.004984
127 0.007976
141 0.003995
149 0.006015
158 0.003977
164 0.002998
168 0.00296
175 0.002976
182 0.002995
188 0.001997
198 0.0
207 0.0
197 0.0
118 0.002996
69 0.002993
69 0.003045
85 0.002998
92 0.004021
99 0.004986
99 0.004972
91 0.00699
90 0.007011
98 0.007021
117 0.00199
128 0.004024
143 0.001995
152 0.001995
156 0.0
162 0.0
167 0.0
171 0.000965
180 0.001995
189 0.002957
196 0.003011
168 0.002992
116 0.002927
59 0.003002
62 0.003997
74 0.002994
87 0.004015
94 0.004039
95 0.00398
87 0.004029
84 0.004032
92 0.003985
111 0.005024
122 0.006021
137 0.006999
145 0.006021
149 0.00698
153 0.003989
159 0.002991
165 0.001995
179 0.003012
184 0.002984
128 0.002965
74 0.002028
59 0.0
73 0.002025
93 0.002032
105 0.0
114 0.002014
106 0.003861
98 0.004992
102 0.004968
120 0.005023
133 0.004992
151 0.005981
162 0.005983
165 0.005988
169 0.005983
174 0.005982
178 0.004962
189 0.003987
182 0.003971
100 0.003011
43 0.002002
46 0.003025
57 0.000998
72 0.002027
79 0.0
84 0.0
77 0.000997
76 0.002029
88 0.004963
105 0.005985
124 0.004986
133 0.006014
142 0.005978
145 0.005986
150 0.007017
156 0.006951
166 0.006975
171 0.006964
123 0.006978
55 0.006983
30 0.006974
38 0.005983
60 0.003992
74 0.003011
79 0.002016
74 0.001996
70 0.005023
77 0.002001
93 0.002007
115 0.00203
125 0.002027
136 0.002031
140 0.002029
144 0.002983
150 0.0
157 0.00305
166 0.0
125 0.0
72 0.00096
28 0.000965
35 0.000997
59 0.002034
75 0.001996
82 0.002005
79 0.002001
73 0.001982
76 0.001856
95 0.001996
109 0.001996
126 0.001995
136 0.00296
139 0.002955
143 0.002996
149 0.002991
158 0.002994
172 0.002996
155 0.002991
80 0.002958
55 0.002937
61 0.002993
86 0.003024
97 0.002992
110 0.003006
108 0.002994
100 0.002993
108 0.004041
118 0.004996
141 0.004989
156 0.005989
162 0.005977
169 0.005996
172 0.00584
178 0.005976
184 0.00698
197 0.00595
201 0.005985
143 0.003008
71 0.001004
59 0.002988
73 0.0
83 0.003029
91 0.0
97 0.0
95 0.0
94 0.0
102 0.0
114 0.001025
134 0.000994
143 0.001003
153 0.000999
159 0.000997
162 0.001995
167 0.003026
175 0.003012
183 0.002992
188 0.003061
150 0.002983
69 0.003953
51 0.003956
65 0.00399
79 0.003985
90 0.005017
95 0.007013
93 0.007979
87 0.005985
91 0.007968
109 0.004985
130 0.003999
140 0.003013
152 0.001981
156 0.001995
161 0.001995
170 0.002956
176 0.001996
189 0.0
167 0.001961
115 0.001955
56 0.00199
58 0.001001
77 0.002025
93 0.0
102 0.002962
103 0.0
96 0.0
95 0.001996
107 0.00302
127 0.003996
138 0.005018
148 0.005983
155 0.005983
158 0.00598
164 0.005984
173 0.005997
181 0.005989
157 0.00598
105 0.00598
52 0.00399
55 0.00399
74 0.002002
90 0.00399
105 0.002991
104 0.002985
93 0.001995
96 0.0
108 0.001999
128 0.001006
149 0.003035
157 0.002992
164 0.004976
169 0.00499
174 0.005017
183 0.005987
169 0.005984
120 0.004982
58 0.005983
55 0.005016
80 0.00403
103 0.003927
114 0.00399
119 0.002994
111 0.002988
110 0.002993
120 0.002993
143 0.002954
159 0.002992
171 0.002992
177 0.002993
179 0.003954
181 0.006016
189 0.007977
199 0.004999
199 0.005983
119 0.002989
53 0.0
50 0.0
74 0.0
91 0.0
100 0.0
105 0.0
98 0.002037
96 0.002962
109 0.00299
132 0.001933
145 0.002993
160 0.004989
167 0.004036
173 0.004695
177 0.004946
181 0.00486
193 0.005022
197 0.005957
152 0.006023
67 0.005986
50 0.004986
70 0.006887
89 0.004942
99 0.003977
111 0.003974
104 0.003997
98 0.003993
103 0.003945
119 0.003987
137 0.002993
151 0.002993
160 0.001992
165 0.003024
169 0.002992
172 0.002993
181 0.002988
195 0.0
184 0.001998
96 0.00101
53 0.0
52 0.00203
77 0.001996
99 0.003983
112 0.004987
113 0.00599
102 0.006981
100 0.006983
114 0.005006
138 0.003964
151 0.00399
167 0.003027
173 0.003117
178 0.002992
184 0.005984
193 0.002988
197 0.005024
129 0.002987
83 0.002991
62 0.002027
85 0.0
100 0.002994
119 0.000978
125 0.002001
119 0.000999
112 0.001029
118 0.001828
137 0.003035
160 0.002952
171 0.002993
183 0.003023
189 0.001976
192 0.00495
198 0.004988
204 0.004979
205 0.004989
122 0.004992
80 0.004958
66 0.005992
83 0.006983
95 0.005981
107 0.007983
116 0.004956
112 0.006031
105 0.003975
107 0.006016
125 0.002979
147 0.002966
157 0.002979
169 0.003037
175 0.001992
178 0.000999
184 0.0
192 0.002043
200 0.001004
168 0.0
83 0.000968
60 0.000999
68 0.000998
83 0.002027
102 0.001965
113 0.000997
110 0.001951
100 0.002029
99 0.00203
111 0.001994
133 0.00097
146 0.002029
160 0.002027
168 0.003952
172 0.004
177 0.005982
183 0.006971
190 0.003663
199 0.003981
127 0.003988
78 0.002995
51 0.003957
62 0.003022
88 0.003989
103 0.00598
110 0.002993
103 0.005984
94 0.003975
96 0.004023
115 0.003993
129 0.003991
147 0.003989
160 0.001026
164 0.003994
167 0.00201
172 0.00095
176 0.0
187 0.000998
195 0.000975
170 0.001031
62 0.000979
42 0.000997
49 0.000152
75 0.000996
87 0.002012
100 0.003025
96 0.003007
80 0.004042
82 0.004942
99 0.006015
114 0.005987
136 0.006997
145 0.005983
152 0.007978
156 0.005973
161 0.007853
169 0.00501
180 0.004028
161 0.002975
74 0.002976
42 0.002998
45 0.003944
73 0.002983
87 0.002993
104 0.003943
98 0.005019
87 0.001982
88 0.00504
102 0.003988
121 0.004999
142 0.004023
151 0.002961
160 0.0
163 0.0
166 0.0
171 0.001996
183 0.002994
184 0.004958
99 0.004989
28 0.004987
22 0.004988
46 0.004987
59 0.004985
74 0.006975
79 0.006136
75 0.004938
69 0.004986
82 0.005039
97 0.004994
121 0.003001
135 0.007978
143 0.004982
148 0.006013
152 0.003997
157 0.006023
167 0.005017
175 0.00502
184 0.003997
101 0.002994
46 0.00304
18 0.0
43 0.0
57 0.0
74 0.00098
79 0.000966
75 0.001025
68 0.00095
72 0.000998
95 0.002992
119 0.004972
131 0.004985
141 0.00499
147 0.004951
150 0.004985
154 0.004984
162 0.006991
170 0.005032
182 0.006014
186 0.005984
135 0.006017
39 0.006017
17 0.005023
35 0.005018
61 0.0
78 0.001962
80 0.0
69 0.000956
64 0.0
71 0.00103
93 0.002001
108 0.001997
128 0.00399
139 0.004015
142 0.003949
147 0.00396
152 0.003984
159 0.004003
169 0.003992
182 0.00399
195 0.004024
132 0.00399
71 0.003989
26 0.003996
36 0.004007
69 0.005981
88 0.004956
103 0.003955
99 0.003993
85 0.004991
85 0.003034
106 0.004011
134 0.003989
148 0.003991
163 0.003994
167 0.004088
172 0.002992
176 0.006019
181 0.005
190 0.005978
203 0.00298
214 0.006983
138 0.006025
72 0.006023
24 0.006982
43 0.003034
61 0.005025
79 0.001998
88 0.000984
86 0.0
76 0.000998
83 0.000974
97 0.002029
125 0.002994
147 0.003994
155 0.004988
161 0.00598
167 0.005975
171 0.005989
179 0.005967
186 0.006936
197 0.00698
212 0.007015
208 0.004999
119 0.006983
31 0.007036
20 0.00702
45 0.006978
62 0.006976
80 0.007049
86 0.003986
80 0.00702
73 0.003985
78 0.007019
102 0.003003
129 0.000985
145 0.0
153 0.000987
157 0.0
160 0.0
166 0.001991
174 0.001995
181 0.002062
194 0.002026
208 0.001993
205 0.001993
117 0.001993
38 0.001991
15 0.002005
40 0.002863
57 0.001997
75 0.002991
82 0.003993
75 0.004987
69 0.005987
83 0.006838
93 0.004991
121 0.002957
141 0.002993
147 0.002983
153 0.0
157 0.002027
161 0.001
167 0.000997
178 0.001963
186 0.002992
203 0.002997
204 0.002988
122 0.003957
41 0.005964
16 0.005982
32 0.005982
60 0.005987
70 0.005985
82 0.006978
74 0.00697
64 0.00702
67 0.004956
90 0.003958
107 0.005026
130 0.002026
142 0.002998
144 0.002998
149 0.0
153 0.0
157 0.0
170 0.0
185 0.001996
196 0.001994
159 0.002001
92 0.002029
21 0.001989
25 0.002017
53 0.001979
72 0.001997
91 0.001995
92 0.001991
78 0.001998
75 0.00201
88 0.002992
116 0.002988
132 0.002993
150 0.004983
156 0.006982
159 0.006981
163 0.005978
169 0.004953
174 0.00599
188 0.007959
198 0.004949
209 0.006951
125 0.003982
26 0.0
9 0.00303
31 0.001003
48 0.002027
60 0.000966
68 0.0
67 0.001007
61 0.000961
69 0.00198
82 0.000998
109 0.002989
128 0.003027
135 0.002994
141 0.002994
143 0.002988
149 0.003024
159 0.004
166 0.004971
180 0.005984
195 0.006981
173 0.006978
81 0.007989
17 0.005941
8 0.005974
37 0.003989
59 0.002
67 0.003987
74 0.003011
71 0.004023
67 0.0
81 0.0
98 0.0
123 0.0
139 0.0
144 0.000973
149 0.0
156 0.001956
162 0.001995
173 0.001999
180 0.002992
195 0.002994
210 0.003003
203 0.00299
103 0.003003
42 0.004993
34 0.00495
54 0.006022
74 0.006977
81 0.006949
88 0.005984
84 0.00698
80 0.00698
89 0.006978
107 0.005978
125 0.005988
141 0.004983
147 0.003991
154 0.004
157 0.002934
164 0.003001
173 0.002991
180 0.003005
195 0.002977
208 0.003034
185 0.0
112 0.002995
63 0.0
64 0.002998
86 0.0
96 0.003024
110 0.000973
110 0.001952
105 0.001998
100 0.001994
116 0.003979
130 0.004018
152 0.003989
163 0.003903
168 0.002977
174 0.005014
180 0.004991
184 0.005983
193 0.006981
201 0.006981
215 0.005991
177 0.006964
122 0.006976
78 0.007973
75 0.007978
84 0.007975
94 0.006971
99 0.006983
102 0.00797
97 0.003989
97 0.005982
109 0.002991
129 0.002983
141 0.002992
152 0.002996
157 0.002991
164 0.0
171 0.0
178 0.001967
184 0.001995
194 0.003986
207 0.003985
214 0.005978
189 0.006098
118 0.007979
74 0.004956
70 0.007975
83 0.004992
89 0.007978
95 0.007009
97 0.00696
93 0.006978
94 0.004993
102 0.006981
122 0.003978
134 0.006981
149 0.003002
156 0.001995
164 0.0
166 0.0
175 0.0
185 0.001989
190 0.001945
202 0.004987
213 0.005976
218 0.005993
161 0.005959
110 0.005967
73 0.005984
80 0.005991
92 0.005979
96 0.007976
103 0.00598
103 0.005993
98 0.003007
100 0.002985
108 0.002995
128 0.001968
140 0.00297
154 0.0
162 0.0
167 0.0
170 0.001994
177 0.002003
186 0.002991
192 0.002994
205 0.003044
213 0.003029
215 0.002989
155 0.003952
100 0.003934
87 0.004954
103 0.005989
114 0.006024
128 0.006016
132 0.004978
125 0.006041
118 0.004986
123 0.004989
142 0.006017
155 0.005983
169 0.005018
180 0.002989
185 0.002988
188 0.00399
194 0.002992
201 0.002997
208 0.0
216 0.002993
226 0.0
233 0.003004
169 0.002996
112 0.0
69 0.002028
76 0.001784
90 0.001962
95 0.001963
100 0.000953
102 0.002985
97 0.004033
101 0.005942
111 0.006953
128 0.005984
143 0.006981
153 0.00498
161 0.003987
164 0.002959
170 0.00303
178 0.004141
184 0.003996
194 0.002987
202 0.004991
211 0.002993
220 0.002987
191 0.002943
130 0.0
60 0.0
55 0.0
72 0.0
83 0.000961
89 0.000998
95 0.002992
90 0.002989
88 0.003998
96 0.004992
118 0.003958
127 0.005981
144 0.005982
154 0.003991
157 0.003993
164 0.002993
169 0.003986
176 0.0
185 0.002005
196 0.001994
202 0.002992
212 0.002999
219 0.002997
175 0.003038
82 0.0
56 0.002996
62 0.0
81 0.0
85 0.0
92 0.0
90 0.003995
85 0.004
84 0.003997
100 0.004989
113 0.004988
128 0.005982
141 0.005979
146 0.005983
151 0.005983
153 0.006001
158 0.005533
165 0.007976
173 0.004988
184 0.007014
196 0.005018
176 0.007944
104 0.006981
59 0.007943
54 0.006982
75 0.003079
87 0.005019
102 0.002027
105 0.004994
94 0.0
90 0.000963
97 0.0
119 0.0
142 0.000956
151 0.0
161 0.0
164 0.0
169 0.0
175 0.002971
184 0.000997
195 0.002036
172 0.001993
116 0.001031
49 0.001977
44 0.002015
61 0.003028
75 0.004039
87 0.004024
90 0.004024
83 0.004988
81 0.003923
93 0.003032
115 0.004917
128 0.004023
143 0.006002
150 0.003971
154 0.00402
159 0.00493
164 0.006976
171 0.004051
182 0.006991
191 0.003997
147 0.006985
51 0.006011
25 0.006989
35 0.007012
50 0.006699
60 0.005984
71 0.00297
70 0.00399
65 0.0
73 0.000997
85 0.0
109 0.000949
125 0.0
131 0.0
135 0.0
139 0.001032
143 0.002035
152 0.001031
158 0.000998
171 0.005
162 0.004996
106 0.005991
39 0.004985
18 0.005981
30 0.004991
43 0.004961
66 0.005985
81 0.005978
84 0.004984
84 0.003
94 0.004988
126 0.002984
146 0.003958
169 0.003032
178 0.002977
180 0.002991
187 0.00312
192 0.002993
195 0.00302
207 0.002987
220 0.001998
214 0.001002
139 0.001997
71 0.003022
61 0.002984
76 0.004003
81 0.004986
92 0.006019
104 0.006946
98 0.00795
94 0.007947
104 0.007812
115 0.007979
142 0.006016
162 0.002991
162 0.005982
154 0.002993
157 0.002985
166 0.003023
182 0.003005
190 0.002007
204 0.0
156 0.0
92 0.001004
34 0.0
28 0.00203
43 0.00199
67 0.002048
83 0.00297
82 0.003989
70 0.004987
64 0.005012
74 0.005942
96 0.00697
111 0.006016
128 0.006982
139 0.005982
145 0.006981
146 0.005015
149 0.005985
155 0.004996
172 0.005969
186 0.005026
149 0.005016
38 0.003972
4 0.003973
17 0.0
43 0.004028
59 0.00296
67 0.002994
68 0.002986
63 0.002955
64 0.003025
80 0.0
103 0.0
127 0.0
144 0.002032
146 0.002027
149 0.002027
154 0.002031
164 0.00399
178 0.003956
188 0.003961
205 0.00395
193 0.003994
127 0.004988
52 0.005972
32 0.005992
50 0.005017
75 0.005984
86 0.006981
96 0.006129
94 0.007944
92 0.003987
100 0.004986
124 0.005021
140 0.005022
163 0.005026
179 0.003992
186 0.005021
196 0.002985
206 0.0
212 0.002
229 0.000972
239 0.001009
255 0.001997
187 0.000998
149 0.002995
105 0.000994
116 0.000993
129 0.000969
145 0.003029
156 0.002989
153 0.002994
145 0.003005
146 0.003964
160 0.003989
177 0.00399
193 0.003955
206 0.004953
213 0.004956
215 0.004989
216 0.004988
216 0.004986
224 0.004945
227 0.004978
188 0.004985
127 0.004977
120 0.004988
134 0.004864
152 0.004988
160 0.004982
168 0.004987
156 0.007015
148 0.005985
149 0.00694
158 0.004988
177 0.007988
192 0.007216
196 0.00694
200 0.005023
200 0.000965
203 0.002994
212 0.0
186 0.000979
155 0.0
111 0.0
117 0.0
127 0.000998
140 0.001996
148 0.002005
145 0.001832
134 0.001994
131 0.00201
139 0.002982
156 0.002962
165 0.002977
175 0.002941
179 0.002992
183 0.003989
188 0.003028
186 0.004005
142 0.002996
94 0.004987
90 0.004988
106 0.005941
118 0.004019
127 0.006016
131 0.003025
118 0.003993
113 0.002993
119 0.003017
127 0.003
142 0.003025
154 0.003009
159 0.002998
161 0.002997
163 0.002994
171 0.00301
154 0.006948
99 0.002992
72 0.007025
78 0.003982
89 0.005023
103 0.003998
111 0.002942
108 0.002993
96 0.002988
96 0.00301
108 0.0
126 0.0
132 0.0
143 0.001995
148 0.001954
151 0.003026
154 0.004981
163 0.004973
152 0.004809
84 0.005991
60 0.005984
60 0.006075
75 0.006983
86 0.005986
97 0.006978
96 0.004989
88 0.004021
