177 0.011005
181 0.003991
188 0.00399
190 0.003981
198 0.004988
195 0.004988
155 0.004033
109 0.004039
94 0.004987
97 0.00399
105 0.004989
107 0.003991
110 0.004988
116 0.004989
126 0.002991
127 0.003987
131 0.00498
139 0.004956
147 0.003954
153 0.003989
164 0.003989
168 0.005035
173 0.004988
181 0.004025
185 0.00399
189 0.003989
197 0.004987
200 0.004072
166 0.004913
115 0.004987
91 0.004988
91 0.005023
99 0.00499
105 0.004988
110 0.004953
114 0.004935
120 0.004986
124 0.004958
128 0.004987
129 0.004956
142 0.005041
147 0.005033
152 0.005015
158 0.005032
166 0.004987
170 0.004987
173 0.005985
177 0.005018
184 0.003999
159 0.005047
90 0.005021
84 0.004975
91 0.004987
95 0.006018
100 0.005984
108 0.005045
113 0.004991
117 0.005022
120 0.006982
119 0.005984
119 0.004986
124 0.005984
140 0.005998
146 0.005988
153 0.005038
159 0.005985
164 0.006027
172 0.005985
175 0.004978
148 0.004987
101 0.006051
82 0.006024
84 0.004987
87 0.005986
95 0.005985
97 0.006015
104 0.006011
109 0.006983
112 0.005986
114 0.005986
118 0.005987
126 0.005986
133 0.005985
139 0.006983
143 0.006982
150 0.005987
157 0.006019
161 0.006041
159 0.005981
122 0.007015
86 0.006982
72 0.006041
80 0.006053
86 0.006034
85 0.006982
93 0.008031
100 0.006983
105 0.007034
109 0.005978
113 0.006982
122 0.006027
129 0.007
134 0.00701
142 0.005991
146 0.005999
149 0.006941
151 0.007941
153 0.006981
158 0.006977
155 0.006983
89 0.006008
75 0.007974
74 0.006933
80 0.00793
82 0.007978
85 0.00698
93 0.006983
101 0.006983
104 0.007978
106 0.007976
110 0.006964
118 0.006957
125 0.006981
133 0.00798
142 0.007967
148 0.007987
149 0.00799
154 0.007001
157 0.007023
163 0.00704
145 0.007013
89 0.007977
77 0.00798
80 0.006983
86 0.007979
89 0.00698
95 0.007001
103 0.007011
107 0.006982
108 0.007058
112 0.007907
118 0.00707
125 0.006981
132 0.007029
140 0.007975
145 0.007977
148 0.007978
155 0.007988
161 0.007064
136 0.00797
108 0.007979
79 0.007979
73 0.006991
77 0.006974
82 0.00703
84 0.00703
89 0.006991
99 0.007002
103 0.007026
102 0.00798
105 0.007978
111 0.007909
123 0.007011
124 0.007979
139 0.007978
150 0.00697
155 0.006981
160 0.006981
166 0.00693
164 0.006979
92 0.006943
52 0.006979
52 0.007021
59 0.007017
62 0.006033
67 0.006015
77 0.00603
84 0.006011
96 0.006026
97 0.006029
100 0.007017
115 0.007007
124 0.007028
140 0.006014
145 0.005977
152 0.006981
161 0.006021
169 0.006008
174 0.006011
183 0.005988
192 0.006016
187 0.006017
134 0.006023
85 0.005989
74 0.007
83 0.00601
89 0.006014
91 0.005955
98 0.006001
111 0.006023
114 0.006016
122 0.006029
129 0.006011
137 0.006029
145 0.004987
158 0.005035
168 0.006022
174 0.005983
182 0.005983
191 0.005981
195 0.005994
199 0.006028
206 0.006016
208 0.006027
157 0.00603
106 0.006014
89 0.005032
91 0.005021
104 0.005032
106 0.004996
118 0.005033
124 0.004986
129 0.005016
131 0.005017
135 0.005037
144 0.005035
154 0.004981
162 0.004995
173 0.004987
182 0.005037
191 0.005061
194 0.005043
204 0.004983
208 0.005034
214 0.004958
202 0.00503
142 0.004962
87 0.004977
85 0.005018
94 0.005017
100 0.005038
104 0.005028
117 0.005017
126 0.004007
132 0.003989
132 0.00401
139 0.003989
147 0.003991
157 0.004987
169 0.004987
180 0.004986
186 0.005001
191 0.004983
198 0.004009
208 0.004023
216 0.003941
211 0.003987
153 0.003989
101 0.004025
83 0.003939
87 0.003938
94 0.004019
101 0.004024
103 0.004021
112 0.003988
120 0.004018
130 0.005037
138 0.003939
142 0.004022
154 0.003989
164 0.004028
172 0.003989
179 0.004012
189 0.003988
200 0.004021
206 0.004022
212 0.00298
221 0.003027
205 0.00399
139 0.002991
91 0.002994
86 0.002991
93 0.003033
96 0.00399
103 0.002994
112 0.003031
121 0.003995
131 0.00403
134 0.003992
137 0.003989
147 0.003981
156 0.003997
168 0.002989
179 0.002991
186 0.003024
194 0.002992
201 0.003027
207 0.003019
216 0.00298
224 0.003022
193 0.002943
130 0.003024
86 0.001994
90 0.001993
104 0.00299
110 0.00299
115 0.002999
127 0.001993
135 0.001981
134 0.002204
135 0.003004
145 0.002991
152 0.001997
161 0.00299
173 0.002992
186 0.003035
193 0.002973
193 0.002992
204 0.002991
196 0.002991
138 0.002991
91 0.00299
83 0.001993
90 0.001994
94 0.001986
101 0.001995
115 0.002028
124 0.002038
127 0.001994
129 0.001994
136 0.002992
143 0.00306
151 0.002992
158 0.003036
165 0.00302
176 0.00197
183 0.002027
185 0.001995
194 0.00194
153 0.001993
95 0.002055
71 0.002067
78 0.002035
87 0.002017
89 0.002031
97 0.001994
107 0.002028
113 0.001039
119 0.00103
124 0.000998
134 0.001949
141 0.002004
147 0.00196
158 0.002042
168 0.00202
173 0.002054
179 0.002025
185 0.001991
190 0.001005
135 0.000997
87 0.000995
72 0.000998
80 0.001036
86 0.000998
87 0.0
93 0.000991
107 0.000997
112 0.00099
111 0.0
116 0.000997
122 0.0
134 0.001057
142 0.000996
146 0.001054
155 0.000997
157 0.000998
164 0.000997
171 0.000997
116 0.0
71 0.000998
61 0.000981
63 0.000998
66 0.0
74 0.0
78 0.0
85 0.0
94 0.0
97 0.0
104 0.0
111 0.000966
121 0.001045
131 0.001053
133 0.001043
139 0.000998
145 0.0
154 0.001042
155 0.000999
165 0.0
127 0.0
74 0.0
51 0.0
52 0.0
57 0.0
60 0.0
61 0.0
67 0.0
84 0.0
91 0.000998
91 0.0
98 0.0
112 0.0
118 0.0
127 0.0
135 0.0
140 0.0
149 0.000999
152 0.0
160 0.0
168 0.0
175 0.0
166 0.000999
112 0.0
61 0.0
64 0.000967
68 0.0
71 0.0
73 0.0
84 0.0
96 0.0
103 0.0
107 0.0
113 0.0
122 0.001054
130 0.000999
145 0.001027
152 0.001009
157 0.000999
161 0.000965
171 0.000998
179 0.000997
181 0.001014
191 0.000998
158 0.0
106 0.0
82 0.000998
83 0.002037
93 0.001003
93 0.000996
101 0.0
111 0.0
120 0.0
123 0.001007
128 0.000999
137 0.000948
143 0.000973
152 0.001036
160 0.001995
165 0.000974
175 0.002017
182 0.002007
190 0.001031
194 0.000999
191 0.000954
150 0.001979
106 0.002
90 0.000999
97 0.002002
106 0.002068
106 0.000998
111 0.001967
127 0.000998
134 0.001996
140 0.001997
143 0.001996
152 0.001994
161 0.001995
169 0.000972
175 0.002993
182 0.002039
190 0.000994
196 0.000964
200 0.002028
208 0.001958
208 0.001994
160 0.001997
112 0.000996
109 0.001
115 0.002043
114 0.001996
121 0.002029
127 0.002028
133 0.002023
144 0.002089
150 0.002992
159 0.002039
164 0.002992
172 0.001999
184 0.000955
189 0.002049
193 0.002034
201 0.002993
209 0.002994
217 0.002031
221 0.001958
141 0.001994
218 0.003034
136 0.002066
121 0.004023
122 0.003026
132 0.00208
134 0.002013
139 0.00199
146 0.00299
157 0.004047
162 0.001928
164 0.002991
168 0.001916
179 0.003033
190 0.002986
197 0.002991
204 0.002994
212 0.002005
218 0.001994
222 0.002992
228 0.003024
234 0.004035
204 0.003029
153 0.002999
132 0.003022
131 0.002991
140 0.002056
145 0.004025
153 0.004036
162 0.003027
170 0.002992
173 0.002994
172 0.00403
175 0.003944
187 0.003026
197 0.002992
201 0.003021
205 0.002991
216 0.003971
222 0.002927
226 0.004988
233 0.004043
212 0.003991
162 0.003985
133 0.004031
127 0.00399
137 0.003991
144 0.002993
148 0.003022
156 0.003017
168 0.002994
172 0.003023
172 0.005016
175 0.003991
187 0.00399
195 0.004017
201 0.004034
209 0.004989
214 0.004092
217 0.004022
223 0.003021
224 0.004036
194 0.00399
141 0.004031
114 0.004988
116 0.005022
125 0.003018
129 0.004024
132 0.004018
142 0.005019
154 0.004988
159 0.004022
163 0.004033
166 0.004021
176 0.005034
185 0.004021
191 0.005004
194 0.004989
200 0.00402
205 0.003991
207 0.00403
214 0.004993
218 0.00503
166 0.003992
121 0.004054
105 0.004028
115 0.004979
117 0.005036
124 0.005986
131 0.005043
138 0.005004
150 0.004988
155 0.005029
155 0.005984
159 0.005986
167 0.005024
176 0.004034
180 0.004006
191 0.005024
196 0.003976
202 0.005986
207 0.005986
213 0.00602
218 0.00498
174 0.005035
119 0.005016
97 0.005987
98 0.005983
103 0.004978
105 0.00502
115 0.005025
122 0.005986
136 0.006049
144 0.005963
146 0.006016
155 0.005007
162 0.00499
166 0.005003
177 0.006056
185 0.006023
190 0.005024
197 0.004967
209 0.004977
213 0.005972
216 0.005941
193 0.007062
137 0.006027
98 0.005937
97 0.005978
107 0.005033
115 0.006016
116 0.006021
122 0.00597
137 0.005031
144 0.006026
146 0.006019
151 0.006018
159 0.007007
169 0.007034
179 0.007017
186 0.006056
193 0.006013
202 0.007005
207 0.006987
216 0.006032
218 0.006013
194 0.007037
125 0.005971
107 0.00602
109 0.006983
118 0.007031
122 0.006025
128 0.005983
139 0.006035
147 0.006981
147 0.007027
150 0.006016
155 0.006019
169 0.006983
170 0.00698
180 0.007009
188 0.006982
191 0.007979
196 0.00698
200 0.007014
202 0.007034
145 0.006981
101 0.00696
93 0.005992
98 0.006019
109 0.00798
114 0.00695
123 0.007047
133 0.007014
136 0.007977
140 0.007966
142 0.007049
150 0.006949
156 0.006958
164 0.007979
174 0.006982
179 0.007976
188 0.007969
197 0.007977
197 0.006969
151 0.007024
89 0.007982
77 0.007956
81 0.00698
87 0.006982
91 0.007029
97 0.007979
104 0.00703
111 0.007029
117 0.00699
121 0.007961
132 0.007994
136 0.007976
147 0.00796
150 0.007981
159 0.006918
168 0.00696
173 0.007034
179 0.007031
177 0.007032
111 0.007023
65 0.007024
63 0.007025
70 0.007009
77 0.006994
76 0.007007
83 0.006985
100 0.006975
105 0.006968
104 0.006032
112 0.006981
120 0.007021
128 0.007002
142 0.007017
152 0.006027
160 0.005979
166 0.006966
172 0.007028
177 0.00602
186 0.006027
179 0.005981
126 0.005984
76 0.005966
63 0.005978
68 0.00602
76 0.006029
77 0.006017
86 0.005972
98 0.006034
104 0.00692
110 0.007028
113 0.006979
117 0.005979
126 0.005991
135 0.006031
141 0.006032
146 0.006017
159 0.006036
164 0.005966
174 0.006
175 0.006031
180 0.004986
145 0.005011
87 0.004981
67 0.005034
73 0.005976
75 0.006018
78 0.006014
85 0.006025
101 0.006037
104 0.006026
108 0.00598
114 0.006029
121 0.006003
129 0.006018
139 0.004991
147 0.005015
152 0.005034
159 0.005019
164 0.005019
171 0.005032
178 0.005024
183 0.005034
112 0.006012
70 0.006004
64 0.005932
67 0.006036
71 0.005019
80 0.005018
85 0.00504
93 0.004987
102 0.004987
107 0.004986
111 0.005018
117 0.005027
130 0.004992
141 0.005025
149 0.004002
155 0.004977
163 0.004978
172 0.004041
174 0.004986
183 0.004942
190 0.004984
161 0.005026
75 0.005011
65 0.00503
72 0.005016
77 0.005033
81 0.005025
86 0.005034
94 0.005029
108 0.005035
113 0.004989
114 0.00402
125 0.003991
132 0.004036
150 0.004021
159 0.004021
172 0.004067
178 0.005031
182 0.003997
191 0.003996
199 0.005002
204 0.004023
154 0.004035
99 0.004024
75 0.004055
76 0.004042
89 0.004023
96 0.004035
101 0.003986
110 0.003991
121 0.002991
128 0.00392
131 0.003029
136 0.002993
151 0.004021
157 0.004016
164 0.004021
171 0.004053
185 0.004034
191 0.002992
197 0.003998
206 0.003967
208 0.002992
156 0.002974
104 0.003004
86 0.002993
91 0.002992
98 0.002992
101 0.002992
107 0.002992
124 0.003998
131 0.003991
130 0.003
133 0.002947
140 0.002992
147 0.002948
156 0.002967
167 0.002993
175 0.002995
180 0.002993
187 0.002992
195 0.002993
147 0.001993
95 0.001998
76 0.002979
86 0.003022
93 0.001965
92 0.003027
102 0.004027
112 0.002034
121 0.001995
124 0.002961
129 0.001992
133 0.001994
147 0.00299
156 0.001993
162 0.002995
172 0.002989
178 0.003011
181 0.002028
190 0.002993
189 0.003015
116 0.002992
75 0.002993
66 0.003001
70 0.002966
81 0.001987
83 0.002027
95 0.00203
104 0.001976
110 0.001972
116 0.001993
121 0.002993
125 0.001984
132 0.001992
144 0.001946
151 0.001995
157 0.002029
168 0.002033
177 0.002041
182 0.00206
189 0.001964
141 0.002034
86 0.001048
64 0.002036
61 0.001994
68 0.001018
80 0.001995
78 0.001996
86 0.001995
103 0.000986
108 0.002024
114 0.000917
115 0.001996
128 0.002073
138 0.001018
144 0.002001
150 0.001011
160 0.000998
168 0.000998
173 0.000997
180 0.000998
193 0.001031
192 0.002028
137 0.001016
85 0.001043
74 0.002042
76 0.001985
80 0.001995
86 0.002004
91 0.000997
100 0.000998
109 0.000997
116 0.000998
122 0.000902
128 0.001028
137 0.0
146 0.0
157 0.0
160 0.0
170 0.0
175 0.000997
182 0.0
190 0.0
193 0.0
200 0.0
169 0.00105
109 0.0
76 0.0
80 0.000997
88 0.0
93 0.0
98 0.0
107 0.0
114 0.0
117 0.0
125 0.0
125 0.0
138 0.0
146 0.000978
156 0.000998
163 0.00101
169 0.000997
178 0.0
187 0.0
191 0.000994
197 0.000999
179 0.0
105 0.0
77 0.0
81 0.0
90 0.0
92 0.0
99 0.0
116 0.0
120 0.0
118 0.000999
120 0.0
129 0.0
132 0.0
143 0.001
154 0.000997
164 0.0
171 0.0
177 0.0
184 0.0
183 0.0
125 0.0
81 0.001042
70 0.0
77 0.0
82 0.0
84 0.000998
91 0.000999
104 0.001966
114 0.00202
115 0.0
121 0.0
130 0.0
139 0.001993
144 0.000997
157 0.0
162 0.000997
168 0.001004
178 0.001996
185 0.002005
192 0.001
169 0.001014
91 0.0
68 0.0
66 0.000969
70 0.000994
80 0.001047
83 0.0
90 0.0
99 0.000981
107 0.002052
113 0.001996
119 0.00099
129 0.00203
142 0.000931
149 0.001017
159 0.001001
165 0.002063
175 0.002041
183 0.002
190 0.000997
197 0.000997
207 0.000991
183 0.001992
93 0.000999
73 0.001993
79 0.002069
87 0.00198
88 0.0
93 0.002057
104 0.002992
113 0.002027
119 0.002048
121 0.002044
124 0.002054
133 0.001995
148 0.000964
156 0.001999
164 0.001996
175 0.00095
182 0.001993
188 0.001007
192 0.001996
201 0.002046
166 0.002045
108 0.002049
80 0.002038
78 0.002992
87 0.001052
91 0.00304
97 0.00302
107 0.001024
113 0.002007
115 0.000981
116 0.002992
121 0.002992
131 0.000995
143 0.000966
152 0.000982
157 0.00203
166 0.002068
177 0.003045
177 0.003006
181 0.002993
165 0.002053
108 0.001971
68 0.003074
60 0.003026
69 0.003045
72 0.003066
80 0.003067
84 0.00399
103 0.002028
109 0.004026
108 0.003991
114 0.003002
119 0.002003
127 0.00207
135 0.00303
143 0.002992
153 0.003049
161 0.002034
168 0.002032
173 0.002059
173 0.002956
127 0.00299
75 0.004057
58 0.003992
64 0.003025
63 0.002995
70 0.002991
81 0.003992
84 0.003989
95 0.002992
104 0.001988
107 0.003035
118 0.002995
125 0.002993
136 0.00403
148 0.003955
155 0.002962
164 0.00299
174 0.003003
181 0.003988
184 0.004038
190 0.003023
142 0.002997
88 0.002983
71 0.00399
79 0.003986
85 0.00494
92 0.004987
98 0.004031
113 0.004034
122 0.004033
126 0.00402
125 0.003992
135 0.002991
145 0.003023
153 0.003952
166 0.003957
172 0.003988
181 0.005048
186 0.004991
193 0.004019
199 0.00404
206 0.00403
191 0.004987
136 0.004986
90 0.003989
85 0.004027
95 0.004039
98 0.00506
106 0.005028
114 0.005985
122 0.005984
129 0.005072
130 0.003984
131 0.003991
142 0.005017
149 0.004992
159 0.003991
166 0.003989
172 0.003998
185 0.004991
187 0.004925
193 0.004988
195 0.004986
141 0.004978
93 0.005017
80 0.003971
87 0.005028
96 0.005984
95 0.005106
105 0.004012
115 0.005028
124 0.00399
126 0.005023
125 0.004026
136 0.005023
145 0.006028
154 0.005001
163 0.00499
169 0.004997
173 0.005993
178 0.005984
185 0.005026
188 0.005041
165 0.004987
110 0.005004
80 0.004955
79 0.006046
85 0.006982
89 0.006031
93 0.005996
97 0.006014
109 0.00598
116 0.005984
123 0.004995
126 0.005033
135 0.004979
146 0.005949
155 0.005983
163 0.005985
169 0.007064
180 0.006027
185 0.006025
189 0.006026
193 0.006984
205 0.006977
164 0.005049
106 0.005044
81 0.005035
86 0.005984
95 0.005961
95 0.006984
97 0.006981
115 0.005997
122 0.005996
123 0.006016
127 0.007018
132 0.007033
142 0.006054
153 0.005979
166 0.006933
174 0.00606
178 0.006983
186 0.007022
191 0.007978
193 0.006016
201 0.005968
184 0.005997
128 0.007027
92 0.007014
84 0.006001
95 0.006017
102 0.006951
104 0.006984
115 0.006983
124 0.007979
130 0.007975
131 0.007979
135 0.007012
143 0.007023
153 0.007052
162 0.007978
168 0.007978
182 0.00705
190 0.007038
199 0.006918
204 0.006994
208 0.006996
218 0.007977
224 0.007979
187 0.006983
133 0.00702
106 0.007021
104 0.007979
112 0.007934
115 0.007035
119 0.006977
127 0.007033
136 0.007037
142 0.007024
144 0.007015
150 0.00703
160 0.006942
164 0.006997
173 0.006979
178 0.007979
187 0.007983
194 0.006965
208 0.006991
220 0.007015
227 0.007023
232 0.007026
241 0.007016
210 0.007016
134 0.007014
112 0.007013
110 0.006977
118 0.007013
124 0.007013
127 0.006975
140 0.007047
153 0.006985
156 0.006976
163 0.007025
167 0.007032
172 0.007026
182 0.007012
194 0.00701
202 0.007011
211 0.007013
213 0.007024
223 0.007028
235 0.006033
240 0.005963
246 0.006005
238 0.006024
181 0.005983
138 0.007029
126 0.007028
135 0.007013
141 0.006989
142 0.00701
151 0.007012
168 0.007029
172 0.006028
174 0.00603
177 0.006004
183 0.005987
190 0.006022
198 0.006013
208 0.005989
218 0.007034
220 0.006014
231 0.006014
236 0.007011
238 0.007028
193 0.006023
171 0.005983
134 0.006008
127 0.006025
128 0.006017
132 0.006023
135 0.006025
139 0.005984
144 0.006015
148 0.006017
150 0.006028
150 0.005019
151 0.005019
154 0.005016
163 0.00598
166 0.00601
171 0.006029
175 0.006015
180 0.006024
179 0.006024
184 0.006024
176 0.006032
144 0.005028
122 0.005018
116 0.00503
119 0.005036
124 0.005017
126 0.004986
133 0.005033
136 0.005058
139 0.00601
138 0.006041
142 0.006018
144 0.006015
147 0.004991
151 0.005033
157 0.005015
161 0.005033
167 0.005016
170 0.004985
173 0.004959
174 0.005048
155 0.005018
119 0.004986
107 0.004991
108 0.004022
113 0.004037
116 0.004038
122 0.005018
127 0.005034
129 0.004998
131 0.005021
135 0.00502
137 0.005051
139 0.004976
148 0.005035
152 0.004027
154 0.004039
158 0.003989
163 0.003991
167 0.004025
168 0.004022
172 0.004041
158 0.00399
114 0.003998
99 0.005048
98 0.00504
102 0.004053
104 0.004021
110 0.004035
118 0.004019
125 0.004036
127 0.00403
131 0.00402
134 0.004024
140 0.004043
144 0.004041
149 0.00404
155 0.004016
163 0.003027
165 0.003991
170 0.002992
177 0.00399
165 0.004023
100 0.004016
85 0.004032
86 0.004023
96 0.003989
97 0.004028
103 0.003991
110 0.004024
116 0.003025
121 0.003025
123 0.003035
124 0.003041
129 0.003024
137 0.00196
146 0.003031
152 0.004067
158 0.002992
164 0.002987
166 0.001991
171 0.003027
173 0.003027
131 0.003008
90 0.003044
77 0.002993
77 0.003054
84 0.003024
86 0.00303
94 0.002992
100 0.004008
105 0.003027
111 0.003067
110 0.003039
111 0.003026
125 0.002992
131 0.003025
135 0.002026
145 0.002025
154 0.001994
158 0.002038
163 0.002992
166 0.002992
169 0.003
139 0.002992
96 0.00301
78 0.002957
76 0.001937
83 0.002989
87 0.002957
88 0.002994
100 0.002023
106 0.002031
108 0.002027
109 0.00204
117 0.001995
124 0.001995
129 0.001988
134 0.002027
143 0.001995
146 0.001995
148 0.001995
157 0.002051
164 0.001023
168 0.000998
150 0.001
109 0.000997
80 0.001995
79 0.001995
85 0.002031
90 0.001995
91 0.001995
98 0.001995
107 0.001996
108 0.001966
111 0.000959
113 0.000999
119 0.000997
127 0.000998
136 0.002024
143 0.000998
149 0.000998
152 0.001011
157 0.002056
162 0.00202
167 0.000998
161 0.000997
95 0.001013
78 0.001029
76 0.00204
83 0.001071
86 0.000998
89 0.001012
95 0.000997
102 0.001046
105 0.000997
111 0.001996
117 0.000989
121 0.001007
130 0.000997
139 0.000998
147 0.0
151 0.0
159 0.0
178 0.000997
183 0.000998
189 0.000965
195 0.000982
202 0.000971
202 0.000997
152 0.000998
78 0.0
74 0.001003
77 0.0
83 0.0
85 0.0
92 0.0
101 0.0
109 0.0
112 0.0
119 0.0
125 0.001003
137 0.0
156 0.0
163 0.0
171 0.0
177 0.001026
184 0.0
193 0.000998
198 0.0
202 0.0
211 0.0
208 0.0
136 0.0
92 0.0
86 0.0
91 0.001032
96 0.0
100 0.0
110 0.0
116 0.0
122 0.00101
129 0.0
129 0.000997
137 0.000992
152 0.000997
160 0.002026
170 0.001056
175 0.001047
187 0.0
194 0.000993
202 0.0
203 0.000998
213 0.001044
186 0.0
122 0.0
88 0.0
82 0.000997
89 0.001996
96 0.002025
101 0.002007
112 0.0
119 0.000998
125 0.0
128 0.002033
135 0.002042
146 0.0
161 0.0
170 0.0
177 0.001027
181 0.001045
195 0.001045
203 0.001035
214 0.0
217 0.0
227 0.0
234 0.001995
187 0.001996
121 0.002071
90 0.000998
90 0.000997
94 0.0
103 0.001953
112 0.000997
123 0.00196
127 0.002049
133 0.000979
137 0.000934
141 0.001015
148 0.000996
158 0.001995
169 0.000997
174 0.001009
183 0.000969
190 0.001996
205 0.000996
208 0.002032
211 0.001962
211 0.001034
156 0.001008
99 0.00104
73 0.001995
73 0.001998
83 0.000992
88 0.001054
95 0.000993
108 0.002993
124 0.000981
127 0.002993
128 0.002028
143 0.000949
151 0.000997
159 0.00101
174 0.002025
190 0.001995
199 0.001994
208 0.001996
217 0.002047
222 0.003033
144 0.00101
236 0.002992
243 0.002983
177 0.000989
110 0.001026
92 0.001956
89 0.002007
94 0.001964
106 0.000964
111 0.001054
118 0.002043
129 0.002992
139 0.001985
142 0.002992
147 0.002992
155 0.002059
166 0.001991
178 0.002046
191 0.002992
199 0.003033
213 0.002038
220 0.001037
228 0.002039
234 0.003031
248 0.001997
255 0.004039
222 0.003988
124 0.002036
96 0.001988
94 0.001985
99 0.001983
106 0.003063
115 0.002992
124 0.001991
134 0.002026
143 0.002041
148 0.002055
153 0.003045
159 0.004023
171 0.003989
186 0.003022
193 0.003023
202 0.003052
211 0.003996
216 0.00398
226 0.001991
233 0.00201
240 0.001996
173 0.002955
135 0.003
114 0.004028
107 0.00403
114 0.003032
119 0.003045
122 0.003065
128 0.004031
136 0.003989
137 0.00201
136 0.002987
137 0.003044
143 0.003044
148 0.002997
151 0.004987
156 0.005016
164 0.003002
167 0.002969
171 0.003044
178 0.00402
169 0.003989
119 0.004037
100 0.003983
97 0.003025
104 0.004018
106 0.004032
112 0.004987
117 0.004987
122 0.00403
124 0.003012
126 0.002975
126 0.004948
131 0.004955
139 0.003016
143 0.00301
150 0.003924
157 0.003005
160 0.003002
163 0.004987
163 0.005027
118 0.003993
90 0.003998
84 0.003994
83 0.005019
85 0.004994
89 0.003993
92 0.004021
93 0.004
101 0.004039
105 0.005028
109 0.004024
112 0.005987
115 0.006026
123 0.003992
126 0.003996
130 0.003999
137 0.004992
141 0.005024
145 0.004013
150 0.003973
105 0.004008
79 0.004988
70 0.004987
72 0.006025
73 0.005984
79 0.004972
81 0.004983
86 0.005057
93 0.005984
96 0.005984
99 0.00399
104 0.004013
110 0.00399
118 0.005011
124 0.004979
128 0.005994
135 0.005993
142 0.004991
144 0.005006
148 0.005054
153 0.005975
158 0.007017
142 0.006025
106 0.006015
80 0.006027
79 0.004992
82 0.004973
85 0.006983
87 0.007008
93 0.005033
99 0.00501
103 0.004977
103 0.005985
105 0.006982
113 0.005003
118 0.005951
128 0.006048
132 0.005985
136 0.00603
140 0.006982
144 0.007027
150 0.005025
153 0.004974
157 0.006046
159 0.007015
128 0.007015
87 0.004948
81 0.00499
84 0.005005
85 0.005978
88 0.005992
95 0.006984
98 0.006948
101 0.005993
104 0.006007
106 0.006011
108 0.00702
115 0.007015
122 0.005987
126 0.005984
132 0.007978
139 0.005992
151 0.005984
155 0.006017
156 0.007979
161 0.007978
142 0.005998
90 0.005986
61 0.005983
57 0.006982
62 0.006982
68 0.005984
70 0.007947
81 0.007021
86 0.007013
91 0.006978
93 0.007972
97 0.007981
106 0.005972
112 0.005976
119 0.005987
128 0.007027
137 0.006963
142 0.006953
151 0.00798
158 0.006984
162 0.007003
165 0.006978
169 0.007979
135 0.007978
70 0.007015
56 0.007014
60 0.007016
65 0.007013
70 0.007001
75 0.00703
86 0.007014
94 0.00699
94 0.006944
98 0.006979
109 0.007013
115 0.007955
124 0.006988
135 0.006985
141 0.007101
153 0.007982
156 0.008027
167 0.007005
176 0.007018
180 0.006941
193 0.007015
200 0.006986
202 0.007014
166 0.007016
98 0.006983
79 0.006957
83 0.006974
91 0.006538
96 0.007019
101 0.007054
112 0.007017
123 0.007012
123 0.006973
128 0.007017
133 0.007034
140 0.007015
151 0.007027
158 0.006031
168 0.006025
178 0.006017
182 0.006022
187 0.006002
201 0.006017
207 0.005956
212 0.006017
218 0.006022
219 0.00602
176 0.00698
123 0.007021
98 0.007017
103 0.006031
108 0.005976
113 0.006017
119 0.005978
135 0.006015
141 0.006016
137 0.006015
141 0.005952
148 0.006043
154 0.00603
163 0.006031
173 0.005991
178 0.006018
182 0.006021
190 0.006017
198 0.005019
205 0.005019
215 0.00499
180 0.006019
124 0.00502
97 0.006028
94 0.004931
100 0.005018
110 0.006029
116 0.006035
123 0.005991
134 0.006017
141 0.006025
143 0.006015
143 0.005033
154 0.00502
163 0.005019
170 0.005021
177 0.00503
187 0.005019
194 0.00502
199 0.005018
203 0.005019
209 0.005038
207 0.005016
120 0.004059
88 0.00503
87 0.004989
92 0.005018
96 0.005052
103 0.005028
108 0.004961
119 0.005019
126 0.005018
129 0.005021
132 0.004024
134 0.005018
149 0.004034
155 0.00397
163 0.004022
175 0.00402
180 0.003985
188 0.00399
196 0.00407
198 0.005031
203 0.005042
165 0.004998
110 0.004981
83 0.004023
83 0.004018
91 0.005033
96 0.004034
100 0.003979
110 0.003989
120 0.004076
121 0.004056
122 0.003988
131 0.004024
138 0.004019
143 0.003985
153 0.003988
169 0.004007
176 0.003996
181 0.004038
192 0.00402
201 0.004035
202 0.003955
211 0.003989
214 0.004019
154 0.00399
102 0.004015
86 0.003977
85 0.003022
96 0.003035
101 0.002992
106 0.002992
118 0.002962
124 0.003951
126 0.00399
125 0.004019
134 0.00398
143 0.003994
147 0.004027
158 0.00304
167 0.003012
176 0.003035
181 0.003026
188 0.003032
196 0.003026
201 0.002992
208 0.003003
184 0.003028
128 0.002949
85 0.002992
81 0.003026
89 0.003961
94 0.003023
100 0.003028
109 0.002998
115 0.003024
120 0.002994
120 0.002994
126 0.003062
132 0.003008
141 0.003001
150 0.003039
162 0.003027
169 0.002023
175 0.001971
187 0.001995
194 0.002049
198 0.002035
205 0.003043
180 0.001995
121 0.001995
85 0.001995
74 0.001995
76 0.001995
86 0.002992
88 0.002012
90 0.00198
105 0.001996
111 0.001996
115 0.00194
118 0.001997
126 0.001996
135 0.001995
143 0.002031
149 0.001995
160 0.001995
169 0.001996
173 0.00094
183 0.000983
189 0.001944
197 0.000998
204 0.001995
179 0.000998
107 0.002005
82 0.000998
82 0.002
83 0.001995
88 0.002028
94 0.001997
100 0.002041
108 0.002047
113 0.002033
116 0.000997
120 0.001004
124 0.000999
139 0.000998
146 0.000998
151 0.001027
160 0.000998
164 0.001
171 0.002059
175 0.0
182 0.002018
165 0.001998
111 0.001978
81 0.000999
76 0.000998
82 0.001036
86 0.000998
91 0.00102
99 0.000985
106 0.000997
114 0.000996
117 0.000986
118 0.001039
125 0.001
132 0.000999
140 0.000998
148 0.000994
157 0.000997
166 0.0
172 0.0
177 0.0
180 0.0
186 0.001032
145 0.0
96 0.0
73 0.001
74 0.000998
80 0.000997
84 0.000999
85 0.000993
92 0.0
103 0.000998
105 0.0
107 0.0
112 0.0
122 0.0
128 0.0
142 0.0
152 0.0
159 0.0
164 0.0
172 0.0
178 0.0
184 0.0
179 0.0
134 0.0
94 0.0
80 0.0
82 0.001
88 0.0
89 0.00198
96 0.0
102 0.0
103 0.0
108 0.002037
111 0.002037
118 0.001011
124 0.0
130 0.0
137 0.0
144 0.002006
149 0.00203
157 0.000999
162 0.0
167 0.0
144 0.0
100 0.000997
75 0.000953
74 0.0
80 0.00096
78 0.0
80 0.001013
88 0.000964
99 0.000997
97 0.001998
100 0.000941
105 0.000956
110 0.0
115 0.001964
125 0.00097
134 0.000981
138 0.0
142 0.0
150 0.002055
152 0.001996
158 0.001996
150 0.002001
96 0.0
71 0.0
64 0.0
67 0.001998
68 0.002038
70 0.002031
73 0.0
78 0.000965
85 0.0
90 0.00103
96 0.0
101 0.001996
108 0.000963
117 0.0
122 0.0
131 0.000957
139 0.002062
144 0.002
151 0.0
159 0.0
163 0.0
167 0.002994
177 0.000984
175 0.002032
134 0.002038
86 0.000998
81 0.000949
85 0.00099
83 0.002028
86 0.00196
89 0.000996
93 0.0
101 0.001032
107 0.003025
112 0.000981
117 0.002004
127 0.001995
134 0.001995
142 0.001074
148 0.001064
155 0.002996
158 0.003044
167 0.002006
171 0.0
175 0.0
181 0.003998
189 0.001983
192 0.001943
155 0.002033
105 0.002004
96 0.001993
96 0.001999
99 0.002992
102 0.003069
104 0.001989
110 0.002049
118 0.002097
123 0.002993
124 0.00103
128 0.00301
136 0.00306
145 0.001029
152 0.000998
156 0.001
162 0.003006
166 0.004047
172 0.002016
179 0.002003
186 0.002001
188 0.003048
189 0.001986
154 0.002992
112 0.003047
94 0.001992
91 0.001997
99 0.001034
102 0.002954
104 0.002961
106 0.003991
119 0.002993
127 0.002044
124 0.002062
132 0.001996
136 0.001993
143 0.003995
152 0.003986
156 0.001996
165 0.001994
171 0.002011
174 0.004039
177 0.005037
189 0.003007
194 0.002959
199 0.002993
204 0.003005
167 0.00301
125 0.004031
105 0.003989
107 0.002992
114 0.003025
116 0.003029
119 0.004032
125 0.004986
137 0.00298
139 0.002984
143 0.003009
152 0.002992
157 0.002963
167 0.004981
175 0.004027
185 0.003014
188 0.00304
193 0.003004
195 0.004034
202 0.004027
213 0.003013
214 0.003014
224 0.003016
213 0.002979
166 0.003991
129 0.005046
117 0.004986
123 0.003036
128 0.003016
130 0.00303
136 0.005988
147 0.006021
152 0.003962
154 0.003958
157 0.003983
160 0.003952
166 0.003047
173 0.005018
178 0.005023
187 0.004042
192 0.003034
199 0.003
204 0.004987
211 0.005986
212 0.00295
174 0.003959
130 0.003999
113 0.004
119 0.003995
124 0.003956
128 0.005032
135 0.004948
144 0.00399
148 0.003997
150 0.00296
151 0.005984
153 0.006034
166 0.005002
170 0.004966
182 0.004038
186 0.003989
193 0.004998
201 0.005983
205 0.006014
209 0.003965
175 0.003988
128 0.003972
103 0.005985
104 0.005904
110 0.003962
113 0.003982
123 0.004979
134 0.005004
141 0.004977
143 0.006016
145 0.006981
149 0.005011
155 0.004989
162 0.004953
166 0.005984
174 0.005985
182 0.005984
191 0.004978
196 0.00497
203 0.005007
191 0.004996
138 0.006981
102 0.006982
96 0.004979
101 0.004991
104 0.004954
106 0.005985
110 0.007938
121 0.005952
127 0.004982
131 0.00601
135 0.005985
139 0.006
144 0.006982
152 0.006982
162 0.004979
166 0.005018
174 0.005033
182 0.006982
186 0.007952
192 0.005957
194 0.005953
119 0.005988
89 0.005985
82 0.005991
87 0.007008
90 0.007014
92 0.005982
98 0.005997
107 0.005951
116 0.005952
118 0.006949
119 0.006935
127 0.006982
137 0.00798
147 0.006007
153 0.006008
160 0.00598
169 0.007967
175 0.007982
181 0.005998
188 0.006973
195 0.006967
190 0.007983
150 0.007981
93 0.00701
83 0.007979
84 0.006979
89 0.006984
93 0.006999
95 0.007966
106 0.007965
112 0.00596
115 0.006981
118 0.006019
128 0.007032
133 0.007013
140 0.006976
156 0.007027
166 0.006967
170 0.006996
178 0.006973
187 0.007978
191 0.007964
195 0.006981
196 0.007043
138 0.007014
96 0.007981
86 0.007013
92 0.007013
92 0.006984
94 0.006975
102 0.006972
113 0.006976
119 0.006974
120 0.007016
124 0.006948
129 0.006985
137 0.007015
145 0.00703
154 0.007016
160 0.007027
169 0.007012
179 0.005968
180 0.006969
184 0.006986
193 0.007021
162 0.007013
112 0.006989
85 0.006009
88 0.006033
93 0.005991
97 0.006014
101 0.006042
112 0.007048
119 0.007006
120 0.00694
124 0.00696
128 0.006962
133 0.007019
142 0.005984
151 0.006011
157 0.005963
164 0.005989
172 0.006019
177 0.005988
186 0.006047
195 0.006017
155 0.005972
106 0.005951
82 0.005984
78 0.007025
82 0.006014
85 0.005966
89 0.005983
92 0.006035
101 0.006016
106 0.00602
113 0.006032
116 0.005019
126 0.005915
134 0.006017
142 0.00502
147 0.006045
156 0.004958
165 0.004978
172 0.005017
177 0.005031
181 0.005939
188 0.004953
149 0.006012
100 0.006032
73 0.006017
73 0.006019
77 0.005012
83 0.006031
82 0.004964
91 0.00502
98 0.00499
102 0.005022
107 0.005026
111 0.005019
119 0.005043
130 0.005036
140 0.004967
149 0.00602
158 0.006014
169 0.006033
174 0.005027
183 0.005017
188 0.004972
194 0.00502
196 0.005002
162 0.005015
87 0.00498
80 0.005021
84 0.00502
88 0.005017
93 0.004988
97 0.003968
104 0.004019
115 0.00399
118 0.00504
118 0.005032
125 0.005019
135 0.005033
148 0.005032
157 0.005033
164 0.004991
173 0.004989
179 0.004024
185 0.004008
189 0.004008
194 0.003995
199 0.004016
162 0.004054
113 0.004012
92 0.004022
96 0.005004
100 0.00403
102 0.005047
112 0.004025
121 0.004061
124 0.004032
125 0.004043
131 0.00404
133 0.004038
141 0.004039
153 0.004024
159 0.004012
170 0.002986
178 0.00401
185 0.003026
190 0.00399
196 0.003991
182 0.003044
131 0.002986
95 0.00399
88 0.003988
96 0.004012
98 0.004052
101 0.003983
115 0.00399
122 0.004033
125 0.004041
127 0.004029
133 0.002993
140 0.004006
145 0.002993
156 0.003954
166 0.003023
171 0.00303
178 0.003024
183 0.003039
195 0.002003
163 0.001999
114 0.002992
81 0.003992
81 0.003989
88 0.002991
94 0.002036
93 0.00306
106 0.003037
115 0.003009
116 0.002997
120 0.003023
125 0.002992
134 0.002992
143 0.003025
154 0.00299
163 0.001995
168 0.001996
175 0.002006
180 0.002042
187 0.00204
184 0.002016
134 0.002024
91 0.002061
74 0.002992
78 0.003023
83 0.002951
85 0.002962
92 0.002995
101 0.00305
108 0.001993
111 0.001994
115 0.002025
121 0.002027
131 0.002
139 0.001997
154 0.001982
163 0.002
168 0.002031
178 0.001985
186 0.001972
194 0.001031
182 0.001013
130 0.00098
84 0.001024
70 0.001033
74 0.001945
78 0.001958
85 0.002026
88 0.001977
99 0.001963
107 0.002029
109 0.001995
116 0.001
124 0.001944
131 0.001022
139 0.001005
155 0.001992
161 0.000999
168 0.001017
182 0.00099
193 0.000985
198 0.001995
206 0.000997
193 0.001995
137 0.000952
93 0.00105
82 0.001013
85 0.001007
91 0.001038
95 0.000949
98 0.002046
113 0.000997
119 0.000998
124 0.000997
127 0.002023
136 0.0
145 0.0
155 0.0
162 0.000981
172 0.000998
184 0.001
189 0.001
198 0.000997
205 0.000997
217 0.000992
224 0.000997
188 0.000997
115 0.001031
95 0.001045
92 0.0
100 0.0
105 0.0
108 0.0
118 0.001056
128 0.0
134 0.0
133 0.0
137 0.0
146 0.0
153 0.0
164 0.00103
172 0.001092
181 0.0
189 0.0
198 0.0
205 0.0
211 0.0
202 0.001012
144 0.0
96 0.0
86 0.0
90 0.0
97 0.0
100 0.0
105 0.0
115 0.0
122 0.001006
126 0.0
131 0.000965
137 0.0
147 0.002027
157 0.000998
169 0.0
175 0.000972
186 0.0
194 0.0
200 0.0
206 0.0
210 0.0
222 0.002001
196 0.001046
101 0.002029
81 0.002038
83 0.0
89 0.0
95 0.0
99 0.000996
106 0.002013
117 0.000967
123 0.001009
124 0.001013
128 0.001993
132 0.002005
148 0.001044
156 0.001049
168 0.0
178 0.0
188 0.0
195 0.00192
200 0.001981
208 0.000957
215 0.0
223 0.0
209 0.002042
147 0.002033
76 0.00203
72 0.002028
77 0.0
83 0.0
88 0.001001
94 0.001036
101 0.001994
108 0.00203
116 0.0
119 0.0
126 0.00097
134 0.001055
150 0.00092
160 0.00104
169 0.000998
185 0.0
194 0.0
199 0.000957
208 0.002012
217 0.003023
225 0.0
237 0.0
233 0.001018
169 0.000997
87 0.0
79 0.002007
80 0.002963
88 0.0
94 0.000945
100 0.0
111 0.002026
121 0.002037
122 0.0
126 0.0
132 0.000954
139 0.002994
158 0.001992
165 0.002038
177 0.002038
190 0.0
197 0.0
208 0.001016
215 0.003074
220 0.002994
231 0.0
235 0.0
181 0.0
117 0.001995
82 0.00197
87 0.002027
92 0.002058
100 0.002039
108 0.002992
123 0.002013
130 0.002982
127 0.003035
123 0.001993
122 0.001956
128 0.000994
145 0.003033
161 0.002052
168 0.002982
178 0.002992
185 0.002038
192 0.000956
204 0.001987
187 0.003049
125 0.003049
76 0.002005
67 0.003001
69 0.001982
77 0.003042
90 0.001
100 0.000996
109 0.002965
111 0.004037
113 0.001984
117 0.001986
121 0.001985
129 0.004028
141 0.003041
153 0.001988
163 0.000956
173 0.001986
187 0.001989
194 0.000992
187 0.002992
128 0.003959
65 0.001996
52 0.001967
51 0.002032
57 0.004017
63 0.004
67 0.001955
73 0.002027
83 0.002008
86 0.002001
90 0.001989
92 0.003991
101 0.004965
115 0.003018
120 0.003017
129 0.003002
140 0.003991
145 0.004033
155 0.00203
163 0.001986
133 0.001992
52 0.001995
35 0.001994
35 0.003989
42 0.004987
44 0.002995
49 0.002995
57 0.002995
63 0.004944
67 0.004988
71 0.002942
76 0.002999
80 0.003
93 0.003002
104 0.004002
112 0.004022
120 0.004989
130 0.00303
133 0.003041
142 0.004018
148 0.004989
114 0.004987
51 0.002961
33 0.002981
31 0.002986
35 0.002989
36 0.00399
43 0.006013
50 0.005986
56 0.003994
60 0.003952
59 0.003946
61 0.006033
70 0.00603
81 0.005986
90 0.004009
98 0.003944
111 0.003971
120 0.003979
122 0.003083
130 0.005015
131 0.004987
71 0.005003
30 0.003023
20 0.004017
19 0.006019
25 0.005985
26 0.004
32 0.003987
47 0.00398
50 0.004012
54 0.003984
57 0.005986
64 0.006027
73 0.003994
81 0.004954
93 0.002996
102 0.005987
109 0.007015
120 0.004023
131 0.003041
141 0.005021
146 0.004001
152 0.004023
151 0.005987
100 0.006036
38 0.004998
29 0.004
31 0.004945
32 0.007032
33 0.007027
39 0.004995
47 0.005004
63 0.004976
67 0.004988
73 0.00495
82 0.005985
91 0.006982
105 0.004941
115 0.005011
122 0.004985
131 0.006942
138 0.007034
149 0.005009
155 0.004957
166 0.004955
176 0.00499
185 0.004956
171 0.006983
114 0.007023
71 0.005954
68 0.006009
72 0.005954
75 0.006983
79 0.006984
89 0.005954
96 0.005955
105 0.004995
106 0.004999
113 0.004985
118 0.006991
126 0.007965
143 0.006015
152 0.005956
157 0.005957
167 0.005946
173 0.007981
180 0.007024
189 0.005952
199 0.006982
212 0.006013
206 0.007021
150 0.006992
96 0.007937
87 0.007986
87 0.005984
94 0.005951
98 0.006017
102 0.007948
109 0.007979
120 0.005943
127 0.007978
134 0.005987
140 0.006947
146 0.006949
161 0.007012
170 0.006995
178 0.006937
187 0.006939
195 0.005997
199 0.007979
206 0.007979
221 0.005983
186 0.008016
241 0.005983
248 0.006982
229 0.005942
142 0.00697
104 0.00699
99 0.006978
105 0.00694
109 0.006982
114 0.007017
119 0.007028
127 0.006956
140 0.007013
141 0.006014
150 0.006988
157 0.007014
164 0.006951
177 0.006975
186 0.006936
197 0.006954
211 0.006981
220 0.007017
228 0.006981
238 0.006951
246 0.006959
255 0.005953
255 0.006982
255 0.00603
229 0.007028
159 0.006987
127 0.006983
121 0.006978
124 0.006955
133 0.007012
138 0.007015
145 0.006975
160 0.007013
167 0.006003
171 0.006978
174 0.005968
181 0.00698
191 0.006023
204 0.006012
216 0.007017
225 0.006981
229 0.007038
239 0.007009
189 0.00698
195 0.007014
201 0.005997
187 0.006014
152 0.006003
133 0.005962
127 0.006012
130 0.006032
137 0.006031
138 0.006013
141 0.006015
148 0.005028
152 0.006019
153 0.006012
153 0.006045
157 0.005991
164 0.006021
168 0.005017
174 0.006016
178 0.005963
184 0.005965
187 0.006011
192 0.006054
193 0.00502
171 0.004983
128 0.006035
122 0.004977
127 0.005018
130 0.005034
132 0.004973
134 0.005036
139 0.006027
144 0.006059
145 0.006015
145 0.006017
148 0.005974
151 0.005993
159 0.005983
164 0.005032
171 0.004968
175 0.005015
176 0.004977
181 0.005014
170 0.005033
130 0.005033
116 0.004993
115 0.004982
115 0.006027
118 0.004984
121 0.006017
125 0.005032
129 0.004999
131 0.004972
133 0.005034
133 0.005036
137 0.00503
143 0.005033
148 0.004976
151 0.004027
156 0.005005
159 0.003994
166 0.004949
176 0.004021
123 0.004022
102 0.003978
98 0.004002
103 0.004036
106 0.00502
108 0.005019
113 0.005001
119 0.005034
124 0.004999
127 0.003986
133 0.003989
138 0.003989
144 0.003957
151 0.004073
157 0.003023
162 0.00398
164 0.004023
169 0.002961
176 0.00494
151 0.004934
115 0.003977
98 0.003982
101 0.003978
103 0.004017
106 0.004013
112 0.003989
118 0.003986
122 0.003959
122 0.004
123 0.00399
125 0.002959
132 0.002973
137 0.004034
145 0.003951
153 0.003024
156 0.003025
162 0.003989
147 0.002958
110 0.003026
86 0.002993
84 0.004013
90 0.002994
92 0.002995
94 0.002991
100 0.004022
106 0.003023
110 0.003032
112 0.003006
116 0.003943
124 0.00397
128 0.002996
135 0.003955
142 0.003951
147 0.002994
153 0.002992
157 0.002943
163 0.003025
149 0.002992
87 0.003034
79 0.003039
80 0.00302
83 0.003019
72 0.003021
74 0.003022
85 0.002908
95 0.001984
101 0.003025
103 0.002031
110 0.001995
115 0.002031
131 0.003008
141 0.002022
147 0.001997
154 0.002042
162 0.002013
169 0.002005
173 0.002054
179 0.003024
186 0.002978
195 0.002992
202 0.002026
171 0.002962
87 0.000997
79 0.00298
81 0.000997
85 0.000972
86 0.002021
90 0.001026
98 0.001958
107 0.002002
110 0.000977
112 0.00204
120 0.001961
126 0.002021
142 0.002027
153 0.002036
160 0.002052
163 0.001987
172 0.002039
179 0.002028
184 0.001994
190 0.000987
198 0.001997
152 0.000997
102 0.001009
82 0.000936
85 0.002059
90 0.002027
90 0.002072
95 0.001007
110 0.002042
116 0.002043
123 0.002046
126 0.001201
130 0.000978
140 0.001021
148 0.001035
158 0.000998
172 0.000997
178 0.001001
187 0.000999
193 0.000986
202 0.002048
210 0.001016
219 0.0
227 0.0
233 0.0
247 0.0
219 0.000999
152 0.000998
103 0.001001
103 0.000998
112 0.001002
118 0.001014
121 0.0
130 0.0
140 0.0
147 0.0
150 0.0
157 0.000985
167 0.001
173 0.000998
187 0.001029
197 0.0
207 0.0
213 0.0
218 0.0
229 0.0
236 0.0
243 0.0
249 0.0
255 0.0
255 0.0
209 0.0
132 0.0
128 0.0
131 0.0
139 0.0
140 0.000991
152 0.0
161 0.0
166 0.0
166 0.0
169 0.0
174 0.0
183 0.0
198 0.000992
207 0.001007
214 0.0
220 0.0
231 0.0
237 0.000959
186 0.0
187 0.0
162 0.001001
133 0.000998
120 0.000971
123 0.000998
129 0.000964
130 0.001992
137 0.0
142 0.0
144 0.0
144 0.0
145 0.0
150 0.001068
153 0.0
157 0.001037
165 0.001014
170 0.002028
177 0.002006
180 0.002038
186 0.0
189 0.0
191 0.0
171 0.002041
137 0.003036
113 0.0
114 0.000941
118 0.000958
120 0.003001
122 0.002042
128 0.001999
133 0.001994
135 0.000964
138 0.00097
140 0.000966
144 0.001029
150 0.001983
156 0.0
161 0.0
166 0.0
170 0.000927
173 0.002013
179 0.000973
184 0.001994
166 0.001957
123 0.0
111 0.0
111 0.0
114 0.002057
116 0.000996
121 0.000953
125 0.0
128 0.0
132 0.001041
134 0.001017
137 0.002036
141 0.001978
147 0.0
152 0.002008
156 0.000997
159 0.00197
164 0.002039
168 0.000946
196 0.0
175 0.0
126 0.002027
95 0.0
99 0.002022
102 0.002041
108 0.001006
111 0.000968
118 0.0
123 0.002035
126 0.002037
125 0.001044
129 0.000969
135 0.0
143 0.002026
153 0.000961
159 0.002994
163 0.003025
170 0.0
173 0.001029
141 0.0
98 0.003024
80 0.002995
77 0.0
81 0.0
84 0.001042
86 0.003051
97 0.0
101 0.003004
103 0.003014
106 0.001027
109 0.001041
116 0.001025
124 0.003003
131 0.002999
139 0.000999
146 0.000984
149 0.00199
153 0.002994
160 0.001015
131 0.003024
87 0.002994
64 0.001999
65 0.003
68 0.002004
72 0.00406
72 0.004037
74 0.004001
87 0.003008
92 0.001988
93 0.001976
99 0.002043
109 0.002068
117 0.002981
123 0.002998
129 0.001997
136 0.001995
142 0.001996
145 0.00393
150 0.003995
158 0.001996
128 0.001995
87 0.001992
64 0.001994
69 0.001989
72 0.004018
72 0.004024
78 0.001998
86 0.001991
91 0.002962
93 0.004032
95 0.00399
100 0.002957
106 0.002026
112 0.001987
124 0.002959
131 0.002024
135 0.004021
141 0.00403
147 0.002987
152 0.001037
133 0.002978
90 0.004998
63 0.004986
58 0.003867
63 0.002968
66 0.002988
70 0.002049
77 0.002026
82 0.004068
86 0.00402
91 0.002985
94 0.002975
101 0.002952
109 0.004993
116 0.004958
124 0.002976
130 0.002985
135 0.003012
143 0.00301
146 0.002959
154 0.005042
138 0.004987
79 0.003923
59 0.003977
54 0.003029
58 0.005985
59 0.005953
60 0.002997
65 0.003023
74 0.003022
85 0.003018
86 0.003018
93 0.00496
100 0.004987
108 0.003005
115 0.003988
124 0.002995
132 0.003992
137 0.006011
144 0.006026
152 0.003974
158 0.003987
167 0.002983
166 0.002972
126 0.003035
83 0.005985
70 0.004977
73 0.003989
76 0.003031
78 0.003987
81 0.006017
87 0.005993
101 0.003996
107 0.003989
111 0.004003
119 0.004015
127 0.003977
135 0.006017
141 0.007013
152 0.005009
158 0.004955
164 0.003949
169 0.006986
177 0.006981
184 0.004982
189 0.004987
190 0.00499
145 0.00399
104 0.004036
93 0.006024
97 0.006049
102 0.004003
103 0.003944
109 0.003958
116 0.006982
123 0.006017
125 0.00399
128 0.004954
137 0.004993
142 0.004984
150 0.005007
162 0.007986
165 0.006983
172 0.004983
179 0.005952
186 0.004987
190 0.007008
195 0.007017
153 0.005023
109 0.004992
94 0.00501
98 0.00501
101 0.004991
104 0.007037
111 0.006994
121 0.004954
128 0.005958
130 0.005981
133 0.007981
137 0.007979
148 0.004982
155 0.004996
167 0.007039
174 0.005
180 0.005024
188 0.004953
194 0.006981
198 0.007025
205 0.005985
183 0.005955
128 0.005955
98 0.00702
91 0.007917
93 0.006001
98 0.007976
102 0.005951
109 0.005953
118 0.004992
125 0.007048
129 0.007981
133 0.005945
139 0.005954
148 0.005953
156 0.007979
166 0.008017
174 0.005996
182 0.007987
195 0.005999
200 0.006039
206 0.006019
214 0.007979
183 0.006973
115 0.006975
97 0.006951
95 0.005984
102 0.006968
106 0.007982
108 0.005984
121 0.00697
131 0.005952
137 0.005989
138 0.006969
146 0.007977
155 0.007008
167 0.006959
171 0.006939
182 0.006967
190 0.007027
199 0.007013
208 0.006962
218 0.005966
225 0.006001
208 0.00597
170 0.00694
115 0.006994
106 0.006951
115 0.00695
120 0.006971
124 0.006984
130 0.007012
141 0.007016
146 0.006984
147 0.006013
149 0.006953
157 0.006942
166 0.006972
173 0.006971
183 0.006014
191 0.005988
196 0.006015
205 0.006981
211 0.006983
199 0.006016
150 0.006016
109 0.005991
112 0.006016
122 0.00598
127 0.005985
132 0.006002
143 0.005967
152 0.006001
153 0.005986
152 0.006937
155 0.006979
163 0.007026
170 0.007014
182 0.006028
190 0.006029
199 0.005972
206 0.006022
202 0.006033
158 0.006035
112 0.005983
100 0.004997
106 0.005997
109 0.005974
112 0.00599
119 0.005985
132 0.005032
139 0.005019
135 0.006036
140 0.006034
147 0.006034
154 0.005972
161 0.005973
170 0.005017
172 0.005989
180 0.005983
182 0.005034
147 0.00502
84 0.005025
83 0.005034
89 0.005025
90 0.005021
91 0.005017
99 0.005036
105 0.00603
112 0.005969
115 0.005986
117 0.00596
122 0.005019
129 0.005026
141 0.005017
146 0.005016
153 0.005986
160 0.004987
163 0.004987
168 0.004987
163 0.004036
103 0.003995
72 0.005032
69 0.004971
73 0.00404
73 0.004027
75 0.004988
81 0.004989
89 0.005039
98 0.005029
98 0.004964
102 0.003953
111 0.003985
119 0.003391
128 0.005026
134 0.004988
139 0.005041
144 0.005038
157 0.004019
158 0.003994
166 0.003989
151 0.003994
102 0.004045
71 0.003991
67 0.003981
68 0.003991
71 0.00407
72 0.004023
75 0.003991
84 0.003985
97 0.002986
99 0.004005
103 0.003989
111 0.004027
120 0.004014
128 0.003018
133 0.003997
139 0.004025
148 0.004023
154 0.004039
158 0.003034
162 0.004024
174 0.003005
171 0.002991
123 0.003033
77 0.003966
75 0.003022
77 0.003023
78 0.002975
79 0.002986
82 0.002962
91 0.002999
101 0.004028
104 0.003993
108 0.003954
117 0.004036
123 0.002978
133 0.003978
140 0.003039
145 0.003012
148 0.002984
156 0.003027
165 0.002992
167 0.003062
172 0.002992
180 0.002986
144 0.002992
98 0.003023
78 0.003022
82 0.002992
83 0.002971
83 0.002008
86 0.002994
94 0.002992
107 0.003958
113 0.003041
115 0.003036
117 0.001995
128 0.002036
136 0.003045
143 0.002055
149 0.003029
155 0.00304
162 0.001994
169 0.002979
174 0.003025
178 0.001995
162 0.001995
118 0.002074
90 0.001995
89 0.00199
89 0.002043
92 0.00205
94 0.002021
101 0.002027
109 0.002025
117 0.001987
118 0.002016
120 0.002029
132 0.002
139 0.002029
144 0.000998
154 0.002019
162 0.002
168 0.002028
174 0.00202
181 0.002053
187 0.002043
185 0.002028
147 0.001995
107 0.002084
92 0.002028
96 0.002078
97 0.00216
99 0.000997
104 0.002041
115 0.00203
122 0.002035
125 0.002002
127 0.002043
134 0.002024
139 0.000999
145 0.002028
154 0.001031
160 0.00104
165 0.000998
177 0.002025
182 0.000997
184 0.000998
190 0.002022
150 0.002023
111 0.000987
96 0.002068
101 0.001994
104 0.002018
104 0.001994
107 0.002027
115 0.000999
130 0.00106
130 0.000996
134 0.001031
139 0.000993
148 0.00105
154 0.0
164 0.00098
168 0.000969
173 0.002045
179 0.000997
187 0.000968
193 0.000997
200 0.0
191 0.0
146 0.0
112 0.0
105 0.001017
108 0.001024
109 0.000997
111 0.0
112 0.0
119 0.000997
132 0.000998
136 0.000998
143 0.0
147 0.0
155 0.0
163 0.0
170 0.0
178 0.0
184 0.0
187 0.0
193 0.000998
201 0.0
206 0.0
214 0.0
165 0.0
126 0.0
116 0.0
119 0.0
122 0.001028
126 0.000997
127 0.001007
136 0.000942
147 0.000981
149 0.000955
150 0.0
155 0.002047
165 0.0
172 0.002002
181 0.000955
186 0.0
193 0.000953
199 0.002
206 0.002044
210 0.0
217 0.0
200 0.0
153 0.001995
128 0.001995
129 0.001994
134 0.002992
136 0.000997
139 0.0
148 0.000997
155 0.002992
155 0.001983
160 0.0
162 0.0
165 0.0
174 0.002031
181 0.002013
189 0.00198
194 0.002027
199 0.001984
207 0.0
212 0.0
198 0.000981
155 0.002038
126 0.002034
120 0.0
129 0.0
134 0.0
134 0.003044
145 0.0
152 0.001992
154 0.003033
158 0.0
160 0.000963
165 0.00099
171 0.002029
181 0.002041
186 0.0
193 0.0
201 0.0
206 0.002033
213 0.00104
219 0.002002
196 0.001989
140 0.0
122 0.000968
123 0.000947
131 0.003036
133 0.002072
135 0.0
142 0.0
149 0.0
152 0.002033
157 0.0
162 0.003054
169 0.003027
175 0.001986
182 0.0
190 0.0
196 0.003016
201 0.003034
208 0.001041
211 0.0
215 0.0
201 0.003023
132 0.000983
119 0.002025
122 0.002038
127 0.0
130 0.0
131 0.002001
139 0.001988
145 0.001988
151 0.002004
156 0.002001
157 0.002001
160 0.003002
172 0.0
178 0.002993
183 0.002992
191 0.001022
197 0.001013
202 0.001995
204 0.003042
209 0.002992
173 0.001985
132 0.00198
117 0.002002
120 0.002993
127 0.000997
129 0.000953
130 0.002991
140 0.002956
149 0.001996
151 0.002008
154 0.001998
158 0.002991
165 0.00399
172 0.001985
178 0.002013
183 0.00198
193 0.002002
200 0.00203
202 0.003022
207 0.002993
205 0.001995
163 0.001998
129 0.001999
122 0.002992
124 0.004053
130 0.002057
134 0.002013
140 0.001986
153 0.002951
155 0.001988
158 0.004034
160 0.003988
162 0.003054
171 0.001983
176 0.002035
179 0.004025
183 0.004955
193 0.002013
197 0.001994
202 0.001996
177 0.003
142 0.002962
130 0.004047
131 0.004019
139 0.002948
142 0.001999
146 0.001998
152 0.004987
158 0.004022
160 0.003007
159 0.001934
162 0.00199
171 0.003044
176 0.003949
180 0.00399
182 0.005044
188 0.002993
196 0.00295
192 0.002962
151 0.005023
119 0.005025
109 0.002966
113 0.002034
116 0.002024
119 0.003999
127 0.003957
135 0.005985
136 0.005031
138 0.002972
140 0.002036
144 0.002009
150 0.004989
157 0.005984
162 0.005954
166 0.002979
169 0.003045
174 0.00298
136 0.002948
98 0.00295
88 0.004988
89 0.00498
93 0.002994
96 0.003005
98 0.002977
106 0.005017
114 0.005017
118 0.00299
118 0.00399
127 0.004032
134 0.003977
139 0.003984
143 0.005919
150 0.005984
153 0.003991
159 0.004003
164 0.003005
168 0.005987
147 0.006017
95 0.002948
78 0.002994
81 0.004022
82 0.003999
85 0.004016
88 0.006017
93 0.005984
105 0.003998
108 0.004026
108 0.003986
112 0.006015
118 0.005988
127 0.002956
133 0.003987
140 0.00499
149 0.004987
156 0.004037
160 0.007011
163 0.006991
155 0.004012
112 0.004023
79 0.004005
71 0.005987
75 0.006018
78 0.003921
81 0.004985
89 0.004987
96 0.004993
105 0.005001
106 0.007954
108 0.007135
117 0.005952
125 0.003992
129 0.004995
135 0.007981
142 0.008042
148 0.004993
153 0.005009
163 0.005014
170 0.004983
174 0.005002
177 0.005954
184 0.007064
180 0.006981
117 0.005952
88 0.00402
82 0.003984
82 0.007964
87 0.007956
90 0.00499
92 0.007981
104 0.005013
109 0.006049
110 0.005982
113 0.007979
121 0.007968
129 0.004986
135 0.005986
142 0.005957
148 0.007979
156 0.00797
160 0.005984
169 0.007957
173 0.006952
177 0.004986
169 0.004985
126 0.007978
91 0.007948
83 0.005953
88 0.005953
89 0.005956
91 0.007943
97 0.007987
106 0.005953
116 0.007936
119 0.006983
120 0.006948
127 0.005984
134 0.006998
142 0.006981
151 0.005955
155 0.005983
160 0.005985
170 0.007977
174 0.007985
178 0.005987
180 0.007986
138 0.005993
98 0.006876
85 0.006984
88 0.007978
93 0.007015
94 0.006008
97 0.006948
109 0.006947
115 0.007037
116 0.007039
119 0.006017
127 0.006989
133 0.005977
146 0.005986
150 0.005988
157 0.006982
164 0.006977
169 0.005968
174 0.005984
181 0.006966
185 0.007023
158 0.00703
113 0.007032
83 0.007005
84 0.007024
90 0.006942
93 0.006956
95 0.006979
102 0.006004
111 0.006021
118 0.005968
117 0.005992
121 0.005981
129 0.006015
137 0.006017
148 0.005988
151 0.00596
160 0.005022
166 0.006981
168 0.006939
174 0.006983
168 0.006035
111 0.006012
83 0.005979
79 0.006002
83 0.006016
85 0.005943
89 0.00499
97 0.005996
109 0.005036
113 0.005984
115 0.005988
120 0.004991
127 0.005019
135 0.004969
143 0.004983
149 0.004985
156 0.00601
162 0.006017
174 0.006041
178 0.005973
186 0.00599
160 0.005986
113 0.005983
94 0.006017
94 0.006019
98 0.005955
101 0.004983
104 0.005985
109 0.005022
118 0.005022
126 0.005024
130 0.004966
135 0.004935
142 0.004957
148 0.004987
155 0.005018
160 0.006017
169 0.005999
175 0.005024
176 0.004962
185 0.005059
177 0.004989
110 0.005038
93 0.003948
95 0.004945
102 0.004972
103 0.004954
106 0.00499
116 0.005023
123 0.003992
126 0.003989
128 0.00399
130 0.003955
138 0.003991
147 0.004022
155 0.004058
159 0.004028
165 0.003991
173 0.003991
179 0.003991
162 0.00399
116 0.004988
85 0.005016
83 0.005019
88 0.005067
92 0.00399
98 0.00399
105 0.00402
113 0.004032
118 0.00504
118 0.005018
122 0.004988
130 0.004926
136 0.003989
144 0.004024
151 0.004017
159 0.003992
163 0.003991
169 0.002998
136 0.004089
91 0.003986
75 0.003962
76 0.00402
79 0.003992
81 0.002997
83 0.002951
92 0.00296
100 0.004037
105 0.003991
107 0.004016
115 0.003973
120 0.003968
129 0.00399
139 0.004034
143 0.003992
150 0.003959
156 0.003946
160 0.002962
115 0.002994
78 0.002959
65 0.002997
67 0.003072
70 0.002997
72 0.003026
77 0.00299
90 0.003959
96 0.003995
99 0.003992
101 0.002993
108 0.002994
118 0.002965
123 0.003015
131 0.003024
137 0.002992
149 0.002986
155 0.001971
162 0.003042
169 0.002992
173 0.003029
179 0.002986
185 0.002983
155 0.002029
102 0.002029
75 0.002992
73 0.001995
75 0.002031
77 0.001996
81 0.00302
89 0.001995
96 0.002992
101 0.003021
103 0.002992
106 0.003025
113 0.002992
120 0.003028
129 0.002995
138 0.002029
145 0.003016
158 0.002053
160 0.002005
166 0.001989
166 0.002028
111 0.002006
76 0.002
67 0.002027
67 0.002025
74 0.001999
78 0.002056
81 0.002027
91 0.002028
101 0.002033
102 0.000999
104 0.002031
113 0.00097
121 0.000996
130 0.000943
140 0.001976
149 0.000998
154 0.001962
164 0.00196
171 0.002
176 0.002024
164 0.001991
114 0.001004
82 0.002029
77 0.002043
79 0.002032
82 0.001001
85 0.000999
90 0.000997
100 0.00102
112 0.001003
115 0.000997
118 0.002052
128 0.001963
136 0.00197
146 0.002002
152 0.00099
162 0.001007
172 0.000999
179 0.000974
184 0.001008
189 0.000997
175 0.000998
125 0.000997
91 0.002029
89 0.0
91 0.002038
94 0.002027
96 0.0
103 0.0
117 0.0
121 0.0
120 0.0
123 0.0
131 0.000998
139 0.000997
147 0.000997
157 0.0
167 0.001005
171 0.0
178 0.0
184 0.0
132 0.0
89 0.0
77 0.001051
79 0.0
85 0.0
88 0.0
94 0.0
107 0.0
112 0.0
116 0.000987
117 0.0
123 0.0
133 0.0
141 0.0
149 0.0
158 0.0
164 0.0
176 0.0
181 0.0
192 0.0
166 0.0
111 0.000965
80 0.0
77 0.000991
80 0.002992
84 0.002993
89 0.000977
92 0.000966
101 0.000965
109 0.003025
111 0.000997
120 0.002996
125 0.002026
135 0.0
143 0.0
150 0.0
157 0.002035
164 0.002025
175 0.0
184 0.000956
187 0.0
194 0.002032
191 0.00203
105 0.002986
80 0.002992
77 0.0
79 0.0
86 0.0
89 0.003025
94 0.002035
104 0.0
112 0.0
114 0.001002
119 0.0
124 0.002
138 0.001009
145 0.002025
154 0.003023
164 0.000986
170 0.000968
180 0.0
186 0.003035
192 0.00299
203 0.0
204 0.0
157 0.0
105 0.001991
83 0.001989
88 0.002025
90 0.002027
99 0.0
107 0.0
113 0.0
120 0.002026
127 0.001966
130 0.0
136 0.0
147 0.0
156 0.002028
171 0.000965
179 0.002027
188 0.002026
198 0.0
204 0.0
211 0.0
221 0.002058
196 0.002001
124 0.001002
102 0.0
100 0.000982
107 0.002017
114 0.000996
122 0.00299
131 0.002993
142 0.0
144 0.000969
143 0.000958
148 0.002947
156 0.002993
165 0.0
171 0.0
183 0.0
191 0.003012
199 0.0
208 0.002999
194 0.002992
122 0.00204
99 0.001985
95 0.001964
99 0.003036
104 0.003022
114 0.00199
123 0.002003
130 0.002084
132 0.003038
135 0.001996
139 0.002021
146 0.003022
155 0.003024
165 0.001981
173 0.002993
179 0.002991
190 0.00307
180 0.003005
114 0.002985
86 0.001959
80 0.001988
87 0.001997
89 0.002993
96 0.004061
106 0.004023
113 0.001997
119 0.001991
120 0.00299
122 0.003026
129 0.004017
141 0.000981
147 0.002986
158 0.002001
168 0.003004
170 0.002
128 0.00295
85 0.002987
68 0.00204
71 0.003002
72 0.002011
78 0.004021
79 0.004025
87 0.002984
99 0.002
103 0.001985
108 0.002004
116 0.002004
123 0.002955
128 0.005039
135 0.001993
145 0.002991
151 0.002989
156 0.003964
161 0.004026
114 0.002016
75 0.002029
64 0.002036
65 0.002045
67 0.002028
67 0.005019
74 0.005067
86 0.002043
90 0.003023
96 0.001962
102 0.005036
104 0.004988
111 0.001994
119 0.001995
125 0.002022
139 0.002034
146 0.001992
153 0.004979
124 0.004987
67 0.002951
57 0.003017
59 0.003
58 0.004965
63 0.005021
68 0.005019
77 0.003004
87 0.002985
94 0.002003
95 0.00301
102 0.002023
111 0.005023
117 0.00497
128 0.001964
136 0.00203
144 0.003009
152 0.006009
131 0.005979
76 0.003005
58 0.002993
64 0.002989
68 0.003032
75 0.003007
81 0.004995
92 0.005016
103 0.003012
105 0.003981
108 0.004018
115 0.006026
125 0.006014
134 0.003989
145 0.004009
158 0.003016
165 0.003006
170 0.003955
178 0.006896
165 0.006035
104 0.003005
80 0.003998
80 0.004002
85 0.006017
90 0.006013
97 0.003999
107 0.004005
120 0.005005
121 0.004955
124 0.003041
129 0.005988
138 0.005972
147 0.004018
152 0.004003
161 0.004
167 0.006027
175 0.007032
160 0.003994
115 0.00403
83 0.003993
87 0.003993
91 0.003993
95 0.006018
103 0.006017
117 0.004984
124 0.003991
125 0.003985
125 0.007025
131 0.006964
142 0.004007
150 0.004003
162 0.00398
169 0.003009
180 0.003986
186 0.006015
184 0.007014
123 0.003989
91 0.003987
83 0.004987
84 0.004995
88 0.006983
92 0.007006
98 0.004985
112 0.007069
119 0.00499
122 0.005031
128 0.004028
136 0.007016
143 0.007019
155 0.00498
163 0.003991
170 0.004987
182 0.007984
191 0.007993
191 0.005
118 0.007979
90 0.004993
88 0.004974
90 0.004985
93 0.007016
98 0.006977
105 0.00499
116 0.006002
124 0.005992
131 0.007977
135 0.007952
144 0.004981
156 0.007977
163 0.00503
172 0.004994
180 0.004989
189 0.007973
199 0.007978
204 0.005995
211 0.005992
197 0.005971
126 0.007992
97 0.007972
92 0.00599
99 0.007944
102 0.005995
107 0.005024
110 0.005957
127 0.006972
133 0.006979
136 0.006004
140 0.00598
148 0.006014
159 0.006964
165 0.007973
176 0.005936
188 0.007961
196 0.005991
209 0.00696
215 0.005982
223 0.006968
196 0.006987
140 0.005992
106 0.005995
97 0.005975
102 0.006971
111 0.007021
117 0.005981
131 0.006987
140 0.005985
150 0.005984
154 0.006962
158 0.007022
166 0.007054
177 0.006979
185 0.006985
198 0.006985
211 0.006984
215 0.007015
222 0.006973
212 0.00698
153 0.006962
119 0.005976
113 0.005982
119 0.00598
124 0.006017
137 0.006
146 0.006975
152 0.006987
162 0.006933
162 0.006984
163 0.006019
173 0.006978
184 0.006015
196 0.005945
204 0.005986
213 0.006001
224 0.005983
205 0.007022
137 0.006007
114 0.00598
113 0.005989
118 0.006016
122 0.005976
138 0.005968
148 0.005985
155 0.005984
157 0.00598
158 0.00594
160 0.006018
167 0.006016
179 0.005974
188 0.005954
193 0.005967
204 0.006009
210 0.005009
135 0.00502
101 0.005026
96 0.005019
102 0.00597
107 0.005997
111 0.006029
120 0.006055
134 0.005941
138 0.006002
139 0.005991
141 0.005024
148 0.004974
161 0.004977
170 0.005023
181 0.004987
188 0.004981
197 0.005034
195 0.005021
147 0.006035
92 0.005981
80 0.005005
83 0.005007
89 0.004994
92 0.005031
99 0.005032
109 0.00502
118 0.005018
120 0.005019
124 0.004991
132 0.005021
140 0.004957
149 0.00498
159 0.004987
169 0.00406
178 0.005013
186 0.004046
195 0.003982
180 0.004042
122 0.005027
74 0.004987
68 0.004988
69 0.004954
75 0.00403
80 0.005022
88 0.00499
96 0.004996
103 0.003924
107 0.003978
113 0.003993
121 0.004029
130 0.003938
138 0.004989
147 0.003966
159 0.005027
166 0.004999
171 0.004985
184 0.00499
179 0.00404
127 0.004019
84 0.004
64 0.003972
67 0.004143
72 0.004023
77 0.003947
84 0.003996
93 0.003913
102 0.00503
105 0.003037
111 0.003048
119 0.004025
129 0.004062
141 0.00303
157 0.003028
167 0.004068
178 0.00399
189 0.003993
197 0.003872
208 0.003991
203 0.00399
148 0.004011
88 0.003958
79 0.002988
85 0.003986
92 0.003013
99 0.003014
109 0.004003
120 0.002992
129 0.003962
132 0.003027
133 0.003029
140 0.003039
152 0.003022
163 0.00399
173 0.003989
183 0.003029
190 0.003009
195 0.002979
149 0.002981
103 0.002992
88 0.003055
94 0.002994
99 0.002997
104 0.003027
115 0.002986
128 0.002992
139 0.002985
137 0.00198
137 0.002041
147 0.001995
153 0.002037
159 0.001954
170 0.001995
178 0.003026
188 0.002992
186 0.003062
135 0.002964
91 0.002991
81 0.003026
87 0.002995
91 0.002027
101 0.002992
114 0.002021
124 0.001996
127 0.001995
127 0.002001
131 0.001996
138 0.002024
147 0.002042
156 0.00204
168 0.001998
176 0.002018
187 0.001028
142 0.002011
92 0.002029
72 0.001995
72 0.001995
81 0.001994
84 0.002028
89 0.001995
101 0.002027
110 0.002028
114 0.002031
118 0.002055
121 0.002032
138 0.001996
147 0.002026
157 0.000996
165 0.000999
176 0.002023
186 0.001997
170 0.001965
116 0.000999
79 0.000998
69 0.00203
71 0.001963
76 0.001959
84 0.001964
91 0.002057
101 0.000998
109 0.000999
113 0.000998
117 0.002074
124 0.002025
135 0.000999
143 0.002064
154 0.002039
165 0.0
174 0.0
187 0.001996
192 0.001835
158 0.0
100 0.00104
64 0.001026
64 0.000999
71 0.000998
75 0.000999
80 0.0
87 0.000998
100 0.0
108 0.000997
115 0.0
118 0.0
127 0.0
138 0.0
147 0.0
161 0.0
170 0.0
178 0.000997
189 0.000998
200 0.001
209 0.000996
215 0.0
145 0.000924
96 0.000951
81 0.000997
84 0.000998
88 0.001037
97 0.0
102 0.0
111 0.0
120 0.0
128 0.001044
131 0.001035
138 0.001008
151 0.0
164 0.0
175 0.0
184 0.0
190 0.0
203 0.0
210 0.0
219 0.000997
227 0.000998
195 0.001006
121 0.000965
98 0.0
104 0.0
109 0.001043
115 0.000998
131 0.000978
137 0.0
145 0.0
144 0.002027
149 0.0
155 0.001014
162 0.000986
170 0.003026
180 0.002993
193 0.003024
203 0.003017
201 0.0
150 0.0
105 0.000958
88 0.003024
93 0.003024
102 0.0
107 0.000997
122 0.000956
141 0.001997
156 0.002035
158 0.003024
159 0.003026
165 0.003024
176 0.001002
186 0.0
197 0.000956
207 0.002026
215 0.002024
148 0.000996
214 0.000957
149 0.000952
105 0.002978
92 0.000961
99 0.003028
104 0.003034
112 0.0
123 0.0
135 0.0
141 0.003024
142 0.003024
148 0.000946
154 0.001018
166 0.000947
174 0.003032
192 0.0
206 0.002027
217 0.002036
228 0.0
219 0.000962
161 0.0
106 0.003027
84 0.003021
87 0.000964
94 0.000956
98 0.0
106 0.002983
125 0.0
134 0.003022
135 0.003021
141 0.000946
148 0.000973
156 0.0
166 0.002914
176 0.002961
190 0.0
203 0.000973
211 0.001953
220 0.002992
234 0.000996
195 0.002028
124 0.002026
83 0.001028
82 0.000953
85 0.000967
89 0.002992
99 0.001993
113 0.000991
123 0.001008
130 0.0
132 0.003982
140 0.0
147 0.003034
159 0.00307
175 0.0
187 0.0
200 0.0
216 0.004019
153 0.002027
244 0.000953
255 0.001965
255 0.001021
255 0.001054
142 0.0
102 0.003009
98 0.00304
103 0.003022
115 0.001996
126 0.002996
135 0.001998
149 0.002989
156 0.003041
160 0.002993
168 0.003026
173 0.001949
194 0.003005
197 0.003006
202 0.003956
214 0.004024
227 0.002988
236 0.001985
245 0.002027
200 0.004025
131 0.003991
95 0.002025
98 0.00199
103 0.000963
117 0.003016
133 0.003016
147 0.004022
150 0.003989
147 0.002988
146 0.003
149 0.003006
157 0.003957
169 0.004992
184 0.004036
195 0.002996
213 0.003986
184 0.002995
125 0.003014
94 0.003993
88 0.004035
97 0.001994
105 0.001987
116 0.002999
131 0.004034
141 0.005033
145 0.003011
145 0.002986
153 0.003005
162 0.002991
174 0.003022
186 0.004988
196 0.004955
211 0.002992
214 0.002983
157 0.002981
99 0.005037
76 0.005078
75 0.003001
82 0.002977
94 0.002958
107 0.002999
113 0.002994
118 0.004063
125 0.00498
129 0.003032
132 0.002991
145 0.002994
156 0.005003
165 0.005932
178 0.002991
187 0.002984
181 0.004942
102 0.002994
66 0.001994
58 0.002002
61 0.005067
68 0.005019
76 0.001996
85 0.001997
96 0.001995
103 0.005986
106 0.006041
114 0.002981
122 0.005967
133 0.002961
143 0.002985
155 0.003002
165 0.005017
176 0.004982
189 0.001982
200 0.003003
194 0.002992
130 0.005952
78 0.005989
60 0.002972
68 0.006017
78 0.002995
88 0.002993
99 0.002992
109 0.006024
114 0.006032
119 0.003
122 0.00295
130 0.003993
140 0.006015
151 0.006015
167 0.003988
185 0.007031
195 0.003982
206 0.003981
213 0.003992
169 0.006017
107 0.005976
76 0.002992
75 0.004024
82 0.004029
91 0.00602
103 0.006024
120 0.00399
125 0.006103
128 0.004032
131 0.00297
136 0.003992
145 0.006982
156 0.00703
172 0.00399
182 0.003998
192 0.004016
204 0.006983
170 0.007984
94 0.004013
73 0.006018
79 0.00399
86 0.003987
95 0.003991
107 0.007024
121 0.007014
127 0.007023
128 0.003998
129 0.004015
133 0.003995
146 0.007981
150 0.007946
166 0.006987
176 0.006975
189 0.004985
165 0.004994
103 0.004986
67 0.007003
58 0.007025
64 0.003967
71 0.004986
78 0.004985
88 0.007948
107 0.008001
112 0.007982
114 0.007969
117 0.004988
128 0.004971
139 0.005001
154 0.007989
166 0.007963
175 0.005018
185 0.00399
190 0.004031
142 0.007979
83 0.007923
52 0.007957
58 0.007972
65 0.00598
72 0.005966
80 0.004975
96 0.00798
101 0.007963
108 0.005986
110 0.006013
119 0.005982
133 0.007027
143 0.007023
161 0.006983
174 0.007979
184 0.005985
197 0.004981
190 0.00498
102 0.007964
62 0.007973
53 0.006
54 0.005072
62 0.005038
68 0.007035
79 0.007019
100 0.00698
105 0.006968
111 0.005994
115 0.006011
119 0.005993
137 0.006969
150 0.00695
157 0.005994
171 0.006014
184 0.006951
195 0.007027
208 0.006953
227 0.006979
239 0.00698
255 0.005985
238 0.006024
160 0.00599
88 0.006987
75 0.006954
74 0.006976
79 0.006002
82 0.005941
90 0.00598
102 0.007021
111 0.005993
114 0.006993
117 0.006965
127 0.00599
136 0.006
145 0.005965
164 0.005989
173 0.006967
184 0.005954
197 0.006027
211 0.00598
221 0.006031
235 0.005985
250 0.00696
249 0.005951
156 0.005984
88 0.005997
60 0.005977
57 0.00602
65 0.005935
74 0.005921
81 0.005934
95 0.00598
107 0.006032
116 0.00596
119 0.006027
126 0.006016
140 0.00599
151 0.005999
167 0.005982
182 0.006016
196 0.00597
213 0.006029
229 0.005983
241 0.00499
188 0.005019
197 0.004985
185 0.005983
143 0.004932
107 0.005003
101 0.004986
103 0.004986
106 0.004987
111 0.005057
118 0.006029
124 0.005963
128 0.00502
130 0.005978
132 0.005979
136 0.00604
143 0.005982
150 0.004991
156 0.005019
163 0.004987
169 0.004993
175 0.005001
182 0.00495
187 0.005015
188 0.004944
160 0.003988
111 0.005
105 0.004033
104 0.00502
107 0.005
116 0.004956
122 0.003991
129 0.003993
133 0.004021
135 0.003
133 0.004986
136 0.005002
140 0.005033
149 0.004995
153 0.004972
160 0.00505
165 0.004988
172 0.004988
176 0.004925
153 0.004981
117 0.003945
99 0.003996
96 0.003935
100 0.004002
103 0.002949
113 0.003985
120 0.003938
123 0.003989
125 0.003989
125 0.003988
126 0.00503
131 0.003925
136 0.004998
141 0.004003
149 0.004036
155 0.004031
160 0.004037
161 0.003692
126 0.003987
87 0.003956
72 0.00399
70 0.003021
75 0.002992
79 0.00302
82 0.002964
89 0.002951
99 0.002974
101 0.002992
102 0.002996
109 0.004077
117 0.00303
124 0.003999
131 0.003988
142 0.004019
149 0.003992
155 0.004019
145 0.003032
101 0.003039
65 0.003035
59 0.003054
60 0.003054
66 0.002998
71 0.003033
79 0.003037
84 0.002998
91 0.003026
92 0.003027
94 0.002963
100 0.002013
108 0.002946
116 0.002952
124 0.002968
133 0.002991
145 0.003977
153 0.00302
160 0.003004
162 0.002992
131 0.002992
75 0.003027
57 0.002003
55 0.001986
58 0.001961
61 0.002992
66 0.001995
72 0.002044
83 0.001998
85 0.002041
89 0.002046
93 0.002045
97 0.002993
107 0.001964
114 0.001955
121 0.002954
130 0.002025
138 0.003035
148 0.003027
154 0.002021
165 0.001996
171 0.001961
176 0.002002
180 0.001959
147 0.002029
84 0.001994
65 0.002993
63 0.001994
66 0.001995
70 0.002045
77 0.002039
84 0.00202
94 0.001994
96 0.002029
102 0.001995
105 0.002014
110 0.002053
119 0.001999
129 0.001928
137 0.001007
145 0.002031
151 0.001001
161 0.002026
166 0.000937
177 0.001996
163 0.002026
119 0.002028
87 0.001996
78 0.001034
82 0.001033
85 0.002019
89 0.002023
96 0.001972
105 0.001032
111 0.00199
112 0.0
117 0.00203
122 0.002029
130 0.00197
138 0.002026
144 0.001995
155 0.001996
162 0.000998
168 0.001034
175 0.001025
182 0.001026
160 0.000964
113 0.0
84 0.002028
82 0.002029
86 0.00198
89 0.00203
97 0.000997
105 0.000999
112 0.0
115 0.0
114 0.0
117 0.0
121 0.0
132 0.0
140 0.0
152 0.000963
157 0.000938
163 0.000998
171 0.000979
155 0.0
97 0.000944
74 0.000951
71 0.0
72 0.0
76 0.0
81 0.0
87 0.0
