114 0.006987
122 0.007987
111 0.006989
51 0.00699
43 0.006984
70 0.005019
94 0.004989
100 0.005009
93 0.004984
87 0.004986
90 0.004996
99 0.004982
108 0.003989
120 0.002993
68 0.004987
35 0.004002
50 0.004987
70 0.003989
100 0.00401
106 0.003989
100 0.002989
97 0.002051
106 0.0
113 0.000996
125 0.0
131 0.000998
80 0.000994
48 0.002993
77 0.005038
93 0.006991
105 0.006995
103 0.006014
97 0.005985
99 0.004986
107 0.005938
114 0.00603
127 0.004016
129 0.002983
81 0.002991
48 0.00304
71 0.002036
95 0.003038
116 0.002982
110 0.002992
97 0.002995
103 0.0
109 0.000992
121 0.0
131 0.000997
132 0.0
60 0.0
52 0.000993
80 0.001995
113 0.001997
125 0.002027
113 0.00202
106 0.002007
112 0.002992
124 0.003035
133 0.00303
146 0.004957
109 0.004959
52 0.004942
55 0.00495
80 0.00495
105 0.004954
119 0.004957
111 0.00497
96 0.004948
107 0.006981
114 0.007983
124 0.007012
142 0.007026
136 0.0071
31 0.006001
35 0.005021
67 0.004986
106 0.004985
118 0.004877
108 0.004072
102 0.004947
112 0.004035
124 0.001981
140 0.000999
152 0.000998
105 0.0
49 0.001012
50 0.0
84 0.002952
121 0.004986
130 0.00399
113 0.005031
110 0.004962
118 0.005954
132 0.007944
139 0.006973
154 0.006006
130 0.004984
86 0.006013
46 0.004037
85 0.00402
118 0.003026
141 0.004022
123 0.003991
112 0.002993
116 0.004011
129 0.003025
142 0.004037
157 0.002969
168 0.002992
80 0.002991
49 0.00299
77 0.003033
114 0.003024
145 0.002997
138 0.001986
120 0.002026
118 0.000998
134 0.000997
140 0.000998
161 0.000961
168 0.000948
95 0.0
54 0.000957
74 0.0
114 0.000977
155 0.000995
156 0.000963
124 0.000968
122 0.000958
133 0.000955
147 0.000968
162 0.00396
169 0.00396
84 0.00396
47 0.003958
67 0.003956
108 0.00396
130 0.003956
127 0.005946
105 0.005984
106 0.005969
119 0.006949
128 0.007968
136 0.007979
143 0.00703
80 0.007021
38 0.0063
63 0.00703
85 0.007029
114 0.007016
111 0.00602
96 0.006982
98 0.006201
106 0.004987
120 0.005029
135 0.004039
130 0.004988
47 0.00399
40 0.004035
76 0.002048
101 0.002028
114 0.002025
102 0.001025
101 0.0
107 0.0
120 0.000999
133 0.0
141 0.001009
102 0.000999
58 0.000999
61 0.002993
96 0.002993
110 0.002992
112 0.003975
100 0.00396
103 0.004036
112 0.003989
127 0.004987
133 0.006028
143 0.007937
94 0.006023
65 0.006017
65 0.006132
93 0.005033
110 0.005985
118 0.006031
109 0.004033
110 0.003029
119 0.004018
125 0.002019
133 0.001034
144 0.00104
121 0.0
57 0.000998
80 0.001996
110 0.001995
130 0.001995
135 0.002028
120 0.004032
120 0.004023
126 0.004009
138 0.00399
147 0.004024
155 0.004021
128 0.003997
77 0.004993
79 0.006977
114 0.006775
127 0.00699
137 0.006981
124 0.006981
123 0.006981
135 0.006967
143 0.007979
149 0.006031
157 0.006982
152 0.005985
83 0.007026
70 0.005135
92 0.003983
116 0.003027
130 0.001047
127 0.001996
117 0.001043
123 0.000998
130 0.001031
139 0.001148
143 0.001009
145 0.001008
86 0.0
63 0.0
90 0.0
116 0.000968
123 0.000998
125 0.000997
119 0.000998
120 0.000998
132 0.003024
140 0.002986
147 0.003425
153 0.00399
157 0.003992
100 0.004029
66 0.00399
90 0.004987
117 0.005018
125 0.00503
129 0.005984
122 0.006003
123 0.007974
131 0.007967
141 0.007018
151 0.007978
155 0.006014
159 0.005984
164 0.005023
129 0.004988
73 0.003035
86 0.003024
115 0.000997
127 0.0
132 0.000999
125 0.000998
124 0.001995
129 0.001978
141 0.002992
148 0.002992
156 0.003976
162 0.004
164 0.005991
173 0.00598
108 0.005976
78 0.005986
95 0.007021
129 0.006981
143 0.006983
148 0.007012
138 0.007012
130 0.005985
139 0.007012
149 0.004032
157 0.00399
164 0.004035
167 0.00399
177 0.004033
153 0.004046
80 0.004033
94 0.003031
115 0.002992
139 0.002033
141 0.001995
131 0.002026
124 0.002024
129 0.001995
142 0.002037
150 0.002035
152 0.002038
165 0.001038
157 0.001041
76 0.001038
75 0.002198
107 0.00104
132 0.001995
144 0.000952
137 0.000998
123 0.000912
125 0.000998
135 0.000997
146 0.000941
152 0.000998
161 0.000997
150 0.001961
91 0.002962
64 0.002951
86 0.002958
119 0.002994
134 0.002951
129 0.004985
114 0.004987
116 0.005029
121 0.004991
133 0.004989
137 0.004985
145 0.005025
130 0.005017
63 0.006001
53 0.007977
82 0.007979
102 0.007968
118 0.007979
113 0.007976
96 0.007979
100 0.007013
108 0.007979
120 0.006965
131 0.006015
137 0.005015
141 0.004983
100 0.004962
48 0.004029
73 0.00399
100 0.002994
119 0.00303
107 0.003957
94 0.003022
98 0.003977
110 0.002979
120 0.001996
128 0.000998
135 0.0
117 0.0
47 0.0
42 0.000997
71 0.001984
102 0.002994
113 0.00399
99 0.004952
89 0.005028
94 0.004981
108 0.005017
115 0.007009
120 0.006955
130 0.005981
53 0.006016
23 0.00603
47 0.005946
66 0.006027
89 0.006028
93 0.004994
84 0.00403
80 0.003989
93 0.004032
99 0.003989
107 0.003979
114 0.003989
105 0.004114
28 0.002997
27 0.00399
61 0.003022
74 0.003035
89 0.002001
83 0.001003
77 0.000954
83 0.000997
96 0.002961
102 0.002993
110 0.002963
119 0.002963
98 0.002963
28 0.004983
39 0.004987
64 0.00503
78 0.004995
90 0.005014
86 0.004987
81 0.005018
88 0.005997
100 0.006018
110 0.006031
115 0.005984
119 0.00597
125 0.007037
118 0.006947
42 0.005023
36 0.005017
64 0.00514
78 0.005018
85 0.005023
85 0.004987
79 0.002994
82 0.001169
95 0.001061
105 0.0
110 0.001008
117 0.000966
120 0.000998
125 0.000999
132 0.000967
123 0.001976
51 0.003055
45 0.001994
66 0.001995
84 0.001958
92 0.001989
92 0.002993
83 0.001998
89 0.002952
104 0.002883
117 0.003986
123 0.004995
126 0.005019
129 0.004986
140 0.007015
107 0.006977
56 0.006961
47 0.006983
71 0.007941
89 0.006941
104 0.007976
102 0.007979
95 0.007979
99 0.00599
109 0.003982
119 0.003989
126 0.003036
128 0.003002
136 0.0
138 0.0
90 0.0
44 0.0
63 0.0
80 0.0
97 0.0
105 0.0
97 0.0
96 0.0
104 0.000997
119 0.002962
126 0.004031
132 0.005022
136 0.004986
143 0.006021
147 0.005991
73 0.006016
52 0.006986
66 0.008001
86 0.00794
99 0.007948
109 0.007024
104 0.004997
103 0.00499
113 0.003989
129 0.002994
138 0.003137
144 0.002991
147 0.004004
152 0.003031
156 0.003001
123 0.00298
55 0.002992
75 0.00101
94 0.001006
109 0.000995
116 0.0
111 0.000997
109 0.001995
118 0.003046
125 0.002992
138 0.002992
142 0.002999
148 0.004001
152 0.00399
158 0.005025
148 0.006024
91 0.007027
62 0.006978
82 0.007028
114 0.006001
125 0.005996
122 0.005991
112 0.006985
115 0.006017
125 0.005984
139 0.005038
147 0.005027
155 0.005007
159 0.004989
171 0.004987
136 0.003005
83 0.002999
77 0.001997
97 0.003032
128 0.002043
143 0.001995
135 0.002006
121 0.002041
125 0.002
140 0.000959
149 0.001995
156 0.000964
161 0.002005
168 0.001986
171 0.000999
89 0.000998
60 0.000998
79 0.000948
108 0.000998
125 0.000997
130 0.001001
113 0.000997
111 0.000987
123 0.002028
135 0.000999
146 0.002978
154 0.004914
160 0.005031
168 0.005029
93 0.005014
58 0.005048
75 0.00502
110 0.005025
119 0.006028
127 0.00699
117 0.006981
113 0.006024
120 0.00698
131 0.005021
143 0.006137
152 0.004041
155 0.004043
163 0.004022
119 0.003032
71 0.003989
70 0.002995
92 0.004006
117 0.003024
126 0.002995
118 0.002006
110 0.003002
117 0.001036
125 0.001038
139 0.000992
144 0.001024
152 0.001033
161 0.001994
136 0.001058
65 0.00204
60 0.001156
88 0.000966
117 0.000988
128 0.000997
115 0.000998
104 0.0
109 0.0
122 0.0
134 0.0
142 0.0
150 0.0
157 0.0
107 0.0
56 0.0
57 0.0
91 0.0
107 0.0
116 0.001968
100 0.004028
98 0.004027
111 0.004022
122 0.006019
131 0.007024
138 0.006111
144 0.006023
147 0.005021
68 0.004981
43 0.004037
64 0.005025
94 0.003948
102 0.005033
106 0.003987
96 0.004035
99 0.004031
113 0.003031
127 0.00204
133 0.002031
141 0.002001
146 0.001937
114 0.002005
50 0.001995
48 0.002001
82 0.001013
101 0.000997
112 0.000997
109 0.000996
104 0.000997
110 0.003006
121 0.002984
129 0.002993
138 0.004032
144 0.006025
149 0.007022
155 0.006982
89 0.003996
54 0.003036
72 0.002042
97 0.002029
112 0.001998
112 0.0
104 0.0
105 0.0
111 0.0
123 0.0
130 0.0
136 0.000842
140 0.001039
146 0.000997
132 0.001006
78 0.000997
56 0.003044
84 0.00399
106 0.003556
121 0.003992
113 0.004027
103 0.004031
108 0.004023
123 0.00399
130 0.005026
137 0.004894
142 0.005033
148 0.006027
154 0.00599
120 0.005025
51 0.005028
65 0.005021
90 0.004039
107 0.00503
116 0.004048
109 0.004028
101 0.004001
114 0.002041
122 0.000997
131 0.001036
134 0.000998
138 0.001024
148 0.000998
142 0.000997
59 0.001861
56 0.002992
78 0.003028
100 0.005029
111 0.004993
107 0.004986
100 0.006017
109 0.005982
119 0.005971
131 0.006019
137 0.007979
140 0.007015
146 0.005959
152 0.004969
116 0.005984
52 0.006041
60 0.005036
95 0.005065
110 0.004024
116 0.005026
112 0.003025
110 0.005027
118 0.003991
128 0.004031
135 0.003992
145 0.003023
148 0.004027
153 0.003025
162 0.002978
137 0.003035
65 0.003003
68 0.002992
103 0.002963
120 0.00403
129 0.002037
121 0.001995
113 0.002986
115 0.002026
129 0.001995
141 0.0
145 0.001997
149 0.000991
155 0.000997
166 0.0
108 0.0
80 0.0
79 0.0
101 0.0
129 0.0
140 0.0
130 0.0
118 0.0
129 0.000998
137 0.001993
152 0.002034
153 0.001995
156 0.002034
164 0.002041
159 0.002994
93 0.002993
69 0.001995
91 0.003992
121 0.004308
135 0.006987
133 0.007947
120 0.005021
124 0.004022
135 0.003045
148 0.002162
158 0.000998
160 0.001014
164 0.001001
172 0.000998
148 0.002024
78 0.002993
95 0.004973
118 0.00594
139 0.006939
147 0.007972
142 0.006986
132 0.008014
139 0.00798
143 0.007978
158 0.007974
161 0.007977
165 0.007972
170 0.007023
175 0.007979
126 0.007018
86 0.007979
95 0.00597
127 0.005984
137 0.005954
143 0.005992
128 0.004985
128 0.00403
137 0.003994
144 0.004025
157 0.003949
161 0.005024
163 0.004981
169 0.003942
176 0.00399
134 0.00399
77 0.001995
103 0.0
125 0.001041
145 0.0
146 0.001038
124 0.0
120 0.0
127 0.000998
142 0.001963
153 0.002993
158 0.002996
162 0.00399
170 0.004994
140 0.005951
72 0.005987
73 0.006017
106 0.007012
127 0.007014
136 0.007024
129 0.007018
113 0.007013
115 0.006022
127 0.005029
138 0.005023
141 0.004988
147 0.004028
152 0.005017
142 0.001998
62 0.002039
55 0.002028
86 0.002035
108 0.000998
115 0.0
111 0.002036
100 0.0
104 0.000998
117 0.001
131 0.002993
134 0.002993
142 0.002981
145 0.003024
145 0.002953
83 0.00403
51 0.005027
72 0.004987
99 0.006031
105 0.007021
108 0.007986
103 0.006021
97 0.006014
106 0.004986
117 0.004026
123 0.004
131 0.001037
137 0.0
142 0.0
145 0.0
100 0.0
46 0.000997
65 0.000998
87 0.000998
102 0.001991
106 0.001995
97 0.001994
93 0.001995
103 0.002995
114 0.003013
124 0.002993
129 0.003022
132 0.003
137 0.005028
145 0.00449
109 0.006013
50 0.006018
59 0.006021
93 0.007024
109 0.006983
116 0.006986
102 0.006967
96 0.006981
104 0.007027
119 0.006979
126 0.006983
134 0.006983
136 0.007026
145 0.005947
139 0.005984
89 0.004987
49 0.00399
78 0.001988
94 0.002992
111 0.0
104 0.0
96 0.0
97 0.000997
112 0.000991
122 0.000987
131 0.001005
135 0.001011
143 0.001859
148 0.002971
78 0.00601
49 0.006018
70 0.005986
89 0.005983
103 0.00695
111 0.007024
105 0.007016
103 0.006982
111 0.006981
120 0.007947
134 0.006981
140 0.007036
147 0.00698
152 0.006018
157 0.007033
116 0.006013
69 0.006982
67 0.005991
97 0.006017
106 0.005022
116 0.002981
112 0.002036
108 0.0
115 0.002002
127 0.001042
136 0.0
143 0.000997
149 0.0
149 0.0
154 0.0
161 0.0
113 0.0
59 0.0
71 0.0
100 0.0
116 0.0
126 0.0
114 0.001995
108 0.002993
116 0.00399
131 0.005018
138 0.006017
146 0.006978
153 0.006018
154 0.006029
161 0.00599
162 0.006026
111 0.006018
67 0.005988
88 0.005984
113 0.004034
133 0.001987
133 0.001027
118 0.0
114 0.000998
129 0.000983
138 0.001016
152 0.002992
159 0.002967
160 0.002997
166 0.004025
169 0.004001
94 0.004013
61 0.004022
79 0.004017
114 0.004024
126 0.004022
131 0.003995
112 0.00399
110 0.005021
121 0.005024
137 0.004983
148 0.0049
153 0.006035
157 0.006018
160 0.005984
163 0.00602
120 0.007015
56 0.007015
78 0.006985
100 0.006981
115 0.006013
124 0.006981
118 0.006015
110 0.005993
114 0.005991
128 0.006007
143 0.005981
151 0.004957
155 0.003992
159 0.002994
167 0.003002
157 0.003985
81 0.003029
55 0.003989
84 0.003998
105 0.003989
124 0.002992
126 0.002992
110 0.002989
110 0.001004
117 0.001966
134 0.000989
148 0.0
152 0.0
157 0.0
161 0.0
168 0.0
142 0.002992
56 0.004989
56 0.005028
90 0.00703
117 0.005984
129 0.005985
120 0.003992
101 0.003983
102 0.002006
116 0.002992
135 0.002994
141 0.00299
147 0.000988
151 0.001977
162 0.001001
96 0.000997
54 0.0
49 0.0
86 0.0
107 0.0
128 0.0
117 0.0
96 0.0
103 0.0
114 0.001972
130 0.002993
136 0.003007
141 0.002987
152 0.003026
140 0.002993
47 0.002988
32 0.00399
59 0.004999
84 0.005021
103 0.004987
100 0.00501
84 0.007023
87 0.006985
97 0.007979
116 0.006994
125 0.007944
136 0.006982
147 0.005989
151 0.005977
70 0.004993
32 0.004012
48 0.003982
82 0.003994
94 0.003991
100 0.003993
88 0.004983
88 0.004024
97 0.004998
111 0.004018
124 0.004986
133 0.004978
135 0.003009
142 0.000997
135 0.000999
63 0.001001
30 0.000997
61 0.0
78 0.0
93 0.0
86 0.002033
76 0.002025
79 0.002005
88 0.001936
105 0.001985
116 0.002027
119 0.002024
126 0.003032
134 0.004023
121 0.004025
48 0.003989
25 0.00399
50 0.004045
82 0.004999
97 0.00503
90 0.005037
78 0.005013
79 0.005037
98 0.006021
110 0.00702
121 0.004997
128 0.004986
133 0.006026
145 0.006025
95 0.004981
44 0.004973
38 0.004981
58 0.00497
88 0.005001
103 0.006026
93 0.005025
84 0.005974
89 0.004987
105 0.005995
124 0.005984
130 0.005984
137 0.004994
146 0.003039
151 0.00399
76 0.001986
36 0.00401
48 0.001996
82 0.001004
94 0.0
105 0.0
92 0.0
92 0.0
106 0.0
122 0.0
132 0.000997
141 0.00201
145 0.002962
150 0.003003
153 0.003033
104 0.003012
36 0.005042
51 0.007026
81 0.006984
94 0.006025
106 0.003977
101 0.002992
98 0.004036
108 0.003026
118 0.004036
135 0.002017
147 0.002021
152 0.001036
155 0.0
165 0.000999
171 0.0
121 0.000997
56 0.0
60 0.000968
96 0.002007
110 0.000998
121 0.002001
115 0.0
108 0.001031
119 0.000966
130 0.001968
142 0.003033
155 0.002993
160 0.002993
163 0.002993
170 0.002992
180 0.003033
141 0.004945
72 0.005985
73 0.006986
109 0.006015
138 0.006015
152 0.005029
137 0.005
126 0.004993
132 0.004039
148 0.003998
160 0.003005
171 0.00399
176 0.004034
178 0.004026
188 0.004033
187 0.004034
103 0.00403
86 0.003029
107 0.004022
141 0.00304
154 0.00399
154 0.002022
135 0.000986
135 0.001003
150 0.00104
164 0.0
170 0.000998
176 0.0
179 0.0
183 0.001045
159 0.001046
102 0.0
78 0.0
113 0.0
131 0.0
146 0.0
143 0.0
127 0.0
127 0.0
137 0.0
152 0.0
162 0.003028
165 0.002963
171 0.003068
173 0.002985
168 0.002993
80 0.003023
67 0.003906
97 0.004017
125 0.005944
136 0.005994
134 0.007195
122 0.005979
122 0.005989
133 0.004994
144 0.005984
155 0.003996
162 0.005018
164 0.002996
168 0.004987
170 0.004998
119 0.004974
60 0.004025
86 0.002041
108 0.001041
132 0.001995
136 0.0
115 0.001008
109 0.002002
115 0.001955
132 0.000993
140 0.001044
148 0.000988
153 0.001971
161 0.000972
146 0.002035
63 0.002018
58 0.0
92 0.000964
119 0.002038
136 0.003029
128 0.004029
108 0.006037
109 0.005983
124 0.007023
140 0.006981
146 0.00718
152 0.006024
155 0.007022
156 0.004965
71 0.002984
56 0.000955
77 0.000964
110 0.001987
123 0.0
118 0.0
102 0.001024
100 0.001044
112 0.001042
129 0.0
134 0.002028
140 0.0
145 0.0
146 0.0
80 0.0
42 0.000998
59 0.001995
90 0.002031
99 0.001997
105 0.001996
98 0.002027
93 0.002039
104 0.001996
113 0.001993
126 0.002953
133 0.003991
137 0.004026
144 0.004955
112 0.00502
44 0.004714
59 0.006016
82 0.006015
102 0.005983
107 0.007014
98 0.007021
89 0.007965
93 0.007163
104 0.007979
117 0.00703
121 0.006981
126 0.004971
133 0.002991
139 0.00299
81 0.001978
41 0.001991
54 0.001998
90 0.001988
103 0.001995
105 0.0
89 0.001029
82 0.0
92 0.001039
110 0.0
117 0.0
125 0.000969
129 0.00298
134 0.003999
131 0.004015
51 0.004014
35 0.005033
61 0.004982
81 0.005015
99 0.005029
95 0.004977
87 0.004982
89 0.005025
97 0.005083
113 0.004987
124 0.005063
126 0.004987
129 0.004898
133 0.005023
139 0.005998
59 0.005467
32 0.006014
52 0.005981
78 0.006063
89 0.006978
94 0.007012
86 0.006999
85 0.006979
96 0.007098
103 0.007979
119 0.007016
131 0.004024
135 0.005021
140 0.00102
145 0.001021
150 0.001041
151 0.001
58 0.000966
41 0.0
60 0.0
80 0.0
101 0.0
105 0.0
95 0.0
90 0.0
102 0.000997
114 0.002998
128 0.002993
135 0.003887
141 0.003231
143 0.005989
150 0.006986
157 0.006984
152 0.006972
94 0.007979
45 0.00501
74 0.00402
96 0.005014
123 0.005003
116 0.004992
100 0.003999
98 0.005023
114 0.00403
130 0.001984
144 0.002993
151 0.001028
152 0.001031
157 0.001028
165 0.0
134 0.000998
59 0.000998
49 0.002994
75 0.004989
110 0.005028
124 0.004987
119 0.005016
99 0.005019
102 0.005019
117 0.004984
137 0.006977
144 0.006984
155 0.006965
157 0.005982
165 0.004955
174 0.003992
126 0.002992
46 0.003005
54 0.004025
86 0.002994
111 0.003989
125 0.003987
117 0.004111
102 0.004022
104 0.004029
119 0.004027
138 0.001995
146 0.003022
156 0.001995
158 0.0
162 0.0
169 0.0
123 0.0
44 0.0
54 0.0
78 0.001004
100 0.0
115 0.000996
104 0.00099
88 0.000998
91 0.002005
108 0.002038
127 0.001988
136 0.002001
146 0.002042
148 0.000998
156 0.002952
164 0.003029
95 0.003998
40 0.003993
56 0.006979
82 0.007978
111 0.007005
123 0.005945
106 0.004997
84 0.004981
96 0.005
109 0.005033
129 0.004975
136 0.005032
142 0.00402
149 0.004987
158 0.003009
95 0.003988
34 0.00399
42 0.004023
82 0.003986
103 0.003993
122 0.003989
96 0.003015
86 0.004021
97 0.001982
120 0.000996
132 0.000997
142 0.000993
147 0.000981
160 0.000967
103 0.0
48 0.0
34 0.0
71 0.001995
93 0.002992
114 0.002947
103 0.004026
92 0.004037
98 0.003992
108 0.003965
125 0.004034
137 0.004727
143 0.005072
149 0.004989
157 0.00602
127 0.00696
41 0.007015
35 0.007016
71 0.007028
98 0.005983
108 0.007005
105 0.004988
93 0.003994
95 0.00299
110 0.003023
125 0.002985
133 0.002994
141 0.003001
142 0.003009
149 0.00299
158 0.003993
109 0.002992
45 0.002992
52 0.002123
73 0.000997
94 0.001039
104 0.001036
95 0.001007
88 0.0
95 0.0
107 0.0
123 0.001963
131 0.002962
140 0.003026
145 0.00296
144 0.002921
149 0.003002
156 0.002994
161 0.004997
65 0.004982
40 0.00499
66 0.005023
97 0.004989
113 0.005025
113 0.00503
96 0.005019
91 0.004981
104 0.007981
113 0.006979
132 0.005994
142 0.004991
146 0.005029
148 0.002996
158 0.002997
168 0.001951
113 0.000965
53 0.0
57 0.0
96 0.0
127 0.0
137 0.0
119 0.0
109 0.0
116 0.0
137 0.000865
150 0.000997
162 0.002971
168 0.003033
169 0.002995
173 0.003006
183 0.003025
144 0.00499
61 0.00502
62 0.005038
100 0.005019
126 0.005019
135 0.006018
124 0.006006
113 0.005974
116 0.007014
134 0.006988
145 0.006988
160 0.007029
169 0.005164
169 0.004989
173 0.00402
180 0.003986
183 0.001994
108 0.001
55 0.001037
70 0.00103
110 0.000988
121 0.000992
132 0.001028
118 0.000955
111 0.001003
122 0.000961
137 0.0
148 0.001
163 0.001962
170 0.003026
172 0.003003
175 0.00295
180 0.00299
174 0.003023
72 0.002986
56 0.003009
84 0.003028
108 0.002891
132 0.003027
131 0.003992
113 0.00399
107 0.004029
122 0.004989
133 0.004946
150 0.005027
157 0.00502
162 0.007032
165 0.006019
170 0.007012
176 0.005996
86 0.006127
54 0.006023
71 0.005992
98 0.005981
133 0.005979
138 0.005984
119 0.003976
104 0.003989
112 0.004987
132 0.004031
146 0.004988
155 0.002985
163 0.004987
171 0.004991
175 0.004994
92 0.004989
52 0.002994
66 0.004988
109 0.001957
129 0.002012
141 0.0
114 0.0
103 0.0
110 0.001039
131 0.000997
143 0.002976
153 0.00398
157 0.004032
163 0.004224
138 0.005973
50 0.005984
45 0.005985
78 0.007027
104 0.007029
116 0.006991
111 0.007014
95 0.00695
93 0.007018
109 0.007097
122 0.006967
136 0.006985
141 0.006954
142 0.007011
150 0.005022
155 0.006968
74 0.004991
31 0.003992
48 0.003996
84 0.002004
95 0.002989
99 0.0
87 0.0
84 0.0
92 0.001001
108 0.002025
122 0.000997
132 0.002992
139 0.003031
139 0.003961
144 0.004026
154 0.00399
144 0.003993
47 0.003991
32 0.003982
54 0.004324
83 0.005029
96 0.005023
95 0.005017
81 0.004943
83 0.005023
97 0.005024
106 0.005024
123 0.005028
133 0.005013
138 0.004997
141 0.005972
144 0.007989
149 0.004995
163 0.007027
94 0.002992
45 0.003008
46 0.002991
87 0.0
105 0.000996
119 0.0
94 0.000957
89 0.00095
102 0.0
115 0.0
133 0.000996
144 0.000997
148 0.000972
149 0.0
154 0.0
167 0.0
134 0.0
72 0.0
48 0.0
85 0.000864
109 0.001029
135 0.001036
131 0.002006
105 0.00204
103 0.001995
120 0.002025
139 0.002044
152 0.001996
162 0.001995
167 0.002026
170 0.003033
173 0.002043
75 0.002954
49 0.004026
70 0.004988
96 0.004989
125 0.005017
128 0.005985
114 0.006965
105 0.006978
116 0.007026
134 0.006942
149 0.007087
157 0.006971
162 0.007059
168 0.008011
173 0.006983
122 0.006974
49 0.006968
39 0.00795
68 0.005948
99 0.004004
109 0.002994
104 0.002991
94 0.001993
95 0.001045
113 0.002168
126 0.001951
142 0.0
149 0.002025
153 0.000997
156 0.000993
166 0.001996
128 0.001966
42 0.002026
38 0.001995
71 0.002047
94 0.003991
105 0.00399
99 0.005023
87 0.006015
90 0.00602
106 0.005984
126 0.006015
136 0.005984
145 0.006971
147 0.006976
152 0.006983
162 0.006982
163 0.00698
82 0.006982
38 0.005981
54 0.006989
91 0.005968
105 0.006004
112 0.00702
95 0.006026
91 0.003995
102 0.006032
123 0.006023
133 0.005098
147 0.006032
150 0.005979
152 0.004021
159 0.002037
170 0.003034
147 0.001019
61 0.001989
57 0.001001
92 0.002028
115 0.001996
141 0.002031
131 0.002006
108 0.0
111 0.002038
129 0.001995
142 0.0
159 0.0
166 0.00201
168 0.002034
176 0.002993
181 0.004985
131 0.005977
68 0.006011
74 0.006032
112 0.006032
142 0.006982
150 0.006408
126 0.006962
115 0.006967
124 0.006974
145 0.006975
155 0.006975
165 0.006968
167 0.006993
170 0.006995
180 0.006983
161 0.006986
68 0.006989
62 0.007964
86 0.006972
115 0.007977
127 0.005025
127 0.007978
109 0.007974
112 0.007981
127 0.008017
146 0.005992
155 0.005021
165 0.003972
166 0.005025
171 0.003106
181 0.002998
150 0.002998
60 0.003988
66 0.002993
89 0.002998
115 0.003017
123 0.002973
116 0.002996
107 0.0031
110 0.002005
123 0.003036
141 0.002994
150 0.002993
159 0.004024
160 0.003049
162 0.003042
172 0.001985
168 0.002057
72 0.001988
49 0.002004
60 0.001995
99 0.002994
125 0.00401
126 0.003988
102 0.006532
101 0.005979
113 0.005972
134 0.006981
145 0.007001
157 0.006978
159 0.006994
160 0.006982
167 0.007014
169 0.007021
110 0.007019
50 0.007013
56 0.006981
100 0.006011
135 0.003999
142 0.00602
115 0.003993
104 0.003987
115 0.004023
138 0.003997
151 0.002988
164 0.002012
172 0.002
176 0.001988
171 0.001995
85 0.003991
45 0.002027
63 0.001997
100 0.000961
131 0.001996
140 0.002051
122 0.0
106 0.0
118 0.002953
137 0.003952
152 0.006221
164 0.00797
169 0.005017
171 0.007011
175 0.001991
72 0.001955
36 0.00295
53 0.000999
79 0.001998
109 0.001972
116 0.001985
104 0.001987
94 0.000989
102 0.001996
118 0.002001
134 0.0
144 0.0
151 0.001038
156 0.0
164 0.0
104 0.0
34 0.0
29 0.001995
60 0.002028
86 0.002027
103 0.002004
92 0.001986
83 0.001968
87 0.001995
105 0.00396
119 0.00402
135 0.004002
139 0.003958
143 0.003955
153 0.005984
156 0.006975
74 0.007
25 0.006981
36 0.006981
69 0.00698
97 0.006981
108 0.007978
93 0.007014
80 0.007015
83 0.00702
104 0.004957
119 0.006983
134 0.0
140 0.001036
144 0.000995
158 0.001995
116 0.001963
55 0.0
31 0.0
67 0.0
94 0.000968
125 0.002032
111 0.003043
96 0.00304
97 0.00398
114 0.006981
134 0.006981
148 0.007014
154 0.006979
158 0.007979
168 0.007015
167 0.007014
73 0.007013
40 0.004984
58 0.007023
98 0.00399
115 0.006039
120 0.002995
98 0.002991
98 0.003994
115 0.002001
137 0.002021
147 0.0
154 0.0
157 0.001996
162 0.002963
171 0.003672
86 0.004993
40 0.004992
46 0.005036
81 0.005984
101 0.00698
114 0.006992
102 0.006981
95 0.006971
102 0.007023
114 0.007021
135 0.007016
148 0.006985
155 0.006969
157 0.006987
160 0.007975
166 0.006976
172 0.007014
113 0.006983
38 0.00598
59 0.007977
83 0.005019
105 0.006975
116 0.00498
105 0.006985
93 0.007015
97 0.005984
118 0.005981
129 0.00598
147 0.004025
156 0.002993
160 0.00399
159 0.003026
166 0.001995
178 0.001994
166 0.0
58 0.0
41 0.0
64 0.001019
111 0.00195
129 0.002992
129 0.002954
99 0.003
95 0.002984
113 0.003006
129 0.002998
151 0.00299
162 0.002995
165 0.003983
166 0.003984
177 0.005199
187 0.006015
103 0.00701
45 0.005166
48 0.006015
88 0.005004
115 0.005996
141 0.00499
117 0.005979
103 0.00399
106 0.003978
120 0.003992
147 0.003994
164 0.002986
167 0.002989
170 0.00299
175 0.003976
183 0.00299
114 0.00402
38 0.002986
30 0.002003
74 0.0
104 0.0
122 0.0
108 0.0
92 0.0
93 0.0
116 0.0
132 0.0
150 0.000998
158 0.000998
161 0.000969
166 0.001001
175 0.001018
111 0.000961
47 0.000941
26 0.000974
67 0.003957
95 0.00499
112 0.004976
97 0.007011
81 0.007969
80 0.006972
99 0.005983
123 0.001998
136 0.00299
144 0.001994
148 0.00299
154 0.000984
159 0.000999
84 0.0
24 0.0
53 0.0
80 0.0
115 0.0
116 0.000955
96 0.001995
81 0.001996
90 0.002034
114 0.002
135 0.001997
143 0.001991
152 0.001987
162 0.003007
151 0.003964
66 0.003996
34 0.004004
56 0.003929
102 0.005023
122 0.007015
125 0.006876
99 0.006975
99 0.007016
113 0.005984
137 0.004998
147 0.004989
156 0.004991
160 0.004995
168 0.004991
137 0.004992
72 0.004987
39 0.002034
67 0.002983
100 0.001991
115 0.002
113 0.002003
101 0.001995
100 0.001991
111 0.001983
131 0.000952
144 0.003015
155 0.003001
158 0.003034
162 0.002958
167 0.002992
147 0.003
50 0.004038
39 0.00399
72 0.004008
93 0.003992
113 0.00395
108 0.00399
98 0.003969
99 0.003971
110 0.004974
126 0.005018
139 0.005022
149 0.004882
152 0.006029
155 0.005984
160 0.006021
161 0.006019
79 0.005971
44 0.006983
59 0.002981
99 0.002996
115 0.002994
124 0.001997
96 0.0
91 0.000963
104 0.0
126 0.000999
138 0.000997
149 0.001038
152 0.000969
160 0.003025
171 0.002961
129 0.00304
50 0.003957
56 0.004002
90 0.003989
122 0.004019
140 0.004044
129 0.005965
107 0.006027
108 0.00602
127 0.00604
146 0.006982
156 0.007977
163 0.005987
167 0.005985
173 0.005989
139 0.005971
69 0.005988
38 0.005991
76 0.00398
100 0.003993
121 0.001956
114 0.003992
97 0.001999
95 0.002997
114 0.002028
128 0.0
146 0.000997
153 0.002948
157 0.002963
164 0.003042
153 0.002977
88 0.002982
32 0.002994
43 0.004007
85 0.005022
107 0.004862
110 0.005021
91 0.005021
87 0.005982
97 0.006977
117 0.006981
124 0.00698
140 0.006983
144 0.007938
148 0.006974
155 0.007978
83 0.005984
36 0.005982
37 0.005982
76 0.002986
93 0.004984
106 0.001997
86 0.0
79 0.001007
90 0.0
105 0.000939
119 0.00204
130 0.002027
135 0.00296
145 0.004987
153 0.005026
108 0.004995
30 0.005034
48 0.005025
75 0.005028
111 0.005025
123 0.005031
98 0.00503
84 0.005003
93 0.005987
105 0.006985
127 0.006949
136 0.006976
146 0.006978
157 0.004171
161 0.005986
75 0.004999
42 0.005984
59 0.002988
103 0.002947
121 0.002992
125 0.003026
98 0.003007
97 0.003032
113 0.003
127 0.002997
144 0.002012
149 0.003991
156 0.000981
164 0.00203
102 0.001999
51 0.002098
49 0.002029
74 0.00196
106 0.001983
118 0.0
108 0.000996
92 0.000966
96 0.001031
111 0.001023
129 0.003028
141 0.00399
145 0.005023
152 0.006975
160 0.00498
147 0.004982
50 0.003001
37 0.004981
64 0.002988
91 0.005019
108 0.004136
109 0.003989
94 0.003029
93 0.003024
106 0.002992
124 0.001993
136 0.002027
147 0.000998
151 0.0
153 0.0
162 0.0
157 0.0
63 0.0
42 0.000996
61 0.0
96 0.0
113 0.002
110 0.001997
93 0.004037
98 0.004954
109 0.004971
122 0.006978
137 0.007029
146 0.004983
148 0.007025
150 0.005985
157 0.003976
166 0.002994
76 0.001957
43 0.002993
64 0.002998
106 0.0
119 0.000998
133 0.002047
103 0.000997
96 0.000999
108 0.002023
121 0.003072
144 0.004043
155 0.004029
157 0.003862
164 0.004028
177 0.004024
145 0.005016
59 0.005939
58 0.00599
97 0.005976
126 0.005988
145 0.005998
133 0.006018
107 0.005984
109 0.007989
122 0.00699
136 0.007023
155 0.006972
165 0.004974
169 0.007023
176 0.003974
137 0.003028
70 0.003127
48 0.000951
80 0.002028
111 0.0
132 0.001013
128 0.00103
112 0.001032
108 0.001006
123 0.001996
140 0.002984
154 0.002992
164 0.003033
167 0.003024
173 0.004023
181 0.003991
101 0.004027
40 0.003985
51 0.003985
93 0.005975
111 0.006017
125 0.005972
106 0.005982
97 0.005995
101 0.006985
120 0.005987
132 0.005979
148 0.005981
153 0.00498
158 0.006
165 0.007108
169 0.004984
88 0.007006
36 0.007004
49 0.006971
90 0.006007
109 0.007016
122 0.007021
99 0.004986
90 0.006284
101 0.004987
112 0.007024
133 0.005969
146 0.002019
150 0.001015
155 0.001998
161 0.001031
167 0.000998
82 0.0
37 0.001997
51 0.001996
97 0.001984
130 0.001995
129 0.002037
95 0.002025
89 0.001997
101 0.004033
120 0.003958
135 0.00499
144 0.003971
151 0.005021
153 0.005014
162 0.004988
90 0.006979
35 0.006986
45 0.005001
91 0.005006
114 0.005001
134 0.004991
116 0.004988
91 0.003993
103 0.003087
118 0.002945
136 0.005021
151 0.005019
154 0.005022
162 0.005019
168 0.00502
123 0.00404
32 0.001995
32 0.004024
73 0.002011
97 0.004016
120 0.00199
106 0.000976
93 0.000967
98 0.0
119 0.001008
133 0.0
150 0.0
155 0.0
160 0.0
165 0.000998
172 0.001953
117 0.002969
27 0.002996
29 0.003836
69 0.004983
98 0.00499
111 0.00499
103 0.004984
87 0.006988
88 0.006981
109 0.006987
124 0.008019
144 0.007996
154 0.005974
157 0.00798
160 0.005979
167 0.005982
176 0.005988
94 0.005992
38 0.005982
33 0.003991
78 0.00399
99 0.002992
118 0.002992
100 0.002992
81 0.001994
88 0.003028
109 0.002027
124 0.002209
142 0.002029
150 0.002029
154 0.002026
161 0.000993
172 0.000998
143 0.000997
37 0.001996
26 0.001995
66 0.002003
115 0.003002
137 0.003991
121 0.004003
98 0.003981
98 0.00395
121 0.005034
137 0.005985
159 0.005985
168 0.005985
171 0.005987
178 0.00598
186 0.00598
103 0.005982
29 0.007023
34 0.007021
83 0.006975
113 0.006009
131 0.007014
110 0.005019
92 0.007012
94 0.00499
119 0.004985
135 0.004957
156 0.004989
164 0.003989
168 0.002992
180 0.002995
183 0.002995
71 0.00201
19 0.003989
35 0.002993
73 0.004033
105 0.003032
115 0.003027
93 0.002992
83 0.003022
92 0.002032
118 0.0
133 0.002025
150 0.000868
160 0.000997
161 0.000997
170 0.000997
174 0.001961
109 0.000945
22 0.002037
27 0.001997
72 0.003963
107 0.005985
118 0.005984
97 0.006016
86 0.005983
92 0.005822
118 0.005988
139 0.00698
152 0.005986
158 0.007947
162 0.004989
164 0.007011
179 0.006964
166 0.00502
48 0.005022
30 0.001995
56 0.003026
107 0.001992
136 0.001995
122 0.000999
87 0.001999
87 0.002003
111 0.000966
135 0.002005
155 0.001019
165 0.002997
171 0.001006
179 0.000998
172 0.001001
96 0.000999
29 0.000997
50 0.002963
93 0.002961
127 0.005989
141 0.007977
107 0.005019
96 0.00703
106 0.005
123 0.006996
150 0.00498
166 0.005021
170 0.003999
176 0.004985
185 0.003987
127 0.004021
27 0.003998
33 0.003024
74 0.000967
106 0.002001
128 0.0
118 0.0
96 0.001015
100 0.0
122 0.00101
142 0.000998
161 0.000997
169 0.001002
173 0.001009
180 0.000963
187 0.002962
131 0.002992
30 0.002997
42 0.002993
70 0.003026
107 0.002974
123 0.003951
108 0.004987
92 0.004993
99 0.004987
123 0.004987
148 0.004969
159 0.005019
167 0.004986
167 0.005
177 0.005977
175 0.00598
104 0.006975
32 0.00698
46 0.006015
75 0.006189
118 0.005984
130 0.003985
109 0.005977
90 0.004006
98 0.006032
123 0.003988
148 0.00299
160 0.001988
168 0.001999
172 0.002028
181 0.000968
150 0.002012
41 0.001855
32 0.001995
76 0.002007
119 0.003991
151 0.003959
142 0.003951
103 0.004987
102 0.00502
126 0.007015
148 0.004986
163 0.00699
177 0.002994
186 0.002948
194 0.003001
122 0.002991
52 0.002992
37 0.002002
88 0.001995
117 0.0
146 0.000998
128 0.002981
99 0.004977
104 0.005017
124 0.005987
148 0.005974
166 0.004989
177 0.004967
184 0.003989
192 0.002026
139 0.001992
26 0.0
19 0.001998
54 0.0
102 0.0
120 0.0
117 0.00101
93 0.003008
93 0.003002
115 0.003026
132 0.002919
157 0.003044
169 0.002995
173 0.002994
182 0.002999
173 0.003956
51 0.002996
19 0.002993
42 0.005018
90 0.005984
116 0.006984
119 0.005991
98 0.007979
85 0.007972
98 0.007976
120 0.007977
142 0.007977
155 0.007979
161 0.004987
163 0.005981
177 0.00399
117 0.003033
43 0.002994
20 0.000991
70 0.001985
100 0.000996
130 0.0
110 0.001006
86 0.001995
83 0.002993
104 0.004007
128 0.004994
147 0.004988
156 0.007022
160 0.006982
171 0.007978
154 0.006993
75 0.007984
18 0.005986
34 0.007979
88 0.005986
128 0.005978
132 0.005986
95 0.005979
84 0.005984
103 0.00599
135 0.005979
150 0.004978
161 0.004991
165 0.005965
172 0.002992
171 0.004988
75 0.00299
12 0.004985
35 0.004985
68 0.004986
107 0.004986
117 0.001999
102 0.002994
89 0.0
109 0.0
119 0.0
144 0.0
157 0.0
166 0.0
171 0.0
179 0.001981
152 0.002994
38 0.002994
25 0.002993
65 0.004947
105 0.005946
119 0.006011
119 0.006017
100 0.006019
97 0.003995
113 0.005984
138 0.005989
152 0.005965
169 0.004989
175 0.000998
175 0.003975
185 0.000996
189 0.004068
82 0.001993
35 0.0
56 0.000958
104 0.0
124 0.0
138 0.0
105 0.0
99 0.0
110 0.0
138 0.0
153 0.000979
169 0.003025
175 0.00604
180 0.006028
191 0.00605
136 0.007012
86 0.007979
48 0.007955
86 0.004988
119 0.006019
162 0.003987
145 0.003029
118 0.003026
115 0.002975
129 0.003989
158 0.003004
178 0.003989
186 0.002991
195 0.001994
204 0.002
144 0.000997
53 0.002031
50 0.001996
79 0.003026
129 0.001996
153 0.001994
141 0.0
113 0.0
110 0.000996
127 0.000997
150 0.00085
168 0.000998
182 0.001005
189 0.001
198 0.00103
113 0.001995
44 0.002014
33 0.00303
81 0.005029
106 0.00595
132 0.005984
122 0.005942
94 0.005997
98 0.006981
115 0.006999
137 0.006984
160 0.006983
171 0.006945
176 0.006979
187 0.006979
171 0.006982
46 0.007012
20 0.007013
51 0.00698
99 0.00499
121 0.006011
120 0.00299
100 0.004987
89 0.003985
108 0.001955
126 0.001995
148 0.001962
160 0.001977
166 0.001997
178 0.001993
137 0.002008
28 0.001994
24 0.001988
50 0.002992
103 0.001995
137 0.000954
122 0.003025
84 0.0
83 0.002997
101 0.000999
129 0.0
143 0.001034
163 0.000998
182 0.001995
175 0.001881
54 0.003989
19 0.004036
42 0.005019
95 0.004002
130 0.005977
126 0.003994
91 0.005991
82 0.005981
97 0.004004
119 0.007966
137 0.004984
146 0.007055
156 0.006957
163 0.006983
72 0.006981
11 0.005985
8 0.004994
59 0.00299
80 0.005025
100 0.001947
75 0.00197
67 0.0
82 0.000958
99 0.001998
126 0.000991
139 0.001027
145 0.0
156 0.000991
153 0.001994
65 0.000982
5 0.0
28 0.0
59 0.00203
89 0.001997
99 0.002024
84 0.003035
77 0.004002
85 0.004965
107 0.007027
128 0.007884
143 0.007941
151 0.007948
156 0.005989
159 0.008
171 0.005029
100 0.004991
40 0.003991
34 0.002995
78 0.002032
98 0.00197
116 0.001988
108 0.002997
91 0.00299
97 0.002992
110 0.003019
133 0.00203
153 0.000951
160 0.002034
165 0.000952
163 0.001996
170 0.0
183 0.0
188 0.0
84 0.000998
45 0.002981
65 0.003998
113 0.004033
143 0.003995
139 0.003975
107 0.004031
105 0.003988
123 0.006
142 0.005954
156 0.005027
171 0.004981
173 0.006937
176 0.005974
182 0.007978
192 0.005986
142 0.005021
56 0.003991
73 0.002004
103 0.003023
143 0.0
152 0.001003
140 0.0
114 0.000997
128 0.003796
142 0.004979
165 0.005021
182 0.00502
186 0.004985
189 0.004997
194 0.004965
203 0.004985
100 0.006984
63 0.005957
57 0.00599
97 0.005017
128 0.00201
148 0.00414
134 0.003996
119 0.003989
118 0.002036
139 0.0
155 0.000955
170 0.000963
183 0.000998
185 0.002951
188 0.003956
199 0.005019
177 0.005042
74 0.006984
52 0.006977
77 0.006953
115 0.006952
138 0.006978
141 0.006985
110 0.007012
103 0.006981
118 0.006798
140 0.00696
153 0.007019
170 0.007015
173 0.007026
175 0.007015
187 0.004025
190 0.006994
79 0.004005
38 0.002988
58 0.002992
112 0.000965
146 0.0
156 0.0
117 0.0
99 0.000997
110 0.002
138 0.002996
163 0.004021
171 0.004031
179 0.006015
184 0.006021
190 0.005981
115 0.005954
47 0.005993
36 0.00798
85 0.007977
107 0.007979
144 0.007015
125 0.004989
100 0.007013
96 0.003957
109 0.005985
137 0.003995
156 0.004012
165 0.003986
170 0.004161
179 0.002967
153 0.002998
32 0.001942
12 0.002043
48 0.001991
88 0.003026
112 0.001991
113 0.00404
84 0.002992
77 0.002993
94 0.003022
112 0.002992
135 0.002962
146 0.0
152 0.00303
155 0.0
162 0.000997
113 0.002006
13 0.003026
18 0.00296
47 0.002983
85 0.003024
100 0.002993
84 0.005001
65 0.004982
70 0.004951
94 0.00498
113 0.006981
125 0.005982
137 0.006982
140 0.007977
145 0.006984
157 0.00799
110 0.007976
8 0.007977
11 0.003994
38 0.006031
86 0.004002
110 0.003957
97 0.003985
66 0.002994
68 0.002989
94 0.001995
122 0.002011
135 0.0
143 0.001006
148 0.00304
153 0.002051
161 0.002004
48 0.002995
9 0.003068
28 0.002992
70 0.004026
106 0.00502
119 0.005983
86 0.005984
75 0.005984
87 0.006016
106 0.006015
135 0.005969
153 0.005984
156 0.005794
161 0.005958
172 0.005991
166 0.004983
42 0.003998
6 0.003032
28 0.003025
79 0.002992
100 0.002989
109 0.003999
87 0.004988
79 0.002992
92 0.00502
117 0.003005
139 0.005952
158 0.00499
163 0.004991
168 0.004987
175 0.00399
145 0.003972
23 0.001996
5 0.003989
44 0.00213
89 0.002001
108 0.002995
100 0.002964
84 0.00299
81 0.0
98 0.0
117 0.0
142 0.000998
157 0.001019
161 0.000997
166 0.00101
175 0.001992
146 0.004002
41 0.005025
8 0.006977
34 0.006961
75 0.00698
113 0.004986
116 0.007188
87 0.004989
79 0.006982
94 0.003997
122 0.003996
139 0.003033
158 0.002006
163 0.0
170 0.001016
180 0.001012
161 0.000997
73 0.000997
11 0.000997
52 0.000998
89 0.000999
136 0.000999
141 0.000997
96 0.000965
83 0.001997
101 0.002013
129 0.002026
157 0.001994
167 0.001994
177 0.002011
186 0.002992
170 0.00303
38 0.00303
13 0.002992
51 0.003936
91 0.00298
144 0.004002
136 0.00499
105 0.005985
93 0.005968
121 0.005981
142 0.005982
166 0.005984
175 0.006017
187 0.006975
190 0.007985
115 0.005985
21 0.00602
20 0.005976
54 0.005984
108 0.003989
133 0.001992
113 0.00298
84 0.002002
99 0.001992
117 0.002995
147 0.001995
158 0.002997
168 0.001998
176 0.002998
162 0.001995
55 0.002993
3 0.001996
24 0.002083
76 0.001993
98 0.001997
107 0.002029
88 0.0
78 0.0
92 0.0
119 0.000968
135 0.000961
149 0.001995
154 0.002954
161 0.00296
160 0.004987
68 0.005989
13 0.005968
21 0.006044
60 0.006981
88 0.004992
101 0.004989
90 0.003994
77 0.003988
86 0.005967
108 0.003992
130 0.005949
143 0.003994
149 0.005985
155 0.00402
162 0.003989
152 0.002991
37 0.0
14 0.002989
37 0.001001
85 0.000968
106 0.001997
110 0.001995
81 0.001018
81 0.003985
101 0.00402
130 0.00399
144 0.006039
154 0.005982
156 0.005987
164 0.005984
176 0.005976
134 0.00599
31 0.004945
42 0.007954
76 0.005986
117 0.007979
143 0.004965
122 0.008008
93 0.006981
98 0.006981
125 0.006981
155 0.003996
167 0.004987
175 0.00298
181 0.004975
195 0.001995
110 0.002994
31 0.0
32 0.0
81 0.000997
128 0.003959
146 0.003961
119 0.004038
100 0.004038
108 0.003995
131 0.003979
153 0.002998
171 0.004024
177 0.003953
181 0.003009
191 0.004625
153 0.004986
32 0.004988
29 0.004957
60 0.004987
105 0.004985
123 0.005016
114 0.005983
92 0.005991
93 0.004956
115 0.004952
145 0.004984
160 0.00499
173 0.004983
177 0.006001
187 0.003093
177 0.004975
47 0.002992
15 0.00203
44 0.003006
75 0.002986
111 0.002994
115 0.0
101 0.0
90 0.0
106 0.0
121 0.000997
151 0.002022
169 0.001984
172 0.002993
179 0.003959
189 0.004981
138 0.004985
24 0.004957
16 0.004899
60 0.005001
105 0.005987
124 0.005993
105 0.005948
88 0.005862
89 0.00599
110 0.005996
129 0.006978
152 0.007976
167 0.007978
169 0.007006
175 0.007979
184 0.007979
145 0.006977
24 0.004989
14 0.006021
60 0.003992
117 0.003013
141 0.002995
114 0.002993
80 0.001994
85 0.0
109 0.003025
136 0.0
155 0.002005
168 0.0
175 0.0
188 0.000999
124 0.000949
29 0.001963
16 0.002027
70 0.002961
106 0.002989
147 0.001996
115 0.004988
93 0.005984
100 0.005988
122 0.005986
142 0.005986
166 0.00598
176 0.005983
187 0.006068
155 0.005987
65 0.005987
4 0.004976
23 0.004992
81 0.003987
116 0.005984
125 0.003014
97 0.005017
84 0.00502
96 0.004986
129 0.003015
155 0.0
165 0.002039
179 0.000966
185 0.0
145 0.0
16 0.001012
2 0.001004
45 0.000998
94 0.003022
113 0.002993
102 0.004955
80 0.004971
81 0.004933
108 0.004981
137 0.004985
151 0.006005
163 0.004986
173 0.006876
175 0.006023
57 0.007986
8 0.006
14 0.007979
69 0.007979
106 0.008008
121 0.007976
102 0.007973
78 0.008009
91 0.005004
108 0.006961
134 0.00396
153 0.002983
163 0.003007
177 0.0
84 0.0
22 0.00097
19 0.0
65 0.0
99 0.0
137 0.0
107 0.000998
78 0.002897
84 0.003
109 0.003026
133 0.003041
155 0.003844
165 0.00399
180 0.008034
137 0.005028
52 0.005982
6 0.002031
54 0.0
108 0.0
125 0.0
113 0.0
83 0.001013
85 0.000998
115 0.002958
145 0.003014
155 0.002994
169 0.005019
177 0.004955
140 0.00496
35 0.005001
8 0.005984
42 0.005979
91 0.006016
112 0.006021
111 0.006013
96 0.005986
92 0.006017
117 0.005945
135 0.005986
152 0.005973
165 0.005992
175 0.005986
182 0.006029
138 0.00599
27 0.006975
35 0.005009
66 0.004985
108 0.002993
124 0.002991
110 0.003985
95 0.007072
101 0.003959
119 0.007017
148 0.006988
161 0.00695
171 0.006015
174 0.005984
185 0.005029
169 0.003978
87 0.004995
28 0.002033
46 0.005027
104 0.002935
142 0.0
142 0.0
103 0.0
103 0.0
118 0.00095
143 0.0
168 0.0
178 0.002058
184 0.001998
191 0.001887
203 0.003029
147 0.002964
39 0.004986
37 0.004953
90 0.007987
130 0.003971
153 0.007981
140 0.004988
120 0.007166
118 0.003995
146 0.002
165 0.002004
187 0.0
200 0.000959
200 0.0
204 0.0
216 0.00103
198 0.001996
59 0.001987
43 0.002008
72 0.000997
125 0.002006
155 0.002985
149 0.003018
124 0.002994
120 0.00303
136 0.004963
166 0.005022
181 0.004987
200 0.004989
206 0.005051
208 0.006988
215 0.002967
222 0.004003
146 0.0
52 0.003006
79 0.000975
115 0.002
169 0.00203
184 0.00203
148 0.0
123 0.001995
137 0.000893
156 0.000971
187 0.002033
198 0.000997
211 0.002006
221 0.003001
188 0.002994
165 0.003949
61 0.004984
65 0.005991
106 0.007981
170 0.004951
196 0.006989
180 0.002995
133 0.003999
132 0.001047
157 0.001993
185 0.0
198 0.0
211 0.003023
224 0.002951
224 0.002006
86 0.002992
40 0.002988
65 0.003967
116 0.00404
167 0.004987
180 0.006026
141 0.005983
122 0.00593
132 0.006982
153 0.005948
173 0.007974
192 0.004995
206 0.00396
214 0.002988
122 0.002959
33 0.002971
38 0.002538
88 0.004005
118 0.00299
149 0.002991
126 0.005024
102 0.004004
102 0.004979
120 0.00199
140 0.004861
163 0.005019
173 0.005026
184 0.002963
77 0.000963
25 0.00211
33 0.001004
75 0.000997
103 0.001001
131 0.001996
97 0.000959
82 0.000963
92 0.002027
107 0.000997
130 0.002007
152 0.002029
166 0.003643
140 0.003984
28 0.004067
15 0.003991
58 0.005984
102 0.006981
130 0.005015
121 0.007977
86 0.004983
81 0.007987
106 0.00787
116 0.007012
141 0.007196
161 0.003925
162 0.007989
46 0.003992
8 0.006973
32 0.005003
84 0.003989
108 0.002997
108 0.002997
79 0.00299
81 0.002988
97 0.003994
119 0.001978
135 0.001997
153 0.001993
160 0.002017
97 0.002994
20 0.004978
28 0.005021
59 0.006975
96 0.006983
113 0.006947
99 0.006982
89 0.00599
96 0.006651
116 0.005948
138 0.004986
147 0.00399
158 0.003993
167 0.003996
133 0.005007
39 0.00297
36 0.002
79 0.003009
106 0.003003
123 0.0
119 0.003029
106 0.002985
110 0.002993
130 0.002983
145 0.002
158 0.001996
165 0.001999
172 0.002018
179 0.001995
154 0.002008
89 0.001982
61 0.001995
98 0.001959
121 0.002001
147 0.002986
128 0.004495
118 0.004986
124 0.004975
137 0.005018
156 0.004988
170 0.006014
173 0.005952
178 0.003993
183 0.006977
189 0.003988
117 0.006018
66 0.004986
80 0.004991
126 0.002993
156 0.0
157 0.002991
132 0.00299
125 0.00313
143 0.0
165 0.0
177 0.0
186 0.0
189 0.0
195 0.0
188 0.0
122 0.0
72 0.0
95 0.000993
122 0.002001
152 0.001997
157 0.003994
140 0.003955
132 0.004024
146 0.004019
159 0.003987
178 0.003989
184 0.003989
191 0.006936
196 0.006943
202 0.006861
192 0.005983
85 0.006097
64 0.004957
97 0.004988
134 0.004998
147 0.001994
145 0.001991
127 0.002982
129 0.002999
142 0.002028
161 0.0
177 0.00199
191 0.001964
193 0.003023
196 0.000974
200 0.00203
208 0.000996
130 0.001007
60 0.002006
68 0.002985
114 0.004715
147 0.005
154 0.004987
130 0.00498
121 0.004988
131 0.004953
151 0.004968
167 0.004987
180 0.005977
188 0.00599
191 0.005985
201 0.003001
196 0.004102
100 0.001998
56 0.002028
84 0.002989
119 0.001995
165 0.002026
170 0.001004
135 0.00101
116 0.000997
127 0.000997
151 0.003036
177 0.003989
186 0.003006
196 0.00502
206 0.005977
208 0.007957
105 0.004986
44 0.003025
57 0.003989
115 0.003028
162 0.001993
167 0.001956
130 0.0
113 0.001028
125 0.001996
146 0.003024
169 0.004006
186 0.005019
193 0.005017
205 0.005008
195 0.004988
55 0.004961
26 0.004984
52 0.005762
110 0.004986
140 0.004988
147 0.006038
108 0.004986
102 0.005949
116 0.006967
145 0.004984
161 0.002027
180 0.0
190 0.002992
197 0.0
124 0.002029
16 0.00199
21 0.002992
64 0.00403
107 0.004987
134 0.006019
118 0.006019
88 0.006017
89 0.006016
112 0.005979
139 0.005983
152 0.006016
166 0.006021
180 0.005985
163 0.004985
29 0.00399
5 0.003009
34 0.002994
89 0.001997
117 0.001997
116 0.001995
83 0.003027
81 0.000998
93 0.0
122 0.000968
138 0.002005
155 0.002991
167 0.003058
170 0.002997
68 0.002825
4 0.004022
20 0.005017
78 0.005067
111 0.004993
130 0.003959
82 0.00482
74 0.005041
93 0.004952
121 0.004817
138 0.004988
156 0.005951
165 0.005978
156 0.005982
26 0.005989
9 0.005984
24 0.00702
80 0.007016
113 0.004972
132 0.004986
95 0.002985
88 0.003991
105 0.002037
133 0.001001
142 0.0
160 0.0
171 0.0
178 0.0
73 0.0
18 0.0
27 0.0
81 0.001996
106 0.00201
125 0.003002
100 0.00405
95 0.003989
110 0.003957
124 0.004004
149 0.00399
161 0.003988
168 0.004989
180 0.005984
134 0.005983
56 0.006028
26 0.00702
47 0.006983
94 0.007012
119 0.006948
117 0.006982
97 0.00398
95 0.003979
107 0.003989
131 0.003987
151 0.00199
157 0.001992
165 0.001994
171 0.001994
163 0.001993
64 0.004022
22 0.003
46 0.002952
94 0.002
114 0.003024
120 0.002031
101 0.002948
88 0.003989
103 0.0
123 0.0
142 0.0
157 0.0
160 0.001986
168 0.001988
170 0.001987
99 0.002993
28 0.003029
40 0.002994
94 0.005009
142 0.004989
150 0.004987
113 0.005934
101 0.00598
109 0.005983
135 0.005987
153 0.007979
164 0.00598
173 0.007967
179 0.007951
176 0.007978
51 0.004993
26 0.007979
57 0.003998
91 0.006983
135 0.003986
129 0.003997
104 0.003992
95 0.003991
118 0.00301
132 0.003035
154 0.002992
165 0.003112
171 0.0
185 0.002991
149 0.0
42 0.003043
22 0.002986
47 0.002982
98 0.003026
125 0.001046
118 0.001983
93 0.004025
93 0.002001
107 0.002994
134 0.005023
157 0.004985
165 0.006991
171 0.004989
181 0.00498
162 0.004969
31 0.005982
9 0.004974
43 0.004988
94 0.002994
112 0.002981
112 0.001965
91 0.004031
87 0.002025
104 0.00399
131 0.002993
146 0.002997
162 0.002032
167 0.002032
179 0.002027
168 0.001027
60 0.0
19 0.0
56 0.003023
92 0.002027
137 0.004988
130 0.004944
108 0.004987
99 0.005002
121 0.005972
133 0.005137
156 0.006979
168 0.006015
181 0.005023
193 0.006035
138 0.006015
37 0.005983
48 0.00697
89 0.006981
144 0.008023
162 0.008011
143 0.00698
107 0.002989
111 0.005022
137 0.00299
163 0.0
173 0.00096
186 0.0
199 0.0
180 0.0
51 0.0
45 0.0
76 0.0
130 0.0
152 0.0
144 0.003031
113 0.003982
113 0.00399
134 0.005002
157 0.006037
171 0.005982
181 0.005977
189 0.007015
194 0.007014
94 0.006014
37 0.003
53 0.005017
103 0.001994
137 0.001004
140 0.003938
112 0.002999
105 0.002996
117 0.00095
141 0.001972
152 0.000997
164 0.000991
173 0.002006
180 0.002045
140 0.004007
41 0.004031
41 0.003894
87 0.003951
124 0.003975
145 0.004108
129 0.003998
102 0.00396
102 0.003961
123 0.004988
136 0.005004
155 0.004003
163 0.00396
175 0.003991
171 0.004836
96 0.004988
41 0.004807
77 0.005991
100 0.006018
152 0.005948
162 0.004987
120 0.003991
103 0.004016
112 0.003971
139 0.00401
157 0.005976
168 0.003943
177 0.005973
188 0.003982
134 0.003034
39 0.00103
58 0.0
93 0.0
141 0.00199
157 0.001022
127 0.0
108 0.0
112 0.0
134 0.0
159 0.002005
169 0.002
180 0.001994
191 0.003956
170 0.004985
66 0.006957
42 0.006026
65 0.00694
115 0.005982
135 0.005117
142 0.006975
111 0.007045
102 0.006979
116 0.006981
138 0.003939
151 0.007011
165 0.004993
172 0.007019
182 0.004152
81 0.003015
39 0.002994
52 0.002997
101 0.00301
126 0.003948
139 0.00299
117 0.0
96 0.002993
105 0.004041
124 0.00102
142 0.003048
156 0.003035
164 0.0
177 0.001952
147 0.002989
47 0.003987
26 0.003947
71 0.004017
105 0.003958
146 0.004993
139 0.005056
93 0.00499
92 0.004958
104 0.004987
131 0.005984
149 0.005959
158 0.005985
173 0.005984
168 0.005983
63 0.00694
19 0.004987
37 0.003994
95 0.003977
133 0.006982
137 0.004142
101 0.006981
90 0.003981
103 0.005038
129 0.001993
143 0.004984
159 0.002995
173 0.000975
168 0.0
46 0.0
16 0.002005
36 0.002028
87 0.003973
123 0.004977
115 0.005985
95 0.005011
88 0.002996
100 0.005986
121 0.003993
136 0.006017
150 0.002994
162 0.005993
132 0.006084
57 0.005032
16 0.003956
56 0.0
82 0.002991
111 0.000967
96 0.001002
88 0.001953
84 0.002035
103 0.002014
115 0.001989
132 0.004011
144 0.005025
150 0.004991
111 0.004992
46 0.00495
17 0.005989
49 0.005006
73 0.00499
102 0.002993
94 0.005025
76 0.003005
74 0.004983
92 0.004028
107 0.004027
123 0.004023
132 0.0
137 0.003
147 0.001
113 0.003051
19 0.0
28 0.001013
60 0.001016
101 0.000977
107 0.001006
94 0.000966
74 0.001006
81 0.000951
105 0.001
124 0.003024
137 0.002954
145 0.003986
155 0.006024
161 0.005989
103 0.005951
28 0.007012
37 0.005983
86 0.006969
112 0.00598
124 0.008016
104 0.005988
93 0.007954
108 0.006979
126 0.00502
139 0.002989
154 0.003971
159 0.002993
164 0.003009
174 0.001995
143 0.003022
56 0.0
38 0.002025
72 0.000966
105 0.003024
126 0.002025
126 0.0
108 0.0
109 0.0
124 0.0
143 0.002022
159 0.002031
165 0.002004
169 0.002959
169 0.002887
178 0.003954
159 0.003956
89 0.004025
49 0.003976
89 0.004005
114 0.00399
138 0.004952
136 0.003955
113 0.003956
114 0.004054
124 0.004955
144 0.006946
163 0.007955
169 0.003989
171 0.00798
171 0.004957
179 0.007024
183 0.00599
118 0.00593
52 0.004981
83 0.002992
116 0.004991
152 0.002993
156 0.004987
119 0.002985
113 0.002991
124 0.003993
151 0.001001
170 0.001004
176 0.0
181 0.0
191 0.002009
193 0.001999
91 0.002026
55 0.003952
76 0.003978
127 0.003956
156 0.004001
155 0.005994
125 0.006004
115 0.006011
126 0.006017
148 0.007947
161 0.007019
176 0.006012
184 0.004011
191 0.007016
176 0.002991
56 0.001953
43 0.002953
84 0.003001
112 0.003006
144 0.002005
142 0.003978
119 0.00198
114 0.004024
130 0.002953
144 0.002953
167 0.002043
173 0.003028
181 0.002992
191 0.0
156 0.0
64 0.000961
47 0.001994
70 0.001997
115 0.000933
138 0.001957
129 0.002008
104 0.001996
105 0.002992
123 0.004987
141 0.004988
160 0.003989
168 0.002995
177 0.002996
184 0.004018
117 0.001995
43 0.004024
45 0.002003
85 0.003993
130 0.00402
145 0.003031
120 0.003025
100 0.0
103 0.00198
123 0.002001
147 0.002006
155 0.00199
166 0.002992
177 0.003034
165 0.005034
70 0.006016
44 0.003991
67 0.00399
117 0.002007
148 0.002992
139 0.002946
105 0.002961
107 0.002996
118 0.0
142 0.000997
157 0.00199
164 0.001973
174 0.002001
161 0.004728
70 0.004814
39 0.004988
77 0.006974
106 0.006985
134 0.006989
127 0.002993
110 0.004022
104 0.00301
121 0.002992
137 0.0
150 0.0
160 0.000997
165 0.000998
172 0.002003
84 0.003018
42 0.003036
60 0.003967
95 0.004985
115 0.004987
124 0.005026
108 0.005038
101 0.005006
110 0.006017
120 0.006017
138 0.007001
151 0.002993
155 0.005992
160 0.001994
168 0.003035
129 0.0
38 0.002012
52 0.003011
78 0.002998
105 0.0
115 0.001004
107 0.001986
91 0.00102
101 0.001987
114 0.001996
133 0.001766
140 0.000998
145 0.002027
150 0.000997
159 0.002035
150 0.003008
50 0.004004
37 0.004021
72 0.003989
97 0.00399
126 0.003988
114 0.003991
98 0.004023
99 0.003986
112 0.002989
135 0.004956
151 0.003994
154 0.00399
161 0.00598
172 0.005983
165 0.004987
59 0.002992
37 0.004953
67 0.002991
104 0.004959
129 0.002958
126 0.002988
100 0.002951
104 0.0
116 0.002959
136 0.0
155 0.000997
161 0.001995
165 0.001975
166 0.001976
177 0.001999
121 0.002008
52 0.00203
32 0.002007
79 0.003993
101 0.003995
120 0.003956
113 0.004953
96 0.005979
100 0.007976
115 0.005979
130 0.004984
151 0.002992
163 0.0
166 0.003082
171 0.0
180 0.0
175 0.0
57 0.0
29 0.0
57 0.0
101 0.0
119 0.0
122 0.000983
96 0.001996
95 0.003042
113 0.002959
129 0.003036
155 0.002994
169 0.001994
173 0.003001
177 0.001995
186 0.003989
182 0.004989
76 0.003931
26 0.005985
48 0.00599
102 0.006014
128 0.006022
140 0.006017
101 0.005987
93 0.006018
107 0.005985
131 0.007981
151 0.003976
169 0.002963
175 0.00299
183 0.002027
195 0.001981
159 0.002993
36 0.001992
30 0.002974
71 0.0
121 0.003026
157 0.001994
147 0.002995
101 0.002028
100 0.002991
126 0.001995
154 0.0
168 0.002981
180 0.0
185 0.003028
197 0.000977
95 0.0
45 0.0
16 0.000987
67 0.001982
103 0.002029
140 0.002027
114 0.004026
93 0.00399
97 0.003997
113 0.003985
145 0.004993
166 0.006982
