49 0.018941
49 0.002994
51 0.001995
56 0.001995
64 0.002957
78 0.001994
104 0.00195
109 0.001994
110 0.00201
114 0.002006
120 0.002033
129 0.000964
138 0.001995
148 0.001996
158 0.001996
164 0.001995
170 0.001995
176 0.000998
184 0.002046
188 0.002028
169 0.00201
100 0.002004
68 0.001995
57 0.001994
55 0.001995
58 0.001997
64 0.00199
74 0.001996
89 0.001995
104 0.001995
114 0.001962
114 0.000998
118 0.000996
127 0.000997
136 0.000998
146 0.000961
154 0.000998
161 0.000993
170 0.002042
176 0.001996
180 0.001996
185 0.001996
191 0.000998
170 0.000998
116 0.000998
70 0.002
60 0.000998
59 0.000998
62 0.000997
67 0.000998
80 0.000997
96 0.000967
110 0.000957
117 0.000975
118 0.001004
121 0.000998
128 0.000998
140 0.000997
149 0.000998
157 0.000997
164 0.000998
170 0.000972
177 0.001007
182 0.001
187 0.000998
192 0.000998
157 0.000998
104 0.001004
74 0.000998
64 0.000997
66 0.000962
70 0.000997
77 0.0
88 0.0
109 0.0
119 0.0
122 0.0
121 0.0
128 0.0
136 0.000998
144 0.000997
156 0.000998
165 0.0
171 0.000998
177 0.0
181 0.0
185 0.000989
190 0.0
183 0.0
136 0.0
71 0.0
62 0.0
63 0.0
68 0.0
76 0.0
87 0.0
104 0.0
118 0.000523
120 0.0
120 0.0
123 0.000999
128 0.0
142 0.000998
151 0.000997
164 0.004986
168 0.001995
173 0.002992
176 0.0
182 0.0
187 0.0
184 0.0
128 0.0
79 0.0
54 0.0
51 0.000997
55 0.0
60 0.0
69 0.0
85 0.000981
100 0.000992
108 0.0
108 0.0
110 0.0
116 0.000997
123 0.0
138 0.0
146 0.000994
154 0.000976
160 0.000963
165 0.000967
172 0.000989
177 0.000998
177 0.0
140 0.0
87 0.0
58 0.001026
48 0.001008
47 0.001995
50 0.000998
57 0.00101
71 0.001006
87 0.00099
98 0.000998
101 0.001032
102 0.001038
105 0.000998
112 0.001055
123 0.000997
133 0.00105
147 0.000998
153 0.000998
162 0.001039
168 0.000999
173 0.000999
177 0.001995
157 0.002026
89 0.000997
59 0.000998
48 0.000997
46 0.001039
48 0.000998
55 0.001035
66 0.001995
83 0.002054
98 0.002029
106 0.000997
107 0.000999
110 0.002025
117 0.001994
129 0.001028
139 0.001033
148 0.00103
155 0.001995
166 0.000997
171 0.002
177 0.001995
183 0.000998
167 0.001029
114 0.001028
72 0.002982
53 0.002994
48 0.002031
49 0.00196
50 0.001995
57 0.002
76 0.002039
98 0.002026
106 0.001995
108 0.001041
111 0.001033
117 0.002005
126 0.003031
136 0.003027
149 0.001998
156 0.001995
163 0.002045
169 0.003991
177 0.002983
183 0.002041
184 0.002992
153 0.002036
99 0.002045
67 0.002992
52 0.003028
51 0.002992
56 0.001994
62 0.001995
72 0.00203
90 0.003028
113 0.002033
116 0.003029
117 0.003047
123 0.00203
132 0.002026
142 0.003047
151 0.003026
161 0.003027
168 0.003025
175 0.002992
183 0.002041
189 0.003999
198 0.001988
181 0.003038
123 0.002992
70 0.002039
59 0.002984
59 0.003025
63 0.004024
69 0.003989
81 0.002983
98 0.003023
114 0.002992
122 0.003011
122 0.003031
126 0.003022
135 0.002959
146 0.004001
158 0.002992
164 0.002992
169 0.002992
174 0.003995
178 0.003989
181 0.003023
179 0.002992
104 0.002992
61 0.00303
45 0.003003
43 0.003023
47 0.004025
53 0.004023
61 0.003949
73 0.004022
98 0.004014
109 0.004021
111 0.003956
111 0.004021
122 0.003031
131 0.002992
140 0.003962
147 0.004989
155 0.003994
165 0.004025
172 0.004032
178 0.004025
168 0.00498
116 0.004024
68 0.004034
48 0.004028
45 0.00401
49 0.004021
55 0.003986
68 0.005014
87 0.004988
104 0.005029
114 0.003989
114 0.003951
116 0.005021
122 0.004987
135 0.004018
144 0.004023
158 0.00404
166 0.003989
173 0.003989
178 0.004122
175 0.004992
116 0.00399
82 0.004989
54 0.004986
44 0.005004
45 0.004935
50 0.004022
53 0.004987
81 0.004019
99 0.004021
107 0.004034
108 0.003958
109 0.00498
117 0.00402
126 0.004987
135 0.005033
144 0.005988
152 0.006021
162 0.005019
169 0.005017
175 0.005022
159 0.005003
108 0.004988
62 0.004986
51 0.004986
50 0.004986
52 0.004989
55 0.005022
62 0.005984
78 0.005968
96 0.005984
107 0.00502
108 0.005974
113 0.005018
120 0.005016
130 0.005019
139 0.004991
148 0.006016
154 0.006009
160 0.006016
167 0.004978
173 0.005979
177 0.006019
148 0.00497
85 0.006942
60 0.005016
56 0.004977
56 0.006031
57 0.006947
60 0.006977
74 0.006016
93 0.005959
103 0.005984
111 0.005984
112 0.005984
115 0.006022
126 0.005955
137 0.00503
146 0.006003
153 0.00601
160 0.00698
164 0.006977
171 0.005959
176 0.005995
181 0.005948
185 0.006982
175 0.006981
97 0.006993
72 0.005968
63 0.00598
61 0.007023
63 0.005996
65 0.007016
72 0.006987
93 0.006007
108 0.005969
114 0.006043
114 0.006993
117 0.006982
128 0.006981
137 0.006974
149 0.006955
156 0.006977
161 0.007001
169 0.006927
175 0.006922
182 0.006011
186 0.006006
189 0.007025
195 0.006976
189 0.00701
107 0.006983
78 0.007947
67 0.006966
67 0.007024
68 0.006984
71 0.007016
78 0.006989
99 0.006972
114 0.007014
118 0.006984
119 0.006948
120 0.006981
131 0.007978
140 0.007978
152 0.00698
159 0.006938
167 0.006945
173 0.006948
178 0.007979
182 0.007941
187 0.006968
191 0.006992
195 0.00701
196 0.007979
117 0.007025
91 0.007943
75 0.007942
70 0.007936
70 0.007943
73 0.007946
80 0.007946
91 0.007956
112 0.006981
118 0.006955
119 0.006957
120 0.006987
129 0.007033
137 0.007013
146 0.007021
157 0.007013
163 0.007012
167 0.007979
171 0.007934
176 0.007939
180 0.007943
187 0.007977
190 0.006972
186 0.007021
110 0.007024
81 0.007012
72 0.007011
73 0.006988
76 0.007011
80 0.006981
89 0.006982
104 0.006968
119 0.00698
121 0.00703
121 0.007011
122 0.007015
134 0.007006
143 0.00699
151 0.006986
161 0.006981
168 0.007011
174 0.006976
177 0.006979
181 0.007026
186 0.006017
190 0.006012
193 0.005976
184 0.006032
104 0.006982
77 0.006981
69 0.007028
68 0.006987
70 0.006981
74 0.007007
82 0.007022
96 0.005984
114 0.006021
118 0.006011
118 0.006013
124 0.006026
131 0.005984
141 0.005983
150 0.006031
161 0.007014
169 0.006982
175 0.006982
179 0.00702
183 0.006032
189 0.006026
192 0.005986
197 0.006013
166 0.006024
109 0.005984
75 0.006024
64 0.006024
62 0.005983
64 0.005984
68 0.004989
74 0.005025
87 0.004986
103 0.005019
114 0.005975
116 0.006015
120 0.006017
126 0.006026
135 0.006014
145 0.006021
153 0.004995
164 0.006026
171 0.005984
176 0.005032
180 0.005018
184 0.004988
189 0.00503
194 0.005028
172 0.005019
115 0.005026
76 0.005977
62 0.005984
59 0.005984
60 0.006019
64 0.005985
70 0.004986
83 0.00503
98 0.00503
111 0.005028
113 0.00503
116 0.004997
123 0.005022
132 0.005036
142 0.005026
152 0.005026
162 0.005018
169 0.004989
174 0.00403
178 0.004032
182 0.005031
188 0.005037
191 0.005019
156 0.005021
100 0.004992
68 0.005028
59 0.005032
57 0.005025
61 0.004988
66 0.003996
73 0.004036
87 0.004
102 0.003991
111 0.004022
112 0.004031
117 0.004028
124 0.003944
134 0.00398
143 0.005025
152 0.005026
162 0.004987
168 0.004946
173 0.004021
178 0.004031
182 0.004023
187 0.004023
189 0.00399
149 0.004017
83 0.004023
63 0.003993
59 0.003995
61 0.003991
66 0.002993
74 0.002992
86 0.003027
101 0.004031
112 0.003991
114 0.004033
114 0.003991
120 0.003984
131 0.003999
140 0.00399
148 0.003991
156 0.00503
163 0.002992
169 0.002992
174 0.002992
178 0.002992
183 0.003035
185 0.002992
153 0.004043
87 0.004003
63 0.003992
61 0.003022
65 0.002961
71 0.002981
77 0.002992
95 0.002991
110 0.002992
116 0.002992
116 0.003023
116 0.00299
125 0.003024
134 0.003028
146 0.003028
154 0.004
161 0.003954
167 0.003954
172 0.002992
178 0.002964
182 0.002993
186 0.003004
182 0.002947
143 0.002998
69 0.002992
56 0.003024
55 0.002958
58 0.002992
63 0.002992
70 0.002993
83 0.002958
102 0.002947
108 0.002025
109 0.002029
111 0.001995
116 0.001963
131 0.001995
140 0.001995
151 0.002033
159 0.00302
164 0.002993
170 0.002971
174 0.002992
180 0.00313
183 0.003025
170 0.001995
118 0.002033
74 0.001994
51 0.001995
51 0.001995
54 0.001995
58 0.001995
66 0.001994
81 0.002025
96 0.001998
104 0.001965
107 0.001004
110 0.001996
116 0.000985
124 0.00101
140 0.001995
149 0.001995
157 0.001968
165 0.001995
170 0.001988
175 0.001986
180 0.001
184 0.001995
171 0.001995
120 0.001997
75 0.002024
55 0.001991
50 0.002042
52 0.001993
56 0.001995
66 0.000994
81 0.000998
97 0.001003
106 0.000998
109 0.000997
112 0.000997
118 0.001019
126 0.001996
136 0.000998
151 0.001995
159 0.001998
165 0.001993
171 0.001962
176 0.001999
180 0.000998
184 0.001995
183 0.001981
133 0.001001
83 0.000998
58 0.000997
51 0.000962
53 0.000995
58 0.001008
64 0.000996
81 0.000997
97 0.000998
105 0.000997
107 0.0
109 0.0
116 0.000998
124 0.0
134 0.000999
143 0.000998
157 0.001035
163 0.000999
169 0.000997
176 0.000997
180 0.000967
184 0.000997
184 0.0
153 0.0
87 0.0
64 0.0
59 0.0
67 0.0
73 0.0
82 0.0
97 0.0
119 0.0
126 0.0
125 0.0
124 0.0
129 0.0
139 0.0
149 0.0
159 0.0
171 0.0
176 0.0
179 0.0
183 0.0
186 0.000997
184 0.0
148 0.0
96 0.0
67 0.0
60 0.0
65 0.0
70 0.0
84 0.000998
99 0.001005
116 0.0
119 0.0
118 0.0
120 0.000997
126 0.000997
137 0.0
143 0.0
152 0.0
161 0.0
168 0.000999
176 0.000999
180 0.000999
165 0.0
113 0.0
70 0.0
52 0.001033
49 0.000998
51 0.000998
56 0.0
63 0.0
74 0.002004
90 0.002002
106 0.001045
107 0.001012
111 0.0
118 0.0
127 0.0
137 0.000999
146 0.000998
156 0.0
163 0.0
169 0.0
174 0.001008
175 0.000999
104 0.000998
63 0.000998
44 0.000986
43 0.000958
46 0.000999
49 0.001996
55 0.001995
72 0.0
83 0.00103
98 0.000999
105 0.001006
106 0.001055
116 0.000998
125 0.001005
137 0.0
147 0.00103
154 0.000953
162 0.002
168 0.001987
167 0.000999
127 0.001034
79 0.00099
54 0.002003
47 0.001995
50 0.001994
54 0.001996
61 0.002049
74 0.001998
92 0.001997
106 0.00103
109 0.002032
110 0.002001
117 0.001024
125 0.000987
135 0.001042
143 0.001991
158 0.001038
165 0.002034
171 0.001996
153 0.002033
103 0.002031
67 0.00202
52 0.002992
50 0.003038
52 0.00203
56 0.002028
66 0.001013
81 0.001994
104 0.001971
108 0.003018
108 0.003
114 0.002043
122 0.002028
131 0.001987
140 0.002992
148 0.002991
158 0.002028
165 0.001996
171 0.002027
166 0.002031
120 0.002979
78 0.001995
58 0.002988
52 0.00202
54 0.002038
58 0.002026
64 0.002991
77 0.00299
99 0.002028
108 0.002035
109 0.002064
114 0.001998
121 0.001976
131 0.002986
141 0.002997
152 0.002026
160 0.002989
166 0.002987
172 0.004027
178 0.002992
183 0.003024
173 0.00299
109 0.00203
62 0.002036
56 0.002015
58 0.003003
61 0.004033
68 0.003013
81 0.00303
99 0.003024
110 0.004017
114 0.003984
115 0.003023
120 0.003024
129 0.003044
142 0.003032
152 0.003032
162 0.002992
169 0.003045
177 0.002999
182 0.003001
187 0.003042
189 0.002996
167 0.003989
114 0.004027
72 0.00299
64 0.003024
68 0.003038
73 0.004029
80 0.004038
95 0.004029
112 0.004017
123 0.002974
123 0.002984
124 0.003023
129 0.004036
138 0.004026
151 0.00304
161 0.003021
173 0.003022
179 0.003049
184 0.004042
189 0.00502
194 0.004995
198 0.003029
184 0.004018
151 0.004024
90 0.004024
73 0.004025
73 0.002969
79 0.003003
91 0.002999
105 0.004051
120 0.004022
130 0.005015
129 0.005036
129 0.00402
134 0.004006
142 0.004024
151 0.005028
161 0.005025
171 0.003991
175 0.003987
184 0.003987
188 0.005018
193 0.003982
197 0.00502
191 0.004979
127 0.004019
85 0.00402
69 0.004013
67 0.004981
71 0.004986
78 0.00402
86 0.005005
111 0.005026
123 0.005018
126 0.004988
124 0.005988
127 0.005021
134 0.005023
147 0.003982
156 0.003982
165 0.005018
172 0.004984
179 0.003987
185 0.006027
191 0.005013
195 0.005017
189 0.005023
146 0.005982
94 0.005984
65 0.004965
62 0.005987
65 0.005022
70 0.005022
76 0.005985
92 0.004995
112 0.006015
119 0.006017
119 0.004993
122 0.005028
128 0.005007
137 0.005977
146 0.005989
158 0.004966
167 0.005021
173 0.006021
178 0.007004
182 0.006979
189 0.005984
194 0.00601
174 0.004961
118 0.004988
78 0.004982
63 0.005975
60 0.005983
63 0.004999
69 0.004989
75 0.005025
88 0.006968
104 0.006971
116 0.007015
117 0.006975
121 0.006024
128 0.006009
137 0.004995
146 0.005973
155 0.006995
165 0.00602
170 0.004986
175 0.005977
181 0.006952
185 0.006976
186 0.006982
151 0.00701
85 0.00604
64 0.006016
60 0.00599
61 0.006983
65 0.00699
74 0.006987
85 0.006985
101 0.005956
111 0.006975
115 0.006954
116 0.007004
121 0.007025
132 0.005964
142 0.006
151 0.005995
158 0.006981
164 0.00687
170 0.006987
175 0.004984
179 0.006973
184 0.00697
181 0.006985
109 0.00696
73 0.006982
60 0.006014
61 0.006021
65 0.005987
71 0.006985
80 0.007948
100 0.006991
111 0.006969
115 0.006995
115 0.007946
117 0.007948
129 0.007979
138 0.007946
154 0.007012
161 0.007026
167 0.007978
170 0.006919
176 0.007944
181 0.007973
186 0.006981
186 0.00699
157 0.006981
92 0.007971
66 0.007013
68 0.007988
74 0.006986
81 0.006845
96 0.007008
111 0.006958
120 0.006997
121 0.006982
119 0.007952
121 0.006973
127 0.00698
136 0.007947
151 0.006982
161 0.007012
165 0.007978
173 0.007019
178 0.007011
181 0.00702
184 0.007016
176 0.007015
112 0.007032
74 0.007015
60 0.007012
62 0.007012
67 0.007031
73 0.007019
85 0.008019
95 0.007979
113 0.006981
114 0.00701
114 0.007028
117 0.006984
127 0.007015
137 0.007013
146 0.007016
158 0.007012
164 0.006988
169 0.006978
173 0.007023
178 0.006026
178 0.005979
145 0.005992
91 0.006012
60 0.007014
50 0.00701
52 0.006967
56 0.007022
66 0.006978
79 0.00702
94 0.007017
104 0.006973
105 0.00599
106 0.006027
112 0.006016
120 0.006026
131 0.005989
144 0.006034
151 0.006018
157 0.006015
166 0.006033
171 0.006031
176 0.007017
171 0.007023
111 0.005986
69 0.006021
51 0.006035
47 0.005986
50 0.005984
54 0.005984
61 0.006016
74 0.006039
97 0.006017
102 0.005994
102 0.005986
105 0.005985
111 0.005028
123 0.005021
133 0.005027
142 0.005028
149 0.005017
156 0.005029
164 0.005985
169 0.006017
176 0.006019
162 0.006037
113 0.006024
71 0.006018
53 0.005018
50 0.005038
52 0.005032
56 0.00503
62 0.005019
75 0.005013
95 0.00503
103 0.005027
105 0.004988
109 0.005984
116 0.004992
126 0.004956
137 0.004991
148 0.004982
154 0.005018
160 0.004989
166 0.005017
171 0.005028
177 0.004952
179 0.005027
124 0.004987
79 0.005029
58 0.004988
52 0.004056
53 0.003986
57 0.004045
62 0.004029
73 0.00403
89 0.003984
100 0.004017
104 0.004988
106 0.005036
115 0.004987
124 0.004987
135 0.004003
144 0.004028
152 0.004031
159 0.004031
165 0.004022
170 0.004026
174 0.004024
178 0.004021
173 0.004017
114 0.004988
68 0.004987
58 0.00502
57 0.00399
59 0.004023
63 0.00403
69 0.004023
88 0.004026
102 0.004029
108 0.004026
108 0.004022
111 0.003977
122 0.005031
132 0.003031
145 0.003023
152 0.004987
157 0.002954
162 0.002979
168 0.002992
175 0.002992
179 0.00399
183 0.003998
171 0.004018
125 0.004026
72 0.00399
65 0.00399
69 0.00398
73 0.003958
79 0.002993
92 0.003029
108 0.002988
118 0.003023
118 0.003024
120 0.002992
124 0.003991
132 0.003989
150 0.00401
159 0.003031
169 0.003959
174 0.002038
179 0.00399
184 0.002992
188 0.003039
192 0.003027
181 0.003025
133 0.003029
90 0.003026
72 0.002992
72 0.003034
77 0.003043
85 0.003032
99 0.003058
115 0.004055
124 0.002029
123 0.001995
123 0.003024
127 0.003046
136 0.002992
146 0.003017
155 0.003024
167 0.00303
173 0.003036
180 0.00202
184 0.002033
187 0.00202
190 0.001996
175 0.002037
108 0.001994
73 0.001997
61 0.00198
61 0.002041
65 0.001998
73 0.001995
83 0.002952
104 0.002962
115 0.002944
116 0.001991
116 0.002992
120 0.001995
131 0.002026
141 0.001996
151 0.002
159 0.001996
166 0.001985
175 0.001996
180 0.002028
184 0.001988
185 0.001992
155 0.001995
101 0.001049
68 0.001024
57 0.000964
57 0.001995
60 0.002037
65 0.002037
72 0.002026
98 0.002045
109 0.001995
112 0.000997
113 0.001007
119 0.001002
127 0.000988
138 0.000998
148 0.000997
159 0.000998
166 0.000998
172 0.000985
177 0.000982
184 0.000998
187 0.002028
170 0.002039
100 0.002041
68 0.000997
56 0.000999
55 0.000997
57 0.002064
62 0.000998
71 0.000998
86 0.000999
107 0.001003
109 0.000997
110 0.000997
114 0.001039
125 0.000998
135 0.000987
145 0.000999
153 0.000998
160 0.0
168 0.000998
173 0.000997
178 0.0
184 0.0
168 0.0
117 0.0
76 0.0
57 0.0
56 0.0
58 0.0
62 0.000998
68 0.00099
87 0.000986
101 0.001001
108 0.000997
109 0.000998
113 0.0
121 0.0
131 0.0
145 0.0
153 0.0
160 0.0
163 0.0
169 0.0
175 0.0
180 0.0
184 0.0
145 0.0
96 0.0
69 0.0
59 0.0
59 0.0
63 0.0
67 0.0
77 0.0
93 0.0
106 0.000997
112 0.000998
113 0.000998
122 0.000999
131 0.000989
141 0.000997
154 0.0
162 0.000997
168 0.001002
173 0.001045
179 0.000985
184 0.0
188 0.0
191 0.000998
180 0.001011
99 0.001992
71 0.001003
63 0.0
64 0.0
68 0.0
74 0.000999
84 0.001028
105 0.0
114 0.0
117 0.0
117 0.00104
121 0.001003
135 0.000956
146 0.001016
159 0.0
167 0.0
174 0.0
178 0.001029
182 0.00104
188 0.0
192 0.0
195 0.0
180 0.000998
130 0.000997
74 0.002031
69 0.001995
74 0.000997
79 0.001038
86 0.001011
100 0.001995
115 0.002043
125 0.0
124 0.001001
124 0.000981
129 0.002027
138 0.001029
155 0.002185
164 0.002042
172 0.000951
177 0.001002
182 0.000997
186 0.001995
189 0.001993
194 0.001003
186 0.0
141 0.001032
92 0.001996
65 0.000991
67 0.002028
72 0.002992
77 0.003025
89 0.000986
105 0.000976
117 0.000995
120 0.001998
119 0.002026
123 0.000993
130 0.000991
140 0.000999
156 0.001042
165 0.002025
170 0.002992
176 0.003042
182 0.002019
185 0.002033
189 0.002027
191 0.002991
165 0.002991
94 0.001014
66 0.000998
59 0.000996
62 0.001001
66 0.002002
72 0.002962
84 0.002992
105 0.001979
113 0.002026
114 0.002033
115 0.003023
121 0.003026
133 0.00203
143 0.002023
153 0.002047
165 0.003033
171 0.003038
176 0.002992
180 0.003003
186 0.00205
189 0.001955
174 0.002992
121 0.003033
77 0.003026
58 0.001952
58 0.001988
61 0.001999
69 0.001962
79 0.001993
95 0.003024
108 0.003024
113 0.002005
114 0.002013
119 0.002036
126 0.004024
136 0.00402
150 0.003025
159 0.003023
166 0.001973
175 0.001984
180 0.002027
185 0.00305
189 0.002992
188 0.001985
151 0.001996
97 0.001983
67 0.004023
57 0.003022
58 0.001997
62 0.002999
67 0.00299
85 0.002987
101 0.003001
111 0.003989
112 0.003989
115 0.004052
121 0.003025
130 0.003045
140 0.003025
150 0.004988
159 0.004989
168 0.003022
172 0.003006
180 0.002981
184 0.002023
188 0.002982
190 0.003989
172 0.004033
102 0.002999
69 0.00104
58 0.003003
57 0.00403
60 0.004017
65 0.004002
74 0.002998
99 0.002998
110 0.004025
112 0.004024
112 0.004987
116 0.00402
128 0.002999
138 0.002988
148 0.003007
157 0.003984
165 0.005031
172 0.003985
176 0.004007
183 0.003987
187 0.00402
191 0.003993
183 0.005007
137 0.004986
78 0.004034
62 0.003038
60 0.003999
62 0.006027
65 0.006013
74 0.003981
93 0.004987
110 0.003984
113 0.003988
114 0.003991
118 0.004986
124 0.005026
138 0.004987
148 0.004987
157 0.004022
165 0.005984
171 0.005999
176 0.004987
182 0.006015
188 0.004032
192 0.004019
191 0.003996
159 0.005026
105 0.005027
68 0.004
62 0.004994
63 0.004981
67 0.006007
72 0.005979
86 0.005021
106 0.005984
114 0.005022
114 0.003992
117 0.004996
122 0.004983
131 0.006014
141 0.005985
154 0.004989
162 0.004976
168 0.004997
173 0.005979
177 0.005994
184 0.005987
189 0.005987
193 0.006013
172 0.005981
118 0.005954
80 0.006983
65 0.006982
64 0.005018
69 0.004983
74 0.004985
82 0.005984
97 0.005993
117 0.005984
117 0.005985
118 0.005987
124 0.00603
133 0.00603
143 0.006982
154 0.006981
165 0.005984
171 0.005985
176 0.005976
180 0.006984
184 0.006983
192 0.007024
197 0.006976
183 0.006023
130 0.005995
87 0.005976
71 0.006971
70 0.006972
77 0.005976
83 0.005992
92 0.005982
108 0.006979
123 0.007944
126 0.00798
124 0.007979
129 0.007022
136 0.007009
146 0.007015
154 0.00798
160 0.007979
165 0.00599
169 0.005983
172 0.005975
176 0.007941
179 0.006995
169 0.007979
121 0.007978
69 0.006984
57 0.006944
56 0.007013
59 0.007979
62 0.00798
72 0.006984
87 0.007013
101 0.006935
108 0.007973
108 0.007975
112 0.007979
122 0.007991
128 0.007979
141 0.006975
148 0.007011
154 0.007016
162 0.007949
167 0.007978
173 0.007015
177 0.007014
166 0.006991
86 0.007011
59 0.006962
50 0.007978
49 0.007979
52 0.007031
56 0.00698
69 0.006974
84 0.007063
96 0.007025
102 0.006981
103 0.007012
108 0.007017
121 0.006976
130 0.006995
139 0.00701
147 0.00701
156 0.006951
162 0.006982
167 0.006026
171 0.007015
170 0.007032
120 0.007019
76 0.006856
55 0.007013
49 0.007017
51 0.007013
54 0.006984
60 0.007029
79 0.006977
93 0.006985
102 0.007018
103 0.006022
106 0.007026
114 0.006014
123 0.005984
133 0.006023
148 0.006019
156 0.006017
163 0.007027
169 0.007022
176 0.006977
181 0.00702
171 0.007022
126 0.00601
82 0.005997
59 0.006031
57 0.006018
60 0.006041
68 0.006023
79 0.006031
95 0.005965
109 0.006036
114 0.007013
113 0.006015
117 0.005982
124 0.006021
133 0.006034
147 0.006025
155 0.00598
162 0.005983
173 0.005999
178 0.006177
183 0.005024
185 0.005995
166 0.006028
98 0.005026
71 0.005986
63 0.005046
65 0.005017
69 0.006003
75 0.006035
87 0.006078
113 0.006012
118 0.006015
117 0.006029
118 0.006029
124 0.00502
135 0.005013
145 0.005949
153 0.004987
160 0.004988
166 0.005035
173 0.005026
178 0.004951
185 0.004964
175 0.005043
127 0.005021
82 0.005026
61 0.00502
57 0.004987
59 0.004991
62 0.005024
67 0.005011
80 0.00498
102 0.005057
111 0.004985
112 0.004983
116 0.005018
123 0.004989
133 0.005023
143 0.004996
154 0.005023
161 0.004989
167 0.005017
172 0.00399
177 0.004989
183 0.005027
185 0.005028
121 0.004986
78 0.004955
58 0.003989
53 0.004989
54 0.003991
57 0.005025
61 0.004982
73 0.003965
91 0.003989
104 0.00399
108 0.00399
111 0.005025
120 0.004993
129 0.004925
139 0.004989
148 0.005023
156 0.004954
164 0.00396
170 0.003999
176 0.004027
181 0.003956
186 0.003992
177 0.004022
109 0.003994
65 0.004035
55 0.003993
53 0.004004
54 0.004044
57 0.003992
66 0.003995
82 0.004956
99 0.004022
107 0.003991
109 0.003995
111 0.00402
123 0.004007
134 0.003025
146 0.003992
156 0.003991
163 0.003993
169 0.003948
174 0.003948
181 0.003999
185 0.003022
190 0.003991
190 0.003998
157 0.003025
79 0.003998
62 0.002992
58 0.004009
60 0.002984
62 0.003027
68 0.003033
80 0.003027
103 0.00401
111 0.002987
113 0.002961
115 0.003983
120 0.002992
136 0.003029
146 0.002052
159 0.00399
167 0.003013
173 0.002987
177 0.003031
182 0.003032
189 0.002993
193 0.002968
197 0.003027
183 0.002988
130 0.002995
72 0.003037
64 0.002993
65 0.003026
67 0.002027
72 0.002036
83 0.002018
101 0.001989
116 0.001995
118 0.003044
118 0.002033
121 0.003026
129 0.003027
147 0.003033
157 0.002992
169 0.002027
175 0.001994
180 0.002035
184 0.002042
189 0.002028
195 0.002026
199 0.001999
193 0.001055
149 0.001995
99 0.001985
71 0.002992
73 0.003028
80 0.002055
86 0.001988
97 0.002038
114 0.00203
126 0.002006
128 0.001996
128 0.00203
131 0.001996
138 0.001957
148 0.001991
165 0.001954
172 0.001011
178 0.000998
184 0.000998
188 0.000998
191 0.000997
195 0.000997
198 0.000999
191 0.002027
143 0.00205
93 0.001995
64 0.002038
65 0.002031
70 0.002024
74 0.001999
86 0.001037
102 0.001
116 0.000998
120 0.000998
120 0.000998
124 0.000997
131 0.000998
142 0.000997
158 0.00206
167 0.001996
173 0.002003
177 0.001994
183 0.0
187 0.0
190 0.000998
195 0.000998
194 0.001007
138 0.000998
88 0.000998
64 0.000987
58 0.001002
60 0.000998
64 0.000997
70 0.000998
89 0.000998
104 0.0
112 0.0
114 0.0
116 0.0
124 0.001
133 0.00096
143 0.0
159 0.000998
165 0.000979
170 0.0
175 0.0
181 0.0
186 0.000998
190 0.000997
185 0.0
142 0.0
78 0.0
60 0.0
55 0.0
59 0.0
63 0.0
71 0.000944
90 0.0
104 0.0
111 0.0
112 0.000948
114 0.001006
123 0.0
134 0.0
144 0.000994
153 0.0
165 0.0
169 0.001046
176 0.000965
180 0.0
184 0.0
187 0.000998
176 0.000999
109 0.0
73 0.0
61 0.000998
56 0.000997
59 0.002028
66 0.001039
76 0.001028
97 0.0
108 0.0
111 0.0
111 0.000999
115 0.000998
126 0.0
136 0.0
146 0.0
155 0.001995
162 0.000998
170 0.00101
175 0.000998
181 0.000983
185 0.0
187 0.0
165 0.00202
112 0.00203
69 0.0
61 0.0
62 0.0
67 0.001997
71 0.001038
91 0.00103
106 0.000998
115 0.0
114 0.000959
115 0.0
121 0.002035
130 0.001999
143 0.0
152 0.000997
159 0.001022
164 0.001995
169 0.001997
176 0.001009
180 0.002005
184 0.000995
169 0.000996
119 0.00095
79 0.002006
63 0.002005
62 0.00099
68 0.000949
73 0.000998
82 0.002022
108 0.000994
116 0.001993
115 0.001995
115 0.00097
121 0.000979
130 0.000953
140 0.000949
150 0.001995
158 0.001995
165 0.001987
170 0.002025
175 0.002034
181 0.001039
185 0.000974
185 0.002993
154 0.002992
85 0.000984
62 0.000977
56 0.001999
57 0.002032
60 0.00302
67 0.001952
78 0.001991
93 0.002007
108 0.002026
108 0.000962
111 0.002994
117 0.002992
130 0.001967
141 0.001987
151 0.002018
159 0.002992
164 0.002992
172 0.002028
176 0.000947
181 0.001009
186 0.000999
172 0.001978
120 0.00299
77 0.002988
55 0.001992
54 0.001997
57 0.002045
60 0.002992
66 0.002993
83 0.002034
99 0.000987
109 0.002039
111 0.002027
115 0.001999
123 0.004022
133 0.004027
148 0.001983
157 0.001993
165 0.00201
170 0.003971
175 0.004007
181 0.001939
185 0.001999
190 0.002016
164 0.002003
108 0.002943
72 0.004025
59 0.004023
58 0.002994
61 0.003059
65 0.002962
72 0.003988
87 0.003989
108 0.001983
114 0.001981
114 0.003001
120 0.00198
129 0.001988
140 0.003989
150 0.005019
162 0.002997
168 0.002977
173 0.003011
177 0.003973
182 0.00402
186 0.003989
191 0.002032
183 0.003
102 0.003
71 0.003997
61 0.002994
60 0.004987
63 0.005033
69 0.002991
78 0.002977
93 0.002987
107 0.004987
112 0.005019
113 0.002994
116 0.002991
130 0.002993
140 0.00299
150 0.002993
158 0.004985
165 0.004989
171 0.003976
176 0.004043
180 0.00402
184 0.004991
189 0.004987
179 0.003049
131 0.004023
72 0.002993
64 0.00299
65 0.003994
69 0.004987
73 0.004986
87 0.003978
103 0.003986
115 0.004019
117 0.004987
118 0.004987
121 0.00399
133 0.004989
147 0.004023
157 0.005014
164 0.004003
170 0.006018
174 0.005986
181 0.004014
185 0.00499
189 0.003976
192 0.005029
186 0.004987
125 0.003992
78 0.00598
69 0.004988
73 0.005026
78 0.004013
84 0.006018
96 0.006017
117 0.005018
124 0.005019
122 0.004023
122 0.00602
126 0.005984
138 0.003983
150 0.005988
162 0.003991
168 0.004984
172 0.004967
177 0.006018
182 0.005984
186 0.00499
190 0.005007
186 0.004984
147 0.005019
97 0.005989
72 0.005984
69 0.005975
74 0.005981
80 0.005018
90 0.004987
106 0.00497
117 0.006985
120 0.006981
119 0.004993
122 0.004987
130 0.004987
140 0.006018
151 0.006981
164 0.006984
169 0.00699
175 0.005985
179 0.006028
183 0.006034
186 0.006982
187 0.006998
149 0.005003
96 0.004954
67 0.00501
58 0.007018
59 0.005985
64 0.007022
69 0.007015
86 0.005981
101 0.005981
109 0.006015
110 0.006981
111 0.007012
119 0.006015
128 0.005019
138 0.004989
148 0.007985
156 0.007979
167 0.007971
171 0.007978
177 0.005981
181 0.005983
184 0.005982
174 0.007019
127 0.006982
72 0.005984
57 0.005991
54 0.005985
56 0.007979
59 0.007978
70 0.007944
85 0.007979
103 0.005985
106 0.006016
107 0.005984
113 0.007978
122 0.007976
132 0.005966
142 0.005993
151 0.005989
158 0.00793
164 0.007927
173 0.007945
178 0.007979
185 0.006981
188 0.006977
165 0.006984
112 0.007981
69 0.007018
61 0.007002
62 0.006967
66 0.006967
69 0.006963
86 0.006979
103 0.006981
114 0.007979
117 0.007979
118 0.006942
123 0.006958
132 0.006988
146 0.007044
152 0.007979
165 0.006981
171 0.006982
176 0.006993
185 0.00698
187 0.006981
192 0.006985
187 0.00697
146 0.006996
96 0.006986
71 0.006985
67 0.006991
71 0.007033
78 0.006992
86 0.006966
101 0.006989
120 0.006971
120 0.006982
120 0.007018
123 0.007023
134 0.006989
140 0.006929
153 0.006991
162 0.007022
168 0.006024
175 0.006978
180 0.006018
184 0.006042
189 0.006021
177 0.006013
129 0.006019
85 0.006024
63 0.006016
62 0.006018
66 0.007012
69 0.007015
75 0.007033
94 0.006986
108 0.006989
115 0.006987
116 0.006981
121 0.006009
130 0.005991
140 0.006029
154 0.006486
162 0.006018
167 0.005987
172 0.00606
176 0.005957
183 0.006054
186 0.006948
187 0.007012
122 0.005984
78 0.006024
59 0.006019
55 0.006037
57 0.005986
60 0.006015
66 0.00598
78 0.006022
94 0.006106
108 0.006007
108 0.006016
110 0.005985
120 0.005023
131 0.005004
141 0.006027
150 0.006015
160 0.006041
165 0.006017
170 0.005983
175 0.005982
179 0.006041
182 0.006021
161 0.006032
109 0.005019
61 0.006019
56 0.005016
57 0.005026
60 0.005022
65 0.005028
79 0.004999
96 0.004986
108 0.005026
111 0.005026
111 0.004999
117 0.004932
126 0.005023
143 0.005988
153 0.005984
160 0.005985
166 0.004986
172 0.004987
179 0.004986
184 0.00499
187 0.004955
181 0.004979
139 0.005013
83 0.004984
68 0.004987
70 0.005031
75 0.005024
81 0.004989
92 0.004989
109 0.003991
124 0.005007
126 0.003963
125 0.004988
129 0.004988
137 0.004987
151 0.004988
165 0.005033
174 0.004968
180 0.004961
185 0.00499
189 0.005029
193 0.004
197 0.004987
186 0.004991
136 0.004989
91 0.004983
73 0.00495
74 0.003991
82 0.004947
91 0.004038
106 0.003989
123 0.004959
131 0.003992
130 0.004042
129 0.003999
134 0.003997
142 0.003992
153 0.004988
162 0.003992
171 0.00499
178 0.003992
184 0.004992
189 0.003992
192 0.004
192 0.004022
165 0.004016
95 0.003025
70 0.004032
65 0.003993
68 0.004005
73 0.004023
79 0.004033
99 0.00399
115 0.003028
122 0.004028
122 0.004032
124 0.002997
130 0.002992
140 0.002993
153 0.002993
162 0.002994
169 0.003025
175 0.00305
179 0.003031
186 0.00399
190 0.003024
184 0.002961
139 0.002959
88 0.003059
64 0.003037
58 0.00302
61 0.002956
65 0.003023
70 0.003031
81 0.002993
97 0.00204
114 0.002027
114 0.002037
118 0.002995
125 0.002994
135 0.002994
146 0.003039
156 0.003019
166 0.00298
172 0.003041
177 0.002993
182 0.002039
187 0.002995
184 0.002038
141 0.00202
78 0.002028
62 0.002022
60 0.002003
64 0.001997
68 0.002993
78 0.002993
92 0.001999
108 0.002029
117 0.002035
118 0.00203
121 0.002993
128 0.001991
142 0.001996
153 0.00204
161 0.00203
168 0.001964
174 0.001971
181 0.002993
185 0.001995
189 0.001996
188 0.001997
157 0.001989
79 0.001983
64 0.002009
66 0.000998
71 0.001998
77 0.001998
86 0.000961
102 0.002043
119 0.002002
121 0.001986
120 0.001984
123 0.000999
136 0.002009
147 0.000997
156 0.000998
164 0.001046
172 0.001997
177 0.000999
182 0.000997
186 0.000997
189 0.001035
165 0.000997
110 0.002036
74 0.002034
62 0.001006
66 0.000997
71 0.001004
78 0.002005
95 0.001996
110 0.000998
117 0.000997
117 0.000998
117 0.000997
124 0.000998
134 0.001035
144 0.001995
159 0.000997
166 0.000998
172 0.001996
177 0.000997
183 0.000997
186 0.0
181 0.0
140 0.0
89 0.001012
61 0.000998
59 0.000999
63 0.000997
73 0.000997
84 0.000989
101 0.000998
115 0.000989
118 0.000998
118 0.0
122 0.0
129 0.0
140 0.0
154 0.0
162 0.0
168 0.0
177 0.0
182 0.000964
186 0.000997
188 0.000997
161 0.000998
106 0.0
72 0.0
63 0.0
66 0.0
74 0.0
81 0.0
93 0.0
118 0.0
122 0.0
121 0.0
121 0.0
130 0.0
140 0.0
154 0.0
159 0.001008
168 0.0
174 0.0
179 0.001034
183 0.001996
188 0.001025
173 0.001026
102 0.0
78 0.000998
61 0.0
64 0.002019
71 0.002031
79 0.000965
92 0.0
109 0.0
120 0.002026
122 0.002036
121 0.001997
126 0.002011
139 0.0
150 0.0
158 0.0
165 0.001997
171 0.002038
178 0.0
182 0.0
186 0.0
183 0.001051
143 0.001032
67 0.001032
54 0.001029
56 0.001
60 0.000996
67 0.0
76 0.002034
92 0.002027
111 0.0
115 0.0
114 0.0
117 0.00201
124 0.001994
142 0.001033
152 0.000995
161 0.0
168 0.0
174 0.0
179 0.001032
183 0.000998
180 0.0
136 0.0
82 0.0
55 0.001994
47 0.0
51 0.002027
55 0.001995
64 0.0
78 0.0
95 0.0
104 0.002022
105 0.002025
108 0.0
115 0.0
126 0.000952
137 0.00204
153 0.0
161 0.001995
166 0.001995
174 0.001994
179 0.001994
181 0.000997
160 0.001995
105 0.002011
59 0.000992
49 0.001028
49 0.002014
52 0.001998
61 0.001994
73 0.002989
90 0.002992
102 0.003025
105 0.001993
106 0.001985
111 0.001041
120 0.002029
132 0.003027
146 0.000996
154 0.001965
161 0.000998
171 0.001015
176 0.001963
180 0.003026
181 0.003036
137 0.000997
86 0.00199
61 0.001975
55 0.002992
57 0.003072
63 0.001991
69 0.001999
81 0.001994
108 0.002001
114 0.001996
114 0.002993
116 0.002992
125 0.002024
136 0.002037
147 0.001977
157 0.002994
164 0.002992
172 0.000998
177 0.002008
181 0.000997
187 0.000992
185 0.001972
150 0.003989
97 0.003023
65 0.001987
63 0.002003
67 0.002002
72 0.002992
79 0.003024
99 0.001996
115 0.002021
121 0.001992
119 0.001953
122 0.002009
130 0.004023
140 0.004024
153 0.001998
162 0.002021
167 0.002005
172 0.004989
178 0.003024
183 0.002993
187 0.002994
183 0.001992
109 0.003005
75 0.001989
64 0.004022
65 0.003989
73 0.00201
79 0.002013
90 0.001996
107 0.004987
119 0.003989
121 0.001991
120 0.002976
124 0.00296
140 0.002007
150 0.002995
160 0.004027
167 0.003987
172 0.003998
179 0.001994
183 0.002998
187 0.002009
190 0.004997
182 0.005025
114 0.003001
67 0.005019
58 0.002991
61 0.002983
65 0.002998
70 0.004994
80 0.004029
102 0.002997
114 0.003989
117 0.003988
117 0.004987
120 0.004989
132 0.002986
147 0.00502
159 0.002997
166 0.003012
172 0.002993
178 0.004997
183 0.004983
188 0.003991
191 0.003957
170 0.003977
114 0.00502
74 0.004985
57 0.004007
58 0.004986
63 0.002982
69 0.002985
80 0.002999
97 0.004985
110 0.005019
115 0.002991
115 0.002989
120 0.003993
128 0.006008
139 0.006016
153 0.003994
164 0.005982
172 0.003989
177 0.003988
182 0.003986
186 0.004986
189 0.004991
171 0.002982
117 0.004008
77 0.004026
63 0.005985
60 0.005984
63 0.003987
69 0.00598
83 0.003984
100 0.003028
112 0.003988
115 0.005983
115 0.007009
121 0.004957
130 0.004991
141 0.004986
151 0.005992
161 0.006016
169 0.004991
176 0.005987
183 0.003991
187 0.003991
191 0.003991
190 0.00599
158 0.007008
105 0.007006
69 0.004015
64 0.004983
66 0.004989
70 0.006013
75 0.005976
96 0.00595
111 0.005987
118 0.003965
117 0.003983
120 0.00397
127 0.007002
137 0.006985
151 0.004978
160 0.004989
167 0.004984
173 0.00698
178 0.007015
185 0.007013
189 0.00698
192 0.004982
171 0.004985
118 0.005994
82 0.006976
69 0.006982
70 0.004987
74 0.004984
80 0.005034
89 0.006974
105 0.007013
124 0.006987
125 0.006982
125 0.004988
131 0.005954
140 0.004985
154 0.007976
163 0.007981
171 0.005986
176 0.005953
181 0.005984
186 0.007015
191 0.007028
196 0.006979
185 0.006982
119 0.004976
84 0.005016
73 0.005986
75 0.007943
80 0.007979
89 0.005985
101 0.005986
119 0.005989
130 0.007988
130 0.005992
130 0.006966
134 0.006984
146 0.005979
156 0.005949
164 0.007002
173 0.007968
176 0.007979
183 0.006953
187 0.006017
191 0.00598
194 0.007978
149 0.005991
85 0.007978
71 0.007952
66 0.005018
72 0.00698
78 0.006977
85 0.006988
100 0.008013
115 0.006984
122 0.006983
121 0.006982
121 0.007948
131 0.006017
141 0.006015
154 0.007981
162 0.008009
167 0.005979
173 0.005982
178 0.006989
182 0.007979
186 0.007022
174 0.00698
122 0.006979
69 0.006953
56 0.006982
58 0.006972
62 0.00702
67 0.007013
83 0.005983
94 0.006983
107 0.006987
112 0.007019
112 0.006978
118 0.006978
124 0.006979
134 0.00699
151 0.006969
161 0.006977
167 0.006972
172 0.007014
177 0.006981
183 0.006973
182 0.006975
132 0.005985
83 0.006021
55 0.006975
52 0.006945
54 0.00698
58 0.006977
64 0.006968
83 0.006024
98 0.006014
106 0.005982
106 0.005988
109 0.005979
116 0.006036
125 0.007038
138 0.006965
147 0.00699
151 0.00697
161 0.006985
166 0.006017
171 0.006016
175 0.00598
154 0.006001
104 0.006001
68 0.005982
54 0.005987
51 0.005986
53 0.005942
56 0.005983
63 0.005988
90 0.005022
101 0.005989
103 0.006021
104 0.006017
110 0.006036
119 0.005989
129 0.006016
139 0.006044
146 0.00603
155 0.006001
160 0.005993
166 0.005946
174 0.005968
178 0.005986
168 0.005019
121 0.005038
79 0.005018
59 0.005022
57 0.00602
59 0.006024
64 0.005987
71 0.005979
91 0.005984
110 0.005986
113 0.005021
114 0.005021
119 0.004954
127 0.005018
138 0.005021
151 0.005023
160 0.004979
167 0.005043
172 0.005016
177 0.004987
183 0.003991
188 0.004022
181 0.003985
134 0.006017
88 0.005035
67 0.005017
63 0.004987
68 0.004983
73 0.005019
81 0.005023
96 0.004946
112 0.004982
120 0.004988
118 0.004987
123 0.004954
131 0.00399
140 0.00399
150 0.003996
159 0.005058
167 0.004989
172 0.005029
177 0.004988
182 0.004987
185 0.004987
189 0.004983
148 0.004022
86 0.00398
68 0.003985
67 0.003969
71 0.004024
77 0.004024
88 0.00495
104 0.003952
118 0.004987
122 0.004987
121 0.004956
123 0.004956
133 0.003937
146 0.004023
156 0.003991
164 0.004023
169 0.003961
174 0.00399
179 0.003989
183 0.00399
186 0.003991
186 0.003981
157 0.00399
89 0.004987
62 0.003989
58 0.00399
61 0.003947
65 0.003989
71 0.00399
84 0.003991
105 0.003992
111 0.003957
111 0.004024
113 0.004021
120 0.003991
128 0.004012
146 0.002957
155 0.003023
164 0.003029
170 0.004023
175 0.004032
180 0.002992
184 0.002059
183 0.003026
147 0.00399
96 0.004024
67 0.003021
59 0.004027
60 0.003011
63 0.003025
72 0.003025
87 0.00299
103 0.002994
112 0.003027
113 0.002993
115 0.003993
122 0.00299
132 0.003061
143 0.003035
152 0.001995
165 0.001995
170 0.002993
177 0.002989
181 0.002993
186 0.003035
188 0.002992
166 0.002993
98 0.002029
70 0.002035
62 0.003044
62 0.00302
66 0.003018
76 0.002002
89 0.002032
110 0.001995
117 0.002027
118 0.002029
119 0.002993
125 0.002997
139 0.002992
150 0.002036
160 0.001996
168 0.003025
178 0.001996
183 0.001995
188 0.001995
193 0.002056
196 0.001037
181 0.001039
128 0.002029
84 0.001996
66 0.001965
67 0.000976
71 0.001941
76 0.001961
94 0.00096
112 0.000999
122 0.002014
122 0.002009
123 0.001995
128 0.00199
137 0.001984
148 0.002
161 0.002052
169 0.00206
175 0.001983
180 0.001964
187 0.000965
190 0.000999
192 0.000998
174 0.001005
104 0.001006
73 0.000967
65 0.000997
68 0.000998
74 0.00195
83 0.002012
96 0.00203
113 0.002037
122 0.002045
118 0.000998
118 0.001996
124 0.002038
138 0.000999
148 0.000998
158 0.000997
165 0.000997
170 0.000998
177 0.002031
182 0.0
185 0.000998
177 0.0
126 0.002021
80 0.001995
61 0.002042
58 0.0
62 0.0
68 0.0
75 0.0
89 0.0
109 0.0
114 0.0
114 0.000997
119 0.001031
128 0.000997
139 0.000998
149 0.000997
160 0.000998
167 0.0
172 0.0
177 0.0
181 0.0
186 0.0
171 0.0
116 0.0
58 0.0
52 0.0
53 0.0
56 0.0
63 0.0
75 0.0
93 0.000975
106 0.0
110 0.000997
111 0.0
115 0.0
124 0.0
143 0.0
152 0.0
160 0.0
166 0.0
174 0.000998
178 0.0
183 0.0
178 0.00095
132 0.001
81 0.0
57 0.001967
51 0.001998
53 0.002021
57 0.002028
67 0.0
84 0.0
100 0.0
107 0.001995
108 0.001995
111 0.0
119 0.0
129 0.000946
140 0.002031
156 0.000971
162 0.001028
168 0.001041
175 0.000978
178 0.000996
184 0.000997
181 0.001977
144 0.000996
77 0.0
56 0.0
51 0.0
52 0.001999
56 0.0
64 0.001997
80 0.002029
100 0.0
105 0.0
104 0.0
108 0.001995
115 0.003014
128 0.0
138 0.000963
148 0.0
154 0.001032
162 0.000964
167 0.001995
173 0.002027
179 0.0
182 0.0
165 0.0
114 0.002013
74 0.001989
56 0.000963
55 0.0
57 0.0
61 0.001983
78 0.0
95 0.002036
105 0.002013
106 0.0
108 0.0
113 0.0
122 0.001998
133 0.001996
147 0.0
155 0.0
161 0.0
165 0.002028
172 0.002
177 0.002028
182 0.002028
187 0.0
173 0.0
124 0.002002
83 0.002992
65 0.002956
63 0.001988
66 0.00103
69 0.001992
77 0.001998
104 0.001013
114 0.001008
115 0.002027
115 0.002024
121 0.001994
129 0.001995
139 0.001994
149 0.003038
158 0.002992
167 0.0
171 0.001996
175 0.0
183 0.0
187 0.001986
191 0.001994
190 0.002029
136 0.001988
91 0.001994
72 0.001036
70 0.003025
74 0.00296
80 0.001994
89 0.000982
105 0.000993
124 0.001978
123 0.001994
122 0.002994
126 0.002994
139 0.001991
149 0.001994
160 0.001998
169 0.004027
175 0.00402
181 0.001998
185 0.001989
188 0.000982
194 0.000955
198 0.00102
185 0.003027
132 0.002993
79 0.001999
67 0.001999
68 0.002018
72 0.004022
77 0.00402
89 0.001988
105 0.002008
118 0.002005
121 0.001988
122 0.001992
127 0.004025
136 0.003988
150 0.001997
159 0.000985
168 0.000996
174 0.003981
178 0.003996
184 0.001995
188 0.002028
194 0.002016
197 0.001995
180 0.002009
124 0.003984
80 0.004022
61 0.002007
61 0.001994
64 0.003017
67 0.005041
74 0.005018
93 0.002995
108 0.001995
115 0.001957
117 0.001988
121 0.002014
130 0.002
141 0.004019
151 0.004024
164 0.001927
170 0.002995
176 0.002992
180 0.005019
185 0.004987
190 0.002997
196 0.004957
184 0.002995
130 0.002958
83 0.002036
64 0.003986
60 0.005036
64 0.003991
68 0.002978
74 0.002991
88 0.004984
105 0.005018
118 0.002986
118 0.004946
123 0.002989
132 0.00299
142 0.002992
153 0.004983
163 0.005987
172 0.004121
178 0.003989
182 0.002955
185 0.004965
190 0.004981
195 0.002982
198 0.005022
154 0.002994
97 0.002961
69 0.003959
61 0.005984
63 0.005987
68 0.002992
74 0.003989
85 0.00399
101 0.006032
114 0.005966
118 0.003988
119 0.005014
128 0.002992
137 0.002975
148 0.001998
159 0.00599
167 0.005986
176 0.003959
180 0.003988
184 0.003984
189 0.005988
193 0.005982
199 0.003987
184 0.005991
110 0.002982
74 0.003991
64 0.00399
64 0.006985
68 0.006011
75 0.00397
85 0.003988
101 0.004001
116 0.005974
120 0.005983
119 0.004002
125 0.005988
137 0.003983
148 0.00498
158 0.005011
166 0.006979
171 0.006986
176 0.006978
182 0.004974
186 0.003967
189 0.003989
193 0.005977
192 0.006014
120 0.005978
81 0.005987
68 0.003999
71 0.004982
76 0.004985
82 0.006995
92 0.006985
113 0.004982
123 0.00499
123 0.004985
121 0.006982
129 0.004992
138 0.006984
148 0.006981
161 0.005004
167 0.004984
172 0.004984
177 0.006982
181 0.00698
186 0.005022
190 0.005017
190 0.005034
164 0.00698
82 0.004988
66 0.006982
66 0.006984
72 0.005992
77 0.006002
85 0.006023
107 0.007974
119 0.007977
122 0.004987
120 0.004984
122 0.004983
129 0.006988
145 0.004985
155 0.00698
164 0.006974
171 0.005991
175 0.00599
179 0.005984
184 0.007978
186 0.007977
190 0.005985
173 0.005986
117 0.006101
67 0.007011
57 0.004992
61 0.007978
64 0.007966
70 0.005972
81 0.005983
98 0.005952
110 0.007968
113 0.00796
113 0.005979
118 0.005989
127 0.00599
138 0.007975
155 0.005994
164 0.00697
169 0.007013
174 0.006973
178 0.00698
183 0.00697
187 0.006977
184 0.007022
142 0.00701
76 0.006979
56 0.006978
53 0.00698
56 0.00599
59 0.005979
65 0.007966
77 0.007977
99 0.005944
108 0.006977
109 0.006973
112 0.006957
118 0.006983
132 0.006982
139 0.006974
152 0.006968
162 0.006954
169 0.005983
173 0.007012
178 0.007012
183 0.00698
185 0.006983
181 0.006968
120 0.00602
76 0.006982
58 0.006971
55 0.006963
57 0.006977
65 0.006417
75 0.005981
91 0.005979
104 0.005993
111 0.005981
111 0.00695
114 0.006982
123 0.006997
134 0.007012
148 0.006986
158 0.006978
166 0.006014
174 0.006016
179 0.005985
184 0.005997
188 0.005983
193 0.005984
183 0.006019
134 0.004987
87 0.006017
68 0.006016
65 0.006968
68 0.007013
71 0.006968
88 0.006016
106 0.005979
120 0.006018
125 0.005981
125 0.006017
128 0.005983
136 0.005984
147 0.006014
157 0.006021
169 0.005989
175 0.005987
182 0.005019
186 0.004981
190 0.004983
194 0.005997
197 0.006015
186 0.005982
137 0.005932
89 0.005981
70 0.006016
68 0.006014
75 0.005986
81 0.005979
100 0.004955
118 0.004985
128 0.00503
128 0.005017
127 0.005021
130 0.004974
141 0.004982
152 0.005986
162 0.005996
169 0.00598
175 0.006026
181 0.005035
187 0.005026
190 0.00502
193 0.00498
192 0.004984
160 0.004988
103 0.005021
68 0.00502
65 0.004987
69 0.004025
75 0.003991
81 0.004019
100 0.005022
120 0.005016
124 0.005019
123 0.004987
125 0.005019
132 0.005023
142 0.005019
155 0.004982
163 0.005022
170 0.005019
175 0.005018
180 0.003987
185 0.004001
190 0.003993
184 0.004015
139 0.004024
86 0.005022
62 0.004984
58 0.00498
62 0.00502
67 0.005017
73 0.004986
86 0.004993
103 0.005022
116 0.00402
117 0.004023
121 0.004046
128 0.004003
139 0.003958
149 0.003951
158 0.003991
166 0.004053
171 0.003999
176 0.004026
181 0.003992
184 0.003992
186 0.003949
137 0.003992
71 0.004963
54 0.004022
52 0.003018
55 0.003991
60 0.00402
68 0.003992
82 0.003992
99 0.003993
110 0.003992
112 0.00399
114 0.003992
122 0.004022
136 0.00402
146 0.003989
155 0.003979
162 0.004023
167 0.004013
173 0.004027
178 0.003025
183 0.003028
186 0.004031
171 0.002979
117 0.003024
57 0.002992
50 0.002992
52 0.004028
56 0.003991
60 0.003991
70 0.004024
88 0.002994
106 0.002994
109 0.003029
110 0.003028
115 0.002992
130 0.003024
141 0.001983
151 0.002993
161 0.003025
167 0.003026
172 0.002029
177 0.002028
181 0.003027
186 0.002028
181 0.002028
137 0.002034
83 0.003024
52 0.002962
52 0.00296
55 0.001996
61 0.002995
70 0.002993
87 0.002992
105 0.002992
113 0.003027
113 0.002994
115 0.003026
123 0.002026
133 0.001995
151 0.003046
160 0.001989
167 0.002008
173 0.001996
177 0.002034
182 0.002001
186 0.002001
190 0.001995
181 0.00302
130 0.00295
80 0.001995
59 0.001996
56 0.002073
60 0.001995
64 0.001995
78 0.001983
95 0.002028
108 0.00203
113 0.001996
113 0.000997
118 0.002028
126 0.001964
136 0.002041
147 0.002041
162 0.002039
168 0.00099
173 0.000999
179 0.001
184 0.000997
189 0.000998
193 0.001995
194 0.001989
149 0.002029
94 0.002023
68 0.002019
63 0.002022
70 0.001
75 0.001009
84 0.000998
100 0.000998
120 0.000998
123 0.001005
122 0.000997
124 0.000999
131 0.000996
145 0.00101
156 0.002032
165 0.002058
177 0.002047
181 0.000998
185 0.000998
188 0.001002
193 0.001007
197 0.000997
197 0.000998
172 0.002041
115 0.000997
71 0.001996
65 0.000997
69 0.001985
77 0.000997
86 0.001044
102 0.0
118 0.0
125 0.0
123 0.0
126 0.000998
133 0.001031
143 0.000998
158 0.000998
167 0.001033
175 0.0
183 0.000985
187 0.0
191 0.000997
195 0.0
200 0.0
203 0.0
183 0.0
126 0.0
82 0.0
69 0.0
72 0.0
79 0.0
92 0.0
109 0.0
126 0.0
135 0.0
134 0.0
135 0.0
140 0.001006
148 0.0
158 0.0
170 0.000998
177 0.001007
184 0.0
188 0.0
193 0.0
196 0.0
198 0.0
198 0.0
167 0.002025
92 0.0
70 0.0
69 0.0
75 0.002024
83 0.002025
101 0.00203
120 0.002027
134 0.0
134 0.000996
132 0.000986
134 0.000998
142 0.00203
151 0.002043
163 0.000964
170 0.001028
175 0.0
180 0.002026
187 0.0
191 0.002031
194 0.002
194 0.0
161 0.000998
100 0.000998
67 0.001995
59 0.001989
66 0.0
74 0.000955
82 0.000958
95 0.00298
121 0.0
126 0.002027
125 0.002043
127 0.0
134 0.0
144 0.0
154 0.002026
163 0.002048
171 0.0
175 0.0
180 0.0
184 0.00203
189 0.0
191 0.00203
170 0.002026
91 0.00094
58 0.0
49 0.000972
51 0.002025
57 0.003026
65 0.0
75 0.0
92 0.000988
107 0.003061
114 0.0
114 0.002992
119 0.002022
131 0.000954
141 0.0
151 0.0
158 0.001998
164 0.002993
171 0.0
176 0.0
179 0.0
183 0.001993
171 0.0
117 0.002028
67 0.002033
46 0.000943
47 0.0
52 0.0
57 0.002025
64 0.003008
85 0.0
102 0.000968
110 0.001024
110 0.003028
114 0.001982
123 0.002042
133 0.00203
146 0.0
154 0.00199
160 0.002004
165 0.001999
171 0.002993
177 0.002993
184 0.001996
185 0.002002
162 0.000997
71 0.002991
51 0.002001
47 0.002993
51 0.004032
58 0.001991
65 0.001992
79 0.001993
95 0.002992
105 0.003023
106 0.002006
107 0.003024
119 0.002992
130 0.001979
141 0.001994
150 0.002993
157 0.002996
165 0.001996
169 0.002008
173 0.00201
178 0.002997
181 0.002992
163 0.001999
109 0.001992
56 0.001988
53 0.001996
57 0.001977
63 0.003987
69 0.004026
86 0.002987
103 0.000977
112 0.001981
113 0.002992
113 0.003024
119 0.001998
129 0.001992
147 0.001986
156 0.001982
162 0.001995
168 0.003989
172 0.00403
178 0.001998
182 0.002027
186 0.001048
180 0.004022
138 0.003986
74 0.002988
59 0.002024
63 0.001981
69 0.002043
76 0.00203
90 0.004024
109 0.004968
124 0.003001
124 0.002057
124 0.001999
127 0.005022
135 0.005018
149 0.00198
159 0.001994
171 0.001998
176 0.001997
180 0.003991
185 0.004984
188 0.004987
192 0.001991
184 0.003006
138 0.001997
84 0.005018
63 0.005019
61 0.00502
69 0.001994
80 0.004976
99 0.001997
118 0.002992
128 0.002992
127 0.004987
124 0.004987
129 0.002992
138 0.002959
149 0.002992
159 0.006018
167 0.006015
174 0.002988
182 0.004987
187 0.001994
190 0.002993
192 0.003037
177 0.005984
123 0.005024
67 0.002991
58 0.002027
62 0.002996
70 0.005018
77 0.005033
95 0.002036
118 0.00502
125 0.002986
123 0.002986
124 0.003003
132 0.005984
143 0.004998
158 0.00401
166 0.003984
171 0.003995
175 0.005986
179 0.005946
183 0.002994
188 0.006008
180 0.002987
129 0.002991
73 0.003981
51 0.005999
48 0.005981
54 0.003989
60 0.003981
68 0.003987
82 0.005985
100 0.005983
112 0.002996
111 0.005984
115 0.00299
124 0.003996
135 0.004955
145 0.007014
154 0.006998
162 0.00399
168 0.003988
173 0.003989
176 0.005978
180 0.006002
157 0.006034
98 0.006015
50 0.003955
42 0.004991
43 0.003998
48 0.007014
52 0.006947
64 0.004994
82 0.003964
98 0.003983
104 0.006979
104 0.006986
111 0.004984
120 0.005984
131 0.006017
145 0.004986
153 0.004983
159 0.004954
165 0.006979
170 0.006981
176 0.003944
179 0.004983
164 0.00499
109 0.007
50 0.004023
43 0.006981
44 0.006017
50 0.005014
55 0.004965
66 0.004977
85 0.00697
100 0.006976
104 0.004986
105 0.00499
110 0.004985
118 0.006979
137 0.004996
148 0.007019
156 0.007979
166 0.005984
171 0.004986
177 0.005019
181 0.007977
185 0.007976
166 0.004986
109 0.005984
67 0.005991
52 0.006986
53 0.005953
58 0.007979
64 0.00798
79 0.005954
98 0.005953
110 0.005988
111 0.007975
113 0.007971
118 0.005976
128 0.004982
139 0.004985
153 0.007976
163 0.004986
170 0.007971
175 0.007975
179 0.005989
183 0.003989
187 0.00599
178 0.007971
131 0.007984
72 0.005978
58 0.003981
58 0.004947
62 0.007976
75 0.006987
89 0.006953
105 0.00703
114 0.005983
115 0.005995
115 0.006018
123 0.006977
129 0.00797
144 0.005991
154 0.006982
162 0.006979
168 0.005985
179 0.006952
182 0.00698
188 0.005978
192 0.006027
190 0.006964
155 0.006976
86 0.006975
66 0.005987
64 0.006967
68 0.005982
74 0.005982
85 0.006034
115 0.006984
123 0.006952
127 0.007012
126 0.007017
131 0.00698
136 0.006979
151 0.006979
161 0.007014
169 0.007011
176 0.006015
182 0.006977
190 0.005978
194 0.005982
197 0.005984
195 0.006003
159 0.005983
89 0.006946
74 0.006982
70 0.006979
78 0.006983
86 0.007015
101 0.006951
121 0.006975
139 0.005983
137 0.005998
135 0.005996
138 0.005985
146 0.006022
159 0.005973
168 0.005971
174 0.005984
179 0.006983
184 0.005986
190 0.005983
193 0.005943
197 0.005991
175 0.005982
115 0.005979
72 0.006018
59 0.00602
62 0.005986
67 0.005984
73 0.00598
84 0.006017
103 0.006018
122 0.004986
124 0.004975
124 0.004982
130 0.006004
139 0.005985
150 0.005982
159 0.006011
168 0.005983
173 0.00598
176 0.005976
183 0.005023
187 0.005019
188 0.004981
163 0.004987
85 0.00502
52 0.004954
49 0.004957
53 0.005938
58 0.005984
63 0.004991
80 0.004986
100 0.005019
112 0.005019
114 0.005022
114 0.005022
121 0.004934
134 0.004989
148 0.004953
157 0.005953
163 0.00399
170 0.00402
175 0.004988
181 0.003989
185 0.004019
182 0.005026
143 0.004982
84 0.005108
50 0.004986
46 0.005018
51 0.005019
56 0.004996
63 0.004956
79 0.004987
97 0.004021
107 0.004004
107 0.00399
109 0.003991
116 0.003989
126 0.003961
140 0.003958
152 0.00396
161 0.004988
167 0.004955
172 0.004988
176 0.003989
180 0.005018
168 0.004036
117 0.004013
71 0.003982
53 0.003992
51 0.004023
55 0.004027
62 0.004048
77 0.003995
95 0.00399
109 0.004028
112 0.003991
113 0.004047
118 0.004022
126 0.002998
138 0.003991
149 0.003037
157 0.004024
166 0.004023
173 0.004053
179 0.004036
183 0.003991
186 0.004044
177 0.004026
128 0.00404
71 0.003003
59 0.002957
59 0.003029
63 0.002992
68 0.003003
87 0.003027
106 0.003024
118 0.003045
121 0.003038
121 0.003037
126 0.002998
136 0.003024
146 0.004003
160 0.00304
168 0.002952
173 0.002992
179 0.002992
187 0.003044
191 0.003028
194 0.003056
175 0.002989
120 0.003026
79 0.004035
65 0.003023
66 0.00299
75 0.002004
81 0.001995
94 0.003028
113 0.002991
130 0.003011
128 0.003037
127 0.003028
134 0.002992
144 0.004029
154 0.002992
163 0.001996
169 0.001995
175 0.001996
179 0.001993
183 0.001987
187 0.001995
186 0.002054
150 0.003045
94 0.003036
64 0.001961
63 0.001959
68 0.001997
74 0.00302
82 0.002963
105 0.001971
121 0.001997
127 0.002027
125 0.001993
127 0.001997
136 0.002029
146 0.002027
160 0.003027
167 0.002026
172 0.001996
178 0.002044
183 0.002009
187 0.000986
190 0.001034
179 0.001034
128 0.001022
61 0.001944
54 0.000993
57 0.001961
64 0.001997
70 0.002024
83 0.002032
103 0.002061
116 0.002039
118 0.002028
118 0.001993
122 0.001043
131 0.001036
148 0.000998
157 0.000998
164 0.002032
170 0.001996
176 0.001
181 0.000998
185 0.0011
184 0.001999
152 0.00203
79 0.0
55 0.002023
50 0.0
56 0.0
61 0.000998
70 0.0
86 0.000998
109 0.002028
115 0.000998
114 0.001005
116 0.000997
122 0.000998
136 0.000997
147 0.001003
156 0.000998
166 0.000982
172 0.000997
177 0.000998
181 0.0
184 0.0
161 0.0
103 0.0
64 0.0
50 0.0
50 0.0
54 0.0
64 0.000999
78 0.0
97 0.0
108 0.0
110 0.0
112 0.0
117 0.0
126 0.0
137 0.0
148 0.0
158 0.002025
164 0.0
174 0.0
178 0.002026
183 0.001005
175 0.000965
129 0.000951
79 0.003059
57 0.001004
52 0.0
56 0.0
59 0.0
66 0.002002
80 0.002995
108 0.001995
113 0.002029
114 0.0
118 0.00099
126 0.0
137 0.002993
148 0.002043
160 0.001007
166 0.0
172 0.0
178 0.002031
182 0.003002
188 0.0
180 0.002998
134 0.003025
73 0.0
57 0.0
56 0.0
60 0.003001
65 0.003036
75 0.000992
93 0.0
110 0.0
117 0.001986
117 0.0
120 0.001997
129 0.002026
144 0.0
154 0.0
163 0.0
170 0.002991
175 0.002026
180 0.0
185 0.0
188 0.0
191 0.002039
156 0.0
100 0.002044
68 0.001994
60 0.0
63 0.000952
69 0.0
75 0.002027
87 0.001994
111 0.0
120 0.0
120 0.0
120 0.002939
130 0.0
141 0.002028
152 0.002027
165 0.0
172 0.0
176 0.0
181 0.002029
185 0.002028
190 0.0
193 0.000987
191 0.0
154 0.002025
75 0.001021
64 0.002063
64 0.002046
72 0.001002
78 0.0
90 0.0
108 0.002028
123 0.003044
126 0.0
125 0.000965
129 0.0
137 0.002028
155 0.0
164 0.002035
172 0.002019
180 0.0
184 0.000944
189 0.000976
194 0.002993
198 0.00304
197 0.0
163 0.0
104 0.0
72 0.00299
67 0.0
73 0.002028
81 0.002053
91 0.002044
116 0.002992
131 0.001951
134 0.001973
133 0.002992
134 0.003047
143 0.003004
152 0.001997
167 0.002991
174 0.001976
178 0.002998
183 0.003065
187 0.003024
193 0.002043
196 0.002036
196 0.001996
169 0.003991
111 0.004
70 0.003016
67 0.002961
78 0.001979
86 0.002977
101 0.002996
121 0.003993
133 0.002993
133 0.003013
131 0.001998
133 0.002975
141 0.003024
150 0.00399
162 0.001979
168 0.001993
176 0.002033
181 0.00198
185 0.002037
188 0.003989
191 0.004031
174 0.002
119 0.00299
72 0.001987
56 0.00399
56 0.004047
64 0.002984
70 0.002
93 0.002993
111 0.002993
120 0.001995
118 0.004024
117 0.004023
124 0.002999
134 0.00202
143 0.002003
152 0.003992
159 0.00399
165 0.002992
170 0.002002
177 0.002997
181 0.002007
178 0.002029
141 0.004987
83 0.004987
48 0.001962
44 0.002993
48 0.002982
52 0.00399
58 0.005019
76 0.002997
96 0.002992
109 0.003012
107 0.002037
111 0.002983
118 0.002027
129 0.005021
140 0.006017
151 0.00202
158 0.001984
164 0.002996
170 0.005022
175 0.004984
180 0.001989
169 0.005984
96 0.002977
56 0.002956
43 0.002962
43 0.004987
47 0.00502
54 0.002999
63 0.002978
81 0.002974
99 0.005019
108 0.004989
108 0.002993
113 0.005998
125 0.002967
136 0.003017
147 0.002998
155 0.005943
162 0.004991
170 0.00296
176 0.00296
181 0.002995
184 0.004984
181 0.004994
119 0.004011
59 0.005997
45 0.003993
47 0.002959
51 0.003031
55 0.005985
64 0.005984
89 0.001993
105 0.00299
109 0.003944
110 0.004987
113 0.004983
123 0.003989
139 0.006017
152 0.003991
160 0.003986
166 0.003985
171 0.005983
176 0.005998
183 0.003988
187 0.003996
187 0.003999
157 0.005986
96 0.006014
52 0.006189
50 0.006987
55 0.004036
59 0.00399
67 0.003991
84 0.006015
104 0.006012
116 0.003993
115 0.003995
117 0.004016
124 0.006
135 0.005991
153 0.006955
162 0.006981
170 0.007014
176 0.004035
180 0.003998
185 0.003991
189 0.006981
193 0.006981
187 0.003993
141 0.003981
84 0.003979
59 0.006982
55 0.003932
59 0.007014
64 0.006982
77 0.003987
97 0.004987
115 0.003976
123 0.006959
125 0.006982
132 0.004977
144 0.004986
159 0.004991
172 0.007
189 0.004949
193 0.007978
191 0.006981
189 0.004987
194 0.005002
198 0.00403
203 0.006982
204 0.007979
155 0.005021
86 0.004983
52 0.005977
44 0.007985
49 0.00602
54 0.007979
62 0.007936
85 0.006058
103 0.004943
111 0.00502
112 0.007974
115 0.007984
123 0.005975
134 0.004965
146 0.005972
158 0.006978
171 0.005846
178 0.007972
180 0.007979
188 0.005956
194 0.005987
201 0.005951
206 0.007985
190 0.007979
107 0.005982
66 0.00501
55 0.004991
57 0.006974
65 0.005991
77 0.00697
97 0.006983
116 0.005987
124 0.005978
124 0.005988
126 0.007979
130 0.007978
143 0.006979
154 0.006948
165 0.005992
175 0.006976
184 0.006976
187 0.006986
191 0.006981
195 0.007015
199 0.005867
203 0.005993
192 0.005995
119 0.006987
75 0.007023
62 0.006963
64 0.005994
73 0.00698
85 0.00698
110 0.006974
128 0.00702
135 0.006973
134 0.006921
134 0.005983
139 0.005984
150 0.006982
160 0.006984
168 0.00501
177 0.005952
185 0.005982
190 0.005953
193 0.006984
198 0.007024
201 0.007011
189 0.006974
157 0.006985
83 0.005981
64 0.006987
65 0.005985
75 0.006003
84 0.005987
111 0.00599
128 0.005982
135 0.005998
134 0.005979
132 0.005986
137 0.00601
146 0.006058
155 0.005949
163 0.005985
171 0.005986
178 0.00595
183 0.005984
190 0.004991
194 0.00695
196 0.005949
184 0.005997
130 0.005979
65 0.005952
53 0.005999
56 0.005949
63 0.005984
70 0.006019
85 0.005958
106 0.005978
125 0.005953
124 0.00599
124 0.005948
128 0.004988
136 0.005026
149 0.004956
158 0.005985
165 0.00499
170 0.005021
175 0.004987
181 0.004951
185 0.005982
189 0.005948
161 0.006
99 0.004955
58 0.004983
46 0.005022
47 0.004991
54 0.004955
60 0.004952
70 0.004974
89 0.005021
107 0.004987
115 0.005022
115 0.004997
122 0.004955
131 0.00395
142 0.003987
151 0.004954
159 0.004992
167 0.00493
172 0.004956
177 0.004951
182 0.005001
184 0.005023
170 0.004986
94 0.004028
48 0.003991
42 0.004949
44 0.004014
49 0.004024
55 0.004046
69 0.003952
89 0.004027
105 0.004026
110 0.004035
110 0.004024
115 0.004024
126 0.005023
141 0.004015
149 0.004954
157 0.003955
163 0.003988
169 0.003973
175 0.003994
179 0.004022
181 0.004007
164 0.004021
109 0.003949
55 0.003986
45 0.004021
50 0.003022
56 0.004053
63 0.004006
78 0.002993
97 0.003023
112 0.00399
112 0.002999
113 0.003021
118 0.002993
128 0.003993
143 0.004003
156 0.004044
164 0.00395
170 0.003988
175 0.004023
179 0.003026
183 0.002972
184 0.002995
150 0.003025
90 0.003031
57 0.004005
48 0.004025
54 0.002961
60 0.003031
68 0.003027
92 0.004036
110 0.003023
117 0.003955
115 0.003063
116 0.003025
125 0.00302
135 0.002016
146 0.002992
155 0.003991
166 0.00307
170 0.004021
174 0.002994
180 0.003993
183 0.004011
182 0.004023
151 0.004025
93 0.004009
54 0.002986
51 0.001996
55 0.00303
61 0.001994
77 0.003047
96 0.002989
113 0.002998
117 0.003033
116 0.003046
119 0.002996
126 0.001996
137 0.002032
151 0.002029
159 0.002009
165 0.001962
171 0.001961
179 0.001996
183 0.00203
186 0.002034
179 0.001996
133 0.001981
80 0.002028
59 0.002001
56 0.001996
64 0.001018
71 0.000999
81 0.002048
99 0.002031
123 0.001996
123 0.000998
122 0.002037
127 0.002004
136 0.00203
146 0.001996
155 0.002003
163 0.000999
170 0.002035
174 0.001996
179 0.001956
183 0.001988
188 0.000964
174 0.000999
124 0.002028
70 0.002043
62 0.002055
65 0.00205
73 0.002053
81 0.002012
96 0.001996
121 0.000998
131 0.001997
129 0.001
129 0.000999
136 0.000998
145 0.000997
155 0.001006
166 0.00098
173 0.000997
178 0.002
183 0.002028
187 0.001037
190 0.000998
190 0.000998
165 0.0
75 0.0
56 0.0
55 0.0
62 0.0
71 0.000998
82 0.0
102 0.0
119 0.000991
123 0.001001
120 0.001003
123 0.001006
131 0.001044
149 0.001011
158 0.0
165 0.0
170 0.0
175 0.0
178 0.0
180 0.0
183 0.0
174 0.0
105 0.0
61 0.0
46 0.000998
49 0.000998
53 0.000997
59 0.000997
77 0.000994
95 0.0
105 0.0
105 0.0
106 0.0
113 0.000954
123 0.002031
134 0.003025
150 0.00299
156 0.003039
165 0.001966
171 0.000958
177 0.0
181 0.001153
178 0.003039
119 0.000964
67 0.000951
47 0.0
44 0.003034
47 0.002987
55 0.00299
64 0.003027
81 0.003028
101 0.00099
105 0.000991
105 0.000995
108 0.002033
116 0.002038
131 0.000997
142 0.0
151 0.0
158 0.003024
166 0.0
168 0.00304
170 0.002996
169 0.0
138 0.0
85 0.000953
56 0.003019
47 0.003023
50 0.000965
55 0.0
61 0.000996
72 0.002037
99 0.000999
106 0.002042
105 0.002027
107 0.000969
114 0.000993
124 0.001031
134 0.002028
144 0.002999
154 0.0
160 0.0
165 0.0
170 0.003027
176 0.0
168 0.002035
122 0.002026
70 0.0
57 0.000949
56 0.0
61 0.00203
66 0.002024
78 0.0
94 0.0
107 0.0
111 0.002029
111 0.000953
115 0.003022
124 0.001992
138 0.001003
148 0.0
156 0.000997
162 0.002993
168 0.003028
175 0.0
179 0.0
183 0.0
178 0.003023
104 0.000967
72 0.003196
64 0.003024
68 0.0
74 0.000937
81 0.001039
95 0.002033
112 0.002023
124 0.001969
123 0.000994
122 0.0
126 0.002992
142 0.0
153 0.0
163 0.002992
170 0.002993
177 0.0
182 0.0
186 0.00199
190 0.003028
192 0.004021
167 0.001982
111 0.002993
76 0.002992
68 0.00302
74 0.0
82 0.003035
92 0.003061
117 0.0
131 0.003003
132 0.002994
129 0.00399
130 0.004003
138 0.000998
148 0.000977
163 0.000967
170 0.002995
175 0.0
180 0.002992
184 0.002943
189 0.002022
191 0.002993
175 0.002987
120 0.002986
75 0.003988
59 0.002022
61 0.002026
70 0.00299
78 0.003006
93 0.003032
112 0.00399
121 0.00399
120 0.002572
120 0.001999
125 0.002004
135 0.003989
146 0.004021
158 0.003009
164 0.002992
174 0.001999
178 0.002993
183 0.003
186 0.004949
174 0.005008
101 0.002991
65 0.002973
53 0.002974
55 0.005028
59 0.00499
65 0.00395
76 0.002978
107 0.001996
117 0.001999
117 0.001991
117 0.005021
121 0.005022
133 0.001996
145 0.002008
156 0.00198
166 0.005021
176 0.004986
188 0.001995
192 0.002995
191 0.002997
163 0.002937
102 0.002999
62 0.002988
48 0.00502
48 0.00502
54 0.004
58 0.003033
67 0.002963
84 0.005022
101 0.004972
109 0.002993
110 0.00503
116 0.003005
125 0.003005
135 0.002976
143 0.004985
149 0.004986
157 0.002991
162 0.002993
166 0.002994
171 0.006017
173 0.006016
139 0.002969
74 0.004988
48 0.002999
46 0.002026
49 0.003981
52 0.006045
58 0.005985
77 0.001994
94 0.002998
102 0.003973
102 0.00599
103 0.006019
112 0.004028
126 0.005987
140 0.001994
148 0.002992
154 0.002975
160 0.005985
166 0.006019
172 0.002028
176 0.002991
174 0.002959
137 0.005984
86 0.005984
56 0.00403
52 0.005978
56 0.002945
60 0.004005
69 0.004082
87 0.005985
102 0.005984
107 0.002984
107 0.00305
111 0.003007
118 0.005984
129 0.006019
147 0.006005
155 0.006949
163 0.003997
168 0.003991
173 0.003987
178 0.007016
182 0.007013
179 0.004011
139 0.003023
89 0.003989
64 0.007014
58 0.006027
62 0.005993
67 0.005984
80 0.003949
97 0.004051
111 0.004987
116 0.003974
115 0.006981
117 0.006984
127 0.005021
137 0.003971
147 0.003992
156 0.007008
168 0.003986
174 0.006981
178 0.006981
185 0.003945
189 0.004971
192 0.003973
159 0.007975
105 0.007976
75 0.004992
67 0.004977
69 0.004972
77 0.007978
88 0.004978
105 0.007946
125 0.007976
128 0.00497
126 0.004979
127 0.00499
133 0.007014
143 0.007018
157 0.003989
167 0.00395
173 0.002976
178 0.007008
185 0.003002
190 0.007958
191 0.00798
192 0.004986
169 0.004971
114 0.004976
80 0.007978
69 0.007982
74 0.004977
79 0.005952
86 0.005034
99 0.007014
126 0.004969
129 0.007974
127 0.007978
128 0.005929
135 0.006966
145 0.005021
159 0.007975
167 0.007951
173 0.005979
178 0.004978
183 0.005008
187 0.007009
191 0.004988
190 0.006985
155 0.007018
99 0.005973
71 0.004975
64 0.004984
68 0.00796
74 0.007015
80 0.005982
92 0.005946
109 0.005957
124 0.00702
124 0.006011
126 0.007986
132 0.00697
142 0.005995
153 0.005985
163 0.005974
171 0.007025
177 0.006986
182 0.005022
186 0.005983
189 0.004989
192 0.007981
161 0.005977
103 0.007962
65 0.007002
60 0.006945
65 0.006946
68 0.005975
74 0.006036
90 0.006947
107 0.006955
118 0.005984
121 0.005995
120 0.005988
129 0.005978
138 0.00598
153 0.006983
163 0.006017
169 0.005979
177 0.006006
181 0.005996
185 0.005983
188 0.006023
192 0.006973
162 0.006965
89 0.006015
64 0.005992
59 0.005986
63 0.006976
69 0.005979
78 0.005966
93 0.00599
111 0.005987
120 0.006009
120 0.006019
121 0.005987
127 0.005987
144 0.005987
155 0.005987
163 0.005985
170 0.006982
175 0.006027
181 0.006
186 0.006008
190 0.005991
192 0.006029
168 0.005986
92 0.005979
71 0.005951
59 0.005992
63 0.005979
69 0.005987
76 0.005018
91 0.005939
115 0.004989
121 0.00599
120 0.005966
121 0.005985
127 0.006018
139 0.006941
150 0.006017
166 0.004949
172 0.005988
176 0.005988
181 0.005021
185 0.005043
190 0.004956
189 0.004991
156 0.004949
98 0.005984
67 0.004989
59 0.004989
62 0.005004
71 0.004985
81 0.003988
98 0.003988
115 0.006002
124 0.004974
124 0.004947
126 0.00494
133 0.005005
143 0.004999
153 0.005031
162 0.004936
171 0.004988
177 0.004987
184 0.004959
187 0.004984
191 0.004987
194 0.004002
178 0.00405
104 0.005006
70 0.004955
60 0.004951
62 0.005022
68 0.005028
77 0.004939
94 0.005021
114 0.004988
120 0.004995
119 0.003966
119 0.004028
125 0.003988
139 0.004012
149 0.004999
159 0.00399
167 0.003999
172 0.003989
177 0.003989
184 0.004954
189 0.00396
192 0.00499
185 0.003975
141 0.004025
88 0.004001
65 0.00396
66 0.00399
71 0.004024
77 0.004005
82 0.004026
101 0.00399
122 0.003989
125 0.003989
124 0.003989
128 0.003988
136 0.00303
147 0.003034
162 0.00399
169 0.002999
175 0.004024
179 0.003026
183 0.003999
190 0.003989
193 0.003989
193 0.003993
156 0.002989
97 0.003952
68 0.00399
61 0.003989
66 0.004031
72 0.00303
79 0.002995
93 0.003067
111 0.004033
122 0.003033
120 0.002992
124 0.002982
132 0.002989
142 0.003951
153 0.00403
163 0.002994
169 0.003024
176 0.003024
181 0.002996
185 0.004038
188 0.002997
191 0.002954
166 0.003006
110 0.003028
68 0.002957
64 0.002029
69 0.004028
76 0.00302
83 0.002042
104 0.002953
121 0.003021
130 0.002991
130 0.002993
130 0.002994
137 0.002987
147 0.002994
160 0.003022
168 0.002989
173 0.002997
178 0.002992
183 0.001995
188 0.003027
191 0.001995
192 0.001994
167 0.002027
81 0.001997
65 0.002005
66 0.001995
76 0.002013
84 0.001958
98 0.002005
117 0.002019
131 0.001993
132 0.002961
129 0.001999
131 0.00201
139 0.00203
154 0.00203
161 0.002035
167 0.001995
173 0.002028
177 0.001991
181 0.002026
184 0.001996
187 0.003031
152 0.002003
94 0.00204
63 0.002002
56 0.002026
64 0.00196
70 0.001995
78 0.00203
99 0.002028
112 0.001992
116 0.002029
114 0.001996
116 0.001996
128 0.00197
140 0.001986
151 0.000997
159 0.001995
165 0.000997
168 0.002027
172 0.002024
177 0.001989
178 0.002031
151 0.002993
93 0.002037
57 0.001996
46 0.001006
49 0.002036
54 0.002026
59 0.001954
81 0.002001
100 0.001004
110 0.002006
110 0.0
111 0.000967
118 0.0
128 0.0
138 0.000998
148 0.000997
157 0.000997
163 0.001003
170 0.000998
179 0.0
183 0.000956
168 0.000997
111 0.0
55 0.0
45 0.0
46 0.0
50 0.0
56 0.0
68 0.001012
87 0.001013
111 0.000961
112 0.00096
113 0.000999
117 0.0
125 0.0
139 0.0
149 0.0
156 0.0
162 0.0
169 0.0
176 0.0
181 0.000997
177 0.001002
130 0.0
76 0.0
50 0.0
49 0.0
54 0.0
60 0.0
67 0.0
89 0.0
108 0.000998
118 0.000998
118 0.002992
121 0.003031
130 0.0
146 0.000998
157 0.0
166 0.0
173 0.0
179 0.002029
186 0.001004
189 0.001
192 0.0
190 0.002993
155 0.003023
66 0.000998
51 0.003023
52 0.0
58 0.0
64 0.0
73 0.003023
91 0.003023
114 0.0
120 0.000982
119 0.000955
120 0.002989
127 0.004987
146 0.000999
157 0.002992
166 0.002992
174 0.000997
