125 0.031961
125 0.001012
131 0.00195
143 0.002987
136 0.002955
88 0.002971
61 0.002991
65 0.002991
72 0.002992
80 0.002992
87 0.00301
96 0.002997
95 0.003952
94 0.004987
96 0.004987
100 0.004987
113 0.004957
123 0.006983
128 0.007023
135 0.006982
107 0.006953
64 0.007948
53 0.007994
63 0.007981
68 0.007923
85 0.007976
95 0.007937
94 0.00798
94 0.004986
100 0.006014
110 0.004966
114 0.006032
123 0.004986
129 0.004037
134 0.002991
107 0.001996
65 0.001036
58 0.001005
65 0.001007
77 0.000998
84 0.000992
90 0.000998
90 0.001
85 0.001036
90 0.000998
97 0.000999
113 0.00101
121 0.001002
135 0.001032
148 0.0
131 0.000987
88 0.000997
54 0.000998
60 0.000966
70 0.001995
85 0.00296
94 0.00296
101 0.002993
99 0.002963
104 0.002975
117 0.002996
126 0.00296
135 0.003052
143 0.00296
150 0.003988
91 0.003954
58 0.003954
56 0.003958
62 0.003953
77 0.003991
100 0.003969
111 0.003991
109 0.00395
105 0.003956
110 0.004957
118 0.004954
129 0.006021
141 0.006983
152 0.007018
148 0.006951
85 0.006976
53 0.006015
56 0.005945
66 0.005983
82 0.005018
89 0.004011
94 0.003157
89 0.002992
94 0.001994
108 0.001996
119 0.001995
133 0.000997
140 0.0
147 0.000985
157 0.002959
128 0.003959
73 0.00396
67 0.003951
73 0.003962
83 0.003869
110 0.003962
127 0.004986
128 0.005985
129 0.006943
134 0.006981
148 0.007027
159 0.007006
163 0.00697
176 0.007012
180 0.007978
189 0.006028
198 0.006977
155 0.005965
102 0.007012
95 0.007029
104 0.007018
105 0.006981
118 0.005975
133 0.004976
134 0.003888
132 0.00402
148 0.003135
158 0.002992
168 0.001984
181 0.000998
187 0.0
195 0.0
204 0.001995
210 0.001995
215 0.001966
204 0.001995
134 0.002032
114 0.002007
118 0.002976
129 0.002935
135 0.002962
147 0.002951
147 0.002984
128 0.002929
121 0.002961
135 0.002963
154 0.003985
161 0.004959
171 0.005983
164 0.006982
152 0.007943
152 0.006969
161 0.00701
164 0.006966
150 0.007015
95 0.006024
65 0.006987
67 0.005984
79 0.006019
94 0.006016
109 0.005984
105 0.00403
97 0.004032
97 0.003036
103 0.004013
117 0.002993
122 0.000955
141 0.00199
149 0.0
159 0.0
156 0.0
94 0.0
63 0.0
64 0.0
77 0.0
79 0.00299
95 0.004018
109 0.003954
111 0.004029
112 0.004025
121 0.004992
138 0.005019
149 0.005018
158 0.004878
163 0.005054
169 0.004946
171 0.004984
184 0.005994
174 0.00585
108 0.006048
84 0.005984
89 0.005984
98 0.006983
101 0.006979
107 0.007015
113 0.006981
109 0.004986
109 0.003993
121 0.002107
138 0.002991
142 0.001996
144 0.002044
145 0.000996
158 0.000998
168 0.0
174 0.000994
168 0.001995
109 0.001995
73 0.001996
74 0.002002
78 0.003685
76 0.004025
89 0.004044
93 0.005035
89 0.005997
81 0.00603
84 0.005984
97 0.005985
105 0.005984
109 0.005985
118 0.005821
126 0.00698
134 0.007039
139 0.006983
142 0.007022
131 0.007027
62 0.007026
46 0.007013
47 0.006982
54 0.006024
60 0.004985
73 0.004991
79 0.004987
75 0.00501
81 0.00303
90 0.003026
108 0.002029
125 0.0
126 0.002032
139 0.001101
146 0.0
155 0.000999
144 0.0
101 0.0
62 0.000997
63 0.000998
69 0.000998
76 0.000997
91 0.001994
95 0.001996
95 0.001993
96 0.001995
107 0.001996
117 0.001991
129 0.001961
139 0.002014
149 0.002008
159 0.002967
168 0.004021
175 0.00399
159 0.00399
85 0.004025
65 0.003994
61 0.007978
65 0.007014
62 0.007012
77 0.00601
84 0.006987
81 0.006018
78 0.007015
83 0.006012
93 0.005984
104 0.005985
108 0.005984
115 0.006013
122 0.005033
132 0.004986
140 0.004027
147 0.00503
101 0.004024
39 0.003031
33 0.002025
37 0.00199
31 0.002005
36 0.00203
46 0.002027
44 0.000978
42 0.001031
44 0.000991
88 0.001994
93 0.001008
107 0.000997
114 0.00097
112 0.000966
55 0.000998
10 0.000997
14 0.0
17 0.0
17 0.0
28 0.0
32 0.000992
30 0.0
31 0.0
34 0.0
45 0.001985
61 0.001996
66 0.003016
75 0.004987
89 0.006018
96 0.005973
107 0.005989
90 0.005986
27 0.005895
12 0.007021
20 0.006985
19 0.007016
31 0.007984
38 0.006981
41 0.007014
35 0.006982
39 0.006982
47 0.006023
48 0.007011
41 0.006019
50 0.005021
57 0.004018
64 0.004016
71 0.004172
87 0.003952
37 0.003029
4 0.002995
0 0.003989
8 0.002992
9 0.002999
21 0.003028
28 0.002959
33 0.000995
33 0.0
41 0.001
55 0.0
63 0.000988
71 0.001995
79 0.001995
88 0.002029
91 0.001995
99 0.002977
99 0.004988
62 0.004979
0 0.005023
0 0.005897
0 0.005953
0 0.006017
3 0.006019
10 0.005985
2 0.007944
60 0.006961
63 0.006971
65 0.007015
71 0.007017
79 0.006981
82 0.007107
88 0.007015
95 0.006019
100 0.007012
108 0.006018
98 0.006018
62 0.004991
58 0.005045
63 0.005021
70 0.004047
80 0.002029
86 0.002026
85 0.00199
84 0.002026
90 0.002029
96 0.002992
105 0.002032
110 0.001996
114 0.001975
122 0.002031
129 0.0
135 0.00096
141 0.0
120 0.0
96 0.0
96 0.0
101 0.001995
100 0.001995
107 0.003019
116 0.00498
116 0.004994
115 0.005037
118 0.004999
126 0.005024
133 0.004986
137 0.004953
143 0.005027
147 0.006978
149 0.006983
150 0.007016
154 0.007014
161 0.007971
150 0.00797
128 0.007979
113 0.007979
114 0.006981
118 0.007975
121 0.007975
126 0.007978
129 0.007984
127 0.006951
130 0.005954
133 0.005019
136 0.005021
140 0.005023
145 0.00502
146 0.005019
149 0.004983
156 0.003036
162 0.001032
169 0.000998
169 0.001
156 0.014918
124 0.000999
124 0.000999
131 0.0
134 0.0
141 0.0
147 0.0
146 0.000998
146 0.001032
152 0.000998
157 0.001034
163 0.001013
169 0.000997
173 0.000997
178 0.001002
178 0.000984
180 0.000997
173 0.003991
153 0.004024
135 0.006022
138 0.006983
137 0.006978
137 0.007015
144 0.006977
145 0.005984
143 0.006981
145 0.007016
146 0.00702
152 0.007069
158 0.004029
162 0.003974
194 0.002992
197 0.003989
202 0.002978
210 0.003261
215 0.002993
181 0.003042
137 0.003025
115 0.003033
118 0.002995
118 0.003119
121 0.003023
132 0.002985
136 0.002988
137 0.003031
139 0.002018
146 0.003
156 0.002992
162 0.003031
168 0.003026
172 0.003028
176 0.002994
174 0.001029
173 0.001039
177 0.001001
187 0.0
177 0.0
112 0.0
91 0.0
89 0.000901
92 0.001993
91 0.001987
106 0.001995
108 0.001954
105 0.00196
107 0.000965
110 0.002039
119 0.001009
128 0.002955
134 0.003997
139 0.004027
144 0.004997
147 0.00497
152 0.005029
157 0.005019
160 0.00602
112 0.005981
84 0.007002
80 0.007018
91 0.006973
93 0.007014
103 0.007014
114 0.00596
114 0.004025
117 0.003974
123 0.004032
137 0.004005
149 0.005029
153 0.003977
162 0.004986
169 0.004989
171 0.002999
182 0.002996
184 0.00203
129 0.001993
99 0.001993
99 0.001032
104 0.0
106 0.001004
114 0.001006
120 0.000981
116 0.001007
122 0.001041
132 0.001004
137 0.001996
144 0.002015
149 0.002993
151 0.004023
158 0.004004
171 0.004028
175 0.005036
139 0.005009
95 0.004985
58 0.005018
49 0.005016
41 0.005991
40 0.005819
50 0.00698
57 0.007014
51 0.007015
49 0.007971
52 0.006945
65 0.004998
77 0.003026
79 0.002029
86 0.001027
88 0.000995
87 0.00099
77 0.001007
78 0.000959
38 0.000963
0 0.001032
0 0.000996
5 0.000912
6 0.000998
10 0.000927
23 0.002992
18 0.004024
16 0.004984
20 0.003991
30 0.004995
41 0.005022
49 0.006022
49 0.00701
53 0.006973
62 0.007013
66 0.007011
69 0.006017
54 0.005974
19 0.006013
0 0.004972
0 0.005018
1 0.005
9 0.005985
20 0.005062
21 0.005983
16 0.005015
17 0.005984
32 0.003974
42 0.004026
52 0.003956
63 0.003002
71 0.001986
82 0.000971
96 0.0
102 0.0
82 0.0
49 0.0
32 0.0
29 0.000997
25 0.0
29 0.0
44 0.001995
43 0.003995
44 0.006071
62 0.005987
73 0.00598
92 0.006024
101 0.006994
113 0.007016
117 0.007017
123 0.005982
126 0.005007
132 0.004025
142 0.000952
137 0.000988
89 0.001002
55 0.002985
52 0.002991
48 0.002988
53 0.004021
65 0.00403
73 0.00402
70 0.004012
72 0.004003
80 0.002945
86 0.003996
96 0.005025
100 0.005025
106 0.005018
115 0.005013
123 0.00503
130 0.00504
129 0.004985
139 0.006
143 0.006016
114 0.006016
71 0.007975
55 0.007974
55 0.006981
56 0.00697
63 0.00599
72 0.007023
75 0.005984
73 0.00699
83 0.004018
94 0.001999
105 0.001965
113 0.003038
122 0.002001
129 0.002039
140 0.001992
147 0.001996
153 0.002026
162 0.001997
171 0.001994
169 0.002027
116 0.000995
100 0.001995
105 0.001004
109 0.000985
112 0.0
131 0.000825
134 0.0
131 0.0
134 0.0
141 0.0
153 0.001997
159 0.001995
164 0.002992
172 0.005027
184 0.005018
192 0.005018
199 0.004033
204 0.005018
207 0.007026
212 0.007979
209 0.005986
164 0.005985
119 0.005991
121 0.005988
116 0.005022
113 0.002987
116 0.003983
117 0.001059
114 0.001991
112 0.001008
117 0.000976
119 0.000999
125 0.001
132 0.000992
138 0.000994
146 0.0
143 0.001017
145 0.0
146 0.000986
150 0.0
155 0.001
123 0.000996
86 0.001009
63 0.001011
67 0.001995
66 0.003027
68 0.002996
80 0.004034
80 0.005019
75 0.006031
75 0.006017
78 0.006977
84 0.007031
90 0.006989
100 0.007016
111 0.006976
112 0.006025
114 0.005968
125 0.004996
131 0.003001
98 0.001995
54 0.002993
49 0.002001
55 0.002994
58 0.001063
65 0.001986
81 0.001995
80 0.002037
80 0.001995
84 0.002194
98 0.001983
110 0.000998
116 0.001995
126 0.001012
135 0.000998
138 0.000998
147 0.001041
151 0.001009
164 0.000993
166 0.001008
136 0.000998
81 0.000998
74 0.000998
73 0.000998
73 0.001002
77 0.000996
89 0.001995
89 0.000998
86 0.001995
85 0.002004
93 0.001989
99 0.001996
106 0.00199
112 0.002013
117 0.001995
119 0.002031
125 0.002028
132 0.001995
135 0.001995
143 0.002993
114 0.002986
72 0.003025
41 0.003029
41 0.002993
34 0.003019
29 0.004024
35 0.005018
38 0.004985
34 0.004977
33 0.004988
39 0.006018
44 0.007978
51 0.00798
58 0.007947
63 0.007951
72 0.007976
75 0.006017
77 0.006982
83 0.003973
89 0.004013
93 0.004025
50 0.003993
16 0.004034
1 0.004022
4 0.003025
1 0.00203
8 0.001016
20 0.001033
21 0.0
22 0.000998
31 0.0
36 0.000998
44 0.000968
49 0.001
61 0.001913
71 0.001995
78 0.003029
84 0.003989
95 0.003994
100 0.003963
54 0.00498
14 0.00602
13 0.006022
16 0.005983
18 0.005988
27 0.006029
38 0.005984
38 0.005986
37 0.005878
40 0.006981
52 0.005984
63 0.007974
73 0.007022
87 0.005986
97 0.00599
105 0.003992
117 0.003989
134 0.003993
140 0.00398
151 0.002024
98 0.000995
64 0.0
50 0.000998
54 0.0
51 0.001038
51 0.001996
61 0.003037
61 0.004026
62 0.004987
68 0.006017
73 0.006
85 0.005992
93 0.005975
104 0.005985
110 0.005951
113 0.006981
125 0.007978
133 0.005984
142 0.002991
151 0.000997
161 0.0
137 0.001034
82 0.0
51 0.0
47 0.0
39 0.0
36 0.0
46 0.0
42 0.0
38 0.0
39 0.0
46 0.001001
55 0.000997
68 0.00103
72 0.001997
81 0.002999
96 0.003002
104 0.002955
122 0.002992
137 0.002959
150 0.004985
140 0.005012
81 0.005025
65 0.004913
68 0.006997
74 0.007988
77 0.007019
92 0.006951
101 0.007968
99 0.005983
103 0.004996
112 0.004987
128 0.002983
142 0.003022
151 0.002991
161 0.003013
169 0.003017
185 0.002039
195 0.003004
203 0.002033
216 0.001051
223 0.001035
190 0.000999
127 0.0
114 0.000998
114 0.000997
109 0.000997
111 0.00203
119 0.003961
122 0.006021
122 0.005026
130 0.005984
138 0.0059
146 0.005994
157 0.006015
166 0.005984
169 0.005985
175 0.006023
179 0.006019
190 0.006973
196 0.007979
199 0.007015
208 0.005958
219 0.005078
215 0.005018
143 0.005027
88 0.002994
81 0.002992
74 0.002031
69 0.000997
72 0.0
77 0.0
74 0.000997
75 0.0
76 0.000996
82 0.000997
97 0.001045
101 0.0
110 0.000997
117 0.001997
122 0.001962
132 0.002027
144 0.001996
152 0.001989
174 0.00201
171 0.001797
103 0.002993
70 0.001992
73 0.003954
75 0.005028
78 0.004983
87 0.005026
93 0.004987
94 0.005026
98 0.005024
108 0.004993
122 0.004996
141 0.005024
157 0.005987
168 0.006985
181 0.006964
199 0.00617
207 0.005002
225 0.005018
232 0.005021
185 0.003026
137 0.002035
120 0.001959
118 0.0
117 0.002993
122 0.001995
136 0.002999
136 0.003024
138 0.004023
146 0.006048
158 0.007942
170 0.006987
180 0.007977
186 0.007019
200 0.004986
212 0.002997
221 0.003027
234 0.002024
242 0.000997
255 0.002007
253 0.000998
178 0.001997
129 0.001994
115 0.000953
102 0.000997
89 0.000998
93 0.000999
106 0.001025
107 0.000995
101 0.001995
110 0.002987
121 0.002997
127 0.00303
138 0.002977
146 0.002993
156 0.002996
163 0.004015
174 0.004023
185 0.004976
191 0.005985
202 0.006017
213 0.005986
190 0.005986
104 0.006018
67 0.007976
56 0.006981
46 0.007979
35 0.005965
41 0.006981
51 0.006018
48 0.006019
47 0.005988
57 0.005021
65 0.006025
81 0.004022
94 0.002963
104 0.002971
121 0.003026
131 0.002027
149 0.001001
168 0.001032
178 0.0
192 0.0
152 0.000995
91 0.0
72 0.000998
72 0.0
70 0.001
83 0.000997
99 0.000998
104 0.001007
107 0.0
122 0.0
136 0.0
153 0.0
172 0.000991
190 0.001011
201 0.000998
216 0.002995
228 0.003839
234 0.004024
194 0.004999
199 0.005007
195 0.004997
149 0.004989
130 0.004987
121 0.005028
119 0.005027
115 0.005016
125 0.004987
129 0.005017
128 0.005019
131 0.005982
137 0.006981
145 0.007979
152 0.006987
160 0.005978
166 0.006015
170 0.005984
175 0.003987
182 0.003023
186 0.003989
190 0.002198
199 0.001995
200 0.002995
161 0.002032
133 0.002024
114 0.001999
109 0.002008
104 0.002031
107 0.000982
112 0.001998
112 0.002005
110 0.001996
112 0.002028
118 0.001986
124 0.000997
128 0.001031
133 0.0
137 0.0
140 0.0
144 0.0
147 0.0
151 0.000965
157 0.001021
162 0.000998
156 0.001001
129 0.001001
89 0.001009
79 0.00196
79 0.001998
76 0.001994
87 0.002028
88 0.002025
89 0.001993
92 0.001988
101 0.001995
107 0.001976
111 0.002962
114 0.003026
120 0.004989
124 0.004986
134 0.005016
138 0.006026
142 0.007011
143 0.006017
138 0.007015
98 0.005979
72 0.00401
69 0.003025
71 0.002026
80 0.001995
86 0.002006
90 0.000977
89 0.001988
92 0.000997
98 0.001995
112 0.000997
137 0.001995
159 0.001993
172 0.001994
187 0.001974
196 0.002026
216 0.002012
234 0.0
240 0.000997
222 0.000854
192 0.000998
188 0.000997
188 0.001991
180 0.004023
182 0.005021
187 0.004987
185 0.004956
185 0.004971
193 0.005022
198 0.00502
206 0.007037
210 0.006979
214 0.004986
224 0.005006
126 0.005984
226 0.004983
205 0.005985
181 0.006016
181 0.005984
186 0.003976
185 0.003985
195 0.003992
199 0.001997
193 0.003013
190 0.002002
204 0.001998
210 0.001997
220 0.001982
225 0.000997
228 0.0
227 0.000997
235 0.000972
187 0.001003
186 0.002026
174 0.000997
160 0.0
157 0.0
152 0.0
148 0.0
152 0.0
155 0.0
154 0.0
152 0.0
152 0.0
153 0.0
161 0.0
161 0.001997
163 0.001964
166 0.002992
169 0.005979
170 0.005984
171 0.005984
172 0.005854
175 0.006017
180 0.005984
183 0.005978
188 0.006983
191 0.007979
195 0.00602
199 0.006017
203 0.004985
201 0.00498
179 0.005026
168 0.005088
164 0.004986
162 0.003005
160 0.003029
162 0.001994
163 0.002024
161 0.000988
160 0.0
162 0.0
164 0.0
166 0.0
168 0.000998
171 0.00197
175 0.00203
176 0.001995
179 0.001984
182 0.001994
184 0.002034
187 0.002004
255 0.002028
255 0.003009
255 0.003004
209 0.002994
211 0.004993
214 0.005986
211 0.005984
188 0.006016
181 0.007003
184 0.007963
184 0.006013
183 0.005025
185 0.004993
189 0.003992
188 0.00398
187 0.004025
191 0.00399
194 0.002991
198 0.001996
201 0.001151
203 0.0
206 0.0
208 0.0
210 0.0
214 0.0
216 0.0
220 0.001007
222 0.0
224 0.002013
226 0.002006
229 0.000997
223 0.001995
201 0.001005
198 0.001962
200 0.00202
201 0.003011
200 0.003015
203 0.005019
205 0.00502
205 0.005017
205 0.005027
207 0.005018
210 0.005018
212 0.006013
212 0.006983
213 0.007943
215 0.007979
215 0.007978
217 0.007979
218 0.007979
219 0.006963
220 0.005024
221 0.004987
255 0.00297
255 0.002998
253 0.002994
255 0.002991
191 0.002991
180 0.002183
171 0.003025
172 0.00303
175 0.002995
174 0.00399
175 0.00303
176 0.003986
176 0.001995
175 0.004193
176 0.002028
176 0.001046
177 0.001
178 0.0
178 0.00103
178 0.000968
179 0.002013
179 0.000999
179 0.001001
179 0.000997
179 0.000993
180 0.001996
180 0.002027
180 0.003009
180 0.002993
180 0.005017
179 0.006002
168 0.006976
159 0.007005
156 0.006981
158 0.006981
160 0.007018
159 0.007966
161 0.005982
162 0.006981
161 0.006978
161 0.005988
162 0.004022
164 0.002993
165 0.00399
166 0.003003
166 0.003007
167 0.000996
168 0.001991
169 0.001985
170 0.001946
171 0.002
171 0.000997
171 0.0
172 0.000998
172 0.001995
255 0.004035
255 0.005984
233 0.005956
239 0.007032
194 0.007034
191 0.007019
193 0.006976
196 0.00698
194 0.00701
193 0.00698
194 0.007053
196 0.007007
195 0.007979
196 0.005971
195 0.005983
195 0.004985
195 0.004023
196 0.002939
197 0.002983
198 0.001998
196 0.001947
198 0.001996
199 0.002026
201 0.001
203 0.000999
182 0.001136
161 0.001006
146 0.002029
148 0.0
146 0.001992
141 0.000998
144 0.001828
144 0.001957
138 0.001995
136 0.00203
135 0.001996
137 0.002024
136 0.003991
139 0.003985
138 0.004032
135 0.003991
127 0.003942
124 0.004027
121 0.005006
110 0.006014
104 0.006015
91 0.006991
85 0.007019
77 0.005984
69 0.005984
32 0.004987
16 0.004987
12 0.004983
11 0.002028
4 0.005004
4 0.002028
7 0.003989
2 0.001966
0 0.001999
0 0.002
0 0.001992
0 0.001999
6 0.001962
12 0.002019
13 0.002045
17 0.001935
19 0.001995
22 0.001042
23 0.001996
25 0.0
27 0.000997
31 0.000871
33 0.001995
39 0.004018
34 0.003992
11 0.003966
0 0.004029
0 0.005989
0 0.005983
0 0.006959
0 0.005979
0 0.004093
54 0.002992
52 0.002029
52 0.001996
54 0.00199
56 0.002043
58 0.0
59 0.001033
60 0.002026
61 0.002996
63 0.004952
65 0.003992
67 0.004988
70 0.004986
72 0.005021
74 0.004989
78 0.006978
77 0.006019
67 0.004987
56 0.002994
55 0.001054
55 0.001005
53 0.000996
56 0.0
56 0.0
55 0.0
55 0.0
57 0.0
59 0.000998
61 0.0
63 0.000998
66 0.0
68 0.0
69 0.0
70 0.0
73 0.001004
76 0.001995
79 0.003025
76 0.002993
62 0.003026
58 0.003028
58 0.003039
56 0.003058
53 0.004955
56 0.004988
56 0.004989
55 0.005018
55 0.006971
58 0.006837
58 0.006984
58 0.006981
0 0.006986
0 0.006986
0 0.006981
0 0.007013
0 0.007978
60 0.006983
60 0.006021
62 0.005984
65 0.005984
70 0.006993
61 0.006015
42 0.00493
40 0.004027
41 0.00301
38 0.002034
38 0.000973
42 0.0
43 0.0
45 0.0
46 0.000998
51 0.002043
55 0.001031
61 0.000997
64 0.00103
66 0.000998
69 0.00201
75 0.001992
77 0.003005
82 0.002994
86 0.002995
89 0.003027
93 0.003024
96 0.003029
101 0.004987
105 0.004997
100 0.005986
80 0.006981
73 0.005992
74 0.004977
74 0.006022
73 0.005017
76 0.005978
80 0.004973
80 0.004986
83 0.002979
88 0.002986
90 0.001051
94 0.002042
100 0.001031
103 0.000998
108 0.001045
111 0.001045
115 0.001004
120 0.000964
122 0.002037
123 0.000998
130 0.000998
135 0.0
133 0.000868
117 0.000998
96 0.000998
96 0.001037
96 0.002958
92 0.004034
97 0.004024
99 0.004036
101 0.003995
101 0.003994
107 0.004024
113 0.003988
118 0.003972
123 0.004023
126 0.003988
132 0.004024
137 0.004991
140 0.004956
146 0.005025
152 0.006983
154 0.007019
160 0.007016
163 0.006014
166 0.007015
171 0.003998
152 0.002994
132 0.002993
119 0.001994
118 0.001996
116 0.001998
111 0.001986
113 0.002028
115 0.00103
112 0.002033
112 0.0
116 0.001995
120 0.00203
124 0.002029
127 0.0
127 0.000998
131 0.0
134 0.0
138 0.0
142 0.0
146 0.0
149 0.0
153 0.0
171 0.0
138 0.0
97 0.000998
92 0.003033
94 0.003013
88 0.004021
91 0.005017
96 0.006992
94 0.007013
90 0.004988
91 0.005022
98 0.005023
103 0.005018
110 0.005011
116 0.005018
122 0.005198
128 0.003024
132 0.005021
137 0.002993
144 0.001993
149 0.001998
159 0.001042
148 0.001979
98 0.000986
82 0.0
81 0.0
78 0.0
72 0.0
77 0.0
79 0.000963
74 0.002026
76 0.002028
81 0.001956
86 0.001993
91 0.001962
97 0.003039
101 0.003028
108 0.004979
113 0.00502
118 0.005021
128 0.006009
138 0.00698
143 0.007938
151 0.006988
155 0.007983
140 0.007012
85 0.006968
69 0.005992
62 0.006045
58 0.007025
46 0.005979
49 0.005998
51 0.005988
46 0.005981
46 0.005023
55 0.003129
62 0.003032
71 0.002989
74 0.002994
80 0.003
84 0.00303
92 0.002994
98 0.000998
102 0.002042
110 0.000998
118 0.001
124 0.001007
131 0.002992
138 0.002994
144 0.004013
121 0.004026
66 0.004993
52 0.005015
49 0.004924
46 0.004982
37 0.005017
42 0.004982
44 0.005021
38 0.005021
36 0.006028
44 0.005989
50 0.007032
57 0.006979
61 0.007023
66 0.006981
72 0.007014
81 0.007017
85 0.004989
89 0.007025
97 0.004983
103 0.005136
110 0.004991
119 0.003986
125 0.003975
138 0.003984
141 0.003024
103 0.001956
67 0.00299
60 0.001029
61 0.0
53 0.00099
54 0.001995
62 0.003005
66 0.004024
66 0.003999
68 0.003986
76 0.004046
84 0.004022
91 0.004999
100 0.00502
107 0.006022
116 0.007004
124 0.006952
130 0.00697
142 0.00683
147 0.006984
156 0.006015
166 0.003993
171 0.002988
182 0.002015
191 0.002995
160 0.000987
116 0.001994
96 0.002031
96 0.001995
86 0.001957
80 0.002012
86 0.002039
86 0.000995
82 0.001999
86 0.0
92 0.0
94 0.0
100 0.0
103 0.000992
109 0.0
115 0.0
117 0.001996
124 0.001996
132 0.00199
136 0.001961
146 0.001959
151 0.001993
159 0.00203
166 0.001961
174 0.002008
170 0.001995
138 0.002026
87 0.001996
78 0.002993
78 0.00499
73 0.005032
71 0.004994
78 0.005012
81 0.005024
81 0.005023
88 0.004986
97 0.005023
105 0.005019
116 0.006021
122 0.006965
132 0.006979
140 0.006977
146 0.006963
156 0.006982
167 0.006979
172 0.006979
184 0.007017
192 0.007975
200 0.007977
205 0.007978
179 0.005981
122 0.004027
105 0.002
105 0.00399
100 0.000966
96 0.0
100 0.0
98 0.000964
98 0.000997
100 0.000997
113 0.0
119 0.0
126 0.0
140 0.000991
146 0.001956
154 0.002995
164 0.003041
171 0.003025
179 0.001985
188 0.002992
192 0.002992
199 0.002025
204 0.002957
212 0.0029
215 0.003002
185 0.002987
122 0.005018
101 0.005017
99 0.005019
85 0.004987
78 0.00595
80 0.00698
79 0.00695
71 0.006757
74 0.005976
81 0.004986
86 0.004987
95 0.004986
103 0.003966
111 0.002985
119 0.004025
130 0.002992
138 0.00397
149 0.003989
156 0.003989
166 0.003988
175 0.0
184 0.0
194 0.000999
171 0.001001
129 0.001
89 0.001
87 0.000998
85 0.001996
77 0.002028
80 0.001995
87 0.002026
82 0.001958
83 0.002012
92 0.001995
100 0.003005
110 0.001991
120 0.004021
129 0.004036
138 0.003947
143 0.00399
153 0.003986
158 0.005023
168 0.002001
179 0.007015
185 0.007026
191 0.006985
203 0.006981
192 0.004983
151 0.004977
93 0.002991
81 0.002989
77 0.001974
62 0.001978
58 0.001994
68 0.001991
67 0.004018
64 0.00199
66 0.004021
73 0.002001
78 0.00103
87 0.0
91 0.0
97 0.0
103 0.00103
111 0.002993
116 0.002993
125 0.002982
132 0.003034
141 0.002992
151 0.002992
159 0.002993
147 0.003955
107 0.00399
53 0.004022
43 0.003958
43 0.003955
34 0.006026
43 0.005983
50 0.005983
47 0.005974
49 0.005986
58 0.005976
70 0.007981
79 0.005992
89 0.004971
99 0.006016
107 0.004021
117 0.003031
127 0.002003
135 0.00299
148 0.001995
160 0.001994
165 0.0
174 0.002028
181 0.0
190 0.000997
191 0.0
156 0.0
85 0.0
68 0.002963
65 0.003001
54 0.002992
55 0.002998
67 0.002995
72 0.004033
73 0.003922
86 0.004022
101 0.004004
113 0.003955
123 0.004024
134 0.005984
142 0.006983
152 0.007013
157 0.007012
172 0.007016
182 0.006978
194 0.007403
203 0.006925
215 0.006973
216 0.006949
224 0.003977
235 0.003028
225 0.002988
148 0.001996
112 0.002046
94 0.001993
86 0.003024
72 0.001991
71 0.003015
84 0.00103
84 0.001029
81 0.001965
84 0.000973
92 0.0
99 0.000998
104 0.000998
110 0.002969
118 0.002998
123 0.003
132 0.003958
144 0.004024
149 0.003991
160 0.003773
164 0.003989
171 0.003993
179 0.004021
185 0.004022
167 0.004025
110 0.005017
72 0.005983
67 0.007039
69 0.007958
65 0.006965
71 0.007018
83 0.00698
88 0.005972
91 0.004984
101 0.005966
117 0.002028
130 0.001995
136 0.001987
141 0.001997
145 0.001995
154 0.000966
169 0.0
178 0.0
191 0.0
202 0.000994
208 0.000997
218 0.00103
183 0.000967
136 0.000985
95 0.001005
93 0.001
88 0.000999
80 0.001954
88 0.001962
95 0.001996
93 0.001958
95 0.001981
102 0.002034
107 0.001996
121 0.002059
139 0.001995
147 0.001956
162 0.002003
169 0.001995
182 0.001989
193 0.002032
203 0.001863
213 0.003035
223 0.004001
237 0.004008
250 0.006016
237 0.006015
162 0.005999
126 0.006015
119 0.006979
103 0.007979
71 0.006015
55 0.004935
24 0.003989
4 0.00197
0 0.003143
0 0.0
23 0.002022
33 0.0
44 0.0
53 0.0
57 0.0
63 0.0
65 0.0
76 0.0
89 0.0
94 0.0
88 0.001986
42 0.00305
6 0.00403
7 0.004021
11 0.00484
8 0.005977
17 0.006022
26 0.006015
30 0.006019
42 0.005982
50 0.006017
76 0.005987
99 0.006981
113 0.005991
121 0.004982
135 0.004997
143 0.003986
149 0.003976
156 0.00397
120 0.003988
78 0.005994
67 0.003988
63 0.00602
57 0.00399
62 0.00502
75 0.004962
78 0.003983
84 0.002992
95 0.001992
103 0.002992
112 0.000997
114 0.002992
121 0.001996
131 0.0
140 0.0
150 0.000998
164 0.000997
173 0.003031
159 0.004007
90 0.004987
62 0.005972
56 0.005962
47 0.00412
44 0.00602
59 0.005009
69 0.004984
74 0.003987
77 0.004979
92 0.00299
101 0.001982
112 0.002034
125 0.0
137 0.0
145 0.0
155 0.0
163 0.0
171 0.0
185 0.003032
190 0.003042
204 0.002995
213 0.003027
177 0.004973
112 0.00502
96 0.005017
91 0.004986
85 0.006975
85 0.006983
96 0.005984
103 0.006976
102 0.006984
107 0.007979
122 0.00698
138 0.007977
149 0.007979
155 0.006947
167 0.006982
176 0.003066
182 0.004967
193 0.00197
203 0.001997
209 0.001989
225 0.002002
232 0.002
246 0.002004
250 0.001997
220 0.0
157 0.0
148 0.0
148 0.00102
139 0.000998
138 0.000997
147 0.000998
147 0.002947
144 0.003
151 0.004033
162 0.005018
171 0.004988
181 0.005018
191 0.00699
194 0.006982
204 0.006941
207 0.006974
217 0.006959
225 0.005986
231 0.005991
242 0.005989
245 0.005984
215 0.005972
154 0.005004
141 0.004989
141 0.003985
132 0.005018
130 0.004025
141 0.004988
147 0.004987
145 0.004986
147 0.004024
156 0.001001
162 0.00303
173 0.001969
179 0.002993
188 0.001995
195 0.000961
199 0.0
207 0.001002
215 0.001994
219 0.003036
231 0.003031
186 0.003991
176 0.003957
140 0.004058
132 0.004024
131 0.00395
130 0.005997
127 0.006991
131 0.00701
130 0.006977
127 0.00698
127 0.007947
130 0.007029
133 0.00602
137 0.00502
141 0.003025
143 0.004952
147 0.003991
150 0.00503
153 0.002989
158 0.003998
161 0.003002
168 0.002004
166 0.001955
135 0.000995
116 0.0
115 0.0
120 0.002042
121 0.002156
127 0.002035
130 0.001974
129 0.000997
131 0.001995
137 0.002052
141 0.001995
147 0.001996
153 0.001998
155 0.002027
160 0.001996
163 0.004022
167 0.004022
173 0.003988
168 0.005976
148 0.006978
121 0.00699
118 0.005026
119 0.005024
113 0.005985
113 0.004022
118 0.00203
115 0.004027
112 0.001996
97 0.002028
112 0.002033
120 0.002042
131 0.001043
143 0.0
149 0.001037
158 0.002972
169 0.002992
174 0.003991
186 0.003991
185 0.003991
145 0.004018
79 0.006034
69 0.005978
71 0.005981
62 0.006018
65 0.005996
76 0.00599
75 0.005982
73 0.006973
82 0.006985
89 0.006991
103 0.006981
115 0.007033
122 0.006981
133 0.006981
138 0.006982
151 0.006983
162 0.007013
169 0.007163
184 0.003999
176 0.002036
132 0.004024
67 0.001992
59 0.001993
61 0.00199
54 0.0
63 0.000998
65 0.0
61 0.0
63 0.001007
73 0.0
88 0.0
97 0.000997
111 0.000998
127 0.000976
136 0.002994
149 0.002997
159 0.002991
172 0.003026
184 0.003965
193 0.005024
166 0.006016
92 0.006981
68 0.007005
66 0.006981
63 0.005983
61 0.006015
73 0.003984
74 0.004026
73 0.00299
79 0.002016
86 0.003989
98 0.002011
111 0.002995
120 0.001009
134 0.003127
146 0.002992
151 0.003025
164 0.003034
172 0.00304
187 0.003201
201 0.0
182 0.00203
113 0.0
68 0.001008
65 0.000997
65 0.00097
63 0.000998
71 0.000962
74 0.000998
71 0.000998
74 0.00199
83 0.000998
91 0.000997
104 0.000967
111 0.001002
126 0.002006
139 0.001997
147 0.002012
159 0.001995
171 0.003042
184 0.002994
198 0.002993
164 0.004984
110 0.004991
65 0.004974
63 0.004986
67 0.004983
66 0.005982
72 0.007011
77 0.006948
75 0.00402
78 0.001995
91 0.001957
104 0.001963
112 0.0
126 0.001044
138 0.002027
148 0.0
154 0.001993
167 0.000966
174 0.00203
183 0.001996
193 0.002961
198 0.002028
157 0.00203
69 0.002042
43 0.0
41 0.001993
32 0.0
38 0.0
49 0.0
51 0.0
47 0.0
58 0.002004
76 0.002961
87 0.003977
100 0.00502
114 0.005985
124 0.006982
132 0.005989
142 0.006981
149 0.004982
158 0.00698
165 0.007013
175 0.007015
187 0.007016
161 0.007014
62 0.006981
23 0.005125
22 0.005974
18 0.004965
20 0.003988
29 0.002995
32 0.001961
29 0.000967
35 0.0
53 0.000998
64 0.0
81 0.0
94 0.002035
108 0.00097
119 0.00199
131 0.0
144 0.001028
157 0.001047
166 0.001043
185 0.001989
165 0.0
91 0.0
45 0.0
41 0.0
48 0.0
52 0.001001
62 0.000998
75 0.003028
77 0.004029
83 0.00399
98 0.00399
117 0.004985
130 0.004997
144 0.004987
152 0.005025
163 0.006982
177 0.006977
183 0.004985
194 0.004003
203 0.004986
217 0.002004
229 0.002009
196 0.001996
129 0.001998
58 0.002034
51 0.0
51 0.000997
45 0.000997
58 0.001005
65 0.000998
63 0.000995
64 0.001952
77 0.001995
95 0.002033
106 0.002
121 0.00296
134 0.004034
142 0.004035
153 0.005982
163 0.005984
170 0.005994
182 0.004986
189 0.005983
204 0.00298
202 0.004986
107 0.004985
54 0.005017
25 0.00399
24 0.002994
17 0.003026
28 0.0
37 0.0
40 0.0
40 0.000999
46 0.000998
62 0.000997
76 0.002993
82 0.00396
96 0.003989
106 0.004995
111 0.005019
122 0.005019
127 0.00399
139 0.005018
146 0.004979
156 0.006012
165 0.007007
89 0.00698
28 0.006993
0 0.007017
0 0.007013
0 0.006982
4 0.004971
19 0.006015
30 0.004985
34 0.003988
43 0.003987
64 0.001962
84 0.002006
98 0.0
114 0.0
124 0.001997
131 0.0
144 0.0
158 0.000997
167 0.001995
186 0.002
192 0.002026
128 0.00298
49 0.004025
21 0.005016
27 0.004987
26 0.005017
33 0.005023
52 0.004987
57 0.004988
57 0.00698
69 0.006981
84 0.00701
101 0.00695
117 0.005032
124 0.003991
139 0.004985
149 0.003989
155 0.003995
166 0.001992
172 0.004012
185 0.001992
189 0.004026
122 0.001993
34 0.002991
2 0.003026
5 0.00299
2 0.003027
3 0.002992
22 0.002993
23 0.0
25 0.002025
35 0.0
52 0.003014
71 0.004988
81 0.004024
99 0.004983
112 0.006994
123 0.006945
133 0.004999
147 0.00596
162 0.002991
177 0.002994
154 0.002977
92 0.002987
25 0.002037
27 0.0
33 0.002031
38 0.000999
57 0.00204
69 0.002
71 0.002006
78 0.002008
98 0.001998
117 0.001996
130 0.002993
145 0.004988
154 0.004024
165 0.003995
175 0.005028
179 0.00502
190 0.005021
205 0.006002
202 0.006035
126 0.006987
35 0.007979
23 0.003981
22 0.003993
15 0.004023
18 0.004005
36 0.003969
39 0.003989
40 0.004024
52 0.001991
64 0.003089
84 0.001983
101 0.001949
110 0.0
125 0.0
142 0.001029
153 0.000997
172 0.002992
194 0.005022
208 0.005018
186 0.007003
97 0.006981
67 0.006979
75 0.006981
81 0.005965
80 0.005987
96 0.007973
100 0.005999
99 0.006981
111 0.007973
121 0.00798
140 0.005976
157 0.002025
167 0.003027
182 0.001999
192 0.002987
203 0.001972
215 0.001942
223 0.001964
239 0.000997
229 0.001998
171 0.002001
93 0.001996
82 0.002001
80 0.000958
72 0.00201
74 0.000995
90 0.0
89 0.000961
89 0.000983
101 0.001994
113 0.001994
133 0.002035
147 0.002006
156 0.001995
168 0.002033
178 0.001708
185 0.00296
197 0.002994
202 0.003996
217 0.005007
201 0.004994
144 0.005016
70 0.004945
61 0.004987
59 0.006012
49 0.006981
56 0.007979
63 0.005004
58 0.007013
57 0.00499
65 0.00598
81 0.006019
91 0.006018
105 0.005984
116 0.002962
123 0.004019
138 0.001996
145 0.004022
159 0.001995
179 0.001991
190 0.002028
146 0.001996
73 0.002029
65 0.002008
76 0.001993
79 0.001981
88 0.0
104 0.001996
106 0.000999
107 0.001985
118 0.0
128 0.00203
145 0.000994
157 0.002992
166 0.002994
177 0.002996
184 0.003029
194 0.002996
206 0.003992
215 0.004026
216 0.003983
187 0.00399
130 0.003891
90 0.005026
92 0.005012
91 0.004954
87 0.005984
95 0.005984
98 0.005984
94 0.005978
96 0.00697
107 0.00497
117 0.004981
130 0.005985
143 0.007978
151 0.005984
164 0.006974
177 0.003989
184 0.00298
196 0.003019
212 0.0
221 0.001991
161 0.0
103 0.003028
63 0.000966
61 0.0
56 0.0
47 0.0
55 0.0
55 0.000966
43 0.000998
42 0.000997
48 0.000997
63 0.000998
70 0.001009
78 0.002033
89 0.001
93 0.002987
99 0.002992
108 0.003028
118 0.003985
133 0.003989
123 0.005057
36 0.007018
0 0.005978
0 0.00703
9 0.004991
13 0.002994
24 0.001966
35 0.001999
35 0.000978
40 0.0
59 0.000958
74 0.002993
89 0.001002
102 0.002026
117 0.0
124 0.001003
138 0.001009
148 0.000998
164 0.002014
129 0.001996
58 0.001995
27 0.00197
30 0.00202
33 0.002992
37 0.004949
51 0.004984
51 0.004948
49 0.005018
56 0.005022
73 0.00697
87 0.00698
100 0.005973
112 0.005985
124 0.006037
132 0.006122
145 0.003988
161 0.005031
168 0.001995
120 0.003988
48 0.001995
21 0.004001
19 0.00402
16 0.004029
20 0.002971
37 0.001994
36 0.00305
34 0.001999
41 0.002997
57 0.000998
73 0.001005
81 0.000998
93 0.0
103 0.0
108 0.0
116 0.002004
132 0.00199
131 0.004031
60 0.003972
11 0.003985
59 0.002969
60 0.004034
59 0.003993
66 0.003002
68 0.004998
68 0.005957
70 0.007017
78 0.007976
82 0.006953
93 0.004988
102 0.002962
109 0.005028
117 0.002994
124 0.004984
133 0.003977
136 0.001999
115 0.002984
86 0.001963
84 0.00301
91 0.002989
97 0.003988
109 0.001992
116 0.00402
118 0.004019
121 0.002993
132 0.002025
140 0.002028
150 0.001973
159 0.0
163 0.002023
170 0.0
177 0.0
181 0.0
184 0.0
165 0.0
129 0.0
121 0.000997
122 0.001995
120 0.001995
127 0.001997
133 0.001958
134 0.004029
138 0.004955
142 0.005031
149 0.006967
157 0.006972
163 0.006978
168 0.007028
172 0.00694
176 0.007012
180 0.006978
183 0.006986
183 0.007011
172 0.007972
134 0.006011
126 0.004086
127 0.006016
123 0.003992
130 0.003993
134 0.003989
133 0.002014
134 0.001982
138 0.002991
144 0.002001
146 0.001987
150 0.001994
153 0.001032
157 0.0
162 0.002032
166 0.002023
169 0.002043
176 0.001998
179 0.0
158 0.000998
128 0.0
117 0.002047
117 0.001996
116 0.002004
120 0.001996
130 0.000954
130 0.001806
129 0.002012
136 0.001965
141 0.002008
149 0.002028
158 0.003961
161 0.004985
167 0.005969
174 0.005982
179 0.006973
186 0.006982
188 0.006968
166 0.004985
142 0.006982
137 0.00599
140 0.007018
141 0.003025
146 0.004992
172 0.002061
168 0.002029
172 0.002037
183 0.002002
192 0.002034
206 0.002992
216 0.0
220 0.0
229 0.0
237 0.0
242 0.0
252 0.001995
253 0.001985
218 0.002983
158 0.003026
149 0.004985
150 0.004977
147 0.005999
154 0.005854
162 0.006021
158 0.005987
157 0.005989
162 0.005984
171 0.00695
179 0.007971
184 0.005146
192 0.003996
196 0.003988
201 0.003989
203 0.004989
210 0.00297
221 0.002993
218 0.002992
153 0.002044
112 0.002992
104 0.001993
103 0.002992
98 0.0
101 0.001972
107 0.0
100 0.002985
97 0.003992
104 0.003051
111 0.003034
117 0.003962
124 0.003005
130 0.003948
140 0.005938
147 0.005951
154 0.005951
164 0.006015
180 0.00602
175 0.003998
112 0.002012
80 0.001993
85 0.0
94 0.0
99 0.00203
105 0.001006
104 0.003009
97 0.0
99 0.001991
110 0.001996
116 0.001997
127 0.001959
136 0.002006
143 0.003003
152 0.00402
164 0.004988
171 0.005979
185 0.005985
184 0.005982
131 0.007941
86 0.003984
80 0.003989
85 0.00295
81 0.002995
91 0.001993
96 0.002026
93 0.003989
93 0.002044
100 0.002993
114 0.002027
124 0.00202
135 0.002028
144 0.0
148 0.002026
157 0.0
162 0.002056
173 0.0
183 0.002032
161 0.000997
87 0.000996
68 0.000986
73 0.001962
73 0.001986
74 0.001996
88 0.001998
86 0.001968
82 0.001874
91 0.001964
105 0.002991
114 0.002994
123 0.00299
128 0.002997
140 0.002993
144 0.005985
147 0.005969
157 0.007014
166 0.00597
153 0.005954
75 0.006015
45 0.003981
46 0.006016
47 0.003988
49 0.005954
60 0.003992
55 0.002989
51 0.002952
56 0.003028
72 0.003007
78 0.002991
85 0.002993
92 0.001993
103 0.001994
112 0.002986
121 0.002995
134 0.00203
115 0.002989
72 0.002998
37 0.0
49 0.002001
60 0.003007
71 0.004988
86 0.00499
86 0.004979
78 0.004989
80 0.005977
90 0.00698
97 0.00698
112 0.006017
113 0.005983
113 0.005977
119 0.005977
126 0.005981
91 0.00495
41 0.00399
0 0.00399
0 0.003987
0 0.004142
0 0.005987
0 0.004027
0 0.004987
0 0.003988
0 0.003989
3 0.002993
16 0.003023
35 0.002994
51 0.00199
64 0.001974
83 0.001964
103 0.001996
111 0.002
59 0.001962
22 0.0
9 0.0
20 0.003026
20 0.000997
37 0.0
50 0.002027
50 0.002029
54 0.0
65 0.0
85 0.0
95 0.0
104 0.000998
111 0.00299
119 0.002993
127 0.002994
135 0.002992
125 0.005013
76 0.004948
25 0.005985
19 0.004975
23 0.00399
26 0.003997
39 0.003959
58 0.003989
58 0.003989
63 0.003991
79 0.003001
94 0.00402
107 0.001995
121 0.003989
130 0.002025
138 0.002026
147 0.002002
153 0.001985
165 0.002026
124 0.0
81 0.002036
62 0.000838
72 0.00203
74 0.002029
88 0.001993
103 0.002992
101 0.004005
110 0.00396
121 0.00396
141 0.005002
158 0.006004
166 0.006958
177 0.00695
189 0.004987
198 0.00499
213 0.004987
212 0.006982
164 0.004985
127 0.007017
125 0.003989
128 0.006015
121 0.004987
133 0.004974
142 0.005017
148 0.003989
154 0.004988
167 0.001997
182 0.001998
188 0.002962
199 0.000956
205 0.0
216 0.0
223 0.002992
234 0.0
240 0.002032
196 0.001992
154 0.0
134 0.000861
135 0.001022
128 0.000997
133 0.000994
148 0.001001
145 0.000998
143 0.000997
151 0.001001
163 0.000997
169 0.000998
176 0.000997
182 0.001996
187 0.002033
195 0.002993
199 0.005028
205 0.005905
214 0.005981
219 0.005984
206 0.004989
126 0.001995
96 0.003982
95 0.002991
89 0.004174
85 0.003018
94 0.002979
94 0.00203
91 0.002026
96 0.001998
107 0.0
114 0.002029
124 0.0
136 0.0
142 0.0
152 0.0
158 0.0
171 0.002029
188 0.002994
196 0.002999
152 0.002983
103 0.003031
104 0.003992
113 0.003955
112 0.003995
125 0.004033
132 0.003984
128 0.003989
134 0.005982
147 0.005975
155 0.006983
171 0.007008
177 0.006953
188 0.006982
197 0.007016
203 0.007015
214 0.00701
220 0.006978
214 0.006984
158 0.005956
118 0.007019
116 0.004
121 0.003968
117 0.003992
128 0.003972
132 0.003987
125 0.002002
125 0.003989
135 0.003024
140 0.002035
150 0.001989
155 0.0
160 0.0
167 0.002027
171 0.002994
174 0.003941
182 0.003992
183 0.005989
149 0.007019
88 0.004993
70 0.005
72 0.004995
68 0.002991
73 0.001995
78 0.001996
74 0.002986
73 0.002027
78 0.0
86 0.0
96 0.0
103 0.0
110 0.0
117 0.0
126 0.0
138 0.001006
152 0.001995
136 0.001998
86 0.001957
67 0.001879
82 0.004037
89 0.003991
97 0.00399
111 0.003958
110 0.003964
110 0.003991
124 0.005994
132 0.005981
147 0.005986
155 0.006024
167 0.006958
179 0.006986
183 0.006976
196 0.004974
193 0.006974
144 0.004983
106 0.006982
108 0.004991
121 0.006977
123 0.007125
132 0.006013
143 0.003991
144 0.0
148 0.002013
160 0.0
174 0.000996
183 0.000994
193 0.001995
203 0.002994
210 0.003992
219 0.003991
228 0.005979
222 0.006019
170 0.005987
138 0.006008
145 0.00598
152 0.006951
152 0.006007
165 0.005988
167 0.006017
165 0.004002
166 0.004962
176 0.003986
183 0.004024
192 0.002992
200 0.0
205 0.002993
212 0.0
219 0.0
224 0.0
220 0.0
168 0.0
128 0.0
133 0.0
139 0.0
140 0.0
148 0.0
153 0.001961
144 0.002993
142 0.005028
149 0.00599
153 0.007977
160 0.006975
163 0.006992
165 0.00502
169 0.003097
173 0.002958
181 0.000962
164 0.001021
136 0.0
96 0.001006
108 0.002007
113 0.002028
115 0.002998
131 0.004985
128 0.003991
129 0.00499
135 0.005006
148 0.004944
158 0.004987
166 0.004987
174 0.006981
184 0.006982
192 0.004986
199 0.005971
179 0.003993
142 0.002996
120 0.003031
130 0.0
132 0.0
137 0.0
148 0.0
144 0.0
140 0.0
148 0.001988
155 0.004036
163 0.004988
168 0.005029
174 0.004989
177 0.004987
182 0.004831
192 0.004983
156 0.005984
117 0.005984
101 0.005989
108 0.006015
108 0.005978
110 0.007
120 0.006985
116 0.006978
108 0.007013
108 0.006982
115 0.007014
123 0.00296
127 0.005985
133 0.002993
138 0.0
142 0.0
149 0.0
153 0.0
133 0.0
83 0.002002
65 0.003999
71 0.004027
70 0.005975
74 0.006973
82 0.005985
81 0.007985
77 0.002975
84 0.007955
101 0.006979
120 0.003987
129 0.006014
136 0.003969
139 0.005984
145 0.002938
158 0.002025
161 0.002961
114 0.0
83 0.0
88 0.001003
94 0.000964
98 0.0
108 0.001043
111 0.001006
108 0.000999
110 0.000998
120 0.001983
127 0.000991
134 0.001
140 0.002025
147 0.003006
155 0.003014
162 0.00396
172 0.003992
165 0.003997
131 0.003989
92 0.004048
96 0.004988
97 0.005984
98 0.004996
108 0.004951
110 0.004947
108 0.004963
112 0.004978
121 0.003989
131 0.004025
138 0.003984
145 0.003981
148 0.005128
152 0.000961
154 0.002027
162 0.001992
168 0.002001
168 0.002028
136 0.002165
86 0.002987
85 0.0
88 0.0
88 0.0
100 0.0
107 0.0
105 0.000998
105 0.002035
112 0.003026
123 0.004952
130 0.004987
134 0.004986
139 0.005993
144 0.00598
149 0.005995
157 0.005995
165 0.005993
173 0.005977
155 0.007964
119 0.005987
98 0.007985
101 0.005984
106 0.007975
106 0.007986
113 0.007984
109 0.004996
106 0.007977
105 0.004989
115 0.004987
120 0.004992
127 0.004987
130 0.003986
131 0.003005
132 0.002
131 0.002028
132 0.001991
141 0.003041
134 0.003028
86 0.003023
15 0.0
10 0.0
18 0.001954
18 0.003031
29 0.002995
41 0.001998
37 0.002996
38 0.002992
47 0.002993
60 0.003029
75 0.00291
87 0.002999
93 0.003996
105 0.004988
116 0.00499
125 0.004961
140 0.004983
148 0.004999
155 0.002991
67 0.00498
43 0.005979
46 0.004984
57 0.006915
52 0.004992
63 0.007012
74 0.005984
67 0.005176
65 0.005036
77 0.004987
96 0.004022
111 0.0
118 0.002027
133 0.002018
144 0.000954
150 0.000958
165 0.0
171 0.0
182 0.0
140 0.000955
86 0.000988
56 0.0
62 0.001995
60 0.002015
60 0.001961
77 0.002992
75 0.004987
65 0.004967
70 0.006946
79 0.000989
93 0.007015
99 0.006981
105 0.006982
112 0.006949
117 0.006817
122 0.006997
127 0.005969
138 0.006972
151 0.004973
85 0.003976
35 0.002974
18 0.003994
22 0.003991
21 0.002991
26 0.002996
31 0.002949
19 0.0
27 0.003033
26 0.002992
40 0.002992
43 0.001995
50 0.002041
61 0.0
68 0.002025
83 0.00096
95 0.0
107 0.0
98 0.0
50 0.0
0 0.000998
11 0.001008
18 0.0
21 0.002041
34 0.003025
33 0.003023
30 0.004997
43 0.006984
50 0.006977
71 0.00696
80 0.007013
86 0.005985
98 0.007022
103 0.006016
115 0.006997
132 0.002957
81 0.002994
33 0.002992
14 0.00203
23 0.003187
26 0.0
33 0.002991
38 0.001994
37 0.0
40 0.000955
51 0.0
70 0.000965
81 0.0
94 0.001
102 0.0
114 0.0
125 0.003065
139 0.001981
150 0.002041
92 0.003004
41 0.0
26 0.0
36 0.0
39 0.0
49 0.0
61 0.0
62 0.0
65 0.0
72 0.002046
83 0.003038
92 0.002992
100 0.002993
107 0.003024
114 0.002992
125 0.002986
144 0.004024
152 0.00499
130 0.004985
65 0.00598
44 0.006126
54 0.004983
58 0.005988
54 0.001994
69 0.004985
69 0.003008
64 0.005022
70 0.005019
77 0.004986
92 0.005022
104 0.003041
113 0.004036
121 0.001961
128 0.003023
146 0.001987
156 0.0
112 0.001996
81 0.002992
84 0.002973
97 0.003029
106 0.00301
126 0.003026
130 0.003028
122 0.002987
128 0.002964
150 0.003026
166 0.00299
176 0.003949
185 0.003989
193 0.004988
202 0.006018
213 0.006009
217 0.006981
199 0.007973
121 0.006981
116 0.007982
131 0.004989
132 0.004965
140 0.003986
156 0.003005
150 0.002978
151 0.002993
165 0.000987
174 0.001981
179 0.0
191 0.0
198 0.0
201 0.0
207 0.0
212 0.0
225 0.0
204 0.0
141 0.002011
122 0.002029
133 0.001997
133 0.003006
134 0.002989
145 0.002992
142 0.002958
131 0.002988
136 0.002989
147 0.003024
148 0.005022
151 0.005012
160 0.005973
168 0.003987
173 0.003989
181 0.003985
189 0.006983
194 0.003987
173 0.006017
112 0.003989
91 0.005966
96 0.006018
94 0.006016
100 0.005984
111 0.006018
106 0.005954
107 0.003035
116 0.005988
131 0.003152
140 0.020944
144 0.000985
155 0.0
163 0.002992
173 0.002992
179 0.0
184 0.003006
191 0.0
150 0.002039
98 0.001003
89 0.0
94 0.000997
91 0.001997
104 0.002027
110 0.000965
103 0.00199
98 0.002992
104 0.003029
108 0.002864
109 0.003991
109 0.004975
112 0.00496
112 0.004987
113 0.004957
117 0.004987
122 0.004979
133 0.004947
126 0.005989
98 0.005984
23 0.005984
16 0.005988
22 0.003994
18 0.005987
29 0.00402
40 0.004045
35 0.003991
33 0.004022
39 0.004982
50 0.001986
56 0.003987
61 0.002027
62 0.00502
70 0.001995
79 0.002998
88 0.001999
107 0.001997
120 0.0
122 0.000996
51 0.000967
21 0.000997
23 0.0
36 0.002032
35 0.003014
47 0.003012
54 0.003958
50 0.004022
57 0.004988
70 0.00499
84 0.004987
96 0.006021
103 0.007984
107 0.007977
113 0.007985
117 0.007965
122 0.006978
135 0.004022
143 0.006015
131 0.002989
48 0.001993
29 0.002993
42 0.001995
42 0.001996
39 0.002984
47 0.002991
43 0.00203
34 0.002976
37 0.00399
44 0.001964
54 0.003983
67 0.003024
77 0.003023
89 0.002025
92 0.00102
97 0.001979
107 0.001995
118 0.002057
126 0.001998
83 0.001995
27 0.001995
0 0.002042
0 0.011968
1 0.001961
3 0.004988
6 0.006965
2 0.005002
0 0.004995
0 0.007012
6 0.004986
14 0.006947
27 0.003988
33 0.006982
41 0.006963
53 0.004987
69 0.002986
81 0.0
84 0.003025
18 0.0
0 0.0
0 0.0
0 0.0
0 0.0
14 0.00099
23 0.000997
22 0.000997
32 0.001995
50 0.001994
64 0.001995
80 0.001997
88 0.002993
104 0.002991
121 0.003991
129 0.00399
139 0.003934
94 0.004027
38 0.00402
33 0.003955
43 0.003959
42 0.003989
55 0.004953
65 0.004984
63 0.00482
64 0.00499
77 0.006014
90 0.004989
105 0.00299
115 0.002991
130 0.002004
143 0.001994
153 0.002999
170 0.0
155 0.002027
83 0.0
51 0.000943
60 0.001995
65 0.002037
64 0.001958
74 0.001994
77 0.00399
74 0.004982
79 0.005977
89 0.006981
99 0.007954
104 0.007977
117 0.005984
124 0.003009
128 0.005984
139 0.002973
152 0.003005
136 0.003009
56 0.002994
33 0.003005
43 0.002989
41 0.001984
41 0.001985
54 0.003006
51 0.002988
45 0.001995
53 0.005021
61 0.002026
71 0.004987
85 0.004018
90 0.001981
101 0.002993
116 0.0
123 0.000966
124 0.001996
57 0.002003
35 0.002004
36 0.001992
46 0.001988
55 0.002961
75 0.002993
75 0.003019
75 0.004987
90 0.006002
103 0.006013
125 0.005961
144 0.006978
150 0.005982
158 0.007945
165 0.005988
181 0.007976
178 0.00798
131 0.007979
64 0.005972
64 0.003002
64 0.00598
58 0.002995
69 0.006018
76 0.002991
68 0.002992
70 0.003008
82 0.002989
91 0.003
107 0.002003
118 0.002996
124 0.001981
139 0.002992
152 0.002992
159 0.0
118 0.000984
64 0.01496
38 0.001998
44 0.005985
39 0.00698
46 0.007978
51 0.007975
46 0.007978
48 0.007881
55 0.00598
66 0.002015
72 0.004029
84 0.002975
87 0.001993
93 0.002998
100 0.000994
115 0.000951
122 0.000954
80 0.0
28 0.000995
0 0.000993
4 0.002037
0 0.0
0 0.003015
14 0.003042
8 0.0
4 0.0
10 0.0
29 0.000834
45 0.002053
59 0.003031
71 0.002962
87 0.002992
104 0.002992
130 0.003028
141 0.002992
91 0.005021
34 0.004983
37 0.005022
55 0.006002
65 0.004979
76 0.004964
86 0.005983
81 0.007967
87 0.004971
103 0.006979
118 0.005982
126 0.005983
139 0.006185
143 0.005979
154 0.006016
169 0.002994
177 0.004985
155 0.002998
101 0.004954
60 0.00301
71 0.002984
72 0.002986
74 0.003009
87 0.0
80 0.000957
75 0.0
85 0.002995
95 0.0
107 0.001998
121 0.00203
126 0.002984
138 0.003996
147 0.003826
158 0.004004
166 0.003991
138 0.003958
66 0.003991
35 0.004025
39 0.004025
38 0.004999
41 0.004934
52 0.003974
49 0.004985
44 0.005023
58 0.00599
65 0.005982
81 0.005988
100 0.004982
110 0.005981
123 0.005985
138 0.004981
151 0.004008
153 0.00299
99 0.005018
64 0.002992
70 0.00399
88 0.002987
93 0.002985
117 0.002998
123 0.002028
125 0.002993
138 0.0
151 0.003026
172 0.0
186 0.0
196 0.000965
211 0.0
220 0.0
233 0.001988
234 0.000993
184 0.000986
125 0.0
130 0.0
144 0.0
144 0.0
157 0.002006
177 0.003992
175 0.00396
177 0.003983
192 0.004998
212 0.004983
219 0.004987
234 0.003988
242 0.004027
253 0.00504
255 0.004991
255 0.004954
255 0.004952
228 0.005028
177 0.00499
187 0.004991
192 0.005842
188 0.004987
203 0.004966
204 0.004984
200 0.005993
202 0.005995
215 0.005983
226 0.006003
235 0.005984
184 0.005995
187 0.005989
189 0.006016
193 0.006014
198 0.00604
195 0.005977
173 0.005985
145 0.007011
144 0.003137
149 0.002989
149 0.00299
156 0.003
157 0.002001
153 0.001995
154 0.002
157 0.001999
165 0.001998
170 0.002994
175 0.002992
179 0.003949
185 0.002995
190 0.00404
194 0.003013
179 0.003034
150 0.002991
149 0.00204
159 0.002027
160 0.002025
168 0.002991
170 0.002992
167 0.005019
169 0.005942
172 0.006016
178 0.005991
181 0.005976
186 0.005988
189 0.005989
190 0.005987
196 0.005992
199 0.006001
183 0.005988
145 0.006969
140 0.006983
147 0.006981
148 0.007977
149 0.00402
154 0.00701
155 0.003971
152 0.006956
155 0.006967
159 0.006016
195 0.005019
199 0.002978
202 0.003989
207 0.002987
209 0.0
211 0.0
218 0.000998
192 0.0
139 0.00104
97 0.001012
106 0.002037
116 0.000997
117 0.002053
126 0.002006
125 0.001957
111 0.002017
116 0.003032
123 0.003028
128 0.003
139 0.002993
144 0.003029
148 0.003015
156 0.002985
161 0.002997
171 0.003989
145 0.004981
95 0.005002
70 0.00501
88 0.004979
94 0.004984
99 0.004991
108 0.004979
103 0.004955
106 0.004988
113 0.00498
128 0.004996
137 0.005987
141 0.005985
146 0.007979
150 0.004957
157 0.007998
166 0.007975
169 0.006946
105 0.006016
51 0.002996
58 0.004984
72 0.002995
68 0.0
80 0.0
83 0.000964
78 0.000991
80 0.000988
93 0.000951
101 0.0
111 0.0
120 0.0
123 0.000963
129 0.0
133 0.002035
137 0.001989
126 0.002038
76 0.0
18 0.001012
21 0.0
32 0.000965
29 0.001997
38 0.002968
43 0.002992
37 0.003025
38 0.002995
47 0.002994
57 0.00399
62 0.003031
69 0.002991
76 0.002999
85 0.004987
96 0.004986
106 0.006064
80 0.00498
7 0.005794
0 0.005981
9 0.006018
20 0.005033
24 0.00795
41 0.008021
43 0.007919
43 0.007954
61 0.005981
77 0.007974
92 0.004974
98 0.007948
107 0.00493
114 0.004939
118 0.004
122 0.003
100 0.003024
48 0.002996
1 0.003027
11 0.003011
25 0.002987
28 0.002969
43 0.0
49 0.001995
46 0.0
49 0.0
55 0.0
60 0.002005
71 0.001966
85 0.002975
93 0.002032
98 0.002989
110 0.00402
116 0.004022
98 0.003955
18 0.00399
5 0.004022
20 0.003936
22 0.004958
23 0.004978
38 0.004983
32 0.002953
32 0.003988
45 0.004988
55 0.004982
70 0.004935
78 0.006981
83 0.004944
89 0.006979
93 0.00399
106 0.007015
113 0.006984
87 0.006966
26 0.007978
32 0.003001
44 0.004022
51 0.00297
64 0.00398
73 0.00204
66 0.0
73 0.0
90 0.0
101 0.0
105 0.0
113 0.0
124 0.001008
129 0.0
150 0.0
158 0.0
118 0.0
57 0.003017
62 0.006015
76 0.005984
73 0.005954
83 0.005972
88 0.005958
88 0.006041
91 0.006982
102 0.006833
112 0.005018
118 0.006947
130 0.004955
135 0.007018
147 0.004
156 0.002995
163 0.002992
167 0.002998
107 0.004966
68 0.00299
72 0.005018
75 0.002023
72 0.004987
84 0.004025
87 0.003023
81 0.0
83 0.0
88 0.0
94 0.000998
104 0.001022
108 0.001016
115 0.000998
121 0.000998
129 0.000998
137 0.001854
137 0.002992
76 0.003039
25 0.00496
24 0.004997
27 0.005981
26 0.005988
31 0.00695
35 0.005952
34 0.007995
36 0.005976
45 0.006979
55 0.005954
71 0.007974
84 0.007991
85 0.007994
100 0.004986
117 0.002992
128 0.002992
107 0.000999
55 0.001016
41 0.001013
55 0.000998
66 0.000997
75 0.001009
86 0.000998
82 0.002043
89 0.002001
105 0.002001
112 0.001994
127 0.000983
134 0.002041
146 0.001997
159 0.003989
168 0.004034
179 0.003994
178 0.004028
120 0.004016
69 0.004977
65 0.005949
70 0.005984
66 0.005984
72 0.006028
77 0.005979
73 0.00599
73 0.005979
84 0.005981
100 0.003974
106 0.003997
120 0.003989
127 0.003985
136 0.004131
146 0.003987
153 0.003987
164 0.002021
118 0.003987
66 0.004987
34 0.003024
34 0.000969
30 0.002992
25 0.0
35 0.002992
33 0.002992
25 0.002953
33 0.002992
38 0.003999
48 0.004989
59 0.005987
63 0.005025
68 0.005984
74 0.005968
85 0.005019
96 0.005984
78 0.005984
15 0.006964
0 0.006015
0 0.003989
0 0.007011
0 0.003982
0 0.007024
0 0.006963
0 0.006978
11 0.007025
26 0.002999
37 0.005979
59 0.003014
69 0.005004
82 0.003943
101 0.0
111 0.002982
107 0.000966
39 0.0
17 0.0
20 0.0
28 0.0
37 0.0
47 0.003024
47 0.0
45 0.003025
60 0.003002
72 0.002995
95 0.002025
106 0.002026
119 0.0
132 0.0
147 0.000965
163 0.001995
176 0.002002
159 0.002009
69 0.001942
48 0.001995
51 0.00185
47 0.00204
45 0.002991
60 0.003015
64 0.001997
62 0.003002
70 0.003027
80 0.003052
96 0.002997
105 0.001981
120 0.003027
132 0.002992
138 0.002987
150 0.002994
164 0.002993
161 0.003029
87 0.003017
30 0.002958
25 0.003992
24 0.003937
19 0.004986
33 0.004983
39 0.004977
35 0.005984
41 0.005993
50 0.006023
70 0.005983
86 0.005994
93 0.005967
114 0.00496
127 0.004993
139 0.002968
159 0.005979
174 0.002991
140 0.002993
71 0.003009
66 0.0
75 0.00296
82 0.0
96 0.0
108 0.001062
106 0.001999
113 0.001944
135 0.001003
162 0.000999
174 0.002997
196 0.003031
215 0.00401
223 0.001995
240 0.005981
255 0.004987
255 0.00399
255 0.002996
207 0.004985
157 0.00299
158 0.003026
170 0.002992
168 0.002988
181 0.003026
187 0.001011
183 0.0
188 0.001944
201 0.002002
211 0.002998
226 0.001955
234 0.00201
243 0.003992
252 0.002996
255 0.004959
255 0.005999
255 0.005951
255 0.005826
198 0.00598
160 0.005982
158 0.004994
160 0.004986
154 0.004987
166 0.003036
169 0.005986
156 0.002981
153 0.005987
158 0.005985
162 0.005983
171 0.006014
178 0.005984
182 0.006016
190 0.00299
194 0.004987
201 0.0
207 0.00299
186 0.0
96 0.0
66 0.0
71 0.0
