136 0.014991
138 0.0
144 0.000998
145 0.000958
101 0.00099
42 0.000998
14 0.000956
26 0.000996
45 0.0
52 0.000999
61 0.001034
70 0.000998
73 0.001992
72 0.0
74 0.001053
78 0.000996
85 0.001996
93 0.001986
102 0.001015
105 0.000997
114 0.000998
117 0.0
115 0.000998
117 0.000964
122 0.000996
129 0.001034
131 0.000997
126 0.001034
75 0.001036
27 0.001993
11 0.001005
30 0.001039
41 0.000998
51 0.000997
62 0.000945
71 0.001989
69 0.001994
63 0.001031
66 0.000998
73 0.001032
83 0.001984
90 0.00199
98 0.002
110 0.001989
113 0.000997
120 0.00194
123 0.001044
120 0.002992
116 0.003042
71 0.001996
25 0.001982
9 0.000954
22 0.002009
38 0.001994
50 0.002002
71 0.002012
77 0.001995
77 0.001049
74 0.001024
77 0.002006
87 0.002991
96 0.002047
102 0.002014
108 0.001952
116 0.001978
119 0.002011
119 0.001981
127 0.001988
126 0.001996
81 0.002024
16 0.002047
8 0.002992
20 0.003017
31 0.002981
46 0.002
59 0.001991
67 0.002003
67 0.002993
65 0.002985
69 0.002042
74 0.001962
80 0.003018
88 0.002961
97 0.002959
105 0.002988
106 0.002993
110 0.003009
116 0.002997
123 0.002033
125 0.00299
101 0.003942
14 0.003015
2 0.003995
10 0.003027
24 0.003037
31 0.002992
41 0.002961
48 0.003009
55 0.002992
51 0.002978
45 0.002998
53 0.002989
63 0.002962
73 0.004002
81 0.00401
91 0.003036
99 0.003042
104 0.002972
109 0.003986
112 0.003968
97 0.002994
44 0.002994
8 0.002982
7 0.003012
24 0.002987
54 0.003996
69 0.003964
82 0.003047
82 0.003027
81 0.003033
84 0.003953
92 0.00399
106 0.003987
112 0.002984
119 0.002996
124 0.003963
127 0.002988
131 0.004026
134 0.003994
133 0.003961
80 0.003032
38 0.002992
27 0.003945
33 0.003975
53 0.002956
66 0.002993
78 0.003026
86 0.004981
89 0.004973
86 0.003968
91 0.003995
103 0.003956
107 0.003972
115 0.004028
118 0.003997
128 0.003939
134 0.003045
144 0.003012
142 0.002976
150 0.004992
152 0.004976
161 0.005008
139 0.004995
62 0.003983
40 0.004
30 0.003979
52 0.003994
62 0.003981
76 0.00304
84 0.003988
90 0.003973
93 0.004956
88 0.004953
94 0.004952
97 0.005
106 0.004987
114 0.003994
119 0.003991
127 0.003993
130 0.003989
133 0.003954
136 0.005014
142 0.004997
145 0.005008
150 0.004996
118 0.003992
49 0.004956
15 0.004991
14 0.004002
24 0.003972
31 0.003991
45 0.004951
57 0.004949
58 0.004992
56 0.004989
50 0.005
55 0.005026
59 0.004984
73 0.004945
85 0.00499
97 0.003991
100 0.004031
106 0.004031
111 0.005987
116 0.006002
122 0.004999
125 0.004971
125 0.004979
81 0.00599
13 0.00499
7 0.004979
22 0.004984
43 0.005962
60 0.005933
74 0.005972
83 0.00596
83 0.005923
79 0.004986
83 0.004991
88 0.004952
86 0.005993
89 0.00498
80 0.005016
77 0.006
87 0.005972
96 0.005977
79 0.005938
64 0.00597
12 0.005983
0 0.005961
0 0.005028
0 0.005004
0 0.005982
24 0.005023
36 0.006015
45 0.006013
43 0.005988
45 0.005987
50 0.005939
57 0.005988
70 0.005971
78 0.006
88 0.005984
92 0.005973
99 0.00598
105 0.005978
110 0.005989
115 0.005996
92 0.005985
35 0.005984
0 0.005987
0 0.006971
5 0.006968
27 0.00596
37 0.005997
48 0.005974
60 0.006934
60 0.006931
61 0.006973
63 0.005981
73 0.006992
86 0.005998
92 0.005949
97 0.005985
105 0.007016
112 0.007033
117 0.005984
122 0.005985
124 0.006011
72 0.00702
20 0.005984
1 0.007022
8 0.006985
25 0.007017
41 0.007009
52 0.006984
73 0.006984
75 0.006981
71 0.006014
71 0.006025
73 0.006012
89 0.006019
97 0.006934
108 0.007945
115 0.007941
123 0.007007
132 0.006934
135 0.006983
140 0.006981
128 0.006938
69 0.006976
32 0.00701
34 0.006015
54 0.006981
67 0.007018
92 0.007971
96 0.007969
94 0.006982
90 0.007001
88 0.006993
95 0.00794
103 0.007979
109 0.007027
118 0.006981
128 0.00697
146 0.007992
148 0.007991
134 0.007966
75 0.007987
33 0.007018
26 0.007018
37 0.006982
51 0.007988
65 0.007979
89 0.00702
97 0.006982
97 0.00697
96 0.007992
95 0.007979
102 0.007982
110 0.007979
119 0.007971
124 0.007976
129 0.007009
136 0.007978
144 0.007979
148 0.007011
145 0.007028
84 0.006982
13 0.006973
12 0.006995
23 0.006985
41 0.007965
60 0.007964
67 0.008005
82 0.007986
80 0.007983
73 0.007009
79 0.006981
83 0.007014
91 0.007021
106 0.007019
111 0.006982
117 0.006958
122 0.006971
126 0.007007
130 0.006943
131 0.00794
125 0.007978
30 0.00701
5 0.007011
11 0.006984
26 0.006985
49 0.007007
60 0.00696
66 0.006964
67 0.007009
61 0.006984
63 0.006958
71 0.007026
81 0.006984
91 0.00597
98 0.006016
107 0.00702
114 0.00698
124 0.006965
132 0.007018
137 0.006985
110 0.006988
49 0.007
14 0.007007
18 0.006965
30 0.00598
46 0.00598
61 0.005985
78 0.006002
82 0.00597
73 0.005962
77 0.006974
83 0.007011
92 0.00698
100 0.006962
111 0.007011
120 0.006969
127 0.005988
134 0.005967
140 0.005982
146 0.005994
148 0.005981
61 0.005979
31 0.005984
31 0.005983
47 0.005983
64 0.005972
86 0.006941
99 0.005985
104 0.005982
100 0.005995
94 0.005967
101 0.006006
110 0.005986
127 0.005981
141 0.005979
146 0.006009
153 0.005996
148 0.005978
150 0.004984
150 0.004964
116 0.004988
57 0.006021
18 0.006035
0 0.006009
2 0.005969
35 0.005984
49 0.005953
50 0.006016
62 0.005976
65 0.004988
62 0.004956
66 0.004999
70 0.004975
83 0.005018
92 0.004978
104 0.004977
128 0.004977
125 0.006007
133 0.00499
134 0.00499
143 0.005028
134 0.00499
81 0.004984
32 0.004987
25 0.004981
35 0.004977
62 0.004975
84 0.005025
96 0.00498
88 0.004995
94 0.004975
88 0.005992
90 0.00502
100 0.004997
111 0.004983
131 0.005013
143 0.004986
151 0.004929
163 0.004983
174 0.004952
181 0.004979
144 0.00499
84 0.004968
72 0.003991
78 0.003988
90 0.003987
105 0.003975
132 0.004995
148 0.004996
156 0.004969
155 0.004985
152 0.005043
159 0.004988
171 0.004976
179 0.003992
186 0.003991
196 0.003987
200 0.003991
201 0.003966
202 0.003986
164 0.003993
96 0.003993
64 0.004997
66 0.004999
89 0.004969
105 0.003981
123 0.003956
129 0.003995
126 0.003954
122 0.003991
126 0.003961
135 0.003981
142 0.003977
151 0.003947
157 0.003996
164 0.002987
175 0.003987
181 0.00396
182 0.003987
173 0.00399
110 0.004024
60 0.003985
46 0.00399
57 0.003966
71 0.00401
91 0.004017
110 0.003987
122 0.003935
122 0.002991
119 0.002966
120 0.002997
120 0.003001
131 0.002955
140 0.00396
148 0.003951
158 0.003925
164 0.003947
171 0.003935
179 0.00395
143 0.00299
72 0.002988
55 0.002969
68 0.002965
83 0.002939
100 0.001995
122 0.002995
132 0.003932
135 0.003015
131 0.002973
135 0.002988
139 0.002994
148 0.002955
160 0.002994
170 0.002946
176 0.002993
180 0.002948
193 0.00295
204 0.002947
183 0.002984
116 0.002998
74 0.002994
77 0.002991
94 0.001953
111 0.002946
124 0.002953
146 0.003047
147 0.002955
135 0.002992
133 0.002995
139 0.002995
144 0.002962
150 0.001995
165 0.002975
173 0.001986
178 0.002008
179 0.001983
132 0.00199
74 0.002957
78 0.002948
98 0.002986
113 0.00294
131 0.002953
145 0.002998
147 0.002983
141 0.002004
140 0.001984
142 0.001989
151 0.001995
163 0.002995
174 0.002945
181 0.002004
192 0.002947
195 0.002968
174 0.002959
109 0.002956
72 0.001997
70 0.002005
88 0.001988
103 0.001981
118 0.002004
134 0.001995
135 0.001989
127 0.001986
126 0.001995
127 0.000998
132 0.000998
142 0.000998
150 0.001995
158 0.002001
167 0.002024
172 0.001995
174 0.001996
146 0.001978
60 0.002025
53 0.002007
70 0.001986
91 0.000999
108 0.00096
127 0.001
136 0.000997
134 0.000997
129 0.000997
130 0.001996
134 0.001996
143 0.001995
159 0.001952
167 0.002029
177 0.001984
182 0.000951
164 0.000963
103 0.000994
68 0.000999
69 0.000998
86 0.000999
101 0.000998
118 0.000998
136 0.000998
143 0.001968
139 0.001962
140 0.001029
147 0.000989
153 0.000965
160 0.00101
167 0.000995
173 0.000998
184 0.001001
187 0.000963
195 0.000962
199 0.000999
118 0.000996
67 0.0
58 0.0
75 0.000997
89 0.000998
103 0.000998
122 0.000997
129 0.000998
127 0.000998
122 0.000998
123 0.000998
126 0.000998
142 0.000997
150 0.0
158 0.0
167 0.0
173 0.0
176 0.0
181 0.0
183 0.000998
104 0.000993
58 0.000996
51 0.000994
62 0.000999
89 0.0
103 0.0
116 0.0
121 0.0
117 0.0
112 0.0
112 0.0
116 0.0
129 0.001004
140 0.0
147 0.000995
154 0.0
160 0.0
164 0.0
167 0.0
169 0.0
173 0.0
177 0.0
176 0.0
115 0.0
44 0.0
37 0.0
50 0.0
68 0.0
86 0.0
99 0.0
102 0.0
99 0.0
93 0.001007
99 0.0
107 0.0
116 0.0
123 0.000998
132 0.000998
141 0.0
147 0.0
154 0.0
158 0.0
161 0.0
162 0.0
140 0.0
56 0.0
36 0.0
33 0.0
51 0.0
65 0.001003
88 0.0
101 0.0
102 0.0
93 0.0
94 0.0
101 0.002031
111 0.000997
120 0.000997
135 0.0
141 0.0
147 0.0
154 0.000999
160 0.001012
163 0.0
169 0.001024
154 0.000996
90 0.0
51 0.0
42 0.000998
53 0.000997
74 0.000998
88 0.000999
104 0.000999
113 0.001025
110 0.000998
106 0.000998
118 0.00103
105 0.000996
101 0.0
103 0.0
112 0.000998
130 0.000998
163 0.0
165 0.000997
153 0.000999
146 0.002022
150 0.001997
157 0.000996
100 0.000998
43 0.000972
37 0.0
49 0.0
66 0.000998
80 0.001995
95 0.00095
103 0.000994
104 0.001011
96 0.001995
91 0.002021
96 0.001024
113 0.001965
121 0.0
132 0.001003
142 0.0
145 0.001014
148 0.000998
150 0.002026
174 0.00095
178 0.000971
165 0.002033
114 0.002029
56 0.000976
39 0.001982
49 0.000996
59 0.000998
74 0.000997
89 0.002992
93 0.003039
84 0.002036
51 0.002011
79 0.002031
46 0.001995
77 0.00202
94 0.001014
125 0.002015
127 0.000971
118 0.001028
125 0.001043
133 0.003019
150 0.002992
157 0.001996
112 0.001996
68 0.00203
59 0.001995
51 0.002992
71 0.002023
100 0.002039
111 0.002027
113 0.001993
93 0.002007
85 0.002992
86 0.003046
80 0.002992
66 0.001973
65 0.002035
82 0.001995
100 0.002992
118 0.002992
151 0.003039
159 0.00299
158 0.003013
159 0.00299
136 0.003033
41 0.002986
9 0.002992
22 0.002026
45 0.001995
66 0.001994
75 0.002977
86 0.003029
96 0.002975
99 0.003991
99 0.002991
95 0.002988
99 0.002997
107 0.003058
110 0.002992
116 0.002985
127 0.002962
137 0.002031
144 0.002991
150 0.003056
165 0.004023
169 0.003954
112 0.003056
53 0.003041
32 0.003024
39 0.004024
57 0.003957
80 0.003027
97 0.003045
106 0.003037
111 0.00302
104 0.003022
101 0.004029
114 0.004021
129 0.003008
140 0.002997
149 0.003038
155 0.00399
157 0.003992
165 0.003024
170 0.003029
172 0.002992
143 0.004985
89 0.004018
53 0.00399
57 0.003993
80 0.003036
91 0.004028
115 0.003029
123 0.004025
119 0.00399
114 0.003007
116 0.003028
121 0.003
128 0.004018
140 0.004987
152 0.005002
161 0.005005
171 0.003988
175 0.004035
180 0.00403
182 0.00398
186 0.00399
180 0.003002
125 0.004017
66 0.003952
44 0.005011
46 0.005022
70 0.005022
84 0.005029
104 0.004021
113 0.004027
113 0.00402
112 0.004017
111 0.004987
115 0.005015
125 0.004988
132 0.00499
146 0.004027
152 0.005013
158 0.003991
161 0.00502
166 0.004989
172 0.004986
179 0.00399
185 0.004018
178 0.005026
121 0.004987
66 0.005005
57 0.004927
63 0.004988
76 0.005979
98 0.003993
106 0.004988
115 0.004981
116 0.003976
111 0.003988
109 0.004032
113 0.004969
120 0.004987
131 0.00499
135 0.004987
139 0.005027
144 0.005963
153 0.004981
157 0.004987
158 0.004986
168 0.004034
176 0.003976
180 0.003987
154 0.00498
94 0.005984
54 0.00502
59 0.004982
79 0.00501
93 0.005989
113 0.005024
122 0.005984
122 0.005988
113 0.004977
113 0.004992
118 0.004996
130 0.005984
139 0.005983
149 0.00498
155 0.004957
159 0.004985
165 0.005953
171 0.004987
176 0.00597
179 0.005972
183 0.004989
178 0.005028
134 0.004991
81 0.006981
60 0.006945
70 0.004972
88 0.005009
100 0.004987
110 0.005967
128 0.004997
128 0.005993
124 0.006017
122 0.005957
131 0.004968
139 0.00597
147 0.007007
155 0.006986
161 0.005948
166 0.005975
170 0.005974
173 0.005972
177 0.005992
178 0.005982
183 0.006943
187 0.004985
187 0.006
136 0.005975
81 0.006972
60 0.006947
73 0.005969
87 0.005962
95 0.005944
103 0.005973
115 0.005978
115 0.005979
110 0.005971
107 0.006994
109 0.005995
113 0.006008
115 0.005984
119 0.007018
125 0.006966
136 0.00599
143 0.005983
149 0.006018
165 0.005984
171 0.005986
169 0.007981
163 0.007974
92 0.006991
45 0.005988
39 0.00598
51 0.007001
65 0.00698
84 0.005995
99 0.005985
107 0.005984
104 0.005991
100 0.00602
101 0.00795
107 0.007972
111 0.006978
117 0.006983
123 0.006961
135 0.007976
141 0.006996
145 0.006972
148 0.006967
156 0.006
160 0.006972
161 0.006982
125 0.007965
86 0.007926
48 0.007
48 0.00698
61 0.007019
77 0.007972
90 0.007962
101 0.006962
101 0.006982
100 0.006978
87 0.007026
96 0.006972
107 0.007949
112 0.007963
120 0.00699
127 0.006983
135 0.006941
138 0.00798
145 0.00798
148 0.006977
149 0.006985
146 0.007009
55 0.007011
42 0.006978
47 0.00697
63 0.006995
74 0.007974
98 0.007969
108 0.006968
113 0.007951
106 0.007964
101 0.006989
104 0.006993
115 0.006981
127 0.006983
134 0.007004
139 0.00701
146 0.006982
152 0.006976
154 0.006988
153 0.006985
91 0.006979
53 0.007933
43 0.007959
61 0.006967
75 0.006993
94 0.006982
104 0.006978
101 0.006981
95 0.006983
94 0.006977
95 0.006972
100 0.006964
105 0.00698
108 0.006974
96 0.005946
99 0.00594
105 0.006007
114 0.006961
125 0.006976
135 0.006968
101 0.007014
47 0.006975
23 0.006989
29 0.006983
41 0.006981
47 0.005967
49 0.005972
61 0.005988
51 0.005981
18 0.005973
22 0.006947
40 0.006995
55 0.006977
61 0.006974
68 0.005986
73 0.005987
95 0.005961
108 0.006005
119 0.006011
121 0.006005
71 0.005995
15 0.004986
31 0.005971
54 0.005946
67 0.005981
76 0.006979
89 0.006974
94 0.006975
94 0.005988
80 0.005983
76 0.00596
89 0.005976
98 0.005983
117 0.005975
119 0.005988
125 0.005983
132 0.005972
112 0.00602
59 0.005027
45 0.004967
46 0.004974
67 0.004972
85 0.005978
101 0.005978
112 0.005919
112 0.005939
113 0.005922
106 0.00598
96 0.005972
77 0.00598
71 0.004934
80 0.004981
93 0.004983
102 0.004996
75 0.004988
48 0.005931
55 0.005967
98 0.005979
129 0.005972
133 0.00598
123 0.004991
108 0.005983
102 0.004952
105 0.004985
114 0.00501
127 0.004981
149 0.004968
176 0.004989
176 0.004975
91 0.004964
14 0.003991
12 0.00496
37 0.005971
69 0.004976
93 0.004966
104 0.004982
96 0.004996
90 0.004979
89 0.004992
103 0.004997
135 0.00497
142 0.004982
135 0.004961
118 0.003975
82 0.003975
54 0.003956
53 0.003982
77 0.005012
82 0.004987
85 0.004975
82 0.004973
80 0.004979
81 0.004959
83 0.003971
103 0.003975
126 0.004003
144 0.003969
153 0.003957
154 0.003974
147 0.003989
103 0.004991
63 0.004983
47 0.00498
54 0.004988
73 0.00497
110 0.003948
134 0.00396
136 0.003995
136 0.003937
131 0.003946
134 0.00399
179 0.003943
213 0.003922
247 0.003944
255 0.002989
255 0.003953
255 0.00498
226 0.003927
211 0.003987
219 0.004028
232 0.002985
239 0.003993
246 0.003951
227 0.003946
223 0.003988
223 0.003952
228 0.003953
234 0.00402
199 0.004015
208 0.002959
206 0.002965
183 0.002937
136 0.003987
68 0.003999
36 0.003995
41 0.003991
59 0.003954
73 0.00395
83 0.003976
95 0.003983
102 0.003022
98 0.003026
96 0.002993
103 0.002995
119 0.002957
128 0.002993
134 0.00302
143 0.00399
150 0.002994
154 0.003992
157 0.003992
166 0.002992
167 0.002992
82 0.002994
8 0.002989
11 0.002996
35 0.003029
51 0.002992
63 0.003029
81 0.002992
94 0.003991
93 0.00303
93 0.002995
93 0.002992
97 0.002993
113 0.002956
123 0.002992
133 0.002993
138 0.002994
142 0.002998
147 0.002993
155 0.002992
163 0.003026
165 0.002994
148 0.001985
76 0.002992
34 0.001995
42 0.002993
57 0.002993
75 0.002966
87 0.003047
96 0.002992
100 0.002992
94 0.002983
85 0.002995
90 0.001995
106 0.002024
116 0.00196
121 0.001996
134 0.001995
143 0.001992
150 0.002996
151 0.002033
154 0.002992
163 0.003024
168 0.001995
174 0.001995
157 0.001995
91 0.001995
52 0.001996
54 0.001997
79 0.001995
97 0.001996
117 0.002025
125 0.002008
123 0.00197
118 0.001005
112 0.000998
119 0.001979
128 0.001991
138 0.001996
148 0.001995
156 0.002032
163 0.002036
169 0.001966
174 0.001994
175 0.001996
178 0.001995
185 0.000988
187 0.00097
188 0.000999
137 0.000999
75 0.000994
55 0.000997
67 0.002041
101 0.002026
115 0.001995
137 0.001995
143 0.001995
138 0.001012
131 0.000997
131 0.000998
141 0.000998
144 0.000998
150 0.000997
161 0.002002
169 0.000998
177 0.000997
179 0.001996
188 0.000996
197 0.000991
194 0.000999
190 0.000996
188 0.000998
132 0.000999
70 0.000998
75 0.000998
98 0.000997
119 0.000997
139 0.000998
146 0.0
145 0.000998
135 0.00099
134 0.000999
142 0.0
149 0.000998
154 0.000997
163 0.000997
167 0.000989
170 0.000999
172 0.000998
184 0.0
189 0.0
193 0.0
195 0.0
184 0.0
119 0.0
69 0.000999
56 0.000997
75 0.000999
95 0.000998
109 0.000998
124 0.001025
134 0.0
131 0.0
127 0.0
129 0.0
136 0.0
140 0.0
147 0.0
151 0.0
153 0.0
158 0.0
165 0.0
169 0.001001
169 0.000993
175 0.0
148 0.0
73 0.0
54 0.0
60 0.0
75 0.0
92 0.0
111 0.0
119 0.0
118 0.0
109 0.0
110 0.000997
117 0.0
124 0.0
134 0.0
140 0.001032
145 0.0
153 0.0
156 0.0
156 0.000997
161 0.000997
168 0.0
168 0.000997
68 0.0
45 0.0
51 0.0
67 0.0
83 0.001028
104 0.0
116 0.0
113 0.0
103 0.001027
98 0.000996
109 0.0
119 0.0
131 0.0
141 0.0
146 0.0
149 0.001033
154 0.000999
158 0.000998
162 0.000957
160 0.0
96 0.000999
54 0.001031
44 0.0
59 0.0
78 0.001024
94 0.0
104 0.0
103 0.0
95 0.000998
89 0.000998
94 0.0
103 0.0
111 0.000999
122 0.001995
132 0.002022
139 0.0
140 0.001057
145 0.000996
147 0.0
154 0.0
158 0.000998
143 0.001026
62 0.000958
28 0.000998
24 0.000999
38 0.001996
52 0.001996
64 0.0
74 0.001997
75 0.000999
72 0.001022
70 0.000994
74 0.00103
82 0.001049
96 0.001011
103 0.00097
108 0.000971
114 0.001996
121 0.001996
127 0.002021
132 0.001965
132 0.000968
138 0.0
145 0.0
151 0.000999
157 0.000997
129 0.000983
62 0.000995
21 0.00095
13 0.002036
28 0.002032
44 0.000945
57 0.002027
70 0.000997
73 0.000995
67 0.000997
62 0.001997
69 0.002993
84 0.00204
91 0.000985
99 0.000997
108 0.001994
112 0.002006
120 0.00097
127 0.001996
131 0.000998
136 0.001969
138 0.00103
141 0.002993
148 0.002992
159 0.001007
161 0.001993
161 0.001993
112 0.002992
46 0.002991
17 0.000949
32 0.001983
52 0.000965
66 0.001008
75 0.000995
81 0.003004
80 0.003019
71 0.002025
75 0.002027
85 0.001968
95 0.00302
104 0.003037
118 0.002017
127 0.002059
135 0.001003
139 0.001006
145 0.001957
149 0.003018
152 0.002992
158 0.002991
167 0.002031
172 0.002031
177 0.002045
179 0.003028
137 0.003027
42 0.00403
33 0.00399
49 0.001994
64 0.001995
76 0.002002
89 0.002991
97 0.002993
95 0.001984
91 0.002032
91 0.002007
100 0.002968
112 0.003031
130 0.003948
135 0.003989
142 0.003017
146 0.002948
150 0.003038
152 0.003989
156 0.00399
157 0.002029
163 0.002007
169 0.001996
178 0.002993
182 0.00299
154 0.003034
83 0.004039
32 0.003005
31 0.003035
44 0.003017
56 0.004033
61 0.003989
72 0.003029
81 0.002989
77 0.002001
71 0.003956
73 0.003942
88 0.003939
97 0.003981
110 0.003002
119 0.002994
124 0.002965
130 0.003958
134 0.00399
136 0.002996
140 0.002983
145 0.002992
151 0.00497
156 0.004938
165 0.005006
161 0.004983
81 0.002994
29 0.002976
15 0.003004
26 0.003985
42 0.004001
56 0.002994
68 0.002995
78 0.003033
78 0.005036
73 0.004986
74 0.005022
85 0.003974
96 0.002973
108 0.002982
120 0.00299
125 0.005013
133 0.003988
139 0.003001
147 0.002992
151 0.003999
154 0.004989
163 0.004947
176 0.004981
177 0.004982
109 0.003989
54 0.003993
31 0.002967
36 0.004973
51 0.00497
66 0.004993
83 0.002989
94 0.003962
96 0.004017
92 0.00499
91 0.003987
102 0.004998
112 0.005007
125 0.003974
134 0.003011
142 0.004024
147 0.004987
153 0.005022
157 0.004989
161 0.003944
166 0.003982
170 0.005993
177 0.003957
185 0.00498
171 0.004992
82 0.003984
38 0.004001
27 0.003996
37 0.005985
52 0.006013
61 0.004986
73 0.00503
82 0.004988
82 0.006022
79 0.00399
81 0.004988
92 0.004985
107 0.004937
116 0.004002
123 0.003981
132 0.005979
134 0.005976
137 0.004967
142 0.004996
144 0.004999
148 0.005948
164 0.004995
168 0.005953
175 0.005982
178 0.004036
140 0.004013
68 0.005022
27 0.005983
16 0.005983
36 0.004994
48 0.004957
53 0.004992
66 0.005982
73 0.005024
70 0.005971
73 0.005984
78 0.00404
88 0.004977
99 0.004942
108 0.006957
117 0.006011
130 0.004985
136 0.004965
140 0.004995
144 0.005981
148 0.004992
156 0.005991
161 0.005978
178 0.004997
187 0.006032
191 0.005986
168 0.006965
103 0.006959
49 0.004979
44 0.004987
56 0.004979
70 0.005986
90 0.004987
103 0.006936
108 0.005976
104 0.004987
98 0.005938
104 0.005989
116 0.006996
129 0.006983
146 0.005978
156 0.004987
164 0.005983
166 0.00695
173 0.004996
174 0.006976
175 0.00701
179 0.007021
183 0.005994
191 0.005999
198 0.005977
202 0.006975
199 0.006975
115 0.005972
56 0.005958
39 0.005995
57 0.005977
68 0.005992
84 0.007929
93 0.007983
99 0.00602
100 0.005985
100 0.005958
96 0.006982
103 0.006941
114 0.005987
122 0.005963
137 0.005944
151 0.006008
158 0.006987
164 0.007974
163 0.007942
166 0.005995
171 0.005976
180 0.005977
191 0.007029
194 0.007969
196 0.005964
195 0.005992
149 0.006947
47 0.006994
35 0.006968
51 0.00795
68 0.007962
83 0.006986
94 0.007025
101 0.006997
104 0.007974
104 0.007978
99 0.005985
107 0.006005
120 0.006983
137 0.006983
150 0.006956
155 0.007979
161 0.007983
167 0.006954
169 0.006984
169 0.006987
178 0.007963
182 0.007979
187 0.006976
191 0.005958
190 0.006952
75 0.006976
47 0.006977
52 0.006977
61 0.007939
79 0.006996
89 0.007018
101 0.006981
110 0.007971
111 0.007944
105 0.006968
109 0.006981
116 0.006963
131 0.006989
143 0.006986
153 0.006976
159 0.006951
165 0.006943
168 0.006966
172 0.006975
177 0.007955
181 0.007971
184 0.006961
189 0.00698
193 0.006946
114 0.006972
58 0.006983
38 0.006943
47 0.006981
66 0.00699
75 0.006982
86 0.006982
95 0.006976
100 0.006987
100 0.006986
93 0.006999
96 0.006967
113 0.007007
120 0.006969
127 0.007007
135 0.006972
141 0.00699
146 0.006993
151 0.006968
155 0.006981
168 0.006009
172 0.005982
179 0.005993
186 0.006974
110 0.006991
55 0.006944
38 0.006968
47 0.006972
64 0.006969
79 0.006993
90 0.00698
101 0.005972
106 0.005979
102 0.005986
97 0.00595
103 0.005964
122 0.005959
130 0.005931
141 0.005975
148 0.006982
155 0.006999
160 0.006974
164 0.005971
167 0.005979
170 0.005991
174 0.005972
181 0.006008
156 0.006004
58 0.00598
39 0.005968
48 0.005985
64 0.005979
74 0.004985
88 0.005968
99 0.005985
102 0.00598
98 0.006
94 0.006011
100 0.006025
109 0.006013
124 0.005974
133 0.005993
139 0.006017
144 0.005988
146 0.005994
152 0.005005
154 0.004976
158 0.004962
161 0.004983
167 0.005977
169 0.005974
136 0.00597
36 0.005974
23 0.005984
36 0.00597
54 0.005973
64 0.004979
77 0.004987
89 0.005012
93 0.004976
88 0.004988
85 0.004987
92 0.004991
103 0.005974
120 0.005952
130 0.005976
135 0.00496
142 0.004982
147 0.004987
150 0.004996
156 0.004994
162 0.005021
168 0.005013
174 0.005024
180 0.005021
162 0.00502
63 0.00498
41 0.004962
50 0.003988
68 0.005
80 0.004969
91 0.004985
103 0.004992
107 0.004992
105 0.004988
99 0.00499
100 0.004993
116 0.005031
126 0.003971
139 0.003977
144 0.003992
147 0.003989
151 0.00402
155 0.003957
164 0.005027
171 0.004987
176 0.004945
180 0.005023
185 0.004987
188 0.005014
166 0.004026
77 0.004041
45 0.004016
49 0.00404
64 0.004026
76 0.003992
91 0.003992
100 0.003989
104 0.00399
106 0.004976
102 0.002958
102 0.005023
120 0.004021
131 0.003991
140 0.003992
146 0.004028
151 0.00399
155 0.00404
160 0.003991
162 0.003992
166 0.003959
169 0.003988
172 0.003982
176 0.002953
185 0.003951
190 0.00399
186 0.00399
128 0.003991
62 0.004025
40 0.004028
53 0.004035
69 0.003951
80 0.004027
89 0.003974
99 0.002989
103 0.002991
99 0.002992
101 0.002999
107 0.002962
118 0.003991
127 0.002993
135 0.004049
143 0.003993
150 0.003951
155 0.003987
158 0.002956
160 0.002952
164 0.002974
171 0.002987
174 0.002996
178 0.002992
184 0.002992
147 0.003048
80 0.003019
42 0.003009
54 0.003946
69 0.004022
83 0.002989
93 0.002987
108 0.002965
113 0.002992
109 0.002993
107 0.002993
115 0.002993
126 0.003022
138 0.003026
147 0.002989
154 0.002959
161 0.001956
165 0.001967
167 0.002962
172 0.002965
176 0.002994
180 0.002992
185 0.002993
190 0.003024
187 0.00303
139 0.003029
76 0.00203
46 0.001993
57 0.001995
74 0.002004
85 0.001979
95 0.00202
109 0.00203
111 0.001996
104 0.002992
103 0.002992
111 0.001994
120 0.003029
127 0.002031
138 0.001997
146 0.002006
150 0.002004
154 0.00201
156 0.001969
162 0.001995
165 0.001995
168 0.001995
171 0.000998
177 0.002031
175 0.002028
125 0.001945
51 0.001968
39 0.001958
46 0.012932
57 0.000958
74 0.000997
88 0.002035
95 0.002022
95 0.000999
92 0.001997
94 0.001036
103 0.000997
112 0.000971
122 0.001999
131 0.001993
137 0.001992
141 0.001985
148 0.001986
154 0.001996
160 0.001995
161 0.00198
166 0.001027
174 0.000996
181 0.000999
169 0.00097
88 0.001035
56 0.000987
53 0.000999
66 0.001971
82 0.002027
100 0.001996
112 0.002023
117 0.000998
111 0.001006
109 0.000998
115 0.000998
125 0.000998
138 0.001
148 0.001021
155 0.000984
164 0.001042
170 0.001986
173 0.000997
178 0.001995
180 0.000998
186 0.001032
192 0.000989
194 0.000999
175 0.000999
95 0.000993
66 0.001008
70 0.001024
85 0.000997
101 0.000984
116 0.002031
126 0.000997
125 0.000997
118 0.000995
119 0.000999
124 0.000997
135 0.000998
146 0.000992
158 0.001011
169 0.001021
175 0.001016
177 0.000989
179 0.0
181 0.0
186 0.0
188 0.0
187 0.0
193 0.0
203 0.001038
205 0.001006
134 0.000996
74 0.000998
53 0.000998
56 0.001033
76 0.0
83 0.0
89 0.0
96 0.0
100 0.0
98 0.0
96 0.0
102 0.0
116 0.0
121 0.0
129 0.000994
137 0.0
144 0.0
148 0.0
152 0.0
156 0.0
158 0.0
162 0.0
166 0.0
170 0.0
177 0.0
179 0.0
132 0.000999
47 0.001007
29 0.0
46 0.0
60 0.0
69 0.0
81 0.0
88 0.0
91 0.0
88 0.0
87 0.000974
92 0.000961
103 0.001
116 0.000985
130 0.0
134 0.0
141 0.0
146 0.0
148 0.001025
153 0.0
159 0.0
162 0.000971
168 0.000971
174 0.000997
183 0.000997
190 0.0
106 0.0
53 0.0
46 0.0
57 0.00204
72 0.002032
90 0.00096
101 0.00097
109 0.000996
110 0.001
104 0.001992
101 0.0
109 0.0
126 0.0
137 0.0
142 0.000997
149 0.000995
154 0.000998
159 0.002037
165 0.0
168 0.0
170 0.0
175 0.001001
178 0.000998
182 0.000947
182 0.001044
106 0.0
51 0.0
36 0.0
46 0.001035
61 0.001998
73 0.0
81 0.0
89 0.0
95 0.001993
90 0.002019
83 0.0
90 0.001043
106 0.0
116 0.0
124 0.0
128 0.000999
134 0.001944
142 0.0
146 0.0
146 0.0
151 0.001971
156 0.002005
160 0.0
169 0.002025
126 0.000962
54 0.000967
21 0.000997
21 0.002026
37 0.001993
54 0.0
63 0.0
72 0.000967
79 0.001993
80 0.001995
73 0.0
82 0.001989
95 0.001048
106 0.001022
120 0.000996
127 0.00296
132 0.003019
144 0.001005
146 0.001994
149 0.001005
153 0.001995
160 0.001996
166 0.001994
179 0.001996
169 0.002022
106 0.00204
54 0.000991
40 0.002947
50 0.003018
77 0.000948
87 0.001984
96 0.001993
104 0.003025
106 0.002045
99 0.001994
102 0.001996
113 0.000972
125 0.001999
137 0.00199
146 0.003025
152 0.002994
161 0.001006
162 0.000988
162 0.002007
167 0.00296
172 0.002993
180 0.0
185 0.001973
189 0.000993
141 0.001943
75 0.001992
44 0.003025
47 0.002997
69 0.000998
82 0.000996
89 0.000943
98 0.002969
103 0.002943
103 0.001992
98 0.002971
103 0.004
117 0.001961
126 0.002008
133 0.00202
142 0.002976
145 0.002964
150 0.00103
152 0.000958
157 0.000966
160 0.003989
164 0.00396
171 0.003992
177 0.003988
175 0.001986
119 0.00199
53 0.002012
27 0.003996
33 0.003939
58 0.00199
69 0.002956
78 0.000976
90 0.003002
96 0.003937
94 0.003984
91 0.00399
98 0.002994
107 0.001969
117 0.00196
127 0.003963
134 0.003974
140 0.001995
148 0.001966
152 0.002962
155 0.00394
161 0.003956
172 0.003965
178 0.003999
177 0.002996
121 0.002991
60 0.003008
37 0.003972
49 0.00399
73 0.002992
86 0.002958
99 0.00297
113 0.004949
114 0.004995
106 0.003979
104 0.004974
118 0.003012
129 0.001994
139 0.00296
145 0.003935
153 0.00399
162 0.003008
165 0.003017
169 0.002964
173 0.004961
176 0.004987
182 0.004947
187 0.004985
158 0.002995
88 0.003989
47 0.002993
44 0.003954
61 0.003993
82 0.003999
92 0.004
99 0.004027
108 0.004991
109 0.004943
101 0.004956
105 0.004991
116 0.002996
127 0.003004
135 0.002987
142 0.004944
147 0.004962
151 0.00399
155 0.003957
156 0.003993
159 0.004999
165 0.005037
174 0.004999
179 0.004969
146 0.002997
73 0.00299
33 0.003014
30 0.002992
48 0.004989
64 0.004988
76 0.003962
82 0.003964
91 0.003955
94 0.00604
88 0.003993
92 0.005017
100 0.00502
114 0.003943
121 0.004024
128 0.004947
135 0.004972
140 0.006024
145 0.003977
147 0.003961
150 0.003966
157 0.005979
165 0.003987
169 0.005039
126 0.005016
44 0.003962
27 0.003988
38 0.003949
57 0.006025
71 0.005986
85 0.004955
98 0.004954
102 0.003991
97 0.005986
94 0.003963
104 0.005973
117 0.005999
127 0.004952
133 0.004983
142 0.004955
148 0.005979
152 0.006016
158 0.004947
164 0.004989
168 0.004985
171 0.006027
180 0.004957
158 0.005984
86 0.005984
32 0.003939
36 0.00499
54 0.004988
70 0.007024
82 0.007015
94 0.004989
101 0.004984
101 0.004952
95 0.006036
98 0.004981
108 0.006023
118 0.006018
130 0.00595
139 0.005952
147 0.005019
152 0.007009
156 0.007026
160 0.004951
162 0.005006
165 0.004988
169 0.00699
178 0.005
180 0.007015
127 0.005975
41 0.006013
25 0.005952
35 0.005958
54 0.007008
66 0.007009
78 0.005021
84 0.00498
90 0.004973
92 0.007034
89 0.005928
93 0.006982
104 0.007979
117 0.007968
126 0.005966
132 0.005982
137 0.005976
144 0.006978
150 0.006988
155 0.00599
158 0.004993
162 0.00598
172 0.00495
176 0.00598
180 0.007956
175 0.007978
82 0.005978
34 0.005999
32 0.005977
50 0.007017
68 0.00701
87 0.005992
101 0.005978
105 0.006949
106 0.005974
106 0.006977
109 0.007978
120 0.007996
128 0.006018
135 0.005986
146 0.005982
156 0.007969
160 0.007983
167 0.005955
172 0.005954
176 0.006953
180 0.006955
181 0.006961
189 0.007977
188 0.008004
111 0.006977
54 0.00601
43 0.006968
57 0.007982
83 0.007948
94 0.005988
107 0.005984
116 0.006935
115 0.006969
116 0.006969
116 0.006977
122 0.007948
135 0.006958
148 0.00693
157 0.007002
164 0.00798
173 0.006982
176 0.006031
176 0.006965
179 0.006981
183 0.006952
186 0.006978
188 0.006987
192 0.00696
188 0.006935
122 0.006938
52 0.006951
29 0.007978
49 0.006979
68 0.006982
84 0.006957
93 0.006983
105 0.006979
105 0.006967
98 0.00698
99 0.006929
108 0.00695
118 0.006981
126 0.006958
141 0.006983
147 0.005988
155 0.006978
161 0.006974
164 0.00695
170 0.006991
174 0.006987
179 0.006996
181 0.006983
182 0.006974
113 0.006956
48 0.006013
32 0.005959
47 0.005987
71 0.005999
96 0.005993
106 0.005985
112 0.006987
107 0.006945
97 0.006956
93 0.006984
99 0.007006
116 0.006968
124 0.006982
137 0.005949
146 0.00596
151 0.005981
151 0.00598
155 0.005982
161 0.00601
168 0.005989
175 0.006009
177 0.006029
147 0.006994
46 0.006969
17 0.007009
28 0.005972
47 0.005952
61 0.006024
79 0.005988
91 0.005987
97 0.005971
93 0.005991
86 0.005937
90 0.005979
104 0.004989
114 0.005959
120 0.004959
130 0.004981
139 0.00595
141 0.005991
144 0.005984
148 0.006009
159 0.005984
166 0.005981
169 0.005961
175 0.004983
155 0.00598
58 0.005969
19 0.005028
19 0.004983
32 0.004992
50 0.004971
67 0.005992
79 0.005988
89 0.005984
83 0.005966
81 0.005972
85 0.005007
93 0.005026
106 0.004987
118 0.004976
126 0.004987
130 0.004991
139 0.005016
145 0.004986
146 0.005028
156 0.004985
159 0.004965
162 0.005982
170 0.005989
166 0.004987
72 0.004985
25 0.00501
22 0.00499
37 0.004987
55 0.004995
73 0.004991
90 0.004991
101 0.004987
94 0.004991
86 0.004991
90 0.003993
102 0.004987
114 0.004985
124 0.004986
134 0.004988
145 0.00498
153 0.004957
155 0.004992
159 0.004999
166 0.004993
175 0.00399
179 0.003988
181 0.003973
166 0.004005
94 0.003941
31 0.003943
32 0.004991
50 0.004966
63 0.004986
75 0.004984
91 0.004967
97 0.004948
91 0.003963
86 0.003989
91 0.003989
101 0.003989
112 0.003989
123 0.004038
130 0.00399
141 0.003957
146 0.003967
146 0.003961
152 0.004994
156 0.004006
163 0.004046
165 0.003988
169 0.003952
176 0.003987
148 0.003989
44 0.003945
16 0.003957
21 0.003987
36 0.003989
49 0.004023
63 0.002964
76 0.002966
80 0.003962
81 0.003993
79 0.003988
84 0.003997
93 0.00399
106 0.003949
116 0.003984
125 0.003994
133 0.003993
138 0.00399
142 0.002987
150 0.002993
154 0.002966
159 0.002968
166 0.002933
168 0.002993
141 0.003958
47 0.003987
13 0.003956
15 0.002956
38 0.003964
53 0.00399
61 0.002963
73 0.002961
85 0.002958
82 0.00302
79 0.002989
85 0.002946
97 0.001994
111 0.003952
121 0.002998
130 0.003962
140 0.002992
145 0.002966
148 0.002962
155 0.002959
165 0.002986
167 0.00302
173 0.002993
180 0.002991
147 0.002981
51 0.002995
29 0.002027
36 0.002028
56 0.002993
71 0.002965
82 0.002965
103 0.002951
109 0.00293
100 0.003025
99 0.002993
106 0.002969
116 0.002989
125 0.00304
140 0.002985
149 0.002003
154 0.002001
160 0.001999
163 0.001983
169 0.002015
178 0.001998
179 0.001994
185 0.002964
195 0.00299
172 0.003019
90 0.003021
34 0.002031
36 0.001987
54 0.001968
70 0.001994
81 0.001996
97 0.001952
108 0.001991
98 0.002007
97 0.001937
105 0.002
112 0.001996
122 0.000998
140 0.002024
145 0.001992
149 0.001995
157 0.001999
163 0.001995
163 0.001961
169 0.00195
178 0.001963
180 0.000997
181 0.001032
186 0.002035
187 0.000972
95 0.000966
34 0.000987
24 0.001961
39 0.002001
59 0.001965
77 0.001954
90 0.002001
105 0.001998
103 0.001003
96 0.000998
98 0.000999
104 0.001046
113 0.001004
126 0.000996
135 0.001015
139 0.001033
150 0.001029
159 0.001978
163 0.002036
167 0.000997
172 0.002028
179 0.000956
182 0.000967
187 0.000998
196 0.001033
189 0.000991
112 0.001011
45 0.001
27 0.001003
46 0.000974
75 0.001033
91 0.000988
106 0.000998
115 0.000994
109 0.000997
100 0.000998
103 0.001002
113 0.000997
123 0.001013
133 0.000983
144 0.001001
152 0.001031
164 0.0
169 0.0
172 0.0
179 0.0
183 0.0
187 0.0
191 0.0
196 0.001049
200 0.000959
175 0.00096
91 0.000981
38 0.001001
39 0.0
59 0.0
81 0.0
92 0.0
103 0.0
106 0.0
103 0.0
97 0.0
99 0.0
109 0.0
120 0.00101
130 0.000993
145 0.0
152 0.0
157 0.0
162 0.0
164 0.0
166 0.000971
169 0.0
176 0.0
181 0.0
186 0.0
118 0.00096
62 0.00097
16 0.0
38 0.0
53 0.0
66 0.000995
77 0.0
87 0.0
91 0.0
86 0.001008
83 0.001013
92 0.0
102 0.0
111 0.0
126 0.000956
133 0.0
138 0.000999
144 0.0
146 0.000966
149 0.000988
151 0.0
156 0.000997
163 0.001997
167 0.0
145 0.000936
43 0.0
6 0.0
21 0.000991
37 0.002036
47 0.001997
63 0.0
72 0.000966
74 0.0
70 0.000968
69 0.000998
80 0.0
89 0.0
98 0.0
115 0.0
120 0.0
124 0.001994
131 0.001965
135 0.0
140 0.001005
148 0.0
157 0.001037
159 0.001004
151 0.000985
61 0.000971
26 0.000993
18 0.0
37 0.0
51 0.000998
62 0.001974
77 0.001998
86 0.0
80 0.000963
75 0.0
80 0.002001
92 0.001977
107 0.000968
117 0.0
129 0.0
138 0.0
142 0.0
144 0.001044
147 0.001949
156 0.0
160 0.0
164 0.0
138 0.001995
68 0.001986
20 0.0
26 0.0
51 0.000999
66 0.0
77 0.001938
84 0.002962
88 0.002955
84 0.000993
80 0.0
89 0.0
102 0.001997
110 0.001969
119 0.001009
129 0.000983
141 0.0
145 0.001002
146 0.001966
149 0.00295
155 0.002956
160 0.000998
163 0.00199
170 0.0
164 0.001969
92 0.001938
20 0.002001
16 0.001997
41 0.001031
53 0.002038
61 0.0
70 0.002011
77 0.00299
77 0.001959
75 0.0
80 0.001993
88 0.002946
97 0.002965
111 0.002016
118 0.001988
129 0.002034
134 0.000972
142 0.001965
148 0.002954
149 0.002992
149 0.0
153 0.002015
157 0.002001
163 0.002994
170 0.002989
108 0.001996
37 0.002019
14 0.002002
36 0.000998
55 0.002026
61 0.003028
73 0.00302
89 0.002001
91 0.001977
89 0.001953
85 0.00296
91 0.003034
104 0.001003
114 0.001994
130 0.000996
141 0.000998
147 0.00105
149 0.00399
154 0.00302
162 0.002993
166 0.001008
170 0.000972
179 0.001994
187 0.002992
192 0.003026
181 0.001993
87 0.003977
52 0.002006
63 0.00202
83 0.002029
99 0.00399
111 0.003992
129 0.002025
133 0.000945
130 0.002989
123 0.003992
121 0.003992
134 0.001958
153 0.003992
170 0.001986
179 0.002004
186 0.002991
192 0.003991
195 0.004035
194 0.001996
193 0.003056
196 0.002991
202 0.004031
207 0.004018
216 0.002994
218 0.003991
139 0.002005
82 0.002991
71 0.001996
87 0.004019
106 0.003985
119 0.002002
128 0.001994
136 0.002011
139 0.003986
138 0.003977
135 0.002988
142 0.004949
154 0.002994
163 0.002989
171 0.001996
179 0.00399
185 0.004989
188 0.001953
189 0.00295
190 0.002943
193 0.005042
198 0.005018
201 0.002987
205 0.004987
215 0.002966
219 0.002966
178 0.002954
98 0.004018
61 0.00399
72 0.003029
94 0.002963
106 0.002927
117 0.005017
130 0.004987
142 0.002958
134 0.004988
129 0.002954
136 0.002947
143 0.001995
151 0.005988
159 0.005031
167 0.003047
176 0.00302
182 0.003955
185 0.004988
188 0.005027
193 0.003031
200 0.004989
207 0.002981
209 0.003003
214 0.003958
207 0.005023
134 0.004988
63 0.003989
63 0.003989
86 0.003991
108 0.005984
119 0.005023
128 0.005009
144 0.004989
143 0.004979
132 0.003977
135 0.00399
144 0.002984
153 0.004928
162 0.006022
171 0.003945
179 0.003991
184 0.003958
188 0.006003
191 0.005984
196 0.005032
198 0.005016
203 0.004956
207 0.003959
211 0.003991
185 0.005986
105 0.006034
51 0.003988
55 0.003996
72 0.003962
93 0.006012
104 0.006014
121 0.006011
128 0.006014
121 0.003994
117 0.003978
125 0.003986
132 0.006021
140 0.006014
153 0.004988
161 0.004017
167 0.003979
172 0.006016
175 0.00701
181 0.006037
183 0.007015
186 0.004947
186 0.004951
191 0.004959
185 0.006985
114 0.007011
35 0.004007
29 0.003994
47 0.004993
68 0.005986
77 0.006025
96 0.005992
102 0.006013
102 0.003976
95 0.00496
96 0.004956
104 0.006982
116 0.006954
126 0.003989
133 0.004973
142 0.004986
147 0.006013
150 0.006008
152 0.006014
158 0.005963
161 0.005012
164 0.004975
170 0.004984
164 0.006979
96 0.007011
18 0.005004
16 0.004984
35 0.004994
55 0.006987
66 0.006982
86 0.006983
96 0.007026
93 0.004989
86 0.004987
89 0.00499
101 0.006982
112 0.007018
124 0.005039
136 0.004956
144 0.005953
149 0.006982
156 0.007018
159 0.007979
165 0.007978
168 0.004987
172 0.005024
176 0.004985
138 0.006981
64 0.007019
27 0.004989
37 0.004984
60 0.004993
78 0.004996
89 0.006981
111 0.005945
112 0.007942
108 0.007982
107 0.005982
114 0.005024
123 0.004926
131 0.00698
140 0.007012
147 0.004985
153 0.004986
158 0.00598
162 0.007979
168 0.005988
169 0.007983
175 0.007957
180 0.005955
183 0.005984
148 0.005982
67 0.007979
20 0.007983
29 0.00597
48 0.00599
65 0.005985
78 0.007979
93 0.005978
95 0.007976
92 0.007979
90 0.005986
97 0.005966
103 0.006
112 0.007979
123 0.007945
132 0.005983
138 0.005987
146 0.006946
149 0.007022
150 0.005955
155 0.007992
161 0.007986
164 0.004935
167 0.005986
169 0.005952
86 0.007964
38 0.007978
6 0.005987
22 0.006975
45 0.006969
61 0.007027
79 0.006966
87 0.007006
89 0.007942
84 0.007005
81 0.006013
90 0.005983
103 0.007951
115 0.006981
124 0.006976
131 0.006977
138 0.006954
146 0.007021
150 0.006973
163 0.006955
164 0.007007
169 0.006982
178 0.006969
176 0.005982
91 0.007973
35 0.007948
23 0.006977
39 0.006967
62 0.006934
71 0.007006
91 0.006946
99 0.006998
95 0.006976
85 0.006002
90 0.005939
97 0.006949
112 0.006016
121 0.007008
132 0.007042
136 0.006955
146 0.006979
147 0.007007
153 0.006971
157 0.005987
160 0.005979
166 0.006947
170 0.006936
123 0.005987
50 0.006011
18 0.006015
24 0.005981
41 0.005974
51 0.006979
62 0.006983
75 0.006958
78 0.006976
78 0.006924
73 0.006979
79 0.005987
93 0.005984
101 0.005983
109 0.005987
120 0.006016
129 0.005959
132 0.005959
138 0.005994
141 0.005958
145 0.005995
148 0.006967
153 0.005956
161 0.005981
159 0.005969
94 0.005948
18 0.005989
0 0.005987
4 0.005986
25 0.005984
44 0.005946
63 0.005988
66 0.004986
68 0.005015
70 0.005969
73 0.005984
76 0.005985
86 0.006009
99 0.006011
113 0.006013
126 0.005964
131 0.005987
136 0.005989
142 0.00598
143 0.00499
147 0.004993
155 0.004984
171 0.004994
174 0.004996
168 0.005029
101 0.005986
33 0.006016
11 0.006013
32 0.006016
53 0.00604
72 0.005983
84 0.004994
92 0.005029
90 0.004986
76 0.004988
78 0.004986
88 0.004987
100 0.004985
112 0.004987
123 0.004986
134 0.004987
148 0.006023
152 0.006019
153 0.004985
159 0.004995
165 0.004975
169 0.004991
174 0.004969
168 0.004978
100 0.004965
31 0.004988
17 0.004985
34 0.004984
51 0.00399
69 0.004987
77 0.004982
84 0.004962
81 0.004979
74 0.004993
81 0.004991
92 0.004985
105 0.004989
119 0.004979
132 0.004979
137 0.003996
142 0.003989
148 0.003985
155 0.004994
160 0.003961
163 0.003955
165 0.003962
174 0.004988
181 0.00498
182 0.004984
131 0.004959
47 0.004955
4 0.003971
12 0.003934
43 0.003964
53 0.003992
64 0.00399
77 0.003959
78 0.003953
71 0.003961
69 0.003948
77 0.003954
86 0.003989
98 0.003985
112 0.003962
126 0.003985
144 0.003989
145 0.003989
145 0.00399
152 0.004024
154 0.003963
161 0.004016
172 0.003955
186 0.003999
189 0.00297
175 0.003003
59 0.003962
9 0.00399
17 0.003955
32 0.003993
52 0.003979
71 0.003966
92 0.002997
97 0.004012
91 0.003941
80 0.003961
77 0.003982
80 0.003022
103 0.002985
121 0.002962
137 0.002959
142 0.00296
147 0.004026
147 0.003988
145 0.00399
142 0.003986
149 0.00399
165 0.002993
174 0.002958
132 0.003004
34 0.002992
8 0.002988
33 0.002998
51 0.002985
65 0.002981
77 0.00302
86 0.003955
87 0.003953
79 0.004
79 0.00294
85 0.002994
98 0.002999
117 0.002993
126 0.003001
139 0.00296
145 0.002973
146 0.002989
146 0.003029
148 0.003054
154 0.002987
159 0.002005
127 0.001977
52 0.002001
8 0.002958
11 0.002991
31 0.002991
46 0.002993
61 0.002991
74 0.002997
74 0.002984
69 0.002988
66 0.002005
69 0.002017
81 0.001965
95 0.001993
105 0.001996
113 0.002001
127 0.002946
131 0.000997
135 0.001952
140 0.002978
148 0.001987
150 0.001995
100 0.001956
15 0.001967
0 0.001996
9 0.002008
27 0.001999
38 0.001964
54 0.002007
69 0.002034
68 0.001975
65 0.000998
72 0.000996
85 0.002005
97 0.001994
109 0.002029
119 0.001959
128 0.001996
131 0.001982
138 0.001975
148 0.001989
152 0.001997
160 0.001998
157 0.001009
94 0.000999
33 0.001037
17 0.000938
38 0.001016
58 0.001988
71 0.001949
83 0.001997
95 0.001996
95 0.001988
88 0.001983
96 0.000997
111 0.000969
121 0.000995
129 0.000997
139 0.000961
148 0.001005
154 0.001019
159 0.000996
161 0.000998
167 0.00198
176 0.001992
179 0.002032
118 0.001995
52 0.000994
33 0.001004
42 0.001025
60 0.000998
76 0.001994
86 0.001973
98 0.001007
104 0.0
100 0.001032
99 0.000997
106 0.000997
122 0.000976
131 0.000962
138 0.000992
147 0.00099
153 0.000989
158 0.000999
161 0.001007
166 0.001991
169 0.001971
172 0.0
181 0.0
146 0.0
53 0.0
35 0.0
42 0.001003
58 0.000976
66 0.001
75 0.000995
87 0.001017
93 0.000987
95 0.0
95 0.001015
96 0.001006
110 0.0
118 0.0
130 0.0
139 0.0
146 0.0
151 0.001042
154 0.0
161 0.001
166 0.000993
169 0.000997
171 0.0
179 0.0
165 0.0
86 0.0
27 0.0
34 0.0
52 0.0
68 0.0
80 0.0
95 0.000998
98 0.0
102 0.0
100 0.0
100 0.0
117 0.0
128 0.0
146 0.000997
154 0.0
158 0.0
163 0.0
168 0.000962
172 0.00199
181 0.001006
192 0.0
195 0.000958
200 0.000996
201 0.0
107 0.001002
62 0.002005
63 0.00199
87 0.0
101 0.0
110 0.0
124 0.001978
133 0.001992
133 0.000966
132 0.0
133 0.000997
148 0.0
158 0.000996
166 0.000997
172 0.001995
178 0.000979
184 0.0
188 0.0
191 0.001973
194 0.001981
196 0.0
203 0.0
206 0.0
211 0.0
147 0.0
70 0.001998
50 0.001992
70 0.001015
89 0.000995
101 0.0
109 0.001036
118 0.002008
123 0.0
124 0.0
123 0.0
136 0.0
149 0.001024
161 0.002001
172 0.002995
176 0.0
179 0.00097
180 0.000997
184 0.002
187 0.001998
188 0.000977
203 0.0
212 0.0
229 0.0
206 0.0
124 0.002946
74 0.001943
66 0.001985
87 0.0
107 0.0
123 0.0
138 0.002024
153 0.001992
152 0.000942
142 0.000976
140 0.0
148 0.0
159 0.000959
171 0.002003
180 0.002011
194 0.0
199 0.0
203 0.0
208 0.001996
213 0.002005
216 0.0
221 0.0
229 0.000955
191 0.000968
113 0.0
80 0.002019
87 0.002996
111 0.0
126 0.0
141 0.0
155 0.001996
163 0.002031
159 0.0
155 0.0
160 0.0
169 0.0
175 0.0
182 0.002966
190 0.002992
197 0.001032
197 0.001991
199 0.002024
203 0.001992
203 0.002029
209 0.00202
200 0.002
89 0.0
60 0.001006
66 0.0
90 0.003023
110 0.00295
123 0.001999
138 0.002006
146 0.002035
144 0.002985
138 0.003004
137 0.001957
143 0.001995
158 0.0
167 0.000948
176 0.001
182 0.002977
186 0.002985
187 0.001998
190 0.002009
193 0.001997
195 0.002945
197 0.002978
135 0.002982
61 0.001993
48 0.000973
70 0.0
88 0.000971
102 0.002985
116 0.002992
130 0.001971
129 0.001983
124 0.001979
120 0.00302
125 0.002985
139 0.001999
146 0.001994
161 0.002005
170 0.0
174 0.001995
178 0.002992
181 0.002993
187 0.001987
188 0.001996
193 0.001993
165 0.003989
87 0.002992
38 0.002001
49 0.001982
79 0.003988
104 0.002009
119 0.001997
130 0.001027
133 0.004028
129 0.004029
123 0.002019
128 0.001992
135 0.002005
147 0.003025
157 0.003038
166 0.001994
173 0.004025
180 0.002004
184 0.001999
185 0.001995
189 0.003989
165 0.004026
70 0.002031
40 0.002044
47 0.001961
66 0.003989
82 0.003994
102 0.001931
119 0.003943
118 0.00202
112 0.002938
107 0.001991
114 0.004019
123 0.003992
137 0.001995
146 0.002964
152 0.002956
159 0.005021
164 0.005021
170 0.001996
172 0.00399
172 0.001996
137 0.002007
57 0.001993
17 0.003994
20 0.00403
45 0.002999
58 0.00299
71 0.002963
83 0.005023
93 0.004987
93 0.002042
85 0.00399
92 0.001969
105 0.002005
110 0.001988
117 0.004019
128 0.004984
139 0.002988
142 0.002962
145 0.003016
151 0.005015
150 0.005014
67 0.002966
9 0.005013
12 0.00299
36 0.00294
54 0.001995
66 0.006022
82 0.005985
92 0.001976
85 0.002947
82 0.002974
86 0.004989
95 0.00499
110 0.002953
123 0.005023
135 0.00396
142 0.002997
149 0.002022
153 0.004986
157 0.006025
153 0.002985
95 0.002956
29 0.002993
8 0.006014
16 0.004989
37 0.004981
63 0.004959
79 0.004959
88 0.003956
84 0.003021
77 0.003971
78 0.005986
86 0.005984
100 0.003995
109 0.003978
119 0.003998
131 0.006021
140 0.005988
145 0.004987
148 0.005985
153 0.002993
160 0.002992
164 0.001999
125 0.005947
45 0.005984
0 0.00401
2 0.003963
20 0.002995
34 0.005986
46 0.006016
66 0.006005
71 0.006981
63 0.004012
61 0.004028
72 0.004019
81 0.00602
93 0.005985
110 0.003994
118 0.003975
121 0.003983
130 0.006007
136 0.006033
145 0.005973
149 0.006982
156 0.004964
163 0.004988
156 0.004011
80 0.007009
15 0.007016
0 0.003972
14 0.003976
33 0.00399
47 0.005985
61 0.006028
79 0.005986
80 0.006988
75 0.004979
78 0.004979
89 0.004971
100 0.007009
113 0.007018
126 0.004019
135 0.004041
143 0.003993
150 0.00601
156 0.006027
162 0.006989
165 0.006987
175 0.004983
181 0.004969
186 0.004972
189 0.007006
128 0.007025
30 0.004996
10 0.003993
26 0.004986
46 0.007981
62 0.00794
89 0.007981
99 0.007982
95 0.004985
90 0.004998
94 0.004972
103 0.007024
114 0.007032
130 0.004978
138 0.004982
147 0.005983
156 0.007013
163 0.007942
168 0.007985
170 0.007994
173 0.007963
178 0.004962
187 0.005021
190 0.004979
153 0.006992
66 0.007016
8 0.004989
14 0.005994
32 0.005946
49 0.007979
74 0.005952
87 0.007978
90 0.007949
85 0.005952
82 0.00499
88 0.005984
103 0.007012
114 0.007986
126 0.005947
134 0.005956
142 0.005944
154 0.007957
160 0.00594
164 0.007971
167 0.007964
172 0.005945
177 0.005995
182 0.006921
174 0.007958
124 0.00798
21 0.005983
1 0.006012
13 0.006002
35 0.006978
53 0.005956
74 0.007991
81 0.006982
79 0.00599
73 0.006
73 0.005015
82 0.007986
96 0.00795
109 0.006979
121 0.005984
131 0.005983
140 0.006993
149 0.005983
154 0.007984
162 0.007973
166 0.005979
169 0.005954
178 0.005985
188 0.007976
169 0.00702
80 0.00696
7 0.00698
2 0.006009
22 0.007009
55 0.006957
69 0.006982
82 0.006989
91 0.005974
88 0.005983
81 0.005983
87 0.007964
98 0.006982
116 0.006956
128 0.006952
140 0.00698
149 0.007007
156 0.005983
159 0.007014
163 0.006981
169 0.006956
173 0.00599
179 0.005989
182 0.005984
137 0.006012
38 0.006974
10 0.006954
16 0.00694
30 0.007007
56 0.006944
70 0.007008
78 0.006014
76 0.006003
74 0.006945
68 0.005969
77 0.005984
90 0.006
109 0.005946
123 0.005944
134 0.005983
142 0.005993
152 0.006952
157 0.006951
160 0.005987
164 0.006015
173 0.005974
168 0.005954
103 0.005978
27 0.006024
0 0.006009
2 0.005985
20 0.005985
32 0.005985
54 0.005987
68 0.005981
70 0.005029
59 0.005956
60 0.005955
73 0.005983
86 0.00598
97 0.006032
110 0.006019
123 0.005976
130 0.005981
134 0.00598
144 0.005975
148 0.00598
151 0.005013
158 0.004987
173 0.004985
171 0.005979
102 0.005984
24 0.005985
0 0.00602
0 0.006007
17 0.005963
30 0.005025
55 0.005986
68 0.004991
70 0.005015
64 0.005016
64 0.004997
73 0.004996
86 0.004987
102 0.005975
119 0.006007
134 0.005954
141 0.00598
149 0.005979
159 0.005971
162 0.005013
166 0.004982
174 0.004983
185 0.005022
191 0.004988
148 0.004984
64 0.004987
16 0.005015
11 0.004989
30 0.004978
46 0.004951
71 0.004948
83 0.00499
85 0.004985
80 0.004985
78 0.005012
88 0.005018
100 0.004943
117 0.004986
132 0.005013
145 0.004983
152 0.003989
159 0.00399
166 0.00399
170 0.004037
175 0.004988
181 0.005022
189 0.004986
197 0.005012
201 0.005027
144 0.004988
55 0.004959
5 0.003986
11 0.004035
28 0.003989
55 0.004014
70 0.004029
83 0.004002
83 0.003946
79 0.003989
80 0.00399
86 0.004989
97 0.004983
111 0.004988
124 0.00399
137 0.003998
147 0.003991
158 0.003928
163 0.003969
168 0.004021
172 0.003933
177 0.003962
188 0.003956
195 0.003984
201 0.003942
177 0.003954
85 0.002947
7 0.003979
2 0.003953
36 0.003941
54 0.00398
69 0.003981
83 0.003987
92 0.003934
89 0.003959
86 0.002958
90 0.003937
103 0.002965
117 0.002988
135 0.003957
150 0.002967
164 0.003958
171 0.003988
176 0.003989
181 0.003957
183 0.00392
190 0.003923
199 0.00302
209 0.002959
211 0.003026
145 0.002984
45 0.002964
23 0.003026
44 0.003037
59 0.002987
75 0.002972
95 0.003954
106 0.003989
101 0.003945
96 0.003943
97 0.002952
103 0.003018
116 0.002997
136 0.002991
151 0.003031
165 0.003008
168 0.002991
175 0.004042
180 0.002988
182 0.00299
193 0.003961
198 0.002993
205 0.002992
204 0.003022
134 0.00299
29 0.002995
6 0.002976
25 0.003022
42 0.002989
62 0.00298
77 0.002992
87 0.003028
90 0.001994
81 0.001992
80 0.001996
91 0.001956
101 0.001983
118 0.002992
131 0.002964
144 0.002986
154 0.003
159 0.001984
165 0.001996
165 0.002026
171 0.001966
182 0.00194
187 0.001972
182 0.001993
112 0.001963
30 0.001959
58 0.001984
65 0.002007
77 0.001999
84 0.001994
92 0.001981
97 0.00199
96 0.001996
93 0.001952
96 0.001966
102 0.002011
108 0.001978
115 0.001946
125 0.00203
131 0.001985
136 0.001987
141 0.000991
143 0.000931
145 0.001974
149 0.002
155 0.002008
161 0.001968
162 0.001948
130 0.001956
85 0.001979
61 0.000948
67 0.001997
81 0.000953
91 0.00095
99 0.002029
104 0.001002
105 0.001031
102 0.001964
103 0.002026
108 0.001993
115 0.001996
124 0.001937
135 0.001993
141 0.000999
146 0.000964
151 0.000971
153 0.000996
155 0.000999
156 0.000968
162 0.001981
166 0.001
165 0.002001
126 0.001995
85 0.001962
67 0.001995
76 0.001004
87 0.000991
97 0.001029
106 0.001
110 0.000999
107 0.001016
105 0.00201
105 0.001995
111 0.001948
119 0.001026
128 0.001995
135 0.0
142 0.000965
148 0.001009
151 0.000996
154 0.001011
154 0.001
158 0.000987
162 0.001006
166 0.000994
163 0.000993
121 0.000998
78 0.001003
58 0.0
65 0.0
76 0.0
80 0.006947
88 0.004977
96 0.001004
98 0.001002
94 0.000998
96 0.000993
102 0.000995
110 0.000997
118 0.0
124 0.0
133 0.0
139 0.0
145 0.0
147 0.0
149 0.0
153 0.0
157 0.0
164 0.001003
155 0.000998
108 0.000999
69 0.0
58 0.0
69 0.0
78 0.0
90 0.0
99 0.0
103 0.0
102 0.0
98 0.0
103 0.0
109 0.0
117 0.001009
126 0.001
134 0.0
144 0.0
148 0.0
151 0.0
154 0.0
155 0.0
159 0.0
166 0.0
171 0.001981
168 0.00295
121 0.000967
82 0.000998
69 0.0
74 0.0
84 0.0
93 0.0
103 0.001992
110 0.0
109 0.0
106 0.0
106 0.001984
112 0.002006
122 0.0
129 0.000977
136 0.0
144 0.0
149 0.0
151 0.001991
155 0.003004
158 0.0
160 0.0
163 0.0
168 0.001994
169 0.001995
120 0.000964
79 0.000996
62 0.0
71 0.0
80 0.000986
87 0.001986
94 0.001993
102 0.000989
104 0.0
101 0.0
101 0.001986
107 0.001974
115 0.0
122 0.000969
130 0.0
137 0.0
140 0.001
144 0.001995
148 0.00199
150 0.000955
155 0.001
159 0.0
163 0.003013
169 0.002019
133 0.0
86 0.000962
65 0.0
70 0.0
79 0.0
88 0.0
94 0.001995
103 0.001992
107 0.0
104 0.000992
103 0.0
107 0.002005
114 0.001977
122 0.001976
132 0.0
142 0.0
146 0.0
150 0.0
153 0.001984
155 0.001969
160 0.0
165 0.0
167 0.0
170 0.001996
176 0.001996
154 0.0
100 0.000995
66 0.000944
73 0.0
85 0.000994
96 0.002983
106 0.003024
117 0.0
119 0.0
114 0.0
110 0.001987
113 0.001972
122 0.0
129 0.0
140 0.0
146 0.0
150 0.0
154 0.002934
156 0.003016
158 0.00202
160 0.00199
164 0.0
168 0.002977
151 0.00299
91 0.0
69 0.0
75 0.002992
87 0.002991
97 0.002993
106 0.002959
115 0.00299
116 0.00299
111 0.001995
110 0.002004
114 0.002993
119 0.002973
127 0.0
136 0.0
146 0.001996
150 0.00201
153 0.001993
154 0.00299
156 0.003998
159 0.001996
163 0.002033
163 0.001975
127 0.003977
80 0.002965
58 0.0
63 0.000999
80 0.001996
87 0.002975
95 0.0
102 0.004025
103 0.002982
97 0.002974
98 0.0
104 0.00295
109 0.002971
115 0.004
125 0.000971
129 0.001995
137 0.002036
140 0.003034
142 0.002024
145 0.001963
148 0.003979
152 0.003991
129 0.002
81 0.002008
121 0.002986
126 0.003991
125 0.003963
125 0.001974
125 0.00399
125 0.003003
124 0.002032
124 0.001976
125 0.003996
125 0.004009
125 0.001965
125 0.001995
125 0.001995
125 0.00495
125 0.003957
125 0.002993
132 0.003983
137 0.002967
144 0.002003
151 0.001998
137 0.004025
81 0.00396
33 0.002002
33 0.001993
49 0.001996
66 0.005001
79 0.004978
97 0.001995
102 0.004978
96 0.001969
94 0.00296
100 0.002986
110 0.003969
120 0.004973
133 0.002994
142 0.001991
148 0.001989
153 0.004954
158 0.004942
162 0.001996
166 0.004978
172 0.002
145 0.002994
83 0.002019
47 0.003993
45 0.004984
64 0.002964
79 0.003007
92 0.002956
103 0.004995
107 0.004948
105 0.004
101 0.005015
108 0.00199
115 0.002
125 0.001991
137 0.005985
144 0.004986
151 0.002994
158 0.002992
162 0.002044
165 0.005008
168 0.005015
172 0.002985
178 0.00502
120 0.002021
64 0.002038
44 0.002984
51 0.006012
65 0.006015
79 0.003027
88 0.002948
99 0.002966
105 0.005986
102 0.004952
97 0.003
107 0.005049
118 0.002997
127 0.002993
136 0.002994
143 0.003016
148 0.005986
156 0.005986
161 0.002988
162 0.002991
165 0.00399
170 0.005983
173 0.005984
184 0.006016
152 0.006014
70 0.002992
48 0.003974
54 0.003972
70 0.006019
84 0.006011
98 0.002993
111 0.004
114 0.003967
110 0.005987
107 0.006025
116 0.006017
125 0.006034
140 0.003989
147 0.00399
153 0.003983
161 0.005988
165 0.005985
170 0.003991
176 0.003962
179 0.004984
183 0.005991
186 0.005986
197 0.00602
200 0.006019
127 0.003984
76 0.00401
63 0.004987
76 0.006983
95 0.007016
115 0.003968
129 0.004945
139 0.004957
139 0.005986
134 0.00602
131 0.006982
140 0.007029
152 0.00396
162 0.00498
170 0.003989
177 0.007023
182 0.006985
189 0.004019
192 0.003981
195 0.004037
198 0.007949
201 0.005984
211 0.007026
204 0.007007
124 0.004987
88 0.004984
85 0.004
99 0.006984
114 0.006978
133 0.003993
144 0.004025
151 0.004951
150 0.00698
145 0.006982
146 0.00798
152 0.007032
164 0.005
172 0.004989
180 0.005987
185 0.007021
191 0.007007
194 0.003967
198 0.005985
201 0.00403
203 0.007981
206 0.007984
213 0.007938
199 0.007978
135 0.005944
87 0.004982
77 0.004976
90 0.007008
107 0.007011
119 0.00701
131 0.005956
139 0.005956
141 0.004985
134 0.007918
132 0.00502
139 0.007975
149 0.007973
157 0.004987
166 0.005005
172 0.004989
177 0.008007
180 0.007966
186 0.005957
187 0.005949
189 0.005957
191 0.007969
197 0.005941
184 0.007953
120 0.007972
68 0.004987
69 0.005016
85 0.00499
100 0.007977
113 0.007988
124 0.005971
129 0.005986
127 0.005951
121 0.006946
124 0.005999
134 0.007983
142 0.007994
151 0.005965
159 0.005983
164 0.005951
172 0.007976
178 0.006984
180 0.005984
182 0.005933
184 0.005953
189 0.006974
194 0.005988
120 0.006973
70 0.006963
58 0.005987
70 0.006004
86 0.005992
103 0.007017
117 0.007023
127 0.006959
126 0.006014
121 0.00599
113 0.006984
124 0.005971
137 0.006943
145 0.006985
153 0.005964
160 0.005994
164 0.006946
172 0.006977
174 0.006986
175 0.006979
178 0.006948
182 0.006982
186 0.00694
123 0.005983
57 0.006981
51 0.006981
65 0.005984
80 0.005984
99 0.005985
112 0.005983
117 0.006985
113 0.006954
107 0.006951
105 0.006948
112 0.007013
125 0.006991
139 0.006979
145 0.006984
153 0.006015
157 0.005973
162 0.005966
164 0.006035
166 0.005938
173 0.006953
177 0.005987
156 0.006946
92 0.006956
38 0.006982
40 0.006989
54 0.007021
67 0.005983
81 0.005982
91 0.00598
96 0.006003
92 0.00599
87 0.006011
91 0.005987
101 0.006015
109 0.005995
125 0.005956
132 0.005987
138 0.006934
143 0.006013
147 0.005957
151 0.005985
154 0.005951
159 0.005984
161 0.005959
92 0.006019
38 0.006026
20 0.006035
36 0.005989
47 0.005988
58 0.004988
70 0.005032
77 0.00599
77 0.005972
76 0.006016
75 0.006014
81 0.006012
97 0.006009
109 0.005987
115 0.005978
127 0.005981
134 0.004957
139 0.004989
143 0.004986
149 0.005
155 0.004983
161 0.004987
150 0.00495
85 0.00602
26 0.005989
19 0.006041
33 0.006025
61 0.00499
71 0.004962
84 0.005025
90 0.004986
85 0.004987
81 0.004992
89 0.005017
98 0.005013
110 0.004998
126 0.004986
134 0.005015
142 0.004985
152 0.004983
157 0.005006
160 0.005013
163 0.005014
171 0.004959
177 0.004988
179 0.004983
127 0.004992
64 0.004987
34 0.004987
45 0.004985
66 0.003989
90 0.003983
103 0.003963
109 0.004994
107 0.004965
99 0.004995
100 0.004988
110 0.004985
123 0.004984
135 0.004951
147 0.004995
153 0.003954
159 0.003925
166 0.003989
169 0.003949
171 0.005013
176 0.004986
183 0.00399
168 0.004984
101 0.004986
51 0.003993
39 0.004986
48 0.003989
69 0.004017
82 0.003997
103 0.003989
106 0.004033
103 0.00402
100 0.004016
102 0.003989
114 0.00399
127 0.004037
138 0.003988
145 0.00296
152 0.00299
160 0.00399
163 0.003981
167 0.00399
169 0.004031
173 0.003962
179 0.004022
183 0.00399
130 0.003989
61 0.003988
28 0.00399
25 0.003963
38 0.002954
51 0.00298
58 0.003956
74 0.003989
79 0.003989
82 0.003989
87 0.003988
95 0.00399
107 0.003992
118 0.003988
132 0.002944
140 0.002981
147 0.003022
159 0.002996
165 0.002993
170 0.003023
176 0.003989
180 0.003946
183 0.003955
193 0.004009
169 0.003053
92 0.00299
48 0.002957
43 0.002997
59 0.002992
80 0.003
96 0.002995
120 0.00302
121 0.003001
115 0.002986
111 0.002031
116 0.002993
129 0.002956
141 0.002958
153 0.002992
163 0.002992
169 0.002996
176 0.002949
180 0.002956
187 0.003006
193 0.003023
193 0.00302
145 0.001995
79 0.001994
45 0.002024
52 0.002964
69 0.001992
85 0.002022
96 0.003041
113 0.002993
118 0.002987
111 0.003019
111 0.003019
120 0.003018
131 0.00196
142 0.002023
156 0.001992
163 0.001998
169 0.001999
174 0.001968
178 0.002027
183 0.001964
188 0.002992
132 0.002992
65 0.003022
35 0.001997
37 0.002021
53 0.002021
68 0.001965
88 0.002019
102 0.001962
108 0.001998
107 0.001976
105 0.000997
107 0.001989
120 0.001991
136 0.001995
148 0.002025
157 0.001995
164 0.001954
172 0.001967
179 0.001958
182 0.002021
188 0.002054
196 0.002016
200 0.001994
151 0.002042
61 0.00197
40 0.000966
55 0.000956
74 0.000987
91 0.001963
107 0.002001
123 0.001989
123 0.001958
118 0.001995
116 0.001994
122 0.001994
139 0.001028
152 0.000985
167 0.000956
177 0.000986
183 0.001025
188 0.001009
192 0.002019
194 0.001984
198 0.001988
206 0.001996
190 0.000999
119 0.000998
63 0.000995
69 0.000985
93 0.000964
110 0.000992
126 0.001023
140 0.000989
143 0.002032
133 0.002
130 0.001992
136 0.002004
146 0.001993
156 0.000999
168 0.002023
179 0.000998
186 0.000993
190 0.000998
196 0.000998
199 0.001
201 0.000962
153 0.002023
87 0.002035
59 0.002023
64 0.002037
81 0.0
105 0.0
125 0.000958
135 0.0
134 0.000971
130 0.001006
127 0.000985
131 0.000954
144 0.001017
155 0.000997
163 0.001029
171 0.0
178 0.0
183 0.0
189 0.0
193 0.0
191 0.0
137 0.0
72 0.0
51 0.0
65 0.000998
83 0.0
100 0.0
115 0.0
128 0.0
132 0.0
121 0.0
118 0.0
128 0.0
137 0.0
147 0.0
160 0.000995
166 0.000997
176 0.0
180 0.002996
183 0.001027
186 0.0
189 0.0
138 0.0
73 0.0
50 0.0
63 0.0
84 0.0
107 0.0
119 0.0
132 0.001
131 0.003024
119 0.0
118 0.0
125 0.0
142 0.0
150 0.00096
158 0.001978
166 0.001991
172 0.0
176 0.0
180 0.0
184 0.003048
174 0.000998
111 0.0
60 0.0
54 0.0
84 0.0
101 0.0
117 0.002987
128 0.002999
125 0.000959
116 0.000994
114 0.001
120 0.002989
127 0.003006
140 0.0
150 0.0
156 0.0
164 0.0
170 0.0
173 0.002993
176 0.002999
179 0.001011
184 0.000992
159 0.000953
85 0.002955
41 0.002998
44 0.0
64 0.0
81 0.000965
97 0.001975
111 0.0
110 0.002984
104 0.002991
101 0.000955
108 0.002032
116 0.0
125 0.003014
137 0.002961
147 0.000966
151 0.000984
156 0.000959
160 0.0
165 0.000964
167 0.001988
168 0.001988
175 0.000962
173 0.0
114 0.0
51 0.00299
34 0.002991
45 0.003003
69 0.0
84 0.000968
103 0.0
106 0.0
104 0.0
99 0.002006
97 0.001998
106 0.001
117 0.000996
124 0.001993
136 0.00297
143 0.002984
151 0.0
156 0.001995
162 0.000996
164 0.0
166 0.0
170 0.002954
178 0.003017
173 0.000962
105 0.000962
49 0.000963
37 0.001984
51 0.002999
79 0.000956
93 0.000997
114 0.001015
115 0.0
111 0.000998
106 0.003047
108 0.002994
120 0.00101
130 0.000994
139 0.000997
148 0.004019
155 0.00199
162 0.000996
166 0.000997
170 0.0
175 0.0
178 0.0
184 0.00298
190 0.002982
157 0.000962
83 0.000951
51 0.000964
56 0.002991
75 0.002999
102 0.0
117 0.0
131 0.003002
129 0.0
121 0.0
116 0.003
121 0.003936
136 0.000962
146 0.000973
153 0.0
160 0.002
168 0.003945
172 0.0
176 0.0
183 0.002993
185 0.002992
188 0.00299
191 0.002996
195 0.003995
129 0.000951
65 0.000955
47 0.000965
59 0.003943
78 0.003991
101 0.0
114 0.0
125 0.001974
122 0.001995
116 0.002993
114 0.004022
120 0.004986
132 0.000965
142 0.000998
150 0.00299
157 0.0
163 0.00394
167 0.003931
172 0.003011
176 0.003993
180 0.002982
182 0.003967
187 0.001983
189 0.004006
132 0.004994
51 0.0
42 0.000997
57 0.004014
76 0.003988
92 0.004989
109 0.002996
119 0.004017
113 0.001998
108 0.001992
110 0.00301
116 0.005005
125 0.003958
139 0.002995
146 0.002981
151 0.002992
157 0.004932
164 0.004969
168 0.003009
175 0.004024
179 0.00199
182 0.002021
149 0.001982
77 0.003991
41 0.004979
47 0.0
68 0.004002
86 0.002991
101 0.004955
116 0.004982
121 0.003
113 0.004988
109 0.003
115 0.002991
123 0.002953
134 0.003989
143 0.004988
154 0.002033
160 0.003025
166 0.001957
171 0.004983
175 0.00496
178 0.002
183 0.004996
177 0.002017
107 0.002999
51 0.002982
37 0.005938
51 0.005976
78 0.003016
95 0.00403
112 0.002982
122 0.004988
121 0.004987
108 0.002968
107 0.004995
116 0.002985
124 0.002938
135 0.002995
143 0.00597
151 0.005993
156 0.002999
162 0.003987
165 0.003989
168 0.004984
172 0.005983
133 0.003998
48 0.005018
34 0.002028
46 0.002961
64 0.003015
81 0.005943
95 0.005953
108 0.003956
108 0.003987
99 0.003953
95 0.007008
100 0.005996
112 0.00398
124 0.004994
135 0.005005
143 0.002991
151 0.002991
157 0.002987
159 0.005984
161 0.00598
166 0.003983
170 0.003983
163 0.002986
93 0.005985
37 0.005987
32 0.005982
48 0.005981
69 0.003989
83 0.003957
92 0.002991
96 0.005958
93 0.00594
87 0.003989
89 0.003004
101 0.002992
111 0.005984
119 0.005984
135 0.005981
143 0.006012
150 0.003985
155 0.004003
157 0.003988
158 0.006936
163 0.006991
170 0.003989
169 0.003982
112 0.00397
47 0.00593
28 0.005955
51 0.00599
66 0.005994
85 0.00403
98 0.003961
101 0.004016
102 0.006945
96 0.006986
96 0.003978
104 0.004998
115 0.003977
125 0.006919
134 0.007962
149 0.007906
153 0.006977
161 0.00399
163 0.003003
167 0.005007
172 0.006974
175 0.006981
183 0.003989
189 0.003983
144 0.004009
69 0.006944
39 0.006927
54 0.006979
77 0.007959
96 0.004937
112 0.004945
123 0.004982
120 0.006994
113 0.006979
112 0.004036
119 0.005001
126 0.004931
137 0.006933
147 0.007941
161 0.007991
166 0.007973
172 0.004991
174 0.004973
176 0.004954
180 0.007979
184 0.007979
191 0.005953
168 0.00499
92 0.002998
46 0.00797
51 0.00796
84 0.007989
97 0.007995
111 0.007952
126 0.004954
125 0.004988
117 0.00497
113 0.007975
116 0.007976
126 0.004954
138 0.005935
148 0.005973
157 0.007977
167 0.004948
169 0.007978
176 0.006974
179 0.004988
180 0.004999
183 0.00499
189 0.006987
192 0.006996
147 0.005956
72 0.005949
39 0.005957
46 0.006984
70 0.00595
87 0.007978
103 0.007952
112 0.004992
111 0.005983
106 0.005029
102 0.007978
108 0.006987
117 0.005948
127 0.005946
137 0.005988
148 0.006976
156 0.005978
166 0.006985
172 0.006972
173 0.005983
176 0.005983
179 0.00597
184 0.007978
146 0.006974
71 0.005984
34 0.005983
34 0.005957
60 0.006983
84 0.00598
102 0.006985
112 0.00697
112 0.005954
105 0.00598
100 0.005982
108 0.006949
120 0.006982
128 0.006977
143 0.006978
150 0.005985
161 0.007013
166 0.005985
167 0.006988
168 0.006975
171 0.005995
174 0.005942
130 0.005955
46 0.006014
28 0.005989
42 0.005982
62 0.005983
78 0.005984
93 0.007012
106 0.005998
102 0.006992
97 0.005986
97 0.005956
103 0.005944
115 0.005986
126 0.005976
135 0.005965
146 0.005957
151 0.005985
155 0.005952
158 0.006028
164 0.005958
168 0.005984
165 0.006981
108 0.006981
30 0.005951
17 0.00599
26 0.005988
45 0.005984
60 0.005989
76 0.005995
87 0.005987
89 0.005989
79 0.005987
81 0.005017
90 0.006022
100 0.006023
115 0.004947
121 0.005019
129 0.005941
137 0.005983
141 0.005957
145 0.006012
150 0.005958
154 0.005976
162 0.005974
153 0.005985
85 0.005984
27 0.004975
12 0.005013
25 0.004951
41 0.00495
57 0.004986
72 0.005988
83 0.006011
82 0.004984
78 0.005984
78 0.005987
87 0.004986
97 0.004996
110 0.004984
121 0.004991
130 0.00499
138 0.004985
143 0.004991
147 0.005015
152 0.005014
158 0.005043
163 0.005987
172 0.004987
173 0.00499
115 0.004986
44 0.004987
14 0.004987
25 0.004987
46 0.005982
65 0.004947
82 0.004961
99 0.00502
97 0.005984
89 0.005984
89 0.004958
99 0.003958
111 0.00496
125 0.004988
137 0.004015
147 0.003948
155 0.005009
160 0.004987
162 0.004988
167 0.003993
171 0.004988
176 0.004968
162 0.003963
94 0.003961
44 0.003986
33 0.003966
50 0.004986
70 0.005025
86 0.004964
102 0.004988
111 0.004986
105 0.003956
97 0.004021
96 0.003991
112 0.003989
124 0.003978
134 0.003991
144 0.003982
157 0.004987
163 0.004944
166 0.003991
170 0.003989
174 0.004986
180 0.004987
182 0.003958
142 0.003961
40 0.00395
27 0.004011
40 0.004014
57 0.003981
73 0.003994
95 0.003988
103 0.004037
104 0.00399
99 0.002969
94 0.002965
101 0.003957
113 0.003995
132 0.003993
142 0.003975
151 0.003989
160 0.00399
166 0.003988
171 0.00399
175 0.002966
181 0.003989
176 0.002991
115 0.002996
42 0.002992
32 0.002996
57 0.002986
75 0.003955
91 0.003961
108 0.003956
116 0.003993
108 0.003989
103 0.00403
107 0.003024
117 0.002961
129 0.002997
143 0.002993
153 0.002977
167 0.002992
173 0.002992
178 0.003956
183 0.003961
186 0.001977
188 0.003988
140 0.00399
70 0.00304
39 0.003022
44 0.003
69 0.002973
89 0.002992
118 0.002988
124 0.002944
120 0.003998
111 0.002991
108 0.001995
