126 0.017996
129 0.002036
136 0.000966
141 0.001959
145 0.001996
149 0.00195
154 0.001995
159 0.002016
131 0.001996
82 0.001992
47 0.001993
46 0.00196
52 0.001955
60 0.001965
80 0.001992
95 0.000997
102 0.001024
106 0.001011
108 0.000998
113 0.001994
118 0.002015
124 0.002
134 0.001995
139 0.001998
143 0.001992
145 0.002004
149 0.001995
151 0.001007
154 0.001004
156 0.001016
139 0.001997
80 0.001012
59 0.001995
54 0.001996
63 0.001995
74 0.001995
88 0.001995
100 0.000998
109 0.000995
111 0.000989
112 0.00104
116 0.001014
121 0.001007
128 0.000981
134 0.001002
139 0.000997
147 0.001004
151 0.001996
154 0.000969
157 0.001995
163 0.001993
164 0.001987
136 0.000975
87 0.001034
60 0.001003
51 0.000998
53 0.000997
58 0.000991
78 0.001006
92 0.000966
101 0.000999
105 0.000998
107 0.000997
111 0.000998
116 0.000998
122 0.000997
128 0.002008
136 0.001019
141 0.001029
145 0.001003
151 0.001
155 0.001001
159 0.001005
162 0.000965
130 0.000996
83 0.000991
59 0.000997
51 0.000997
52 0.0
59 0.001983
71 0.000997
86 0.001011
103 0.001008
107 0.000997
110 0.001024
113 0.001001
119 0.000984
126 0.000998
132 0.000973
137 0.000996
143 0.0
149 0.0
152 0.0
156 0.0
163 0.0
167 0.001008
159 0.000974
115 0.000998
70 0.001011
61 0.000964
62 0.000986
68 0.000997
78 0.000997
97 0.000997
108 0.000994
114 0.0
118 0.0
120 0.0
125 0.0
130 0.0
138 0.000998
143 0.001006
147 0.001013
151 0.000995
154 0.000995
158 0.000995
162 0.000997
165 0.0
134 0.0
89 0.0
66 0.0
61 0.0
66 0.0
74 0.0
87 0.0
100 0.0
108 0.0
112 0.0
114 0.0
117 0.000998
125 0.0
130 0.001005
136 0.0
141 0.0
146 0.0
151 0.0
155 0.0
159 0.0
163 0.0
165 0.0
128 0.0
83 0.000998
57 0.001007
56 0.0
59 0.0
67 0.0
80 0.0
98 0.0
106 0.0
109 0.0
111 0.0
115 0.0
122 0.0
127 0.001005
137 0.000986
143 0.0
148 0.0
152 0.0
155 0.0
160 0.0
164 0.0
166 0.0
150 0.0
101 0.0
63 0.0
55 0.000999
58 0.000997
65 0.000997
82 0.0
97 0.0
107 0.0
110 0.0
112 0.0
114 0.0
119 0.0
125 0.0
133 0.0
139 0.0
147 0.0
152 0.0
155 0.0
160 0.0
164 0.0
168 0.000989
168 0.000961
123 0.0
82 0.0
64 0.0
61 0.0
64 0.0
77 0.0
92 0.001002
110 0.0
117 0.0
119 0.0
121 0.000998
125 0.001007
131 0.0
137 0.0
143 0.0
149 0.001011
153 0.000997
160 0.000964
163 0.000993
167 0.0
170 0.0
173 0.0
174 0.00099
145 0.000998
86 0.0
71 0.0
70 0.0
74 0.001032
82 0.001006
104 0.000999
114 0.000959
120 0.0
122 0.0
123 0.0
127 0.001001
132 0.00203
138 0.000974
143 0.001001
148 0.000994
153 0.001983
156 0.000987
161 0.000999
165 0.001005
169 0.001035
172 0.0
154 0.0
106 0.001006
76 0.001012
66 0.0
70 0.0
75 0.000998
85 0.001029
99 0.000998
116 0.000995
120 0.001953
122 0.001043
125 0.000986
130 0.000989
135 0.001991
141 0.00191
148 0.0
153 0.001016
156 0.00099
161 0.000998
164 0.000998
169 0.000961
172 0.001951
175 0.001027
145 0.000991
96 0.00101
71 0.001836
62 0.001984
64 0.000995
69 0.001002
79 0.000992
93 0.002012
106 0.001995
116 0.000988
118 0.001005
120 0.001014
125 0.00096
130 0.001952
137 0.001045
143 0.002009
149 0.001021
153 0.000966
158 0.001031
162 0.001991
164 0.002031
170 0.000959
173 0.001995
165 0.001946
105 0.001019
75 0.001004
64 0.000999
63 0.001995
68 0.002029
75 0.000993
88 0.002007
103 0.001995
115 0.002032
120 0.001995
122 0.002026
126 0.001995
134 0.000998
139 0.000961
144 0.000998
150 0.001995
154 0.001967
159 0.001029
163 0.001032
165 0.001033
169 0.001987
174 0.001031
168 0.001034
125 0.002028
86 0.002028
71 0.001995
70 0.001994
77 0.001994
86 0.002029
105 0.000998
116 0.001004
121 0.000969
123 0.001994
124 0.001994
129 0.002992
133 0.003054
138 0.001982
143 0.001994
147 0.001995
151 0.003025
154 0.003024
157 0.001995
161 0.002026
164 0.002035
167 0.002992
148 0.001997
80 0.002003
66 0.001995
64 0.001999
71 0.000998
80 0.000987
93 0.002996
107 0.00299
116 0.001994
118 0.001982
120 0.002029
124 0.002992
129 0.001995
137 0.00202
143 0.002028
148 0.001997
154 0.000968
157 0.002007
160 0.003015
164 0.003024
168 0.002028
171 0.001978
161 0.002023
115 0.002993
78 0.003023
60 0.001995
61 0.001988
68 0.001045
78 0.002002
88 0.001958
105 0.003004
112 0.002991
115 0.002063
118 0.002011
122 0.002027
127 0.002992
133 0.002992
142 0.002985
147 0.002997
153 0.001988
156 0.001998
159 0.002989
164 0.002964
167 0.003002
169 0.003022
147 0.001992
99 0.001994
71 0.003031
63 0.002998
65 0.002992
72 0.003025
88 0.001993
103 0.002974
113 0.00299
118 0.002986
120 0.002979
123 0.003001
127 0.002988
133 0.003036
141 0.003037
146 0.002992
155 0.002991
159 0.003993
163 0.002986
167 0.00299
170 0.002972
173 0.00402
176 0.003966
166 0.003022
121 0.003022
84 0.003028
69 0.003034
71 0.003024
81 0.003961
94 0.002995
111 0.002992
118 0.002988
120 0.002955
121 0.003955
124 0.003987
130 0.003022
134 0.001968
138 0.003011
145 0.002992
149 0.002992
155 0.003
158 0.003027
163 0.001975
166 0.001999
169 0.002992
165 0.003986
125 0.003997
78 0.002975
67 0.002975
68 0.003025
72 0.003988
79 0.003948
101 0.00299
112 0.002993
117 0.002993
120 0.002966
122 0.003978
127 0.00399
133 0.004029
138 0.003988
145 0.002994
150 0.002983
155 0.002992
158 0.003958
163 0.002985
167 0.004021
170 0.002988
173 0.004004
159 0.002994
112 0.003992
72 0.003996
63 0.003985
65 0.003024
69 0.003025
78 0.003027
92 0.00399
111 0.002995
115 0.004021
117 0.004045
121 0.003027
126 0.003028
132 0.002949
138 0.004988
143 0.00399
148 0.00404
154 0.003021
159 0.003005
162 0.003991
169 0.003047
173 0.003987
175 0.004023
133 0.003007
90 0.003026
70 0.003996
65 0.005015
68 0.004987
77 0.002995
84 0.004022
99 0.00402
115 0.003989
122 0.002999
123 0.004017
126 0.004016
133 0.002992
139 0.004022
144 0.003967
150 0.00502
154 0.005022
159 0.004024
162 0.004021
164 0.004024
169 0.003989
174 0.004024
163 0.004991
117 0.004988
77 0.004
70 0.004021
72 0.003935
79 0.005019
89 0.00499
106 0.004022
116 0.003031
120 0.003047
122 0.003989
126 0.00299
131 0.004021
135 0.004021
141 0.002948
147 0.004022
151 0.003988
155 0.005019
158 0.004981
162 0.004019
166 0.00402
170 0.004031
164 0.005002
108 0.00402
73 0.004029
67 0.004024
70 0.004006
76 0.004023
87 0.004024
101 0.004987
111 0.00502
119 0.004023
120 0.003979
122 0.003986
127 0.005036
136 0.00298
142 0.004024
147 0.005026
153 0.003987
157 0.003994
161 0.004
163 0.004987
166 0.004987
171 0.004027
169 0.004021
132 0.004008
87 0.005034
63 0.004024
62 0.005024
65 0.006
76 0.003942
89 0.003978
104 0.003988
111 0.005022
115 0.005021
117 0.005025
122 0.004024
127 0.004025
133 0.005028
143 0.003005
147 0.005029
151 0.005986
157 0.004027
160 0.003968
163 0.00401
168 0.005019
172 0.005035
154 0.004018
107 0.004021
77 0.004022
66 0.005023
68 0.003989
73 0.00502
84 0.006027
103 0.004984
114 0.005025
119 0.004982
122 0.006016
125 0.006006
129 0.005019
133 0.005021
141 0.004023
146 0.004992
155 0.005018
158 0.005995
162 0.006018
166 0.00502
170 0.004019
174 0.004518
173 0.004962
137 0.005984
82 0.004989
70 0.004988
69 0.005028
74 0.00602
90 0.005021
104 0.006017
115 0.006016
119 0.005945
122 0.004033
125 0.005026
128 0.005017
133 0.006017
138 0.005977
146 0.004988
150 0.005029
155 0.005018
159 0.005021
162 0.006022
168 0.006025
171 0.005987
161 0.004986
115 0.005024
81 0.005017
68 0.005984
67 0.007016
72 0.00502
80 0.005032
94 0.005987
113 0.005989
119 0.005016
120 0.005983
123 0.006021
129 0.005018
134 0.005024
139 0.004987
145 0.005984
150 0.005984
155 0.005026
159 0.005025
162 0.006026
168 0.006018
171 0.006026
170 0.00602
139 0.005975
93 0.006019
66 0.005029
63 0.00499
65 0.005984
70 0.005984
85 0.005022
101 0.006012
111 0.005988
117 0.005985
119 0.005991
123 0.007014
128 0.007013
134 0.006031
139 0.005988
146 0.004986
151 0.005984
154 0.005984
159 0.005993
162 0.006018
165 0.006029
171 0.006014
163 0.006032
120 0.007019
83 0.006985
65 0.006015
64 0.006024
66 0.006017
75 0.005986
88 0.00599
107 0.006028
115 0.006148
117 0.006005
121 0.005996
126 0.006028
132 0.006998
137 0.007018
144 0.00601
149 0.00602
153 0.006021
156 0.006986
159 0.006981
162 0.007019
167 0.00602
171 0.005985
137 0.00602
94 0.006031
73 0.007022
68 0.007021
74 0.006021
81 0.005013
93 0.006022
106 0.007017
114 0.005993
117 0.007024
118 0.007023
121 0.006024
129 0.005987
135 0.005972
140 0.007019
145 0.006982
151 0.006015
154 0.006023
157 0.00599
161 0.007944
166 0.007978
166 0.007014
136 0.007024
96 0.006983
72 0.005989
72 0.005985
76 0.007011
85 0.007019
102 0.006022
112 0.005984
118 0.006027
121 0.007979
124 0.007979
128 0.006981
134 0.007014
139 0.007013
148 0.006009
153 0.006981
158 0.007016
162 0.007008
166 0.006912
169 0.007022
173 0.005997
177 0.007978
158 0.00798
98 0.006972
75 0.007006
68 0.007025
71 0.006028
76 0.006023
88 0.007027
103 0.007019
115 0.006019
118 0.006019
121 0.005984
124 0.007979
128 0.007979
136 0.00702
141 0.00702
146 0.006981
153 0.007015
157 0.007022
161 0.007979
164 0.007987
168 0.005976
173 0.007019
166 0.007019
124 0.006981
86 0.007926
70 0.007025
66 0.00698
69 0.006981
83 0.006967
98 0.006982
110 0.007014
117 0.007972
120 0.00798
123 0.007015
127 0.007021
132 0.007016
140 0.007021
144 0.007978
150 0.007978
156 0.006927
163 0.006986
166 0.007016
168 0.007979
172 0.005023
177 0.007956
167 0.006985
108 0.00698
80 0.007016
72 0.007017
72 0.007016
80 0.00795
90 0.007981
109 0.006975
118 0.007016
122 0.006988
125 0.007975
127 0.007975
131 0.007012
136 0.007018
144 0.007013
148 0.006978
153 0.006987
158 0.007015
161 0.007023
164 0.006989
167 0.007012
169 0.006965
167 0.007974
132 0.007976
91 0.007017
72 0.006976
72 0.006974
78 0.007018
86 0.007015
99 0.007017
114 0.007968
120 0.006993
122 0.007015
124 0.007018
129 0.007971
134 0.007943
140 0.006948
146 0.007017
151 0.006981
155 0.007016
159 0.007021
163 0.007025
166 0.007004
172 0.006926
165 0.006949
122 0.006981
84 0.006978
70 0.00601
68 0.007023
69 0.007979
77 0.006981
90 0.007973
103 0.007017
114 0.007015
118 0.006977
122 0.006988
126 0.006968
131 0.006976
136 0.00698
142 0.00698
148 0.007972
152 0.006977
157 0.007032
160 0.007018
162 0.006964
168 0.007014
171 0.007026
134 0.006984
89 0.006992
70 0.005986
64 0.006944
66 0.005981
72 0.007033
83 0.006032
97 0.006017
109 0.007025
115 0.007029
118 0.007014
121 0.007029
128 0.006984
135 0.007011
141 0.006975
147 0.00702
152 0.006929
158 0.007013
162 0.007011
165 0.007014
169 0.007012
173 0.006016
177 0.006015
166 0.005978
93 0.005984
74 0.006988
70 0.006978
73 0.006975
78 0.006981
94 0.007016
107 0.00702
117 0.00602
122 0.006014
124 0.006023
127 0.006018
131 0.006023
140 0.00595
146 0.005984
150 0.006989
154 0.006986
157 0.006981
162 0.007015
164 0.007017
167 0.005972
170 0.006017
172 0.006023
132 0.006032
90 0.005983
70 0.005984
73 0.005985
79 0.005988
88 0.005984
102 0.006017
116 0.00602
120 0.007025
121 0.00602
123 0.006021
127 0.006021
132 0.007013
139 0.005978
146 0.005957
152 0.005953
156 0.005983
159 0.005984
163 0.00602
166 0.006016
170 0.006031
171 0.006017
143 0.006014
97 0.006041
73 0.005022
67 0.006015
70 0.005987
79 0.005984
92 0.006015
106 0.005998
114 0.005984
117 0.006021
120 0.00602
123 0.005006
128 0.00602
133 0.004987
139 0.005019
146 0.00499
152 0.005999
156 0.005985
159 0.005979
163 0.005992
166 0.005986
170 0.005985
155 0.006017
108 0.006016
76 0.004986
66 0.005004
65 0.005022
68 0.005022
81 0.004985
99 0.00598
111 0.005963
116 0.005984
118 0.006015
121 0.006015
127 0.006017
132 0.00502
138 0.004971
145 0.005019
150 0.005021
156 0.005018
161 0.004989
165 0.004977
168 0.005015
172 0.00598
174 0.006015
158 0.00602
97 0.005024
75 0.005021
70 0.005022
73 0.005026
78 0.005016
92 0.005018
110 0.004988
121 0.005002
123 0.004984
124 0.006004
128 0.005986
133 0.005022
139 0.005023
144 0.005023
150 0.004985
153 0.004984
156 0.005021
161 0.005019
164 0.005022
169 0.004986
171 0.00399
154 0.005019
109 0.00502
80 0.005021
71 0.004983
75 0.005029
81 0.005018
91 0.005026
104 0.00502
116 0.005026
121 0.004981
123 0.004987
126 0.004933
131 0.005018
137 0.004025
142 0.00402
148 0.003988
152 0.003981
156 0.004032
158 0.004022
162 0.005003
167 0.00507
170 0.004989
130 0.004983
89 0.004979
72 0.005027
68 0.005018
71 0.005021
78 0.005017
89 0.00502
103 0.005025
113 0.003989
118 0.00404
120 0.004018
125 0.003996
132 0.004986
138 0.003997
143 0.005019
147 0.005018
152 0.005024
157 0.003999
159 0.005027
163 0.004024
167 0.004024
171 0.004021
160 0.004019
100 0.004026
69 0.003992
65 0.003988
66 0.004027
69 0.003981
78 0.005016
97 0.00503
109 0.005028
115 0.003983
118 0.004987
120 0.004024
125 0.004024
133 0.003987
140 0.003987
145 0.003988
149 0.004025
154 0.004024
158 0.004023
161 0.004025
164 0.004989
169 0.004987
171 0.004028
151 0.004015
104 0.00402
70 0.003995
67 0.003992
71 0.003951
78 0.004035
92 0.00399
107 0.00402
116 0.002994
122 0.003024
123 0.00399
127 0.002988
131 0.003002
137 0.003024
146 0.003998
150 0.00399
155 0.003943
159 0.003993
163 0.004005
165 0.004023
169 0.004023
174 0.003031
165 0.002958
120 0.003032
86 0.003025
74 0.002987
77 0.003994
83 0.004002
99 0.003981
112 0.004023
120 0.004033
122 0.003991
124 0.004026
127 0.003051
131 0.002993
136 0.002982
141 0.003028
146 0.002988
152 0.002963
155 0.003967
159 0.002976
162 0.004026
166 0.003991
168 0.004027
152 0.00399
95 0.004
75 0.004005
71 0.004024
74 0.003016
79 0.003024
98 0.003955
110 0.002959
120 0.002993
122 0.002992
123 0.003004
127 0.002996
132 0.003
139 0.00304
145 0.002994
150 0.002992
154 0.002992
158 0.002965
163 0.002948
166 0.003067
171 0.002993
173 0.002999
154 0.002994
106 0.002963
77 0.003024
66 0.002993
67 0.003037
71 0.002992
78 0.002992
92 0.002994
112 0.002991
117 0.003952
120 0.002995
123 0.001995
128 0.001995
133 0.001995
139 0.002994
146 0.003001
151 0.002995
154 0.002993
158 0.002992
161 0.003002
166 0.002993
171 0.002989
165 0.002994
123 0.002994
87 0.001994
72 0.002993
68 0.001995
72 0.002994
79 0.002994
91 0.002992
106 0.003026
118 0.00303
124 0.003001
126 0.002994
130 0.002027
136 0.002027
141 0.002027
146 0.002994
151 0.002992
157 0.002993
160 0.00295
163 0.002992
167 0.002992
170 0.003023
175 0.002992
157 0.001993
99 0.001995
77 0.003024
72 0.001995
76 0.001995
81 0.001995
96 0.001983
110 0.002993
120 0.002992
123 0.003004
124 0.002997
129 0.002992
133 0.002999
140 0.001995
146 0.002026
150 0.002029
154 0.001993
158 0.001995
160 0.002028
165 0.001995
169 0.001982
172 0.002027
167 0.001999
98 0.001988
77 0.001998
72 0.002039
74 0.002047
80 0.001995
91 0.001995
105 0.001995
116 0.001996
123 0.001989
124 0.00203
126 0.002003
130 0.002
139 0.001012
144 0.000994
150 0.000998
156 0.002033
159 0.002039
163 0.002026
165 0.002031
168 0.001996
173 0.001995
173 0.001996
142 0.001994
97 0.001994
69 0.000994
68 0.001
71 0.00101
80 0.000997
95 0.000991
108 0.001995
116 0.002027
120 0.001995
123 0.002003
126 0.001995
131 0.000997
137 0.000997
146 0.000999
151 0.000997
155 0.000997
161 0.001
165 0.000998
168 0.000998
172 0.000998
176 0.001995
173 0.002056
133 0.001995
91 0.001996
74 0.001995
73 0.00102
77 0.001011
85 0.000997
105 0.000997
116 0.000998
122 0.000983
125 0.002003
128 0.000998
132 0.001996
137 0.000954
143 0.001033
147 0.000997
155 0.001014
158 0.001011
160 0.000998
164 0.002015
166 0.001
168 0.001012
170 0.000998
157 0.0
100 0.0
77 0.000998
72 0.0
75 0.001008
87 0.000998
101 0.001026
113 0.000996
120 0.000998
123 0.000998
125 0.000998
129 0.001008
133 0.000997
140 0.001995
145 0.0
150 0.0
154 0.000998
160 0.00101
163 0.000997
166 0.000998
170 0.000982
174 0.000955
162 0.000997
115 0.000997
82 0.000997
70 0.000964
70 0.0
73 0.0
80 0.0
103 0.0
114 0.0
119 0.000997
121 0.000997
124 0.000998
128 0.000998
133 0.000998
139 0.0
146 0.0
149 0.0
154 0.0
158 0.0
163 0.0
165 0.0
169 0.0
170 0.0
139 0.000997
94 0.001004
71 0.000998
66 0.000998
68 0.000999
74 0.0
84 0.0
100 0.0
117 0.0
120 0.0
122 0.0
128 0.0
132 0.0
138 0.0
144 0.000998
150 0.0
156 0.0
159 0.0
163 0.0
165 0.0
171 0.0
174 0.0
175 0.0
147 0.0
90 0.0
76 0.0
74 0.0
78 0.000998
84 0.000997
102 0.0
115 0.0
125 0.0
127 0.0
131 0.0
133 0.0
138 0.0
143 0.001
147 0.000999
151 0.0
154 0.0
156 0.000976
159 0.001005
162 0.0
167 0.0
168 0.001042
124 0.0
87 0.0
73 0.0
73 0.000967
78 0.00097
88 0.0
102 0.0
114 0.0
120 0.000997
122 0.001
125 0.0
131 0.001028
137 0.0
141 0.0
147 0.0
152 0.001031
156 0.001024
161 0.0
163 0.0
166 0.0
169 0.000998
173 0.000997
158 0.0
97 0.002044
70 0.000997
67 0.0
70 0.0
74 0.001029
83 0.001038
103 0.0
110 0.000999
117 0.000947
120 0.000999
122 0.001003
127 0.0
135 0.000997
142 0.0
147 0.0
152 0.0
155 0.000998
158 0.000985
162 0.0
165 0.0
168 0.0
171 0.00103
152 0.000991
91 0.0
68 0.001016
66 0.0
69 0.0
76 0.00099
89 0.002
104 0.001995
116 0.0
119 0.0
121 0.0
125 0.001028
130 0.001032
137 0.0
145 0.000998
153 0.0
158 0.0
162 0.000995
166 0.002003
169 0.002002
172 0.0
178 0.0
182 0.001035
158 0.001037
106 0.001029
74 0.001007
71 0.001034
78 0.001
86 0.000997
100 0.001047
114 0.001995
124 0.001995
126 0.000998
127 0.000998
129 0.000983
132 0.001962
135 0.002003
141 0.000998
145 0.001996
151 0.000996
153 0.001006
156 0.000964
159 0.001032
161 0.00203
166 0.000996
147 0.001033
107 0.000997
86 0.002027
83 0.001995
90 0.001028
101 0.002035
118 0.001
131 0.0
138 0.000999
140 0.001995
142 0.001995
146 0.000999
149 0.000965
153 0.001014
157 0.002029
159 0.002031
161 0.000997
162 0.00203
162 0.001045
162 0.001032
162 0.001018
161 0.001032
139 0.002033
95 0.001995
67 0.000999
64 0.000967
67 0.000997
72 0.002029
80 0.001995
101 0.001995
109 0.002008
112 0.00102
112 0.000967
115 0.000988
122 0.001995
130 0.001995
138 0.002
144 0.000998
148 0.000962
151 0.002027
153 0.001997
157 0.002031
161 0.002029
164 0.001995
142 0.002028
99 0.002027
76 0.001988
69 0.002992
71 0.001045
76 0.000999
84 0.001037
98 0.001995
111 0.002028
119 0.001995
121 0.002026
124 0.001996
129 0.002006
135 0.002002
141 0.002992
146 0.002992
152 0.001028
156 0.000997
158 0.001002
161 0.002028
164 0.002003
170 0.001996
158 0.001995
98 0.00199
75 0.001995
70 0.002047
72 0.002994
77 0.002992
92 0.002001
105 0.002037
115 0.000994
118 0.002992
120 0.001995
124 0.003026
129 0.002992
135 0.001997
141 0.002015
145 0.001999
149 0.003023
152 0.002992
157 0.001996
160 0.002036
164 0.000975
167 0.002992
149 0.002992
82 0.003028
68 0.002987
66 0.001994
68 0.001996
74 0.002002
85 0.003022
99 0.002993
110 0.00199
113 0.002041
115 0.002053
119 0.002991
123 0.00301
132 0.002991
137 0.003989
145 0.002027
148 0.001997
151 0.001995
154 0.002977
158 0.002992
162 0.001994
165 0.001991
147 0.001986
101 0.002992
74 0.003024
64 0.003989
66 0.003989
73 0.00321
85 0.002025
100 0.001994
111 0.00399
115 0.003023
117 0.002
121 0.002994
126 0.002003
131 0.002992
137 0.002991
147 0.004037
151 0.003994
157 0.003023
159 0.003029
163 0.003023
167 0.003986
170 0.004034
165 0.001998
123 0.002002
87 0.001996
73 0.002972
72 0.002991
80 0.002992
90 0.003989
108 0.002979
119 0.003023
123 0.003026
124 0.00403
126 0.003989
132 0.003033
137 0.002025
141 0.002024
146 0.004023
150 0.004045
155 0.002992
157 0.004036
160 0.002987
163 0.00299
166 0.003022
163 0.004024
129 0.004026
84 0.003023
73 0.003028
74 0.002003
79 0.004029
88 0.004987
109 0.002962
117 0.005017
120 0.003988
123 0.002995
126 0.002992
130 0.002994
135 0.003989
140 0.004023
146 0.002993
150 0.002992
155 0.00301
157 0.004038
162 0.003027
165 0.003989
169 0.004989
157 0.003982
111 0.003023
81 0.002992
70 0.00402
70 0.003983
73 0.003014
81 0.003004
94 0.002985
107 0.003994
117 0.003023
119 0.005004
122 0.004986
126 0.004024
132 0.003004
138 0.003985
143 0.004987
147 0.004997
152 0.003025
155 0.002992
158 0.002947
160 0.00399
166 0.002994
166 0.003989
135 0.003989
83 0.002999
69 0.003993
67 0.004035
68 0.004987
73 0.005017
89 0.00301
103 0.004028
113 0.00402
118 0.005019
121 0.003025
125 0.005021
130 0.005017
137 0.003026
144 0.002988
148 0.002975
152 0.004964
156 0.005007
160 0.003989
162 0.003991
166 0.003987
170 0.005005
162 0.003988
118 0.004987
86 0.005019
73 0.004023
75 0.002977
79 0.002989
88 0.005016
102 0.004986
118 0.003989
123 0.003995
124 0.003025
126 0.005017
131 0.003989
135 0.004986
140 0.004984
146 0.004016
150 0.004029
152 0.004021
156 0.005978
159 0.005997
163 0.004017
166 0.004007
167 0.003987
139 0.004979
83 0.003997
74 0.005028
75 0.004942
82 0.003991
92 0.003991
106 0.003985
117 0.004986
123 0.004986
124 0.004025
127 0.005018
131 0.004022
135 0.006015
144 0.003988
149 0.005987
153 0.004987
157 0.003991
160 0.004977
163 0.004974
166 0.005984
170 0.004987
171 0.005019
144 0.00502
99 0.004989
77 0.005984
71 0.00502
73 0.005984
80 0.006059
96 0.005018
110 0.005008
118 0.005012
120 0.006023
122 0.006017
127 0.004027
131 0.003982
136 0.004022
142 0.004988
150 0.004025
154 0.006013
157 0.004987
161 0.004993
164 0.003971
166 0.004985
170 0.005984
166 0.006017
112 0.004986
82 0.004995
72 0.004023
71 0.005987
78 0.003983
88 0.005983
102 0.006978
118 0.004989
123 0.004989
124 0.004987
126 0.004987
131 0.005984
136 0.005984
143 0.004981
148 0.004989
154 0.004018
160 0.005018
163 0.006016
164 0.006019
168 0.006982
173 0.004988
175 0.004988
164 0.004992
120 0.005984
87 0.006019
76 0.005009
79 0.004991
84 0.00595
103 0.005985
115 0.005018
124 0.006981
126 0.006982
127 0.004977
130 0.004963
134 0.004985
138 0.005984
143 0.006017
149 0.004985
153 0.004988
156 0.004985
160 0.005022
163 0.006042
166 0.007016
171 0.006981
163 0.00502
121 0.005018
89 0.00498
77 0.005984
77 0.006009
84 0.00497
92 0.004998
105 0.005986
122 0.005968
125 0.006016
127 0.006981
129 0.007013
134 0.005977
140 0.006015
144 0.006017
148 0.007012
153 0.006993
158 0.004989
161 0.004985
164 0.004983
168 0.005986
172 0.005991
174 0.006983
156 0.006982
97 0.005999
77 0.005988
71 0.006023
73 0.007017
76 0.006995
88 0.004989
103 0.004989
115 0.005971
121 0.004991
123 0.005987
126 0.007
130 0.006982
137 0.00598
142 0.006016
147 0.005908
151 0.006981
155 0.007017
159 0.00499
162 0.005985
165 0.005999
172 0.005983
172 0.005984
142 0.007016
98 0.006981
75 0.005989
71 0.006014
75 0.005967
80 0.006981
90 0.00703
109 0.00493
119 0.004987
123 0.004988
126 0.006002
129 0.005978
136 0.007976
139 0.007979
145 0.005985
150 0.005983
155 0.005984
158 0.007031
161 0.006993
164 0.005993
167 0.002941
170 0.004993
167 0.005994
129 0.006015
91 0.007978
76 0.007979
76 0.005967
81 0.005954
90 0.005984
103 0.006984
114 0.006972
123 0.005968
124 0.004988
125 0.005982
131 0.007014
137 0.007015
142 0.007944
147 0.007984
152 0.007013
157 0.006036
160 0.005983
163 0.007975
165 0.007979
169 0.006985
172 0.005992
164 0.007003
95 0.006981
77 0.007011
72 0.00798
74 0.007979
81 0.006015
91 0.006019
104 0.006038
118 0.00798
120 0.007979
121 0.005986
125 0.007005
129 0.006991
138 0.006989
143 0.006984
147 0.007979
150 0.007979
156 0.00701
158 0.007011
160 0.005967
163 0.005971
167 0.007971
169 0.006972
129 0.006978
90 0.00698
71 0.00698
70 0.005983
72 0.006983
78 0.007979
90 0.007979
107 0.007014
117 0.007018
121 0.007018
122 0.00798
126 0.006964
133 0.006968
139 0.006984
146 0.006979
151 0.006991
155 0.007014
158 0.007978
161 0.007951
164 0.006983
169 0.00698
171 0.007013
171 0.006964
139 0.007002
87 0.006979
75 0.006946
78 0.007013
81 0.00704
89 0.007025
107 0.007994
119 0.007971
123 0.006983
125 0.006984
127 0.006957
130 0.006981
134 0.006984
139 0.006988
144 0.006976
148 0.006962
152 0.006965
155 0.006976
157 0.007014
161 0.008018
165 0.006988
166 0.006984
129 0.007015
91 0.006959
76 0.006979
75 0.006982
80 0.006981
95 0.006978
109 0.006985
118 0.006981
122 0.006983
124 0.006982
125 0.006974
130 0.007017
135 0.007017
140 0.006973
145 0.006987
151 0.006971
155 0.006978
160 0.006983
162 0.006966
165 0.006984
169 0.007014
171 0.007017
137 0.007014
105 0.00696
74 0.006019
69 0.005993
70 0.00597
76 0.006988
85 0.006977
108 0.007015
116 0.006951
118 0.006971
120 0.007014
123 0.007013
130 0.005983
135 0.005974
140 0.00602
144 0.005982
149 0.00595
153 0.006016
156 0.005969
161 0.007033
165 0.007005
168 0.006976
157 0.006016
112 0.006018
76 0.006984
69 0.00602
69 0.005989
73 0.006015
81 0.005983
99 0.005982
113 0.005984
121 0.007017
123 0.00598
125 0.005976
129 0.007038
134 0.007018
142 0.006979
147 0.006982
151 0.006015
156 0.005981
159 0.005986
162 0.005985
166 0.005982
172 0.005985
170 0.006019
137 0.006021
95 0.006987
77 0.006946
75 0.007015
79 0.007012
86 0.006981
99 0.005968
112 0.005979
122 0.005985
123 0.005984
126 0.006019
129 0.00602
132 0.006015
137 0.006024
142 0.006024
147 0.006021
151 0.005018
153 0.006026
156 0.005986
159 0.005983
164 0.005989
164 0.005983
106 0.00602
80 0.005988
73 0.006015
75 0.006016
80 0.006017
87 0.004972
106 0.005019
115 0.004983
120 0.004983
122 0.005989
124 0.005996
128 0.005986
136 0.006014
142 0.006014
147 0.005984
151 0.005983
155 0.006019
157 0.006022
162 0.005021
165 0.004985
168 0.004995
170 0.004986
149 0.004954
90 0.005972
70 0.006024
67 0.006015
71 0.005984
76 0.006019
88 0.005021
103 0.005021
115 0.005026
117 0.004988
119 0.004989
122 0.004951
127 0.004976
134 0.004986
141 0.005991
147 0.006014
150 0.006014
153 0.005016
156 0.004988
159 0.005021
164 0.005021
168 0.004983
157 0.004982
113 0.004988
81 0.004988
69 0.004969
69 0.005033
77 0.006019
88 0.004983
103 0.00502
115 0.005024
120 0.005026
122 0.004991
124 0.004987
129 0.004989
134 0.004976
139 0.004977
146 0.004985
151 0.004982
155 0.00502
158 0.004024
161 0.005023
164 0.004981
168 0.005024
164 0.005021
126 0.004983
89 0.004975
73 0.004985
72 0.004988
77 0.005115
89 0.004992
107 0.004022
117 0.004026
121 0.004989
122 0.005004
124 0.005035
130 0.005019
134 0.004984
139 0.00498
144 0.004991
149 0.004985
154 0.003985
158 0.004023
162 0.004032
165 0.004029
169 0.004023
168 0.004023
137 0.005019
86 0.00497
73 0.00498
70 0.004991
73 0.004971
79 0.004987
94 0.004983
112 0.003983
119 0.004021
121 0.004022
123 0.003986
126 0.00399
131 0.004039
139 0.00498
143 0.004978
148 0.004985
153 0.004985
156 0.004989
160 0.003972
163 0.004023
168 0.003979
170 0.004038
157 0.004029
112 0.004023
81 0.004014
69 0.004005
70 0.003938
74 0.004983
82 0.005052
95 0.003989
114 0.00399
122 0.004023
124 0.00402
127 0.004019
131 0.004023
137 0.00402
142 0.004024
148 0.003997
153 0.003997
157 0.003991
160 0.003997
162 0.00403
167 0.003986
170 0.004026
174 0.004023
154 0.004022
108 0.00399
82 0.004028
75 0.004004
78 0.00399
84 0.00399
94 0.003989
108 0.002953
119 0.003956
123 0.00294
124 0.002993
127 0.004007
132 0.003936
138 0.004043
143 0.003991
147 0.004003
150 0.003989
156 0.003987
158 0.003958
160 0.003965
164 0.003953
168 0.002946
160 0.002953
117 0.002992
80 0.002997
74 0.004001
76 0.003988
80 0.004035
88 0.00395
107 0.003988
118 0.003958
123 0.003988
124 0.00294
126 0.002962
133 0.002994
138 0.002993
145 0.002994
150 0.004018
153 0.004008
158 0.004031
161 0.003996
163 0.003958
167 0.003962
170 0.002968
173 0.003001
162 0.002978
91 0.004024
73 0.003992
70 0.003991
72 0.002994
77 0.002995
88 0.003026
103 0.002974
116 0.002968
119 0.002988
121 0.003013
124 0.003949
128 0.003988
137 0.002997
142 0.002992
148 0.002992
152 0.003001
156 0.002991
159 0.003026
160 0.00296
165 0.00299
169 0.002949
169 0.00296
141 0.002971
97 0.002994
71 0.003023
71 0.003976
76 0.003991
84 0.003026
99 0.002026
113 0.003024
120 0.002963
124 0.002963
125 0.002961
128 0.002988
133 0.003986
138 0.003006
147 0.003025
152 0.001995
156 0.002993
160 0.002993
162 0.001952
165 0.002959
167 0.002959
172 0.00296
166 0.002963
124 0.002989
89 0.002986
76 0.002993
79 0.002992
84 0.003022
98 0.003035
113 0.002992
120 0.001996
123 0.002962
124 0.001992
128 0.001998
131 0.001998
136 0.001996
142 0.002
146 0.002009
153 0.002992
156 0.003024
160 0.002992
163 0.002992
166 0.002992
170 0.00198
166 0.001995
113 0.001994
84 0.001996
74 0.001991
74 0.002987
77 0.001954
90 0.001992
104 0.001997
118 0.00303
121 0.00301
123 0.002992
126 0.003029
130 0.001995
137 0.001995
142 0.001993
147 0.001997
151 0.001988
154 0.001999
160 0.002028
163 0.00203
167 0.001994
170 0.002027
168 0.002025
133 0.001999
91 0.002009
71 0.002003
70 0.001997
72 0.002
77 0.000975
88 0.001004
112 0.001995
119 0.001995
121 0.00203
124 0.002026
127 0.001994
132 0.001963
138 0.001998
145 0.001966
149 0.001993
153 0.000998
156 0.002002
159 0.001994
164 0.00204
168 0.002
171 0.00101
156 0.000992
110 0.000997
82 0.001993
73 0.001993
73 0.001961
79 0.001961
87 0.001971
101 0.001999
115 0.001953
125 0.002012
126 0.001998
127 0.002009
134 0.001995
139 0.002018
143 0.00204
148 0.002001
153 0.001998
158 0.001992
161 0.000991
164 0.001996
166 0.000999
171 0.000997
173 0.001007
149 0.000997
94 0.000998
78 0.000997
77 0.00199
81 0.001996
87 0.001966
103 0.001997
116 0.001998
122 0.000999
124 0.001952
126 0.000997
129 0.000956
134 0.000999
140 0.000998
145 0.001007
149 0.000985
153 0.001954
155 0.000997
159 0.000978
163 0.000998
166 0.001998
168 0.001958
118 0.001037
86 0.000999
75 0.00101
75 0.000998
79 0.000999
87 0.001011
100 0.000997
112 0.000988
121 0.000989
123 0.000982
124 0.000959
127 0.001984
136 0.00103
142 0.001
146 0.000997
152 0.000997
156 0.000999
158 0.001001
161 0.001019
163 0.000996
168 0.000996
169 0.000992
145 0.000981
99 0.0
70 0.001001
69 0.001032
71 0.000998
79 0.002041
93 0.001
107 0.0
116 0.0
119 0.0
121 0.0
124 0.000997
129 0.000998
135 0.000997
143 0.001005
148 0.000998
152 0.001009
157 0.001011
160 0.001
163 0.001
167 0.0
171 0.0
155 0.0
109 0.0
82 0.0
72 0.0
74 0.000997
80 0.000997
90 0.000997
111 0.000998
119 0.000993
123 0.0
124 0.0
127 0.0
131 0.0
138 0.0
143 0.0
147 0.000998
154 0.0
157 0.000997
160 0.000997
163 0.0
166 0.0
169 0.0
162 0.0
121 0.0
80 0.0
73 0.0
75 0.0
81 0.0
98 0.0
112 0.0
120 0.0
122 0.0
124 0.000997
128 0.000997
132 0.00103
137 0.0
144 0.0
148 0.0
152 0.0
156 0.0
161 0.0
164 0.0
167 0.000997
169 0.0
143 0.0
99 0.001004
74 0.000987
71 0.000984
74 0.000997
79 0.0
93 0.000958
103 0.0
119 0.0
122 0.0
123 0.0
127 0.000989
132 0.0
137 0.001998
142 0.0
147 0.000969
151 0.0
155 0.001977
158 0.001998
162 0.0
167 0.002039
170 0.0
152 0.0
107 0.0
79 0.001993
70 0.001992
71 0.0
75 0.0
83 0.0
97 0.001975
111 0.001998
119 0.0
122 0.001995
126 0.000997
131 0.0
139 0.0
146 0.001996
153 0.001996
162 0.0
167 0.0
171 0.000996
174 0.001023
178 0.000996
183 0.0
188 0.001028
157 0.0
97 0.0
66 0.0
58 0.000996
61 0.000997
71 0.0
84 0.0
104 0.0
118 0.001985
123 0.002001
126 0.0
129 0.002034
137 0.0
143 0.0
149 0.0
155 0.001987
159 0.000987
164 0.0
167 0.0
168 0.000973
173 0.002011
177 0.002005
181 0.000989
132 0.002026
73 0.0
61 0.0
62 0.0
69 0.001993
79 0.001999
101 0.0
116 0.0
123 0.0
124 0.000998
125 0.000995
132 0.0
140 0.001995
148 0.000997
154 0.000998
160 0.0
165 0.001998
169 0.001988
173 0.000989
176 0.0
180 0.000971
183 0.000981
182 0.001995
118 0.000997
66 0.000998
55 0.0
57 0.000951
60 0.000996
73 0.001996
91 0.002005
107 0.000997
116 0.000996
119 0.0
122 0.002027
126 0.00199
134 0.0
144 0.002021
152 0.0
158 0.0
163 0.0
167 0.002004
169 0.002009
175 0.0
178 0.0
183 0.001
171 0.001003
115 0.001971
66 0.000956
57 0.001961
62 0.0
70 0.0
84 0.0
103 0.001983
117 0.002015
123 0.001005
124 0.0
127 0.0
133 0.001997
140 0.003008
149 0.002007
157 0.001995
164 0.001984
167 0.001057
170 0.000997
174 0.002986
179 0.001986
183 0.0
185 0.001007
151 0.001966
94 0.001998
67 0.002003
64 0.001984
70 0.001878
86 0.000968
104 0.001999
117 0.00199
123 0.002975
125 0.002994
126 0.001959
131 0.0
137 0.002009
143 0.000964
148 0.001991
154 0.001995
161 0.002051
166 0.002993
169 0.001005
174 0.001996
178 0.000993
179 0.002987
143 0.002986
78 0.002085
61 0.001986
59 0.001988
64 0.002005
72 0.001981
98 0.001995
113 0.002993
121 0.001947
123 0.000994
125 0.001981
130 0.002992
136 0.002996
144 0.001029
150 0.000982
156 0.001996
162 0.002991
166 0.003029
171 0.003002
175 0.00196
180 0.00199
181 0.001999
142 0.002005
85 0.003027
59 0.002985
52 0.000995
54 0.000998
60 0.002051
72 0.002993
91 0.002994
112 0.002992
115 0.002994
119 0.002025
123 0.002002
129 0.001998
136 0.001943
143 0.001956
150 0.001995
156 0.001995
161 0.000999
165 0.002989
167 0.002991
175 0.003
180 0.003003
157 0.000999
98 0.000999
65 0.001
55 0.003987
54 0.003985
61 0.001991
73 0.001991
91 0.002013
108 0.002991
118 0.002963
121 0.003055
124 0.003025
132 0.000993
138 0.000999
146 0.002005
152 0.003004
157 0.003994
164 0.002014
167 0.001996
170 0.000965
174 0.002993
179 0.004004
179 0.002958
136 0.002992
72 0.000984
58 0.00102
60 0.001005
65 0.002997
73 0.002991
96 0.001964
111 0.00201
118 0.002003
120 0.003984
123 0.003989
130 0.003025
136 0.002992
144 0.001995
151 0.001994
156 0.000952
160 0.002976
164 0.003992
170 0.001992
173 0.002002
179 0.001993
181 0.003997
149 0.004007
71 0.004038
57 0.003992
58 0.001993
63 0.001993
72 0.003003
90 0.003994
107 0.003982
117 0.002985
120 0.002018
122 0.00197
127 0.003988
133 0.004028
145 0.004031
150 0.004023
158 0.000963
163 0.001997
166 0.001986
169 0.004025
174 0.003993
179 0.002985
181 0.002995
150 0.001996
92 0.003994
61 0.00399
53 0.003986
56 0.004021
68 0.001987
84 0.002985
103 0.003011
115 0.003993
118 0.003988
121 0.001961
126 0.002992
132 0.001954
139 0.002987
145 0.003985
156 0.001962
162 0.004026
167 0.004029
172 0.002994
176 0.002988
181 0.00299
185 0.003993
185 0.004006
125 0.00297
77 0.001999
59 0.001997
58 0.00499
67 0.002991
79 0.005019
98 0.004992
116 0.002989
123 0.001989
124 0.002014
126 0.003986
131 0.004024
139 0.002003
145 0.001982
152 0.002996
157 0.00402
165 0.002991
167 0.004019
170 0.004987
176 0.002992
179 0.003019
177 0.003028
140 0.004984
86 0.005019
59 0.00299
60 0.002051
67 0.001978
76 0.004022
103 0.002989
115 0.004024
120 0.004043
123 0.002985
126 0.002984
130 0.003029
137 0.005022
144 0.004986
151 0.002992
157 0.003006
162 0.002951
165 0.005986
171 0.003992
176 0.005016
180 0.004023
169 0.00299
113 0.002955
71 0.002998
56 0.004987
55 0.005013
61 0.00301
70 0.001973
85 0.002989
103 0.004985
116 0.002994
118 0.005975
122 0.006022
128 0.003993
135 0.002951
142 0.003991
148 0.004985
154 0.004981
160 0.00301
164 0.003033
167 0.002997
171 0.00499
179 0.003986
168 0.006049
113 0.006019
63 0.003026
54 0.003993
54 0.003999
58 0.00499
66 0.004985
89 0.003036
107 0.00404
116 0.00399
120 0.005021
125 0.003946
131 0.00602
139 0.005989
148 0.00399
155 0.003026
160 0.003022
163 0.005019
167 0.005022
173 0.003031
177 0.003031
182 0.003035
184 0.00498
110 0.00398
72 0.005984
60 0.005983
63 0.004026
68 0.002995
80 0.00403
99 0.00601
116 0.006019
124 0.003033
125 0.003027
128 0.003994
133 0.005986
142 0.004023
148 0.006017
153 0.006016
159 0.003983
162 0.004001
164 0.003981
168 0.005983
173 0.006021
174 0.003044
144 0.003986
91 0.004025
63 0.005988
60 0.00402
65 0.005977
76 0.005984
99 0.003969
112 0.003994
117 0.003977
119 0.006036
121 0.006985
127 0.003992
133 0.003024
139 0.003025
144 0.006013
153 0.003969
157 0.005973
162 0.006015
167 0.004018
172 0.003983
175 0.003963
148 0.006026
92 0.006011
58 0.003025
53 0.002987
53 0.005013
58 0.007011
80 0.004982
98 0.004984
109 0.006019
112 0.005983
116 0.004019
120 0.004019
126 0.003973
132 0.005996
139 0.006016
147 0.004999
152 0.004988
156 0.004996
163 0.004981
167 0.004024
171 0.007016
167 0.007024
102 0.004021
66 0.00402
53 0.003989
51 0.005986
53 0.00598
63 0.004986
80 0.004956
100 0.003983
114 0.003991
116 0.004989
119 0.007016
124 0.007012
134 0.003985
141 0.004011
147 0.004019
153 0.006013
160 0.006948
165 0.004979
170 0.004994
175 0.004989
182 0.004992
168 0.002998
114 0.005983
77 0.006024
62 0.00499
62 0.002994
67 0.003977
76 0.007035
95 0.007015
117 0.004956
124 0.003991
125 0.005035
130 0.004993
135 0.005976
142 0.005988
148 0.005983
155 0.004131
160 0.004978
164 0.004989
166 0.006994
169 0.007017
174 0.005011
177 0.004988
170 0.006013
95 0.004988
72 0.004986
67 0.007021
70 0.007015
79 0.004986
94 0.003988
111 0.003998
121 0.006994
124 0.007977
125 0.004995
128 0.004989
132 0.004985
141 0.005024
147 0.004973
153 0.007021
157 0.007015
163 0.004986
167 0.004019
170 0.003977
175 0.007982
177 0.007985
152 0.004983
100 0.004952
73 0.005985
63 0.004993
65 0.004989
69 0.00707
80 0.00698
104 0.004998
114 0.004984
117 0.004984
120 0.007978
122 0.007972
129 0.005987
136 0.004976
142 0.005982
151 0.00496
156 0.00498
161 0.00798
164 0.007018
168 0.005021
172 0.005018
176 0.006997
177 0.007978
122 0.007981
81 0.005991
64 0.005986
60 0.005983
64 0.005989
72 0.005954
94 0.007977
110 0.007979
117 0.006952
119 0.006951
122 0.006992
128 0.007976
134 0.007987
141 0.005962
148 0.005984
154 0.005986
162 0.005977
167 0.005989
172 0.007975
175 0.007976
178 0.005983
182 0.00604
186 0.006987
168 0.006977
114 0.007985
82 0.006977
69 0.006978
67 0.005991
75 0.00597
87 0.006012
106 0.007976
124 0.007009
128 0.006951
130 0.00695
132 0.006942
137 0.006943
146 0.007012
152 0.007013
158 0.005986
164 0.006012
172 0.005989
177 0.006014
181 0.006949
184 0.007012
186 0.006983
191 0.006972
194 0.006984
184 0.006966
130 0.007016
92 0.007016
78 0.006986
79 0.006988
93 0.00698
103 0.006992
120 0.00598
131 0.007968
136 0.00797
137 0.006966
137 0.00698
142 0.00693
148 0.006954
152 0.006977
158 0.006982
164 0.006965
169 0.006016
172 0.005973
175 0.006981
179 0.007979
181 0.007979
186 0.006965
180 0.006979
151 0.006967
91 0.006983
77 0.006943
78 0.006951
83 0.006978
100 0.006981
121 0.006966
131 0.006969
133 0.006942
134 0.007987
137 0.00697
139 0.00698
145 0.006947
152 0.006982
158 0.006984
163 0.006984
170 0.006971
176 0.006976
178 0.00699
182 0.006959
185 0.006941
188 0.005984
182 0.006958
129 0.005981
85 0.006025
68 0.00598
66 0.006946
70 0.006986
77 0.00698
104 0.006978
119 0.006972
124 0.006973
125 0.006991
127 0.006986
132 0.006978
137 0.005983
144 0.005977
150 0.005979
156 0.005992
163 0.005958
168 0.005985
173 0.006979
174 0.006951
177 0.00698
182 0.006944
183 0.005988
148 0.006979
82 0.005987
65 0.005993
62 0.005981
65 0.005985
75 0.005984
89 0.005918
118 0.006963
124 0.006977
125 0.00698
127 0.006999
131 0.00698
137 0.005983
144 0.005977
151 0.005981
156 0.005981
161 0.005979
167 0.005985
170 0.005979
176 0.00598
179 0.006982
181 0.006961
182 0.006983
140 0.005977
79 0.005987
65 0.005986
66 0.005986
70 0.005993
79 0.005982
101 0.005976
116 0.005975
123 0.005984
124 0.005982
127 0.006944
131 0.005994
136 0.005994
144 0.005986
149 0.00599
153 0.005954
158 0.00599
162 0.005974
166 0.005986
170 0.006019
176 0.004981
173 0.005986
129 0.004985
82 0.005036
62 0.004985
62 0.005991
68 0.005984
75 0.005983
92 0.00597
109 0.005986
120 0.005986
122 0.005981
125 0.005983
131 0.004987
137 0.004973
142 0.004986
149 0.00499
155 0.004987
161 0.00599
165 0.005962
168 0.005986
171 0.006015
175 0.006015
181 0.005952
166 0.004995
91 0.00502
61 0.004983
53 0.004989
53 0.004987
58 0.005038
70 0.005965
89 0.005987
105 0.005975
113 0.005975
115 0.006017
119 0.005978
125 0.004989
134 0.004989
140 0.004982
146 0.005007
152 0.004986
157 0.004985
163 0.004982
166 0.005994
169 0.005952
173 0.006028
177 0.00502
169 0.005023
96 0.00499
58 0.005046
53 0.004954
55 0.004987
60 0.004986
70 0.004986
96 0.004986
112 0.004952
118 0.004979
121 0.005033
123 0.004032
128 0.004995
138 0.005009
146 0.004987
153 0.004987
158 0.004989
163 0.004988
166 0.00497
171 0.00498
174 0.004985
178 0.004983
182 0.003989
181 0.004025
115 0.004026
66 0.003951
60 0.004942
65 0.005004
72 0.004986
85 0.004989
103 0.004969
118 0.004985
120 0.00499
120 0.004994
123 0.00502
127 0.003971
135 0.00398
143 0.003994
151 0.003987
155 0.004948
159 0.004972
163 0.004981
166 0.004983
171 0.004954
175 0.004989
177 0.004993
140 0.004987
86 0.004031
59 0.004032
59 0.004001
67 0.003995
78 0.003998
96 0.004967
111 0.004993
118 0.00497
120 0.004986
123 0.003979
128 0.004028
134 0.004019
140 0.004022
149 0.003984
156 0.003994
163 0.003956
166 0.003975
169 0.003998
172 0.003993
176 0.004986
181 0.004987
166 0.004989
106 0.003976
65 0.004027
52 0.004025
52 0.003992
58 0.003984
74 0.003971
94 0.003974
109 0.003986
115 0.003992
117 0.002979
121 0.004975
126 0.003992
132 0.004034
138 0.004022
145 0.004025
153 0.00403
160 0.00399
165 0.003981
168 0.003976
172 0.003952
177 0.003979
181 0.003989
148 0.004005
90 0.003951
61 0.003027
53 0.003033
55 0.004039
62 0.003989
80 0.004025
106 0.003971
117 0.003988
120 0.003952
121 0.003998
125 0.00398
132 0.003987
139 0.002973
145 0.003011
152 0.003958
157 0.002992
163 0.004048
167 0.003932
173 0.003993
176 0.003988
180 0.003982
178 0.003987
133 0.002975
80 0.002988
56 0.002978
58 0.003026
65 0.00303
74 0.002993
89 0.002992
114 0.003982
119 0.003988
121 0.003991
124 0.003993
129 0.002948
136 0.002982
142 0.002958
150 0.002991
156 0.003027
161 0.003025
164 0.00404
168 0.003024
173 0.003925
179 0.003999
178 0.00399
135 0.003981
81 0.003002
57 0.002995
52 0.003001
57 0.003011
63 0.002995
76 0.002987
96 0.003051
110 0.002992
117 0.002986
119 0.003988
124 0.004013
131 0.00399
138 0.004007
144 0.003
149 0.003998
156 0.003992
161 0.002993
164 0.002995
168 0.003039
171 0.002992
179 0.002959
175 0.003012
105 0.003988
64 0.00298
50 0.002986
48 0.002989
53 0.003958
64 0.003007
80 0.003028
100 0.002018
113 0.001997
116 0.002992
120 0.002972
125 0.002987
135 0.002992
142 0.002958
148 0.003
154 0.002953
160 0.002983
164 0.00299
169 0.002992
173 0.002993
176 0.001991
180 0.001973
175 0.001989
120 0.00199
65 0.003009
55 0.002984
57 0.002984
63 0.002989
74 0.002994
98 0.003037
114 0.002992
120 0.002025
122 0.002034
123 0.001995
131 0.001995
137 0.002961
143 0.001965
148 0.002996
152 0.003045
156 0.003001
159 0.002993
163 0.002993
168 0.002996
171 0.001995
174 0.001995
155 0.002029
73 0.001992
58 0.001999
59 0.001996
66 0.001991
78 0.002989
95 0.002992
111 0.002998
120 0.002993
120 0.002022
122 0.001996
128 0.001996
134 0.001996
145 0.002
151 0.001997
157 0.001995
164 0.001962
167 0.001996
170 0.001993
172 0.002989
178 0.001995
181 0.002037
167 0.002026
107 0.00203
67 0.001996
51 0.001994
53 0.001992
61 0.001984
75 0.002017
95 0.00198
108 0.001993
113 0.001992
116 0.001028
119 0.001994
125 0.001997
132 0.001995
139 0.002023
149 0.001967
155 0.001992
162 0.002013
165 0.002002
167 0.001998
171 0.002003
176 0.001994
179 0.000999
150 0.001031
90 0.000997
59 0.001995
50 0.001996
53 0.001995
60 0.001988
81 0.002028
100 0.001998
113 0.002001
118 0.002004
120 0.001992
125 0.001029
131 0.001001
139 0.000999
146 0.000998
152 0.001995
161 0.001967
166 0.002006
170 0.001997
173 0.001996
177 0.001996
182 0.000994
185 0.000998
173 0.000997
98 0.000998
65 0.000998
56 0.002028
60 0.002024
73 0.001967
89 0.002001
108 0.001993
120 0.002
122 0.002005
122 0.000973
125 0.00101
130 0.000999
139 0.000952
144 0.000965
150 0.000998
157 0.000997
165 0.00196
168 0.000998
171 0.001995
176 0.002001
180 0.002034
178 0.001994
132 0.000977
80 0.000993
57 0.002044
56 0.000989
61 0.000997
69 0.000997
97 0.001994
111 0.001961
118 0.00099
122 0.00199
124 0.00199
129 0.001961
135 0.000998
143 0.000998
150 0.000997
156 0.000998
162 0.000998
166 0.000997
171 0.001013
173 0.000998
178 0.001028
183 0.001016
172 0.001028
114 0.000994
69 0.000997
54 0.001995
52 0.001972
57 0.001992
65 0.000998
81 0.000998
110 0.001018
116 0.001011
118 0.000996
121 0.001032
126 0.001008
133 0.000983
141 0.000964
147 0.000997
156 0.000997
161 0.000997
165 0.001033
169 0.0
174 0.0
180 0.0
185 0.0
180 0.000997
124 0.001003
76 0.000959
57 0.000992
54 0.00099
61 0.000974
70 0.000998
87 0.0
106 0.0
122 0.0
124 0.0
125 0.0
131 0.0
138 0.000997
145 0.0
151 0.0
156 0.001032
164 0.000992
167 0.001001
170 0.0
172 0.0
178 0.0
181 0.0
175 0.0
105 0.0
68 0.0
58 0.0
61 0.0
68 0.0
83 0.0
102 0.0
116 0.0
123 0.000997
125 0.000998
128 0.0
133 0.0
142 0.0
149 0.0
154 0.0
160 0.0
166 0.0
169 0.0
173 0.0
176 0.0
180 0.0
184 0.00102
147 0.0
88 0.0
57 0.0
55 0.0
58 0.0
64 0.0
76 0.0
100 0.0
113 0.0
118 0.0
119 0.0
125 0.000996
131 0.001015
138 0.0
146 0.0
152 0.001006
158 0.001016
163 0.000997
166 0.0
170 0.002027
174 0.0
179 0.000984
181 0.0
118 0.0
71 0.0
54 0.0
52 0.0
57 0.001988
69 0.0
88 0.00201
107 0.000998
117 0.002028
120 0.001029
123 0.000968
128 0.0
140 0.0
147 0.0
152 0.0
158 0.0
164 0.001987
169 0.002028
172 0.0
176 0.0
179 0.000961
183 0.002026
186 0.002024
145 0.0
75 0.001971
57 0.0
61 0.0
69 0.0
79 0.001999
97 0.002027
119 0.0
124 0.0
125 0.001001
125 0.002026
129 0.002029
135 0.0
142 0.002005
148 0.0
154 0.0
158 0.0
161 0.001995
164 0.002031
170 0.0
174 0.0
177 0.0
156 0.002028
98 0.001997
60 0.0
60 0.001999
68 0.000994
74 0.000976
96 0.0
112 0.001997
120 0.002034
122 0.0
125 0.0
129 0.0
135 0.002036
142 0.002035
150 0.0
158 0.002003
165 0.0
169 0.0
171 0.0
174 0.001958
178 0.002034
182 0.0
169 0.000966
110 0.0
68 0.002027
53 0.002029
53 0.0
59 0.001995
76 0.000974
95 0.000992
109 0.0
115 0.003022
118 0.002992
121 0.0
126 0.0
133 0.0
140 0.001993
146 0.002034
155 0.0
160 0.001995
165 0.0
167 0.0
172 0.0
177 0.002005
179 0.002033
128 0.0
76 0.0
55 0.000998
51 0.001028
54 0.002015
62 0.0
84 0.001995
109 0.0
117 0.000967
120 0.000991
122 0.001996
127 0.002028
136 0.0
143 0.000997
150 0.0
155 0.002992
161 0.002992
167 0.000949
172 0.002005
176 0.0
180 0.0
185 0.0
179 0.001991
128 0.001977
70 0.0
58 0.0
59 0.0
66 0.001995
76 0.00203
100 0.000962
121 0.001993
125 0.0
126 0.000996
128 0.0
133 0.002039
139 0.002028
146 0.0
151 0.0
155 0.0
159 0.002022
162 0.002035
165 0.0
172 0.001995
177 0.0
166 0.000998
111 0.0
70 0.003031
57 0.001985
61 0.0
69 0.0
81 0.0
99 0.002028
114 0.002028
121 0.0
122 0.001993
128 0.0
134 0.001994
139 0.001008
146 0.002993
152 0.002994
159 0.001018
163 0.001964
167 0.002019
170 0.002029
173 0.002993
180 0.0
173 0.001995
99 0.0
62 0.001995
51 0.001998
52 0.001993
55 0.002992
62 0.002993
85 0.0
103 0.002038
113 0.0
116 0.001978
117 0.001973
124 0.001995
131 0.002992
140 0.001999
147 0.0
152 0.002004
157 0.002993
160 0.003026
166 0.001996
169 0.001993
173 0.003001
177 0.003995
163 0.003043
75 0.00297
54 0.001985
51 0.002006
55 0.002005
62 0.002003
77 0.002993
98 0.002992
117 0.001995
120 0.001989
122 0.001997
126 0.00299
131 0.002991
142 0.002991
149 0.002992
158 0.001995
162 0.000994
165 0.001994
169 0.003034
173 0.002992
178 0.002042
182 0.001973
180 0.002009
132 0.004021
80 0.004018
57 0.003981
60 0.002962
71 0.001994
85 0.000974
104 0.002008
117 0.003989
121 0.003975
121 0.002003
124 0.001996
130 0.001998
136 0.002992
142 0.003024
151 0.003026
156 0.003032
161 0.001995
164 0.001979
169 0.002053
174 0.003986
177 0.00399
151 0.002025
94 0.00201
64 0.001998
57 0.003007
60 0.002993
72 0.002992
88 0.002997
109 0.001997
118 0.002017
121 0.001985
123 0.003989
127 0.00399
135 0.002029
142 0.002037
147 0.002006
153 0.00399
158 0.002992
166 0.00399
170 0.003986
174 0.001992
178 0.002
182 0.002012
167 0.00399
106 0.004039
59 0.003002
51 0.00204
51 0.002011
55 0.003025
64 0.00402
95 0.00302
109 0.002966
116 0.002002
118 0.001994
121 0.001978
126 0.003988
134 0.004022
143 0.001994
148 0.00194
154 0.002037
160 0.003989
163 0.004021
169 0.004935
172 0.00398
179 0.002023
173 0.002005
119 0.001996
73 0.004023
55 0.004022
53 0.001992
57 0.001997
66 0.001971
82 0.004033
102 0.003989
120 0.004019
121 0.00399
125 0.001987
130 0.002044
137 0.002011
144 0.003987
151 0.003993
158 0.001993
164 0.001998
167 0.002004
170 0.003995
173 0.003989
180 0.004985
185 0.004022
156 0.003029
96 0.00203
65 0.001993
58 0.003981
62 0.003989
70 0.001995
85 0.001996
105 0.002998
118 0.004022
122 0.00399
124 0.003976
129 0.004985
139 0.001979
151 0.003036
161 0.002995
170 0.004987
178 0.004024
188 0.001995
194 0.002015
200 0.001972
207 0.003989
214 0.004989
224 0.00399
193 0.004954
108 0.002999
83 0.002946
81 0.002978
88 0.003005
101 0.004983
135 0.002029
157 0.002005
165 0.001987
166 0.002003
164 0.003989
163 0.001997
159 0.003985
152 0.004975
145 0.002992
141 0.002958
139 0.002991
141 0.005016
146 0.004989
153 0.001978
158 0.002043
150 0.001995
100 0.004988
45 0.001998
39 0.003988
42 0.004991
52 0.002977
67 0.002992
87 0.002992
101 0.005022
107 0.004987
108 0.003002
113 0.003047
118 0.002996
126 0.005984
137 0.002876
142 0.005027
149 0.005019
156 0.002992
160 0.00202
163 0.001996
168 0.004987
172 0.00502
173 0.003013
130 0.002993
76 0.002969
53 0.004987
47 0.001994
50 0.005984
57 0.005983
76 0.002992
96 0.002994
110 0.002992
115 0.005018
117 0.005018
124 0.002999
131 0.002992
138 0.002969
144 0.005017
156 0.002988
162 0.006019
168 0.005984
173 0.003028
177 0.002993
181 0.002996
187 0.004998
189 0.005021
150 0.003002
107 0.002961
88 0.003002
83 0.006019
86 0.002993
93 0.006015
105 0.006019
127 0.002977
137 0.002968
140 0.003026
142 0.005025
146 0.004986
153 0.003004
159 0.002959
166 0.002972
172 0.005984
180 0.003973
185 0.005977
188 0.00599
193 0.003988
196 0.003038
200 0.003007
204 0.005994
200 0.005984
149 0.003006
126 0.003003
119 0.00298
118 0.005984
122 0.002992
130 0.006018
144 0.005984
157 0.004004
159 0.003038
160 0.002988
163 0.005984
167 0.006014
172 0.002957
178 0.003984
183 0.003981
187 0.006026
194 0.002993
197 0.006014
200 0.006019
204 0.003015
206 0.003031
210 0.003024
214 0.006017
204 0.006982
159 0.003996
144 0.003981
140 0.003987
139 0.006044
145 0.003024
153 0.005968
166 0.005984
173 0.00401
174 0.00399
176 0.002999
177 0.005983
180 0.005984
186 0.004032
190 0.003992
193 0.003989
197 0.005984
203 0.002963
206 0.005969
208 0.005984
210 0.003994
213 0.003988
216 0.003975
241 0.005984
99 0.005989
179 0.003996
163 0.003978
159 0.00401
162 0.006987
170 0.003978
181 0.006981
193 0.007016
198 0.004011
197 0.003974
197 0.004009
198 0.006024
202 0.005878
207 0.003989
211 0.003973
215 0.003992
220 0.006984
225 0.003942
227 0.00703
229 0.006969
232 0.006958
235 0.003991
237 0.003989
235 0.00396
203 0.007034
176 0.007012
164 0.003994
165 0.003972
167 0.003935
177 0.00494
189 0.004932
196 0.006982
198 0.006981
196 0.004981
196 0.004979
198 0.003997
202 0.006981
206 0.006982
211 0.004973
215 0.003977
218 0.003992
223 0.003988
224 0.003962
227 0.006982
228 0.006982
99 0.004982
233 0.004986
224 0.004997
188 0.006981
167 0.007016
160 0.004989
161 0.004994
162 0.00504
174 0.004021
184 0.005003
191 0.007019
191 0.007013
190 0.004955
190 0.004984
192 0.004987
195 0.007036
198 0.007013
248 0.004988
252 0.004984
255 0.005986
255 0.004031
255 0.005036
255 0.007979
255 0.007949
255 0.005019
255 0.005017
255 0.00502
212 0.006982
183 0.007013
171 0.005008
169 0.00501
172 0.00499
193 0.004996
210 0.005988
216 0.007978
215 0.007978
214 0.004964
214 0.004991
215 0.005013
221 0.006966
226 0.007029
232 0.004988
238 0.005009
242 0.004984
245 0.005021
247 0.005985
249 0.007979
254 0.007981
255 0.005982
240 0.005983
160 0.004978
143 0.007963
140 0.007978
140 0.004988
143 0.004979
147 0.005995
159 0.004988
160 0.005978
159 0.007992
159 0.007971
159 0.005986
160 0.005989
163 0.005026
167 0.007979
169 0.007857
172 0.004982
175 0.005947
176 0.005982
178 0.005987
179 0.005973
182 0.007968
184 0.007984
171 0.005044
145 0.005037
130 0.00499
123 0.007968
121 0.007976
121 0.005987
124 0.005985
131 0.005991
139 0.00598
140 0.005981
139 0.007982
139 0.007979
142 0.006
145 0.005985
148 0.004975
150 0.007978
155 0.006983
157 0.006028
159 0.005985
161 0.005983
164 0.00599
166 0.005977
167 0.007977
149 0.007963
125 0.005977
112 0.006928
106 0.006949
104 0.007968
105 0.007026
111 0.006948
120 0.005952
126 0.006017
128 0.00595
129 0.005987
130 0.007992
133 0.007956
137 0.005983
139 0.005989
142 0.005984
147 0.00798
160 0.007979
163 0.00599
167 0.006984
172 0.006981
179 0.006015
179 0.006
153 0.006016
106 0.006967
88 0.006982
81 0.005978
83 0.005982
88 0.005983
103 0.007973
115 0.007013
120 0.006979
120 0.00698
120 0.006951
124 0.006017
127 0.006975
135 0.006979
140 0.006967
145 0.005991
151 0.00598
156 0.006948
160 0.007021
164 0.00701
168 0.006935
172 0.006987
142 0.006982
113 0.006982
85 0.006947
70 0.007013
68 0.007015
71 0.005976
79 0.005997
97 0.005985
106 0.006015
110 0.006023
110 0.006981
112 0.006981
117 0.006981
126 0.006984
130 0.005983
137 0.006983
143 0.006979
150 0.00599
152 0.006014
157 0.006019
161 0.006985
164 0.00602
169 0.005985
155 0.005985
88 0.006948
72 0.006964
62 0.006976
58 0.007021
61 0.007013
74 0.005991
86 0.005946
101 0.006008
104 0.006015
105 0.006017
111 0.005969
115 0.005989
126 0.005983
132 0.005985
139 0.005984
145 0.006981
151 0.006981
155 0.006981
159 0.005984
162 0.006981
169 0.006016
173 0.006025
165 0.005986
124 0.005986
76 0.005993
67 0.005983
70 0.006016
75 0.005993
85 0.006042
106 0.005985
114 0.005987
115 0.00698
114 0.006982
116 0.006983
121 0.006982
127 0.005983
136 0.005983
143 0.005981
149 0.005985
153 0.00602
156 0.006016
162 0.005975
165 0.005981
169 0.005987
173 0.006014
155 0.006017
112 0.006973
76 0.005988
67 0.005986
71 0.006018
79 0.005984
93 0.005984
106 0.005969
113 0.005983
115 0.005979
117 0.005981
121 0.006013
127 0.004983
134 0.005968
141 0.005989
150 0.005983
157 0.005984
162 0.005988
164 0.005975
167 0.006014
174 0.005981
177 0.005981
178 0.005975
149 0.006015
104 0.005022
70 0.004991
62 0.004978
61 0.005984
67 0.005979
81 0.005989
97 0.006021
106 0.00602
108 0.005979
111 0.005968
116 0.005979
120 0.006015
127 0.005021
137 0.005018
143 0.005021
153 0.004989
158 0.004986
161 0.005993
165 0.005988
171 0.006011
177 0.005981
180 0.005983
158 0.004972
113 0.005976
81 0.005017
64 0.004973
62 0.004983
69 0.004987
84 0.004988
101 0.004989
112 0.004979
114 0.005021
115 0.006045
121 0.005987
125 0.005016
131 0.004982
139 0.005022
145 0.005023
153 0.00501
161 0.005024
165 0.004952
169 0.004985
172 0.00499
176 0.004953
179 0.00498
158 0.004994
111 0.004994
79 0.00598
67 0.006003
66 0.005023
72 0.005018
90 0.005034
108 0.004985
113 0.004985
115 0.004979
116 0.004988
120 0.00502
127 0.004988
134 0.003991
140 0.004987
147 0.005019
152 0.005019
159 0.004982
164 0.005022
170 0.004982
174 0.00499
177 0.004976
178 0.005018
148 0.004969
90 0.004995
68 0.00499
60 0.003983
58 0.003954
60 0.005012
77 0.00499
96 0.004987
106 0.004985
107 0.004976
110 0.004971
115 0.00502
121 0.005018
129 0.004991
137 0.004025
143 0.004027
149 0.003989
153 0.004022
160 0.004961
165 0.00503
170 0.004976
175 0.004025
171 0.003992
131 0.005018
87 0.00502
58 0.004017
52 0.004981
53 0.004024
57 0.004021
72 0.004038
94 0.004
105 0.00398
108 0.00395
112 0.003949
118 0.004022
125 0.004989
131 0.004955
142 0.004956
147 0.004023
154 0.003993
158 0.003992
164 0.004022
167 0.00399
175 0.004029
180 0.004024
173 0.003987
130 0.004986
88 0.005028
66 0.004025
61 0.00502
63 0.004035
72 0.003976
89 0.00402
105 0.004017
111 0.003989
113 0.004022
118 0.003989
123 0.003957
128 0.004021
133 0.004021
140 0.003997
147 0.003991
153 0.003997
157 0.003027
161 0.003992
164 0.003955
169 0.00398
173 0.003991
135 0.004019
89 0.003989
63 0.004003
57 0.004035
57 0.004024
65 0.003989
81 0.002999
97 0.004042
106 0.00399
109 0.002994
113 0.003967
117 0.003997
126 0.003024
132 0.00399
139 0.003991
145 0.004057
153 0.004024
157 0.003986
164 0.00403
166 0.004023
170 0.004024
174 0.003989
175 0.002988
119 0.003026
65 0.003974
49 0.003022
44 0.003003
46 0.002991
50 0.003991
72 0.003992
89 0.004038
96 0.004029
98 0.003957
102 0.00399
109 0.004013
119 0.003025
126 0.002992
135 0.002988
142 0.002991
148 0.003027
152 0.002992
156 0.002992
162 0.003951
167 0.003943
173 0.004032
170 0.002972
132 0.002979
64 0.003023
48 0.001973
44 0.003031
48 0.003025
58 0.00292
76 0.00297
93 0.00295
101 0.004022
104 0.004027
109 0.003033
115 0.002993
122 0.002989
134 0.002994
140 0.002992
151 0.003032
156 0.002995
160 0.002997
165 0.002992
170 0.003024
174 0.003028
179 0.002996
167 0.003989
117 0.002996
74 0.001995
50 0.002992
51 0.002992
62 0.002994
78 0.003023
96 0.003023
104 0.003025
107 0.00299
110 0.003034
116 0.002992
121 0.001982
127 0.001968
135 0.002993
146 0.002032
152 0.00203
158 0.002993
163 0.002031
168 0.003011
173 0.003026
177 0.003023
170 0.003023
122 0.002996
77 0.002999
53 0.002994
46 0.00296
48 0.001995
58 0.001995
82 0.002026
96 0.002035
103 0.001994
105 0.002027
107 0.002994
118 0.001994
123 0.00298
130 0.003025
139 0.003001
146 0.002036
156 0.001995
160 0.001995
165 0.001995
170 0.001995
174 0.001995
178 0.00204
168 0.001995
103 0.003032
64 0.003032
45 0.002992
39 0.003001
40 0.001985
57 0.002035
78 0.001995
96 0.001995
101 0.002034
104 0.002028
107 0.001995
114 0.001995
125 0.002028
133 0.00199
142 0.002039
150 0.003001
156 0.00199
165 0.001995
168 0.001989
175 0.001995
179 0.001995
183 0.001995
181 0.001995
141 0.001995
77 0.00204
56 0.002014
50 0.001022
52 0.001994
58 0.000985
88 0.001987
104 0.000998
110 0.002029
111 0.001996
115 0.002006
121 0.001995
122 0.00205
118 0.002027
118 0.001986
120 0.00203
123 0.002998
127 0.000982
135 0.000998
142 0.000968
153 0.000997
160 0.001986
157 0.000998
114 0.002035
71 0.002041
47 0.001966
46 0.002025
51 0.001995
60 0.001965
80 0.001972
105 0.000999
111 0.000998
113 0.000997
117 0.001994
125 0.001995
132 0.001995
138 0.001995
150 0.001995
156 0.000998
162 0.001999
166 0.00296
172 0.002004
178 0.002052
182 0.000998
186 0.000998
183 0.001045
135 0.001995
83 0.001023
56 0.000998
46 0.000998
45 0.001985
52 0.002026
69 0.00195
88 0.001953
105 0.002039
107 0.002049
110 0.001985
118 0.000998
125 0.000997
132 0.001008
141 0.000995
148 0.000998
156 0.002025
162 0.001981
168 0.00198
171 0.00199
179 0.001992
184 0.001042
189 0.000998
165 0.000997
108 0.000997
68 0.000997
51 0.000998
46 0.000997
49 0.000997
61 0.001006
81 0.001
97 0.000995
108 0.000997
111 0.0
114 0.0
123 0.0
131 0.0
140 0.0
146 0.0
152 0.0
161 0.0
164 0.000989
167 0.001027
170 0.001007
177 0.000997
180 0.000997
165 0.000998
94 0.000998
60 0.0
48 0.0
48 0.0
54 0.0
74 0.0
93 0.0
103 0.000993
108 0.000995
112 0.000998
118 0.001013
124 0.000998
133 0.000998
142 0.0
149 0.0
154 0.0
160 0.0
166 0.0
169 0.0
173 0.0
179 0.0
179 0.0
133 0.0
79 0.0
46 0.0
39 0.0
40 0.0
45 0.0
61 0.0
86 0.000998
96 0.0
100 0.0
104 0.0
112 0.0
119 0.0
126 0.0
138 0.0
144 0.0
150 0.0
155 0.0
160 0.0
165 0.0
170 0.000983
176 0.001016
175 0.0
100 0.0
47 0.0
35 0.0
31 0.0
34 0.002029
51 0.000968
65 0.0
85 0.000999
96 0.0
100 0.003
104 0.001007
110 0.000991
125 0.0
132 0.0
139 0.0
148 0.002026
154 0.002026
160 0.0
164 0.0
170 0.0
176 0.003001
181 0.003003
163 0.0
109 0.0
47 0.0
38 0.0
39 0.0
47 0.002006
63 0.00199
88 0.0
98 0.000968
101 0.001003
103 0.002986
108 0.002992
116 0.0
124 0.0
136 0.000965
143 0.000961
149 0.001011
154 0.000983
159 0.002026
165 0.0
170 0.0
176 0.0
170 0.0
122 0.001994
69 0.002992
37 0.0
33 0.003026
39 0.0
54 0.0
76 0.0
92 0.00198
97 0.002004
101 0.0
106 0.0
112 0.000999
120 0.001997
128 0.002995
139 0.0
149 0.002025
156 0.0
161 0.0
165 0.0
169 0.003023
174 0.002027
179 0.000967
148 0.0
87 0.0
46 0.002964
29 0.003025
24 0.0
31 0.002026
54 0.001034
75 0.0
88 0.0
92 0.00302
96 0.002985
103 0.000963
110 0.0
119 0.0
129 0.001992
137 0.001985
146 0.0
155 0.002026
162 0.0
167 0.000997
171 0.000966
177 0.002026
182 0.002043
145 0.0
85 0.0
48 0.0
33 0.003002
29 0.003021
36 0.0
57 0.003026
86 0.0
95 0.0
100 0.0
103 0.002042
109 0.002026
118 0.0
127 0.000963
137 0.0
143 0.002955
149 0.002985
158 0.0
162 0.0
168 0.0
172 0.0
177 0.0
178 0.002025
142 0.002026
67 0.0
39 0.001014
32 0.0
35 0.002992
44 0.002992
70 0.0
88 0.001998
100 0.0
102 0.0
108 0.0
115 0.002025
122 0.002025
134 0.0
142 0.0
148 0.001009
155 0.001994
160 0.002991
165 0.001002
170 0.0
178 0.0
184 0.0
158 0.0
94 0.002992
48 0.002999
27 0.0
26 0.0
29 0.0
42 0.002993
65 0.001997
86 0.0
93 0.000994
99 0.000997
105 0.001003
112 0.0
120 0.003016
130 0.003025
140 0.0
147 0.0
153 0.000959
160 0.002006
163 0.001978
169 0.000948
176 0.000997
176 0.0
125 0.000987
64 0.0
31 0.002026
21 0.002025
22 0.0
30 0.000997
48 0.0
72 0.002992
89 0.002986
97 0.001
100 0.0
110 0.001001
117 0.0
127 0.0
136 0.001985
144 0.001982
152 0.0
158 0.000949
164 0.0
168 0.002995
172 0.002992
181 0.0
184 0.0
112 0.0
57 0.0
32 0.0
28 0.003029
31 0.003031
45 0.0
68 0.000997
86 0.000962
93 0.002953
97 0.001979
101 0.001995
106 0.0
119 0.002992
130 0.0
139 0.0
146 0.0
152 0.002996
156 0.003039
163 0.0
168 0.0
174 0.0
179 0.002992
169 0.00296
86 0.000967
33 0.002992
20 0.002034
22 0.00198
30 0.002026
46 0.002996
70 0.003014
89 0.001996
93 0.001994
96 0.002992
102 0.004024
110 0.00403
122 0.002997
131 0.003022
144 0.002996
151 0.001996
156 0.002026
161 0.003028
166 0.004029
172 0.0
179 0.002992
181 0.000997
141 0.003992
73 0.002993
25 0.002993
11 0.003949
15 0.003014
25 0.002992
47 0.0
71 0.002984
84 0.002993
89 0.001993
94 0.001996
100 0.002973
109 0.004031
118 0.003997
131 0.002953
142 0.003989
152 0.002991
158 0.003957
163 0.002025
170 0.002993
175 0.002997
183 0.000972
188 0.0
156 0.001992
86 0.004023
41 0.002434
21 0.000966
23 0.003046
35 0.002992
59 0.001997
83 0.002031
94 0.003993
98 0.004027
103 0.002004
108 0.002002
115 0.002987
125 0.004018
133 0.003974
142 0.002993
151 0.00399
156 0.002006
161 0.003002
165 0.003015
169 0.003989
174 0.004012
178 0.002993
136 0.002972
71 0.003013
34 0.004021
24 0.003999
28 0.0
44 0.004018
75 0.002991
92 0.001995
99 0.002017
101 0.003936
106 0.004987
115 0.002994
122 0.003007
131 0.002995
140 0.00396
148 0.004002
157 0.001994
166 0.004022
172 0.002044
176 0.002
180 0.002991
185 0.00399
189 0.00299
134 0.002982
67 0.001994
33 0.002972
20 0.004019
20 0.003975
28 0.002001
53 0.00402
84 0.001994
93 0.00299
97 0.002001
100 0.004987
107 0.005991
118 0.003026
128 0.002009
138 0.003002
147 0.004025
153 0.004999
164 0.002989
171 0.004013
177 0.002975
183 0.001994
189 0.002022
195 0.003997
176 0.00402
83 0.003002
41 0.002994
24 0.002977
22 0.005003
28 0.004983
49 0.002994
80 0.005022
96 0.001997
101 0.002994
105 0.002994
109 0.004023
116 0.004995
124 0.005015
135 0.003
141 0.003014
149 0.00199
154 0.005001
160 0.003992
167 0.005023
171 0.005018
180 0.001999
182 0.002976
146 0.002985
76 0.004939
37 0.004995
24 0.002999
28 0.003029
38 0.003031
57 0.004978
80 0.004979
100 0.004987
103 0.005024
110 0.00299
115 0.002992
123 0.002986
133 0.005997
142 0.004972
151 0.003026
159 0.00299
166 0.003039
171 0.004987
174 0.004992
181 0.004986
188 0.005032
185 0.003956
129 0.002027
62 0.002991
29 0.004981
19 0.005951
22 0.004011
31 0.00301
49 0.002955
74 0.006001
90 0.005952
99 0.005998
102 0.007023
109 0.002975
118 0.002998
127 0.003015
137 0.004939
144 0.004992
155 0.003028
160 0.002992
165 0.004009
169 0.005994
175 0.005985
185 0.005983
185 0.006017
114 0.002002
55 0.003009
28 0.002996
20 0.005005
21 0.005015
36 0.003009
56 0.003042
80 0.003025
96 0.00498
103 0.005994
108 0.004987
114 0.004987
126 0.002993
136 0.003043
144 0.002984
152 0.005964
159 0.006015
168 0.002986
171 0.002978
175 0.003007
181 0.006017
188 0.006952
191 0.006014
147 0.005981
60 0.00299
32 0.004014
27 0.004001
32 0.005982
43 0.005981
71 0.002971
91 0.003044
100 0.002977
104 0.00597
105 0.005986
115 0.006017
123 0.005706
136 0.001985
144 0.002932
151 0.00201
158 0.005966
165 0.004999
170 0.00397
175 0.003983
182 0.003057
187 0.005984
184 0.005986
83 0.005981
38 0.005984
21 0.003989
23 0.002993
29 0.003007
45 0.005991
70 0.005972
93 0.003043
100 0.003006
103 0.003025
107 0.007014
113 0.007013
127 0.005983
137 0.006015
148 0.002977
156 0.004978
162 0.004017
169 0.005986
172 0.005995
178 0.00397
184 0.003992
190 0.003031
177 0.007012
112 0.007015
28 0.006977
17 0.007031
16 0.004989
25 0.003022
43 0.003022
67 0.005988
86 0.006983
98 0.00302
100 0.003018
104 0.003955
113 0.007012
123 0.006999
139 0.006983
148 0.007033
158 0.003988
165 0.003992
172 0.002994
176 0.006006
180 0.005985
188 0.002992
194 0.003988
190 0.00299
133 0.007013
68 0.005969
26 0.007015
25 0.006952
31 0.007013
52 0.003956
77 0.003021
96 0.002988
104 0.005993
108 0.005985
111 0.002991
120 0.003942
129 0.003031
137 0.007001
150 0.005981
156 0.007018
162 0.007015
167 0.003025
170 0.002968
174 0.003025
180 0.006026
186 0.006993
177 0.00298
113 0.003034
54 0.003004
30 0.007003
33 0.004021
43 0.006978
61 0.007018
90 0.004027
102 0.002991
107 0.002993
111 0.005984
115 0.006952
125 0.003996
135 0.002989
142 0.003937
150 0.006926
163 0.003985
170 0.006989
176 0.007011
180 0.002973
184 0.003977
191 0.003979
195 0.007975
164 0.007949
88 0.003949
40 0.002979
23 0.003994
23 0.007014
33 0.004022
51 0.007015
75 0.007012
96 0.002983
102 0.003956
104 0.003991
108 0.007978
120 0.007981
129 0.003996
137 0.00399
146 0.003989
157 0.007978
167 0.003981
173 0.006975
176 0.007018
182 0.002985
188 0.003933
192 0.003996
157 0.007969
81 0.007981
34 0.003966
19 0.003959
18 0.003989
26 0.007985
49 0.00498
73 0.007975
96 0.007977
103 0.003959
106 0.003959
111 0.005042
123 0.00797
129 0.006985
141 0.004996
150 0.00495
159 0.004955
167 0.007973
175 0.004981
181 0.007968
186 0.007987
191 0.003994
196 0.005051
194 0.005019
111 0.007947
54 0.007001
32 0.004036
31 0.005005
36 0.004041
52 0.007012
83 0.004987
104 0.007978
108 0.007984
109 0.005017
113 0.004936
120 0.004986
130 0.00799
139 0.008007
148 0.005965
155 0.004989
161 0.00598
168 0.007977
173 0.005986
180 0.006978
185 0.006964
189 0.004938
169 0.005028
99 0.005986
37 0.007993
27 0.00798
30 0.004953
37 0.005938
51 0.004974
75 0.007976
103 0.004985
107 0.007975
111 0.006967
116 0.005955
125 0.005992
133 0.004959
144 0.00698
154 0.006981
161 0.005973
166 0.004973
172 0.004992
178 0.007016
185 0.005931
190 0.007971
191 0.006969
142 0.005972
69 0.005975
30 0.006059
19 0.006977
20 0.006984
26 0.005988
44 0.005011
77 0.006982
90 0.007973
101 0.005951
104 0.007983
111 0.006965
121 0.005983
130 0.005971
138 0.005966
152 0.006975
158 0.006974
165 0.005964
173 0.006016
176 0.004982
181 0.006025
192 0.005983
191 0.005994
117 0.006987
55 0.006979
27 0.005983
21 0.005932
25 0.005964
37 0.006979
60 0.006978
86 0.005983
99 0.004968
105 0.006029
112 0.005964
121 0.005982
129 0.006994
137 0.005958
147 0.006022
155 0.006025
162 0.006013
168 0.006979
173 0.006983
177 0.005985
181 0.005988
185 0.005026
132 0.005987
65 0.005987
32 0.005986
26 0.005987
33 0.005966
44 0.005988
62 0.005952
92 0.006992
104 0.006964
107 0.005951
113 0.005967
119 0.005971
134 0.006015
143 0.005954
150 0.005983
159 0.005985
167 0.006018
172 0.005963
175 0.005981
183 0.006974
189 0.006971
196 0.006115
189 0.005988
129 0.005973
37 0.005977
23 0.005992
24 0.005985
32 0.006011
54 0.005981
80 0.006018
98 0.005962
103 0.006054
105 0.006056
113 0.005994
120 0.005954
129 0.005959
143 0.00598
153 0.005969
161 0.006998
168 0.006982
173 0.005973
179 0.006089
184 0.005989
189 0.005977
188 0.005979
110 0.006009
48 0.005996
23 0.005983
18 0.006004
