105 0.022939
108 0.006982
115 0.006981
122 0.006981
129 0.006981
134 0.006981
138 0.006983
112 0.006007
61 0.005984
36 0.006022
38 0.005984
45 0.005979
56 0.005985
63 0.005985
69 0.006048
70 0.006021
70 0.007018
74 0.006973
80 0.006982
87 0.005991
95 0.005984
105 0.005985
111 0.005985
118 0.005986
127 0.005985
132 0.005984
137 0.005985
140 0.005984
88 0.004987
43 0.005984
27 0.005984
27 0.005984
31 0.005984
34 0.005985
40 0.005983
46 0.006013
50 0.005985
49 0.005985
52 0.005985
58 0.005986
67 0.005985
75 0.005984
83 0.004988
90 0.004988
97 0.005984
106 0.005985
112 0.005983
118 0.005985
127 0.004987
126 0.005986
75 0.005984
35 0.005984
19 0.004989
21 0.004986
24 0.005035
26 0.005027
32 0.004993
40 0.005005
42 0.005016
41 0.006031
47 0.005984
54 0.006022
63 0.005949
71 0.006029
83 0.004987
91 0.004932
98 0.005021
105 0.005031
111 0.004987
119 0.004988
125 0.005019
131 0.004986
79 0.004987
38 0.003991
25 0.004987
25 0.004986
31 0.004987
35 0.004989
42 0.004987
48 0.004987
49 0.004988
49 0.004988
52 0.004989
58 0.004988
72 0.004987
80 0.004987
89 0.003989
96 0.003989
106 0.004987
113 0.005036
119 0.004987
125 0.004959
131 0.004986
137 0.004987
97 0.004956
51 0.005024
31 0.004987
35 0.005019
39 0.004033
44 0.003987
51 0.0
58 0.000961
58 0.004027
58 0.004988
63 0.004987
70 0.005023
82 0.004986
91 0.004988
104 0.003981
112 0.003991
119 0.00399
126 0.00399
132 0.003991
140 0.003991
144 0.003989
109 0.003989
58 0.00402
38 0.004026
35 0.003991
37 0.004987
42 0.003989
49 0.00404
56 0.004037
59 0.00398
59 0.004025
64 0.004025
71 0.004025
80 0.003954
90 0.003993
99 0.004022
110 0.004025
118 0.002963
130 0.00299
136 0.003981
142 0.00399
148 0.00399
147 0.003991
78 0.00399
48 0.004032
40 0.003991
42 0.003991
46 0.004028
50 0.002994
58 0.002986
67 0.002993
69 0.002993
72 0.002991
77 0.002992
86 0.003989
99 0.003987
108 0.00399
117 0.00399
125 0.003989
132 0.00399
141 0.002993
146 0.002993
155 0.002993
161 0.002987
155 0.002959
96 0.002992
64 0.003989
58 0.003941
64 0.002962
70 0.003957
75 0.00398
83 0.003996
91 0.002957
92 0.002999
96 0.002992
103 0.002993
111 0.002991
121 0.002993
130 0.003025
139 0.00399
145 0.002991
152 0.00399
157 0.003027
162 0.002991
169 0.002992
174 0.002993
143 0.003002
89 0.002992
72 0.002991
73 0.002989
79 0.002992
87 0.002993
95 0.00303
103 0.003996
106 0.002029
104 0.002023
105 0.002993
113 0.002963
124 0.002992
135 0.002992
143 0.002993
150 0.002953
156 0.003023
161 0.002993
168 0.002993
172 0.002992
169 0.001996
116 0.002028
79 0.00204
68 0.001996
72 0.001998
77 0.001997
83 0.001997
91 0.001994
96 0.002993
96 0.002037
98 0.001995
105 0.002042
113 0.001993
122 0.001995
131 0.001996
140 0.001995
149 0.001995
157 0.001996
162 0.001996
167 0.001996
168 0.001997
121 0.000998
67 0.001961
57 0.001996
57 0.002033
59 0.001996
60 0.002045
68 0.001995
77 0.001995
79 0.001997
81 0.001996
86 0.002033
94 0.001996
104 0.000998
116 0.000997
124 0.000998
132 0.000996
139 0.000999
145 0.001996
153 0.001995
157 0.001996
96 0.001994
61 0.001995
51 0.001996
51 0.001995
52 0.000999
56 0.000998
63 0.001004
71 0.000996
75 0.000995
77 0.001042
82 0.000993
92 0.001996
105 0.00201
115 0.001996
124 0.001996
132 0.000998
139 0.000999
148 0.000998
155 0.000996
161 0.000998
162 0.000997
116 0.000994
64 0.000998
57 0.000999
60 0.001995
63 0.001995
70 0.000997
77 0.000998
82 0.001
82 0.0
123 0.001037
134 0.000996
143 0.000998
149 0.0
155 0.0
161 0.0
161 0.0
93 0.000996
66 0.000968
61 0.000996
63 0.000998
67 0.0
72 0.0
85 0.0
88 0.0
87 0.0
91 0.0
98 0.0
107 0.0
117 0.0
129 0.000985
136 0.000956
144 0.000987
150 0.000997
156 0.000998
164 0.000998
135 0.0
71 0.0
56 0.0
54 0.0
55 0.0
56 0.0
63 0.0
71 0.0
76 0.001003
77 0.000997
80 0.0
92 0.0
101 0.0
115 0.0
124 0.0
133 0.0
140 0.0
147 0.0
156 0.0
161 0.0
140 0.0
83 0.0
54 0.0
51 0.0
51 0.0
54 0.0
62 0.0
70 0.0
74 0.0
76 0.0
82 0.0
90 0.000999
100 0.0
114 0.0
124 0.0
138 0.0
146 0.0
152 0.000971
159 0.0
166 0.0
169 0.0
129 0.0
72 0.0
61 0.0
61 0.0
62 0.0
65 0.0
79 0.0
85 0.0
87 0.000998
89 0.000953
98 0.0
104 0.0
115 0.0
128 0.0
138 0.0
148 0.0
156 0.0
162 0.0
172 0.0
178 0.0
178 0.001006
130 0.000998
81 0.000952
74 0.0
76 0.0
79 0.001
84 0.000989
91 0.000999
99 0.000998
103 0.0
108 0.0
115 0.0
124 0.000998
133 0.000999
145 0.0
153 0.0
160 0.000996
167 0.001995
172 0.002033
179 0.000958
184 0.000992
185 0.000998
119 0.000991
86 0.0
86 0.001034
92 0.001028
99 0.000997
110 0.000998
118 0.000947
122 0.000968
121 0.002008
123 0.001996
132 0.001009
140 0.000992
154 0.001025
159 0.001029
165 0.001055
173 0.000999
178 0.001027
185 0.0
188 0.001024
166 0.000958
110 0.002005
89 0.00199
89 0.001005
95 0.000997
106 0.000998
114 0.000999
120 0.000998
121 0.001036
121 0.001996
125 0.001996
136 0.001
144 0.001026
151 0.001981
158 0.001965
166 0.000994
172 0.000998
180 0.001004
185 0.001024
183 0.000997
132 0.002005
89 0.003001
75 0.001993
76 0.002002
77 0.002001
79 0.001996
85 0.001984
92 0.00199
97 0.000996
101 0.000985
107 0.000998
115 0.000999
124 0.002959
133 0.002958
135 0.018951
140 0.001994
158 0.0
163 0.0
68 0.000999
60 0.000969
60 0.000994
60 0.002996
62 0.002998
71 0.001996
77 0.001995
81 0.00203
83 0.002992
87 0.003026
97 0.001996
107 0.001981
119 0.001996
128 0.002006
138 0.00103
145 0.002981
152 0.002993
159 0.00199
164 0.001991
151 0.001992
92 0.002979
64 0.003029
58 0.001996
61 0.002962
67 0.002944
74 0.002947
79 0.003025
87 0.002962
89 0.002973
93 0.00293
99 0.002966
112 0.00201
121 0.002999
130 0.00302
141 0.002002
147 0.001994
159 0.001993
165 0.003021
171 0.002985
172 0.002992
129 0.003994
84 0.003991
72 0.002965
74 0.002996
79 0.002986
88 0.002962
96 0.002992
104 0.002969
106 0.004033
108 0.002996
116 0.003027
125 0.002994
134 0.00401
142 0.003978
151 0.00302
158 0.003003
164 0.002977
170 0.002991
175 0.003022
176 0.003979
101 0.003958
77 0.002971
77 0.002997
83 0.002987
88 0.004015
97 0.003989
107 0.002968
111 0.003001
111 0.003002
115 0.004987
122 0.005006
130 0.003989
144 0.003941
151 0.003963
160 0.003037
166 0.003005
171 0.003997
176 0.004049
182 0.003031
168 0.003011
108 0.00298
79 0.003986
73 0.005018
76 0.003951
80 0.003985
86 0.003978
93 0.003981
99 0.003975
102 0.003964
106 0.003995
115 0.002996
124 0.002989
133 0.003001
141 0.004987
148 0.004986
156 0.003952
164 0.004993
171 0.00395
174 0.003967
173 0.003987
105 0.004011
75 0.003978
68 0.002993
71 0.003991
74 0.003964
80 0.004979
88 0.005016
98 0.003955
103 0.004985
108 0.003956
116 0.004026
125 0.003995
134 0.00399
142 0.004993
149 0.004948
156 0.005037
161 0.005017
169 0.004961
174 0.005013
175 0.003984
112 0.004987
78 0.004004
78 0.004001
83 0.003969
88 0.004994
96 0.005993
107 0.004991
112 0.00499
114 0.004968
117 0.004982
122 0.004986
130 0.004988
143 0.004973
152 0.003982
158 0.004017
165 0.003999
170 0.004982
175 0.00499
180 0.005027
169 0.004968
112 0.004986
84 0.004989
80 0.004989
84 0.004984
95 0.004987
103 0.004954
112 0.004031
112 0.004
112 0.004972
115 0.005997
122 0.005985
133 0.005026
141 0.004978
147 0.004983
154 0.005985
160 0.005992
168 0.004979
172 0.004977
131 0.003988
95 0.005978
67 0.005041
65 0.005977
67 0.005982
70 0.004982
74 0.00601
82 0.0
88 0.019942
92 0.0
139 0.005948
145 0.005937
154 0.004984
159 0.004981
158 0.004997
108 0.005974
66 0.005954
48 0.006044
46 0.00598
46 0.006018
51 0.006017
59 0.005973
65 0.00698
69 0.00597
72 0.005988
80 0.005001
86 0.005986
100 0.005971
110 0.005968
125 0.005976
133 0.006021
143 0.005987
150 0.00598
155 0.006001
136 0.006986
80 0.006982
50 0.005975
46 0.005978
47 0.005961
48 0.005959
54 0.00599
70 0.006982
76 0.006994
80 0.00597
86 0.005974
95 0.005984
105 0.00698
115 0.006982
128 0.005987
137 0.00594
145 0.006006
151 0.006991
158 0.007003
168 0.00699
151 0.00699
81 0.005985
64 0.006017
64 0.005949
69 0.006963
73 0.006989
84 0.006023
92 0.005998
96 0.005956
96 0.007029
101 0.007923
113 0.007967
123 0.007978
133 0.00693
142 0.007012
149 0.007015
159 0.007001
165 0.006984
174 0.005967
177 0.005962
148 0.006004
84 0.007969
73 0.007978
72 0.007007
78 0.007958
85 0.007966
91 0.007007
98 0.007009
102 0.006965
103 0.006954
109 0.006968
121 0.005987
131 0.005998
140 0.006976
151 0.007938
160 0.006976
169 0.007969
174 0.007973
180 0.007014
182 0.00701
146 0.006027
91 0.007011
68 0.007965
67 0.006974
69 0.007009
72 0.007935
77 0.007944
90 0.006984
95 0.007963
96 0.007989
104 0.006976
113 0.007012
123 0.007015
136 0.007942
142 0.007964
154 0.006945
161 0.006955
168 0.007941
174 0.007929
181 0.007015
156 0.007971
97 0.00795
73 0.007012
69 0.006982
71 0.007002
74 0.007977
82 0.00701
94 0.006922
100 0.007011
104 0.007016
108 0.00798
118 0.006923
128 0.007949
137 0.007979
148 0.007016
156 0.00698
163 0.006982
169 0.00795
177 0.007026
184 0.007013
188 0.007008
173 0.007018
113 0.007024
82 0.007013
85 0.007018
91 0.007013
99 0.006984
108 0.00702
119 0.007039
124 0.007023
126 0.007009
132 0.006998
139 0.007012
147 0.007021
155 0.006981
167 0.007016
173 0.007012
179 0.00702
184 0.006939
190 0.007029
192 0.006021
158 0.006016
107 0.006034
91 0.006986
96 0.00702
105 0.007016
115 0.007
130 0.007007
136 0.006992
138 0.007003
141 0.006995
146 0.005983
153 0.005984
161 0.005951
167 0.005983
171 0.009973
175 0.000999
186 0.0
188 0.006979
134 0.007016
93 0.006948
83 0.005987
87 0.006043
93 0.00594
101 0.005983
109 0.006016
116 0.005979
120 0.005984
123 0.006012
128 0.005952
141 0.005936
149 0.00695
156 0.006022
162 0.006974
170 0.005987
175 0.005983
180 0.005955
183 0.005965
165 0.005989
89 0.005972
70 0.005987
66 0.005963
70 0.005989
74 0.005985
81 0.005024
88 0.004985
93 0.005966
95 0.005946
100 0.005993
108 0.005989
117 0.005969
128 0.005987
136 0.005956
144 0.005962
155 0.005976
161 0.005998
163 0.004948
129 0.00499
66 0.004971
53 0.00499
52 0.005983
54 0.005978
58 0.005976
69 0.005978
76 0.00598
79 0.006011
82 0.006013
89 0.00497
99 0.00496
109 0.004985
121 0.004988
129 0.005022
137 0.00499
143 0.00497
150 0.005951
156 0.006017
124 0.005945
71 0.005951
47 0.004967
49 0.004979
53 0.004977
60 0.004986
72 0.004989
77 0.004986
78 0.005002
80 0.005027
85 0.004962
99 0.004982
109 0.00597
118 0.004986
133 0.004983
140 0.004987
148 0.004978
155 0.004955
152 0.004957
95 0.004995
56 0.004993
43 0.004994
41 0.004984
43 0.004982
48 0.004972
57 0.003949
69 0.00399
71 0.003989
75 0.004989
83 0.005012
97 0.004944
108 0.005005
118 0.00496
127 0.004982
136 0.004972
147 0.004949
154 0.00399
160 0.003998
151 0.004027
88 0.00395
54 0.003928
41 0.003964
38 0.003976
37 0.004961
41 0.004968
50 0.003948
59 0.004992
64 0.004015
69 0.003987
76 0.004
93 0.003995
104 0.003953
116 0.003956
126 0.003947
135 0.003962
146 0.003987
154 0.003956
161 0.003939
168 0.00399
173 0.003999
126 0.00398
74 0.003946
49 0.003995
48 0.003991
48 0.003988
51 0.003945
61 0.003941
74 0.003033
79 0.003986
82 0.003009
89 0.002959
98 0.002958
114 0.003969
125 0.004018
142 0.003992
151 0.003982
159 0.003972
167 0.00394
173 0.003952
181 0.003985
187 0.002991
191 0.002941
179 0.002972
113 0.002971
75 0.002954
71 0.002958
75 0.003952
79 0.003989
88 0.003957
96 0.003977
100 0.00296
101 0.003037
107 0.00298
116 0.002949
127 0.002965
138 0.002958
150 0.00298
159 0.002963
171 0.003029
177 0.002992
183 0.002992
189 0.003997
194 0.003973
172 0.004004
110 0.003004
84 0.002918
80 0.00296
83 0.002966
88 0.002993
91 0.012965
99 0.001025
116 0.002999
121 0.003925
130 0.002941
144 0.002976
153 0.002981
161 0.002965
168 0.00296
175 0.002959
183 0.002967
189 0.003007
198 0.002982
203 0.003003
204 0.002987
163 0.003013
105 0.001997
83 0.001995
83 0.001996
85 0.001999
87 0.002954
94 0.002989
105 0.003012
111 0.003032
116 0.003024
124 0.002999
132 0.002992
142 0.001996
151 0.00199
159 0.001997
169 0.002014
176 0.002002
182 0.002032
187 0.002016
192 0.001993
199 0.003019
204 0.002996
186 0.00199
121 0.002027
93 0.001985
88 0.002003
91 0.001997
96 0.002002
102 0.001975
110 0.001957
118 0.002019
124 0.001995
131 0.001984
140 0.000997
150 0.001942
159 0.002037
166 0.001997
172 0.001993
178 0.002015
185 0.001956
190 0.001971
195 0.002008
199 0.001993
203 0.001993
206 0.000997
154 0.00097
105 0.001044
103 0.000965
109 0.001002
118 0.001007
126 0.001994
138 0.001996
143 0.002
148 0.001973
152 0.001984
156 0.001949
164 0.001944
172 0.000962
179 0.001
184 0.000993
188 0.000968
192 0.000999
196 0.00101
201 0.000996
203 0.001956
191 0.001977
135 0.001995
108 0.00201
110 0.001006
122 0.000956
135 0.000997
143 0.000958
149 0.000972
153 0.00098
157 0.000965
163 0.000992
168 0.001009
173 0.001007
178 0.00098
182 0.001009
188 0.001016
193 0.001
198 0.000998
200 0.000985
194 0.000998
137 0.001033
100 0.001008
94 0.000998
101 0.000971
107 0.00104
114 0.000991
122 0.0
129 0.0
134 0.0
139 0.001
145 0.000954
151 0.000997
157 0.000998
162 0.000972
168 0.00097
173 0.000998
177 0.000998
181 0.0
183 0.0
153 0.0
84 0.0
69 0.001
71 0.000997
73 0.0
78 0.000997
84 0.000998
90 0.000997
95 0.0
97 0.0
102 0.0
109 0.0
117 0.0
130 0.0
136 0.0
145 0.0
150 0.0
156 0.0
161 0.0
153 0.0
79 0.0
55 0.0
51 0.0
52 0.0
55 0.0
66 0.0
74 0.0
79 0.0
81 0.0
86 0.0
94 0.0
103 0.0
114 0.001017
123 0.000998
130 0.0
137 0.0
142 0.0
153 0.0
136 0.0
77 0.001002
51 0.000999
47 0.0
51 0.0
56 0.0
64 0.001003
72 0.000959
77 0.0
77 0.0
79 0.0
95 0.0
98 0.015929
109 0.0
123 0.000997
133 0.0
139 0.0
144 0.000958
153 0.001012
153 0.000963
87 0.0
53 0.0
42 0.0
44 0.0
47 0.000928
54 0.000997
62 0.000962
68 0.0
71 0.0
75 0.0
84 0.000984
94 0.000965
108 0.0
117 0.0
126 0.0
139 0.0
146 0.0
153 0.001054
157 0.001991
117 0.000945
64 0.0
43 0.0
38 0.000974
37 0.00099
39 0.0
46 0.0
55 0.0
65 0.000961
69 0.000965
76 0.00095
86 0.00197
101 0.000986
111 0.000994
121 0.000963
130 0.000997
139 0.000988
149 0.0
156 0.000991
161 0.000995
100 0.00096
61 0.001011
49 0.001999
48 0.001969
50 0.000999
56 0.000954
65 0.000983
74 0.000997
78 0.001994
80 0.001985
88 0.0
98 0.0
117 0.00103
127 0.000997
136 0.000987
144 0.001962
152 0.001968
161 0.000999
168 0.000997
169 0.000966
122 0.00195
76 0.001993
60 0.000999
61 0.000998
68 0.000998
77 0.001017
86 0.000972
92 0.001994
93 0.001996
99 0.000998
107 0.00099
118 0.001028
129 0.002001
139 0.001972
150 0.000959
158 0.000992
169 0.001999
175 0.000998
177 0.001952
130 0.001995
81 0.001986
61 0.001
60 0.001035
61 0.001
63 0.002993
72 0.002004
84 0.001009
89 0.001994
96 0.001978
104 0.000999
115 0.001954
126 0.003012
137 0.001991
148 0.001991
156 0.000969
163 0.00101
170 0.001988
177 0.002001
182 0.000991
151 0.002022
72 0.001994
61 0.00203
60 0.002002
59 0.003
61 0.002981
74 0.001999
84 0.000991
90 0.00094
95 0.003942
101 0.001995
114 0.001976
125 0.002034
143 0.002002
152 0.002006
161 0.001992
168 0.002986
176 0.00299
185 0.002001
183 0.001977
129 0.001983
86 0.00299
73 0.004003
73 0.001994
76 0.001996
87 0.002021
98 0.002028
106 0.001986
111 0.002989
115 0.003025
126 0.002023
137 0.002039
147 0.001999
156 0.002989
165 0.00399
175 0.002989
182 0.002993
191 0.002025
183 0.001967
123 0.001978
88 0.002996
81 0.002992
86 0.001977
91 0.002014
100 0.00302
111 0.003958
119 0.003997
124 0.003999
131 0.002999
141 0.003958
152 0.001956
161 0.002046
169 0.002013
176 0.002991
183 0.002961
191 0.001965
196 0.002999
197 0.00302
160 0.00399
106 0.003989
89 0.003
95 0.003992
106 0.002992
117 0.002982
126 0.002954
133 0.003957
137 0.00399
143 0.002995
150 0.002969
157 0.002995
165 0.003994
172 0.004002
180 0.002996
188 0.004002
195 0.002999
200 0.002964
203 0.002965
181 0.00402
121 0.004987
98 0.002961
102 0.003993
110 0.003979
121 0.003986
131 0.003984
140 0.003012
144 0.003972
148 0.002994
154 0.002995
160 0.003019
167 0.004963
174 0.004988
182 0.003979
187 0.004005
192 0.00397
196 0.004975
197 0.004965
142 0.002974
94 0.00399
93 0.002966
100 0.002999
109 0.003968
118 0.004986
126 0.004996
131 0.003986
132 0.003946
136 0.003964
143 0.004978
150 0.004988
159 0.004012
167 0.004982
175 0.002968
179 0.002977
184 0.003951
186 0.004993
154 0.005
84 0.003992
70 0.003988
70 0.003988
73 0.005025
77 0.004972
87 0.003986
93 0.004999
95 0.003987
98 0.00499
105 0.00395
114 0.004979
124 0.004972
135 0.003991
143 0.003969
150 0.003988
156 0.005042
162 0.004986
148 0.003979
73 0.004995
50 0.004983
49 0.004966
50 0.004961
53 0.005983
60 0.005989
71 0.003995
75 0.003976
77 0.003959
83 0.004969
91 0.005977
102 0.004939
119 0.005958
128 0.005953
139 0.004988
147 0.004988
152 0.004986
121 0.005965
68 0.005947
43 0.004009
42 0.004003
44 0.003955
48 0.004989
57 0.004986
72 0.005977
76 0.005941
80 0.00502
88 0.004997
98 0.004989
109 0.005984
120 0.005954
133 0.004985
142 0.005001
150 0.005994
157 0.005977
136 0.006952
60 0.006973
51 0.005942
53 0.004995
56 0.004989
63 0.005001
73 0.00599
81 0.005949
86 0.004992
89 0.004982
96 0.00499
106 0.007021
117 0.006982
135 0.006977
144 0.006958
155 0.004974
163 0.005001
170 0.004959
173 0.005984
130 0.005984
72 0.004984
64 0.006017
66 0.005982
71 0.006981
77 0.006985
91 0.007042
96 0.006978
97 0.005978
101 0.005983
109 0.005014
119 0.00696
129 0.00598
143 0.004971
151 0.005931
158 0.006
166 0.007016
173 0.007023
154 0.007024
96 0.006979
71 0.006002
72 0.00597
77 0.006015
84 0.007009
93 0.007034
102 0.004967
102 0.005983
102 0.005983
106 0.006981
115 0.006983
132 0.007001
142 0.006996
154 0.006009
161 0.005982
168 0.006982
176 0.006982
179 0.006945
115 0.006979
78 0.007008
68 0.006019
69 0.007977
71 0.006981
81 0.007011
90 0.006954
95 0.00599
96 0.005995
100 0.005957
107 0.007007
121 0.007978
132 0.007013
142 0.007013
151 0.006019
159 0.007978
169 0.00795
178 0.005977
185 0.008007
190 0.007021
150 0.005982
91 0.00595
71 0.005978
66 0.00798
67 0.007948
69 0.006982
75 0.007009
83 0.007013
91 0.007955
94 0.006
102 0.007974
111 0.00797
122 0.005983
133 0.006013
142 0.006992
154 0.007987
162 0.007977
170 0.006981
176 0.006982
183 0.006982
192 0.007933
195 0.006017
143 0.007939
82 0.007936
74 0.007009
75 0.007009
77 0.006981
80 0.007979
88 0.007979
98 0.006977
102 0.006985
105 0.007008
110 0.00798
125 0.006013
139 0.007968
149 0.007949
158 0.007976
168 0.007011
176 0.006948
183 0.007029
189 0.007027
195 0.006949
201 0.006988
204 0.006966
181 0.00798
93 0.007013
85 0.007979
92 0.007023
100 0.00701
108 0.006988
116 0.006985
122 0.007023
123 0.006982
126 0.006958
131 0.006966
143 0.006964
152 0.007977
163 0.006958
174 0.007014
180 0.00698
189 0.007008
196 0.006981
201 0.006988
206 0.00703
208 0.006981
154 0.006984
105 0.00698
96 0.006973
101 0.007045
114 0.006013
123 0.007011
132 0.006992
136 0.007031
135 0.007018
136 0.007009
142 0.00698
151 0.007014
162 0.006982
169 0.006981
176 0.006952
182 0.005985
191 0.005978
196 0.006026
200 0.006981
195 0.006013
131 0.006956
92 0.007015
84 0.006981
87 0.007029
93 0.00695
99 0.006947
107 0.006982
112 0.006016
113 0.006024
116 0.006016
123 0.005981
135 0.005943
143 0.006012
151 0.005985
159 0.006983
166 0.006938
172 0.007009
179 0.00703
185 0.006013
189 0.00601
134 0.00599
81 0.005981
65 0.006012
62 0.005988
63 0.006003
64 0.005945
70 0.005981
77 0.005989
81 0.006946
83 0.005986
87 0.005985
95 0.006021
112 0.006023
122 0.006016
131 0.006007
139 0.006013
149 0.005987
156 0.006009
163 0.006029
169 0.006988
174 0.004996
128 0.006019
72 0.005014
54 0.005022
52 0.005988
54 0.006011
57 0.005987
65 0.006021
75 0.006029
78 0.006022
80 0.005957
86 0.006026
96 0.005014
110 0.005016
120 0.004978
130 0.005022
144 0.005
151 0.006011
158 0.005944
165 0.006013
174 0.005954
174 0.005987
123 0.006024
73 0.005019
60 0.005024
62 0.004988
66 0.004978
72 0.005021
85 0.005024
89 0.005036
89 0.005029
91 0.005018
102 0.004995
112 0.006012
123 0.005018
133 0.00503
141 0.005023
152 0.005015
159 0.005017
166 0.004988
176 0.004981
171 0.004964
109 0.005019
71 0.005028
61 0.005024
64 0.004999
68 0.004017
75 0.00499
84 0.005027
92 0.005015
94 0.004987
96 0.004987
110 0.004988
120 0.004988
131 0.004998
141 0.004976
152 0.003989
160 0.003994
167 0.003981
173 0.004012
179 0.003945
186 0.00496
167 0.004967
97 0.004981
59 0.004957
58 0.004987
60 0.004964
62 0.004958
72 0.00399
82 0.004004
88 0.003986
91 0.004027
97 0.003967
106 0.003963
120 0.003956
131 0.003941
147 0.003985
156 0.003944
163 0.004944
171 0.004953
177 0.003996
186 0.003991
191 0.003954
177 0.003981
109 0.003993
74 0.003991
67 0.003944
69 0.003983
76 0.003964
84 0.003944
93 0.00395
100 0.00403
104 0.003946
111 0.003961
120 0.003967
130 0.003989
141 0.003964
150 0.003952
161 0.003963
168 0.003986
179 0.00399
185 0.00399
191 0.003989
196 0.002954
186 0.002935
103 0.003956
82 0.003961
82 0.002993
88 0.003992
94 0.003995
107 0.003953
115 0.004019
121 0.003986
124 0.003991
129 0.002992
138 0.002955
146 0.002945
157 0.002992
166 0.002993
173 0.002979
179 0.00399
186 0.003991
195 0.003986
200 0.003991
171 0.004025
110 0.002994
90 0.002992
90 0.002995
97 0.002994
108 0.003001
118 0.002994
126 0.002994
130 0.003027
132 0.002993
137 0.002991
144 0.001999
157 0.002993
165 0.003049
172 0.002992
178 0.002927
184 0.002991
191 0.002958
196 0.002936
200 0.002965
199 0.002985
148 0.002983
84 0.003009
74 0.003942
77 0.002953
81 0.002992
87 0.002033
94 0.002958
99 0.002995
103 0.002993
107 0.002949
114 0.002951
123 0.003013
132 0.002991
143 0.003963
151 0.002906
162 0.003007
169 0.001995
174 0.002022
179 0.001999
184 0.002991
155 0.003031
89 0.002993
63 0.003003
57 0.00299
59 0.002985
62 0.002985
68 0.001986
79 0.002012
86 0.002013
90 0.001978
96 0.001989
104 0.002017
114 0.001989
128 0.002003
137 0.00297
145 0.000992
153 0.001997
160 0.001994
168 0.001995
177 0.001961
175 0.001979
119 0.002016
74 0.001983
62 0.001958
64 0.001967
71 0.00196
78 0.001979
87 0.000969
95 0.000999
100 0.000966
103 0.001988
112 0.001943
124 0.001987
134 0.001994
142 0.001959
151 0.001957
158 0.001964
167 0.001955
173 0.001983
179 0.000995
182 0.00104
149 0.000996
80 0.000991
68 0.001022
73 0.00199
80 0.001952
90 0.002023
99 0.001936
105 0.001956
107 0.001996
111 0.001991
118 0.000997
127 0.000982
137 0.000992
148 0.001014
158 0.001017
168 0.001006
174 0.001004
179 0.001
183 0.001971
161 0.001991
81 0.00096
62 0.000969
60 0.001002
63 0.000955
67 0.000999
76 0.00096
87 0.000991
92 0.001008
96 0.000959
102 0.001
112 0.0
122 0.001992
134 0.000987
143 0.000961
151 0.001
158 0.000998
164 0.000975
173 0.000991
178 0.00101
128 0.000999
73 0.001956
55 0.000999
53 0.0
55 0.000974
59 0.000979
67 0.0
75 0.0
81 0.000944
85 0.001023
93 0.001
105 0.001025
118 0.000961
129 0.001016
139 0.001011
147 0.0
155 0.0
164 0.0
171 0.0
177 0.0
178 0.0
133 0.0
70 0.0
119 0.00101
126 0.0
125 0.001002
125 0.000998
125 0.0
125 0.0
125 0.0
125 0.0
125 0.0
125 0.0
125 0.0
125 0.0
125 0.0
125 0.0
125 0.0
127 0.0
137 0.0
144 0.0
118 0.0
22 0.0
4 0.0
7 0.0
18 0.0
30 0.0
54 0.0
63 0.0
68 0.000958
73 0.00097
89 0.000959
98 0.0
116 0.0
128 0.001
140 0.000991
153 0.0
163 0.0
172 0.0
178 0.0
147 0.000962
52 0.002035
33 0.002011
36 0.0
43 0.0
54 0.0
68 0.000996
78 0.001042
85 0.0
90 0.0
95 0.000998
115 0.000999
127 0.000998
143 0.000997
154 0.000996
167 0.0
175 0.0
181 0.000998
192 0.002024
196 0.002024
132 0.0
59 0.0
35 0.0
32 0.0
34 0.0
41 0.000996
51 0.000995
63 0.0
68 0.0
73 0.0
82 0.002008
96 0.000998
108 0.000998
126 0.0
138 0.0
155 0.0
165 0.0
174 0.001027
183 0.000999
189 0.0
171 0.000998
65 0.0
35 0.000998
28 0.000998
29 0.000998
35 0.0
45 0.0
61 0.0
67 0.0
72 0.001995
80 0.001033
98 0.0
113 0.0
126 0.0
138 0.001026
150 0.000998
164 0.0
170 0.000998
182 0.0
196 0.0
198 0.001062
140 0.00196
68 0.00203
43 0.001007
44 0.0
48 0.000964
56 0.000962
68 0.001995
78 0.001995
84 0.000948
87 0.002018
102 0.0
115 0.0
129 0.0
142 0.001996
154 0.002021
169 0.000959
179 0.000978
188 0.000972
196 0.002968
203 0.001986
200 0.000965
125 0.000959
58 0.001038
57 0.000966
63 0.001036
71 0.001996
84 0.001996
97 0.00104
101 0.0
102 0.00097
108 0.002992
118 0.002992
136 0.000969
148 0.001011
167 0.000961
176 0.00206
186 0.001994
194 0.001995
203 0.001996
208 0.001995
168 0.001027
87 0.000999
55 0.002951
49 0.002992
54 0.001035
59 0.001015
77 0.000969
86 0.001007
90 0.000963
94 0.002061
102 0.001965
119 0.001986
132 0.000991
145 0.001964
156 0.002993
167 0.002992
180 0.001
188 0.000988
202 0.000964
207 0.000996
178 0.000979
90 0.001994
51 0.001998
39 0.00194
39 0.001951
40 0.002
48 0.00302
59 0.002992
70 0.001004
75 0.001024
87 0.001009
100 0.000999
114 0.000993
128 0.002994
141 0.004031
157 0.000998
167 0.001962
177 0.002009
186 0.003041
195 0.003016
204 0.001993
177 0.002002
61 0.001046
43 0.002063
41 0.000991
42 0.002959
46 0.003032
60 0.001994
71 0.00196
79 0.001961
84 0.003027
91 0.003015
108 0.002002
123 0.001958
146 0.001034
158 0.001987
169 0.002022
179 0.004026
189 0.004017
200 0.001986
209 0.002007
215 0.002003
202 0.003989
117 0.004036
63 0.002011
57 0.001997
63 0.002953
70 0.002018
82 0.002958
92 0.002995
96 0.00398
99 0.003989
108 0.002043
119 0.001989
133 0.002037
146 0.003999
159 0.004003
174 0.001994
187 0.00399
199 0.001956
208 0.002955
214 0.003005
193 0.003989
110 0.003987
65 0.002992
60 0.003004
65 0.003014
72 0.003975
84 0.003994
99 0.002015
106 0.004035
111 0.003013
120 0.002964
132 0.003016
145 0.004995
159 0.003942
174 0.002999
184 0.002963
194 0.002991
202 0.004026
211 0.003999
220 0.002018
201 0.004949
90 0.003
58 0.002965
50 0.002977
52 0.004973
54 0.004987
66 0.002955
78 0.002993
87 0.003033
93 0.003974
98 0.003988
111 0.002993
128 0.004999
146 0.003025
159 0.004025
170 0.003009
180 0.004989
189 0.004976
200 0.002995
208 0.003019
214 0.003011
199 0.005019
111 0.005018
56 0.004029
49 0.004981
53 0.004002
59 0.004
70 0.003032
82 0.004959
90 0.004979
98 0.00298
106 0.002977
118 0.00401
131 0.00497
144 0.005948
161 0.004
175 0.005984
188 0.003969
197 0.004025
205 0.004
214 0.005006
218 0.004987
163 0.003039
88 0.00399
65 0.00399
63 0.004981
70 0.00599
81 0.003984
96 0.00602
108 0.003982
113 0.004006
118 0.003963
126 0.005015
137 0.004969
153 0.003996
164 0.003992
174 0.004986
184 0.005981
192 0.005986
202 0.003961
213 0.005989
218 0.004
185 0.003967
104 0.004947
74 0.003997
73 0.005961
80 0.005964
94 0.004938
107 0.005033
118 0.004978
124 0.005942
127 0.005957
137 0.005988
147 0.005969
163 0.004005
173 0.003977
183 0.003986
192 0.005955
200 0.005951
210 0.005019
217 0.004938
221 0.004009
198 0.005953
113 0.005977
66 0.005995
67 0.006002
76 0.004985
86 0.003991
98 0.003992
108 0.005989
114 0.007011
121 0.004996
130 0.004983
141 0.004985
152 0.006987
163 0.005987
180 0.005993
189 0.005983
199 0.005001
207 0.00595
215 0.003983
221 0.006946
225 0.006928
171 0.004938
92 0.00498
66 0.004989
63 0.006952
68 0.006978
82 0.006938
93 0.006947
105 0.00501
111 0.004985
117 0.004986
124 0.006988
134 0.00694
149 0.006012
160 0.004951
170 0.00498
179 0.006984
187 0.006993
200 0.007019
207 0.006992
216 0.004965
221 0.005977
212 0.006023
132 0.006956
79 0.006978
68 0.005987
75 0.006005
85 0.005989
97 0.007029
108 0.006982
121 0.006973
129 0.007941
137 0.005979
145 0.005943
155 0.005952
166 0.007944
178 0.007946
186 0.005984
194 0.005984
202 0.005985
208 0.006944
214 0.006934
224 0.006975
224 0.007002
149 0.005989
94 0.005977
85 0.005955
98 0.007946
110 0.00797
123 0.005998
134 0.005945
142 0.005996
147 0.006971
152 0.006988
163 0.006947
174 0.00794
182 0.007975
189 0.006952
196 0.005975
204 0.005981
212 0.008
218 0.007954
224 0.005979
228 0.005974
220 0.005982
129 0.007953
91 0.006986
100 0.007973
112 0.007934
125 0.006976
136 0.006972
144 0.006977
151 0.007978
155 0.007928
161 0.006016
168 0.005983
175 0.005983
185 0.007953
193 0.006976
201 0.007952
207 0.007952
212 0.006983
217 0.006943
218 0.006986
197 0.007969
112 0.007978
69 0.006983
69 0.005982
78 0.005997
92 0.006986
109 0.006942
115 0.007027
120 0.006955
124 0.006956
131 0.005987
141 0.006948
147 0.007936
158 0.007946
169 0.00698
174 0.005959
182 0.006953
188 0.006953
197 0.006981
197 0.007011
146 0.006935
56 0.006976
43 0.006973
43 0.006979
52 0.007018
61 0.006948
75 0.007012
83 0.006982
88 0.006985
92 0.007005
105 0.00699
115 0.00697
126 0.006942
139 0.006945
149 0.00695
154 0.006978
164 0.006976
171 0.006982
179 0.006952
186 0.005937
183 0.005949
96 0.005986
38 0.00696
40 0.006947
48 0.006975
62 0.006952
70 0.006982
82 0.006976
88 0.007011
92 0.005984
100 0.005988
109 0.005981
120 0.005958
131 0.005979
147 0.006976
155 0.006927
163 0.006946
173 0.006955
180 0.006925
185 0.006999
172 0.006945
94 0.006017
42 0.005987
40 0.005961
48 0.005968
58 0.005986
79 0.005995
87 0.005986
91 0.006948
95 0.006981
101 0.006983
111 0.006982
122 0.005984
133 0.005984
143 0.005983
155 0.005974
163 0.005948
170 0.005952
181 0.006937
181 0.005978
126 0.005977
53 0.005985
27 0.005984
27 0.006962
34 0.005987
43 0.005949
54 0.005982
67 0.00601
71 0.006002
74 0.005967
88 0.005993
100 0.006001
113 0.005932
124 0.005945
139 0.005004
150 0.004953
158 0.004919
166 0.004961
174 0.005025
181 0.004963
151 0.005931
65 0.005988
20 0.00599
20 0.005985
25 0.005979
31 0.004989
46 0.004987
55 0.004989
61 0.004986
65 0.004965
72 0.004995
87 0.004991
100 0.004973
113 0.004993
133 0.005945
143 0.005994
152 0.005992
161 0.004989
172 0.004988
179 0.005013
169 0.005012
89 0.005019
37 0.004986
22 0.005027
26 0.004952
34 0.004985
52 0.005006
62 0.004987
68 0.003989
72 0.005026
81 0.005012
92 0.004959
105 0.004991
118 0.005043
130 0.004994
145 0.00503
155 0.00499
163 0.004991
177 0.005024
185 0.003984
186 0.004019
136 0.003987
50 0.004
36 0.00399
39 0.004988
47 0.004957
56 0.004991
72 0.004988
78 0.004947
79 0.004986
84 0.004015
94 0.003989
107 0.00399
120 0.00399
136 0.003989
146 0.004018
156 0.003988
165 0.004024
174 0.004013
184 0.004975
181 0.004984
113 0.004943
36 0.00399
30 0.003986
35 0.003992
42 0.003989
57 0.00399
67 0.003962
72 0.004021
73 0.003989
78 0.004025
88 0.003954
106 0.005002
120 0.003993
140 0.004022
151 0.004018
162 0.003994
171 0.003989
179 0.003994
190 0.003991
196 0.004058
183 0.00399
95 0.003989
43 0.003983
24 0.003989
23 0.002989
28 0.002996
39 0.00399
50 0.004036
57 0.004017
61 0.004016
71 0.004015
83 0.00405
98 0.004026
112 0.00395
126 0.00399
142 0.002994
153 0.002992
170 0.002992
179 0.003026
187 0.00299
195 0.002993
183 0.003985
76 0.00399
41 0.003989
33 0.004036
36 0.003953
41 0.002991
54 0.002993
66 0.003001
81 0.002991
86 0.002966
94 0.004004
106 0.002993
120 0.004024
137 0.003031
150 0.002996
161 0.002991
172 0.002992
181 0.003017
193 0.002964
200 0.002991
212 0.003035
197 0.002994
112 0.002992
67 0.002995
58 0.002963
66 0.002997
75 0.00399
87 0.002992
99 0.001992
108 0.002988
112 0.002992
116 0.003023
133 0.002991
146 0.002991
158 0.002962
169 0.002995
179 0.002996
191 0.001995
199 0.00202
206 0.001992
214 0.002034
216 0.001996
147 0.002006
85 0.001995
69 0.002992
77 0.002992
88 0.002993
101 0.002992
112 0.002957
123 0.001995
128 0.001996
133 0.002031
142 0.001994
153 0.002028
167 0.001952
177 0.002023
193 0.00199
201 0.000997
208 0.002007
214 0.002966
221 0.002992
224 0.001995
160 0.001995
87 0.001993
66 0.00195
65 0.001994
70 0.001994
80 0.001994
95 0.001995
108 0.002
114 0.001967
120 0.000998
129 0.000997
139 0.000997
154 0.001994
165 0.002031
175 0.001996
184 0.001995
192 0.001996
202 0.001994
211 0.001997
217 0.002028
193 0.000996
105 0.000998
66 0.000996
58 0.002036
64 0.000998
71 0.000997
82 0.00196
93 0.001951
103 0.001995
112 0.00203
122 0.002029
135 0.001996
147 0.000997
158 0.000994
168 0.000998
177 0.000998
189 0.000997
196 0.001006
203 0.000997
210 0.000998
212 0.000997
152 0.002025
73 0.002043
64 0.000999
71 0.000997
80 0.000997
93 0.000998
105 0.000999
117 0.002032
123 0.000997
129 0.000997
138 0.001996
148 0.000998
161 0.000997
175 0.001997
188 0.000997
195 0.000999
203 0.000998
209 0.000998
216 0.000998
215 0.000998
156 0.000998
89 0.00098
73 0.000997
78 0.000998
93 0.0
110 0.0
124 0.0
131 0.0
135 0.0
141 0.0
148 0.0
160 0.00099
170 0.000998
179 0.000997
187 0.000932
194 0.000995
203 0.0
212 0.0
209 0.0
143 0.0
79 0.0
63 0.0
67 0.0
80 0.0
92 0.0
104 0.000998
113 0.000998
118 0.0
125 0.0
135 0.0
148 0.0
158 0.0
167 0.0
175 0.0
182 0.0
189 0.0
199 0.0
204 0.0
191 0.000999
105 0.000997
53 0.0
39 0.0
43 0.0
53 0.002046
64 0.0
74 0.0
82 0.0
86 0.0
95 0.0
105 0.002024
117 0.000997
128 0.000998
143 0.0
159 0.000962
167 0.000997
175 0.001036
183 0.000957
171 0.0
86 0.000963
36 0.0
21 0.002018
22 0.002019
27 0.0
35 0.0
43 0.000997
62 0.0
67 0.000993
75 0.001063
86 0.002044
103 0.0
115 0.0
128 0.0
139 0.001039
149 0.001025
162 0.0
171 0.0
178 0.0
123 0.0
51 0.000972
26 0.002037
24 0.002053
32 0.0
41 0.0
49 0.000999
65 0.001001
73 0.000999
78 0.0
86 0.000961
99 0.0
121 0.001006
133 0.0
145 0.002004
155 0.001983
168 0.0
177 0.0
185 0.0
183 0.002001
115 0.001993
45 0.0
36 0.0
40 0.000948
55 0.000994
69 0.000983
81 0.002021
87 0.002035
91 0.0
98 0.0
110 0.0
123 0.001985
136 0.001998
151 0.0
162 0.0
171 0.0
186 0.000965
193 0.000964
192 0.001997
126 0.00103
47 0.0
33 0.0
34 0.0
39 0.001994
48 0.002018
65 0.0
75 0.0
81 0.0
92 0.0
103 0.0
116 0.0
130 0.001036
142 0.001995
157 0.002012
168 0.0
176 0.0
185 0.001996
193 0.002004
193 0.0
123 0.001957
40 0.002005
33 0.000962
37 0.001992
42 0.002981
52 0.003005
69 0.001986
79 0.001986
85 0.00203
92 0.001949
102 0.001997
119 0.000942
132 0.000998
153 0.001011
164 0.00199
174 0.000964
183 0.003028
191 0.002973
202 0.002023
201 0.002023
139 0.002
70 0.001984
49 0.00196
52 0.001987
60 0.001043
79 0.002005
93 0.000955
102 0.00102
108 0.002951
115 0.002993
128 0.001988
140 0.001022
152 0.001975
164 0.003025
174 0.002994
187 0.002013
195 0.001973
208 0.001999
215 0.002006
212 0.000982
153 0.002994
87 0.002959
70 0.000994
78 0.000995
89 0.002011
103 0.002955
116 0.002993
129 0.002014
133 0.002027
142 0.002006
151 0.001955
162 0.001024
172 0.002999
182 0.002996
193 0.000966
201 0.001997
208 0.001018
215 0.003001
221 0.002978
197 0.001994
112 0.002007
68 0.001987
73 0.001966
82 0.00197
93 0.003993
105 0.002971
118 0.002011
123 0.001993
128 0.002046
135 0.002988
145 0.003961
158 0.001956
169 0.001995
184 0.001941
192 0.00196
199 0.001991
206 0.003989
212 0.003998
213 0.001998
155 0.001996
80 0.001981
56 0.002993
53 0.003943
58 0.001967
66 0.002028
80 0.003985
93 0.00196
99 0.002021
104 0.001962
113 0.003994
124 0.003995
139 0.002994
150 0.001984
161 0.002955
170 0.004983
178 0.004991
188 0.002997
198 0.003964
203 0.00302
160 0.001994
77 0.002016
47 0.003983
42 0.003989
47 0.001966
54 0.002002
64 0.002989
75 0.004987
84 0.004986
92 0.002993
103 0.005022
119 0.001995
131 0.002019
143 0.001942
154 0.003982
163 0.003987
175 0.002963
183 0.002961
191 0.002975
199 0.005003
204 0.004997
176 0.002983
72 0.004975
48 0.002999
51 0.002958
58 0.003
67 0.004988
79 0.004033
92 0.002004
97 0.002995
102 0.002992
110 0.004953
121 0.004978
136 0.002992
151 0.004986
165 0.001994
174 0.00297
182 0.002998
190 0.005022
197 0.004951
204 0.003984
185 0.003983
101 0.003039
60 0.004987
54 0.004997
63 0.002992
77 0.004978
94 0.002957
104 0.003954
108 0.002987
111 0.005948
118 0.005934
132 0.003991
142 0.003965
153 0.003982
163 0.00499
172 0.00499
183 0.004004
192 0.004991
202 0.002992
203 0.002979
153 0.002993
73 0.005998
45 0.005983
43 0.00399
50 0.004005
58 0.003993
70 0.00601
81 0.00599
90 0.004004
96 0.004957
108 0.002926
119 0.003951
132 0.003986
143 0.006011
155 0.005979
167 0.003999
176 0.00398
183 0.003995
191 0.006013
198 0.006013
198 0.003994
96 0.006953
39 0.004959
31 0.003985
34 0.004972
38 0.00498
46 0.005965
58 0.005979
72 0.003977
79 0.004011
84 0.003951
94 0.005983
106 0.005983
128 0.00595
139 0.005978
154 0.004982
164 0.004947
173 0.004928
181 0.006981
189 0.005973
197 0.003959
177 0.00399
88 0.003974
44 0.005997
34 0.005938
42 0.006949
50 0.006983
67 0.004943
78 0.00498
86 0.005036
92 0.006977
99 0.006974
114 0.004985
126 0.004036
139 0.005022
150 0.005993
161 0.006025
177 0.00695
185 0.006981
196 0.005008
203 0.004996
207 0.004927
177 0.006949
90 0.007002
52 0.004998
54 0.004944
62 0.004973
72 0.006951
85 0.008024
103 0.006986
107 0.006982
112 0.00497
121 0.004967
132 0.004982
143 0.006984
154 0.006984
168 0.004983
177 0.005013
185 0.004981
193 0.006981
203 0.007928
183 0.007939
122 0.007935
55 0.005975
48 0.004984
54 0.004987
63 0.006941
75 0.007004
91 0.004964
100 0.004944
104 0.004954
111 0.007974
121 0.007974
135 0.007979
147 0.007973
161 0.005981
170 0.004987
179 0.005023
187 0.006945
194 0.00701
204 0.005984
204 0.004977
146 0.006012
67 0.007977
37 0.00798
40 0.007949
46 0.007942
56 0.005978
68 0.005036
77 0.005951
84 0.007986
89 0.007977
101 0.007012
113 0.005979
126 0.005978
142 0.007979
153 0.00797
170 0.007943
176 0.007955
187 0.006007
195 0.005979
200 0.005022
166 0.005944
60 0.007981
37 0.006983
35 0.005922
41 0.005973
49 0.005939
64 0.007971
79 0.005943
89 0.007936
92 0.007973
104 0.005997
116 0.005984
128 0.005016
145 0.006985
156 0.006982
166 0.006011
176 0.005986
184 0.005984
196 0.006972
203 0.006957
158 0.007938
97 0.007933
48 0.005988
46 0.005991
53 0.006947
67 0.006939
80 0.006986
93 0.005985
102 0.005991
107 0.006947
116 0.006982
129 0.006942
145 0.007009
156 0.007991
167 0.006016
176 0.00693
185 0.006914
196 0.007012
203 0.00698
209 0.006973
197 0.006981
114 0.006973
60 0.006982
61 0.006981
77 0.006973
91 0.006982
108 0.006957
115 0.006013
120 0.006982
122 0.007009
130 0.006975
143 0.006968
150 0.006977
161 0.006981
174 0.006981
188 0.007011
196 0.006948
203 0.00698
205 0.005959
145 0.006966
72 0.005977
50 0.005949
49 0.007007
61 0.006978
67 0.006982
84 0.006984
94 0.006965
100 0.006967
104 0.006981
112 0.006026
128 0.005968
140 0.006017
151 0.005999
161 0.006007
171 0.005978
182 0.005985
190 0.005975
195 0.006016
190 0.006982
80 0.006946
28 0.006941
22 0.005988
25 0.005987
30 0.005989
41 0.005982
52 0.00602
59 0.006014
65 0.005973
72 0.005996
83 0.004976
96 0.006008
119 0.005984
132 0.005006
143 0.005988
153 0.006014
166 0.005934
175 0.005987
178 0.005973
132 0.006009
51 0.006031
15 0.005964
14 0.005994
19 0.005943
35 0.004948
49 0.004985
62 0.005021
70 0.005027
79 0.005963
90 0.005981
103 0.005976
118 0.005983
132 0.005988
149 0.005975
161 0.005975
172 0.004952
189 0.004998
198 0.005013
195 0.00499
120 0.005014
48 0.004988
40 0.004989
45 0.004985
54 0.006009
66 0.005984
84 0.005922
94 0.005964
99 0.004993
103 0.005036
121 0.005042
134 0.005014
148 0.005014
164 0.004988
175 0.004983
185 0.003992
194 0.004986
203 0.004987
210 0.004986
182 0.004986
94 0.004987
58 0.004987
57 0.00502
67 0.005016
81 0.00502
99 0.004997
109 0.004951
112 0.004963
114 0.004991
122 0.004945
137 0.004946
150 0.003949
162 0.003952
173 0.004038
189 0.004987
198 0.004987
206 0.004978
207 0.004953
137 0.005038
67 0.004971
45 0.004986
45 0.00402
54 0.003963
65 0.003956
79 0.00396
90 0.003989
100 0.003998
105 0.003944
116 0.004993
133 0.004962
146 0.004941
158 0.004962
169 0.004975
180 0.004025
191 0.003962
200 0.003983
208 0.003961
199 0.00399
66 0.004031
39 0.004041
34 0.003991
40 0.003956
47 0.004949
60 0.005009
73 0.00399
83 0.004022
90 0.00395
98 0.003989
110 0.003961
124 0.003951
147 0.003962
159 0.003986
170 0.003991
180 0.00399
192 0.003948
200 0.00303
197 0.002964
121 0.003988
58 0.00399
39 0.003997
43 0.003987
52 0.003957
75 0.003975
89 0.003944
100 0.003977
106 0.003962
115 0.004035
127 0.002956
139 0.004024
152 0.003042
165 0.003989
179 0.003968
189 0.003976
198 0.003988
211 0.003982
208 0.003958
135 0.003991
74 0.002994
61 0.003057
71 0.002991
83 0.002992
99 0.003029
113 0.003018
126 0.004033
130 0.002996
134 0.003021
150 0.003986
162 0.004013
173 0.00299
183 0.002992
196 0.002995
204 0.002993
212 0.002966
215 0.002992
172 0.00301
74 0.004007
56 0.002966
58 0.003962
75 0.002963
88 0.002951
101 0.002992
110 0.002988
114 0.003024
119 0.003013
129 0.003032
141 0.002981
153 0.003025
168 0.002983
179 0.002993
188 0.002963
202 0.002996
205 0.001975
152 0.001995
68 0.002022
31 0.002991
28 0.002952
31 0.002956
38 0.003021
49 0.00299
65 0.002994
71 0.002961
76 0.002002
91 0.002034
104 0.002019
119 0.001955
133 0.002029
149 0.002031
161 0.002023
172 0.001995
181 0.001999
183 0.002997
91 0.002079
38 0.002035
22 0.00301
26 0.002026
35 0.001995
48 0.001994
63 0.002027
78 0.002045
83 0.001998
91 0.00197
103 0.002056
118 0.000999
138 0.001994
152 0.001968
165 0.000997
183 0.001994
194 0.001996
201 0.001995
173 0.001996
85 0.00205
41 0.002004
40 0.002024
47 0.002025
57 0.002038
71 0.000996
88 0.001033
94 0.001031
98 0.000999
109 0.000997
123 0.001995
137 0.002032
151 0.002018
168 0.001995
179 0.002025
189 0.002038
199 0.002031
189 0.001
82 0.000998
46 0.000997
43 0.000998
52 0.000995
65 0.001996
81 0.000998
92 0.001996
97 0.002035
100 0.002058
109 0.001995
123 0.000998
138 0.001
156 0.000999
169 0.000997
187 0.002023
197 0.000998
205 0.001982
189 0.000997
96 0.0
36 0.002027
26 0.00203
27 0.000998
31 0.000971
40 0.000998
59 0.000998
70 0.000997
79 0.000998
88 0.001007
101 0.000997
117 0.002023
133 0.002023
151 0.002032
164 0.002012
175 0.0
186 0.0
196 0.0
177 0.000993
84 0.000993
25 0.001015
21 0.000997
24 0.000998
30 0.000997
43 0.000996
64 0.001
73 0.0
80 0.0
88 0.0
101 0.0
123 0.0
139 0.0
163 0.0
175 0.000997
187 0.001028
197 0.000954
207 0.000997
201 0.0
113 0.0
57 0.0
42 0.0
44 0.0
53 0.0
65 0.0
89 0.0
98 0.0
103 0.0
109 0.000997
122 0.000998
142 0.0
157 0.0
170 0.0
183 0.0
194 0.0
208 0.0
218 0.0
217 0.0
135 0.0
77 0.0
62 0.0
66 0.000997
76 0.000997
94 0.001032
110 0.0
120 0.0
125 0.0
130 0.0
140 0.002026
163 0.0
176 0.002026
188 0.002033
203 0.0
212 0.0
222 0.0
231 0.0
232 0.002049
136 0.000999
77 0.001
61 0.0
62 0.002009
76 0.0
89 0.002035
103 0.002023
115 0.0
120 0.0
128 0.0
139 0.002027
153 0.002024
170 0.000991
182 0.000968
193 0.000961
203 0.001035
218 0.0
226 0.002029
234 0.00203
218 0.0
121 0.0
69 0.0
55 0.002023
57 0.002025
65 0.000967
75 0.0
89 0.000967
102 0.002025
115 0.000987
123 0.001999
135 0.002032
152 0.001005
165 0.0
178 0.0
189 0.002022
199 0.002022
212 0.0
221 0.0
229 0.0
233 0.002025
130 0.0
78 0.002
66 0.002024
75 0.000959
86 0.000994
100 0.0
115 0.000995
127 0.001993
138 0.0
146 0.0
155 0.0
167 0.001971
187 0.0
197 0.001994
207 0.001965
219 0.0
226 0.0
234 0.0
241 0.002989
242 0.001001
192 0.00099
98 0.0
87 0.0
95 0.00202
119 0.000992
133 0.002019
146 0.001954
156 0.0
161 0.0
167 0.0
175 0.002007
186 0.002002
198 0.000996
207 0.000995
215 0.0
222 0.001994
234 0.0
238 0.0
225 0.002027
138 0.002018
80 0.0
79 0.0
89 0.0
102 0.001992
116 0.002015
133 0.000962
141 0.0
146 0.00104
157 0.0
167 0.001993
177 0.001995
187 0.001988
198 0.001996
206 0.000966
213 0.0
220 0.002988
226 0.002953
218 0.0
131 0.0
69 0.001998
55 0.001964
62 0.001987
71 0.001994
84 0.002992
99 0.001997
110 0.001991
117 0.002019
127 0.002991
139 0.003026
155 0.001982
167 0.001968
179 0.001976
195 0.001995
203 0.002
211 0.002955
217 0.002961
204 0.002017
114 0.001981
69 0.002002
64 0.002979
72 0.002991
88 0.002025
104 0.001944
118 0.002006
135 0.002037
141 0.001971
151 0.003003
162 0.002993
179 0.001996
191 0.002001
201 0.001988
211 0.004025
220 0.00396
194 0.001983
237 0.001985
235 0.001998
112 0.002001
81 0.001985
80 0.003021
90 0.003028
109 0.001991
123 0.001994
135 0.00202
143 0.003963
145 0.003954
152 0.001996
162 0.002034
171 0.001021
187 0.002036
195 0.002023
202 0.003024
209 0.003022
215 0.001999
200 0.001988
110 0.001997
60 0.003975
49 0.003996
57 0.001983
68 0.002952
82 0.001996
98 0.002019
101 0.001993
103 0.00303
109 0.003987
123 0.001995
134 0.002
145 0.002012
155 0.004002
164 0.003954
175 0.002003
182 0.001986
174 0.001997
39 0.001953
8 0.002033
1 0.001997
3 0.004959
7 0.004982
22 0.00201
33 0.002007
37 0.002017
39 0.003983
45 0.003997
60 0.001989
75 0.002991
99 0.002951
111 0.002958
122 0.003006
133 0.004959
144 0.004971
135 0.002051
48 0.001993
0 0.001991
0 0.003993
0 0.00399
0 0.001995
0 0.001994
9 0.002996
17 0.002992
22 0.001991
30 0.004988
43 0.004973
64 0.002949
81 0.001995
96 0.002009
110 0.00499
123 0.004991
139 0.001987
149 0.001991
71 0.002993
13 0.002993
0 0.003024
0 0.004983
0 0.004984
6 0.002992
22 0.002992
34 0.002994
39 0.004995
42 0.005001
56 0.003946
71 0.001995
98 0.002967
113 0.003
127 0.003028
140 0.004987
152 0.005011
164 0.002946
121 0.002978
47 0.002021
16 0.00496
10 0.00499
15 0.003962
25 0.003012
51 0.003963
60 0.003014
62 0.002975
66 0.005923
78 0.005995
99 0.002966
115 0.002995
131 0.002961
144 0.005038
157 0.005006
173 0.003998
183 0.00399
102 0.00398
40 0.003984
17 0.004005
13 0.005981
14 0.005984
23 0.002937
39 0.002974
53 0.00297
61 0.004982
66 0.005974
79 0.003996
94 0.003955
122 0.003945
138 0.003967
152 0.003996
165 0.005975
176 0.005988
191 0.004006
198 0.002959
162 0.002942
73 0.006004
31 0.006981
17 0.005983
16 0.003983
20 0.005984
40 0.003019
56 0.003993
66 0.003993
71 0.005952
81 0.005986
100 0.002993
117 0.004938
134 0.00495
150 0.00701
164 0.006979
181 0.003961
196 0.005941
210 0.004029
208 0.003985
128 0.003997
62 0.00599
39 0.00694
36 0.003981
39 0.004958
47 0.004987
63 0.006988
79 0.006977
92 0.004031
100 0.006962
117 0.004036
133 0.003982
151 0.003956
166 0.006006
180 0.005984
197 0.004944
208 0.004967
219 0.004987
228 0.007007
235 0.006977
163 0.004993
76 0.006983
64 0.003995
70 0.003989
77 0.004006
90 0.006013
106 0.008025
120 0.005024
122 0.004987
126 0.004999
139 0.006954
154 0.006976
174 0.004995
192 0.007021
208 0.004965
218 0.004005
228 0.005009
238 0.007976
193 0.007973
118 0.004973
76 0.004984
68 0.004982
72 0.006969
80 0.006979
99 0.005976
118 0.006989
126 0.005945
129 0.005985
138 0.004957
151 0.007978
166 0.007976
184 0.004986
196 0.004985
207 0.004966
217 0.006982
229 0.007958
237 0.004998
223 0.006975
98 0.004957
59 0.004997
50 0.005941
52 0.007981
58 0.007978
70 0.005992
86 0.005014
98 0.005021
107 0.007945
112 0.007948
127 0.004993
148 0.006983
168 0.003989
181 0.005977
193 0.005997
207 0.007993
217 0.007989
226 0.005953
231 0.00598
195 0.00599
77 0.007972
55 0.007925
48 0.006951
54 0.007014
64 0.005942
79 0.005987
92 0.005989
102 0.005986
108 0.007953
117 0.007958
135 0.005984
150 0.005949
164 0.005988
177 0.007965
193 0.007984
211 0.007978
220 0.006978
228 0.004995
228 0.006012
155 0.005987
67 0.006984
54 0.006983
57 0.004991
64 0.00598
75 0.005982
95 0.007968
108 0.006982
121 0.006981
129 0.006979
142 0.004979
155 0.005984
169 0.005984
186 0.006973
198 0.006974
209 0.005972
219 0.00597
228 0.005992
238 0.007918
240 0.006921
119 0.007009
78 0.006978
74 0.005975
83 0.005984
95 0.006972
117 0.006935
131 0.006963
140 0.006022
144 0.006972
148 0.005997
161 0.005943
173 0.005971
193 0.006953
203 0.006986
213 0.006011
221 0.006944
204 0.006019
238 0.006952
223 0.00599
103 0.00599
70 0.005969
67 0.005982
76 0.005983
88 0.005948
114 0.005958
127 0.006012
137 0.006957
140 0.006936
148 0.00598
162 0.006974
174 0.007017
187 0.006974
201 0.006942
211 0.005955
221 0.005984
229 0.006019
238 0.005984
190 0.006003
77 0.005956
59 0.005973
55 0.005985
60 0.00698
69 0.006982
82 0.006012
100 0.005985
109 0.005989
115 0.005956
123 0.005989
143 0.005947
156 0.005989
174 0.005984
185 0.005943
196 0.005953
206 0.005998
215 0.006017
222 0.00599
182 0.005957
86 0.005994
49 0.005985
41 0.00602
47 0.006011
57 0.006011
75 0.005996
87 0.004948
93 0.005953
99 0.005941
108 0.005989
121 0.005984
140 0.005956
154 0.005942
167 0.005993
178 0.006001
196 0.005966
206 0.005976
212 0.00598
155 0.00594
70 0.005981
43 0.005945
40 0.004991
47 0.004987
61 0.005023
75 0.004962
88 0.004954
96 0.005983
104 0.005944
114 0.005973
128 0.005993
147 0.005939
160 0.005965
172 0.004961
184 0.005014
194 0.00502
207 0.004968
211 0.004991
175 0.004988
83 0.005014
43 0.004979
47 0.005956
56 0.005979
76 0.004984
89 0.004979
96 0.004984
96 0.005014
97 0.004986
110 0.004988
124 0.005026
138 0.004977
151 0.005025
169 0.004988
179 0.004953
188 0.004988
185 0.003993
100 0.003963
39 0.004984
21 0.004989
20 0.005013
30 0.004988
43 0.005034
57 0.003988
65 0.005016
69 0.00396
76 0.004991
89 0.00495
109 0.004989
124 0.003991
138 0.00404
150 0.00401
161 0.005029
176 0.004972
183 0.005013
147 0.005006
53 0.00499
0 0.004988
0 0.003953
0 0.003989
2 0.004
16 0.003952
29 0.003965
36 0.003991
41 0.00399
55 0.004026
70 0.003986
86 0.004984
103 0.004987
127 0.004984
141 0.00404
152 0.003992
167 0.00399
172 0.003991
106 0.00399
30 0.004027
0 0.003989
0 0.003989
0 0.003962
0 0.004021
12 0.003991
39 0.004936
46 0.003951
53 0.004026
70 0.00395
86 0.003954
104 0.003978
120 0.004026
136 0.003951
155 0.003988
168 0.003958
179 0.003989
191 0.002959
179 0.002992
86 0.00399
35 0.003993
20 0.003989
24 0.003991
29 0.00399
43 0.00399
59 0.003989
71 0.00399
77 0.003961
83 0.002991
95 0.002937
122 0.002998
139 0.002956
153 0.002992
167 0.002981
183 0.002949
195 0.004028
206 0.004017
213 0.003989
168 0.00399
63 0.002992
38 0.002992
36 0.002991
48 0.003018
62 0.002976
79 0.002994
89 0.002993
92 0.003997
97 0.002991
110 0.002985
126 0.001994
143 0.002994
164 0.002992
177 0.002992
189 0.002991
207 0.002992
216 0.001995
217 0.003017
142 0.003035
51 0.003026
32 0.002976
31 0.002993
34 0.001995
42 0.001984
64 0.002012
78 0.001995
86 0.001996
97 0.00302
110 0.002975
126 0.002994
142 0.002994
163 0.002984
177 0.002992
189 0.002975
201 0.001996
211 0.001989
224 0.001996
232 0.001996
214 0.001995
67 0.001994
40 0.00299
35 0.001964
37 0.002993
46 0.003005
61 0.00299
77 0.001994
88 0.00199
94 0.001994
106 0.001995
120 0.001996
137 0.001995
165 0.001995
179 0.002029
192 0.002028
205 0.001988
220 0.002957
229 0.002038
239 0.002042
247 0.002025
243 0.002028
124 0.002031
72 0.001996
61 0.00205
69 0.001985
79 0.002005
94 0.001949
109 0.002028
120 0.001027
124 0.001027
132 0.000997
144 0.001995
159 0.001996
174 0.001995
193 0.00199
206 0.002026
225 0.001979
235 0.002
244 0.001991
250 0.002024
226 0.001033
105 0.000999
76 0.000998
75 0.000999
84 0.000997
97 0.000998
120 0.001995
133 0.002029
141 0.001996
146 0.002017
156 0.001981
168 0.000997
182 0.000998
201 0.000999
212 0.000998
221 0.000956
231 0.000998
239 0.000998
189 0.000997
179 0.001968
107 0.001995
98 0.001974
99 0.002016
104 0.000998
110 0.000999
121 0.000998
128 0.000999
133 0.000997
136 0.000997
140 0.000998
148 0.002004
154 0.0
165 0.002025
170 0.000997
175 0.000999
180 0.000998
183 0.002025
167 0.000997
118 0.000998
99 0.000999
97 0.0
101 0.000997
111 0.0
120 0.000997
132 0.0
136 0.0
140 0.0
145 0.0
150 0.0
158 0.000968
164 0.000952
170 0.000997
174 0.000997
179 0.000997
184 0.0
183 0.000997
114 0.0
98 0.0
98 0.0
104 0.0
112 0.0
124 0.000999
131 0.0
136 0.0
140 0.000999
144 0.0
151 0.000998
156 0.0
166 0.0
171 0.0
175 0.0
180 0.0
184 0.0
188 0.0
179 0.0
131 0.00102
105 0.0
103 0.000998
112 0.000958
120 0.000961
136 0.0
144 0.0
149 0.0
155 0.0
158 0.0
167 0.001995
174 0.002004
180 0.0
188 0.000964
192 0.0
199 0.000949
203 0.002025
147 0.0
100 0.002024
91 0.002036
99 0.0
112 0.000999
126 0.0
138 0.00203
148 0.002024
155 0.000964
159 0.0
165 0.000967
172 0.00202
182 0.000985
187 0.002954
193 0.002987
199 0.0
199 0.0
164 0.0
97 0.001989
74 0.002032
74 0.0
82 0.0
92 0.0
104 0.002033
116 0.000998
119 0.002995
123 0.002988
132 0.0
139 0.0
147 0.0
155 0.002992
162 0.002953
170 0.0
175 0.000999
178 0.0
149 0.002043
57 0.0
46 0.002009
47 0.001988
55 0.000959
65 0.000965
75 0.000967
84 0.002988
88 0.003023
93 0.0
100 0.0
109 0.0
118 0.001995
132 0.0
140 0.002021
148 0.001978
157 0.0
163 0.0
163 0.000996
115 0.001997
58 0.001995
37 0.000991
38 0.001022
43 0.0
52 0.002959
69 0.0
76 0.003002
81 0.001992
87 0.0
95 0.001016
105 0.0
115 0.001983
126 0.002032
139 0.0
147 0.000998
154 0.000961
161 0.00199
170 0.0
145 0.002993
78 0.002997
49 0.0
50 0.0
56 0.0
65 0.002015
76 0.001981
89 0.0
94 0.0
97 0.000966
103 0.001988
117 0.000997
127 0.001996
137 0.002982
149 0.0
156 0.0
163 0.0
170 0.002012
175 0.001965
169 0.001995
89 0.000993
63 0.0
61 0.0
73 0.0
84 0.0
96 0.001997
103 0.002962
104 0.0
105 0.0
112 0.0
121 0.003036
131 0.002978
143 0.0
151 0.0
159 0.0
171 0.000991
173 0.00099
137 0.002991
79 0.002992
56 0.0
57 0.0
63 0.0
74 0.002991
85 0.002991
96 0.002009
97 0.002005
98 0.002006
110 0.001996
120 0.002
131 0.002961
141 0.00295
152 0.00096
159 0.003008
167 0.002997
173 0.003023
172 0.002987
95 0.001989
58 0.001988
46 0.002008
48 0.002004
53 0.001998
63 0.002988
73 0.002996
81 0.002999
84 0.002991
89 0.002991
98 0.002993
108 0.002992
123 0.002994
133 0.001994
143 0.0
156 0.001996
164 0.002023
171 0.00399
177 0.00402
149 0.001991
83 0.002033
53 0.001998
44 0.002986
43 0.002988
47 0.002994
55 0.00203
65 0.001976
75 0.002004
79 0.002001
85 0.003993
94 0.003989
109 0.002011
120 0.003026
130 0.001987
139 0.002974
148 0.002984
158 0.00194
165 0.003002
173 0.0
167 0.001994
102 0.002992
64 0.00399
50 0.00399
48 0.001996
51 0.001995
59 0.001995
70 0.00399
79 0.00399
84 0.001994
88 0.001991
96 0.001985
114 0.003002
125 0.003004
136 0.003991
145 0.003999
157 0.002024
165 0.002002
173 0.002008
180 0.003982
186 0.004971
190 0.002014
144 0.001972
88 0.003031
63 0.002992
65 0.002033
69 0.001994
78 0.003979
88 0.003997
97 0.003011
98 0.002037
101 0.002948
108 0.004988
119 0.004984
134 0.00199
144 0.001996
159 0.001995
167 0.002001
175 0.001997
182 0.003984
189 0.004003
187 0.00298
129 0.002993
84 0.002948
70 0.004977
69 0.004983
76 0.001998
87 0.001995
105 0.002002
109 0.002022
109 0.002014
113 0.004999
122 0.004996
137 0.00299
147 0.003002
157 0.003015
166 0.004945
174 0.005045
184 0.001994
190 0.002994
199 0.001996
181 0.001954
110 0.001996
75 0.004986
65 0.004979
65 0.001991
69 0.002962
79 0.002963
90 0.006024
99 0.005008
104 0.002985
108 0.003002
124 0.002993
135 0.003034
146 0.002959
157 0.004977
166 0.004975
177 0.002944
184 0.003003
192 0.00299
198 0.005944
204 0.005969
200 0.003028
133 0.002963
72 0.003019
67 0.00203
69 0.001942
73 0.004989
82 0.005013
96 0.00299
104 0.003028
108 0.002983
113 0.006017
120 0.005984
135 0.002992
146 0.002965
163 0.002995
172 0.002953
181 0.003
188 0.006014
194 0.005983
203 0.003976
207 0.004008
187 0.003019
116 0.005951
85 0.005996
79 0.003003
84 0.002981
98 0.002975
109 0.002939
119 0.004012
124 0.006981
127 0.005997
136 0.003993
144 0.003996
154 0.003958
163 0.005974
172 0.005979
183 0.003034
190 0.002993
200 0.00296
205 0.003961
192 0.003963
125 0.003994
90 0.006986
84 0.006949
91 0.003988
100 0.004015
112 0.003981
122 0.00601
129 0.005955
131 0.003984
136 0.006945
147 0.003982
156 0.00399
165 0.003991
173 0.006971
180 0.00702
189 0.003987
196 0.004026
199 0.004005
168 0.006996
102 0.00595
73 0.003996
73 0.006939
82 0.004996
93 0.004958
104 0.00398
112 0.006946
115 0.006971
119 0.003993
127 0.004962
136 0.003994
146 0.006982
155 0.007979
167 0.004987
180 0.007954
187 0.004989
192 0.004958
176 0.004971
105 0.00702
69 0.00696
57 0.004023
60 0.003966
64 0.004941
73 0.006994
83 0.007946
94 0.00501
98 0.007978
105 0.00496
115 0.004984
126 0.004959
137 0.007007
147 0.006981
160 0.005017
168 0.004987
175 0.004037
183 0.007009
187 0.007951
140 0.004985
63 0.007971
54 0.004991
55 0.005008
60 0.004994
68 0.00798
80 0.007978
92 0.004987
97 0.005945
101 0.004987
108 0.007953
118 0.007936
134 0.006002
148 0.007934
161 0.004996
170 0.004977
178 0.005989
185 0.007927
192 0.008021
190 0.004986
128 0.005951
81 0.005945
68 0.00793
72 0.007979
79 0.005949
94 0.007988
108 0.00499
112 0.004991
113 0.005994
120 0.007949
129 0.007937
140 0.005985
150 0.005955
160 0.005995
169 0.005986
179 0.006978
187 0.007979
187 0.007973
127 0.007939
83 0.005928
70 0.005978
72 0.005948
83 0.006987
96 0.00794
108 0.006024
115 0.005993
116 0.005949
119 0.006941
126 0.006993
143 0.006957
153 0.006989
163 0.005964
171 0.005954
179 0.005996
188 0.007979
195 0.006982
192 0.006978
155 0.005991
89 0.006023
61 0.007023
59 0.006981
68 0.006998
77 0.007944
88 0.005983
96 0.005968
100 0.005955
104 0.006981
113 0.006945
126 0.006946
134 0.006942
144 0.006981
157 0.006935
166 0.006938
179 0.005977
186 0.007005
193 0.006009
199 0.005955
203 0.005955
163 0.005927
92 0.006965
62 0.005994
60 0.005959
62 0.006971
67 0.006982
76 0.006986
92 0.006945
98 0.006944
104 0.006943
111 0.006981
122 0.005945
133 0.005986
144 0.006975
157 0.006952
166 0.006012
174 0.006971
181 0.006954
188 0.006929
198 0.007036
201 0.006981
170 0.00599
87 0.005984
70 0.005993
69 0.005983
74 0.005984
82 0.006952
92 0.006955
106 0.006965
113 0.007034
117 0.006981
127 0.007005
137 0.006024
150 0.005961
160 0.005948
169 0.005985
177 0.005983
184 0.006015
191 0.00698
197 0.006982
205 0.006989
209 0.006984
202 0.005984
102 0.00702
84 0.004986
88 0.004971
97 0.005985
108 0.004946
120 0.005012
129 0.00601
135 0.006024
138 0.005986
143 0.005947
150 0.005986
158 0.006024
172 0.005027
180 0.005035
186 0.005021
194 0.004983
199 0.004985
204 0.005019
207 0.004986
192 0.004945
106 0.005987
85 0.005955
85 0.005974
92 0.004991
111 0.004992
122 0.005024
130 0.004988
134 0.004974
137 0.004954
143 0.005027
150 0.004986
158 0.005038
169 0.004988
176 0.004981
182 0.004023
188 0.004976
197 0.00499
201 0.004992
202 0.004987
136 0.005013
85 0.004955
70 0.005038
72 0.004969
78 0.005017
89 0.005006
100 0.004985
109 0.004018
114 0.004019
121 0.00394
128 0.005028
136 0.004951
148 0.004983
157 0.004984
165 0.004942
172 0.005015
178 0.004988
186 0.004927
191 0.004949
194 0.003989
174 0.004023
76 0.004019
64 0.004988
65 0.004986
74 0.004938
83 0.004985
94 0.004989
103 0.003989
109 0.004987
115 0.003988
121 0.004016
130 0.00399
139 0.004018
155 0.003001
163 0.00399
170 0.00399
178 0.005046
184 0.004026
190 0.003944
192 0.003991
165 0.003997
85 0.004039
71 0.00399
73 0.003991
82 0.00399
99 0.00399
110 0.003953
118 0.003943
123 0.003946
126 0.004002
133 0.003948
142 0.004987
150 0.002993
161 0.00299
168 0.003043
175 0.00394
180 0.00401
189 0.003977
189 0.003991
146 0.003992
88 0.003987
72 0.003996
77 0.004034
86 0.002992
98 0.002988
109 0.002983
119 0.003019
120 0.003989
121 0.002992
130 0.003989
139 0.003989
148 0.003992
156 0.002991
166 0.00399
172 0.002993
178 0.002995
183 0.002999
176 0.002992
92 0.00304
63 0.00303
57 0.004016
66 0.003034
75 0.002988
86 0.003991
94 0.002993
100 0.002993
102 0.002988
107 0.003028
116 0.002992
125 0.00302
138 0.002994
147 0.002995
155 0.003028
167 0.003033
173 0.003035
176 0.00203
133 0.001995
62 0.003029
47 0.002022
46 0.003004
49 0.002995
55 0.003028
68 0.003027
77 0.002992
82 0.002995
87 0.00304
95 0.001966
105 0.001966
116 0.001996
130 0.001995
140 0.001997
148 0.002012
157 0.001996
164 0.002021
172 0.003003
149 0.002986
83 0.002999
49 0.003
50 0.003026
56 0.001995
64 0.001994
79 0.001995
88 0.002004
93 0.001996
96 0.002033
101 0.001994
114 0.002025
125 0.002028
136 0.001986
152 0.003025
160 0.002028
169 0.001994
177 0.001995
179 0.001996
130 0.001995
77 0.001994
61 0.002034
61 0.002028
70 0.00203
80 0.002031
92 0.002051
102 0.000994
102 0.0
105 0.001996
112 0.001994
126 0.00203
137 0.001995
147 0.002035
155 0.002019
163 0.002024
173 0.002018
180 0.001
173 0.002049
77 0.001995
59 0.000998
57 0.000998
61 0.002995
69 0.001023
84 0.001996
93 0.001984
96 0.001987
98 0.00199
102 0.002025
114 0.001997
125 0.000998
143 0.000999
153 0.000969
161 0.000972
169 0.000998
177 0.000994
184 0.001968
155 0.001993
87 0.002026
58 0.002031
50 0.000998
51 0.000998
54 0.001999
70 0.00102
78 0.001994
82 0.002049
85 0.002038
91 0.002038
104 0.002023
115 0.002026
127 0.002023
137 0.002032
147 0.001997
158 0.000998
166 0.00099
177 0.000997
148 0.001003
84 0.002014
55 0.001979
46 0.000998
47 0.000997
51 0.001994
60 0.000997
71 0.0
79 0.0
84 0.0
90 0.0
106 0.0
119 0.000998
131 0.000997
142 0.000998
152 0.000998
164 0.0
172 0.0
180 0.0
187 0.0
166 0.0
84 0.001022
63 0.0
60 0.0
65 0.0
74 0.0
86 0.00103
94 0.0
98 0.0
101 0.000998
108 0.0
119 0.0
131 0.0
146 0.0
156 0.0
171 0.0
180 0.0
188 0.0
195 0.0
186 0.000997
102 0.00096
75 0.0
69 0.0
73 0.0
81 0.0
96 0.0
107 0.0
112 0.0
113 0.0
119 0.0
133 0.0
144 0.0
154 0.000997
164 0.003036
173 0.000998
184 0.000951
192 0.000971
198 0.002032
188 0.002024
88 0.002988
69 0.0
67 0.003021
71 0.000999
81 0.0
93 0.0
104 0.00304
110 0.002994
113 0.000998
120 0.0
130 0.0
142 0.00303
161 0.000949
170 0.001995
180 0.002024
190 0.0
197 0.000998
204 0.001003
206 0.003024
157 0.00305
83 0.0
67 0.0
65 0.000984
67 0.002946
78 0.0
90 0.003032
99 0.002034
105 0.000994
110 0.00097
118 0.000964
128 0.003023
140 0.002959
155 0.001008
165 0.0
174 0.0
182 0.003017
195 0.000969
201 0.002997
204 0.003022
131 0.0
83 0.0
68 0.0
67 0.00203
71 0.003018
81 0.0
93 0.0
103 0.0
110 0.00302
116 0.0
125 0.002993
135 0.003027
150 0.0
161 0.0
171 0.0
181 0.003021
189 0.002026
199 0.000961
206 0.0
212 0.0
213 0.001982
117 0.0
86 0.003021
81 0.002942
88 0.0
97 0.0
109 0.0
121 0.003002
129 0.003013
134 0.00097
138 0.0
146 0.000997
156 0.002957
172 0.00099
181 0.003039
189 0.002996
199 0.0
205 0.0
210 0.0
216 0.003028
218 0.003025
168 0.0
108 0.0
93 0.000997
96 0.003961
113 0.001005
126 0.003023
137 0.001995
147 0.000972
149 0.002002
151 0.00097
157 0.003025
165 0.003026
176 0.0
183 0.0
190 0.0
196 0.002932
206 0.0
211 0.002977
209 0.003017
160 0.003027
93 0.000996
86 0.000992
92 0.0
102 0.00302
114 0.001996
130 0.0
138 0.0
142 0.0
148 0.0
155 0.0
163 0.002956
171 0.003016
180 0.0
187 0.000998
192 0.001014
197 0.001965
203 0.003004
203 0.0
154 0.0
90 0.0
67 0.0
71 0.0
78 0.003018
88 0.002977
102 0.000963
109 0.0
113 0.000995
117 0.003947
123 0.003949
134 0.0
143 0.0
152 0.0
166 0.0
172 0.0
179 0.002994
184 0.002991
183 0.0
125 0.0
70 0.0
53 0.00399
53 0.00396
60 0.0
69 0.000994
80 0.001959
93 0.002977
97 0.0
100 0.002963
108 0.002975
121 0.0
131 0.002003
141 0.001988
151 0.003997
159 0.003992
168 0.002999
176 0.002993
181 0.002038
135 0.00301
73 0.001995
53 0.00299
51 0.002978
58 0.002999
68 0.002007
79 0.002996
89 0.00401
95 0.003955
100 0.002991
106 0.002993
114 0.002988
132 0.003008
142 0.002992
152 0.003928
161 0.004019
171 0.001986
178 0.002988
185 0.003004
185 0.003986
139 0.003935
71 0.0
61 0.001993
64 0.002992
80 0.002978
93 0.002979
103 0.004981
108 0.00395
109 0.002995
113 0.002986
121 0.002971
131 0.003989
141 0.00399
154 0.003006
162 0.001998
170 0.003025
181 0.002989
183 0.002993
147 0.004983
85 0.003992
63 0.004983
63 0.003004
71 0.002994
84 0.002974
97 0.004952
106 0.003996
109 0.002998
109 0.002962
120 0.002988
130 0.002946
140 0.00296
149 0.00499
158 0.004982
168 0.002007
175 0.003009
181 0.002983
180 0.004989
123 0.004985
59 0.002991
47 0.001996
51 0.00299
58 0.002994
68 0.001968
79 0.004993
85 0.004919
88 0.001988
92 0.002987
101 0.001959
112 0.005001
123 0.00501
137 0.003015
146 0.002988
161 0.0
168 0.002964
172 0.002994
136 0.006005
72 0.004948
41 0.001994
38 0.001989
41 0.002991
46 0.005957
56 0.004979
70 0.002016
75 0.003009
81 0.002991
89 0.002959
100 0.00198
112 0.006031
124 0.005971
138 0.002999
148 0.002991
158 0.002003
166 0.00501
172 0.004982
114 0.002964
66 0.002993
46 0.002999
49 0.002998
55 0.002958
65 0.005981
77 0.00597
88 0.002952
91 0.002963
95 0.002992
103 0.005984
114 0.005924
129 0.002993
140 0.002954
158 0.002991
167 0.00299
175 0.002966
183 0.005967
185 0.005955
113 0.003019
72 0.002991
60 0.002979
62 0.006982
68 0.005998
82 0.002992
94 0.003036
102 0.002978
102 0.002991
106 0.002972
115 0.00597
126 0.005977
142 0.003015
152 0.002986
162 0.003022
171 0.005983
179 0.006017
188 0.003985
173 0.003948
80 0.002985
63 0.002999
62 0.003912
67 0.005987
76 0.005971
88 0.005958
101 0.002977
104 0.002992
105 0.003977
110 0.006948
120 0.00698
136 0.003986
151 0.006966
164 0.003992
173 0.003028
181 0.002997
189 0.00698
196 0.006994
181 0.003019
108 0.003019
70 0.003016
57 0.006974
57 0.006985
61 0.003967
73 0.00694
88 0.003984
95 0.003989
99 0.003969
103 0.007002
112 0.006977
128 0.003018
140 0.00399
151 0.003984
161 0.006971
171 0.006982
182 0.004005
192 0.006942
199 0.003991
170 0.003993
99 0.004975
69 0.006984
61 0.007982
65 0.004987
71 0.004987
82 0.003982
98 0.007971
104 0.007977
110 0.00395
118 0.006993
132 0.003028
144 0.001989
155 0.003985
166 0.006965
176 0.007922
188 0.005013
196 0.00495
203 0.005001
210 0.007977
214 0.007978
161 0.004964
92 0.007945
82 0.003989
88 0.003989
97 0.003989
113 0.007978
121 0.007979
132 0.004987
135 0.005023
139 0.004986
146 0.007949
156 0.007974
170 0.00399
184 0.00796
195 0.004995
202 0.005955
209 0.004958
215 0.007974
220 0.007989
200 0.004997
129 0.004964
98 0.004997
94 0.007973
104 0.007933
116 0.003989
137 0.007978
145 0.005957
149 0.005942
151 0.005954
158 0.006987
166 0.006951
176 0.004986
184 0.004987
192 0.005014
201 0.007978
207 0.00793
213 0.004977
219 0.007958
194 0.00497
121 0.004958
91 0.005948
87 0.005956
96 0.006943
106 0.006977
119 0.005984
130 0.003996
138 0.005017
144 0.007955
149 0.007979
158 0.007991
170 0.006983
178 0.005948
185 0.005989
192 0.005949
200 0.006989
205 0.006994
210 0.004982
214 0.00503
210 0.00499
123 0.006981
84 0.006954
80 0.007974
87 0.007984
97 0.005986
108 0.005984
119 0.005951
129 0.006987
134 0.006965
139 0.006007
149 0.005991
155 0.005993
166 0.006973
174 0.006946
186 0.006958
192 0.005976
199 0.00601
202 0.00595
205 0.006027
168 0.006993
101 0.006939
80 0.00495
81 0.004989
90 0.005988
105 0.00698
118 0.006023
134 0.005977
140 0.006992
