87 0.031897
87 0.0
88 0.001004
84 0.002009
73 0.002955
73 0.002816
75 0.002959
77 0.002949
77 0.002968
76 0.002993
75 0.002965
75 0.003994
76 0.003989
77 0.004952
78 0.00503
79 0.00499
80 0.007014
80 0.007979
78 0.007979
71 0.007978
68 0.007966
70 0.005973
72 0.006983
75 0.00602
75 0.006983
74 0.005984
78 0.005984
83 0.005984
99 0.004997
113 0.004987
123 0.00504
139 0.003996
149 0.004013
164 0.003996
169 0.003998
172 0.003032
180 0.00399
190 0.003989
194 0.00399
195 0.001034
188 0.001994
172 0.000997
155 0.0
141 0.0
118 0.000998
101 0.000998
93 0.000964
83 0.00196
76 0.002025
69 0.003953
52 0.004988
47 0.005974
47 0.005974
51 0.005814
55 0.005984
60 0.006986
67 0.006982
73 0.006985
81 0.006981
87 0.007021
91 0.006981
97 0.007021
99 0.007022
100 0.006982
91 0.006017
83 0.006982
82 0.005984
86 0.005024
88 0.004987
77 0.005013
65 0.005024
52 0.004946
48 0.006983
47 0.005021
49 0.004987
51 0.003984
54 0.003974
56 0.005029
60 0.003028
59 0.002992
68 0.001995
83 0.001995
102 0.002035
112 0.001042
122 0.000997
130 0.001043
138 0.000998
146 0.001012
157 0.0
163 0.0
171 0.0
177 0.000997
179 0.000998
174 0.000998
164 0.000998
137 0.001997
119 0.001956
113 0.002993
108 0.003995
99 0.004033
96 0.003979
95 0.003989
95 0.003989
96 0.00399
96 0.00395
96 0.004033
102 0.004976
99 0.006009
97 0.006024
83 0.005996
78 0.005993
67 0.006033
73 0.00703
81 0.006971
90 0.006982
99 0.00698
99 0.007004
97 0.00698
102 0.006939
108 0.007013
96 0.007966
89 0.00695
81 0.006981
85 0.006982
85 0.006981
86 0.007011
81 0.00699
72 0.007023
73 0.004998
75 0.005955
79 0.004038
81 0.003989
81 0.00399
81 0.002992
82 0.002026
84 0.002027
84 0.000992
86 0.001008
89 0.001017
91 0.001037
92 0.001003
85 0.001996
81 0.001007
82 0.000997
83 0.000998
85 0.000998
86 0.000998
86 0.001
84 0.000968
85 0.000998
88 0.000968
89 0.000994
90 0.002026
91 0.001983
90 0.001987
84 0.001961
81 0.001956
83 0.001995
83 0.001995
85 0.001964
85 0.001963
84 0.001962
84 0.002992
85 0.002993
87 0.003002
89 0.00399
0 0.00399
0 0.004023
0 0.004009
0 0.004999
0 0.00502
0 0.004976
0 0.004764
0 0.00598
0 0.006027
0 0.006011
2 0.006023
7 0.006004
14 0.006019
18 0.006038
25 0.007018
30 0.006986
19 0.007032
0 0.007001
0 0.006982
0 0.006968
10 0.006938
15 0.007028
18 0.007012
20 0.005967
22 0.006981
28 0.006982
34 0.006944
41 0.005993
50 0.005028
56 0.005991
64 0.005028
56 0.003971
34 0.003978
28 0.00401
34 0.004032
46 0.001995
47 0.002004
44 0.001037
43 0.000988
46 0.001162
52 0.001041
57 0.001002
64 0.0
70 0.001006
78 0.0
82 0.0
88 0.0
73 0.0
49 0.0
55 0.0
64 0.0
72 0.0
81 0.000988
83 0.000997
88 0.000983
92 0.00203
102 0.002993
113 0.004009
119 0.005019
128 0.00497
133 0.005027
134 0.004918
133 0.005019
110 0.005025
80 0.006028
94 0.005984
103 0.006024
110 0.005994
111 0.006033
113 0.008049
111 0.006943
114 0.006989
122 0.007015
130 0.006998
138 0.006973
145 0.005998
149 0.005973
153 0.005973
160 0.004994
163 0.005023
154 0.004986
112 0.004033
106 0.002988
116 0.002003
124 0.002002
129 0.00199
132 0.001994
133 0.002035
135 0.001973
137 0.001995
141 0.001001
148 0.000997
153 0.0
153 0.000986
156 0.0
159 0.0
164 0.0
165 0.00303
162 0.003038
161 0.002954
161 0.002991
156 0.003023
115 0.002994
99 0.004023
104 0.003034
112 0.00402
118 0.00403
117 0.004
109 0.003992
105 0.004989
108 0.00499
112 0.006017
121 0.007024
125 0.007979
132 0.007977
137 0.007952
144 0.007938
148 0.007979
154 0.007912
160 0.006988
162 0.007978
164 0.004993
196 0.005032
161 0.005027
100 0.003972
95 0.004029
116 0.002998
131 0.003023
133 0.003974
124 0.002988
120 0.003031
120 0.00302
128 0.003034
136 0.002994
143 0.003033
151 0.00304
156 0.003033
160 0.002009
162 0.002005
167 0.001038
172 0.001
172 0.00101
123 0.0
81 0.0
84 0.000999
100 0.000963
114 0.002026
120 0.001983
111 0.002009
106 0.002047
105 0.002025
111 0.002025
116 0.002031
125 0.001995
128 0.002035
134 0.00399
136 0.005984
139 0.00699
137 0.007018
66 0.007014
39 0.006867
39 0.007018
52 0.00695
60 0.007018
64 0.006967
57 0.007019
38 0.00695
38 0.006972
41 0.007013
51 0.005
63 0.005029
67 0.005019
74 0.005032
82 0.004989
85 0.004992
33 0.006029
4 0.004992
11 0.00501
32 0.004031
44 0.004032
54 0.001997
49 0.001022
49 0.002006
53 0.000978
62 0.002037
74 0.000999
87 0.001042
91 0.001002
102 0.000978
106 0.0
116 0.0
73 0.0
37 0.0
33 0.0
49 0.0
56 0.0
63 0.0
53 0.000997
46 0.000998
48 0.000999
53 0.00103
70 0.002011
100 0.00281
123 0.002992
160 0.002994
166 0.002992
216 0.003023
255 0.002989
244 0.002991
201 0.004023
198 0.002993
208 0.002993
225 0.003991
235 0.003991
238 0.005958
245 0.005985
247 0.007965
255 0.007924
255 0.007025
255 0.005971
255 0.007031
255 0.006015
255 0.007021
255 0.006021
255 0.006018
255 0.006028
255 0.004986
255 0.004987
255 0.004028
255 0.004015
255 0.003004
254 0.003027
255 0.003037
255 0.003056
202 0.001039
202 0.0
203 0.0
204 0.0
197 0.0
205 0.0
186 0.000997
162 0.000997
155 0.00203
110 0.001998
73 0.00302
69 0.002992
69 0.002995
69 0.003024
68 0.002992
64 0.003037
61 0.004038
59 0.005021
60 0.005032
61 0.005971
62 0.005937
65 0.006018
67 0.007022
73 0.007013
72 0.006976
55 0.006865
50 0.007023
48 0.006974
46 0.006982
49 0.007013
52 0.007979
51 0.007964
46 0.007938
49 0.006999
52 0.007978
53 0.006003
57 0.006982
62 0.006017
64 0.006981
66 0.006017
69 0.006028
65 0.005027
128 0.004034
127 0.003992
127 0.004027
127 0.004031
127 0.003035
127 0.003041
127 0.00403
127 0.00303
127 0.004153
127 0.002032
127 0.001995
127 0.002993
127 0.001995
128 0.001995
130 0.000967
132 0.000987
127 0.000959
109 0.001035
103 0.0
103 0.001021
102 0.000961
107 0.0
109 0.0
109 0.000998
108 0.000997
109 0.000997
108 0.001014
111 0.000983
112 0.000997
115 0.000997
116 0.001
117 0.001
119 0.00196
121 0.001827
115 0.002962
95 0.003956
92 0.004991
99 0.004994
112 0.004943
122 0.005
132 0.005026
138 0.005984
149 0.006974
162 0.00701
172 0.006982
184 0.006989
180 0.007037
169 0.006968
148 0.006981
140 0.006964
132 0.006994
132 0.007975
133 0.00701
121 0.007011
112 0.006975
111 0.006954
115 0.007982
117 0.007011
121 0.00798
118 0.006027
114 0.007024
114 0.006015
116 0.007015
121 0.006017
127 0.00603
131 0.005022
140 0.004016
145 0.004037
146 0.004023
148 0.004022
147 0.004025
118 0.004022
107 0.005023
113 0.00399
119 0.004986
122 0.004023
126 0.003023
126 0.002985
124 0.002992
125 0.003028
132 0.002037
135 0.002992
141 0.002037
145 0.002992
147 0.001003
151 0.001011
153 0.001042
135 0.002004
118 0.000997
115 0.0
124 0.0
127 0.0
138 0.0
138 0.0
137 0.0
135 0.000997
134 0.000998
138 0.000998
143 0.000998
141 0.000997
145 0.000997
151 0.000997
145 0.000997
137 0.001996
115 0.002992
101 0.003002
108 0.003002
112 0.003988
116 0.004032
117 0.003987
116 0.003987
116 0.004022
118 0.004032
121 0.003995
128 0.003995
129 0.005004
130 0.005
132 0.005007
134 0.004986
136 0.004985
137 0.004987
94 0.00498
56 0.006014
75 0.005984
122 0.005983
154 0.00595
201 0.005996
209 0.005971
207 0.006996
196 0.006977
193 0.006991
254 0.007027
254 0.006889
254 0.006989
254 0.007014
225 0.007013
210 0.007007
222 0.007024
239 0.00699
235 0.007022
203 0.007992
191 0.006985
174 0.006981
180 0.007014
211 0.007014
227 0.005984
52 0.005984
209 0.006023
187 0.005954
181 0.006984
182 0.005026
187 0.005983
193 0.004014
193 0.004032
193 0.004025
187 0.003994
180 0.003012
174 0.003171
147 0.002026
137 0.002013
133 0.002036
132 0.002995
130 0.002036
128 0.002992
122 0.002024
118 0.003035
116 0.001036
116 0.001031
117 0.001008
118 0.000967
118 0.000992
119 0.0
118 0.001029
119 0.000999
120 0.001996
119 0.001998
102 0.001995
93 0.002952
95 0.002986
99 0.002993
100 0.004007
99 0.003993
94 0.00399
91 0.003984
91 0.003989
92 0.003994
94 0.003994
95 0.004035
96 0.003991
96 0.004003
97 0.004986
98 0.005982
98 0.005977
80 0.007011
77 0.006982
80 0.006971
83 0.00701
86 0.006972
87 0.00701
86 0.006981
85 0.006972
87 0.007012
89 0.007014
93 0.006972
94 0.006975
98 0.005982
100 0.006982
102 0.005981
103 0.007012
107 0.00602
107 0.006981
90 0.006972
86 0.006982
89 0.007013
94 0.005985
95 0.006979
97 0.005011
96 0.006015
96 0.004996
98 0.00502
101 0.005018
105 0.005015
107 0.004983
110 0.003982
113 0.004029
115 0.004028
117 0.003987
119 0.004029
121 0.002042
124 0.001995
127 0.000997
127 0.000992
74 0.000997
61 0.000997
72 0.001028
83 0.0
89 0.000997
90 0.0
88 0.001952
85 0.000998
89 0.0
96 0.0
103 0.002003
108 0.002039
111 0.001995
116 0.001952
118 0.001873
122 0.001995
128 0.001957
132 0.001963
138 0.001995
144 0.003008
149 0.003011
153 0.002975
127 0.003995
93 0.002992
93 0.003897
101 0.003996
110 0.003988
115 0.004992
111 0.004988
106 0.005018
107 0.006017
113 0.006016
123 0.006025
126 0.006024
133 0.006024
137 0.007023
140 0.007
143 0.007019
144 0.007021
148 0.006986
151 0.007016
155 0.006031
158 0.006981
126 0.007016
103 0.007979
100 0.006975
107 0.006974
119 0.007947
126 0.00498
123 0.006096
110 0.004995
108 0.005986
114 0.00499
126 0.004989
132 0.004996
141 0.00499
146 0.004967
150 0.004963
152 0.003983
155 0.003987
160 0.003029
160 0.003992
112 0.001978
77 0.002983
76 0.002009
89 0.002997
99 0.002993
106 0.002981
99 0.002991
90 0.000972
92 0.001995
101 0.000998
106 0.002041
114 0.000996
122 0.001002
125 0.000991
129 0.0
135 0.000996
138 0.000993
107 0.00101
67 0.000998
51 0.000996
67 0.000998
73 0.000998
82 0.000977
82 0.001007
74 0.000997
74 0.000998
79 0.001995
87 0.001991
99 0.002027
106 0.001995
114 0.001004
119 0.001998
123 0.001966
132 0.001991
135 0.001962
92 0.001964
57 0.00197
54 0.001996
69 0.001994
76 0.003027
83 0.004016
80 0.004021
76 0.004022
80 0.004038
84 0.00403
98 0.003991
109 0.004985
116 0.004954
123 0.005032
130 0.005032
135 0.005023
141 0.006016
148 0.006017
157 0.006024
167 0.007019
146 0.007009
76 0.007014
69 0.007018
85 0.006982
95 0.007013
100 0.006981
99 0.006981
95 0.007978
90 0.006982
97 0.004988
103 0.004987
112 0.006017
123 0.005983
129 0.004984
132 0.006018
138 0.004994
142 0.005985
152 0.005998
157 0.005985
165 0.005984
170 0.005027
176 0.005979
133 0.005021
89 0.004987
76 0.002993
93 0.002998
102 0.002998
109 0.000993
100 0.000964
96 0.000996
95 0.001992
103 0.000983
111 0.002029
120 0.001995
125 0.002032
133 0.002005
138 0.0
143 0.0
148 0.0
153 0.001029
162 0.0
166 0.0
133 0.0
71 0.0
73 0.0
93 0.000998
107 0.0
115 0.0
115 0.0
114 0.000997
120 0.001996
137 0.001991
145 0.002993
170 0.003023
183 0.001994
191 0.002991
195 0.002859
194 0.00399
207 0.004015
212 0.004029
163 0.004031
94 0.00399
116 0.003997
144 0.004988
156 0.005028
162 0.004988
177 0.005038
164 0.005984
155 0.009973
164 0.006027
178 0.006031
189 0.005986
206 0.006983
210 0.007012
215 0.006938
227 0.007012
111 0.006975
237 0.006983
236 0.00797
193 0.007023
92 0.007978
63 0.007118
80 0.007977
99 0.007978
104 0.007989
106 0.007017
78 0.006985
40 0.006981
50 0.006018
56 0.005957
76 0.006026
124 0.00499
167 0.004981
193 0.003984
195 0.003974
224 0.003979
243 0.005021
237 0.004002
242 0.00503
255 0.004025
255 0.004975
181 0.005028
168 0.005023
174 0.005021
187 0.002992
195 0.003992
180 0.003039
164 0.003989
141 0.002991
128 0.00301
127 0.003
128 0.002974
134 0.003025
148 0.002994
159 0.003038
166 0.003027
182 0.001988
196 0.00203
217 0.003034
236 0.002024
198 0.000984
189 0.002025
153 0.002022
150 0.002035
160 0.002028
162 0.000997
163 0.001995
147 0.001048
135 0.001991
135 0.001
138 0.00204
148 0.0
157 0.000965
161 0.000997
169 0.0
169 0.0
169 0.0
173 0.000997
174 0.000997
172 0.000987
177 0.002009
158 0.002031
118 0.001995
117 0.002029
122 0.002045
127 0.001962
130 0.002999
125 0.003024
120 0.001965
122 0.003027
124 0.002029
129 0.002992
135 0.003026
142 0.002993
145 0.002995
150 0.003025
155 0.003961
158 0.003993
163 0.003995
148 0.003989
104 0.004032
101 0.004985
107 0.004996
113 0.005023
114 0.005983
111 0.005967
104 0.005879
100 0.005984
103 0.00703
107 0.006973
110 0.006972
104 0.006983
107 0.007019
108 0.006947
105 0.006952
110 0.006942
113 0.006983
69 0.007001
22 0.007006
5 0.007019
16 0.007023
22 0.007021
34 0.006024
37 0.006019
33 0.005967
37 0.005963
52 0.005987
68 0.006015
85 0.005017
101 0.005007
119 0.004986
129 0.004987
144 0.00502
152 0.004012
170 0.005031
152 0.002959
102 0.003989
68 0.003026
81 0.001964
85 0.001986
96 0.000998
97 0.001024
91 0.00095
80 0.001015
82 0.0
94 0.0
105 0.002027
115 0.000997
114 0.000997
115 0.0
108 0.001041
100 0.0
108 0.000994
118 0.001997
99 0.001997
43 0.002992
3 0.002992
65 0.004049
75 0.003975
83 0.004023
85 0.004026
90 0.003976
89 0.004026
85 0.004029
95 0.00394
103 0.003949
102 0.005023
103 0.004024
102 0.005027
102 0.006
105 0.006019
110 0.006025
118 0.005973
100 0.005976
74 0.006019
73 0.005963
79 0.005995
88 0.005988
96 0.005981
98 0.006028
95 0.006982
96 0.007973
99 0.007006
106 0.00699
110 0.006983
109 0.007021
108 0.006987
112 0.007024
116 0.006022
119 0.005988
123 0.006018
112 0.006019
75 0.005022
77 0.006025
95 0.003987
103 0.005038
101 0.005023
100 0.005016
90 0.005021
87 0.004988
94 0.004987
103 0.003992
112 0.005017
125 0.003024
132 0.002208
134 0.001994
139 0.002042
152 0.002049
167 0.001995
132 0.001026
87 0.001013
70 0.001038
88 0.00098
117 0.001001
129 0.001995
138 0.000997
143 0.001995
150 0.00103
158 0.000997
179 0.000998
194 0.001012
217 0.000998
235 0.000997
189 0.000998
193 0.000997
198 0.002003
202 0.002995
207 0.002992
210 0.002979
190 0.002993
137 0.002979
131 0.00304
142 0.002993
153 0.002989
158 0.003004
157 0.00403
156 0.004028
155 0.003887
158 0.004026
158 0.004025
158 0.003987
158 0.00399
156 0.004035
131 0.003987
106 0.004025
97 0.00399
93 0.004026
94 0.004026
104 0.004988
112 0.004981
105 0.006015
49 0.005981
40 0.005982
50 0.005989
62 0.005996
81 0.005984
71 0.005969
68 0.005987
64 0.006018
67 0.005985
76 0.00701
85 0.007978
96 0.006985
107 0.007979
119 0.007016
124 0.00695
132 0.00698
142 0.005984
148 0.006982
163 0.00598
167 0.007163
133 0.006008
117 0.005026
123 0.00495
140 0.004994
151 0.004985
166 0.004996
167 0.004987
166 0.004989
170 0.004043
178 0.004982
186 0.004031
198 0.004983
209 0.002988
218 0.003029
226 0.000964
171 0.0
239 0.0
241 0.001002
211 0.000994
183 0.001996
185 0.001995
190 0.002044
199 0.001989
204 0.001868
179 0.001996
125 0.002986
123 0.003994
124 0.003989
133 0.003985
132 0.003987
95 0.003972
72 0.003983
62 0.004019
68 0.003983
76 0.003992
86 0.004022
65 0.004022
47 0.005027
55 0.007019
66 0.007021
78 0.007015
91 0.006985
93 0.006994
94 0.007017
98 0.005987
101 0.006014
109 0.004973
118 0.004021
121 0.00402
128 0.004031
129 0.003022
134 0.002992
139 0.004029
142 0.002989
135 0.003994
103 0.002991
89 0.00403
97 0.002992
105 0.003024
112 0.00299
113 0.000998
113 0.000997
113 0.0
113 0.0
115 0.0
119 0.0
121 0.0
124 0.0
130 0.0
132 0.0
138 0.0
141 0.0
152 0.000997
161 0.001986
143 0.00196
114 0.002034
119 0.001951
125 0.002002
142 0.002847
150 0.003036
147 0.002992
131 0.003989
127 0.004007
119 0.004016
119 0.003951
116 0.00399
118 0.004023
120 0.003988
123 0.004023
127 0.003994
132 0.005004
138 0.005018
129 0.005036
80 0.005014
78 0.005019
91 0.004987
113 0.005024
127 0.006014
127 0.006019
119 0.006019
120 0.006017
128 0.006022
142 0.006904
152 0.007014
169 0.006988
177 0.007018
185 0.007013
180 0.006942
176 0.006939
159 0.006985
108 0.006972
63 0.00701
66 0.006976
71 0.00699
81 0.00598
89 0.006021
85 0.005977
80 0.005994
83 0.005987
98 0.005977
111 0.006982
125 0.005981
135 0.006984
148 0.005989
155 0.005988
162 0.004987
138 0.004986
86 0.004973
87 0.00303
97 0.00399
109 0.001999
116 0.000988
113 0.000997
113 0.001
113 0.00098
125 0.001003
136 0.0
143 0.0
151 0.0
160 0.001005
167 0.000967
177 0.002001
190 0.0
150 0.001015
117 0.0
124 0.0
144 0.000977
150 0.000845
153 0.000998
145 0.001002
136 0.001026
133 0.000998
141 0.000979
150 0.001003
157 0.000989
163 0.000985
170 0.002006
175 0.001985
179 0.002016
188 0.002001
194 0.001995
201 0.001988
145 0.002993
130 0.003011
148 0.002992
160 0.003039
173 0.002992
183 0.002992
186 0.00399
190 0.004004
202 0.004028
211 0.00399
229 0.003901
238 0.00399
251 0.00398
255 0.003991
255 0.004023
255 0.003989
255 0.004031
255 0.003991
251 0.003992
248 0.003964
201 0.004995
174 0.006026
178 0.006019
193 0.006026
197 0.006016
200 0.006029
195 0.006043
193 0.007025
198 0.007978
209 0.007975
223 0.006999
246 0.006982
250 0.004987
236 0.005023
206 0.003993
201 0.005022
199 0.003995
199 0.003033
198 0.003025
184 0.002967
181 0.001997
171 0.001994
125 0.001988
121 0.002038
142 0.001999
155 0.003989
165 0.003032
164 0.004
157 0.001993
152 0.00298
155 0.003025
156 0.003025
162 0.003023
166 0.001028
164 0.001995
158 0.0
149 0.001994
143 0.002021
155 0.001021
167 0.000998
163 0.0
129 0.0
124 0.000998
155 0.000968
172 0.002016
174 0.002992
141 0.002993
99 0.003032
74 0.002988
72 0.002992
81 0.003025
85 0.002993
89 0.002992
95 0.005034
102 0.006005
104 0.006016
109 0.007948
107 0.006959
80 0.007944
53 0.00597
83 0.005986
97 0.004034
98 0.005026
99 0.003998
103 0.002024
105 0.002021
109 0.002049
124 0.001988
138 0.003022
137 0.002008
140 0.001032
143 0.000999
144 0.001026
137 0.00105
117 0.001047
77 0.000992
81 0.0
85 0.001003
80 0.0
77 0.0
72 0.000992
62 0.0
62 0.0
69 0.001029
83 0.000997
91 0.002003
106 0.001995
119 0.001963
127 0.002026
141 0.001869
151 0.001995
145 0.003032
99 0.001996
98 0.001996
114 0.002991
117 0.001998
115 0.002991
115 0.003991
112 0.00399
110 0.004032
117 0.005026
120 0.005031
124 0.005022
127 0.006972
127 0.006971
128 0.006975
130 0.007977
132 0.006014
136 0.00598
139 0.004993
129 0.004994
71 0.005976
58 0.003968
76 0.005984
86 0.005103
97 0.005978
103 0.005027
99 0.005027
100 0.004987
111 0.002027
121 0.005025
132 0.003028
136 0.004029
129 0.002011
100 0.001965
79 0.001994
59 0.0
58 0.001012
64 0.0
81 0.0
96 0.000997
105 0.001033
71 0.000997
72 0.000998
108 0.000999
134 0.0
149 0.001005
159 0.001997
149 0.000997
125 0.001032
120 0.002004
130 0.002008
139 0.002029
144 0.001995
153 0.001937
158 0.002042
168 0.003045
196 0.004016
212 0.003024
218 0.002992
241 0.003997
255 0.003991
244 0.004994
153 0.006021
131 0.005972
142 0.005969
149 0.006163
157 0.004988
160 0.00603
154 0.006979
149 0.004993
141 0.007022
98 0.004971
74 0.007019
91 0.007014
105 0.005985
134 0.005018
163 0.003991
180 0.004987
204 0.004035
218 0.004987
226 0.00303
185 0.004008
176 0.002994
198 0.003021
228 0.004019
237 0.002035
185 0.003025
179 0.000992
179 0.003003
179 0.001983
178 0.003023
178 0.001995
178 0.001995
171 0.002005
165 0.001994
164 0.002
170 0.002013
181 0.0
184 0.0
148 0.0
131 0.0
122 0.000982
113 0.0
110 0.0
108 0.0
99 0.0
86 0.0
81 0.0
79 0.000999
80 0.002033
80 0.002031
80 0.001996
80 0.002044
77 0.002036
79 0.001996
81 0.002064
73 0.001998
49 0.001966
41 0.001959
45 0.002995
51 0.003025
53 0.002959
55 0.002895
54 0.003024
54 0.002993
58 0.002978
62 0.003022
68 0.002992
74 0.003038
76 0.004047
77 0.002994
81 0.005024
82 0.00602
86 0.005977
89 0.006976
87 0.006979
62 0.006979
51 0.006965
57 0.006984
67 0.006983
69 0.007028
73 0.006973
71 0.006949
71 0.007019
72 0.00698
75 0.007971
81 0.006978
84 0.007979
88 0.00699
95 0.00703
97 0.005983
99 0.006156
103 0.007023
106 0.005997
110 0.007015
114 0.006014
116 0.007012
121 0.007025
124 0.007021
128 0.006982
125 0.006981
118 0.000998
97 0.0
102 0.003027
100 0.003033
94 0.001993
94 0.002031
99 0.00199
104 0.001982
109 0.001965
115 0.001978
117 0.002001
121 0.001985
124 0.003029
125 0.001987
129 0.003037
133 0.002992
134 0.003024
138 0.003044
142 0.00303
143 0.003035
111 0.001019
89 0.003117
96 0.001014
104 0.001995
112 0.0
117 0.0
113 0.00097
107 0.000999
110 0.0
114 0.0
121 0.000997
129 0.001995
132 0.001995
133 0.001963
134 0.010037
135 0.001995
139 0.004029
142 0.002994
145 0.003983
145 0.00502
147 0.004882
116 0.005983
87 0.005984
88 0.005987
99 0.006019
106 0.006015
112 0.005984
103 0.006027
97 0.00602
96 0.005989
99 0.00698
105 0.006992
108 0.006985
109 0.006987
109 0.006981
107 0.006984
106 0.007019
108 0.00798
109 0.00698
113 0.007931
110 0.006982
86 0.006981
59 0.007032
60 0.007034
70 0.005982
79 0.003989
82 0.00503
75 0.004022
71 0.003988
74 0.003991
80 0.004171
69 0.003987
79 0.003025
86 0.003024
90 0.002989
93 0.001997
94 0.002
103 0.00199
112 0.003031
84 0.001001
41 0.001997
36 0.001032
44 0.000998
57 0.001026
62 0.001002
54 0.0
47 0.0
47 0.0
51 0.0
62 0.0
69 0.0
79 0.000998
83 0.000998
86 0.000998
93 0.000986
97 0.002001
99 0.001996
44 0.001982
22 0.001983
31 0.001996
40 0.001995
46 0.002017
50 0.002952
48 0.002961
45 0.002992
47 0.002992
57 0.003001
68 0.002992
78 0.002874
87 0.002993
94 0.003022
98 0.003994
103 0.004026
109 0.004023
119 0.003964
127 0.004029
135 0.004025
143 0.004985
145 0.005005
154 0.0049
158 0.004985
159 0.006017
92 0.006977
52 0.00701
57 0.006977
70 0.007979
80 0.006976
83 0.006984
79 0.007015
73 0.007014
74 0.005977
84 0.004989
91 0.005982
106 0.004991
113 0.006043
121 0.004988
127 0.00503
133 0.003973
139 0.003988
145 0.003991
150 0.003
158 0.002994
160 0.002994
169 0.002993
173 0.00399
122 0.002995
77 0.002992
80 0.003024
92 0.003027
108 0.002993
112 0.002992
107 0.002991
99 0.0
98 0.00203
107 0.0
118 0.000998
125 0.002997
132 0.002994
139 0.003002
139 0.00298
143 0.002992
145 0.002992
149 0.002992
159 0.003034
165 0.002996
170 0.002993
173 0.003985
116 0.00401
72 0.003994
70 0.011968
94 0.004003
104 0.005031
109 0.005016
108 0.005022
98 0.00598
99 0.005964
108 0.005909
112 0.006016
124 0.006981
134 0.006983
135 0.007947
142 0.006984
145 0.007979
148 0.00698
157 0.006985
162 0.005977
170 0.006006
175 0.005985
131 0.005988
82 0.005978
82 0.005982
101 0.005968
114 0.007022
121 0.00598
117 0.006985
108 0.00698
107 0.006955
118 0.004979
127 0.006982
142 0.004976
150 0.006984
157 0.003999
163 0.003994
166 0.003992
173 0.003992
185 0.003989
188 0.00299
196 0.003204
155 0.002
103 0.0
97 0.001993
117 0.000998
126 0.001996
138 0.002005
135 0.001996
129 0.001993
130 0.001987
141 0.001865
153 0.001988
166 0.002042
178 0.002003
189 0.002003
191 0.002029
192 0.001994
195 0.002003
197 0.002001
172 0.001998
118 0.002005
77 0.002992
85 0.005024
93 0.00602
103 0.006977
104 0.005977
101 0.006981
94 0.005985
102 0.007841
113 0.005984
128 0.007981
137 0.005983
145 0.007981
152 0.006981
155 0.006982
162 0.004983
171 0.003983
165 0.004974
90 0.003995
66 0.004987
78 0.002982
82 0.00299
87 0.002996
91 0.001999
81 0.001985
79 0.002004
86 0.002009
93 0.002026
106 0.001995
116 0.001999
119 0.0
121 0.0
126 0.0
131 0.001996
136 0.000682
147 0.001961
152 0.001996
160 0.003029
118 0.002996
47 0.002973
52 0.002992
64 0.003024
71 0.00301
77 0.004984
75 0.004988
69 0.005022
71 0.004998
83 0.005017
98 0.006018
102 0.006977
111 0.006986
119 0.007031
121 0.006977
128 0.007944
134 0.006979
140 0.007944
150 0.006981
154 0.006984
162 0.006981
171 0.00497
135 0.006976
55 0.004984
49 0.007012
67 0.003988
83 0.003988
88 0.003989
86 0.003988
82 0.003991
83 0.002969
100 0.003991
112 0.004034
128 0.002982
141 0.003991
148 0.001993
148 0.003022
155 0.001995
157 0.000982
161 0.000998
168 0.000965
175 0.000963
179 0.000998
189 0.00099
158 0.000963
91 0.000995
88 0.000995
112 0.001003
125 0.001995
137 0.002028
134 0.001861
125 0.001994
112 0.002994
124 0.003004
131 0.003031
146 0.003958
156 0.00399
169 0.003988
176 0.004022
179 0.004025
186 0.003991
189 0.003928
198 0.003937
209 0.003991
212 0.003992
149 0.004021
101 0.003846
103 0.004949
123 0.005023
132 0.003996
138 0.005035
130 0.005025
120 0.006017
119 0.006018
130 0.005976
135 0.005986
146 0.005967
154 0.005981
164 0.005955
173 0.007945
179 0.005972
186 0.007979
192 0.005986
196 0.007124
136 0.007017
88 0.007016
75 0.006975
96 0.006019
109 0.006981
128 0.004005
129 0.005987
116 0.003978
117 0.003986
124 0.003986
139 0.003976
153 0.001987
160 0.002979
177 0.001962
179 0.002005
178 0.001083
179 0.003024
182 0.0
159 0.002039
84 0.002029
71 0.0
87 0.000968
100 0.001995
113 0.002994
114 0.002988
106 0.00299
101 0.002947
111 0.003033
120 0.003045
132 0.004021
146 0.005043
151 0.006023
159 0.006027
165 0.005982
172 0.005982
184 0.006966
170 0.007184
87 0.00698
81 0.006973
92 0.006978
112 0.00602
121 0.00698
128 0.007982
118 0.007978
114 0.007979
124 0.007984
134 0.005966
141 0.007981
156 0.00599
163 0.008016
172 0.004991
183 0.004016
188 0.00399
198 0.001939
205 0.002987
165 0.002015
98 0.001985
99 0.001995
116 0.0
129 0.002044
136 0.0
134 0.002992
121 0.002043
117 0.002024
122 0.002044
127 0.001033
129 0.001997
134 0.001995
137 0.001997
137 0.000986
143 0.00204
146 0.003025
156 0.003032
167 0.003964
172 0.003991
177 0.003844
181 0.004023
189 0.003947
159 0.005019
98 0.005985
57 0.005976
78 0.006972
95 0.005974
112 0.006951
115 0.007971
108 0.007013
100 0.007977
105 0.00599
118 0.007022
135 0.007024
144 0.007012
157 0.006016
170 0.003993
174 0.006019
178 0.003037
184 0.004968
194 0.003983
199 0.002973
205 0.002035
212 0.001998
208 0.002008
155 0.002006
79 0.001995
72 0.0
86 0.0
92 0.002029
98 0.000976
89 0.00101
72 0.000999
69 0.0
73 0.00205
86 0.002027
92 0.001742
98 0.003004
104 0.002027
109 0.001996
108 0.003988
113 0.004044
121 0.003957
126 0.003994
138 0.004022
121 0.003955
70 0.004977
28 0.006015
40 0.005984
54 0.006008
71 0.005991
75 0.005983
67 0.006018
57 0.005949
64 0.006983
77 0.006986
87 0.00798
97 0.007976
108 0.00698
113 0.007983
119 0.008
126 0.005981
131 0.007975
141 0.005972
146 0.007986
93 0.005992
49 0.005986
51 0.006003
71 0.005954
93 0.005981
100 0.005984
94 0.005972
87 0.005984
91 0.004992
104 0.006022
117 0.004012
133 0.00602
143 0.00402
149 0.006022
154 0.006016
159 0.005022
169 0.004027
171 0.002021
130 0.004023
74 0.001995
81 0.0
92 0.0
112 0.0
120 0.0
114 0.0
112 0.0
116 0.0
128 0.0
142 0.002042
155 0.0
162 0.002025
170 0.0
177 0.002039
182 0.002043
186 0.0
132 0.0
71 0.001952
63 0.002001
76 0.004032
84 0.004051
95 0.003974
92 0.003979
84 0.004004
81 0.00394
89 0.004981
99 0.004982
116 0.005029
124 0.004987
134 0.004982
137 0.005984
145 0.005956
155 0.006983
128 0.00599
76 0.006949
43 0.005984
57 0.004989
68 0.004987
82 0.005986
90 0.004994
88 0.004987
89 0.002992
93 0.004988
113 0.001992
130 0.002014
138 0.002
151 0.001997
157 0.003007
166 0.001996
176 0.00102
183 0.001041
195 0.001027
203 0.000985
216 0.002014
226 0.002027
237 0.0
244 0.002027
254 0.0
253 0.0
161 0.000998
124 0.000966
134 0.001994
137 0.002028
131 0.002032
119 0.003027
94 0.002992
88 0.003014
96 0.002992
97 0.003
107 0.002996
121 0.003984
124 0.004013
128 0.003996
126 0.003954
131 0.003958
135 0.00498
141 0.005999
146 0.005986
154 0.006986
160 0.00699
166 0.00698
152 0.007985
109 0.007988
86 0.007976
102 0.004961
112 0.006982
123 0.004955
129 0.00704
123 0.003978
119 0.00499
125 0.003964
138 0.004002
152 0.003993
158 0.003991
165 0.002958
169 0.003991
176 0.001994
184 0.004023
187 0.001994
191 0.003029
200 0.001979
210 0.002031
209 0.00103
208 0.0
178 0.0
143 0.0
146 0.000995
162 0.000997
175 0.000958
179 0.000963
175 0.000997
167 0.000998
166 0.002026
173 0.003
177 0.002991
185 0.004015
192 0.005006
193 0.004975
194 0.00498
196 0.005866
198 0.00597
205 0.005981
206 0.005994
207 0.006999
206 0.007979
167 0.00599
141 0.007976
155 0.007009
163 0.007979
175 0.007976
175 0.007979
169 0.006967
160 0.004989
160 0.006016
166 0.004989
173 0.003984
178 0.003985
182 0.004002
184 0.003986
185 0.003995
187 0.003993
189 0.003989
188 0.004012
161 0.003986
129 0.004178
138 0.004987
148 0.003981
157 0.005018
163 0.002032
154 0.003988
139 0.001993
138 0.003995
142 0.001985
150 0.002095
154 0.001963
156 0.001999
158 0.000997
159 0.00198
159 0.000994
152 0.0
114 0.0
98 0.0
106 0.002004
118 0.002006
123 0.002995
124 0.002992
119 0.003953
117 0.00299
118 0.002994
123 0.003986
130 0.004996
135 0.005004
137 0.004959
139 0.006015
141 0.005984
135 0.005993
101 0.005982
51 0.006977
50 0.006961
71 0.006984
80 0.006975
84 0.006984
85 0.006987
78 0.004986
79 0.005979
86 0.002992
97 0.003986
104 0.00199
111 0.004026
117 0.00201
118 0.003993
123 0.002957
126 0.002986
132 0.002989
133 0.001963
93 0.002004
50 0.000994
59 0.001993
83 0.0
92 0.0
94 0.0
85 0.0
82 0.0
85 0.0
93 0.0
100 0.002004
110 0.002012
117 0.002992
121 0.002993
127 0.003007
132 0.002828
135 0.002996
141 0.003994
145 0.003989
152 0.003995
158 0.00499
161 0.006019
164 0.007979
98 0.005937
67 0.006983
76 0.00498
98 0.003988
104 0.003988
108 0.002987
94 0.003983
88 0.002996
90 0.002991
97 0.002995
108 0.001995
115 0.003983
122 0.001996
126 0.003976
130 0.002198
132 0.002987
138 0.001969
140 0.002
145 0.001995
151 0.0
154 0.002001
156 0.0
102 0.0
64 0.0
66 0.0
79 0.0
94 0.0
100 0.0
96 0.001971
82 0.002994
81 0.003954
86 0.003989
97 0.004021
105 0.005042
109 0.005022
114 0.004979
116 0.004984
119 0.004935
126 0.005017
132 0.00602
136 0.006993
147 0.007938
132 0.00798
70 0.007976
49 0.007977
59 0.006991
80 0.004987
87 0.006985
91 0.004981
75 0.003989
71 0.002991
73 0.003011
79 0.002994
90 0.003002
105 0.002992
110 0.00098
118 0.000977
123 0.002012
122 0.0
122 0.001998
134 0.0
140 0.0
99 0.0
69 0.0
82 0.0
116 0.0
135 0.0
159 0.001006
165 0.001995
168 0.000995
181 0.001991
200 0.001051
231 0.001015
255 0.003002
255 0.002992
255 0.002994
255 0.004987
255 0.004957
255 0.005035
255 0.005043
242 0.004964
210 0.005023
218 0.004989
111 0.004966
231 0.004986
229 0.005019
203 0.005987
187 0.006987
176 0.007019
178 0.006935
183 0.007969
193 0.006008
193 0.007974
193 0.005984
191 0.005981
186 0.005985
182 0.005972
101 0.00499
52 0.003994
34 0.004035
45 0.003985
51 0.003009
55 0.002989
50 0.001
37 0.002003
37 0.001995
43 0.002003
58 0.002035
70 0.0
78 0.001986
82 0.002053
83 0.000969
83 0.000998
84 0.001966
80 0.002025
0 0.002994
37 0.002995
39 0.002991
48 0.003029
53 0.00296
57 0.003027
52 0.002981
49 0.003026
52 0.003026
61 0.003993
67 0.003991
76 0.005024
82 0.005034
86 0.004898
92 0.007019
93 0.007018
97 0.006982
102 0.005995
109 0.007982
102 0.005981
56 0.005993
47 0.005989
55 0.005964
63 0.00498
74 0.004995
78 0.00397
75 0.002989
73 0.002038
75 0.002995
81 0.002026
88 0.002993
86 0.002995
87 0.003034
93 0.003026
97 0.002025
100 0.001998
105 0.0
108 0.002028
114 0.0
122 0.0
117 0.000999
68 0.001994
55 0.003027
63 0.003028
80 0.003
88 0.002994
93 0.002924
85 0.003024
80 0.003024
70 0.002948
67 0.002993
44 0.003033
59 0.004078
67 0.005985
76 0.005986
82 0.006047
86 0.005969
92 0.006951
103 0.007976
106 0.007977
67 0.007947
24 0.007974
7 0.007127
26 0.005017
41 0.006982
59 0.003988
62 0.003037
54 0.002994
48 0.002057
54 0.002972
66 0.002986
83 0.002041
94 0.002005
105 0.001997
112 0.003962
116 0.001979
121 0.003991
128 0.001996
135 0.00304
77 0.001977
44 0.003023
39 0.001997
51 0.002993
73 0.002013
90 0.001983
86 0.001996
74 0.000988
75 0.0
82 0.000978
97 0.0
110 0.000997
117 0.001996
126 0.001956
130 0.002016
136 0.00201
143 0.002992
148 0.00399
91 0.004992
54 0.00502
51 0.00502
67 0.004985
76 0.004953
90 0.00502
93 0.005941
91 0.005984
106 0.005988
133 0.005986
152 0.006017
182 0.00694
201 0.006997
232 0.006969
244 0.003978
255 0.00402
255 0.00205
215 0.001997
177 0.002196
174 0.002952
193 0.002993
219 0.0
236 0.002025
235 0.001995
228 0.00198
228 0.00203
236 0.002044
254 0.0
255 0.000967
255 0.000949
255 0.000997
255 0.003957
255 0.004019
255 0.00399
184 0.004988
163 0.004989
176 0.004913
200 0.006972
207 0.006022
219 0.005962
213 0.005977
201 0.006004
202 0.004986
207 0.003996
217 0.003015
221 0.003975
228 0.003011
229 0.002042
229 0.001989
141 0.001948
222 0.0
121 0.000967
83 0.0
82 0.0
88 0.0
99 0.0
102 0.0
92 0.0
72 0.0
69 0.002029
75 0.000996
88 0.00402
101 0.004985
109 0.004992
119 0.005018
121 0.003991
122 0.004989
127 0.005955
130 0.007016
137 0.006985
109 0.005965
39 0.005953
59 0.005992
64 0.004988
68 0.005984
78 0.004081
79 0.005985
74 0.003989
71 0.00399
74 0.003989
81 0.002992
87 0.002975
93 0.003975
97 0.003944
99 0.003014
103 0.002947
109 0.004036
116 0.00298
127 0.004022
133 0.002001
139 0.00403
138 0.002993
109 0.002992
73 0.003033
75 0.002001
84 0.002026
95 0.00095
100 0.002029
100 0.0
94 0.0
94 0.002029
99 0.001996
109 0.001998
114 0.002053
124 0.002037
128 0.002039
132 0.003041
137 0.002991
140 0.002999
147 0.003024
152 0.003986
153 0.003961
108 0.004037
84 0.004984
84 0.005983
95 0.006988
101 0.006979
106 0.006981
103 0.005986
97 0.007975
96 0.005976
104 0.00595
103 0.005934
123 0.006016
132 0.005997
146 0.005937
156 0.004987
164 0.005983
172 0.003967
179 0.005023
156 0.003003
104 0.003026
90 0.002993
99 0.003032
116 0.003034
128 0.003025
136 0.004025
121 0.001998
116 0.003034
118 0.002009
124 0.003023
139 0.000979
148 0.000953
152 0.0
157 0.0
159 0.0
160 0.0
152 0.0
112 0.0
70 0.000956
88 0.000963
109 0.001995
154 0.001993
184 0.003949
188 0.00396
180 0.003983
184 0.004984
201 0.005001
212 0.005999
222 0.007013
225 0.007017
227 0.006987
231 0.006989
86 0.006963
185 0.00697
136 0.006978
127 0.006982
146 0.007986
152 0.006198
157 0.005984
145 0.005989
125 0.005952
115 0.004998
114 0.004994
117 0.004987
117 0.004995
121 0.00399
123 0.004022
128 0.00198
134 0.002998
108 0.002992
59 0.003017
25 0.001992
29 0.002008
49 0.002073
65 0.0
72 0.0
76 0.000996
77 0.001995
76 0.002993
59 0.002996
67 0.003961
83 0.002994
107 0.003953
104 0.003869
100 0.003988
87 0.004983
68 0.00502
2 0.004978
0 0.005019
3 0.004975
33 0.005978
59 0.005975
69 0.005987
71 0.005969
79 0.005988
100 0.006019
132 0.005973
164 0.006981
182 0.005979
176 0.007978
160 0.005983
164 0.006104
166 0.005983
168 0.004988
163 0.004987
130 0.003978
103 0.003995
122 0.004982
150 0.002991
169 0.005019
183 0.001998
180 0.004021
173 0.002991
173 0.002992
158 0.003034
147 0.0
149 0.002004
152 0.0
155 0.002993
156 0.0
167 0.00101
176 0.0
185 0.0
134 0.000999
106 0.001007
120 0.000998
147 0.000998
197 0.000998
232 0.000998
231 0.001995
225 0.002991
199 0.003988
198 0.003989
204 0.004974
212 0.00499
221 0.005021
236 0.007028
189 0.004989
188 0.004983
187 0.002994
187 0.002961
171 0.002993
147 0.001993
142 0.001995
143 0.00098
147 0.002006
150 0.001998
149 0.000998
147 0.001987
145 0.0
146 0.002025
156 0.0
163 0.001992
191 0.002026
206 0.002028
220 0.001994
224 0.002025
223 0.001995
197 0.001
176 0.002025
172 0.0
182 0.001996
197 0.0
203 0.0
204 0.000999
198 0.000844
192 0.004
195 0.003951
200 0.005006
202 0.004986
204 0.004986
205 0.004989
205 0.005998
204 0.005987
199 0.006972
187 0.006978
162 0.006981
165 0.007975
168 0.005984
170 0.007976
172 0.007971
170 0.007976
164 0.006982
162 0.002966
160 0.005991
159 0.001982
159 0.004
174 0.002001
170 0.00199
167 0.001992
166 0.001985
169 0.001992
149 0.001993
132 0.0
133 0.0
131 0.0
132 0.001983
132 0.000994
138 0.001058
144 0.001975
145 0.001982
147 0.0
153 0.002007
172 0.0
196 0.0
203 0.0
226 0.002041
237 0.001998
187 0.002002
184 0.002991
165 0.003952
163 0.002968
169 0.005018
172 0.00598
176 0.006974
176 0.006978
173 0.006975
168 0.006971
170 0.00702
173 0.006979
177 0.006982
177 0.006976
176 0.006981
169 0.006979
165 0.007965
153 0.007967
144 0.006976
113 0.007979
85 0.006987
84 0.007979
87 0.005983
84 0.003995
85 0.003992
78 0.00401
54 0.002984
50 0.002987
56 0.002991
59 0.002989
71 0.002083
80 0.002983
90 0.0
99 0.002033
109 0.001994
112 0.001996
95 0.002011
88 0.001993
98 0.001987
111 0.0
115 0.002014
121 0.0
122 0.002027
124 0.0
124 0.0
124 0.000995
122 0.001002
121 0.001025
119 0.001032
120 0.001995
120 0.002959
120 0.001965
97 0.002993
83 0.003025
81 0.00299
83 0.004988
82 0.003992
81 0.004998
81 0.005025
80 0.004989
81 0.006015
84 0.006021
98 0.005017
116 0.006965
129 0.006939
136 0.006981
142 0.005981
145 0.00499
131 0.004986
119 0.003992
115 0.004986
118 0.00399
119 0.002991
123 0.001994
121 0.003972
117 0.001994
117 0.00399
119 0.001992
125 0.003989
132 0.003985
134 0.003976
138 0.00399
141 0.001999
141 0.002989
120 0.001994
112 0.003026
115 0.001011
124 0.0
127 0.0
134 0.0
133 0.000948
131 0.002
135 0.000999
140 0.001982
142 0.003011
146 0.003028
148 0.00303
150 0.004001
163 0.002996
142 0.002984
101 0.004025
99 0.003993
108 0.003965
113 0.004989
118 0.006011
116 0.006026
103 0.006018
102 0.005985
104 0.005995
104 0.006935
107 0.007014
109 0.006967
113 0.007015
118 0.005988
112 0.005984
100 0.006005
34 0.003993
5 0.005984
16 0.005947
33 0.004967
36 0.004971
37 0.002989
22 0.005972
16 0.006109
0 0.006017
2 0.005018
24 0.005984
55 0.002026
59 0.004982
58 0.003002
59 0.00301
57 0.001993
36 0.002013
14 0.001989
0 0.001976
0 0.002994
9 0.003003
18 0.0
23 0.002943
23 0.0
25 0.0
31 0.0
39 0.0
53 0.0
60 0.0
72 0.002049
81 0.002
88 0.003041
92 0.002992
99 0.003021
102 0.002947
100 0.003041
76 0.003036
50 0.003029
59 0.004029
66 0.005038
73 0.00398
78 0.004977
75 0.006981
71 0.006009
75 0.005983
84 0.005966
92 0.005951
97 0.005983
103 0.003962
108 0.006981
114 0.002955
117 0.005018
121 0.004025
126 0.004029
135 0.00299
120 0.0
92 0.002042
80 0.0
88 0.002993
94 0.000968
104 0.0
106 0.0
92 0.0
90 0.0
94 0.000997
103 0.0
107 0.0
117 0.000961
122 0.002043
129 0.0
137 0.003045
145 0.004023
165 0.003026
176 0.0
157 0.0
137 0.001995
142 0.001996
151 0.001995
169 0.001994
178 0.001031
179 0.00204
173 0.00203
176 0.000994
181 0.003028
185 0.003043
193 0.003971
200 0.004848
203 0.004972
206 0.004983
207 0.005976
209 0.006007
188 0.00597
153 0.006975
144 0.006979
153 0.006994
162 0.006009
172 0.007005
173 0.007977
170 0.007982
168 0.007978
168 0.004969
173 0.007016
182 0.004996
185 0.005983
190 0.003978
193 0.003992
197 0.003991
201 0.003013
197 0.003004
174 0.002045
145 0.002036
144 0.002039
160 0.001995
165 0.004049
171 0.002015
169 0.002994
161 0.000983
160 0.002027
164 0.001995
168 0.002039
176 0.001995
181 0.001998
183 0.003967
184 0.0
184 0.0
185 0.0
183 0.0
158 0.0
112 0.000997
115 0.000998
127 0.000999
140 0.002044
144 0.002987
137 0.003993
119 0.005015
115 0.003989
128 0.003814
140 0.005031
137 0.005031
141 0.004033
144 0.005992
145 0.005994
150 0.006016
155 0.00603
161 0.005987
97 0.006947
65 0.008011
60 0.003988
68 0.005018
72 0.005001
76 0.004994
64 0.003986
46 0.004969
41 0.002997
44 0.002986
58 0.00304
68 0.005021
84 0.001992
94 0.004017
101 0.003023
107 0.003023
123 0.003048
131 0.003025
113 0.003027
47 0.000981
40 0.002026
64 0.001012
90 0.0
102 0.000956
113 0.0
110 0.000998
110 0.000997
122 0.000997
136 0.000997
156 0.000998
174 0.001988
184 0.001964
192 0.002034
197 0.003013
206 0.001996
210 0.001998
191 0.001998
92 0.001997
57 0.001996
51 0.002995
64 0.003023
68 0.002993
75 0.004032
79 0.003998
83 0.003994
104 0.005018
119 0.005022
152 0.004987
181 0.004983
188 0.005018
190 0.004979
186 0.005984
192 0.006982
210 0.006966
211 0.00698
160 0.00697
128 0.00709
145 0.00698
169 0.006981
183 0.006968
200 0.007019
194 0.007977
189 0.007983
187 0.00798
199 0.004992
211 0.007979
227 0.005011
234 0.00798
238 0.004984
244 0.004952
245 0.004933
242 0.003993
168 0.004987
138 0.003024
140 0.002963
153 0.004
162 0.002993
163 0.007035
154 0.003034
140 0.00598
138 0.003
146 0.004036
161 0.003023
166 0.003022
169 0.003956
165 0.0
163 0.002042
159 0.0
143 0.000977
100 0.000962
49 0.0
42 0.0
72 0.002
97 0.002003
113 0.002027
120 0.003984
111 0.005984
111 0.005984
127 0.005968
145 0.005847
156 0.006981
164 0.006984
174 0.006966
179 0.006968
183 0.006973
184 0.006059
191 0.00798
146 0.007012
91 0.006961
67 0.007017
82 0.007017
115 0.00798
137 0.003982
140 0.005985
127 0.003958
128 0.001997
134 0.001965
145 0.002048
156 0.0
158 0.0
164 0.0
167 0.003025
167 0.000997
166 0.002013
177 0.002992
189 0.002992
159 0.002998
77 0.002992
39 0.002992
46 0.002955
57 0.002992
73 0.002991
79 0.002992
65 0.004034
55 0.004008
56 0.004992
69 0.005018
81 0.004985
89 0.004988
105 0.005958
110 0.006979
118 0.005968
123 0.006961
128 0.00697
139 0.005985
116 0.006981
59 0.006943
25 0.006968
36 0.005993
61 0.00786
84 0.006983
96 0.007017
83 0.006978
79 0.00499
88 0.006983
107 0.004987
117 0.006983
126 0.004984
136 0.003964
140 0.003968
140 0.003989
146 0.00203
151 0.002028
151 0.002003
89 0.00203
50 0.0
44 0.001001
74 0.000997
89 0.001995
107 0.002027
102 0.001996
61 0.001995
33 0.00305
19 0.0
13 0.002993
19 0.004024
22 0.004024
29 0.003951
21 0.003957
12 0.004019
19 0.00396
11 0.004024
0 0.00399
0 0.003966
0 0.003989
0 0.003988
0 0.003925
7 0.005001
16 0.005983
26 0.006035
46 0.005994
61 0.006932
80 0.007932
115 0.006963
131 0.007968
146 0.007959
146 0.005019
152 0.00699
154 0.004994
110 0.005985
51 0.003
63 0.001991
92 0.0
103 0.000848
115 0.0
112 0.000963
105 0.001019
114 0.002003
132 0.000999
152 0.002026
173 0.000966
187 0.002992
201 0.003049
199 0.001995
196 0.0
199 0.0
137 0.000955
73 0.001995
66 0.00304
79 0.002997
96 0.003025
109 0.003036
112 0.002996
86 0.003025
62 0.003026
65 0.003009
76 0.003024
93 0.003951
115 0.00399
125 0.005018
128 0.004983
132 0.005019
137 0.004993
134 0.00498
82 0.005006
43 0.004956
55 0.005021
71 0.005007
76 0.005985
96 0.007001
99 0.007962
92 0.007979
94 0.007998
107 0.007974
133 0.005982
152 0.007977
181 0.004987
201 0.004982
213 0.003995
225 0.004992
219 0.003989
221 0.002991
150 0.003028
96 0.002998
88 0.003002
104 0.002995
139 0.003
167 0.005022
170 0.004987
160 0.003997
159 0.002042
164 0.00399
172 0.001965
176 0.003003
186 0.0
196 0.0
199 0.0
187 0.0
159 0.0
146 0.0
138 0.0
48 0.000997
0 0.000998
0 0.001995
0 0.001031
0 0.002026
0 0.002004
0 0.002032
0 0.002019
0 0.003035
0 0.003064
0 0.003952
0 0.004006
8 0.003997
24 0.004034
26 0.005019
23 0.006017
25 0.005988
27 0.006015
2 0.006972
0 0.006017
0 0.005971
0 0.005955
0 0.005983
1 0.00598
5 0.005975
0 0.003992
68 0.003993
72 0.003975
80 0.002992
86 0.004987
91 0.002975
96 0.003984
101 0.003986
102 0.004018
106 0.00399
107 0.0
88 0.003021
63 0.0
62 0.002954
72 0.0
81 0.000997
87 0.0
89 0.0
88 0.0
90 0.0
99 0.0
103 0.0
114 0.0
138 0.000998
156 0.001999
181 0.003038
198 0.002027
216 0.003991
229 0.003855
208 0.004986
178 0.006023
149 0.006982
139 0.005959
134 0.007948
130 0.003993
126 0.006981
115 0.003985
107 0.003999
107 0.003988
112 0.003989
120 0.002987
124 0.002979
130 0.002998
132 0.002992
133 0.001993
135 0.00399
137 0.002981
125 0.003026
89 0.002025
81 0.002025
86 0.002992
89 0.002994
96 0.003048
97 0.000942
93 0.002042
90 0.0
96 0.0
103 0.0
112 0.000956
117 0.000956
124 0.0
129 0.0
130 0.000967
136 0.0
140 0.0
128 0.0
94 0.0
85 0.0
90 0.000998
101 0.0
106 0.001015
107 0.002042
103 0.001995
99 0.002049
101 0.0
106 0.00097
111 0.002024
115 0.002047
121 0.001996
123 0.002039
126 0.002033
130 0.003025
127 0.003027
111 0.003005
85 0.004024
82 0.002992
89 0.00399
97 0.00399
103 0.003992
103 0.00399
98 0.005944
98 0.006015
102 0.006005
106 0.005969
117 0.006983
122 0.00797
124 0.006973
126 0.006981
130 0.004038
132 0.006951
99 0.004974
51 0.006981
13 0.004969
26 0.004068
40 0.002992
60 0.002988
64 0.002011
62 0.003002
61 0.002991
67 0.002982
89 0.003004
106 0.004033
115 0.000996
123 0.002992
129 0.00204
130 0.003021
136 0.002992
123 0.00302
58 0.0
36 0.0
46 0.000998
75 0.000998
112 0.000991
130 0.003022
141 0.002025
154 0.002994
169 0.004049
187 0.002957
193 0.002993
195 0.001952
188 0.001991
183 0.004031
181 0.003994
185 0.003027
194 0.003997
159 0.003998
126 0.003918
111 0.004991
122 0.003948
133 0.004982
142 0.005952
140 0.00697
134 0.00795
127 0.006978
129 0.007035
139 0.006982
149 0.004971
159 0.006939
168 0.005934
174 0.007018
177 0.006099
182 0.003947
185 0.004033
193 0.00499
159 0.004013
121 0.003021
105 0.00499
114 0.003976
128 0.005996
141 0.005979
143 0.005986
134 0.006001
127 0.005939
132 0.003989
144 0.002001
152 0.004964
158 0.003034
163 0.001997
166 0.002995
166 0.0
164 0.000964
167 0.000995
173 0.000998
142 0.000957
112 0.000966
103 0.001999
117 0.002315
137 0.004961
148 0.005948
144 0.007068
139 0.006975
133 0.007026
136 0.006977
146 0.006981
154 0.007019
158 0.007012
167 0.006979
169 0.006984
174 0.007979
179 0.004986
183 0.006981
177 0.003984
120 0.003988
107 0.003992
117 0.003003
128 0.004013
144 0.002992
157 0.002988
145 0.002955
130 0.00493
132 0.004996
142 0.002989
154 0.004023
168 0.003024
174 0.002026
181 0.002035
186 0.002043
193 0.001986
190 0.000962
148 0.0
90 0.0
82 0.0
109 0.0
146 0.000998
160 0.0
169 0.002023
153 0.002028
148 0.002994
158 0.003034
167 0.003995
171 0.004021
179 0.005976
194 0.005025
205 0.006003
218 0.00597
205 0.007014
162 0.006037
108 0.003991
116 0.003004
129 0.005017
116 0.001994
105 0.005016
88 0.003004
72 0.003001
70 0.001001
84 0.0
102 0.001009
112 0.00101
121 0.000998
125 0.0
134 0.000999
140 0.000998
129 0.001998
45 0.002028
13 0.0
20 0.0
42 0.0
52 0.0
61 0.0
55 0.0
47 0.0
48 0.0
64 0.0
76 0.0
95 0.0
103 0.001002
112 0.0
114 0.000998
122 0.000998
132 0.001015
136 0.000997
66 0.002993
2 0.002995
6 0.00299
28 0.002984
41 0.002993
56 0.003035
45 0.002978
38 0.003963
36 0.003976
47 0.004974
63 0.005989
77 0.006023
90 0.005984
100 0.005983
105 0.005989
108 0.005976
117 0.006015
127 0.005984
131 0.005982
59 0.005979
20 0.006028
17 0.005985
50 0.005974
65 0.00606
81 0.004983
82 0.007036
77 0.004992
75 0.007
88 0.00399
105 0.007015
124 0.006978
132 0.007015
147 0.007015
150 0.007012
157 0.007028
168 0.00399
174 0.006017
184 0.00399
126 0.003
76 0.002996
58 0.003003
73 0.002994
101 0.002026
120 0.001989
117 0.001993
101 0.001996
97 0.001999
106 0.003032
121 0.00502
134 0.001998
145 0.005023
157 0.003006
162 0.005017
166 0.003991
170 0.00403
180 0.003985
148 0.003024
91 0.004023
50 0.001994
56 0.004003
85 0.002025
111 0.002002
117 0.00199
104 0.002993
100 0.0
104 0.0
120 0.000994
132 0.0
151 0.001034
160 0.002028
166 0.000974
173 0.003049
179 0.0
179 0.003038
90 0.0
51 0.0
56 0.0
78 0.000961
97 0.000986
114 0.000998
110 0.000998
97 0.000998
97 0.001994
105 0.001999
126 0.001989
147 0.002993
156 0.002993
168 0.002907
173 0.003024
180 0.004023
189 0.003998
155 0.003983
64 0.003981
51 0.005999
74 0.005023
95 0.0069
119 0.00798
123 0.007012
110 0.00798
105 0.006981
107 0.006014
128 0.001997
140 0.00399
157 0.002994
174 0.001976
178 0.003005
185 0.003033
192 0.002991
204 0.001993
175 0.003002
108 0.003003
57 0.002992
74 0.003041
101 0.000973
122 0.003016
139 0.0
129 0.002043
114 0.002997
119 0.003008
135 0.00203
154 0.0
164 0.002993
176 0.0
181 0.0
185 0.0
194 0.0
196 0.001007
205 0.000997
195 0.000997
86 0.000998
33 0.000997
47 0.001993
75 0.002029
100 0.001007
106 0.001993
90 0.002006
80 0.000998
86 0.001966
109 0.003987
120 0.004987
140 0.005985
160 0.005975
165 0.005991
175 0.007007
188 0.007978
195 0.007978
207 0.007978
196 0.00797
91 0.007982
61 0.003961
72 0.003987
108 0.003984
137 0.003984
140 0.002984
113 0.002997
98 0.00203
95 0.003001
105 0.004982
110 0.002993
129 0.002997
159 0.003033
174 0.0
188 0.0
198 0.000997
217 0.002027
217 0.001976
113 0.002001
78 0.001995
91 0.002993
129 0.003962
155 0.003991
187 0.00402
186 0.004023
179 0.00402
181 0.003985
194 0.003958
216 0.004016
159 0.003987
253 0.003989
255 0.004025
255 0.003989
255 0.006982
255 0.006971
203 0.004978
108 0.007019
94 0.006988
110 0.007979
145 0.006982
161 0.006982
172 0.006017
157 0.002991
154 0.004989
174 0.00299
211 0.003
234 0.002992
255 0.002996
255 0.002993
255 0.003008
255 0.000996
255 0.001001
255 0.000965
234 0.002989
198 0.0
219 0.002959
190 0.0
203 0.002981
213 0.0
211 0.0
206 0.000997
212 0.000974
225 0.001
241 0.001865
193 0.003022
198 0.003028
204 0.002993
207 0.002995
212 0.003025
219 0.00302
215 0.00295
183 0.003989
175 0.003989
180 0.004008
190 0.003985
195 0.003999
198 0.003957
194 0.003957
192 0.00502
194 0.006023
199 0.005984
206 0.005982
213 0.006974
217 0.006973
220 0.007977
223 0.004984
225 0.007975
228 0.004999
231 0.007955
215 0.004986
185 0.003975
182 0.003003
189 0.002043
199 0.002961
203 0.003037
201 0.001994
194 0.003025
192 0.0
195 0.002988
200 0.0
207 0.003024
214 0.002
217 0.002001
221 0.0
224 0.0
227 0.0
231 0.000998
227 0.000998
194 0.001994
172 0.001989
172 0.001983
177 0.002992
182 0.002993
184 0.003988
228 0.003988
220 0.004026
220 0.003992
232 0.003952
242 0.003
192 0.004009
192 0.00399
191 0.004988
188 0.004976
188 0.004978
182 0.004948
150 0.00602
127 0.005951
125 0.006019
134 0.005018
138 0.007021
144 0.006981
142 0.003993
139 0.003988
139 0.003988
143 0.003989
152 0.002993
163 0.003037
168 0.002994
176 0.002957
178 0.002041
184 0.003194
190 0.00602
186 0.002993
155 0.005984
140 0.004987
145 0.003128
157 0.003051
164 0.003025
170 0.002992
165 0.0
162 0.002999
163 0.0
162 0.0
163 0.001004
163 0.000999
163 0.001001
161 0.0
160 0.000964
160 0.0
161 0.0
152 0.0
126 0.0
101 0.0
102 0.0
110 0.0
118 0.0
121 0.0
117 0.0
114 0.0
111 0.0
121 0.001001
128 0.002038
134 0.001962
141 0.000958
144 0.00095
145 0.001996
142 0.002
136 0.002981
130 0.003002
105 0.002961
50 0.004024
34 0.004021
34 0.003032
35 0.004947
37 0.00499
27 0.005955
11 0.005994
3 0.00579
63 0.005984
63 0.005688
60 0.005985
55 0.00693
52 0.005945
48 0.006987
46 0.007034
46 0.007938
45 0.008024
43 0.007984
27 0.004977
14 0.004975
15 0.004989
22 0.004972
27 0.003034
30 0.002992
30 0.002987
30 0.00298
35 0.00302
39 0.006013
41 0.00297
44 0.004986
49 0.004983
52 0.004988
57 0.005019
60 0.005022
65 0.003986
64 0.002987
55 0.003984
49 0.00302
52 0.004105
59 0.002018
66 0.0
69 0.002043
68 0.0
68 0.0
70 0.0
75 0.000998
78 0.000964
83 0.0
85 0.002042
87 0.0
90 0.0
95 0.0
96 0.0
83 0.00097
76 0.0
76 0.000997
82 0.000998
86 0.00203
70 0.001032
72 0.000996
66 0.001007
62 0.000998
66 0.002004
76 0.002025
85 0.002027
89 0.002001
94 0.001989
97 0.002045
101 0.001996
90 0.002062
77 0.001959
72 0.001957
78 0.001997
87 0.003032
94 0.003051
96 0.004979
94 0.005044
94 0.004987
99 0.004949
104 0.005021
113 0.007021
119 0.006986
129 0.006979
132 0.006974
135 0.004992
137 0.003986
124 0.002991
98 0.002992
94 0.004009
96 0.002994
103 0.002033
108 0.005032
112 0.003002
114 0.005036
115 0.000951
116 0.002991
119 0.002992
121 0.003041
118 0.001968
123 0.0
132 0.0
137 0.0
138 0.0
140 0.0
122 0.0
103 0.0
102 0.0
115 0.001893
120 0.000998
115 0.0
114 0.00204
106 0.001957
98 0.002041
104 0.002028
120 0.002956
137 0.002949
137 0.002949
140 0.002993
140 0.004011
138 0.002992
138 0.004023
146 0.005988
157 0.004989
158 0.004992
132 0.00399
95 0.005004
92 0.00499
99 0.004992
112 0.00499
121 0.006978
122 0.004937
112 0.005
110 0.004972
114 0.004979
116 0.003982
123 0.002995
138 0.003019
143 0.003025
144 0.004045
144 0.005021
145 0.002977
146 0.004031
147 0.002046
153 0.002977
137 0.003016
113 0.003017
98 0.003002
108 0.000985
115 0.002992
121 0.000972
119 0.000952
113 0.000988
116 0.0
119 0.0
123 0.0
130 0.0
133 0.0
135 0.0
135 0.0
149 0.000962
168 0.000998
177 0.000994
175 0.000999
132 0.000998
80 0.000997
67 0.000997
79 0.000998
97 0.001999
121 0.001995
126 0.002998
106 0.003999
96 0.003953
101 0.003947
112 0.00398
113 0.003983
129 0.003956
154 0.003961
163 0.00499
160 0.005033
162 0.004988
162 0.004983
84 0.004988
54 0.004959
64 0.004983
95 0.005985
105 0.005983
111 0.005978
107 0.004956
92 0.006053
78 0.006994
87 0.006066
106 0.005983
116 0.005984
127 0.007978
137 0.003989
142 0.007014
153 0.003992
174 0.003988
174 0.004976
89 0.004956
55 0.003983
61 0.00399
75 0.003002
81 0.003977
98 0.00299
104 0.006018
94 0.002993
92 0.005019
104 0.002982
115 0.005017
119 0.005023
123 0.004026
142 0.004037
160 0.00099
161 0.003025
157 0.000968
119 0.003993
52 0.0
41 0.0
68 0.003002
84 0.002989
113 0.002989
109 0.002989
89 0.002971
89 0.00399
97 0.004985
103 0.004943
116 0.00499
132 0.004986
141 0.005004
147 0.005972
154 0.00598
165 0.006985
168 0.006967
104 0.006852
62 0.005984
68 0.006979
89 0.005988
103 0.00698
115 0.005988
109 0.006016
101 0.005985
102 0.004992
108 0.004995
124 0.003985
141 0.00501
148 0.004986
156 0.003977
158 0.007015
161 0.003989
163 0.006993
170 0.003988
174 0.007011
117 0.006018
74 0.006018
65 0.006015
79 0.005983
100 0.00502
115 0.002995
113 0.004023
101 0.001972
104 0.002996
113 0.002988
134 0.0
148 0.0
151 0.0
155 0.001995
153 0.00199
155 0.001979
159 0.00199
161 0.001967
161 0.002015
89 0.003023
54 0.002992
53 0.003994
72 0.004001
86 0.004011
98 0.003989
92 0.003992
81 0.005004
82 0.004989
91 0.005035
107 0.006013
123 0.005984
131 0.00598
138 0.00598
140 0.005983
145 0.005977
152 0.005983
155 0.004987
97 0.004993
50 0.007972
53 0.003024
73 0.005984
93 0.004986
101 0.004985
98 0.005019
89 0.005018
88 0.005023
103 0.003
116 0.004984
141 0.003044
152 0.003989
150 0.003003
147 0.002989
151 0.002992
