69 0.012948
70 0.00297
70 0.002994
76 0.002065
86 0.001994
101 0.001963
106 0.001923
109 0.001994
115 0.003953
122 0.003027
132 0.002958
143 0.002991
151 0.002991
162 0.002942
169 0.002988
177 0.001995
183 0.001993
189 0.001994
193 0.002001
194 0.002993
197 0.003987
198 0.003958
192 0.002991
100 0.001995
72 0.002991
65 0.00299
69 0.00296
72 0.002957
74 0.002028
86 0.001994
96 0.001988
101 0.00299
103 0.003988
105 0.003989
113 0.003037
122 0.002983
128 0.002928
140 0.002991
147 0.003012
154 0.002939
160 0.00301
172 0.002024
176 0.003006
180 0.00305
184 0.003993
170 0.003953
77 0.003028
53 0.002944
52 0.002961
55 0.002938
55 0.002937
58 0.003998
61 0.002925
76 0.003043
85 0.002986
88 0.003012
91 0.003929
96 0.003936
107 0.002993
115 0.003039
123 0.002986
131 0.00299
137 0.002944
144 0.003935
151 0.002966
160 0.002957
167 0.00299
173 0.002927
174 0.00399
122 0.003949
54 0.002971
46 0.002992
46 0.002992
46 0.003941
44 0.003952
44 0.003934
48 0.002979
64 0.003003
72 0.002991
75 0.003961
79 0.004009
84 0.00395
95 0.002994
103 0.004001
110 0.002991
118 0.004956
126 0.002995
135 0.003956
143 0.002981
153 0.002991
160 0.003974
167 0.003986
173 0.003961
180 0.004025
185 0.003987
191 0.002992
186 0.00399
116 0.002977
60 0.003939
49 0.004956
51 0.003952
51 0.003989
50 0.004022
52 0.003977
59 0.00399
72 0.003991
79 0.004038
83 0.002993
88 0.002993
95 0.003053
102 0.004002
109 0.003994
119 0.003034
130 0.003997
140 0.002973
147 0.004037
152 0.004052
161 0.003982
168 0.003959
175 0.003989
183 0.00399
190 0.003046
195 0.003991
200 0.004988
205 0.003031
200 0.004987
102 0.004027
67 0.003944
64 0.003946
66 0.003958
67 0.003992
67 0.003975
69 0.002992
77 0.002977
87 0.004024
95 0.00399
99 0.004032
104 0.00399
113 0.00399
121 0.003979
129 0.003976
136 0.004948
143 0.004988
151 0.003973
154 0.003988
160 0.004002
169 0.003999
171 0.019947
182 0.0
190 0.003984
192 0.004021
146 0.004022
86 0.00399
68 0.004963
69 0.004987
72 0.003991
72 0.003989
74 0.003947
80 0.003989
89 0.00399
97 0.004025
102 0.004988
106 0.004018
112 0.003988
120 0.005014
128 0.004987
137 0.004987
147 0.003994
153 0.00399
160 0.00399
165 0.005985
171 0.005985
177 0.003979
189 0.004975
192 0.004955
148 0.004987
89 0.004955
69 0.004953
69 0.004953
69 0.00399
67 0.003997
68 0.00399
72 0.004954
82 0.005985
93 0.004978
98 0.005955
101 0.00491
106 0.004943
114 0.004958
124 0.004956
131 0.004959
141 0.003989
148 0.003988
155 0.003959
162 0.004947
170 0.005984
179 0.004935
188 0.005955
196 0.004935
200 0.004921
205 0.004945
211 0.004955
200 0.004995
103 0.004977
79 0.004988
72 0.004988
73 0.004987
73 0.005985
72 0.004987
76 0.005937
88 0.004978
97 0.004986
103 0.004966
107 0.004985
110 0.004954
118 0.003989
125 0.004004
132 0.004982
139 0.004987
147 0.004987
155 0.005026
164 0.006025
173 0.004988
180 0.004986
188 0.004987
195 0.006034
202 0.005986
210 0.004987
214 0.004985
219 0.005022
223 0.005944
226 0.005987
211 0.004989
106 0.005985
79 0.005023
81 0.004988
83 0.006012
82 0.004988
82 0.005026
85 0.005986
97 0.005016
106 0.004952
110 0.005023
113 0.005984
117 0.006027
126 0.005985
134 0.006016
144 0.004987
150 0.004998
157 0.004987
164 0.004987
171 0.004987
177 0.005984
183 0.005957
189 0.005984
197 0.005985
202 0.005983
213 0.005985
216 0.005953
155 0.004972
95 0.004987
80 0.004987
82 0.005939
85 0.006945
86 0.004986
87 0.006015
93 0.005985
103 0.006968
109 0.005984
112 0.006012
115 0.005984
123 0.004985
131 0.004968
139 0.004979
146 0.006034
152 0.005986
160 0.004985
165 0.005985
170 0.00603
177 0.007033
183 0.007007
192 0.006011
162 0.005984
96 0.006002
72 0.005985
70 0.004988
71 0.005984
69 0.005989
68 0.006038
72 0.005992
81 0.006035
91 0.006982
96 0.005985
99 0.005984
104 0.005985
112 0.005985
119 0.006015
129 0.004963
137 0.006028
144 0.006985
153 0.005999
160 0.00603
167 0.005985
173 0.007009
179 0.006016
189 0.006982
194 0.006983
196 0.005993
135 0.005985
75 0.005984
59 0.005984
58 0.006019
57 0.005003
54 0.005964
53 0.006027
55 0.007019
63 0.007023
67 0.038896
79 0.0
118 0.006981
126 0.006973
134 0.006982
145 0.006053
152 0.006985
159 0.007012
172 0.006982
180 0.006982
190 0.005985
197 0.00695
203 0.005987
208 0.007952
211 0.007016
215 0.007018
219 0.006983
217 0.005984
151 0.006982
76 0.007022
57 0.006982
59 0.006945
56 0.005994
55 0.005986
56 0.006018
68 0.007956
76 0.00798
85 0.006991
87 0.006982
91 0.006026
98 0.006981
107 0.006982
122 0.006982
130 0.007008
141 0.005984
149 0.005988
157 0.006049
164 0.007981
172 0.007981
181 0.00704
188 0.007029
192 0.006985
200 0.006984
205 0.006982
122 0.006983
69 0.006983
59 0.005985
62 0.006974
62 0.006682
62 0.00798
64 0.007981
78 0.006986
89 0.007009
92 0.006984
96 0.006981
99 0.006982
113 0.006986
123 0.007013
136 0.005986
145 0.006982
152 0.006984
160 0.00698
167 0.006977
176 0.006983
184 0.006997
192 0.006977
193 0.007024
138 0.006982
61 0.006983
56 0.006981
57 0.006942
55 0.006946
54 0.006924
58 0.00798
70 0.007962
81 0.006953
88 0.006977
91 0.006988
95 0.007979
102 0.006982
119 0.006981
132 0.00786
145 0.007962
153 0.007974
162 0.007959
170 0.007998
175 0.007948
182 0.00798
192 0.006984
199 0.006971
206 0.007031
201 0.007967
98 0.006981
59 0.00701
56 0.008013
56 0.008012
53 0.007933
49 0.007966
53 0.008001
59 0.007979
74 0.007011
82 0.006945
87 0.007018
91 0.007978
104 0.006979
113 0.007979
127 0.007005
140 0.007027
150 0.007027
158 0.007985
167 0.007978
176 0.007954
184 0.006982
192 0.007011
200 0.00698
210 0.007988
219 0.006987
226 0.007979
229 0.007979
235 0.006982
151 0.007009
149 0.007012
95 0.007979
68 0.007978
65 0.00798
65 0.007948
62 0.006941
60 0.007979
69 0.00698
80 0.007979
90 0.007979
96 0.007043
102 0.006979
110 0.00701
119 0.007027
129 0.007025
135 0.008008
151 0.007981
154 0.007979
166 0.007985
182 0.007017
187 0.007979
197 0.006977
207 0.007025
213 0.006949
219 0.007021
225 0.007024
229 0.006977
234 0.007024
237 0.007978
240 0.007979
231 0.007941
177 0.023936
79 0.0
69 0.000998
70 0.006977
81 0.006985
96 0.006988
101 0.007029
104 0.007029
110 0.007013
119 0.007979
133 0.007996
146 0.007024
158 0.006965
167 0.006966
175 0.00698
183 0.007029
191 0.007022
201 0.00701
208 0.007012
213 0.007014
219 0.007008
226 0.006018
229 0.005988
221 0.007014
112 0.007013
72 0.006959
67 0.006962
70 0.005995
70 0.006983
70 0.007031
76 0.007015
88 0.006962
99 0.006951
105 0.006025
108 0.006981
115 0.00697
128 0.007032
139 0.006978
149 0.006957
158 0.007028
166 0.007012
177 0.007025
184 0.00697
190 0.007014
197 0.007029
207 0.006983
212 0.005973
194 0.00698
87 0.007006
58 0.006983
54 0.007018
54 0.007014
52 0.007015
50 0.006984
55 0.007017
66 0.007014
78 0.007014
86 0.006
90 0.006017
96 0.005994
109 0.005964
120 0.006017
130 0.007011
140 0.007031
149 0.00703
160 0.005976
169 0.007031
177 0.005984
185 0.005984
197 0.006947
203 0.007017
209 0.007011
215 0.00699
209 0.006999
123 0.005982
59 0.005988
44 0.006969
40 0.00603
36 0.007019
33 0.006982
31 0.006032
44 0.006031
56 0.006015
65 0.00597
70 0.006029
75 0.00701
84 0.007016
94 0.007016
105 0.005986
119 0.006015
129 0.007028
138 0.006983
148 0.005985
163 0.005984
172 0.006019
180 0.006033
191 0.006023
199 0.005972
206 0.00599
212 0.006013
217 0.005986
222 0.007029
228 0.005999
232 0.006017
229 0.006016
81 0.005984
45 0.005984
39 0.006
36 0.006015
31 0.005942
28 0.005991
30 0.006017
40 0.005922
53 0.006024
64 0.005984
68 0.006028
74 0.006016
90 0.006002
101 0.006029
112 0.005985
124 0.006002
138 0.006015
148 0.005984
158 0.004972
168 0.005993
177 0.005984
189 0.006012
197 0.006018
204 0.006031
215 0.005985
221 0.005999
226 0.006025
231 0.006032
237 0.004988
241 0.005019
226 0.005029
123 0.004966
58 0.005032
45 0.006019
45 0.006047
42 0.006029
39 0.006023
46 0.00601
59 0.005038
72 0.004982
79 0.004982
82 0.004972
89 0.004985
100 0.005002
112 0.005017
128 0.006026
139 0.005983
149 0.006056
164 0.005989
172 0.006022
181 0.006031
189 0.005982
199 0.004989
205 0.005033
212 0.004978
217 0.005024
222 0.005017
166 0.005018
75 0.00502
47 0.005039
47 0.042833
44 0.0
44 0.0
79 0.004994
82 0.005974
86 0.005022
99 0.00502
111 0.00503
123 0.005046
141 0.005006
151 0.005032
160 0.006015
169 0.006031
180 0.004982
187 0.005984
195 0.005022
202 0.004983
207 0.005021
132 0.005036
58 0.005028
38 0.005045
34 0.004016
30 0.004044
27 0.004033
29 0.00403
43 0.00498
56 0.005014
64 0.004049
68 0.005
73 0.005017
85 0.005049
97 0.005021
110 0.005034
128 0.005017
139 0.005019
149 0.005039
159 0.005016
172 0.004958
181 0.005016
190 0.004045
198 0.004005
206 0.005024
215 0.005984
221 0.004006
224 0.005011
100 0.005009
46 0.005018
34 0.005024
29 0.005021
23 0.004949
18 0.004992
17 0.00405
25 0.005037
38 0.00495
53 0.00402
59 0.005057
64 0.004037
79 0.005039
90 0.005035
103 0.005015
115 0.005044
130 0.004987
141 0.003974
152 0.003952
162 0.005039
172 0.00399
185 0.004041
194 0.004022
203 0.00399
215 0.004987
222 0.004987
228 0.003961
235 0.004969
242 0.004017
247 0.004041
250 0.004009
222 0.004025
105 0.003988
43 0.004037
36 0.003989
33 0.004021
24 0.004017
23 0.003007
29 0.005013
43 0.005029
58 0.004033
64 0.004023
69 0.004037
77 0.003989
88 0.004032
104 0.004032
116 0.004078
128 0.004036
147 0.004021
158 0.00402
168 0.004982
178 0.005012
187 0.004055
199 0.003998
207 0.004015
214 0.004004
221 0.00399
228 0.003989
236 0.004
241 0.004046
147 0.003989
101 0.003022
88 0.004021
86 0.005011
85 0.004012
84 0.004006
84 0.004032
89 0.00399
96 0.00402
101 0.003996
103 0.004026
105 0.003991
113 0.004019
119 0.002992
125 0.003969
131 0.004024
136 0.002991
142 0.003956
147 0.004031
151 0.00399
156 0.00399
160 0.004024
165 0.004026
168 0.004011
173 0.004023
165 0.004041
116 0.002993
88 0.00298
83 0.002963
80 0.004031
79 0.003984
77 0.004028
78 0.004025
82 0.00399
92 0.004017
96 0.004024
100 0.002936
104 0.002992
109 0.003022
116 0.003024
122 0.002967
130 0.003009
135 0.00399
140 0.003992
145 0.004026
150 0.004017
156 0.003991
161 0.004021
167 0.003978
171 0.002983
174 0.003028
177 0.002996
180 0.003013
180 0.003019
140 0.003024
95 0.002993
83 0.004002
80 0.003033
77 0.003999
74 0.002989
73 0.0
88 0.0
103 0.002992
109 0.002986
115 0.003991
121 0.003991
129 0.003989
134 0.003056
143 0.002959
148 0.003054
153 0.002979
158 0.003024
162 0.003033
167 0.003012
171 0.003004
174 0.003033
178 0.004016
180 0.003991
184 0.00402
187 0.00396
188 0.001995
156 0.00299
101 0.001993
84 0.002955
81 0.003025
79 0.002994
77 0.003031
75 0.002992
78 0.002995
84 0.002992
93 0.001995
97 0.003026
102 0.00399
107 0.002005
113 0.002991
120 0.002991
126 0.002045
134 0.002993
139 0.002993
145 0.002949
150 0.002962
154 0.003028
160 0.002992
164 0.002981
171 0.001999
174 0.002027
177 0.002028
180 0.001994
183 0.001996
186 0.002993
187 0.002991
166 0.001995
110 0.002993
88 0.003017
84 0.002992
84 0.002993
82 0.002973
84 0.003047
90 0.003026
97 0.001967
100 0.00198
102 0.002028
104 0.001995
109 0.001994
115 0.001995
121 0.002994
128 0.001994
133 0.001995
141 0.003023
145 0.002006
149 0.003021
153 0.002017
157 0.002029
162 0.001971
165 0.001994
156 0.001996
109 0.001964
84 0.001995
77 0.003008
76 0.001995
74 0.001016
74 0.001999
78 0.001988
85 0.003052
89 0.001996
91 0.002027
93 0.001995
97 0.001995
103 0.002027
108 0.001995
114 0.002028
120 0.001996
126 0.001984
131 0.000997
135 0.001015
140 0.001944
144 0.002953
148 0.003032
126 0.001994
96 0.001995
84 0.001996
82 0.001995
81 0.001995
78 0.001998
77 0.001994
81 0.000996
87 0.002026
93 0.000998
95 0.000954
98 0.002008
102 0.001995
106 0.001993
111 0.001962
116 0.001974
120 0.002019
126 0.001995
132 0.001998
138 0.002009
147 0.002026
153 0.002068
157 0.000978
162 0.001995
169 0.001995
174 0.000999
177 0.002024
147 0.002043
104 0.001994
88 0.001995
87 0.001995
84 0.001027
82 0.00198
82 0.001001
85 0.001023
93 0.001994
101 0.000999
103 0.000999
106 0.001999
110 0.000997
115 0.002052
122 0.001995
128 0.000998
135 0.001963
140 0.002054
144 0.000998
148 0.000978
153 0.000994
159 0.000998
164 0.000997
169 0.001005
174 0.001
178 0.000997
184 0.000998
188 0.000996
194 0.001995
198 0.000984
194 0.002023
147 0.000997
115 0.002021
107 0.000998
107 0.000998
107 0.001036
104 0.000998
103 0.000998
107 0.000998
109 0.030917
113 0.0
125 0.001022
129 0.001038
133 0.001995
138 0.000998
142 0.001995
146 0.000997
150 0.000997
153 0.001013
159 0.001001
164 0.001016
169 0.001039
173 0.0
176 0.0
180 0.0
184 0.001996
189 0.002001
193 0.001965
177 0.001996
136 0.00102
118 0.000992
116 0.001002
116 0.001
115 0.000982
115 0.000999
119 0.000998
125 0.001035
129 0.000998
131 0.000997
132 0.001008
134 0.000988
138 0.000998
143 0.000997
148 0.000991
153 0.0
158 0.000997
161 0.000985
164 0.0
168 0.001005
171 0.000997
178 0.001003
182 0.000998
178 0.000998
143 0.000999
118 0.000969
111 0.001965
111 0.0
110 0.0
109 0.0
110 0.0
115 0.0
121 0.000998
126 0.000998
127 0.0
129 0.000985
132 0.000997
137 0.001001
143 0.000975
149 0.00105
155 0.000999
159 0.0
163 0.0
168 0.000997
172 0.000998
177 0.000997
181 0.000998
185 0.0
189 0.0
193 0.0
196 0.0
145 0.0
106 0.001047
102 0.000945
101 0.0
100 0.000991
88 0.000998
86 0.0
89 0.0
97 0.0
105 0.0
109 0.0
111 0.0
117 0.0
123 0.0
131 0.000924
138 0.00101
145 0.000997
151 0.000998
157 0.0
165 0.001053
171 0.0
177 0.0
184 0.0
190 0.0
202 0.000993
206 0.0
212 0.0
217 0.0
220 0.0
223 0.0
226 0.0
229 0.000966
98 0.0
196 0.0
113 0.0
83 0.0
78 0.0
77 0.0
72 0.0
70 0.0
74 0.0
83 0.0
91 0.0
97 0.0
100 0.0
104 0.0
111 0.0
119 0.0
133 0.000998
143 0.000945
151 0.0
159 0.0
166 0.0
175 0.0
180 0.001
188 0.000998
195 0.000999
200 0.0
206 0.0
209 0.000996
215 0.00097
218 0.000998
221 0.000997
224 0.0
226 0.0
228 0.0
225 0.0
129 0.001029
79 0.0
71 0.0
72 0.0
71 0.0
68 0.000998
71 0.00097
84 0.002009
94 0.000971
100 0.0
101 0.0
108 0.0
116 0.001027
126 0.001037
136 0.0
144 0.0
166 0.0
171 0.0
179 0.000966
184 0.000998
190 0.0
194 0.000998
200 0.0
204 0.001046
207 0.001045
211 0.0
191 0.0
105 0.0
61 0.000992
61 0.000997
63 0.000997
62 0.00101
63 0.0
72 0.0
81 0.000982
95 0.002022
100 0.001999
102 0.000997
110 0.0
120 0.0
138 0.0
148 0.0
156 0.000951
164 0.000999
173 0.0
179 0.0
185 0.0
190 0.000998
195 0.000997
201 0.0
205 0.0
209 0.000998
187 0.0
94 0.0
52 0.001017
46 0.000985
47 0.0
44 0.0
44 0.0
46 0.000998
57 0.001014
74 0.0
83 0.001006
88 0.0
98 0.0
108 0.0
120 0.001015
131 0.000997
144 0.0
153 0.0
161 0.00098
169 0.000991
176 0.001026
184 0.000956
190 0.0
196 0.0
204 0.000998
209 0.000941
213 0.001994
217 0.001996
222 0.0
226 0.0
229 0.000996
232 0.001056
228 0.001031
127 0.001036
53 0.001003
38 0.000993
38 0.0
35 0.0
34 0.002005
37 0.002018
54 0.001017
67 0.000998
76 0.000997
82 0.001995
88 0.002003
101 0.000971
112 0.000989
123 0.0
140 0.001004
149 0.000997
157 0.00104
165 0.00202
174 0.000994
180 0.001013
186 0.0
192 0.001995
198 0.001996
205 0.0
209 0.0
213 0.000959
220 0.0
224 0.0
228 0.001925
231 0.001998
233 0.002038
203 0.001995
100 0.000998
46 0.000993
37 0.001996
39 0.001997
38 0.000986
38 0.001007
52 0.00099
67 0.000988
80 0.000969
88 0.001989
93 0.001995
104 0.000957
114 0.000999
125 0.001017
135 0.001995
144 0.001995
155 0.000998
163 0.000993
175 0.000928
181 0.001991
187 0.001032
193 0.001995
199 0.002026
205 0.001082
209 0.000998
214 0.001997
218 0.002992
219 0.002
173 0.001062
81 0.00097
42 0.000984
45 0.000967
48 0.000951
49 0.002031
56 0.001995
74 0.000997
86 0.001007
93 0.000998
97 0.00206
102 0.00199
114 0.001996
123 0.001995
139 0.000945
148 0.000999
155 0.001002
163 0.001995
170 0.001995
178 0.001003
182 0.012972
189 0.001048
193 0.001995
195 0.002996
147 0.002025
57 0.002001
21 0.000983
20 0.000975
20 0.00206
19 0.001995
24 0.003004
41 0.001015
54 0.002009
62 0.001007
66 0.001955
72 0.002992
84 0.002058
96 0.002036
114 0.001039
125 0.000966
134 0.002043
143 0.002025
151 0.003026
161 0.001004
168 0.000996
175 0.001963
181 0.002998
184 0.002992
124 0.002039
39 0.001997
11 0.000998
9 0.002028
7 0.001998
6 0.002992
7 0.003034
19 0.000946
32 0.000941
42 0.001005
48 0.003
54 0.003043
65 0.001944
76 0.000989
95 0.001981
106 0.002002
115 0.00199
125 0.003026
134 0.003035
145 0.002007
152 0.001996
160 0.001947
166 0.002994
172 0.002992
178 0.001032
183 0.00197
190 0.001945
194 0.002012
194 0.002009
145 0.003023
65 0.00303
44 0.002008
46 0.001996
47 0.001995
47 0.002992
48 0.003022
55 0.001029
66 0.002016
80 0.001991
85 0.002021
89 0.001989
95 0.002992
104 0.003042
115 0.00203
123 0.002076
132 0.001989
139 0.002992
146 0.00399
156 0.00203
163 0.00204
174 0.00179
180 0.001983
185 0.001982
191 0.003038
195 0.002992
200 0.002015
204 0.001995
206 0.002073
208 0.003027
208 0.003024
130 0.002023
84 0.003049
80 0.00199
84 0.00205
86 0.002022
87 0.003989
90 0.002991
101 0.001993
109 0.002058
113 0.002017
114 0.002992
118 0.002972
125 0.003001
132 0.003074
143 0.003044
148 0.003026
154 0.003029
159 0.003989
164 0.00304
169 0.003036
176 0.002007
181 0.002002
186 0.001999
192 0.003989
196 0.00399
199 0.002995
132 0.00399
91 0.002998
89 0.003045
93 0.003027
95 0.004033
96 0.004023
99 0.001976
106 0.002007
114 0.001981
119 0.003957
121 0.002992
124 0.002992
131 0.00396
140 0.002986
147 0.003034
153 0.003043
158 0.00399
164 0.00404
171 0.003044
176 0.00303
182 0.003024
187 0.004039
191 0.004986
198 0.002992
204 0.003999
205 0.002975
153 0.002876
100 0.00304
88 0.004024
89 0.004062
91 0.003029
91 0.001994
91 0.002039
93 0.004024
100 0.004987
111 0.002996
116 0.004046
117 0.019947
118 0.0
120 0.0
136 0.001019
142 0.004028
150 0.003041
156 0.00303
161 0.002035
167 0.003957
173 0.005
180 0.003017
188 0.00399
195 0.003003
200 0.003008
204 0.002986
208 0.003991
210 0.003988
213 0.002991
215 0.002961
216 0.002992
217 0.003989
193 0.005022
94 0.003982
77 0.004987
80 0.00299
82 0.002971
80 0.002988
80 0.003996
83 0.004009
93 0.003994
100 0.003015
104 0.003036
107 0.004986
110 0.004989
117 0.003983
126 0.004986
135 0.004018
141 0.003049
147 0.003003
154 0.004988
160 0.004048
168 0.002992
174 0.002989
180 0.002992
185 0.005025
190 0.004986
195 0.004015
199 0.004987
202 0.004039
204 0.002961
205 0.004024
207 0.004934
208 0.004986
204 0.003025
141 0.003004
79 0.003992
67 0.004989
69 0.004986
73 0.004001
71 0.005023
73 0.003926
80 0.004031
89 0.004044
96 0.005016
98 0.004989
102 0.003022
108 0.002983
115 0.004006
124 0.005015
132 0.004987
141 0.003999
150 0.004986
157 0.00403
164 0.004014
169 0.004007
174 0.005029
179 0.005018
184 0.003071
186 0.004002
189 0.003993
192 0.004986
193 0.004986
190 0.004099
98 0.004951
57 0.003978
57 0.004043
62 0.004019
65 0.004987
65 0.006018
70 0.004989
81 0.003919
89 0.004023
94 0.006018
96 0.005033
100 0.003939
110 0.005021
123 0.00403
133 0.003995
141 0.004021
148 0.004989
154 0.005021
162 0.004029
167 0.00404
171 0.004031
176 0.006014
179 0.00603
183 0.004013
187 0.004995
188 0.003991
141 0.003983
63 0.003987
43 0.005018
43 0.005019
47 0.006022
47 0.005028
46 0.005023
50 0.005031
60 0.006018
71 0.005957
81 0.004984
85 0.004987
93 0.003987
102 0.003969
113 0.003996
124 0.006
133 0.005984
144 0.005024
151 0.004994
158 0.004971
164 0.005985
169 0.006066
177 0.004986
181 0.005033
186 0.004984
190 0.005023
194 0.004982
198 0.00608
201 0.006025
204 0.004987
200 0.00501
128 0.005001
49 0.006045
32 0.005984
36 0.006015
36 0.005033
35 0.004991
38 0.004987
48 0.004983
62 0.005984
72 0.005983
80 0.005013
85 0.005029
93 0.005062
99 0.01197
115 0.005991
132 0.006025
141 0.005984
151 0.004946
157 0.004987
163 0.004986
168 0.005984
174 0.005984
181 0.005005
185 0.004992
190 0.00505
194 0.005985
199 0.006033
205 0.006982
209 0.006026
213 0.006005
216 0.005017
214 0.004976
160 0.006018
59 0.006962
29 0.005009
32 0.004968
36 0.004954
36 0.006009
37 0.006008
51 0.005984
65 0.006034
79 0.00601
84 0.006042
91 0.005959
99 0.00702
110 0.006982
124 0.004997
134 0.005003
143 0.00503
151 0.005984
157 0.005984
167 0.005986
173 0.006982
181 0.006051
186 0.006013
191 0.005018
196 0.006981
200 0.006981
206 0.004923
210 0.004989
209 0.005027
168 0.005984
68 0.005985
33 0.00699
39 0.006986
44 0.005987
46 0.006037
52 0.006033
65 0.006987
76 0.007009
83 0.005034
84 0.005038
89 0.005002
97 0.006968
108 0.006981
125 0.006973
134 0.006981
144 0.005993
150 0.005988
156 0.005978
161 0.006981
166 0.007032
172 0.004998
172 0.004987
115 0.005983
40 0.007978
35 0.007013
41 0.006982
44 0.007027
47 0.005994
53 0.006033
65 0.006031
74 0.00704
79 0.007033
82 0.006019
87 0.006015
95 0.005018
108 0.00798
117 0.007955
127 0.006981
134 0.007017
142 0.006006
147 0.005998
154 0.006005
161 0.007024
146 0.007055
71 0.005956
55 0.004991
57 0.005011
60 0.006977
61 0.008005
63 0.007978
71 0.007981
81 0.005999
88 0.006015
92 0.006005
95 0.006982
99 0.006972
108 0.005984
115 0.006017
122 0.007014
129 0.007979
135 0.007952
146 0.007972
151 0.007959
157 0.005992
163 0.006957
170 0.006187
167 0.006998
118 0.00798
86 0.00798
80 0.007015
83 0.007027
84 0.006983
83 0.00799
85 0.005986
95 0.007993
101 0.007979
108 0.006016
111 0.005952
114 0.005989
118 0.006981
124 0.007979
131 0.007019
137 0.006993
142 0.006973
147 0.007979
156 0.007023
162 0.007959
168 0.007958
173 0.005988
178 0.005985
183 0.004985
188 0.006973
193 0.00797
198 0.006981
203 0.006981
206 0.006982
173 0.00798
104 0.006016
101 0.007965
103 0.007977
104 0.005971
103 0.005986
103 0.02289
105 0.00096
114 0.007918
123 0.006985
126 0.006993
127 0.006966
130 0.007981
137 0.007023
143 0.007931
145 0.007972
151 0.006952
155 0.005979
159 0.005981
165 0.007031
169 0.007012
173 0.006983
178 0.006972
183 0.006972
188 0.00795
194 0.00701
198 0.007947
203 0.006978
208 0.007013
210 0.005989
152 0.006972
118 0.007011
112 0.007021
114 0.006993
116 0.006978
114 0.006956
113 0.00798
117 0.007046
127 0.007978
132 0.007015
134 0.006963
136 0.007
138 0.006975
144 0.007014
148 0.007016
152 0.006987
156 0.006989
160 0.006986
165 0.007022
169 0.007003
175 0.007983
179 0.006979
184 0.006983
188 0.006963
193 0.006992
197 0.006998
202 0.006947
162 0.006976
133 0.006978
112 0.006959
114 0.006989
117 0.006014
116 0.007987
117 0.007045
121 0.007003
129 0.006014
133 0.006956
134 0.006982
135 0.007013
140 0.00699
143 0.006956
150 0.006941
153 0.006997
160 0.007014
162 0.007979
167 0.007029
170 0.006983
174 0.006986
180 0.007018
186 0.007015
188 0.007014
140 0.006987
109 0.00697
102 0.006962
103 0.00698
103 0.006974
101 0.006981
101 0.006981
105 0.006976
114 0.007015
118 0.007013
119 0.006994
121 0.007023
126 0.006941
131 0.006977
136 0.006988
141 0.005999
147 0.006978
153 0.007012
158 0.007014
164 0.006015
169 0.005978
173 0.00704
177 0.006984
183 0.007018
188 0.006977
190 0.006992
142 0.006985
97 0.006031
84 0.006979
84 0.00702
83 0.006016
79 0.006015
78 0.005979
82 0.006018
89 0.006026
96 0.007013
99 0.00698
101 0.007008
105 0.00698
110 0.007024
120 0.006016
126 0.005956
131 0.006016
139 0.006016
144 0.006015
150 0.006014
155 0.005975
161 0.006018
169 0.007022
175 0.006987
181 0.006968
185 0.006003
193 0.006035
197 0.006015
201 0.006015
204 0.005987
190 0.005991
113 0.006016
76 0.006016
71 0.005961
73 0.00698
73 0.006021
71 0.006013
70 0.00601
80 0.006017
88 0.005967
94 0.005987
96 0.006018
101 0.006019
107 0.005975
113 0.005985
120 0.006016
126 0.00603
135 0.007021
141 0.00598
147 0.006005
154 0.009972
161 0.002986
170 0.005951
176 0.006018
183 0.005986
189 0.007016
193 0.006034
197 0.006031
201 0.006031
204 0.005984
205 0.006019
200 0.009974
133 0.006982
78 0.002989
84 0.006033
86 0.005985
86 0.005037
88 0.005017
95 0.006006
104 0.006016
110 0.006018
112 0.006017
115 0.006014
120 0.005989
133 0.005949
140 0.006018
146 0.006011
151 0.006015
158 0.005016
163 0.004985
169 0.004989
174 0.006041
179 0.00602
186 0.006026
191 0.006022
195 0.006019
137 0.006014
90 0.006031
81 0.006016
85 0.006017
89 0.004987
90 0.005016
91 0.005024
96 0.005029
105 0.005985
113 0.005999
116 0.006011
117 0.005945
126 0.006014
133 0.006013
141 0.005986
148 0.005023
156 0.005026
162 0.005018
168 0.004988
173 0.005017
177 0.006042
184 0.006007
190 0.005967
194 0.005027
141 0.005024
88 0.004993
76 0.00502
79 0.00502
82 0.004998
81 0.005036
82 0.005017
85 0.005018
92 0.005016
103 0.006022
107 0.004972
109 0.004989
116 0.006015
123 0.006016
132 0.004968
138 0.004993
147 0.005019
154 0.005019
160 0.004989
165 0.00497
171 0.005019
179 0.004987
184 0.004003
189 0.004994
195 0.005964
198 0.005015
201 0.004987
201 0.00502
128 0.00502
76 0.005018
66 0.005016
69 0.005038
71 0.005017
69 0.003972
69 0.00395
72 0.004941
86 0.004986
92 0.005028
96 0.005051
98 0.005019
104 0.005028
111 0.005017
119 0.00502
126 0.005021
133 0.00402
142 0.004971
149 0.003964
155 0.004985
166 0.003989
171 0.00502
177 0.005101
182 0.004935
188 0.004987
191 0.004977
194 0.003988
197 0.00406
198 0.005033
197 0.004981
136 0.004036
72 0.003962
60 0.00398
63 0.003996
63 0.004023
62 0.005026
63 0.004987
69 0.004986
79 0.005083
86 0.005017
90 0.004968
95 0.004021
100 0.004031
108 0.004003
121 0.004021
129 0.004035
137 0.003956
144 0.004995
153 0.005037
159 0.005017
165 0.004992
171 0.004992
176 0.005034
182 0.004019
186 0.004017
189 0.003988
193 0.003962
193 0.003989
151 0.003991
77 0.004063
59 0.004054
62 0.003988
66 0.005015
67 0.005025
67 0.003959
72 0.004017
85 0.00404
91 0.004003
95 0.003984
98 0.004046
105 0.00399
113 0.003969
123 0.003974
133 0.004023
140 0.004021
147 0.005039
152 0.004041
158 0.003971
165 0.003982
170 0.00394
178 0.004022
179 0.011968
180 0.0
167 0.0
56 0.004043
57 0.003992
60 0.00398
62 0.00399
62 0.002982
66 0.003026
79 0.003989
87 0.003989
93 0.004003
96 0.004023
102 0.004988
111 0.004024
121 0.003972
132 0.004021
140 0.004031
148 0.004052
154 0.003957
161 0.003023
168 0.002995
173 0.003943
180 0.003992
183 0.004044
182 0.002993
121 0.002989
62 0.004045
50 0.004031
53 0.00402
54 0.004028
53 0.003997
53 0.002978
60 0.004026
70 0.002974
83 0.004027
87 0.003026
90 0.00404
97 0.004067
106 0.003991
118 0.002958
127 0.003039
136 0.002993
143 0.003026
151 0.003988
160 0.003989
167 0.00399
176 0.003991
180 0.004022
185 0.004032
188 0.003967
191 0.003991
194 0.004024
183 0.002993
99 0.002959
54 0.004065
48 0.003028
51 0.003029
51 0.00302
49 0.003046
53 0.003022
62 0.003042
73 0.003991
80 0.004058
85 0.00398
90 0.002994
98 0.00302
107 0.002944
117 0.003049
129 0.002975
138 0.003044
151 0.003992
158 0.003025
165 0.002992
171 0.003025
177 0.004045
183 0.003992
187 0.003028
190 0.002994
193 0.003025
196 0.003024
199 0.003003
194 0.003011
73 0.003026
52 0.00303
53 0.003028
56 0.002977
57 0.002995
57 0.003995
60 0.003006
70 0.003032
81 0.003027
88 0.003028
94 0.003017
98 0.002985
112 0.003018
121 0.003022
131 0.002987
140 0.002953
148 0.00406
158 0.002949
164 0.002955
171 0.003024
176 0.003025
181 0.002991
187 0.002991
190 0.003024
195 0.003014
195 0.003994
143 0.003024
77 0.002991
63 0.003959
69 0.003041
73 0.002993
76 0.003058
78 0.003023
86 0.002996
100 0.003001
105 0.003035
108 0.00399
113 0.004041
121 0.003027
130 0.002993
139 0.002977
150 0.00304
157 0.003022
163 0.001986
168 0.001995
174 0.002001
180 0.001849
185 0.00196
182 0.003036
116 0.003036
72 0.002996
65 0.003021
69 0.002989
72 0.002972
72 0.002992
75 0.001987
82 0.002041
93 0.00196
100 0.002036
104 0.001965
108 0.002063
118 0.002992
127 0.002976
135 0.003023
144 0.002992
151 0.00303
160 0.002993
166 0.001978
171 0.001957
176 0.002051
181 0.000966
188 0.001943
143 0.001996
71 0.001995
62 0.001995
64 0.002077
66 0.002992
66 0.001999
66 0.002025
71 0.00203
80 0.002016
89 0.002019
94 0.001966
98 0.000964
105 0.002018
115 0.001986
123 0.001995
131 0.001955
139 0.001995
146 0.001969
156 0.001996
162 0.002051
169 0.001997
175 0.001994
181 0.001992
187 0.001993
193 0.001995
198 0.001986
196 0.002001
130 0.001996
72 0.001995
60 0.001999
63 0.000995
63 0.000943
62 0.000932
62 0.001995
65 0.000998
77 0.001983
88 0.001995
93 0.001995
97 0.002031
103 0.002031
111 0.002044
120 0.001995
131 0.001005
139 0.001012
146 0.001033
154 0.000963
160 0.000999
169 0.001994
178 0.000997
185 0.000998
190 0.000997
194 0.001996
198 0.000997
201 0.002002
195 0.001982
120 0.001966
72 0.002003
66 0.001994
69 0.001001
72 0.001013
70 0.001003
76 0.001003
87 0.001001
97 0.000998
102 0.000997
102 0.000974
107 0.001038
116 0.001999
125 0.002053
135 0.001994
144 0.002027
153 0.000947
159 0.001996
164 0.001996
168 0.001003
173 0.000906
179 0.000998
185 0.000998
163 0.001975
97 0.00202
71 0.001056
69 0.001951
71 0.0
72 0.001938
73 0.001997
81 0.000999
91 0.001008
98 0.000998
102 0.001013
103 0.000998
108 0.002025
115 0.000997
124 0.001001
133 0.001038
140 0.000933
148 0.0
155 0.001994
162 0.002029
169 0.001005
174 0.000996
143 0.000983
85 0.001002
64 0.000997
64 0.000997
65 0.000997
65 0.000967
64 0.001048
69 0.001033
82 0.001996
92 0.002029
96 0.002027
99 0.0
105 0.001009
113 0.000998
124 0.000998
132 0.001032
141 0.000998
149 0.001
156 0.00097
165 0.0
172 0.002031
180 0.000997
187 0.0
190 0.0
151 0.0
87 0.000997
67 0.001044
68 0.001032
70 0.0
70 0.000963
69 0.0
74 0.0
86 0.00201
96 0.0
101 0.0
104 0.0
110 0.0
117 0.0
125 0.0
135 0.000999
142 0.001031
149 0.001993
155 0.0
162 0.0
173 0.0
179 0.0
186 0.0
192 0.000998
197 0.0
202 0.0
204 0.0
128 0.000964
85 0.0
80 0.0
83 0.0
85 0.000951
86 0.000977
88 0.000998
98 0.000997
106 0.0
112 0.0
115 0.0
120 0.0
129 0.0
134 0.0
150 0.0
157 0.001006
169 0.0
175 0.0
184 0.0
190 0.001044
196 0.000997
201 0.0
206 0.0
211 0.0
215 0.0
218 0.0
189 0.0
115 0.000996
92 0.0
98 0.0
101 0.0
102 0.000998
104 0.0
111 0.0
121 0.0
127 0.0
129 0.0
131 0.0
137 0.0
147 0.000994
158 0.0
164 0.0
170 0.0
175 0.0
179 0.0
182 0.0
187 0.000994
196 0.000993
200 0.0
174 0.000963
104 0.001006
93 0.000967
97 0.0
101 0.0
104 0.0
107 0.0
117 0.0
125 0.0
128 0.000973
131 0.000998
134 0.00106
140 0.000964
151 0.0
157 0.000999
172 0.0
176 0.000956
182 0.002045
187 0.00104
195 0.000934
201 0.0
195 0.0
134 0.001997
96 0.002026
91 0.0
94 0.0
95 0.001015
97 0.0
100 0.0
108 0.000963
117 0.001956
123 0.0
125 0.001026
128 0.0
135 0.00201
143 0.002003
153 0.000981
160 0.0
167 0.0
177 0.0
183 0.0
188 0.002027
193 0.002026
199 0.0
204 0.0
203 0.000973
141 0.000964
88 0.001004
78 0.0
81 0.000981
83 0.000997
83 0.000997
85 0.0
94 0.002028
102 0.002021
110 0.0
112 0.000997
116 0.0
121 0.001971
129 0.002037
140 0.000965
147 0.00097
155 0.0
165 0.00097
172 0.0
178 0.002016
183 0.002055
191 0.0
196 0.0
200 0.001016
204 0.002027
206 0.002057
209 0.000998
206 0.000997
111 0.000966
66 0.000997
68 0.001013
71 0.000999
71 0.002031
71 0.0
75 0.0
83 0.000948
93 0.002031
97 0.002058
101 0.001965
105 0.000943
112 0.001017
126 0.0
134 0.0
141 0.001077
148 0.00206
156 0.000987
162 0.0
168 0.000969
174 0.002038
179 0.001996
186 0.0
190 0.0
193 0.0
197 0.0
162 0.000995
85 0.000951
62 0.000998
62 0.001979
67 0.0
69 0.000963
70 0.0
75 0.002022
84 0.001037
93 0.0
95 0.000968
99 0.0
107 0.0
115 0.0
124 0.001995
133 0.001995
142 0.000959
148 0.0
154 0.000968
159 0.002037
164 0.002032
171 0.0
177 0.00095
138 0.0
73 0.0
54 0.0
53 0.001995
56 0.001972
56 0.000949
56 0.00099
61 0.0
71 0.002033
80 0.002053
85 0.001
86 0.000972
96 0.00094
106 0.0
116 0.002016
125 0.001949
133 0.002002
143 0.000954
147 0.001835
155 0.0
161 0.001998
167 0.003039
174 0.001006
177 0.0
83 0.0
48 0.0
42 0.000998
43 0.002044
42 0.002043
40 0.000946
41 0.000975
49 0.0
61 0.002054
70 0.002041
76 0.0
81 0.0
93 0.000986
103 0.00098
113 0.000984
123 0.002954
132 0.002042
143 0.0
151 0.0
159 0.000954
166 0.002995
172 0.002993
180 0.0
185 0.0
193 0.0
196 0.001027
199 0.002002
186 0.001994
98 0.001913
44 0.0
41 0.000996
43 0.0
42 0.002014
40 0.002996
42 0.000957
51 0.000975
68 0.001991
74 0.001995
78 0.00198
84 0.00307
92 0.002946
105 0.001996
115 0.0
125 0.0
135 0.002995
144 0.002035
155 0.000984
162 0.001991
174 0.002003
181 0.001987
186 0.002008
192 0.003033
196 0.00303
201 0.001988
204 0.0
208 0.002995
210 0.00399
193 0.003023
77 0.001985
50 0.002026
52 0.00098
53 0.000918
52 0.000988
52 0.002995
59 0.002961
75 0.002027
83 0.001964
86 0.002014
89 0.003049
96 0.003037
109 0.000955
119 0.0
136 0.001963
144 0.002001
152 0.001995
159 0.00303
166 0.003032
174 0.000992
180 0.002002
185 0.001989
191 0.002993
195 0.00402
198 0.003023
148 0.002032
54 0.002006
50 0.001995
53 0.002009
55 0.002948
56 0.003001
61 0.002991
73 0.002036
84 0.001989
90 0.00303
92 0.003047
98 0.00198
107 0.003019
126 0.002002
136 0.002001
146 0.001996
154 0.002994
162 0.002943
172 0.002994
178 0.001975
184 0.001921
190 0.003023
195 0.003986
200 0.001964
163 0.001994
54 0.002006
45 0.001993
46 0.001977
47 0.004039
46 0.004017
46 0.004021
57 0.001999
70 0.001998
80 0.001994
85 0.00399
89 0.003037
96 0.001962
115 0.004026
130 0.00196
141 0.001977
150 0.002995
160 0.003991
168 0.003992
178 0.003009
185 0.000973
192 0.001038
197 0.003027
202 0.003992
208 0.001983
214 0.003999
218 0.001962
201 0.002012
102 0.002959
51 0.004009
43 0.004008
44 0.002954
43 0.003003
41 0.002961
43 0.00496
52 0.00399
70 0.002979
82 0.003989
89 0.001995
96 0.00199
106 0.002007
118 0.004016
130 0.00404
144 0.003001
154 0.002993
163 0.002959
172 0.00502
179 0.005034
189 0.002952
196 0.004023
203 0.001974
208 0.002979
213 0.001959
218 0.003991
222 0.004024
228 0.001999
231 0.003014
232 0.001993
190 0.005029
84 0.005013
46 0.001938
47 0.004017
48 0.001981
46 0.002992
49 0.001985
60 0.003992
74 0.004988
89 0.002959
94 0.002967
100 0.001961
108 0.004989
120 0.005025
135 0.002989
150 0.003988
162 0.003008
171 0.002003
178 0.002953
185 0.004038
191 0.004026
199 0.002944
204 0.002955
209 0.002943
214 0.005017
218 0.004987
224 0.002993
228 0.005032
186 0.002982
88 0.001994
54 0.002001
53 0.004026
59 0.004039
63 0.003002
66 0.00296
76 0.002958
90 0.004956
101 0.004991
106 0.002999
111 0.005046
123 0.002981
135 0.00204
146 0.002992
155 0.004982
164 0.004989
174 0.003989
180 0.00304
186 0.003028
192 0.00499
197 0.004998
204 0.003026
211 0.00502
200 0.003001
110 0.003009
51 0.00296
42 0.005986
46 0.004987
48 0.003988
50 0.003043
56 0.003035
69 0.004988
83 0.005025
94 0.00298
100 0.005007
110 0.003025
121 0.003995
133 0.003001
144 0.005986
154 0.004994
165 0.003979
172 0.002966
179 0.003043
186 0.005016
192 0.004989
199 0.002992
206 0.005019
208 0.00299
155 0.002986
63 0.003011
36 0.005986
33 0.005986
34 0.004003
33 0.003959
34 0.003953
40 0.005055
54 0.004992
72 0.004009
82 0.004989
89 0.002957
99 0.003014
111 0.00303
123 0.005002
134 0.005939
148 0.003965
158 0.004019
166 0.004025
173 0.005992
180 0.005016
189 0.003994
197 0.005067
204 0.004036
209 0.002968
214 0.002991
219 0.005987
221 0.005986
172 0.003987
71 0.003985
40 0.003953
38 0.006024
40 0.00603
39 0.004984
41 0.00503
53 0.004015
67 0.003032
78 0.003047
85 0.004009
91 0.005987
98 0.006027
112 0.003975
124 0.003983
136 0.00399
146 0.006011
155 0.006004
169 0.005001
176 0.005036
184 0.004001
189 0.003997
195 0.003958
200 0.005986
205 0.005986
210 0.003993
215 0.003956
218 0.003952
218 0.007009
171 0.006026
55 0.004992
50 0.005987
55 0.004955
57 0.004018
57 0.004977
63 0.005999
75 0.005973
90 0.003994
96 0.004005
98 0.003982
103 0.005955
112 0.006953
130 0.005995
141 0.007009
152 0.004995
160 0.004008
168 0.006019
174 0.00601
179 0.00601
187 0.003984
191 0.003987
196 0.004008
200 0.00603
194 0.007029
72 0.006032
49 0.006984
49 0.003988
52 0.004967
53 0.004964
55 0.005986
63 0.005986
80 0.003919
88 0.003945
92 0.004009
95 0.007007
101 0.006021
118 0.006018
130 0.005983
143 0.004001
152 0.003984
160 0.004988
167 0.006999
174 0.007014
182 0.004954
187 0.004007
192 0.004997
194 0.006028
141 0.006033
46 0.006014
39 0.006984
39 0.003989
38 0.00495
37 0.004997
41 0.007017
51 0.006983
66 0.005001
74 0.005008
78 0.006026
83 0.006037
91 0.006025
110 0.006008
122 0.006952
135 0.004998
145 0.004974
154 0.004959
166 0.007995
171 0.00699
180 0.005988
187 0.004955
192 0.004971
197 0.006983
202 0.005991
207 0.006948
153 0.005977
51 0.004957
36 0.004963
34 0.004986
32 0.007016
30 0.007014
28 0.004967
35 0.005956
47 0.004934
59 0.006041
67 0.007007
75 0.005986
83 0.006982
97 0.004949
109 0.00496
120 0.004992
131 0.007001
141 0.007048
154 0.004019
163 0.005974
171 0.005938
178 0.007981
185 0.007978
196 0.006986
202 0.006994
209 0.004955
214 0.00493
218 0.004947
222 0.006951
197 0.006982
71 0.00596
45 0.005962
42 0.005941
42 0.007969
41 0.007979
41 0.00798
48 0.00702
66 0.005954
76 0.004936
81 0.004993
86 0.007018
94 0.006972
108 0.005016
119 0.004985
131 0.004954
141 0.007981
151 0.007979
166 0.007978
173 0.006983
183 0.005949
190 0.005943
196 0.004943
203 0.007972
207 0.00798
213 0.004961
215 0.005954
168 0.005952
64 0.00799
51 0.007978
54 0.007952
57 0.007979
58 0.00502
65 0.005033
78 0.005983
92 0.007977
96 0.007978
98 0.005985
104 0.005986
113 0.005954
125 0.005955
137 0.00798
155 0.005963
167 0.007969
174 0.007958
181 0.005965
187 0.005976
193 0.005946
201 0.007923
204 0.007946
171 0.005945
82 0.005949
51 0.0
47 0.00794
48 0.005938
48 0.00798
50 0.007978
63 0.005977
77 0.006945
87 0.00501
91 0.007
94 0.007979
104 0.005956
116 0.005952
128 0.004974
140 0.00798
158 0.004987
167 0.007984
177 0.00699
184 0.00699
191 0.006946
197 0.006948
205 0.00798
207 0.007979
129 0.005949
58 0.005986
41 0.005961
38 0.007979
36 0.006001
34 0.007977
38 0.006971
50 0.006949
68 0.006956
74 0.006951
81 0.007014
85 0.007978
97 0.005949
109 0.005983
122 0.00594
138 0.007973
153 0.005984
166 0.00798
172 0.007985
183 0.00694
191 0.006947
198 0.004988
206 0.007025
212 0.007008
218 0.005996
223 0.006019
228 0.005955
226 0.007979
82 0.005967
40 0.007976
36 0.00801
35 0.005939
33 0.005926
31 0.006935
37 0.006994
51 0.007011
65 0.005982
77 0.006987
81 0.006951
90 0.006993
105 0.006947
118 0.007882
131 0.007973
146 0.005964
157 0.006977
167 0.005969
180 0.007037
185 0.007979
196 0.006951
203 0.006965
209 0.006934
218 0.00699
225 0.006952
232 0.006988
236 0.007978
241 0.006955
240 0.006971
181 0.005996
59 0.007014
43 0.007008
43 0.006949
44 0.006931
43 0.006938
45 0.007015
62 0.006976
80 0.006979
89 0.00798
93 0.005978
99 0.006983
110 0.006947
128 0.007976
140 0.006981
155 0.006943
162 0.006949
172 0.006981
183 0.006996
195 0.005984
202 0.00698
208 0.005998
216 0.005989
222 0.005971
225 0.006987
228 0.007987
192 0.007013
87 0.006943
44 0.007017
45 0.007003
50 0.007017
53 0.00695
62 0.00703
78 0.007025
92 0.006943
103 0.006974
106 0.006962
113 0.006976
123 0.006973
140 0.006956
152 0.006947
162 0.00598
172 0.006978
185 0.005957
193 0.006975
200 0.006999
206 0.006924
214 0.006935
219 0.005987
221 0.00598
179 0.00599
58 0.006949
38 0.005976
38 0.005968
41 0.007017
43 0.006028
50 0.006018
65 0.00703
81 0.00695
92 0.006949
99 0.00697
106 0.007025
116 0.006978
133 0.00596
146 0.005997
157 0.006975
167 0.006029
181 0.006027
190 0.006015
197 0.006959
203 0.006981
212 0.00694
214 0.00095
223 0.005991
228 0.007012
226 0.006015
121 0.005984
45 0.005973
29 0.005984
29 0.006018
29 0.005989
29 0.00604
35 0.006033
56 0.006958
72 0.005972
83 0.006001
90 0.005983
98 0.005951
113 0.006015
126 0.005978
139 0.005973
157 0.006994
167 0.006016
176 0.006037
185 0.005995
196 0.00599
203 0.006001
209 0.005993
215 0.006016
221 0.005997
228 0.005911
233 0.005996
239 0.00599
245 0.006014
235 0.006023
145 0.004979
53 0.004987
30 0.00503
32 0.005016
33 0.006018
33 0.005939
36 0.005979
54 0.006029
71 0.006009
84 0.005962
98 0.006006
108 0.005999
119 0.005985
131 0.004997
147 0.004988
157 0.00503
167 0.005037
176 0.004991
184 0.005966
194 0.005016
201 0.005972
208 0.005968
218 0.006029
224 0.006011
229 0.005989
234 0.005989
241 0.005972
243 0.005976
177 0.005028
133 0.005016
93 0.005028
85 0.005008
88 0.005016
90 0.004981
94 0.006035
100 0.006019
108 0.006016
113 0.004977
117 0.00597
120 0.005017
124 0.00498
129 0.005018
134 0.005005
141 0.004986
145 0.004981
150 0.006017
156 0.005985
159 0.006034
162 0.005001
165 0.00499
168 0.005022
171 0.005934
170 0.005018
144 0.005031
95 0.004989
78 0.004972
78 0.005022
80 0.00502
82 0.004958
87 0.00601
94 0.004913
101 0.005984
107 0.006006
110 0.004986
114 0.004987
119 0.004986
125 0.005016
133 0.005021
137 0.005018
142 0.005017
149 0.004992
153 0.004984
157 0.004988
160 0.003993
164 0.005985
167 0.005983
164 0.004991
126 0.005031
83 0.005002
71 0.004969
71 0.005084
70 0.005017
70 0.004988
75 0.005019
82 0.004986
90 0.004985
96 0.003997
99 0.004996
103 0.004983
109 0.005027
116 0.004999
124 0.004988
130 0.004959
135 0.004947
144 0.004951
148 0.005035
152 0.004979
156 0.004988
160 0.004964
163 0.004032
167 0.005004
170 0.004019
172 0.004985
153 0.004924
98 0.005031
75 0.003991
71 0.005017
70 0.005019
69 0.003985
69 0.005025
76 0.005026
83 0.004024
90 0.003989
94 0.004987
97 0.004014
103 0.004024
110 0.00399
116 0.004052
126 0.005001
132 0.004986
138 0.004999
143 0.005019
149 0.005004
153 0.003996
157 0.003992
161 0.004028
164 0.004034
168 0.004022
171 0.003981
173 0.004059
131 0.004036
89 0.004045
78 0.003999
78 0.00505
78 0.004987
78 0.004013
80 0.00395
86 0.003992
93 0.005006
98 0.003992
100 0.004026
103 0.004025
112 0.004015
118 0.003953
125 0.00494
131 0.005038
136 0.004033
142 0.005012
146 0.005005
150 0.003978
154 0.003987
158 0.004005
163 0.003992
164 0.003991
115 0.00399
84 0.002945
78 0.002992
78 0.003872
78 0.00399
77 0.004979
80 0.004988
86 0.004025
94 0.004036
98 0.004003
100 0.003984
103 0.004022
112 0.004011
119 0.003981
125 0.003986
131 0.003989
136 0.003972
142 0.003985
146 0.003005
150 0.004006
154 0.003989
158 0.00399
160 0.003991
129 0.003986
80 0.003989
76 0.004001
75 0.003941
74 0.003986
73 0.004045
75 0.003941
82 0.003955
89 0.003997
93 0.004016
96 0.003991
100 0.003946
106 0.00403
117 0.003961
123 0.00402
130 0.00399
135 0.004015
140 0.004061
147 0.003939
152 0.002956
156 0.00394
160 0.004023
164 0.00302
169 0.004073
172 0.003991
160 0.003023
107 0.003049
83 0.003044
78 0.003015
76 0.003991
74 0.003988
72 0.003994
73 0.002992
78 0.003991
86 0.004004
93 0.003988
96 0.003956
102 0.002991
108 0.004051
115 0.002992
122 0.002992
128 0.002993
136 0.002992
142 0.002987
147 0.003044
152 0.003992
157 0.003966
162 0.003963
167 0.004054
173 0.002992
176 0.003025
179 0.003034
182 0.002989
184 0.002984
187 0.002969
188 0.003003
169 0.003018
110 0.003014
87 0.00399
82 0.004017
81 0.003977
79 0.00302
79 0.002989
84 0.003026
91 0.002992
97 0.002993
102 0.001974
105 0.002993
110 0.003
116 0.003991
123 0.002995
131 0.003994
137 0.003989
146 0.00196
151 0.003018
156 0.003026
160 0.00303
165 0.002992
169 0.003031
173 0.003029
176 0.003028
179 0.002994
182 0.002941
185 0.002959
185 0.002994
124 0.003002
93 0.002043
87 0.002015
88 0.002973
88 0.003028
88 0.003004
92 0.002995
99 0.002992
106 0.002993
109 0.002992
112 0.003018
115 0.002986
125 0.002003
131 0.001995
137 0.002026
143 0.001981
148 0.002025
154 0.002023
158 0.001996
162 0.002043
166 0.003045
169 0.002992
173 0.004059
174 0.002969
115 0.00299
88 0.002021
83 0.00196
83 0.002985
83 0.002992
83 0.002016
86 0.002006
94 0.002995
101 0.002001
106 0.002057
107 0.002004
111 0.001995
119 0.001995
128 0.001994
134 0.002994
140 0.003032
142 0.007978
150 0.002034
156 0.002054
160 0.002993
164 0.001995
167 0.003024
168 0.002059
118 0.002095
83 0.001999
79 0.00203
79 0.002053
78 0.002005
78 0.001012
80 0.003042
90 0.001995
97 0.002022
101 0.002027
103 0.002978
106 0.002992
114 0.002992
124 0.002025
132 0.002028
138 0.002041
143 0.001997
148 0.001994
153 0.001994
158 0.002039
162 0.001986
166 0.001991
183 0.002051
187 0.002043
168 0.001981
88 0.002029
71 0.001986
70 0.002024
69 0.001996
68 0.00203
67 0.002003
73 0.001997
82 0.001999
90 0.001938
95 0.001998
98 0.002
105 0.002032
115 0.002024
126 0.001995
133 0.002029
141 0.001994
147 0.000997
154 0.001996
162 0.001995
167 0.001994
172 0.001995
176 0.001995
181 0.002027
185 0.002021
190 0.001035
194 0.001963
196 0.002028
199 0.001047
199 0.001995
167 0.001994
94 0.001983
84 0.001995
84 0.001995
84 0.001995
83 0.000998
83 0.001995
89 0.000997
99 0.002051
104 0.000999
107 0.000999
110 0.002001
115 0.002013
124 0.001034
130 0.00203
137 0.000998
143 0.001013
149 0.001995
157 0.001995
163 0.001034
170 0.001968
174 0.001045
178 0.001946
181 0.00203
184 0.000999
188 0.002023
190 0.000997
189 0.000997
145 0.000998
100 0.000997
91 0.000997
93 0.001946
95 0.000993
95 0.000997
99 0.001014
107 0.001002
113 0.001961
116 0.000998
116 0.000998
120 0.000998
126 0.000998
133 0.000997
143 0.001995
151 0.0
157 0.0
161 0.000991
165 0.000998
169 0.000995
173 0.001
178 0.000997
175 0.001025
130 0.001004
96 0.000998
88 0.000997
88 0.001993
90 0.000964
90 0.001987
93 0.0
101 0.000998
108 0.0
111 0.001048
113 0.000967
117 0.000999
123 0.000997
130 0.001
137 0.00094
146 0.000998
154 0.000965
160 0.000937
164 0.001029
169 0.000997
172 0.0
176 0.0
180 0.0
156 0.0
104 0.001003
85 0.000998
82 0.000997
83 0.000998
82 0.001028
82 0.0
86 0.0
94 0.0
100 0.0
104 0.0
108 0.0
112 0.0
119 0.001997
126 0.0
134 0.000997
140 0.000997
158 0.001015
165 0.000997
174 0.000934
180 0.001029
186 0.000963
192 0.0
196 0.0
201 0.000997
205 0.0
207 0.0
170 0.000997
93 0.0
65 0.000999
64 0.0
63 0.0
62 0.0
62 0.0
68 0.0
78 0.000998
89 0.000997
94 0.000998
98 0.000997
104 0.0
113 0.0
129 0.0
138 0.0
150 0.0
158 0.0
166 0.001005
173 0.0
179 0.0
187 0.0
192 0.000998
197 0.001038
201 0.0
205 0.000998
211 0.0
215 0.0
215 0.0
164 0.0
87 0.0
66 0.00105
64 0.0
65 0.0
63 0.0
63 0.000998
67 0.001007
76 0.0
92 0.0
96 0.0
103 0.0
110 0.0
119 0.0
130 0.0
139 0.0
151 0.0
160 0.0
167 0.0
174 0.0
180 0.0
189 0.0
194 0.000997
200 0.0
205 0.0
209 0.0
212 0.0
198 0.0
93 0.0
68 0.0
66 0.0
70 0.0
73 0.0
76 0.000966
91 0.0
101 0.0
106 0.001002
108 0.0
113 0.0
118 0.0
133 0.0
144 0.001047
153 0.001054
164 0.0
169 0.0
180 0.001991
185 0.000998
192 0.002959
197 0.001993
202 0.0
186 0.0
105 0.0
65 0.002044
59 0.002031
61 0.0
62 0.0
63 0.0
75 0.001078
88 0.000966
97 0.002026
102 0.001946
106 0.000963
114 0.0
125 0.0
136 0.00304
147 0.002038
159 0.000999
167 0.00095
174 0.0
184 0.0
190 0.0
195 0.002962
201 0.002992
196 0.000999
121 0.000925
63 0.001
51 0.002026
51 0.002026
52 0.0
51 0.0
53 0.0
71 0.001004
84 0.0
92 0.002046
97 0.001942
106 0.000978
116 0.0
128 0.001003
139 0.003002
150 0.003037
162 0.000995
170 0.0
177 0.0
188 0.000955
195 0.000966
200 0.002027
205 0.001969
212 0.00096
216 0.0
220 0.0
214 0.002028
137 0.003017
56 0.000948
47 0.000997
48 0.0
46 0.000991
46 0.00095
52 0.002034
65 0.003041
82 0.001008
90 0.000972
96 0.000953
103 0.003029
114 0.002027
129 0.000971
140 0.0
150 0.0
165 0.00095
173 0.0
180 0.001995
187 0.001992
193 0.002015
201 0.0
207 0.0
212 0.0
216 0.001995
221 0.002005
225 0.001995
228 0.0
231 0.001014
186 0.000968
88 0.0
54 0.001961
51 0.002029
53 0.000966
53 0.0
54 0.0
62 0.002028
76 0.00206
92 0.001005
100 0.000992
110 0.000998
119 0.000998
129 0.000997
140 0.002006
150 0.002023
161 0.0
169 0.000992
176 0.0
183 0.002034
189 0.002047
197 0.000943
202 0.0
210 0.000966
215 0.000952
219 0.0
222 0.003003
206 0.002003
95 0.0
59 0.0
56 0.001008
61 0.003032
66 0.003042
72 0.0
84 0.0
104 0.0
111 0.000966
115 0.001995
120 0.003011
128 0.00204
140 0.0
150 0.001004
158 0.0
166 0.002032
173 0.003042
181 0.0
187 0.0
196 0.000928
201 0.000976
204 0.0
190 0.003027
108 0.002038
48 0.0
44 0.0
47 0.000945
48 0.002063
49 0.00203
61 0.0
76 0.0
92 0.001001
97 0.000963
102 0.00104
110 0.003045
120 0.002029
134 0.000996
144 0.0
153 0.0
161 0.002031
168 0.002035
177 0.0
183 0.0
192 0.0
193 0.0
150 0.0
64 0.00203
36 0.003048
32 0.0
32 0.0
31 0.0
32 0.002025
39 0.002005
58 0.000936
69 0.0
79 0.0
85 0.0
95 0.000988
107 0.002993
119 0.002993
133 0.0
144 0.0
152 0.0
161 0.002985
168 0.002047
178 0.001951
185 0.0
194 0.0
200 0.001045
201 0.0
164 0.00304
72 0.002994
36 0.0
33 0.0
31 0.0
30 0.003043
30 0.003059
38 0.0
51 0.002017
68 0.0
74 0.0
79 0.000991
89 0.002994
99 0.002992
115 0.000953
126 0.0
136 0.001996
146 0.003041
155 0.002026
166 0.0
173 0.00201
185 0.001027
191 0.001025
197 0.000953
202 0.003033
207 0.003044
213 0.001988
216 0.00199
196 0.001991
99 0.003024
53 0.002995
44 0.002003
45 0.001991
43 0.001003
44 0.0
52 0.001028
65 0.002992
74 0.00301
79 0.001992
84 0.002005
92 0.001998
103 0.002995
114 0.002989
128 0.002021
138 0.001996
152 0.000938
160 0.002962
168 0.000995
174 0.002992
181 0.002992
189 0.001951
194 0.000957
200 0.002013
201 0.002037
149 0.003003
73 0.003039
50 0.002993
51 0.004076
53 0.003046
54 0.001945
62 0.002009
74 0.003049
83 0.003031
88 0.00299
91 0.002996
97 0.003024
107 0.003036
119 0.002952
133 0.002992
146 0.004087
157 0.002059
165 0.002997
171 0.002028
178 0.004007
184 0.004021
192 0.00202
179 0.001991
100 0.001995
58 0.002955
50 0.003024
51 0.002007
50 0.004023
53 0.002013
62 0.003
75 0.002024
85 0.004022
89 0.004028
94 0.001956
101 0.002029
112 0.001992
124 0.003025
135 0.003025
149 0.002968
160 0.004031
171 0.003008
179 0.003016
185 0.003003
191 0.003991
198 0.004189
205 0.002004
197 0.002002
116 0.003019
62 0.003027
50 0.004082
49 0.001988
47 0.00399
47 0.001995
52 0.001966
64 0.002992
76 0.003975
84 0.00399
91 0.001998
97 0.002001
108 0.001981
119 0.00402
131 0.004024
145 0.001991
158 0.005018
170 0.002003
178 0.003979
186 0.001977
193 0.004021
199 0.003979
207 0.003057
212 0.00303
218 0.002992
222 0.004012
226 0.004027
229 0.002995
160 0.005035
63 0.002001
51 0.001994
50 0.002009
49 0.004986
46 0.005018
48 0.001966
56 0.003039
69 0.00298
80 0.00402
87 0.004021
94 0.002031
105 0.00502
121 0.002029
132 0.002005
143 0.002992
153 0.005029
162 0.005017
173 0.002024
181 0.002027
188 0.001996
195 0.003979
201 0.00402
209 0.001999
216 0.00499
222 0.002024
227 0.002994
231 0.003034
234 0.005019
238 0.004987
234 0.001989
162 0.001992
75 0.002992
54 0.005005
53 0.00399
54 0.002962
53 0.005014
59 0.002949
72 0.003021
85 0.002958
94 0.004988
100 0.005036
108 0.001998
118 0.001973
129 0.00296
140 0.005021
150 0.004999
163 0.001996
173 0.004995
183 0.00297
190 0.002993
196 0.002973
201 0.005018
207 0.00503
214 0.002023
218 0.002038
222 0.002057
227 0.005029
226 0.004995
159 0.002031
67 0.005002
57 0.002946
62 0.001986
66 0.00301
70 0.004989
79 0.005018
97 0.002986
107 0.002958
111 0.002988
114 0.004986
120 0.005034
133 0.002007
140 0.020939
149 0.0
166 0.001984
174 0.002994
180 0.005022
186 0.005018
194 0.002962
199 0.002801
204 0.003002
209 0.002989
206 0.004979
150 0.006032
51 0.005039
46 0.006036
50 0.003036
52 0.003009
55 0.002986
65 0.00602
75 0.0
94 0.002994
100 0.002993
104 0.002992
111 0.005984
121 0.00502
139 0.005986
148 0.005022
160 0.00296
168 0.00296
175 0.002977
182 0.006018
188 0.006016
195 0.002986
200 0.00299
204 0.003004
191 0.005019
103 0.005021
37 0.005954
35 0.004987
36 0.002998
36 0.00401
38 0.003034
48 0.005996
62 0.005982
77 0.003009
84 0.003014
89 0.002999
97 0.005993
108 0.006018
128 0.006013
139 0.005987
151 0.002993
161 0.002981
169 0.002961
176 0.005021
183 0.005021
191 0.003959
197 0.003944
203 0.003986
208 0.006033
213 0.005992
214 0.006027
155 0.006018
50 0.003024
35 0.002996
33 0.003001
32 0.005026
30 0.006
32 0.003969
42 0.003991
56 0.003991
68 0.006019
75 0.005993
86 0.006012
96 0.005986
112 0.002982
124 0.002957
135 0.002992
146 0.006022
155 0.007012
167 0.003999
174 0.004003
182 0.003015
189 0.006017
195 0.006025
204 0.006014
209 0.005984
216 0.003003
219 0.003987
212 0.003037
133 0.00704
60 0.007016
44 0.003987
46 0.004012
46 0.004005
47 0.006996
50 0.005981
70 0.006008
80 0.005985
87 0.004041
91 0.004021
98 0.003988
109 0.00599
121 0.006018
135 0.004007
145 0.004988
154 0.003989
162 0.006948
169 0.006983
180 0.005985
186 0.006015
194 0.004005
199 0.003982
194 0.004004
123 0.007016
60 0.007027
45 0.003987
47 0.003997
48 0.003956
49 0.007008
53 0.006943
74 0.007015
83 0.005984
87 0.00294
90 0.003075
97 0.003989
107 0.007019
119 0.007067
134 0.00397
143 0.004986
152 0.003966
159 0.007028
166 0.007003
177 0.00698
184 0.007023
173 0.003986
95 0.00495
54 0.003007
46 0.006988
46 0.007015
47 0.005005
47 0.004986
50 0.004992
61 0.007008
73 0.007016
84 0.007019
87 0.006982
96 0.003988
107 0.005006
119 0.004992
130 0.007006
140 0.007002
152 0.005015
160 0.004946
168 0.005986
175 0.006998
181 0.006979
191 0.007014
195 0.00698
137 0.005008
72 0.00497
54 0.004998
51 0.007018
51 0.007025
50 0.005
50 0.004987
53 0.006981
67 0.006972
77 0.007016
87 0.006009
92 0.007014
99 0.006975
113 0.004992
124 0.004023
135 0.004984
144 0.007006
153 0.007019
164 0.004998
172 0.004999
179 0.005023
186 0.007008
195 0.004983
200 0.007013
205 0.00698
210 0.005007
214 0.004934
216 0.007978
217 0.0
95 0.00796
72 0.004982
69 0.005037
71 0.004977
71 0.006989
71 0.00498
76 0.007008
90 0.007973
99 0.005974
103 0.00499
107 0.005011
113 0.006993
124 0.00795
134 0.00501
144 0.005015
153 0.00601
162 0.007028
174 0.005952
181 0.007007
189 0.007942
194 0.004968
199 0.004932
203 0.004985
208 0.007971
211 0.007958
214 0.005977
216 0.004984
219 0.005005
212 0.007976
101 0.005063
85 0.007979
88 0.007974
92 0.005976
93 0.005974
95 0.00598
103 0.007993
113 0.007959
120 0.00499
123 0.004999
126 0.004013
131 0.004992
145 0.005012
155 0.007021
166 0.007934
173 0.004987
179 0.005005
185 0.004998
190 0.007945
195 0.007983
199 0.00501
202 0.004939
206 0.004935
209 0.007014
193 0.005984
106 0.006981
89 0.006981
90 0.005987
94 0.005975
98 0.005993
101 0.007974
108 0.00797
118 0.005977
125 0.005075
128 0.00595
129 0.007957
137 0.004955
149 0.007984
158 0.007977
166 0.00601
174 0.005984
180 0.005987
187 0.007014
191 0.006983
195 0.005995
198 0.005983
201 0.005954
201 0.007979
113 0.005016
83 0.007992
82 0.007947
86 0.005984
89 0.004987
91 0.004985
94 0.007956
106 0.006979
115 0.006012
120 0.005984
122 0.005984
128 0.006964
139 0.006007
151 0.006982
160 0.007999
168 0.005951
175 0.005972
181 0.005989
185 0.007977
191 0.006982
195 0.006958
197 0.005958
200 0.005981
204 0.006991
200 0.005962
108 0.006961
75 0.006951
70 0.005974
73 0.005978
76 0.006964
76 0.007013
79 0.007054
86 0.00696
97 0.006974
105 0.005988
111 0.006982
117 0.005971
127 0.006962
137 0.00697
147 0.005951
155 0.005977
163 0.005984
172 0.007014
177 0.006983
182 0.00695
186 0.006983
190 0.006981
194 0.007021
198 0.006025
202 0.007011
205 0.006009
207 0.00599
209 0.005999
202 0.006953
98 0.007025
66 0.007028
64 0.006975
67 0.005982
71 0.005984
73 0.006981
79 0.005985
93 0.006981
103 0.006981
110 0.006034
114 0.00597
121 0.005983
130 0.006074
139 0.005984
149 0.006999
160 0.00697
166 0.006966
170 0.006
178 0.006977
183 0.006963
187 0.006983
191 0.006014
194 0.005975
198 0.005965
202 0.005948
205 0.005984
208 0.006017
207 0.006977
137 0.006975
87 0.006981
66 0.005976
73 0.005982
79 0.006977
83 0.00601
94 0.005995
105 0.006017
113 0.00596
117 0.006035
117 0.005984
124 0.006939
132 0.006963
141 0.006954
152 0.00597
159 0.006949
166 0.007014
171 0.006014
177 0.005987
180 0.005981
184 0.005987
188 0.006018
192 0.005983
184 0.005984
108 0.005976
68 0.006977
54 0.00698
58 0.005964
63 0.006017
67 0.006015
79 0.005975
91 0.006011
100 0.004984
103 0.006013
105 0.006019
113 0.005984
122 0.005974
132 0.005027
147 0.006019
154 0.006975
160 0.00601
166 0.005983
173 0.005976
177 0.005987
182 0.00597
186 0.005987
182 0.005958
84 0.006016
45 0.004987
40 0.006016
45 0.004955
46 0.005967
49 0.005981
56 0.006042
73 0.005977
82 0.005989
88 0.005998
91 0.006008
98 0.00602
111 0.005959
122 0.005984
133 0.005003
147 0.005984
155 0.004936
161 0.006024
167 0.006017
175 0.005966
180 0.00594
185 0.005985
190 0.006017
195 0.006019
199 0.005987
185 0.005973
93 0.005018
34 0.004985
34 0.004988
35 0.004983
35 0.005006
37 0.006002
44 0.005976
57 0.005968
68 0.005977
75 0.006009
82 0.005987
90 0.005983
100 0.004972
119 0.004989
129 0.004973
139 0.005084
148 0.00502
159 0.005988
166 0.005961
172 0.005984
178 0.006037
184 0.005984
192 0.005979
197 0.005017
201 0.005019
208 0.00496
205 0.004964
140 0.005018
60 0.005019
40 0.005949
42 0.005986
45 0.006009
46 0.005018
48 0.005988
62 0.004979
74 0.005989
83 0.004988
90 0.004973
96 0.00497
106 0.004989
118 0.005021
133 0.004983
142 0.004985
151 0.005004
159 0.003994
166 0.005012
175 0.005993
180 0.004975
186 0.005017
195 0.004961
199 0.005018
187 0.005018
104 0.004987
44 0.005017
41 0.005016
44 0.005004
48 0.005022
51 0.00499
62 0.005989
75 0.005009
85 0.004953
90 0.004985
94 0.004986
102 0.004994
114 0.004988
129 0.004969
139 0.004996
149 0.004973
157 0.004955
164 0.00502
173 0.004986
179 0.00402
186 0.003971
175 0.004977
91 0.004993
47 0.004962
40 0.005018
43 0.005019
46 0.004964
48 0.00494
54 0.004987
66 0.005041
78 0.004995
87 0.004031
90 0.003989
102 0.003987
105 0.011928
113 0.001065
128 0.0
145 0.004988
157 0.004964
164 0.004975
170 0.004989
176 0.004051
182 0.004001
188 0.004023
193 0.004063
131 0.004053
69 0.004052
56 0.003963
57 0.004988
61 0.003957
62 0.003991
64 0.004
71 0.004987
81 0.004985
91 0.004953
98 0.00399
102 0.003989
114 0.003988
124 0.00399
134 0.005031
143 0.00502
151 0.00399
162 0.003981
169 0.004052
175 0.003957
181 0.003987
187 0.003988
193 0.003952
197 0.004006
202 0.00399
206 0.00406
208 0.003991
200 0.005032
124 0.005022
76 0.003998
75 0.003989
79 0.003949
82 0.003992
82 0.004036
85 0.003997
93 0.002987
107 0.003964
112 0.004955
115 0.004988
119 0.003993
126 0.005014
138 0.004001
147 0.002993
155 0.003991
162 0.004031
169 0.003992
178 0.003981
183 0.003982
191 0.002985
196 0.004025
200 0.00396
203 0.003989
206 0.00399
209 0.004005
211 0.004035
212 0.003959
196 0.004023
119 0.004029
85 0.004024
87 0.003026
95 0.004023
97 0.003964
99 0.00394
105 0.002993
114 0.002992
121 0.003926
124 0.003996
126 0.004064
131 0.004059
139 0.003957
150 0.002991
158 0.003999
169 0.003947
175 0.004988
180 0.002994
184 0.002995
188 0.002974
193 0.003047
196 0.003025
199 0.004025
202 0.00399
194 0.003951
109 0.003016
86 0.003973
89 0.004015
94 0.003975
96 0.002992
98 0.003008
104 0.002995
116 0.002992
121 0.002987
122 0.003003
123 0.002992
128 0.003963
139 0.004006
148 0.003979
161 0.003975
168 0.002998
173 0.003026
178 0.002992
182 0.003025
187 0.002994
191 0.003019
193 0.003026
176 0.003992
108 0.002992
78 0.003028
79 0.002036
85 0.003031
86 0.003013
88 0.003928
94 0.003932
103 0.002991
111 0.00296
113 0.002957
115 0.003051
121 0.003018
129 0.003005
141 0.002965
150 0.002038
162 0.002973
168 0.003948
173 0.003991
178 0.003992
182 0.002992
187 0.002944
190 0.003025
193 0.003021
193 0.002992
142 0.002955
73 0.002936
65 0.00299
68 0.00399
69 0.004034
69 0.002993
71 0.002994
78 0.001995
91 0.002003
96 0.003025
99 0.003065
103 0.003085
109 0.003008
118 0.002008
131 0.003005
143 0.003005
153 0.003023
160 0.002992
166 0.00299
171 0.002027
176 0.001995
182 0.001958
186 0.002961
189 0.003035
192 0.003014
195 0.002986
199 0.002967
179 0.002992
94 0.00103
58 0.003025
58 0.003028
61 0.00203
63 0.002029
64 0.001996
67 0.002053
77 0.002046
87 0.001994
94 0.002964
99 0.002949
106 0.001996
118 0.003028
128 0.003024
137 0.001995
146 0.002045
154 0.001994
163 0.002032
169 0.001996
174 0.002
179 0.001953
183 0.000971
188 0.00299
192 0.00301
195 0.003057
198 0.003008
200 0.003025
196 0.002993
127 0.002995
65 0.003021
62 0.002032
67 0.002026
73 0.001001
75 0.002052
79 0.002034
92 0.001995
102 0.002029
104 0.002019
106 0.002041
112 0.002963
120 0.002992
134 0.001989
143 0.00203
151 0.001995
158 0.00203
164 0.003027
171 0.002007
176 0.002028
181 0.002031
184 0.002026
187 0.001004
189 0.002029
156 0.001996
72 0.002049
60 0.002015
62 0.00199
67 0.001995
70 0.000964
74 0.002
86 0.002026
98 0.002028
101 0.001961
102 0.002028
105 0.002039
113 0.001994
126 0.002014
136 0.000998
145 0.002038
153 0.001996
159 0.001995
166 0.002012
172 0.001965
178 0.001996
182 0.001995
159 0.001989
85 0.002026
57 0.002029
54 0.002027
57 0.00103
59 0.002055
59 0.002019
63 0.002025
77 0.002
88 0.001995
91 0.002065
94 0.002028
101 0.00206
111 0.002028
121 0.001996
134 0.002991
143 0.001995
150 0.001977
157 0.001989
163 0.002997
170 0.000999
176 0.000997
182 0.002993
178 0.002046
106 0.002067
56 0.002049
45 0.002057
45 0.002055
45 0.002045
45 0.001964
45 0.001994
51 0.001027
66 0.001033
75 0.001
80 0.000998
85 0.001075
94 0.001022
104 0.00206
115 0.002027
127 0.002027
136 0.001931
144 0.001997
152 0.001048
159 0.000994
168 0.000969
176 0.001988
183 0.002002
187 0.002028
192 0.00103
196 0.000994
199 0.000991
152 0.000998
71 0.000998
49 0.000977
46 0.00094
48 0.001992
48 0.000936
48 0.002027
57 0.002003
68 0.001992
77 0.001985
82 0.001071
86 0.000997
96 0.002033
106 0.000997
116 0.001
126 0.002027
136 0.0
147 0.0
157 0.001984
166 0.002
173 0.000996
179 0.001989
184 0.001995
189 0.002007
195 0.002
199 0.001998
204 0.0
206 0.000997
184 0.000961
95 0.000998
56 0.000998
58 0.000997
63 0.000998
64 0.001001
66 0.000944
75 0.002031
86 0.000981
94 0.000981
96 0.0
99 0.0
107 0.0
117 0.0
134 0.0
134 0.031916
141 0.001989
149 0.000994
163 0.000982
173 0.000997
179 0.000997
185 0.000974
190 0.001003
195 0.0
194 0.0
133 0.0
56 0.0
54 0.0
57 0.000929
59 0.000998
60 0.000997
66 0.0
78 0.0
91 0.0
95 0.0
97 0.0
104 0.0
113 0.000964
132 0.0
143 0.0
155 0.0
163 0.0
170 0.0
177 0.000998
183 0.0
190 0.0
195 0.0
199 0.0
204 0.0
197 0.0
71 0.0
51 0.0
51 0.0
54 0.0
54 0.0
55 0.0
62 0.000997
79 0.0
88 0.0
94 0.0
98 0.0
105 0.0
123 0.0
134 0.0
148 0.0
158 0.0
165 0.0
173 0.000998
180 0.0
188 0.0
194 0.0
199 0.0
204 0.0
209 0.0
216 0.0
220 0.0
225 0.0
225 0.0
181 0.001001
81 0.001004
51 0.001006
49 0.0
51 0.002011
51 0.0
52 0.0
57 0.0
77 0.0
88 0.0
95 0.0
101 0.0
110 0.0
121 0.0
133 0.0
146 0.003026
156 0.003028
167 0.0
174 0.001007
181 0.001967
191 0.0
197 0.000997
202 0.0
207 0.000998
212 0.000997
218 0.0
220 0.000997
226 0.002991
229 0.002992
233 0.000999
225 0.0
149 0.000951
53 0.0
53 0.0
58 0.002992
62 0.002029
65 0.000955
73 0.0
87 0.001968
98 0.003032
105 0.003002
112 0.0
119 0.0
129 0.000947
146 0.0
155 0.000946
162 0.002027
170 0.001986
179 0.0
185 0.0
191 0.001997
196 0.002974
201 0.003005
207 0.001009
211 0.001015
215 0.0
217 0.0
187 0.0
95 0.002988
55 0.003867
55 0.0
64 0.0
70 0.0
76 0.0
87 0.0
104 0.0
111 0.0
115 0.000969
122 0.000995
131 0.0
140 0.002992
149 0.003037
160 0.0
167 0.0
173 0.001009
179 0.003
185 0.003026
190 0.002991
196 0.001008
201 0.000946
204 0.0
165 0.0
75 0.0
42 0.002981
41 0.003039
48 0.0
52 0.0
56 0.001019
67 0.003002
80 0.003021
93 0.0
99 0.001028
108 0.0
117 0.0
128 0.000987
138 0.002026
147 0.003026
157 0.001003
165 0.001029
169 0.001995
178 0.003005
183 0.00299
191 0.0
194 0.00099
202 0.000998
205 0.0
190 0.000968
96 0.003023
39 0.003029
30 0.001011
33 0.0
34 0.000968
35 0.00301
40 0.003009
58 0.000967
71 0.000971
85 0.0
91 0.0
99 0.0
110 0.003027
121 0.003039
135 0.0
145 0.00095
153 0.001012
161 0.001999
168 0.002999
177 0.0
183 0.0
193 0.0
198 0.0
203 0.0
208 0.003023
213 0.002997
219 0.0
216 0.000972
165 0.0
67 0.002991
35 0.00305
33 0.000954
36 0.000969
37 0.001013
43 0.0
56 0.0
70 0.003041
80 0.00304
89 0.0
96 0.0
106 0.0
116 0.002987
127 0.003023
140 0.0
149 0.000963
163 0.001008
170 0.0
177 0.000988
183 0.002038
188 0.003044
196 0.001015
201 0.0
206 0.001025
211 0.004033
215 0.004023
219 0.0
203 0.000974
66 0.000991
43 0.000971
43 0.001001
49 0.002028
52 0.002002
58 0.000958
70 0.001026
82 0.0
90 0.003985
94 0.004
100 0.0
108 0.000972
125 0.0
135 0.0
144 0.0
152 0.003032
159 0.00299
168 0.0
174 0.0
180 0.0
185 0.003039
190 0.003991
195 0.0
177 0.0
50 0.0
32 0.0
32 0.0
34 0.003029
35 0.002994
41 0.001043
53 0.000997
65 0.00093
72 0.002993
76 0.004026
82 0.0
91 0.0
109 0.0
120 0.000996
130 0.000981
139 0.002994
147 0.004008
157 0.0
164 0.000979
171 0.001001
177 0.002992
180 0.002998
108 0.0
43 0.0
25 0.0
26 0.0
25 0.0
24 0.003029
28 0.003043
44 0.001017
55 0.0
61 0.00094
65 0.003022
71 0.003026
84 0.001998
96 0.0
114 0.0
123 0.0
133 0.0
141 0.002988
148 0.002966
158 0.0
165 0.0
171 0.001037
177 0.003048
182 0.00399
144 0.0
72 0.0
46 0.0
47 0.000968
47 0.0
46 0.003019
47 0.003059
56 0.001976
67 0.0
75 0.0
80 0.0
84 0.00404
89 0.00399
100 0.0
112 0.00394
123 0.0
131 0.0
139 0.0
146 0.004032
153 0.002993
161 0.001037
168 0.001928
170 0.01892
174 0.0
182 0.001
198 0.003964
193 0.000965
125 0.000998
84 0.0
76 0.004035
78 0.003024
80 0.0
80 0.0
81 0.0
86 0.003033
95 0.004002
103 0.001026
107 0.00403
112 0.002995
117 0.002961
124 0.002991
131 0.005032
137 0.003995
145 0.001007
151 0.002988
156 0.002026
161 0.004022
167 0.004027
173 0.001946
180 0.002997
187 0.002991
192 0.00297
197 0.003015
177 0.004989
121 0.003993
97 0.003012
98 0.003982
101 0.0
103 0.004985
104 0.003982
109 0.002969
119 0.003967
123 0.003009
124 0.00302
126 0.002996
131 0.004032
137 0.003986
145 0.002961
151 0.002995
156 0.003068
160 0.003992
163 0.003989
168 0.003007
174 0.003977
182 0.002988
187 0.002996
170 0.002987
124 0.004987
104 0.004997
102 0.001961
104 0.003025
106 0.001052
106 0.003979
108 0.003991
117 0.002987
124 0.004021
127 0.002987
129 0.00299
133 0.00299
139 0.005021
145 0.004987
153 0.002983
158 0.003981
163 0.003031
168 0.003998
173 0.005024
179 0.003991
184 0.004017
191 0.002
196 0.003007
202 0.002992
191 0.005018
134 0.005021
101 0.002996
99 0.004031
101 0.003987
102 0.005018
101 0.004065
102 0.00194
110 0.004005
118 0.002992
122 0.002993
124 0.001995
127 0.004987
131 0.004987
140 0.002994
145 0.004056
151 0.002023
157 0.00499
162 0.006022
169 0.002992
176 0.004022
183 0.003016
188 0.001986
193 0.001996
197 0.00502
202 0.004987
207 0.002995
210 0.002991
213 0.003004
216 0.005021
201 0.004994
111 0.003003
90 0.004973
91 0.002991
