100 0.026959
100 0.004959
110 0.00402
119 0.003991
126 0.003989
138 0.004989
146 0.005018
153 0.004987
157 0.004987
161 0.004987
167 0.003979
171 0.003989
176 0.004987
181 0.004993
188 0.003988
193 0.004033
198 0.004032
202 0.004979
214 0.004987
216 0.006015
179 0.005984
92 0.004988
68 0.005018
66 0.004984
77 0.004986
93 0.004975
105 0.004987
113 0.005035
121 0.005029
118 0.005948
111 0.005997
109 0.005932
115 0.005985
125 0.004939
134 0.00498
142 0.004985
148 0.006018
152 0.006983
156 0.004988
161 0.0052
164 0.005971
166 0.004987
172 0.005989
177 0.006014
183 0.005985
187 0.006016
193 0.005932
197 0.006014
203 0.005989
211 0.006023
209 0.005985
156 0.006939
99 0.005978
75 0.005948
86 0.005985
103 0.006023
117 0.007013
127 0.007014
134 0.005972
128 0.005979
119 0.006008
114 0.006964
117 0.007021
127 0.005982
132 0.006032
141 0.006027
150 0.007016
157 0.006012
160 0.006981
162 0.006942
166 0.005984
168 0.00698
171 0.005984
173 0.007021
177 0.007014
182 0.006027
188 0.00603
194 0.005954
138 0.006981
94 0.007014
77 0.008011
79 0.007967
92 0.006949
108 0.006997
120 0.006978
134 0.006976
136 0.006982
129 0.007014
122 0.006971
119 0.006
125 0.007021
130 0.006982
130 0.007073
124 0.006981
121 0.006981
122 0.006963
130 0.007022
139 0.007948
145 0.007948
150 0.006964
150 0.007976
150 0.006946
149 0.007006
150 0.006981
151 0.006941
112 0.007977
76 0.007965
59 0.007023
62 0.007946
75 0.007977
84 0.007972
92 0.007977
101 0.007978
105 0.007947
92 0.007979
83 0.00698
83 0.00695
88 0.007978
97 0.007976
104 0.007022
109 0.007031
113 0.007946
117 0.006981
120 0.006979
124 0.006979
128 0.007024
135 0.006982
139 0.007022
143 0.006967
139 0.007009
100 0.007012
50 0.007012
35 0.007029
38 0.006972
49 0.006943
61 0.007028
74 0.007014
79 0.006977
71 0.007014
64 0.007023
63 0.006981
67 0.006027
74 0.006031
83 0.005984
89 0.006031
93 0.005997
97 0.006021
98 0.006031
103 0.005984
108 0.005994
115 0.007023
120 0.006981
124 0.007025
118 0.007019
80 0.006981
39 0.00597
33 0.006027
41 0.006021
54 0.006023
66 0.005983
78 0.006022
83 0.006014
75 0.006018
72 0.006015
74 0.005984
81 0.006025
89 0.005986
100 0.006009
107 0.005984
112 0.006024
116 0.006019
120 0.006024
123 0.00602
127 0.006025
132 0.005985
140 0.005984
144 0.005015
133 0.00499
94 0.004989
62 0.00499
51 0.004949
58 0.005023
71 0.00596
82 0.005942
91 0.006022
97 0.00598
90 0.006023
86 0.005982
88 0.006024
94 0.006031
102 0.005983
110 0.004976
117 0.005029
123 0.004987
127 0.004987
131 0.004998
136 0.005003
142 0.005033
149 0.004987
157 0.004986
159 0.000997
165 0.0
108 0.00403
70 0.00399
65 0.004031
74 0.004986
86 0.005022
95 0.004985
106 0.004986
106 0.005029
101 0.005029
98 0.004987
100 0.00399
107 0.003989
114 0.00399
123 0.003991
130 0.004024
134 0.00404
138 0.004029
143 0.004026
146 0.003035
149 0.00399
152 0.004006
155 0.004023
159 0.003993
164 0.003991
170 0.004024
173 0.004022
129 0.003995
91 0.004
75 0.004034
76 0.004036
88 0.004023
104 0.00399
111 0.00397
115 0.002986
111 0.003026
106 0.003025
103 0.003029
107 0.00302
115 0.002992
122 0.003028
129 0.004022
135 0.003973
139 0.003997
146 0.00399
148 0.003991
152 0.004025
156 0.00299
159 0.003026
163 0.002993
167 0.002993
172 0.002992
179 0.003028
183 0.002999
157 0.00399
109 0.002001
71 0.003979
73 0.002025
88 0.002994
99 0.002993
108 0.002992
117 0.003025
116 0.002991
107 0.00301
104 0.002993
106 0.00303
113 0.002999
121 0.003006
135 0.002994
141 0.003029
147 0.002993
151 0.002992
154 0.003007
158 0.002993
160 0.002031
165 0.001995
168 0.001995
172 0.001995
177 0.002035
184 0.001995
168 0.001939
115 0.002002
73 0.002996
67 0.001964
76 0.002004
89 0.00204
100 0.001999
109 0.002032
116 0.00203
112 0.002033
106 0.001934
103 0.001964
110 0.001995
117 0.001995
125 0.001987
136 0.001995
142 0.001044
146 0.000998
150 0.001026
153 0.001003
157 0.000998
161 0.000997
165 0.000996
169 0.000995
176 0.001993
182 0.000997
190 0.002027
197 0.001995
159 0.001967
99 0.000997
69 0.000997
63 0.000998
74 0.001007
87 0.001004
98 0.000999
107 0.000998
110 0.000998
103 0.000998
99 0.000986
98 0.000991
103 0.000998
111 0.000997
118 0.000997
123 0.000988
130 0.0
134 0.0
137 0.0
139 0.0
142 0.000997
145 0.000997
148 0.000997
151 0.000982
155 0.000993
160 0.000997
166 0.000997
167 0.000997
111 0.000998
69 0.0
49 0.0
48 0.0
65 0.0
77 0.0
88 0.0
94 0.0
90 0.0
85 0.0
81 0.0
83 0.0
91 0.0
105 0.000998
113 0.000997
116 0.016954
118 0.0
127 0.0
150 0.0
152 0.0
158 0.0
163 0.0
169 0.0
176 0.000997
152 0.0
78 0.001041
44 0.0
43 0.0
55 0.0
69 0.001066
84 0.000997
103 0.000999
105 0.0
97 0.000998
88 0.001045
85 0.000998
89 0.001
107 0.000999
123 0.0
136 0.0
146 0.0
155 0.001039
161 0.001032
170 0.0
174 0.001025
179 0.000964
182 0.002
188 0.000997
198 0.0
208 0.001996
192 0.00103
89 0.000997
47 0.001037
37 0.001987
45 0.000997
70 0.001036
89 0.001035
102 0.001046
122 0.000998
117 0.001031
99 0.0
93 0.002017
106 0.000999
121 0.001027
139 0.000953
155 0.002018
169 0.002027
180 0.001034
187 0.001023
193 0.001005
198 0.001039
201 0.001993
202 0.002997
206 0.00298
214 0.002995
220 0.001543
177 0.000983
86 0.000992
37 0.002022
23 0.002994
35 0.002021
53 0.002032
70 0.002031
84 0.002978
94 0.002992
85 0.002017
76 0.001998
74 0.002002
81 0.001986
93 0.001996
112 0.002992
124 0.002981
139 0.002001
146 0.001993
151 0.001995
155 0.002996
160 0.003025
167 0.002976
170 0.002996
177 0.002028
184 0.002
194 0.002041
204 0.003012
195 0.002993
87 0.002028
48 0.003023
21 0.002994
23 0.00296
40 0.002982
69 0.002991
87 0.00299
92 0.002003
81 0.001994
70 0.003048
66 0.003993
71 0.003957
87 0.002997
101 0.002965
110 0.00297
115 0.003983
118 0.004036
121 0.002982
119 0.002878
117 0.002986
117 0.002993
116 0.002988
119 0.003984
122 0.003991
123 0.002991
125 0.002961
103 0.003023
49 0.003991
6 0.003989
0 0.003028
0 0.003989
3 0.003998
24 0.002988
39 0.003978
42 0.004023
38 0.004989
34 0.004013
37 0.003985
53 0.003
63 0.003987
84 0.004032
106 0.002979
117 0.003951
125 0.003993
133 0.003975
138 0.003995
144 0.00399
148 0.004974
152 0.004991
162 0.003992
170 0.00499
174 0.004987
138 0.005026
41 0.003996
17 0.006008
15 0.005995
33 0.00494
47 0.004987
54 0.004975
69 0.004976
71 0.004958
67 0.004975
63 0.004999
64 0.003988
72 0.004986
87 0.0
114 0.005986
125 0.004983
131 0.004999
135 0.005004
140 0.00602
146 0.005992
153 0.005016
160 0.005023
167 0.004988
175 0.006026
187 0.004994
197 0.005986
206 0.005982
203 0.005052
159 0.005032
59 0.004991
26 0.004987
19 0.005973
34 0.004995
52 0.005017
66 0.004972
80 0.005984
83 0.004993
74 0.006015
70 0.004987
73 0.005984
85 0.004975
99 0.004968
113 0.004969
124 0.007021
133 0.00698
141 0.005984
145 0.004982
149 0.006017
159 0.005023
163 0.005997
169 0.006024
175 0.006026
183 0.00497
193 0.004985
203 0.00598
200 0.006972
136 0.006965
51 0.005984
27 0.006016
26 0.006025
53 0.005981
70 0.005993
88 0.006981
97 0.007012
88 0.006983
78 0.006973
73 0.006982
77 0.006973
89 0.006948
103 0.006968
120 0.006015
132 0.005982
144 0.005995
151 0.005991
155 0.006977
160 0.007943
168 0.006957
174 0.006976
178 0.007014
183 0.007934
189 0.007939
198 0.006964
209 0.007011
211 0.007978
148 0.007979
46 0.005981
11 0.006982
4 0.006983
16 0.007947
40 0.006989
54 0.006956
71 0.007949
76 0.007946
69 0.007015
63 0.007008
64 0.007026
79 0.006989
93 0.006983
114 0.007014
128 0.007014
140 0.007012
143 0.007941
148 0.007932
152 0.007968
160 0.007942
166 0.007945
176 0.007016
185 0.007977
194 0.007014
200 0.00698
211 0.006981
221 0.007013
225 0.006977
155 0.006985
63 0.007024
9 0.007011
0 0.007012
0 0.006971
19 0.007979
40 0.007979
59 0.007947
66 0.007979
50 0.006981
37 0.006985
33 0.007029
42 0.007017
53 0.006991
66 0.006986
78 0.007037
89 0.007014
97 0.007018
102 0.006017
109 0.007019
114 0.007024
119 0.006011
126 0.006016
135 0.006027
143 0.007027
151 0.007014
161 0.007025
170 0.006981
146 0.007022
49 0.007008
4 0.006017
0 0.006009
3 0.006026
23 0.006015
40 0.005989
59 0.005985
66 0.006015
62 0.006013
56 0.006026
55 0.005965
63 0.006014
83 0.007011
99 0.006036
124 0.006011
133 0.006028
141 0.00598
147 0.006018
152 0.006028
159 0.006027
164 0.005995
170 0.005984
174 0.009973
177 0.0
208 0.005031
217 0.005985
195 0.004986
107 0.006015
38 0.006033
7 0.006013
8 0.006022
25 0.006017
46 0.005988
67 0.005953
85 0.004999
84 0.004988
69 0.005034
61 0.005026
67 0.005027
79 0.004988
93 0.005039
108 0.005028
126 0.005019
135 0.005026
142 0.005031
149 0.005023
153 0.005019
160 0.005019
166 0.005029
174 0.004023
180 0.003984
187 0.004026
197 0.005025
207 0.005011
179 0.004987
94 0.005016
35 0.004987
11 0.005016
12 0.005016
36 0.00502
67 0.00499
96 0.004031
102 0.00404
91 0.00399
76 0.003987
71 0.003991
78 0.00399
91 0.004
107 0.003984
122 0.004032
135 0.00404
149 0.004997
157 0.005018
163 0.004029
167 0.004027
172 0.004041
178 0.004018
183 0.004029
191 0.004021
198 0.004023
206 0.003989
216 0.004025
215 0.003991
146 0.002988
25 0.002991
4 0.002994
10 0.003988
31 0.003988
53 0.003989
73 0.003995
88 0.00303
84 0.003029
71 0.003991
62 0.002989
63 0.004013
74 0.00399
99 0.003991
113 0.003991
130 0.002996
140 0.002991
145 0.003027
148 0.003042
154 0.002993
160 0.003989
164 0.002985
169 0.002993
175 0.002994
182 0.002993
195 0.003
207 0.002961
216 0.002992
164 0.003033
69 0.002994
17 0.003
0 0.002993
9 0.002992
30 0.002992
52 0.002986
73 0.002984
89 0.002026
76 0.002025
62 0.002994
59 0.001995
66 0.003001
80 0.002027
96 0.002028
112 0.001995
128 0.002994
137 0.002012
143 0.001996
148 0.001995
150 0.00304
156 0.001995
160 0.001842
166 0.001963
172 0.001997
182 0.002026
193 0.001995
197 0.001963
119 0.002055
41 0.002026
2 0.001994
0 0.001995
3 0.001995
39 0.001998
64 0.000998
83 0.000999
80 0.001995
66 0.00099
54 0.000944
54 0.000999
63 0.001009
83 0.001002
100 0.002056
115 0.000999
128 0.001003
140 0.001996
147 0.000997
151 0.000997
156 0.001975
160 0.001995
165 0.000998
170 0.000997
177 0.001999
191 0.001012
199 0.000998
173 0.000998
84 0.001003
0 0.000997
59 0.001009
63 0.000997
77 0.000997
87 0.000998
96 0.001
100 0.000993
96 0.000994
89 0.0
88 0.0
91 0.0
97 0.0
110 0.0
117 0.0
123 0.0
129 0.0
132 0.0
135 0.0
138 0.0
142 0.0
145 0.000998
148 0.000997
151 0.000997
155 0.0
165 0.0
167 0.0
144 0.0
87 0.0
68 0.0
63 0.0
68 0.0
78 0.0
94 0.0
105 0.0
109 0.0
102 0.0
93 0.0
93 0.000997
100 0.0
107 0.0
115 0.000997
123 0.001748
130 0.0
134 0.0
136 0.0
138 0.0
139 0.0
141 0.0
145 0.0
149 0.0
155 0.0
158 0.0
139 0.00103
99 0.00103
69 0.0
63 0.0
68 0.0
77 0.00103
87 0.001028
100 0.0
102 0.000998
94 0.0
90 0.0
91 0.001055
95 0.001964
102 0.001999
112 0.000946
118 0.000997
123 0.001038
126 0.001993
129 0.001005
132 0.0
135 0.001012
137 0.0
140 0.0
144 0.0
148 0.000997
152 0.002042
141 0.001008
104 0.001045
76 0.001001
64 0.002033
63 0.001999
72 0.001032
83 0.001999
93 0.000951
95 0.000992
92 0.001006
88 0.00299
87 0.001974
90 0.001956
98 0.000997
105 0.000999
111 0.000985
116 0.002032
120 0.001994
124 0.001994
126 0.001993
131 0.001002
135 0.00202
139 0.002023
142 0.00299
146 0.002995
151 0.002029
156 0.002033
160 0.002036
151 0.002999
116 0.002041
78 0.001995
72 0.001994
76 0.00199
84 0.002951
94 0.002
103 0.002987
106 0.002999
101 0.001994
97 0.001998
96 0.002008
99 0.002992
104 0.00303
114 0.002993
119 0.003985
124 0.00299
126 0.002986
128 0.002993
131 0.003998
132 0.003023
134 0.003021
137 0.001995
140 0.001972
145 0.00303
152 0.003991
148 0.003038
110 0.002988
69 0.003004
57 0.001998
59 0.002993
69 0.003945
80 0.003997
95 0.003025
101 0.002988
98 0.002985
91 0.003989
87 0.00399
92 0.003997
98 0.003996
109 0.002996
116 0.00402
121 0.003984
125 0.004046
128 0.00397
132 0.003023
134 0.004022
138 0.003023
141 0.002985
145 0.004036
151 0.002993
156 0.003982
162 0.004
165 0.004023
132 0.003993
89 0.004022
62 0.004977
52 0.004987
59 0.003985
69 0.004023
78 0.004034
86 0.005
90 0.003993
86 0.00499
83 0.003988
83 0.004947
90 0.003972
98 0.003981
107 0.004989
114 0.005018
122 0.003987
126 0.00398
130 0.00404
132 0.00502
138 0.00399
141 0.005968
145 0.005949
149 0.004973
154 0.005
159 0.004024
164 0.005022
170 0.005984
172 0.021908
176 0.0
182 0.000997
126 0.005029
66 0.003957
57 0.004988
62 0.004986
77 0.003988
89 0.00399
99 0.003996
105 0.005022
102 0.006014
94 0.004982
92 0.005024
95 0.005017
102 0.005954
117 0.004981
125 0.005991
132 0.006003
138 0.004981
141 0.005021
144 0.004979
147 0.006847
150 0.007059
154 0.006981
158 0.006018
161 0.006015
165 0.006015
176 0.005015
183 0.00595
188 0.006978
171 0.005985
102 0.004997
72 0.005985
62 0.005983
66 0.006982
78 0.007014
97 0.005987
111 0.006002
118 0.006014
109 0.006028
102 0.005982
99 0.006975
104 0.007036
115 0.005973
126 0.005981
135 0.006
143 0.00704
148 0.006981
154 0.00598
158 0.005983
162 0.00602
169 0.006008
172 0.005985
176 0.007034
180 0.006984
185 0.00598
191 0.006954
199 0.007017
200 0.007979
156 0.007978
84 0.006012
62 0.00598
58 0.005979
75 0.005978
91 0.006013
106 0.006988
119 0.007011
118 0.006014
109 0.007012
102 0.006976
103 0.008008
107 0.007945
119 0.006976
130 0.006976
140 0.006982
153 0.006952
158 0.006983
163 0.007012
165 0.007976
169 0.007015
172 0.006996
175 0.006982
178 0.006969
183 0.007026
190 0.007022
197 0.006995
163 0.006981
76 0.007008
58 0.006988
58 0.00702
68 0.007013
85 0.006976
107 0.007985
122 0.007983
125 0.006972
119 0.007979
104 0.007997
101 0.006982
106 0.006996
123 0.007026
135 0.007015
146 0.007011
154 0.006972
159 0.007017
165 0.007005
168 0.007013
171 0.006983
173 0.006999
176 0.007013
180 0.007008
184 0.006951
193 0.006976
183 0.006965
105 0.007024
65 0.007017
49 0.007013
53 0.005969
66 0.005979
81 0.006018
95 0.006019
106 0.006977
104 0.006988
95 0.007021
88 0.006994
93 0.007017
101 0.007019
111 0.00696
121 0.006951
134 0.006001
140 0.006015
145 0.006014
148 0.00598
152 0.006023
154 0.006012
157 0.006016
163 0.006015
170 0.006003
177 0.006026
168 0.005985
115 0.006026
61 0.006034
47 0.005986
50 0.007019
62 0.00603
77 0.004984
92 0.004988
109 0.006018
105 0.005034
92 0.006021
89 0.005023
92 0.00502
100 0.005018
110 0.006041
124 0.006026
134 0.005986
140 0.006019
145 0.005017
148 0.005018
151 0.00503
153 0.005029
157 0.005025
163 0.005022
168 0.005019
163 0.005029
119 0.005042
73 0.005021
61 0.00495
64 0.005007
74 0.004971
88 0.005021
109 0.004973
120 0.005018
109 0.004976
100 0.004021
98 0.004023
101 0.004023
109 0.003993
122 0.005002
130 0.005036
138 0.005022
143 0.004991
148 0.004985
152 0.00502
155 0.004986
159 0.004029
164 0.004029
167 0.004
160 0.004032
116 0.004026
68 0.00399
55 0.004029
56 0.004032
67 0.004035
80 0.004987
95 0.003961
104 0.00403
97 0.004021
91 0.00399
89 0.004025
93 0.004035
100 0.004022
111 0.003989
120 0.004047
127 0.004021
133 0.00402
136 0.004032
139 0.003021
143 0.002951
146 0.003023
151 0.003027
156 0.003042
161 0.00302
150 0.003031
104 0.003025
60 0.004024
49 0.004027
52 0.003992
64 0.004026
77 0.004029
96 0.00399
99 0.003033
90 0.002954
85 0.002992
84 0.003031
89 0.003028
98 0.002992
111 0.003989
120 0.00399
127 0.003028
133 0.003024
138 0.003001
143 0.002993
146 0.003
150 0.002992
154 0.003045
159 0.003024
166 0.003002
171 0.003038
130 0.002992
82 0.002992
57 0.002992
52 0.002992
61 0.002992
87 0.002027
102 0.002026
115 0.003002
110 0.002031
99 0.003014
91 0.001995
92 0.002025
102 0.002026
112 0.002025
122 0.002026
131 0.002008
136 0.002993
144 0.001995
147 0.002003
151 0.003023
154 0.002038
159 0.001995
165 0.001995
168 0.002025
125 0.00203
80 0.002025
57 0.001995
52 0.001995
60 0.000999
86 0.000993
101 0.002013
114 0.002035
109 0.000998
99 0.001005
93 0.000995
96 0.000998
102 0.000997
115 0.001993
127 0.000993
135 0.001986
142 0.001995
149 0.002025
153 0.002027
156 0.001996
160 0.001989
163 0.001001
168 0.000998
174 0.000998
175 0.001003
118 0.000998
74 0.000998
52 0.000997
50 0.000996
70 0.001956
85 0.000997
101 0.000997
111 0.0
107 0.0
99 0.000999
96 0.000999
98 0.000997
109 0.000995
120 0.000997
130 0.000998
139 0.000998
146 0.009017
155 0.0
158 0.0
161 0.0
165 0.0
168 0.0
171 0.0
176 0.0
187 0.000999
192 0.0
166 0.0
105 0.0
58 0.000997
57 0.0
67 0.0
89 0.0
105 0.0
118 0.0
119 0.0
109 0.0
97 0.0
98 0.0
104 0.0
114 0.0
132 0.0
140 0.0
149 0.0
153 0.0
156 0.001016
160 0.000993
164 0.0
166 0.0
170 0.0
176 0.000988
183 0.00107
183 0.000997
100 0.001041
59 0.0
52 0.0
59 0.0
74 0.001038
91 0.001028
110 0.0
116 0.0
109 0.0
100 0.000999
95 0.001028
99 0.0
111 0.001041
125 0.0
136 0.0
142 0.000998
150 0.001995
156 0.000996
160 0.0
164 0.0
167 0.0
170 0.00103
173 0.00105
179 0.0
188 0.001032
194 0.000999
155 0.000968
92 0.000997
60 0.001995
51 0.001995
60 0.001019
78 0.000996
97 0.001006
115 0.001995
125 0.002027
117 0.000998
101 0.002028
99 0.000966
105 0.001026
116 0.00101
129 0.002013
140 0.001996
154 0.001008
161 0.000998
166 0.001017
169 0.001995
172 0.001995
175 0.002024
178 0.00202
183 0.000992
190 0.000988
195 0.000957
172 0.000996
105 0.001996
65 0.001995
52 0.000992
59 0.000985
77 0.001962
99 0.001995
120 0.002992
137 0.003
123 0.002994
103 0.001979
100 0.001987
106 0.002035
117 0.003
131 0.002992
148 0.000978
159 0.001025
168 0.001055
174 0.002992
178 0.002979
182 0.002984
184 0.002983
190 0.002023
195 0.001986
193 0.001991
145 0.003
81 0.002967
46 0.002025
44 0.002037
56 0.00199
75 0.002992
94 0.004004
120 0.003986
118 0.003989
101 0.001983
92 0.001986
94 0.002046
102 0.002992
113 0.003025
130 0.001988
142 0.001991
152 0.003
159 0.003988
164 0.003989
169 0.00399
171 0.003996
175 0.002955
180 0.003018
186 0.003032
179 0.004023
121 0.003868
58 0.003021
42 0.003025
45 0.001983
57 0.003992
77 0.005021
109 0.003943
119 0.00399
112 0.00398
95 0.002988
90 0.003035
94 0.003024
103 0.003989
115 0.003989
133 0.002996
144 0.003001
154 0.004019
160 0.004987
167 0.003977
169 0.004973
171 0.004983
175 0.003988
181 0.003006
187 0.003026
184 0.00399
130 0.003972
61 0.002986
45 0.003998
48 0.003978
62 0.00495
94 0.003987
114 0.004969
123 0.005024
109 0.003987
94 0.002967
89 0.004022
93 0.004986
103 0.004987
119 0.005026
131 0.003983
141 0.005017
147 0.005984
154 0.003993
157 0.004997
160 0.004986
165 0.003985
171 0.004961
173 0.003989
145 0.005024
87 0.005027
47 0.004956
42 0.005007
51 0.004976
67 0.005984
96 0.004986
109 0.005988
107 0.006021
92 0.005033
85 0.005022
86 0.004031
94 0.006031
104 0.006022
120 0.004978
130 0.004969
138 0.004991
143 0.006035
149 0.004976
152 0.005985
155 0.005984
159 0.005028
166 0.005031
170 0.005035
151 0.005028
94 0.007034
55 0.007012
40 0.005024
47 0.006015
62 0.005018
91 0.004981
105 0.004978
105 0.005987
94 0.005986
84 0.004994
85 0.004987
91 0.005978
102 0.006977
113 0.007013
127 0.005974
135 0.005993
141 0.005972
148 0.005984
152 0.005989
155 0.006981
157 0.006981
164 0.004972
170 0.005993
178 0.006014
181 0.006981
147 0.006981
70 0.00598
46 0.00599
43 0.005993
64 0.005979
83 0.005987
101 0.006984
114 0.006978
106 0.007011
93 0.007011
86 0.007012
89 0.007948
98 0.007979
113 0.006005
126 0.005969
136 0.005982
146 0.005981
150 0.005983
152 0.007024
155 0.006975
156 0.005986
159 0.006981
164 0.007017
171 0.007979
179 0.007979
165 0.006972
104 0.007016
62 0.007018
48 0.006051
60 0.007025
78 0.007979
98 0.007979
121 0.005988
118 0.006979
108 0.006995
93 0.008023
92 0.007974
97 0.007941
112 0.006972
124 0.006978
142 0.006977
150 0.00698
156 0.006997
160 0.007979
163 0.007979
168 0.007017
171 0.007005
173 0.007947
180 0.007024
187 0.007014
191 0.006981
169 0.006976
69 0.006978
42 0.006981
46 0.006982
60 0.007007
77 0.007025
98 0.006987
110 0.007034
108 0.007047
97 0.007013
89 0.007019
91 0.007014
99 0.007011
119 0.006023
130 0.007007
139 0.007011
146 0.007023
151 0.005974
155 0.006018
158 0.007012
161 0.007017
163 0.006022
166 0.006002
172 0.006021
179 0.00602
188 0.006012
156 0.006022
92 0.006013
55 0.006021
42 0.006017
51 0.006024
68 0.005034
85 0.005987
102 0.006031
112 0.006016
104 0.006019
94 0.004988
92 0.005979
99 0.004989
110 0.005019
122 0.004999
134 0.005989
146 0.005992
153 0.00602
157 0.005029
160 0.005017
163 0.006002
165 0.005986
168 0.005969
173 0.005983
184 0.006026
190 0.005984
180 0.005973
120 0.005023
71 0.005024
48 0.005049
53 0.004987
68 0.005013
85 0.005015
103 0.00503
120 0.004982
109 0.00502
93 0.004995
91 0.00503
96 0.00502
106 0.005019
118 0.005977
132 0.005986
142 0.005025
148 0.005036
152 0.004991
155 0.004954
159 0.005042
162 0.005045
169 0.005031
174 0.005034
164 0.004988
110 0.005038
64 0.005017
41 0.005022
45 0.00502
58 0.004977
74 0.005024
89 0.005031
103 0.004021
97 0.00402
85 0.003991
84 0.004058
90 0.003992
99 0.004024
109 0.004025
124 0.003991
133 0.004021
139 0.004011
144 0.004022
148 0.00399
153 0.004025
157 0.004021
162 0.004989
167 0.004022
174 0.00304
179 0.003023
154 0.003996
76 0.004026
47 0.003989
40 0.003988
49 0.004028
64 0.003989
84 0.004021
102 0.004027
101 0.004016
89 0.003952
84 0.003992
85 0.00403
92 0.004067
102 0.004038
117 0.002992
128 0.00299
136 0.002992
143 0.003022
147 0.002958
153 0.002992
156 0.003008
161 0.002992
165 0.002993
170 0.002993
176 0.002956
185 0.002996
188 0.003038
143 0.003052
81 0.002992
52 0.001995
44 0.003038
62 0.002992
79 0.002993
102 0.002994
112 0.002968
108 0.002987
97 0.002993
90 0.002992
92 0.003045
101 0.003019
113 0.003038
124 0.002992
136 0.002993
147 0.001995
151 0.00201
157 0.001996
162 0.002029
166 0.001995
169 0.001995
173 0.002032
181 0.002002
189 0.002029
193 0.001988
168 0.001995
103 0.003001
55 0.001997
54 0.001996
70 0.001995
88 0.000996
106 0.000998
119 0.002017
118 0.001996
102 0.002008
94 0.001995
94 0.002025
101 0.002002
112 0.001995
132 0.001965
142 0.001995
149 0.001995
156 0.002017
160 0.001995
163 0.000997
165 0.000997
169 0.001007
172 0.000997
177 0.000998
184 0.000998
191 0.001037
164 0.000997
97 0.000952
57 0.000982
44 0.000997
52 0.000997
67 0.001995
84 0.002029
100 0.000998
110 0.000998
102 0.001002
92 0.000999
87 0.000997
95 0.000997
105 0.000997
118 0.000998
133 0.000997
141 0.000997
148 0.000997
152 0.000998
156 0.0
160 0.0
162 0.000998
166 0.0
170 0.0
176 0.0
182 0.0
190 0.0
200 0.0
183 0.0
112 0.0
61 0.0
41 0.0
46 0.0
61 0.0
79 0.000997
97 0.0
115 0.0
102 0.0
94 0.0
88 0.0
93 0.0
103 0.0
119 0.0
132 0.0
143 0.0
150 0.0
157 0.0
160 0.0
164 0.001033
167 0.0
169 0.0
172 0.0
177 0.001035
183 0.000999
193 0.0
192 0.0
140 0.0
77 0.000997
48 0.000997
43 0.000978
61 0.002031
87 0.0
109 0.0
123 0.0
118 0.000997
103 0.001032
91 0.0
92 0.0
100 0.0
112 0.001039
126 0.001022
142 0.000966
152 0.001031
159 0.0
163 0.0
166 0.0
167 0.001996
170 0.001995
175 0.001017
180 0.001028
187 0.0
179 0.002031
120 0.001041
54 0.0
36 0.001029
46 0.0
62 0.0
80 0.001007
97 0.001898
107 0.002005
98 0.001987
87 0.001986
83 0.000958
85 0.002031
94 0.00205
110 0.001015
125 0.003034
137 0.00104
144 0.002019
149 0.002048
152 0.001995
155 0.001998
158 0.002029
161 0.002034
166 0.002035
172 0.003029
179 0.003026
173 0.001038
94 0.002992
53 0.003041
38 0.000982
45 0.000992
61 0.001015
79 0.002992
97 0.002992
113 0.000995
106 0.000993
94 0.000978
87 0.002992
88 0.002992
103 0.002992
116 0.002994
132 0.002052
142 0.002034
149 0.002026
154 0.002994
157 0.002992
161 0.00202
163 0.000977
165 0.000989
169 0.003993
176 0.003981
186 0.002992
160 0.002992
80 0.001999
51 0.002
44 0.001996
51 0.002992
68 0.002992
94 0.002024
112 0.002049
120 0.002984
110 0.003989
96 0.00398
89 0.003989
96 0.004024
112 0.003019
125 0.00201
136 0.002004
146 0.004022
153 0.002992
157 0.001996
161 0.002977
164 0.002994
166 0.004024
170 0.003983
179 0.003989
166 0.00399
88 0.003036
51 0.003031
39 0.002998
44 0.004029
58 0.004956
81 0.003031
99 0.004019
110 0.003025
106 0.004987
94 0.004966
86 0.002983
91 0.004028
102 0.003989
118 0.003025
130 0.002991
140 0.002997
147 0.004987
151 0.004986
156 0.003975
160 0.003983
162 0.00399
164 0.004978
175 0.002999
180 0.004984
164 0.005035
85 0.002993
51 0.002992
40 0.002991
45 0.004987
54 0.005985
84 0.001997
102 0.003984
112 0.003978
106 0.004987
88 0.003988
86 0.004986
92 0.00502
106 0.004069
119 0.004023
130 0.004004
139 0.005984
145 0.006015
150 0.005019
153 0.004991
156 0.004022
158 0.005978
166 0.004955
173 0.005027
175 0.004987
123 0.004959
73 0.003993
50 0.00398
47 0.00602
56 0.006018
77 0.003976
96 0.004986
112 0.00502
112 0.006006
92 0.005029
86 0.006015
89 0.006017
101 0.004985
112 0.004979
123 0.004993
132 0.006981
138 0.007014
143 0.005018
146 0.004983
148 0.004982
151 0.005979
160 0.004988
161 0.006015
133 0.006022
84 0.006018
49 0.004988
45 0.004995
53 0.005995
66 0.007031
80 0.006981
99 0.006018
101 0.006014
93 0.004995
84 0.004988
87 0.004999
94 0.007016
104 0.007979
117 0.005983
125 0.005995
132 0.005982
136 0.006981
139 0.006981
143 0.005986
145 0.005987
147 0.005986
156 0.005997
162 0.006007
159 0.00699
117 0.006976
64 0.006027
47 0.007014
48 0.007007
64 0.008001
73 0.007979
90 0.005974
100 0.005976
97 0.00599
86 0.006004
84 0.005973
92 0.007961
97 0.007979
111 0.006984
120 0.006996
128 0.007012
135 0.007974
139 0.007979
143 0.006008
145 0.006973
148 0.005983
154 0.006017
158 0.005837
167 0.007977
172 0.007979
164 0.006987
112 0.006994
71 0.006979
53 0.007978
53 0.007946
69 0.006973
84 0.006947
100 0.006978
111 0.006989
102 0.006983
93 0.007947
90 0.007979
96 0.007008
109 0.006981
118 0.006976
125 0.006973
135 0.007023
139 0.007022
143 0.00696
145 0.005987
148 0.006986
151 0.006949
156 0.006989
164 0.007043
169 0.007055
132 0.006998
84 0.006982
58 0.006985
50 0.007016
57 0.007015
76 0.006971
87 0.006969
112 0.006987
109 0.006977
101 0.00698
91 0.007014
92 0.006015
102 0.00702
112 0.007001
122 0.007026
132 0.007021
139 0.007022
146 0.006995
149 0.006992
154 0.007007
157 0.006982
159 0.006979
163 0.007018
168 0.006018
178 0.006018
180 0.005984
140 0.005983
85 0.006025
55 0.006032
47 0.005974
57 0.005989
84 0.005953
99 0.006016
111 0.006017
109 0.006027
100 0.005988
93 0.005974
96 0.006019
104 0.005985
115 0.005943
127 0.005971
142 0.00603
150 0.006017
160 0.006021
165 0.005992
168 0.004988
172 0.005029
175 0.00602
180 0.005022
184 0.005057
191 0.004987
196 0.0
201 0.005023
154 0.005015
77 0.005028
54 0.006029
62 0.005985
80 0.005985
99 0.005057
119 0.006022
133 0.005034
124 0.004982
108 0.005018
101 0.005016
104 0.005027
113 0.00499
129 0.005029
146 0.00502
160 0.005019
167 0.006035
171 0.006022
174 0.004
177 0.005033
182 0.004021
187 0.004116
193 0.00401
191 0.004077
144 0.004019
76 0.004019
54 0.004024
63 0.004988
80 0.003961
100 0.005009
120 0.00503
134 0.005011
125 0.004964
112 0.004021
105 0.005017
108 0.004012
115 0.003991
131 0.004019
148 0.003991
162 0.004051
168 0.00401
173 0.004024
177 0.004042
180 0.004024
183 0.004987
187 0.002993
192 0.002994
196 0.004048
173 0.004003
88 0.003958
51 0.00399
50 0.004002
64 0.00402
83 0.004031
102 0.003029
120 0.003991
125 0.004026
110 0.00303
100 0.003029
99 0.002994
104 0.003042
115 0.002992
136 0.002993
148 0.003017
160 0.003038
167 0.002995
171 0.002993
174 0.003039
177 0.003002
181 0.002992
185 0.003003
191 0.002993
192 0.00199
144 0.004001
58 0.003028
44 0.003024
53 0.002992
71 0.002964
92 0.002963
115 0.002994
130 0.002996
118 0.002992
101 0.002993
94 0.003056
97 0.003028
105 0.002025
126 0.002033
138 0.001995
151 0.001996
156 0.002027
160 0.002994
163 0.002994
168 0.001955
175 0.002984
178 0.002995
153 0.00304
94 0.003005
56 0.002999
43 0.001998
56 0.001995
81 0.002031
102 0.001995
121 0.001991
121 0.001998
107 0.001995
93 0.001995
93 0.002004
100 0.001991
110 0.001031
123 0.001003
141 0.000999
149 0.000999
156 0.001002
160 0.000997
163 0.000997
167 0.000997
172 0.001996
176 0.000997
143 0.001996
83 0.001997
49 0.002036
38 0.002029
53 0.000998
72 0.000999
91 0.000999
111 0.000998
107 0.001007
96 0.001004
87 0.001037
87 0.000997
96 0.000997
106 0.000996
118 0.001996
130 0.000998
145 0.002016
151 0.001996
155 0.000994
161 0.000998
163 0.000999
167 0.000998
173 0.001
179 0.000997
151 0.000995
90 0.000999
54 0.000997
41 0.000998
56 0.000997
75 0.000999
95 0.009002
113 0.001995
113 0.0
100 0.0
91 0.0
91 0.0
101 0.0
113 0.0
125 0.0
136 0.000987
148 0.000992
152 0.0
155 0.0
158 0.0
162 0.0
167 0.0
175 0.0
176 0.0
120 0.0
73 0.0
51 0.0
49 0.0
81 0.000997
95 0.0
117 0.0
127 0.002025
115 0.000998
99 0.0
97 0.0
103 0.0
114 0.002025
126 0.001031
138 0.002031
150 0.0
157 0.001029
162 0.0
164 0.0
168 0.0
171 0.001033
176 0.001026
182 0.0
170 0.0
110 0.0
63 0.001029
43 0.001025
47 0.0
68 0.002019
91 0.0
107 0.0
110 0.0
102 0.002027
93 0.002024
90 0.0
96 0.0
107 0.000971
118 0.000997
130 0.001028
143 0.0
151 0.001032
157 0.0
160 0.0
163 0.0
166 0.000999
170 0.000999
180 0.0
188 0.0
183 0.0
126 0.002025
72 0.002026
44 0.0
52 0.002027
69 0.000998
95 0.000955
113 0.000971
121 0.00097
112 0.001991
97 0.000963
95 0.001988
101 0.0
111 0.001996
124 0.001959
140 0.000959
154 0.002001
162 0.002025
167 0.001004
169 0.0
171 0.00203
173 0.002997
178 0.000997
184 0.002006
191 0.001994
182 0.00196
121 0.001962
62 0.002031
50 0.001999
66 0.001994
87 0.002002
108 0.001991
129 0.002025
134 0.002993
120 0.002992
102 0.002025
101 0.000996
108 0.000999
119 0.003008
133 0.002996
153 0.002993
162 0.002992
169 0.000987
173 0.001998
177 0.001993
179 0.002992
181 0.002992
188 0.000988
194 0.00099
189 0.002006
131 0.002995
72 0.002995
42 0.002992
49 0.003027
72 0.001032
91 0.002003
109 0.001983
117 0.00399
110 0.004022
96 0.002995
92 0.001997
97 0.001994
107 0.003005
120 0.003952
141 0.00399
150 0.003992
159 0.00199
164 0.003028
168 0.001984
171 0.00399
173 0.003989
178 0.001993
183 0.00296
192 0.001977
199 0.00399
182 0.003944
73 0.003985
46 0.003991
45 0.001996
59 0.001982
79 0.001988
99 0.003989
117 0.004986
117 0.001994
105 0.003029
97 0.004953
93 0.005017
102 0.003991
122 0.004012
136 0.003982
152 0.003004
160 0.002994
167 0.00299
171 0.003021
175 0.004987
178 0.00499
182 0.002991
186 0.003001
190 0.002995
195 0.004985
208 0.003003
201 0.004987
131 0.00503
60 0.002992
47 0.002994
51 0.002987
68 0.004987
89 0.004996
119 0.002969
135 0.003991
128 0.003997
110 0.004991
97 0.003024
103 0.004987
113 0.005018
130 0.003031
143 0.002996
153 0.002991
160 0.00603
165 0.005986
170 0.00399
172 0.003989
174 0.003995
176 0.005016
184 0.003992
192 0.004987
192 0.005001
121 0.003994
71 0.003996
50 0.003994
50 0.005988
63 0.005984
89 0.003986
110 0.003983
128 0.003979
129 0.005987
103 0.004001
96 0.005993
99 0.005984
111 0.003979
124 0.003974
137 0.004
147 0.005978
156 0.00597
162 0.004987
166 0.004969
169 0.004979
172 0.006001
175 0.004988
179 0.006982
186 0.007017
188 0.005146
136 0.003964
74 0.005951
45 0.006948
39 0.007003
49 0.006945
74 0.004983
94 0.004006
112 0.004984
111 0.004034
97 0.004979
88 0.005984
89 0.006024
99 0.004033
111 0.005943
125 0.005985
135 0.007014
144 0.006966
152 0.004979
156 0.005981
159 0.005981
164 0.005972
168 0.005001
172 0.007031
179 0.007023
188 0.005021
173 0.004983
106 0.004986
48 0.007976
38 0.007962
44 0.005984
61 0.005978
82 0.005986
117 0.005987
121 0.005991
108 0.006982
93 0.007012
89 0.005981
95 0.007012
106 0.005981
119 0.007975
133 0.007973
147 0.006983
154 0.005987
159 0.005981
164 0.006015
166 0.00598
168 0.007943
173 0.007944
180 0.005975
184 0.005986
154 0.005988
92 0.007979
58 0.007962
50 0.00698
61 0.005937
81 0.006977
119 0.006972
137 0.006005
132 0.007978
107 0.007997
98 0.005975
100 0.005969
108 0.005991
125 0.007023
137 0.007013
148 0.006984
159 0.006976
162 0.006952
167 0.006972
169 0.006979
171 0.006975
175 0.007012
180 0.007042
185 0.00698
168 0.006983
104 0.00602
49 0.007019
38 0.006981
47 0.006986
59 0.00699
96 0.006974
110 0.006972
107 0.006982
95 0.007026
86 0.007024
84 0.00697
93 0.006972
104 0.005989
115 0.007012
127 0.007012
137 0.005964
143 0.005985
147 0.005984
148 0.005997
147 0.006942
144 0.007035
143 0.00699
146 0.006981
151 0.006978
148 0.006979
108 0.007007
65 0.005979
40 0.005979
44 0.005977
70 0.005982
87 0.00596
102 0.005963
109 0.00599
102 0.006021
89 0.005977
87 0.005991
91 0.004968
100 0.005014
111 0.007056
126 0.005966
135 0.005956
145 0.005984
149 0.006033
152 0.006016
155 0.006015
158 0.006033
162 0.004948
169 0.005981
177 0.005984
180 0.006023
143 0.005029
74 0.004988
53 0.005026
59 0.005999
76 0.005022
95 0.00492
115 0.005993
127 0.00601
121 0.006026
106 0.005982
101 0.006016
103 0.005016
113 0.004963
124 0.005033
140 0.00509
153 0.005978
161 0.006033
166 0.005982
169 0.005029
171 0.005019
173 0.004019
176 0.004987
179 0.00497
185 0.005021
192 0.00502
198 0.005011
170 0.004987
88 0.004982
59 0.005011
60 0.00504
73 0.005018
92 0.004981
113 0.00399
136 0.004023
133 0.004021
117 0.003988
105 0.00402
102 0.004029
111 0.00403
126 0.004011
143 0.004014
153 0.003996
160 0.004008
165 0.004024
168 0.004023
171 0.004978
173 0.004979
176 0.004987
179 0.004018
185 0.004018
187 0.00399
118 0.00399
64 0.003957
52 0.003989
56 0.003989
72 0.003989
90 0.004011
115 0.004977
127 0.004943
121 0.004024
108 0.003986
100 0.00399
101 0.002985
112 0.003039
127 0.003999
139 0.002993
148 0.00399
156 0.003993
161 0.004014
167 0.00399
169 0.003988
171 0.004025
173 0.002999
177 0.004021
186 0.002962
187 0.003029
135 0.002992
70 0.003032
54 0.002992
56 0.003015
69 0.003991
87 0.002986
113 0.002991
128 0.002986
127 0.003959
114 0.002992
103 0.002996
104 0.003036
112 0.002992
128 0.003058
140 0.002984
150 0.002992
159 0.003063
165 0.002988
171 0.002991
174 0.002988
176 0.002991
179 0.003023
182 0.002993
191 0.003027
198 0.002992
181 0.002992
111 0.002036
68 0.002036
54 0.002028
58 0.001996
78 0.001971
99 0.002031
122 0.001996
138 0.001995
133 0.001004
105 0.002029
99 0.002
106 0.000997
116 0.001992
129 0.00096
142 0.001996
152 0.002009
162 0.001999
167 0.002027
171 0.001992
173 0.001993
175 0.000998
181 0.001994
187 0.001995
179 0.001996
117 0.002026
69 0.002006
49 0.001996
49 0.001996
67 0.002006
88 0.002006
110 0.002027
130 0.002035
132 0.000998
105 0.000999
97 0.000998
99 0.001055
110 0.000998
123 0.000996
137 0.000999
149 0.001014
158 0.001009
167 0.000998
168 0.014917
174 0.000997
177 0.000963
181 0.002024
184 0.002027
189 0.001996
194 0.000998
149 0.0
78 0.0
45 0.000997
37 0.000997
50 0.001008
70 0.000997
92 0.000997
113 0.000998
120 0.000998
103 0.000997
90 0.0
90 0.0
97 0.0
109 0.0
122 0.0
136 0.0
149 0.0
156 0.0
161 0.0
164 0.000997
167 0.0
169 0.000961
172 0.000963
179 0.0
186 0.0
184 0.0
126 0.0
66 0.0
37 0.0
40 0.0
55 0.0
84 0.0
115 0.001007
129 0.0
119 0.0
96 0.000963
90 0.000998
97 0.0
107 0.0
121 0.0
135 0.0
147 0.001009
158 0.0
164 0.001014
169 0.001001
171 0.0
172 0.000994
177 0.0
183 0.00203
186 0.002026
134 0.0
75 0.0
50 0.0
47 0.00203
58 0.001996
86 0.0
118 0.001993
140 0.0
129 0.0
108 0.0
98 0.002026
98 0.001029
109 0.0
123 0.0
137 0.0
148 0.002002
158 0.001032
166 0.000956
171 0.001032
174 0.0
178 0.0
183 0.0
185 0.002036
153 0.00196
70 0.0
42 0.0
36 0.0
46 0.002031
65 0.001961
91 0.0
115 0.002028
110 0.000959
96 0.0
87 0.0
86 0.001036
94 0.001959
109 0.0
122 0.001001
134 0.0
143 0.001991
149 0.001978
154 0.0
157 0.001996
161 0.001033
166 0.000998
170 0.001003
158 0.001993
102 0.002993
47 0.001995
36 0.001996
42 0.001995
58 0.002959
78 0.002992
103 0.002
110 0.001996
96 0.001995
86 0.001005
85 0.000998
91 0.002005
102 0.002981
113 0.002995
127 0.002024
136 0.000998
143 0.002005
147 0.002993
151 0.003004
156 0.002986
160 0.002993
167 0.001993
170 0.001999
141 0.001994
88 0.002993
58 0.002995
51 0.000993
62 0.000984
79 0.0
98 0.003016
116 0.002989
117 0.003025
104 0.002992
94 0.001964
98 0.001957
106 0.001983
116 0.003975
127 0.003992
139 0.001982
144 0.001993
148 0.002001
151 0.003984
153 0.002993
157 0.002992
162 0.003
168 0.001987
157 0.001954
110 0.002007
74 0.003986
60 0.003999
67 0.001992
82 0.002005
100 0.001998
118 0.003999
128 0.00399
112 0.004024
103 0.003989
103 0.002985
109 0.002989
118 0.002982
128 0.003989
137 0.00398
144 0.001982
149 0.002963
152 0.002958
155 0.003989
157 0.003985
162 0.00399
166 0.004026
154 0.003
106 0.003011
70 0.003005
55 0.002984
57 0.00496
69 0.004993
88 0.00196
102 0.003011
110 0.00197
106 0.004042
94 0.001984
93 0.004987
98 0.005994
109 0.004011
118 0.002976
127 0.002992
134 0.004985
139 0.004985
145 0.002998
148 0.003007
149 0.002991
152 0.004992
157 0.002995
163 0.004987
169 0.005979
157 0.003982
108 0.003992
72 0.002977
57 0.005974
59 0.005992
77 0.002968
91 0.003989
103 0.002992
112 0.004993
104 0.003989
99 0.004986
98 0.004987
105 0.004008
114 0.003986
123 0.003989
131 0.005994
140 0.005978
148 0.003988
152 0.003991
156 0.004007
158 0.006018
162 0.004958
164 0.005984
167 0.006986
174 0.004956
182 0.004988
190 0.004958
176 0.006985
118 0.005981
74 0.00399
66 0.004987
74 0.003981
89 0.005989
116 0.004026
129 0.005984
128 0.00595
114 0.003993
107 0.003987
107 0.005002
113 0.006982
122 0.006999
135 0.004985
143 0.004996
150 0.005003
155 0.00499
161 0.00499
163 0.004986
166 0.006998
169 0.006983
174 0.004015
180 0.00599
182 0.004967
149 0.006983
99 0.007012
69 0.004995
67 0.004989
76 0.004989
101 0.005011
114 0.004999
123 0.00698
118 0.007976
110 0.005984
107 0.005988
109 0.005978
116 0.007942
128 0.007984
138 0.005984
146 0.005981
153 0.005987
161 0.005991
165 0.004975
168 0.006991
170 0.00698
174 0.005985
177 0.004982
183 0.005984
192 0.007977
187 0.007967
132 0.005984
86 0.005993
67 0.006016
71 0.005985
87 0.005984
107 0.007973
121 0.007979
127 0.004989
120 0.006997
110 0.005952
106 0.007977
110 0.00794
118 0.005966
129 0.005982
140 0.00599
156 0.005988
164 0.005982
172 0.006964
177 0.007946
180 0.005987
182 0.007003
184 0.006976
188 0.007011
195 0.007028
203 0.007018
204 0.005967
150 0.005986
68 0.006978
64 0.005985
69 0.005975
92 0.006982
112 0.006985
132 0.005987
145 0.005977
138 0.005988
116 0.006979
109 0.00702
115 0.006977
121 0.006982
144 0.006989
155 0.006978
164 0.006962
169 0.008976
171 0.003002
179 0.006976
181 0.005985
186 0.005981
192 0.006016
195 0.006024
142 0.005968
89 0.005996
61 0.005984
67 0.004997
77 0.006987
105 0.007011
128 0.007035
148 0.006981
144 0.005985
124 0.005975
113 0.006015
112 0.006015
122 0.005986
135 0.005992
156 0.005989
167 0.005977
176 0.005973
182 0.006022
187 0.005983
191 0.005984
194 0.005986
198 0.005019
202 0.004987
190 0.006026
98 0.005982
59 0.005972
46 0.006015
58 0.005991
78 0.005975
98 0.006015
118 0.006014
125 0.00598
111 0.004985
98 0.005955
94 0.005024
97 0.00502
111 0.004993
125 0.004992
142 0.005029
156 0.005951
163 0.004968
168 0.005013
171 0.005009
173 0.00499
177 0.005028
183 0.005038
186 0.00502
160 0.005
92 0.005024
48 0.004987
45 0.005022
64 0.00499
84 0.004984
106 0.004974
124 0.005024
124 0.004988
103 0.004022
93 0.003989
94 0.003989
101 0.004027
113 0.003991
129 0.003988
143 0.004985
152 0.004971
156 0.003966
158 0.00398
160 0.003974
166 0.003988
172 0.004
164 0.003994
114 0.003989
74 0.004991
58 0.003998
62 0.00401
83 0.004024
111 0.003966
131 0.003955
135 0.004002
121 0.00403
108 0.004021
103 0.004021
109 0.003988
119 0.003956
131 0.00404
141 0.00399
153 0.00396
160 0.003989
165 0.00399
167 0.002955
172 0.002975
176 0.003036
174 0.003002
112 0.003985
70 0.003955
51 0.003954
51 0.003942
63 0.003944
86 0.00298
107 0.002979
115 0.002991
105 0.003951
96 0.003027
93 0.002997
96 0.002991
103 0.002994
118 0.002996
127 0.002984
135 0.003026
142 0.003042
146 0.003035
151 0.003959
154 0.004019
161 0.003958
162 0.002935
128 0.002971
80 0.003026
52 0.002994
46 0.00299
56 0.002986
74 0.002989
90 0.003042
106 0.002999
104 0.002027
94 0.002994
88 0.001992
92 0.002025
100 0.002027
111 0.001959
122 0.001993
134 0.002006
142 0.001997
148 0.001983
152 0.002995
154 0.002992
159 0.003025
164 0.001996
170 0.002029
147 0.001999
90 0.001988
55 0.001995
44 0.002029
53 0.001968
71 0.002053
91 0.002028
111 0.002028
120 0.001986
106 0.002035
91 0.002029
92 0.001986
99 0.000998
110 0.000998
122 0.001039
133 0.000993
142 0.002028
147 0.000996
150 0.001008
153 0.002019
157 0.001995
164 0.001995
142 0.002025
80 0.001993
56 0.00103
52 0.000997
64 0.001995
81 0.000998
100 0.000999
125 0.000963
125 0.0
111 0.002027
101 0.000997
99 0.000997
110 0.002028
121 0.001953
135 0.000995
143 0.0
149 0.0
153 0.000999
156 0.000967
160 0.001046
164 0.000998
168 0.000997
169 0.000983
136 0.001031
61 0.000998
45 0.001002
52 0.000997
68 0.0
83 0.0
97 0.0
104 0.0
97 0.0
89 0.0
87 0.001001
91 0.000997
99 0.000998
115 0.0
124 0.000997
132 0.001
137 0.0
140 0.0
143 0.0
146 0.0
150 0.0
157 0.0
163 0.0
157 0.0
112 0.000967
57 0.0
52 0.0
65 0.000998
79 0.0
94 0.0
106 0.0
107 0.0
98 0.00203
94 0.002027
97 0.0
105 0.0
114 0.0
128 0.00096
135 0.0
140 0.002025
143 0.002029
145 0.002027
148 0.0
152 0.0
157 0.002026
162 0.001994
162 0.002025
120 0.0
87 0.0
75 0.0
84 0.0
98 0.001005
111 0.001029
123 0.001029
124 0.000998
116 0.0
111 0.0
111 0.002031
117 0.002031
128 0.0
136 0.0
144 0.0
148 0.0
151 0.0
153 0.002032
155 0.002997
158 0.0
162 0.0
166 0.001014
169 0.001994
157 0.002988
103 0.0
78 0.001011
77 0.000993
87 0.001009
97 0.0
105 0.002025
111 0.002025
110 0.0
105 0.0
103 0.0
105 0.002001
111 0.001998
120 0.0
126 0.000976
135 0.001013
139 0.001006
141 0.000997
144 0.002992
146 0.002992
149 0.000995
152 0.00096
155 0.0
160 0.001996
166 0.001998
170 0.00097
147 0.0
86 0.001003
75 0.001994
79 0.001996
88 0.003007
98 0.002962
108 0.001996
114 0.001994
112 0.0
108 0.002996
105 0.002993
108 0.001996
114 0.001994
123 0.003006
131 0.000989
135 0.001989
139 0.000991
143 0.002994
146 0.002992
149 0.001993
152 0.001999
155 0.001997
158 0.002992
161 0.002976
166 0.001995
172 0.002994
180 0.001984
182 0.001982
151 0.001998
107 0.003985
86 0.003987
86 0.001994
98 0.001994
109 0.002001
118 0.003029
124 0.015958
126 0.001995
118 0.002994
115 0.002001
120 0.001995
127 0.001991
134 0.003993
140 0.003994
147 0.00199
150 0.002027
152 0.002996
156 0.004037
159 0.00399
162 0.002029
167 0.003996
171 0.002029
175 0.001968
179 0.002001
183 0.003987
189 0.003986
194 0.001998
172 0.001993
123 0.001995
97 0.004019
90 0.003988
98 0.001995
112 0.003992
120 0.001995
126 0.003002
126 0.001996
123 0.004986
120 0.004981
121 0.001983
125 0.002996
131 0.00299
138 0.00399
144 0.00399
150 0.001994
155 0.003989
160 0.002991
162 0.002962
165 0.002953
168 0.004992
172 0.004986
176 0.005992
181 0.002979
187 0.002998
192 0.002995
199 0.005021
204 0.00401
158 0.004989
115 0.004977
95 0.002996
97 0.002995
106 0.002991
117 0.004945
125 0.004989
135 0.00299
134 0.002989
128 0.002995
123 0.005021
122 0.004987
130 0.005984
137 0.005986
146 0.002991
152 0.002995
157 0.002997
161 0.004987
163 0.004984
167 0.002994
169 0.003992
172 0.002995
175 0.006034
179 0.006042
187 0.005988
194 0.005951
198 0.003989
165 0.003987
119 0.004006
95 0.005985
89 0.005983
98 0.00399
110 0.002994
121 0.004004
132 0.006982
136 0.004973
124 0.005984
119 0.005984
120 0.004009
126 0.003993
133 0.003994
142 0.005988
150 0.005989
157 0.003986
162 0.003992
166 0.003998
169 0.006982
172 0.006985
176 0.006981
179 0.006973
186 0.005007
192 0.003991
193 0.003992
156 0.005985
107 0.005982
75 0.004956
72 0.004986
80 0.004987
93 0.004999
104 0.006982
120 0.004953
119 0.00699
113 0.006955
106 0.004984
109 0.00499
115 0.005953
123 0.006998
132 0.007014
144 0.003975
150 0.003975
156 0.004989
160 0.007979
166 0.005985
168 0.007963
172 0.007017
177 0.00493
183 0.005986
191 0.004974
191 0.006978
145 0.006961
87 0.006017
70 0.004992
69 0.004991
79 0.007975
103 0.005954
121 0.007959
127 0.007968
121 0.004986
113 0.005978
109 0.005987
113 0.006985
120 0.007974
131 0.005986
141 0.005004
150 0.006024
158 0.007979
167 0.005986
170 0.007946
173 0.007976
176 0.00599
180 0.005983
185 0.004994
184 0.007942
143 0.007938
91 0.005987
76 0.005991
76 0.005995
91 0.007
112 0.00599
133 0.006977
137 0.006992
127 0.005983
117 0.006
115 0.005988
121 0.007967
130 0.007966
140 0.006005
150 0.005988
158 0.005992
164 0.007978
172 0.005971
176 0.00698
179 0.006981
183 0.006978
187 0.006977
175 0.005981
127 0.00598
80 0.006975
68 0.007014
74 0.006978
88 0.006979
96 0.006986
117 0.005982
120 0.005988
113 0.005915
107 0.006019
107 0.006979
113 0.006968
118 0.005987
130 0.006981
139 0.006019
145 0.006981
152 0.006983
155 0.006011
158 0.005996
162 0.005974
167 0.006016
172 0.006014
162 0.005982
119 0.005984
85 0.005976
69 0.006039
70 0.007028
80 0.006983
92 0.006983
108 0.006983
117 0.006166
113 0.005986
108 0.00602
108 0.005994
115 0.005985
123 0.005973
131 0.00598
138 0.005993
145 0.005982
152 0.005984
156 0.005984
159 0.005001
164 0.005972
167 0.004977
171 0.004986
177 0.006021
167 0.005983
131 0.005991
104 0.005979
93 0.005985
96 0.006009
111 0.005948
121 0.005988
132 0.005987
135 0.004991
129 0.005007
126 0.00502
126 0.00499
132 0.004985
139 0.004964
145 0.004977
150 0.006034
154 0.006033
158 0.005985
161 0.004988
164 0.005013
168 0.004983
172 0.004983
176 0.004982
175 0.004987
149 0.005044
112 0.004986
101 0.004976
102 0.004991
111 0.006032
120 0.005025
129 0.004028
134 0.004014
129 0.00399
125 0.003997
125 0.004004
128 0.003978
133 0.004023
140 0.004999
144 0.004983
149 0.005018
152 0.00502
154 0.004954
157 0.003988
160 0.00402
163 0.004028
165 0.003982
167 0.004005
170 0.003997
174 0.003993
179 0.004
175 0.003989
143 0.00398
110 0.005014
94 0.002995
96 0.004015
104 0.003989
116 0.004022
122 0.003985
123 0.003988
119 0.002969
116 0.003956
115 0.003077
119 0.002989
124 0.003998
129 0.004024
133 0.004023
139 0.003044
142 0.002977
146 0.003041
148 0.002994
151 0.003037
153 0.002956
156 0.002977
173 0.003989
178 0.002967
182 0.002995
186 0.003993
191 0.004
199 0.004045
202 0.004039
189 0.009974
87 0.002955
69 0.002987
70 0.002994
82 0.003029
95 0.003015
110 0.003013
117 0.002987
114 0.003027
108 0.002994
102 0.003046
104 0.003
114 0.00198
125 0.003955
133 0.001991
139 0.002959
144 0.001982
148 0.001999
153 0.003039
156 0.003027
160 0.002994
164 0.003019
167 0.002039
172 0.002994
177 0.002042
186 0.002989
192 0.00299
193 0.001983
156 0.001995
103 0.002043
67 0.001995
65 0.002028
76 0.002036
91 0.002034
103 0.002041
117 0.002026
112 0.001995
102 0.001027
98 0.002036
102 0.000998
110 0.000999
119 0.000997
130 0.000998
137 0.001995
143 0.001995
148 0.001996
152 0.001991
157 0.00202
162 0.001939
166 0.001972
170 0.002027
175 0.001985
180 0.001989
185 0.001996
195 0.001034
200 0.00103
182 0.000988
118 0.000958
69 0.000997
43 0.002005
52 0.001996
66 0.000985
84 0.000992
96 0.001988
99 0.00199
92 0.0
86 0.000998
84 0.000998
91 0.000999
101 0.000998
111 0.000997
121 0.000998
135 0.000997
141 0.000997
148 0.000997
152 0.000997
156 0.000963
160 0.0
165 0.0
172 0.0
178 0.0
184 0.0
191 0.0
197 0.0
210 0.0
192 0.0
98 0.0
53 0.0
35 0.0
39 0.0
55 0.0
78 0.001007
95 0.0
106 0.0
102 0.0
92 0.0
84 0.0
90 0.0
104 0.0
117 0.0
129 0.0
139 0.0
146 0.0
153 0.002034
158 0.0
163 0.0
167 0.000985
172 0.0
179 0.0
185 0.000996
193 0.002026
200 0.003052
159 0.000999
91 0.001027
49 0.000999
34 0.001031
43 0.002026
70 0.0
94 0.0
115 0.0
120 0.001012
108 0.0
98 0.0
97 0.002028
105 0.002024
122 0.0
136 0.0
149 0.000976
158 0.001028
165 0.002032
173 0.0
176 0.00099
181 0.000967
183 0.00102
186 0.0
193 0.001997
202 0.002024
207 0.001033
163 0.0
96 0.0
54 0.002026
41 0.001971
56 0.0
74 0.0
104 0.0
116 0.0
115 0.0
107 0.002975
100 0.001997
102 0.0
111 0.000997
119 0.001995
134 0.002992
144 0.002028
151 0.000975
156 0.000962
162 0.0
164 0.0
167 0.0
169 0.001995
172 0.001977
180 0.0
188 0.0
193 0.0
172 0.00203
102 0.002027
33 0.0
16 0.0
32 0.0
52 0.0
71 0.002001
89 0.003004
93 0.002992
81 0.002995
71 0.002031
72 0.001992
80 0.002031
91 0.001996
109 0.001993
124 0.001991
142 0.002003
150 0.000974
154 0.001996
160 0.002026
164 0.002987
169 0.002992
175 0.001992
184 0.002991
194 0.001998
200 0.003059
159 0.00305
66 0.002015
27 0.004
34 0.0
54 0.001993
79 0.002001
104 0.003002
121 0.003008
112 0.001991
97 0.001996
89 0.001992
92 0.00304
104 0.003987
125 0.002001
145 0.003991
159 0.001993
167 0.001993
174 0.002989
178 0.003988
182 0.004028
185 0.002005
188 0.000992
192 0.002994
199 0.003989
208 0.004026
189 0.002003
84 0.003997
23 0.001993
14 0.001992
26 0.002017
46 0.003997
65 0.00399
89 0.002002
94 0.001998
86 0.002992
76 0.00399
73 0.004982
82 0.002999
99 0.00499
116 0.001994
129 0.001997
139 0.001996
146 0.004994
152 0.003989
159 0.002023
162 0.001997
166 0.00199
170 0.003989
175 0.004987
182 0.002995
192 0.004991
204 0.004987
217 0.002971
182 0.003004
88 0.002989
28 0.004987
4 0.005019
13 0.003989
35 0.003958
58 0.002028
79 0.006015
93 0.006018
81 0.004991
71 0.004961
68 0.00302
77 0.001994
91 0.002996
108 0.004988
122 0.004987
139 0.003991
147 0.003997
154 0.002994
158 0.006015
163 0.006016
170 0.005981
175 0.005971
181 0.002991
187 0.002989
196 0.002995
206 0.005984
218 0.006019
189 0.003984
95 0.003984
34 0.003976
12 0.005984
17 0.005984
55 0.005948
80 0.006045
111 0.003984
112 0.003992
96 0.003991
81 0.005988
77 0.005984
87 0.003991
101 0.003988
117 0.004987
133 0.006968
146 0.006983
160 0.00695
165 0.006943
172 0.003987
176 0.003992
180 0.004024
183 0.007012
188 0.007021
195 0.00399
204 0.002992
216 0.002954
222 0.006982
172 0.006025
34 0.003986
2 0.006995
0 0.019948
12 0.0
49 0.004989
71 0.004976
90 0.007013
92 0.007009
76 0.004988
67 0.004991
67 0.004972
76 0.007017
100 0.003995
123 0.00797
137 0.00798
147 0.00499
155 0.005019
162 0.004982
167 0.007979
170 0.006982
175 0.005018
179 0.004977
185 0.004988
193 0.007976
204 0.005951
220 0.007939
228 0.008021
184 0.005978
82 0.005933
23 0.005969
0 0.007946
12 0.007949
36 0.00597
62 0.005967
86 0.005982
106 0.00794
93 0.005986
78 0.008024
70 0.007978
79 0.005951
94 0.005984
111 0.00497
135 0.006973
150 0.007041
160 0.005986
166 0.005995
172 0.005993
176 0.00799
181 0.00595
184 0.007918
189 0.007975
196 0.005999
205 0.006898
219 0.006979
220 0.007013
144 0.00798
56 0.006966
15 0.006017
7 0.006016
28 0.007017
66 0.005985
94 0.005979
124 0.006978
115 0.006983
93 0.005985
78 0.006978
80 0.006982
91 0.006993
108 0.007013
127 0.006982
149 0.00697
158 0.006015
175 0.005026
179 0.005977
185 0.006953
188 0.005985
193 0.005979
196 0.005982
203 0.00695
212 0.006027
220 0.006028
149 0.005983
81 0.006975
8 0.006936
62 0.006016
74 0.00698
87 0.006038
100 0.006984
115 0.005984
114 0.006949
105 0.005949
98 0.006018
96 0.005984
102 0.00595
110 0.005999
120 0.005984
135 0.005984
141 0.005991
145 0.006046
148 0.006985
152 0.004951
153 0.004997
155 0.005989
157 0.006023
160 0.006039
165 0.005031
170 0.004999
174 0.005
114 0.004963
77 0.005023
62 0.006005
62 0.005994
75 0.00502
89 0.005011
104 0.004985
117 0.005026
119 0.005059
107 0.005032
99 0.005999
98 0.005983
108 0.004992
117 0.004987
127 0.004984
136 0.005994
143 0.006025
150 0.005025
153 0.005986
156 0.005
157 0.005028
158 0.005039
160 0.005048
163 0.004987
171 0.003969
177 0.003952
173 0.004991
126 0.004988
83 0.005033
64 0.004967
67 0.005019
77 0.005024
92 0.004988
108 0.003991
127 0.00402
125 0.004035
105 0.004005
100 0.003933
103 0.003991
109 0.004028
119 0.003991
133 0.004988
141 0.004021
147 0.003998
152 0.004026
156 0.003994
158 0.003998
160 0.004045
162 0.003959
166 0.00394
170 0.00396
169 0.003992
135 0.00399
79 0.003989
63 0.002943
62 0.002963
71 0.00399
83 0.00402
102 0.002993
114 0.003032
112 0.00299
102 0.003927
96 0.003006
97 0.005987
103 0.003983
114 0.003989
124 0.002992
133 0.004007
140 0.004031
145 0.003948
150 0.004
152 0.004052
155 0.002992
156 0.002992
158 0.002958
162 0.002964
167 0.002992
171 0.002992
137 0.002988
90 0.00303
66 0.00399
60 0.002992
66 0.003026
82 0.003023
101 0.002995
118 0.002989
117 0.002992
108 0.001995
101 0.00204
99 0.001995
105 0.002033
114 0.001995
123 0.002038
133 0.002992
141 0.002992
149 0.002993
154 0.002939
158 0.002988
160 0.001995
161 0.001995
163 0.002032
165 0.001996
172 0.00204
177 0.001995
171 0.002025
125 0.001995
85 0.002032
67 0.001996
73 0.001029
90 0.001988
105 0.001996
120 0.000999
127 0.000998
120 0.00206
105 0.001993
101 0.001995
104 0.001995
111 0.002027
119 0.002
131 0.000959
141 0.001994
147 0.000958
150 0.000998
152 0.000998
154 0.00103
155 0.001996
159 0.001997
164 0.002025
165 0.001978
140 0.002029
95 0.002047
67 0.000999
64 0.001011
77 0.000982
90 0.000999
104 0.000998
116 0.002035
116 0.002028
107 0.002028
97 0.000996
98 0.0
104 0.002049
111 0.002036
120 0.0
132 0.000999
137 0.0
142 0.000997
145 0.000998
148 0.001
150 0.000996
152 0.001
157 0.000997
162 0.000997
166 0.001002
159 0.0
113 0.0
66 0.0
61 0.0
70 0.0
84 0.0
98 0.0
113 0.0
118 0.0
108 0.000997
99 0.0
97 0.0
100 0.0
107 0.0
123 0.0
132 0.0
142 0.0
147 0.0
150 0.0
152 0.0
154 0.000998
156 0.001032
158 0.002035
163 0.000966
167 0.001041
169 0.0
102 0.001004
73 0.0
65 0.002026
69 0.002032
84 0.0
100 0.0
117 0.0
127 0.002032
121 0.002
105 0.000975
99 0.0
102 0.0
114 0.0
124 0.0
133 0.002001
141 0.001993
146 0.002027
151 0.0
153 0.001019
155 0.0
157 0.002033
159 0.002026
165 0.000965
167 0.0
114 0.0
78 0.0
63 0.0
62 0.002033
70 0.002031
86 0.0
100 0.0
112 0.0
112 0.002027
104 0.002043
99 0.009009
96 0.001019
105 0.0
114 0.0
123 0.0
132 0.003029
138 0.003024
143 0.0
146 0.0
148 0.0
149 0.001999
151 0.002031
156 0.0
159 0.0
167 0.0
150 0.0
103 0.0
73 0.002025
62 0.002031
66 0.000941
78 0.0
91 0.0
104 0.002044
114 0.003024
108 0.0
100 0.0
97 0.0
101 0.0
108 0.0
118 0.003022
126 0.003031
135 0.0
140 0.0
144 0.0
146 0.002034
148 0.002992
150 0.0
151 0.0
155 0.00098
161 0.002979
166 0.0
158 0.002942
115 0.002993
78 0.003008
69 0.00203
73 0.0
83 0.002992
97 0.003009
111 0.003025
123 0.001997
114 0.003994
103 0.001994
101 0.001986
105 0.003019
111 0.003025
120 0.002994
131 0.001999
136 0.002994
140 0.002993
143 0.004022
144 0.002993
146 0.001995
148 0.003983
153 0.001997
153 0.001988
126 0.001991
91 0.004021
72 0.002992
67 0.001991
73 0.003003
85 0.002996
97 0.002993
109 0.002885
113 0.001995
102 0.003989
96 0.001993
97 0.001999
102 0.002993
109 0.00399
116 0.004033
126 0.002983
131 0.00195
135 0.00203
137 0.00402
139 0.005024
141 0.001993
144 0.003978
149 0.001985
150 0.001995
128 0.001985
92 0.003999
69 0.004026
62 0.001982
68 0.002984
78 0.002992
90 0.003989
102 0.005019
106 0.003003
98 0.004987
91 0.002978
93 0.001999
98 0.002994
105 0.004987
112 0.004987
121 0.00201
126 0.001996
130 0.00299
132 0.003989
134 0.00399
135 0.002959
138 0.00502
141 0.004986
148 0.003118
144 0.002992
114 0.002028
87 0.004981
74 0.006017
76 0.002994
84 0.002029
95 0.002959
107 0.006021
116 0.005984
109 0.005984
103 0.005984
92 0.002991
97 0.002997
104 0.002989
113 0.005015
121 0.004986
128 0.002
132 0.001968
136 0.002962
138 0.005984
140 0.00599
146 0.005938
150 0.005984
143 0.004033
108 0.003988
78 0.003981
65 0.005982
65 0.005996
77 0.00299
89 0.002994
100 0.004038
107 0.006988
106 0.006025
97 0.005988
96 0.006015
101 0.004
108 0.004003
116 0.003989
122 0.005984
128 0.005984
133 0.003983
136 0.004
138 0.004987
140 0.006982
142 0.007013
147 0.006981
151 0.00698
157 0.003999
161 0.003987
146 0.004004
107 0.006015
80 0.006016
70 0.005003
76 0.004985
87 0.004986
97 0.005979
106 0.007012
109 0.006981
105 0.007019
100 0.006981
103 0.00399
108 0.003986
114 0.003993
121 0.007979
127 0.008018
132 0.004972
136 0.004983
139 0.004982
142 0.006982
146 0.004995
149 0.006981
152 0.006978
157 0.0042
160 0.004943
174 0.004944
179 0.006984
186 0.006981
194 0.004988
185 0.004978
129 0.005988
84 0.007939
64 0.005983
79 0.007975
95 0.007961
110 0.005985
122 0.004989
123 0.004996
110 0.007979
103 0.00797
102 0.004987
108 0.004989
116 0.006013
129 0.007946
138 0.005987
146 0.007978
150 0.007989
153 0.005988
156 0.004986
160 0.005984
163 0.007984
166 0.00798
170 0.004968
174 0.006015
180 0.006014
190 0.00698
178 0.005966
108 0.006991
73 0.006977
60 0.005976
64 0.005971
77 0.005977
92 0.007987
109 0.006981
115 0.005944
110 0.006931
101 0.006967
97 0.006964
105 0.006978
113 0.006947
123 0.006024
133 0.007016
141 0.005952
146 0.006982
153 0.006033
156 0.006014
159 0.006017
164 0.005973
168 0.006007
171 0.005994
179 0.006016
185 0.00599
190 0.007024
199 0.006984
209 0.006959
208 0.006971
155 0.006002
77 0.007012
52 0.006979
49 0.006017
66 0.005965
84 0.005984
111 0.005991
117 0.005989
111 0.006004
102 0.006045
96 0.005977
101 0.005981
110 0.005989
121 0.006028
134 0.006063
149 0.005947
157 0.005995
164 0.00599
169 0.004988
174 0.005994
178 0.006017
181 0.006034
187 0.005972
191 0.005973
195 0.005981
202 0.00603
210 0.006172
222 0.004982
202 0.006071
123 0.004985
54 0.005989
48 0.005992
59 0.004987
80 0.00603
110 0.00498
131 0.005971
138 0.005991
125 0.006022
110 0.005986
103 0.005987
108 0.004978
119 0.005018
143 0.005008
156 0.005
166 0.00501
174 0.005036
181 0.006032
186 0.005978
190 0.005995
194 0.005077
196 0.005017
199 0.004955
205 0.004986
212 0.003955
224 0.004988
171 0.005
87 0.003994
43 0.003957
28 0.004039
38 0.00502
59 0.004998
82 0.004987
103 0.005033
117 0.005037
110 0.005076
96 0.005017
88 0.004032
95 0.004023
107 0.003991
122 0.003991
138 0.003993
156 0.004035
166 0.003989
173 0.003993
178 0.004024
182 0.004034
187 0.003989
189 0.003992
195 0.003959
202 0.004017
212 0.003027
221 0.003028
195 0.002961
77 0.003948
33 0.003028
19 0.003831
27 0.003994
48 0.003988
83 0.004022
109 0.003985
127 0.00399
109 0.003991
91 0.002988
84 0.003
89 0.003021
106 0.002992
123 0.003029
143 0.003993
159 0.002992
172 0.003025
183 0.004026
189 0.004003
195 0.003962
196 0.003959
198 0.002994
201 0.001995
208 0.003029
217 0.003038
205 0.003003
112 0.002992
46 0.003028
21 0.003025
21 0.003044
47 0.001964
85 0.002022
125 0.003022
141 0.002025
126 0.002029
101 0.001994
87 0.001995
90 0.002055
102 0.001995
120 0.001992
139 0.002008
156 0.002027
173 0.003031
184 0.002992
191 0.001989
194 0.001948
197 0.002034
199 0.001995
205 0.001995
213 0.002011
182 0.002032
85 0.00203
28 0.002029
7 0.002026
14 0.001963
46 0.001029
81 0.001029
106 0.000999
117 0.001997
102 0.002006
82 0.001996
73 0.001995
79 0.002029
92 0.001992
110 0.002032
130 0.002033
151 0.001981
166 0.002048
175 0.002
180 0.001005
182 0.00103
184 0.001038
187 0.001035
196 0.000997
203 0.000993
195 0.000997
110 0.001993
38 0.001999
4 0.001999
14 0.00204
47 0.00199
74 0.002028
101 0.002027
115 0.001028
104 0.0
84 0.0
71 0.0
75 0.0
88 0.000997
105 0.00099
123 0.000993
150 0.001003
162 0.000998
172 0.0
178 0.000994
182 0.001002
186 0.0
188 0.0
194 0.0
202 0.0
211 0.0
205 0.0
121 0.0
15 0.0
4 0.001007
20 0.000998
48 0.0
79 0.0
110 0.0
128 0.0
106 0.0
82 0.000997
72 0.0
76 0.0
89 0.0
120 0.00105
139 0.000998
156 0.0
164 0.0
168 0.0
171 0.0
174 0.0
176 0.002027
179 0.002
191 0.001014
199 0.0
186 0.001006
51 0.0
15 0.0
8 0.002989
22 0.002995
58 0.0
91 0.0
123 0.0
135 0.001956
115 0.002028
83 0.0
77 0.0
83 0.000999
109 0.000999
129 0.001001
148 0.00203
161 0.002027
169 0.002028
178 0.0
182 0.0
185 0.0
187 0.003037
190 0.002992
199 0.0
206 0.0
122 0.0
41 0.0
5 0.0
0 0.003038
12 0.002027
47 0.0
75 0.0
101 0.0
109 0.001993
95 0.00203
71 0.0
67 0.000964
83 0.0
101 0.0
119 0.000959
136 0.002996
150 0.00203
163 0.001008
168 0.000999
172 0.000999
175 0.003029
178 0.002034
180 0.001955
186 0.000949
202 0.00098
206 0.0
145 0.0
53 0.003024
11 0.003023
2 0.001023
18 0.0
46 0.0
75 0.00203
104 0.001998
116 0.0
98 0.000994
71 0.0
72 0.0
83 0.0
100 0.002
120 0.001949
144 0.002001
157 0.0
166 0.0
172 0.003027
176 0.001971
179 0.0
181 0.002992
186 0.002992
192 0.0
201 0.002985
210 0.002999
180 0.003027
81 0.003024
13 0.002026
4 0.001996
16 0.00301
42 0.002954
74 0.002952
115 0.0
125 0.004025
90 0.002016
73 0.001999
71 0.0
80 0.003991
96 0.003989
122 0.002988
139 0.001993
152 0.0
161 0.002987
167 0.002959
173 0.001985
176 0.003025
179 0.002997
183 0.0
190 0.002996
198 0.00399
191 0.00399
75 0.00199
15 0.002
64 0.002032
66 0.003994
75 0.003998
92 0.00197
108 0.003989
113 0.002022
105 0.001987
97 0.001996
95 0.004019
98 0.00399
106 0.002998
115 0.002991
124 0.002982
131 0.003994
135 0.00399
140 0.001995
143 0.003989
145 0.002001
147 0.001998
148 0.002028
151 0.005012
155 0.005023
161 0.002003
167 0.001995
163 0.002978
122 0.004986
84 0.004988
68 0.003027
72 0.004987
87 0.003002
100 0.002989
112 0.002982
118 0.004987
112 0.004987
101 0.002032
99 0.002978
101 0.002995
107 0.004989
115 0.004986
124 0.004994
136 0.004987
140 0.004986
145 0.002029
148 0.002996
150 0.00295
151 0.005984
153 0.006019
156 0.003024
158 0.002979
162 0.002998
167 0.00594
172 0.005983
136 0.005984
93 0.005988
73 0.003011
73 0.002975
82 0.002028
95 0.005985
109 0.007008
126 0.003995
125 0.002968
114 0.002991
105 0.005966
103 0.005933
111 0.006024
119 0.006017
131 0.003013
138 0.004001
142 0.001987
147 0.005019
149 0.005985
151 0.002995
153 0.002975
154 0.001995
155 0.005985
158 0.005979
167 0.005934
167 0.00694
119 0.003958
87 0.003958
76 0.003944
77 0.006969
85 0.006981
103 0.003989
118 0.004013
130 0.003989
130 0.005983
118 0.005985
107 0.006986
108 0.006982
117 0.005009
126 0.004994
135 0.003959
142 0.006989
147 0.006984
152 0.004989
154 0.003993
156 0.003991
156 0.006949
157 0.006979
160 0.007052
163 0.006981
169 0.007947
163 0.004964
122 0.004987
86 0.004982
72 0.007026
71 0.007015
82 0.003996
95 0.004995
108 0.005002
120 0.00698
114 0.005027
105 0.007014
100 0.007018
103 0.004991
109 0.003976
117 0.003977
126 0.006953
133 0.007979
140 0.004972
143 0.004981
146 0.00401
151 0.007979
154 0.004987
155 0.007977
158 0.007979
165 0.00499
171 0.004981
175 0.004985
130 0.006983
80 0.007018
59 0.004984
55 0.005984
63 0.004982
83 0.007976
106 0.005981
122 0.007946
116 0.00799
103 0.006979
95 0.00695
95 0.005986
104 0.006986
114 0.007
124 0.005977
134 0.005988
141 0.005949
147 0.006979
151 0.00598
153 0.006982
154 0.006978
155 0.005987
156 0.005992
160 0.00595
167 0.008
171 0.007001
145 0.006
95 0.005941
69 0.005018
62 0.007022
75 0.006017
96 0.006985
113 0.006951
126 0.006982
122 0.004994
109 0.005967
100 0.005982
100 0.005961
106 0.005987
115 0.005986
125 0.005986
134 0.004977
144 0.006016
148 0.005983
151 0.005983
152 0.006015
153 0.006028
155 0.005989
159 0.005987
164 0.005985
167 0.005984
132 0.005971
87 0.005983
64 0.005974
60 0.00697
70 0.005965
84 0.006021
98 0.005985
110 0.005955
106 0.006014
99 0.005988
93 0.006016
92 0.006014
101 0.006004
109 0.005984
118 0.005986
131 0.006011
136 0.00598
140 0.006053
143 0.005985
145 0.006054
147 0.005991
148 0.005996
151 0.005982
155 0.006013
162 0.005983
167 0.005977
157 0.005983
82 0.005988
61 0.005027
57 0.005022
64 0.005051
82 0.005984
96 0.005983
109 0.004986
113 0.005017
107 0.005024
96 0.004979
95 0.00601
100 0.004984
114 0.004991
124 0.004984
132 0.005017
139 0.005019
145 0.004953
149 0.004995
151 0.004967
153 0.00505
155 0.004997
157 0.005019
160 0.005008
164 0.004987
175 0.004964
181 0.00396
172 0.003937
118 0.004024
77 0.004014
61 0.00396
66 0.003956
78 0.004952
95 0.003959
113 0.004994
129 0.004979
121 0.004988
101 0.004985
99 0.004029
104 0.003992
112 0.003992
123 0.003961
137 0.003943
144 0.003957
149 0.003949
153 0.003944
156 0.004038
159 0.004997
160 0.003988
164 0.005999
167 0.002991
172 0.002995
178 0.004988
181 0.00399
128 0.004027
83 0.003992
64 0.003942
61 0.003948
70 0.003992
91 0.00396
107 0.003992
125 0.003018
118 0.002992
107 0.002996
100 0.002997
102 0.003004
111 0.003021
121 0.003022
132 0.00297
141 0.002994
148 0.00299
154 0.003988
157 0.003951
161 0.004006
163 0.002993
165 0.00303
168 0.002995
170 0.002995
176 0.002995
182 0.00299
189 0.002988
189 0.002994
145 0.002994
88 0.002996
60 0.001997
62 0.001995
82 0.001947
99 0.002
115 0.002027
126 0.001995
122 0.002993
106 0.003006
100 0.002951
102 0.002999
109 0.00299
119 0.00299
135 0.001971
147 0.002031
157 0.001994
160 0.002027
163 0.002
165 0.002032
167 0.002032
170 0.001995
172 0.001983
175 0.001994
178 0.002029
183 0.00203
192 0.001995
191 0.002027
113 0.000998
71 0.001995
58 0.002033
61 0.002025
73 0.001963
98 0.001996
119 0.001976
135 0.001988
133 0.002027
117 0.002027
101 0.001987
103 0.002028
114 0.001979
126 0.001028
138 0.000998
148 0.000998
155 0.000996
162 0.001989
165 0.001987
167 0.001994
168 0.001995
170 0.002032
172 0.001982
179 0.001996
184 0.000997
159 0.001031
99 0.000972
67 0.002039
57 0.000997
65 0.00097
80 0.001986
99 0.001994
118 0.002028
132 0.002027
128 0.000953
103 0.002031
98 0.000998
104 0.0
113 0.001028
125 0.0
137 0.0
147 0.0
155 0.0
159 0.0
163 0.000966
165 0.0
165 0.0
168 0.001003
171 0.0
178 0.0
181 0.0
154 0.0
94 0.0
62 0.0
54 0.0
62 0.0
77 0.0
96 0.0
114 0.0
124 0.0
110 0.0
94 0.000978
93 0.001
99 0.001003
109 0.0
121 0.0
136 0.0
145 0.001994
151 0.0
157 0.0
159 0.0
163 0.0
164 0.000951
166 0.003027
171 0.003024
177 0.001024
173 0.000981
121 0.0
74 0.00299
57 0.003992
59 0.001008
71 0.0
89 0.001001
117 0.001038
133 0.000994
123 0.002028
106 0.001988
96 0.0
99 0.000967
108 0.000963
119 0.002995
129 0.002987
142 0.0
148 0.0
152 0.000989
156 0.0
158 0.000999
160 0.002985
163 0.003025
167 0.003025
166 0.0
127 0.0
84 0.000996
66 0.001999
63 0.002991
75 0.0
91 0.0
123 0.0
134 0.0
125 0.0
109 0.003022
100 0.003024
102 0.000994
109 0.0
118 0.0
129 0.002999
139 0.003985
146 0.0
150 0.0
155 0.000959
157 0.001
157 0.000992
160 0.002993
164 0.002045
166 0.001007
131 0.0
84 0.0
61 0.002993
55 0.002995
63 0.0
77 0.0
103 0.0
114 0.000967
109 0.000968
98 0.003038
90 0.003022
90 0.000975
94 0.001974
105 0.001003
115 0.00199
124 0.002979
133 0.0
137 0.0
142 0.0
143 0.0
145 0.0
146 0.002992
150 0.003017
155 0.0
162 0.0
161 0.001014
117 0.002998
75 0.002991
55 0.0
56 0.001007
77 0.0
92 0.0
109 0.00101
117 0.003025
110 0.00399
98 0.002992
93 0.0
96 0.0
103 0.001973
115 0.002986
127 0.002986
141 0.0
150 0.004045
154 0.000996
156 0.001997
