125 0.028924
110 0.001995
64 0.001936
39 0.001945
38 0.001956
49 0.001965
59 0.001995
67 0.001956
76 0.002992
84 0.002034
89 0.001996
91 0.001065
95 0.000997
101 0.001995
108 0.003021
115 0.003053
124 0.002026
128 0.00202
132 0.00199
137 0.002989
141 0.002006
145 0.001995
146 0.002031
118 0.00206
45 0.001995
26 0.002992
28 0.002993
40 0.002992
47 0.002963
54 0.001995
64 0.001948
73 0.001994
78 0.002989
81 0.002951
85 0.001994
91 0.000996
101 0.001994
108 0.003043
116 0.003044
124 0.002992
129 0.002997
133 0.002995
137 0.002993
142 0.002982
147 0.003051
134 0.002992
90 0.002983
47 0.002958
30 0.003022
39 0.001995
46 0.001998
49 0.003989
57 0.003954
71 0.002974
79 0.002947
82 0.002994
85 0.003087
89 0.003954
96 0.002942
104 0.00296
119 0.002957
126 0.00296
132 0.002991
138 0.003949
142 0.003989
149 0.00299
153 0.002992
156 0.002993
160 0.004007
164 0.003991
168 0.003053
172 0.002995
147 0.00399
93 0.00399
51 0.00399
37 0.004017
45 0.00399
56 0.003003
60 0.002993
65 0.002986
75 0.004024
83 0.00399
89 0.002994
92 0.003027
99 0.002991
107 0.003032
115 0.002994
122 0.003992
129 0.004988
137 0.003989
142 0.004048
147 0.004022
151 0.004022
156 0.004014
161 0.004021
164 0.004021
170 0.004023
174 0.00399
179 0.003
179 0.003996
147 0.00404
80 0.003024
59 0.004025
49 0.004014
62 0.00502
72 0.005034
79 0.004997
91 0.00402
98 0.004987
101 0.004023
102 0.004025
104 0.004023
109 0.004987
116 0.004987
123 0.004985
129 0.004987
136 0.004983
143 0.004987
148 0.005954
154 0.004964
158 0.004946
161 0.004986
164 0.004957
168 0.004986
174 0.004985
168 0.00495
110 0.00399
66 0.004028
47 0.003991
49 0.005996
61 0.005984
74 0.005993
80 0.006018
92 0.004975
98 0.005018
101 0.004987
102 0.004991
105 0.004987
111 0.004988
118 0.006002
125 0.006011
135 0.005984
142 0.005984
151 0.006018
155 0.006015
161 0.005023
164 0.004974
168 0.004988
172 0.00599
176 0.00601
151 0.004946
100 0.004986
59 0.00502
44 0.006041
48 0.006019
63 0.005983
68 0.005983
76 0.005984
85 0.004999
94 0.005021
99 0.006008
102 0.006989
106 0.005985
109 0.006023
117 0.006031
125 0.017952
135 0.005987
146 0.005988
151 0.005984
157 0.005029
162 0.004988
165 0.006023
169 0.006982
173 0.007013
178 0.006021
182 0.006017
161 0.005986
109 0.006983
65 0.006982
46 0.005984
56 0.005979
65 0.005984
69 0.006999
73 0.006981
86 0.006018
94 0.006981
99 0.007031
103 0.006037
106 0.006028
112 0.006087
119 0.00695
133 0.006028
140 0.007017
146 0.007979
154 0.006026
158 0.006997
162 0.007017
166 0.007013
170 0.007018
174 0.007014
179 0.007023
183 0.007036
165 0.007006
82 0.006023
54 0.006982
51 0.006988
66 0.005991
75 0.007019
79 0.007009
88 0.007987
96 0.007981
101 0.007026
104 0.007018
105 0.007015
109 0.007009
118 0.007015
128 0.006926
136 0.006981
142 0.006981
152 0.007988
155 0.007013
158 0.007981
162 0.00798
167 0.007018
171 0.007027
175 0.006972
141 0.006981
91 0.006974
53 0.007982
52 0.007979
59 0.00798
78 0.007974
79 0.007985
91 0.007995
99 0.007987
103 0.007948
103 0.007955
104 0.007012
111 0.006981
118 0.006951
127 0.007978
136 0.007019
144 0.006982
149 0.006993
153 0.006986
156 0.007015
159 0.006974
165 0.007009
167 0.007031
143 0.006981
66 0.007028
48 0.007942
44 0.007019
54 0.007031
65 0.007966
67 0.007974
74 0.007979
84 0.00798
92 0.007001
96 0.006982
99 0.006986
104 0.00702
116 0.007012
124 0.007013
131 0.006981
138 0.007019
144 0.00702
150 0.006975
154 0.006992
158 0.006994
163 0.007018
167 0.00599
160 0.006015
117 0.005995
51 0.006983
42 0.006981
50 0.007009
59 0.006988
63 0.007027
68 0.006983
78 0.00698
88 0.005977
96 0.006981
98 0.005985
102 0.005985
108 0.006032
120 0.006024
128 0.005979
136 0.007033
142 0.006981
148 0.007014
154 0.006994
158 0.006979
162 0.006995
165 0.005985
169 0.005954
176 0.005988
180 0.005987
133 0.005984
82 0.006026
53 0.006027
49 0.005985
58 0.00599
70 0.005939
73 0.006
79 0.005987
88 0.005023
96 0.005985
101 0.006064
103 0.005984
110 0.006015
118 0.006025
126 0.00603
133 0.005986
140 0.006024
147 0.005992
149 0.009976
154 0.001026
163 0.00498
167 0.005979
172 0.005014
174 0.00502
139 0.005027
88 0.005024
57 0.005028
52 0.005028
65 0.00599
74 0.005988
80 0.006023
88 0.005972
96 0.005992
101 0.005997
102 0.004997
106 0.004986
112 0.00503
119 0.004987
127 0.004996
135 0.005023
141 0.004982
148 0.004986
152 0.004989
156 0.004976
159 0.005017
162 0.004987
169 0.004987
168 0.005033
117 0.005017
70 0.004987
46 0.005035
44 0.004987
54 0.004996
65 0.004986
67 0.004983
74 0.004953
84 0.00399
92 0.004021
98 0.004858
101 0.004025
108 0.004023
117 0.004023
125 0.005026
133 0.005032
140 0.004988
148 0.005026
153 0.004978
157 0.00402
161 0.004026
165 0.003998
171 0.004041
176 0.004023
177 0.00398
144 0.003998
90 0.004047
53 0.003991
43 0.003988
53 0.004045
61 0.003981
64 0.004983
68 0.003998
77 0.004002
93 0.004024
98 0.00399
102 0.004024
106 0.00399
113 0.004023
120 0.003993
129 0.003931
139 0.003989
145 0.003054
151 0.003996
156 0.003024
160 0.003029
167 0.002991
171 0.00399
176 0.00399
181 0.004039
185 0.003991
187 0.004025
153 0.003984
82 0.004023
54 0.002976
51 0.00296
62 0.002989
72 0.003038
78 0.002993
85 0.00399
97 0.002992
102 0.00399
105 0.002994
108 0.002992
112 0.002978
119 0.002992
130 0.00299
137 0.002986
144 0.002992
150 0.00303
159 0.003002
163 0.002978
167 0.002985
170 0.002995
174 0.002993
178 0.002942
182 0.001994
185 0.001996
140 0.001993
88 0.002996
58 0.002987
53 0.00299
72 0.002992
81 0.002992
87 0.003025
98 0.002992
104 0.002033
105 0.001993
105 0.001998
107 0.001998
114 0.001995
122 0.00196
131 0.001994
139 0.001993
149 0.002027
154 0.001994
158 0.002031
163 0.001882
166 0.001981
169 0.001995
173 0.001981
174 0.001994
126 0.000998
75 0.000998
47 0.002023
49 0.002039
60 0.001995
67 0.001996
70 0.000998
81 0.001987
90 0.000974
96 0.001995
99 0.001006
102 0.002038
108 0.002007
116 0.001992
124 0.001983
137 0.002027
144 0.001995
149 0.002038
155 0.002002
160 0.000999
161 0.01496
166 0.0
172 0.000999
176 0.000986
168 0.001006
121 0.001033
70 0.000997
41 0.001996
48 0.001995
58 0.001995
62 0.000997
64 0.001995
76 0.000985
87 0.000997
94 0.001039
97 0.001029
100 0.000996
106 0.000997
114 0.000991
128 0.000998
135 0.0
141 0.000992
148 0.000998
153 0.000998
158 0.000997
162 0.000997
166 0.000979
170 0.000996
175 0.0
180 0.0
158 0.0
73 0.001009
48 0.000998
47 0.000998
57 0.000997
66 0.000998
72 0.000998
77 0.000997
87 0.000998
95 0.001021
99 0.000992
101 0.0
105 0.0
117 0.0
125 0.0
133 0.0
140 0.0
146 0.0
152 0.00096
156 0.0
160 0.0
163 0.000989
166 0.000985
173 0.0
177 0.0
129 0.0
80 0.0
53 0.0
50 0.0
61 0.0
75 0.0
79 0.0
87 0.0
97 0.0
99 0.0
100 0.001008
102 0.000999
110 0.000997
118 0.0
126 0.0
134 0.0
140 0.0
146 0.000997
150 0.0
155 0.0
158 0.0
162 0.0
167 0.000947
163 0.00103
92 0.000998
54 0.000997
42 0.0
50 0.0
59 0.0
64 0.0
67 0.001006
75 0.001
84 0.000999
90 0.000996
94 0.0
99 0.000998
108 0.0
117 0.001028
126 0.000999
135 0.0
141 0.0
147 0.0
152 0.001029
156 0.000923
162 0.000986
164 0.000997
169 0.0
177 0.000998
177 0.0
145 0.000963
90 0.002027
45 0.001045
42 0.001042
51 0.000997
58 0.000997
60 0.001037
66 0.0
77 0.000961
87 0.0
95 0.001012
98 0.001055
103 0.002026
110 0.001989
120 0.001034
129 0.000998
136 0.000998
142 0.001995
148 0.001964
155 0.000996
158 0.001025
163 0.000997
170 0.001016
174 0.000998
178 0.001998
183 0.001995
190 0.002019
176 0.000998
123 0.001038
74 0.002031
51 0.001945
55 0.001996
66 0.001995
73 0.001035
77 0.002026
89 0.00099
97 0.002019
101 0.002003
104 0.000997
107 0.000977
113 0.001995
120 0.001996
129 0.002059
139 0.001962
145 0.001993
151 0.001993
160 0.002015
163 0.002019
167 0.002992
170 0.002992
174 0.002037
179 0.002023
184 0.002025
179 0.002026
135 0.001979
85 0.00204
56 0.001981
59 0.001987
79 0.002019
85 0.002025
91 0.001981
99 0.003024
105 0.002992
105 0.002972
106 0.002019
110 0.002026
116 0.002994
124 0.002986
136 0.002996
142 0.003005
151 0.002993
155 0.003023
159 0.003037
163 0.003984
166 0.002986
172 0.002025
175 0.001984
157 0.001997
106 0.002993
63 0.00402
45 0.002993
53 0.00298
68 0.003016
71 0.003025
77 0.002992
87 0.004028
96 0.003989
102 0.003047
104 0.003026
108 0.00203
114 0.003026
123 0.00303
134 0.00298
142 0.002991
152 0.00298
156 0.003984
161 0.00402
167 0.00402
170 0.003982
175 0.002975
180 0.003024
184 0.003032
178 0.004042
133 0.003955
67 0.003043
47 0.004962
57 0.003026
65 0.00402
68 0.003988
70 0.004987
79 0.004987
90 0.004022
99 0.003024
101 0.003991
105 0.004034
110 0.004025
119 0.003995
129 0.00403
140 0.004018
146 0.003973
152 0.004022
157 0.005015
162 0.00502
167 0.004009
170 0.00399
174 0.004023
178 0.005012
182 0.005024
186 0.004989
181 0.004987
131 0.006017
68 0.004029
51 0.004024
55 0.004029
67 0.004991
72 0.00502
73 0.005019
79 0.004021
84 0.003988
87 0.005986
88 0.00503
95 0.004987
103 0.005
115 0.004023
123 0.003971
129 0.004028
136 0.005029
143 0.006015
152 0.00497
157 0.005016
162 0.004994
167 0.00602
169 0.005979
176 0.005023
180 0.004988
187 0.004025
184 0.00399
142 0.004064
87 0.004984
53 0.006008
49 0.005018
60 0.005017
68 0.004985
71 0.005985
75 0.006019
90 0.005998
97 0.005984
101 0.005026
104 0.004978
109 0.004956
116 0.00502
125 0.006016
136 0.004962
143 0.00498
149 0.004965
155 0.006016
160 0.005997
167 0.005984
171 0.005975
176 0.005023
179 0.005024
183 0.005022
188 0.006018
192 0.006979
174 0.005028
121 0.006015
75 0.00598
57 0.006979
61 0.006982
80 0.006017
85 0.006038
91 0.005149
99 0.005977
106 0.004971
109 0.007032
111 0.007035
116 0.006017
122 0.006015
130 0.006015
138 0.00703
145 0.007013
156 0.00798
161 0.006995
166 0.006995
171 0.006982
175 0.007014
178 0.006015
182 0.006981
184 0.007025
189 0.005978
193 0.006017
198 0.006028
172 0.00599
116 0.00601
76 0.002993
63 0.007014
74 0.006018
87 0.006013
96 0.006005
103 0.007993
110 0.00798
113 0.007031
112 0.006984
112 0.006956
117 0.006974
121 0.007016
133 0.007032
140 0.007015
149 0.005985
153 0.005981
158 0.006015
161 0.007015
165 0.007944
168 0.007015
170 0.00698
174 0.006986
177 0.007025
145 0.007021
91 0.007932
54 0.007945
47 0.007015
55 0.007015
62 0.007979
69 0.007979
75 0.007982
84 0.007001
92 0.006999
97 0.006985
101 0.007013
105 0.006988
115 0.007957
121 0.007978
132 0.007009
139 0.006951
147 0.006969
152 0.007032
157 0.006981
163 0.007978
167 0.007985
169 0.007016
175 0.006937
179 0.006993
183 0.007979
172 0.007032
120 0.006979
58 0.007004
41 0.007013
45 0.007017
55 0.007025
61 0.006978
63 0.006983
70 0.006985
86 0.007018
92 0.00695
94 0.007978
98 0.006986
103 0.007011
113 0.007016
121 0.007012
129 0.007014
136 0.007013
143 0.006982
150 0.006979
155 0.00696
162 0.007017
166 0.006984
170 0.007017
173 0.006981
178 0.006019
184 0.00691
187 0.006981
158 0.007013
103 0.007017
63 0.006981
49 0.00697
59 0.006982
73 0.007013
74 0.006014
80 0.006017
88 0.006019
95 0.006022
99 0.006019
101 0.006021
105 0.006019
112 0.00602
119 0.006013
130 0.00698
136 0.007018
146 0.007015
150 0.007016
154 0.006017
157 0.006029
160 0.00602
163 0.006013
166 0.006021
170 0.006015
175 0.006039
172 0.006018
117 0.005992
71 0.006012
46 0.00502
55 0.005021
66 0.006015
71 0.006018
75 0.00598
86 0.005991
94 0.006018
97 0.006024
99 0.005965
101 0.005984
109 0.005984
120 0.005017
130 0.005023
137 0.005026
142 0.005021
147 0.005023
152 0.005985
158 0.005027
161 0.006034
164 0.006031
168 0.006032
172 0.005984
178 0.005025
177 0.00603
117 0.005032
69 0.00504
46 0.005027
45 0.00502
54 0.005022
61 0.00502
61 0.005039
66 0.00502
77 0.005021
87 0.005024
93 0.003971
98 0.005024
102 0.005021
112 0.004986
121 0.005019
128 0.005018
136 0.004991
142 0.005019
149 0.005023
154 0.004947
158 0.004975
162 0.005018
166 0.003988
172 0.004022
176 0.00502
182 0.003989
186 0.004023
175 0.004023
125 0.004026
75 0.004022
47 0.004023
51 0.00402
61 0.005023
67 0.005022
67 0.00399
78 0.005022
88 0.003988
96 0.00402
99 0.00402
103 0.004025
109 0.004018
116 0.004029
127 0.00399
135 0.004023
141 0.004026
147 0.004041
152 0.002996
160 0.003987
164 0.003021
169 0.00402
173 0.004012
177 0.004009
180 0.003991
183 0.004024
188 0.004022
193 0.003992
195 0.004021
168 0.003991
112 0.003014
57 0.003034
58 0.002999
74 0.002995
83 0.003033
86 0.003026
93 0.003026
99 0.00397
102 0.004038
102 0.00402
103 0.004025
108 0.003037
114 0.002992
128 0.003027
135 0.002993
142 0.002948
147 0.003025
151 0.002992
155 0.003027
159 0.003028
163 0.00402
166 0.003027
169 0.003029
174 0.003044
178 0.002998
151 0.002993
96 0.002953
56 0.004022
42 0.002997
51 0.003027
60 0.003007
64 0.003027
65 0.002998
76 0.003028
87 0.003027
93 0.002992
98 0.002992
101 0.002992
108 0.002001
117 0.001995
128 0.002027
136 0.002033
142 0.001986
148 0.002003
154 0.001995
160 0.002037
163 0.003028
167 0.003034
174 0.002992
177 0.003024
182 0.001995
187 0.001995
184 0.001995
140 0.00203
84 0.002027
51 0.001995
43 0.001994
54 0.002027
61 0.002029
62 0.000997
69 0.001997
81 0.001996
90 0.002049
95 0.001995
98 0.001994
103 0.000997
110 0.002015
118 0.002033
126 0.000998
136 0.000998
142 0.000999
148 0.001995
156 0.002029
160 0.001996
164 0.002004
168 0.001994
173 0.002028
177 0.002052
181 0.001047
185 0.001996
190 0.000998
178 0.000987
126 0.000992
75 0.001038
48 0.001018
57 0.000999
67 0.000997
70 0.001034
73 0.000997
82 0.000998
91 0.000998
97 0.001994
100 0.000997
103 0.000998
108 0.000998
116 0.000997
129 0.000997
136 0.000998
142 0.000998
148 0.000997
153 0.000998
158 0.000997
162 0.000997
166 0.000998
169 0.0
172 0.0
177 0.000997
181 0.000997
189 0.000998
186 0.0
143 0.000995
89 0.000997
59 0.000998
56 0.000985
68 0.000998
78 0.0
82 0.000998
88 0.000996
97 0.0
101 0.0
102 0.0
104 0.0
109 0.0
118 0.0
126 0.0
136 0.000992
142 0.000997
147 0.001003
151 0.000998
155 0.0
160 0.0
163 0.0
169 0.0
174 0.0
176 0.0
149 0.0
96 0.0
49 0.0
43 0.0
52 0.000998
61 0.0
64 0.000997
68 0.0
77 0.0
93 0.001036
97 0.0
101 0.0
104 0.0
110 0.0
123 0.000998
132 0.000999
141 0.0
147 0.0
153 0.0
158 0.000962
165 0.0
169 0.000997
174 0.001019
177 0.001
182 0.0
186 0.0
191 0.0
193 0.001029
167 0.0
91 0.0
55 0.0
46 0.000999
61 0.0
67 0.000999
67 0.000998
74 0.0
85 0.0
91 0.000997
99 0.0
101 0.000998
105 0.000997
113 0.0
122 0.0
131 0.0
143 0.0
149 0.0
154 0.001031
159 0.001029
165 0.001005
168 0.000998
172 0.001016
176 0.000998
180 0.001997
185 0.000994
190 0.000998
195 0.000998
192 0.000998
144 0.0
87 0.001953
56 0.001995
53 0.0
65 0.000999
74 0.000997
76 0.000995
79 0.001966
91 0.000967
99 0.000956
102 0.000978
106 0.000991
110 0.0
117 0.001996
126 0.001995
136 0.000951
143 0.000992
149 0.000998
154 0.002
159 0.001994
164 0.000997
168 0.002006
171 0.000992
177 0.001029
181 0.001034
185 0.001986
189 0.001998
195 0.000997
196 0.001029
158 0.000994
100 0.001996
63 0.001995
55 0.000999
67 0.000951
80 0.002003
90 0.00204
98 0.002037
104 0.002992
105 0.002992
105 0.001045
107 0.001012
112 0.000987
119 0.001995
129 0.001995
140 0.002025
145 0.000954
151 0.002048
159 0.00201
163 0.00204
167 0.002992
170 0.003026
175 0.001992
179 0.002037
183 0.002026
187 0.001963
187 0.003017
147 0.002992
75 0.001964
48 0.002955
52 0.001995
63 0.001958
69 0.00203
71 0.003989
77 0.00399
90 0.003021
97 0.001999
101 0.002029
104 0.002992
108 0.003025
118 0.001996
127 0.001992
140 0.001983
147 0.001983
152 0.001978
158 0.003028
163 0.002992
168 0.00199
173 0.002993
177 0.001993
180 0.004026
184 0.004039
189 0.003012
195 0.003991
197 0.003026
160 0.003045
100 0.00199
60 0.004015
48 0.00502
58 0.00203
68 0.0
72 0.001978
73 0.003032
81 0.004038
93 0.002994
100 0.003992
104 0.002992
108 0.002991
114 0.003028
123 0.003989
131 0.003989
141 0.002991
148 0.003023
154 0.003029
158 0.003989
163 0.004986
168 0.00296
174 0.004996
179 0.002989
182 0.003949
186 0.003989
189 0.004982
194 0.004952
198 0.004023
171 0.003026
113 0.002991
69 0.004987
54 0.005029
63 0.002989
78 0.00399
85 0.002976
90 0.003026
98 0.00404
102 0.005021
104 0.005022
105 0.00399
108 0.003981
115 0.002952
122 0.004987
129 0.004987
138 0.004032
145 0.004989
151 0.00399
155 0.003022
158 0.00399
161 0.003988
163 0.004984
166 0.004988
171 0.00399
175 0.003996
161 0.003992
110 0.00499
65 0.004987
43 0.005017
53 0.005029
65 0.004024
69 0.00499
73 0.005
83 0.006018
91 0.005984
95 0.003989
98 0.003987
101 0.004006
107 0.004987
116 0.004987
130 0.005018
137 0.004987
145 0.004018
151 0.005032
155 0.00502
160 0.006017
164 0.006015
168 0.005021
172 0.004015
176 0.005027
181 0.006022
184 0.007013
132 0.006026
79 0.006983
45 0.003999
47 0.003992
56 0.004995
62 0.00602
61 0.005984
67 0.005017
78 0.00495
88 0.004984
94 0.005984
97 0.005984
104 0.00602
111 0.005983
122 0.004987
130 0.005998
137 0.005017
143 0.007014
148 0.007015
155 0.005044
159 0.005028
164 0.005039
168 0.005988
173 0.004986
178 0.005985
182 0.005984
189 0.004987
185 0.005019
145 0.006018
89 0.006983
56 0.006981
51 0.006013
62 0.006017
70 0.006016
72 0.006987
80 0.005983
91 0.007016
97 0.006981
102 0.005015
105 0.005986
109 0.00599
116 0.005984
124 0.007019
132 0.006986
141 0.005988
147 0.006025
153 0.006017
160 0.006019
164 0.00601
169 0.007016
172 0.006981
177 0.007008
181 0.007013
184 0.005983
187 0.007977
192 0.006982
196 0.005949
167 0.00601
110 0.005984
57 0.005967
58 0.005938
71 0.007054
82 0.006981
87 0.005974
94 0.006013
101 0.007009
104 0.006981
104 0.007979
105 0.006981
110 0.006011
117 0.005946
130 0.005982
137 0.005966
143 0.007012
148 0.006986
154 0.007026
159 0.006987
162 0.006981
165 0.00798
168 0.007999
173 0.007016
177 0.007007
181 0.007016
133 0.007017
80 0.006974
49 0.007974
45 0.007018
59 0.006988
65 0.006975
66 0.006964
70 0.007979
80 0.007979
92 0.006983
96 0.006983
99 0.006991
106 0.007
113 0.00695
122 0.007979
134 0.007015
143 0.006977
147 0.006961
154 0.006987
158 0.007018
163 0.007017
167 0.006981
171 0.006985
175 0.006984
182 0.007009
187 0.00701
190 0.00792
175 0.006979
101 0.006981
58 0.007011
43 0.007013
48 0.006981
58 0.006982
63 0.007018
64 0.006974
68 0.006973
86 0.006963
95 0.006016
99 0.006972
102 0.007028
107 0.007012
118 0.006984
126 0.00696
133 0.007014
140 0.007013
146 0.007015
153 0.006978
158 0.007013
165 0.006954
170 0.005987
174 0.006016
178 0.006035
182 0.006982
187 0.006982
190 0.007032
194 0.007006
198 0.007013
201 0.007018
162 0.005986
83 0.005972
49 0.006008
50 0.006013
61 0.00603
70 0.005986
72 0.006024
77 0.006017
86 0.006018
94 0.006023
98 0.007032
100 0.006981
105 0.00602
114 0.005978
125 0.005984
132 0.006023
139 0.006017
145 0.00602
151 0.00602
157 0.005994
161 0.005983
165 0.006022
169 0.006018
172 0.005984
177 0.005025
182 0.004991
187 0.004991
191 0.006044
196 0.006026
197 0.006025
164 0.006027
88 0.006015
58 0.006015
53 0.005021
62 0.005018
76 0.006014
85 0.005027
94 0.004985
101 0.004989
103 0.005003
103 0.005033
104 0.004987
108 0.005023
118 0.006018
127 0.006025
134 0.005018
140 0.005019
146 0.006015
152 0.00499
158 0.004987
163 0.004978
166 0.004979
169 0.005016
173 0.005022
176 0.004985
181 0.004984
182 0.005022
144 0.004022
87 0.003955
50 0.003989
39 0.004022
54 0.005005
62 0.004992
65 0.005022
71 0.004988
82 0.005018
91 0.005037
96 0.005024
98 0.004988
103 0.005021
109 0.005021
118 0.005034
127 0.004022
139 0.003989
145 0.003996
152 0.003989
157 0.004028
161 0.003999
166 0.005032
170 0.005033
175 0.005037
179 0.005017
183 0.005021
186 0.004986
190 0.004025
191 0.003969
148 0.003958
72 0.002962
44 0.004026
41 0.003978
51 0.00398
59 0.003989
61 0.003933
65 0.002994
74 0.002984
84 0.004033
90 0.004036
94 0.00399
99 0.003995
107 0.003986
116 0.003978
125 0.004023
132 0.00399
138 0.004
146 0.002991
151 0.003011
155 0.002992
160 0.002992
167 0.003965
171 0.002991
176 0.003993
181 0.004011
184 0.004033
188 0.004033
191 0.003989
195 0.00399
191 0.003026
142 0.003034
84 0.003025
51 0.003029
50 0.002996
63 0.002971
71 0.002991
73 0.00299
79 0.003051
88 0.002991
92 0.004016
94 0.00403
97 0.004042
101 0.003025
109 0.002993
117 0.003023
129 0.002994
135 0.00299
140 0.002981
144 0.002958
150 0.002992
153 0.002028
156 0.002992
159 0.001989
162 0.002005
167 0.001995
172 0.00203
177 0.001994
140 0.001992
86 0.001995
50 0.00199
41 0.001965
53 0.002992
63 0.002985
68 0.002977
71 0.002992
80 0.003026
90 0.002005
94 0.002003
96 0.001995
102 0.001997
110 0.001999
119 0.001995
128 0.001982
136 0.001993
142 0.001995
148 0.001995
152 0.00201
156 0.003003
162 0.002992
166 0.002024
169 0.002033
176 0.001996
180 0.001996
184 0.001957
188 0.002022
158 0.001994
99 0.001997
57 0.001996
41 0.001995
45 0.001056
57 0.001995
59 0.000997
60 0.000998
74 0.000998
85 0.001998
91 0.001
94 0.001995
98 0.001995
104 0.000965
112 0.002043
120 0.002016
128 0.000998
136 0.000997
142 0.001041
147 0.000998
155 0.000989
159 0.001011
163 0.000992
167 0.000992
172 0.000997
175 0.001995
179 0.002053
184 0.001965
186 0.000998
143 0.000998
88 0.000998
53 0.000993
48 0.000997
59 0.001003
64 0.001016
64 0.000984
68 0.000998
81 0.001004
90 0.000992
95 0.000998
97 0.000997
101 0.00103
109 0.000997
117 0.000998
130 0.002003
136 0.0
142 0.0
147 0.0
152 0.0
157 0.0
161 0.000998
166 0.000997
170 0.000998
173 0.001007
178 0.0
183 0.0
188 0.0
193 0.0
190 0.000971
147 0.0
92 0.0
54 0.0
55 0.000998
66 0.0
76 0.000997
80 0.001013
87 0.000994
96 0.0
99 0.0
100 0.0
103 0.0
107 0.0
115 0.0
125 0.0
132 0.0
138 0.0
143 0.0
150 0.000979
153 0.000998
159 0.000994
163 0.0
165 0.0
170 0.0
175 0.0
179 0.0
177 0.000998
138 0.000967
70 0.0
46 0.0
45 0.0
55 0.001022
65 0.0
66 0.002032
74 0.001955
85 0.000999
93 0.000995
97 0.0
100 0.002026
104 0.002043
114 0.000964
123 0.0
131 0.0
138 0.001045
146 0.000998
153 0.001004
158 0.001024
163 0.0
166 0.001007
171 0.0
175 0.001011
179 0.000997
183 0.000998
188 0.0
191 0.000998
193 0.0
119 0.0
69 0.0
47 0.000993
48 0.000998
61 0.000998
65 0.0
64 0.0
69 0.001031
80 0.001031
93 0.0
98 0.0
100 0.0
108 0.0
115 0.0
124 0.001994
132 0.002068
141 0.0
146 0.0
151 0.000965
157 0.002034
160 0.002025
166 0.000842
170 0.000964
174 0.001012
181 0.0
185 0.0
188 0.001995
192 0.001965
196 0.0
200 0.001049
192 0.000997
143 0.002026
86 0.002047
52 0.000965
54 0.002061
64 0.002027
73 0.000957
73 0.001001
80 0.002954
91 0.003011
99 0.000949
102 0.000973
104 0.000996
109 0.002027
115 0.001995
127 0.000968
134 0.001014
145 0.001994
150 0.001996
155 0.002024
160 0.003039
164 0.002029
169 0.001995
173 0.00097
177 0.000952
180 0.001995
184 0.001965
189 0.00102
193 0.001027
198 0.001996
167 0.000983
110 0.001994
70 0.002996
58 0.003027
70 0.00199
82 0.001019
88 0.000998
92 0.003024
99 0.002991
106 0.001029
107 0.00099
109 0.002002
113 0.002009
119 0.001991
128 0.001999
135 0.003037
142 0.003045
149 0.001948
154 0.002981
159 0.002034
163 0.003037
166 0.002992
170 0.001986
174 0.003993
180 0.000991
184 0.002012
173 0.002014
124 0.004021
76 0.003985
49 0.001987
54 0.001981
65 0.001998
70 0.003947
71 0.003973
79 0.001961
92 0.003991
100 0.002996
102 0.002994
105 0.001999
111 0.00399
118 0.003994
129 0.002999
137 0.002992
143 0.002989
149 0.003989
154 0.004023
160 0.003015
165 0.003951
170 0.002995
173 0.002958
177 0.002015
182 0.00399
186 0.004988
183 0.002994
140 0.002994
87 0.003004
57 0.003973
51 0.003997
61 0.003009
68 0.004025
68 0.003024
75 0.002983
86 0.002965
94 0.004989
98 0.004988
102 0.003025
106 0.002999
113 0.002996
121 0.004034
129 0.004038
137 0.002995
145 0.004023
152 0.00298
157 0.002991
160 0.002992
164 0.005018
168 0.005058
173 0.004025
176 0.005023
181 0.004021
185 0.004986
187 0.005018
145 0.004037
79 0.005985
53 0.00298
57 0.003002
67 0.003944
71 0.004987
72 0.004982
79 0.003979
89 0.003987
96 0.003991
99 0.003984
100 0.004987
104 0.005025
115 0.005035
123 0.005019
133 0.004981
139 0.003959
144 0.005022
149 0.006019
153 0.005984
158 0.003973
161 0.003986
164 0.003974
167 0.005984
173 0.003959
177 0.004983
181 0.004972
149 0.003942
99 0.003957
65 0.00495
56 0.005983
63 0.005984
76 0.005043
79 0.004969
83 0.004994
91 0.006016
100 0.004987
101 0.00599
103 0.005946
109 0.004956
117 0.003947
125 0.003981
133 0.006022
139 0.006981
145 0.003989
150 0.005035
154 0.004989
158 0.005984
163 0.004984
167 0.006057
170 0.006014
175 0.004954
180 0.004958
176 0.005985
137 0.006029
86 0.006021
51 0.004016
51 0.004022
59 0.005029
64 0.006983
65 0.004988
72 0.006028
84 0.007014
94 0.004982
97 0.004938
100 0.004955
104 0.006034
111 0.006973
123 0.004994
130 0.004992
136 0.004987
143 0.005984
151 0.005999
156 0.007015
160 0.007017
166 0.005978
170 0.005981
173 0.005989
177 0.007012
181 0.00699
187 0.006016
191 0.006013
189 0.006015
153 0.004985
77 0.005952
61 0.005953
68 0.007983
73 0.00798
76 0.005938
76 0.00598
82 0.005989
93 0.007027
101 0.006982
107 0.00598
110 0.006018
114 0.005018
126 0.006016
134 0.007029
142 0.007979
148 0.00798
155 0.00694
161 0.005988
166 0.005998
172 0.007953
174 0.007975
180 0.005984
184 0.005984
188 0.005982
194 0.005998
198 0.00695
203 0.007977
206 0.007943
201 0.006987
161 0.007013
118 0.005952
96 0.007974
97 0.007013
105 0.005976
111 0.005984
112 0.005986
120 0.006974
126 0.006984
128 0.007979
129 0.00798
131 0.006949
136 0.006979
141 0.006995
148 0.007977
154 0.007979
160 0.007013
163 0.007014
170 0.006983
174 0.007016
177 0.006933
180 0.006958
183 0.00698
186 0.006959
189 0.006983
193 0.006951
198 0.007029
181 0.007971
139 0.006979
106 0.006981
94 0.006952
102 0.00698
105 0.006984
104 0.00698
107 0.006987
117 0.006979
121 0.00699
124 0.006912
125 0.00702
128 0.00798
133 0.006982
142 0.005982
152 0.006968
157 0.006989
162 0.006989
166 0.006951
170 0.006984
173 0.007013
180 0.007012
184 0.006983
187 0.007017
191 0.007015
195 0.007015
199 0.006982
203 0.006975
171 0.005986
128 0.005984
102 0.005991
94 0.005981
99 0.006022
105 0.006003
103 0.005972
103 0.006986
109 0.005017
117 0.007024
123 0.006988
124 0.006008
127 0.006019
132 0.005984
138 0.006014
144 0.00599
150 0.005987
156 0.005983
160 0.005981
165 0.00602
168 0.006021
172 0.006015
176 0.005982
180 0.005979
184 0.005997
186 0.006003
190 0.005984
194 0.005982
196 0.005978
166 0.005986
123 0.005987
97 0.006019
89 0.00595
94 0.006017
102 0.006014
101 0.004978
106 0.004978
113 0.004974
118 0.00499
119 0.00594
119 0.004997
122 0.004969
128 0.004993
135 0.005984
141 0.006033
146 0.005986
152 0.005984
157 0.00602
162 0.005985
166 0.004979
169 0.004993
172 0.004982
175 0.004986
179 0.004986
182 0.00499
185 0.005023
188 0.005025
191 0.005032
156 0.004025
106 0.004992
88 0.004969
92 0.005036
102 0.004991
107 0.004991
108 0.004995
114 0.005026
118 0.005023
118 0.004995
118 0.003988
119 0.005017
122 0.005021
131 0.004987
137 0.00499
144 0.004004
148 0.003959
152 0.003989
156 0.004987
160 0.004986
163 0.00503
166 0.005022
169 0.005027
172 0.005018
178 0.004027
169 0.004001
130 0.003962
85 0.003986
73 0.003957
75 0.003987
81 0.003994
84 0.003992
84 0.00399
89 0.004018
97 0.004039
103 0.005042
106 0.004017
107 0.003974
111 0.003944
120 0.003953
126 0.00399
132 0.003987
137 0.003996
141 0.003991
147 0.003977
152 0.003023
156 0.004024
160 0.004023
167 0.003993
171 0.002997
175 0.002967
178 0.00399
180 0.003997
164 0.003999
120 0.004019
81 0.003971
61 0.003994
64 0.00402
70 0.004024
71 0.004024
72 0.003966
80 0.00399
88 0.004017
94 0.003964
96 0.004007
100 0.004013
105 0.003007
111 0.002993
121 0.002984
127 0.002992
132 0.002992
138 0.002992
146 0.004002
150 0.003954
153 0.002987
157 0.003905
161 0.002992
164 0.003967
168 0.003976
172 0.002965
156 0.003011
113 0.002992
79 0.002992
66 0.003022
76 0.003027
84 0.002998
86 0.003028
92 0.002995
99 0.002991
103 0.001993
105 0.002009
105 0.003006
108 0.001984
114 0.003046
120 0.002992
127 0.002993
136 0.001989
141 0.002983
145 0.002981
149 0.001998
153 0.001967
156 0.002033
159 0.001999
163 0.002005
167 0.001993
158 0.001996
119 0.002029
80 0.002024
62 0.003025
70 0.002992
79 0.002008
82 0.001992
86 0.001986
94 0.001987
101 0.001959
104 0.001999
106 0.001979
110 0.001996
116 0.001995
123 0.001995
136 0.000995
142 0.001977
148 0.001011
153 0.001986
159 0.00199
163 0.002007
166 0.001995
170 0.002001
174 0.001994
180 0.002032
178 0.002026
112 0.001952
77 0.001006
65 0.002057
71 0.000991
79 0.001997
83 0.000996
84 0.001049
91 0.001044
100 0.001034
107 0.00104
111 0.002043
113 0.000998
120 0.000995
128 0.001963
135 0.001999
140 0.001019
147 0.000997
157 0.001001
160 0.000998
163 0.000999
166 0.001031
171 0.00103
177 0.000998
182 0.000998
184 0.000994
152 0.000966
106 0.000989
79 0.001022
74 0.000977
85 0.001002
92 0.00103
94 0.001009
97 0.001
107 0.000996
120 0.001027
125 0.000998
132 0.000998
138 0.002025
145 0.000985
153 0.000998
161 0.0
167 0.0
171 0.0
175 0.0
179 0.001012
181 0.0
182 0.001009
185 0.000998
188 0.000998
193 0.0
184 0.0
142 0.000996
98 0.0
75 0.00104
77 0.000999
89 0.000996
96 0.000997
99 0.001032
105 0.0
113 0.0
114 0.0
115 0.0
119 0.0
124 0.0
130 0.0
137 0.0
145 0.0
149 0.0
154 0.0
157 0.001017
162 0.001005
166 0.0
173 0.000974
176 0.000966
165 0.001012
122 0.0
69 0.0
57 0.0
61 0.002023
71 0.0
77 0.0
77 0.0
87 0.0
96 0.000965
104 0.0
106 0.001998
110 0.002038
117 0.0
125 0.0
134 0.0
141 0.000973
147 0.000991
154 0.0
157 0.000996
161 0.000998
165 0.002027
172 0.0
176 0.002003
178 0.001993
138 0.0
88 0.0
57 0.0
51 0.002
59 0.002007
68 0.001012
69 0.000996
72 0.0
82 0.000999
96 0.0
99 0.002013
102 0.002012
107 0.0
115 0.000965
123 0.0
131 0.002026
138 0.001043
146 0.0
151 0.0
156 0.0
163 0.0
167 0.0
170 0.0
173 0.001994
178 0.002007
184 0.0
175 0.0
128 0.0
79 0.001029
53 0.001998
55 0.0
66 0.0
73 0.0
76 0.000993
85 0.0
94 0.001998
100 0.002016
102 0.0
106 0.0
112 0.0
120 0.001994
128 0.002029
138 0.001009
145 0.001002
154 0.0
159 0.0
163 0.001999
166 0.003029
171 0.002992
176 0.0
180 0.0
183 0.0
186 0.002026
190 0.001996
195 0.0
199 0.0
145 0.000999
89 0.001001
59 0.002028
56 0.002985
68 0.002997
83 0.000969
88 0.001996
93 0.000967
99 0.003036
102 0.002964
103 0.001994
104 0.001004
111 0.0
120 0.001969
128 0.00203
135 0.003011
141 0.00295
148 0.001007
152 0.000998
156 0.001992
160 0.002992
163 0.002993
167 0.002
170 0.001029
176 0.001997
181 0.00296
186 0.000962
183 0.001943
141 0.00296
70 0.001045
45 0.0
45 0.002023
57 0.002995
69 0.00298
74 0.001978
79 0.00198
92 0.000968
95 0.002008
97 0.002051
98 0.001986
103 0.002993
111 0.003025
123 0.002072
131 0.001987
138 0.002001
144 0.003989
149 0.004024
156 0.002005
161 0.004043
166 0.000973
170 0.000998
174 0.00198
177 0.004051
181 0.002979
188 0.001994
190 0.001965
162 0.000995
102 0.003991
55 0.00396
37 0.003043
50 0.005021
61 0.001989
63 0.001963
68 0.00098
77 0.003907
84 0.004004
89 0.002947
91 0.002973
95 0.00295
101 0.00302
109 0.004989
123 0.003988
131 0.003991
138 0.002996
144 0.001986
149 0.002024
153 0.005021
157 0.00402
162 0.00396
166 0.002037
169 0.002028
173 0.004988
178 0.004989
185 0.004989
166 0.004959
89 0.002991
49 0.002998
36 0.002988
43 0.004972
56 0.003992
65 0.001954
67 0.002949
74 0.003982
82 0.004989
87 0.004989
91 0.004989
94 0.00399
102 0.004029
110 0.003027
118 0.002035
126 0.00399
133 0.00499
141 0.002993
146 0.002962
150 0.001961
154 0.006018
157 0.005987
163 0.005994
166 0.00599
172 0.002979
175 0.003966
154 0.003019
100 0.004989
55 0.004987
35 0.00301
42 0.004109
54 0.003993
62 0.003945
65 0.006017
74 0.003026
77 0.006028
77 0.005987
78 0.003999
82 0.00399
89 0.002975
97 0.006983
105 0.006028
114 0.004973
119 0.00303
125 0.002951
129 0.004988
134 0.002993
138 0.005986
142 0.006021
148 0.002986
151 0.002991
137 0.003968
89 0.005985
47 0.00597
27 0.003954
35 0.003979
46 0.003989
53 0.005986
59 0.004963
69 0.005985
79 0.005992
85 0.00498
88 0.004957
92 0.004992
98 0.005986
107 0.006019
119 0.003957
127 0.005019
134 0.004991
140 0.006983
148 0.004943
152 0.007031
156 0.007016
161 0.004957
165 0.004953
170 0.004989
175 0.006992
169 0.006015
106 0.004962
61 0.004964
41 0.00499
43 0.007009
57 0.004938
59 0.007012
62 0.007015
75 0.005016
84 0.004957
89 0.004953
92 0.007027
96 0.007034
103 0.005982
111 0.004991
120 0.004989
128 0.00602
138 0.004986
144 0.006015
149 0.006021
155 0.005952
160 0.005954
164 0.005014
168 0.006978
172 0.006983
177 0.005022
181 0.004987
185 0.005001
192 0.004989
186 0.00497
139 0.005954
70 0.007954
48 0.007978
50 0.005952
61 0.005989
69 0.005933
71 0.007949
74 0.007945
86 0.005951
93 0.006024
97 0.00598
100 0.005922
106 0.004982
117 0.007962
125 0.007971
133 0.006024
140 0.005984
145 0.005973
150 0.00798
156 0.007975
160 0.005993
164 0.00599
171 0.005986
175 0.006982
180 0.006951
184 0.007969
188 0.007961
192 0.005956
195 0.006023
199 0.005984
203 0.00798
190 0.007981
135 0.00598
83 0.00599
56 0.006981
66 0.006981
83 0.006981
88 0.006981
93 0.006981
100 0.006982
103 0.006981
103 0.006948
103 0.007937
105 0.007981
113 0.005957
121 0.006978
134 0.006985
140 0.00598
145 0.006948
151 0.007015
155 0.006969
159 0.006981
163 0.00698
166 0.006981
171 0.006989
174 0.006977
178 0.006985
182 0.006982
191 0.006986
184 0.006968
137 0.006978
82 0.006982
51 0.007013
46 0.006951
55 0.00698
66 0.006981
70 0.007011
73 0.005985
82 0.00696
90 0.006977
97 0.006006
100 0.006017
105 0.006017
113 0.006981
121 0.007004
132 0.007028
139 0.006985
143 0.006977
149 0.006951
154 0.006955
159 0.007012
165 0.006986
170 0.007014
173 0.006933
179 0.005982
183 0.006019
187 0.006016
192 0.00597
183 0.005994
131 0.00599
78 0.005987
49 0.006016
45 0.005019
58 0.007022
67 0.006981
69 0.00597
76 0.007011
85 0.006017
92 0.00599
96 0.006004
99 0.006013
104 0.006014
111 0.004984
120 0.005987
128 0.005985
138 0.006016
146 0.006016
153 0.006015
157 0.004955
162 0.005003
165 0.004956
169 0.006021
174 0.006
178 0.005987
182 0.005983
185 0.005954
189 0.005943
196 0.006022
192 0.00608
124 0.00596
73 0.006017
48 0.006023
47 0.005983
58 0.005034
70 0.004955
71 0.00497
76 0.004985
83 0.004988
89 0.004971
94 0.005018
98 0.004018
104 0.003987
112 0.004988
121 0.006024
130 0.004963
136 0.00502
144 0.005015
149 0.005013
153 0.005027
158 0.004981
162 0.004982
168 0.005017
172 0.005018
177 0.005018
181 0.005016
185 0.004989
188 0.00401
192 0.003989
198 0.003946
190 0.003948
139 0.003944
84 0.003981
55 0.003972
57 0.004004
70 0.004987
79 0.004949
86 0.005017
93 0.005022
97 0.004986
98 0.00499
98 0.00398
100 0.004976
106 0.003989
114 0.003959
122 0.003986
134 0.004022
140 0.004022
145 0.003989
150 0.004008
154 0.004042
157 0.003975
161 0.003989
164 0.004004
169 0.003988
173 0.003979
178 0.003955
182 0.003984
137 0.00403
82 0.004026
49 0.003971
43 0.003968
54 0.003987
65 0.003969
69 0.002988
72 0.002993
83 0.002997
90 0.003946
94 0.003948
95 0.003989
102 0.003997
109 0.003991
119 0.003955
130 0.003927
136 0.003022
142 0.003991
148 0.003995
152 0.003943
158 0.002976
162 0.002989
166 0.002964
170 0.003025
176 0.00299
181 0.003033
185 0.002989
183 0.003029
141 0.003025
84 0.002989
49 0.001947
41 0.003082
52 0.002985
62 0.002991
64 0.00296
66 0.001994
80 0.003024
88 0.002027
92 0.002027
96 0.00299
100 0.00299
106 0.002029
115 0.00203
123 0.003007
133 0.003035
139 0.003026
145 0.002953
153 0.003024
157 0.003035
161 0.002038
164 0.003032
168 0.001991
173 0.00303
177 0.001995
182 0.002013
185 0.001956
166 0.002991
92 0.002985
55 0.002999
47 0.003024
58 0.002957
66 0.003018
70 0.002025
73 0.001994
84 0.00198
91 0.001997
94 0.002029
96 0.001964
100 0.002009
108 0.002009
117 0.002006
131 0.002006
137 0.001993
143 0.002028
149 0.000989
154 0.002035
159 0.002025
163 0.002
167 0.001996
171 0.00198
174 0.00202
180 0.001994
183 0.001962
189 0.00201
194 0.001995
194 0.002031
154 0.000995
97 0.000987
54 0.001009
52 0.000993
63 0.000998
76 0.001018
83 0.000966
89 0.000971
95 0.001997
99 0.001995
99 0.002038
101 0.002029
105 0.001048
113 0.001009
124 0.001008
131 0.001004
137 0.000955
143 0.001001
147 0.001987
152 0.001992
156 0.000981
161 0.002024
164 0.000997
169 0.000997
174 0.00101
177 0.001029
136 0.000989
84 0.001029
50 0.000997
41 0.000998
49 0.000997
63 0.001986
67 0.000984
75 0.002042
85 0.002004
91 0.000997
94 0.000963
97 0.0
101 0.0
110 0.0
120 0.0
129 0.0
136 0.0
142 0.0
150 0.0
156 0.0
162 0.0
165 0.001004
169 0.0
173 0.0
177 0.0
183 0.0
185 0.000996
157 0.001004
100 0.0
58 0.0
42 0.0
53 0.0
60 0.0
61 0.0
65 0.0
75 0.001029
84 0.0
91 0.0
94 0.001036
98 0.000969
104 0.000977
112 0.000964
124 0.001005
133 0.000997
141 0.0
146 0.0
151 0.0
155 0.0
160 0.0
164 0.0
167 0.001995
173 0.0
177 0.0
181 0.0
162 0.0
108 0.0
64 0.002028
45 0.002026
50 0.0
59 0.001007
63 0.000983
63 0.00105
70 0.001997
83 0.0
89 0.0
92 0.0
97 0.0
104 0.000952
113 0.002031
120 0.002011
130 0.000995
136 0.0
141 0.0
146 0.002011
150 0.001996
155 0.0
159 0.000963
162 0.0
169 0.0
174 0.00099
178 0.001003
181 0.001029
136 0.0
86 0.0
57 0.0
53 0.002034
61 0.002028
71 0.001994
75 0.0
80 0.0
93 0.000955
96 0.001001
98 0.0
100 0.002031
105 0.001993
115 0.000989
123 0.000957
130 0.0
135 0.001984
141 0.002037
147 0.001951
151 0.0
157 0.000961
161 0.000954
164 0.0
168 0.002046
174 0.002036
173 0.001003
138 0.000959
87 0.000997
55 0.003037
47 0.002034
56 0.0
63 0.001004
65 0.0
73 0.000966
84 0.000962
92 0.001995
95 0.001972
99 0.0
104 0.0
112 0.00102
121 0.00201
128 0.002999
138 0.00099
144 0.000998
152 0.002027
156 0.001987
161 0.002016
165 0.002993
169 0.002992
174 0.000953
178 0.0
182 0.0
187 0.003004
190 0.002995
158 0.001009
102 0.001016
50 0.000985
50 0.000982
59 0.0
64 0.002992
63 0.002992
68 0.003009
80 0.002991
89 0.003004
94 0.003047
97 0.002993
102 0.002036
109 0.000993
123 0.001986
131 0.001983
138 0.00198
144 0.003995
149 0.002952
156 0.001988
160 0.002974
164 0.001027
168 0.002982
173 0.002996
179 0.002059
184 0.003038
189 0.001977
192 0.002004
195 0.002994
199 0.001995
202 0.003991
180 0.003991
103 0.0
64 0.001972
52 0.0
57 0.003995
67 0.003035
71 0.003029
73 0.003989
86 0.001999
94 0.002001
98 0.001991
100 0.004025
104 0.004001
113 0.002983
122 0.002006
130 0.002993
137 0.003991
143 0.004024
152 0.005029
156 0.004988
162 0.00298
166 0.001994
170 0.001996
174 0.004022
178 0.004022
183 0.001992
187 0.002962
190 0.003008
194 0.00399
199 0.004026
183 0.003989
128 0.00399
69 0.002001
56 0.002983
63 0.00105
76 0.005018
84 0.00499
90 0.00197
97 0.00296
103 0.002991
106 0.003989
106 0.003989
111 0.003995
118 0.003984
129 0.002993
138 0.002992
145 0.002995
151 0.004968
156 0.004988
162 0.002981
166 0.002981
169 0.003007
173 0.004988
177 0.00499
183 0.004987
186 0.004986
193 0.00299
197 0.002985
187 0.002998
135 0.004988
81 0.005032
48 0.002992
50 0.003001
62 0.002985
70 0.004989
71 0.004989
79 0.005011
89 0.00502
98 0.003012
100 0.003974
103 0.003987
108 0.00399
116 0.005985
125 0.006039
137 0.003961
144 0.002954
150 0.002978
155 0.004988
162 0.003998
165 0.005022
169 0.005019
172 0.003992
175 0.003989
179 0.003977
183 0.006016
186 0.005986
165 0.004007
110 0.004002
64 0.003989
44 0.005962
54 0.003982
63 0.006015
66 0.005984
69 0.003987
79 0.003991
90 0.004956
95 0.006941
100 0.006014
105 0.004987
111 0.004024
119 0.003963
127 0.006038
137 0.003974
142 0.006041
147 0.006982
151 0.00499
156 0.003979
160 0.004987
167 0.006983
171 0.00702
178 0.004992
183 0.004983
189 0.004956
196 0.004988
168 0.004011
110 0.00597
69 0.005989
55 0.004963
65 0.003994
77 0.004989
81 0.006983
84 0.007009
94 0.004952
101 0.004957
105 0.004994
108 0.004988
112 0.004987
118 0.007018
126 0.007013
138 0.004985
145 0.004982
150 0.005974
158 0.007978
162 0.007975
166 0.005951
170 0.005952
173 0.004956
178 0.004986
182 0.00497
187 0.007014
191 0.007018
183 0.004989
134 0.004987
83 0.004991
58 0.007006
56 0.007033
67 0.007982
79 0.005949
82 0.005952
93 0.005982
97 0.004989
98 0.005985
98 0.007013
100 0.007015
107 0.004983
115 0.004988
123 0.005991
132 0.007984
136 0.007989
145 0.005988
151 0.005979
158 0.005985
162 0.005982
167 0.005987
173 0.006973
178 0.00797
182 0.004978
157 0.006979
122 0.006949
73 0.007981
48 0.007974
51 0.005936
61 0.005974
66 0.005968
68 0.005989
77 0.005982
89 0.007975
94 0.007976
96 0.006022
99 0.005968
105 0.005942
116 0.006983
125 0.006975
135 0.006978
139 0.006972
149 0.0
154 0.006015
159 0.005989
164 0.007976
167 0.007978
176 0.005982
183 0.00595
190 0.005959
196 0.007976
154 0.007021
84 0.006955
58 0.00697
59 0.006967
70 0.006979
73 0.006983
73 0.007014
82 0.007018
98 0.006819
107 0.006971
109 0.00695
113 0.006981
118 0.006961
129 0.007014
136 0.006973
151 0.006979
158 0.00695
165 0.006981
173 0.006982
178 0.006957
182 0.006932
187 0.006982
191 0.005985
195 0.005962
199 0.006018
203 0.006017
206 0.006019
181 0.005983
120 0.005983
70 0.006981
53 0.006946
47 0.007016
52 0.007018
55 0.006976
55 0.006979
62 0.005971
73 0.006019
81 0.006013
87 0.006019
90 0.006013
98 0.005989
106 0.005986
115 0.005962
123 0.006017
130 0.006019
138 0.006985
141 0.006933
146 0.006951
152 0.006019
156 0.006022
163 0.005987
167 0.006017
173 0.005986
177 0.00598
181 0.005976
186 0.006014
185 0.006013
125 0.005988
76 0.006021
51 0.004953
50 0.004948
61 0.004964
73 0.00502
75 0.005992
86 0.005984
93 0.005952
96 0.006052
97 0.00602
100 0.006019
108 0.006019
116 0.005984
125 0.005982
132 0.004987
138 0.004986
146 0.005021
151 0.005019
156 0.005022
160 0.005022
163 0.004996
167 0.004986
171 0.00502
177 0.004987
183 0.00502
182 0.005033
146 0.004003
92 0.003983
48 0.005029
51 0.005035
64 0.004988
68 0.004986
70 0.00503
77 0.005019
87 0.005019
97 0.004981
99 0.004991
102 0.004986
107 0.004956
115 0.003951
130 0.004021
138 0.004029
147 0.00402
153 0.005024
158 0.00502
163 0.005018
167 0.004929
172 0.004954
176 0.004974
180 0.004984
184 0.004988
189 0.003965
196 0.004987
179 0.004017
123 0.004021
63 0.004028
49 0.003998
53 0.003956
63 0.004025
67 0.004022
68 0.005029
75 0.004004
87 0.004021
95 0.003928
101 0.004026
104 0.004025
110 0.003971
121 0.003989
129 0.004019
137 0.004039
143 0.003993
150 0.004014
157 0.003954
163 0.003997
168 0.002996
171 0.003022
178 0.003965
183 0.002983
188 0.004031
192 0.003025
196 0.002992
199 0.003997
201 0.004018
171 0.003982
93 0.003985
59 0.004019
52 0.003989
67 0.004019
72 0.003023
72 0.003993
76 0.004023
89 0.002939
97 0.003026
102 0.003024
104 0.003026
108 0.002957
118 0.003931
127 0.003988
135 0.004004
146 0.00399
152 0.003024
157 0.003043
162 0.003035
168 0.003026
172 0.003033
176 0.003028
180 0.003026
184 0.001963
189 0.002025
194 0.001991
199 0.001995
185 0.001999
130 0.003034
83 0.002992
62 0.002992
67 0.003025
80 0.003024
89 0.002992
93 0.002992
100 0.002998
109 0.001991
111 0.002991
111 0.002042
116 0.002026
122 0.001995
130 0.001994
139 0.002027
146 0.001995
155 0.002051
159 0.003002
163 0.003028
167 0.003022
170 0.002994
174 0.001994
178 0.001995
186 0.002028
187 0.002004
158 0.002069
103 0.002038
65 0.002033
52 0.002025
62 0.002025
73 0.001026
78 0.001986
81 0.001026
91 0.001995
97 0.002012
100 0.001985
102 0.001996
106 0.001995
114 0.001995
123 0.002013
133 0.002037
141 0.002006
147 0.002026
152 0.001006
155 0.002024
160 0.00103
164 0.000998
170 0.000997
175 0.000998
179 0.002001
176 0.001991
134 0.001995
69 0.002006
47 0.000998
47 0.000999
56 0.00103
64 0.001027
66 0.002076
70 0.002048
87 0.002041
94 0.002029
97 0.000998
101 0.002024
105 0.000997
116 0.001032
124 0.000951
132 0.000999
138 0.000985
144 0.001032
151 0.001051
156 0.000982
162 0.001999
166 0.000998
168 0.002047
172 0.000999
176 0.00203
183 0.001029
186 0.000998
174 0.001029
123 0.001025
73 0.000997
47 0.001028
56 0.000997
69 0.000998
72 0.000997
75 0.000997
82 0.0
92 0.0
98 0.0
101 0.0
105 0.0
111 0.0
119 0.0
127 0.0
140 0.0
146 0.0
154 0.000998
158 0.000998
162 0.0
167 0.0
171 0.0
177 0.0
181 0.0
185 0.0
189 0.0
193 0.0
199 0.0
202 0.0
152 0.0
94 0.0
61 0.0
55 0.0
65 0.0
81 0.0
86 0.0
90 0.001041
97 0.001047
103 0.001045
105 0.0
106 0.000998
112 0.003
119 0.002043
131 0.00095
138 0.000949
144 0.0
151 0.002028
156 0.001995
161 0.0
164 0.0
169 0.000984
175 0.0
179 0.0
185 0.002036
191 0.002043
195 0.0
162 0.0
104 0.0
65 0.002028
53 0.001999
65 0.0
77 0.001002
83 0.0
92 0.0
101 0.0
106 0.001995
108 0.002026
111 0.0
116 0.0
123 0.000999
132 0.002987
140 0.002035
151 0.0
156 0.001022
162 0.0
169 0.0
173 0.0
177 0.002025
180 0.002026
184 0.0
188 0.000969
191 0.001013
195 0.001995
198 0.001996
186 0.003027
109 0.00101
62 0.000968
42 0.0
52 0.0
61 0.0
63 0.001995
64 0.002028
75 0.0
83 0.0
89 0.0
92 0.001992
96 0.002024
105 0.0
114 0.000957
130 0.0
138 0.0
144 0.0
150 0.003018
155 0.002993
161 0.0
165 0.0
170 0.0
174 0.002041
178 0.002009
184 0.000887
189 0.0
187 0.0
144 0.0
86 0.0
52 0.002028
44 0.00203
55 0.0
64 0.000953
66 0.001995
68 0.003023
77 0.001986
87 0.0
92 0.002026
95 0.001994
99 0.001996
106 0.0
114 0.002992
122 0.002993
131 0.002027
136 0.001988
141 0.002002
145 0.002993
148 0.002992
153 0.0
158 0.002992
162 0.001974
166 0.001986
171 0.001972
176 0.002989
180 0.002987
171 0.001995
120 0.001995
70 0.001996
47 0.002992
47 0.002959
63 0.0
73 0.002992
78 0.001993
86 0.001997
93 0.002003
96 0.004022
98 0.00399
102 0.001036
108 0.001997
116 0.001991
124 0.002032
133 0.004028
139 0.003021
147 0.003025
151 0.003023
157 0.001998
161 0.002993
165 0.001996
168 0.004025
172 0.003989
177 0.001993
182 0.001989
184 0.001978
160 0.003958
105 0.003996
49 0.004024
48 0.00502
62 0.00201
69 0.001958
71 0.001975
77 0.004863
86 0.005041
94 0.002997
96 0.002052
100 0.00199
104 0.003991
111 0.004023
127 0.003992
136 0.003989
145 0.001999
150 0.002983
155 0.002007
160 0.003989
163 0.003989
168 0.001979
172 0.001995
175 0.002011
179 0.004025
182 0.003993
188 0.004024
192 0.004955
185 0.002962
136 0.002959
81 0.00299
52 0.005018
47 0.006041
59 0.001995
65 0.002003
66 0.002032
68 0.00399
77 0.005019
91 0.003992
95 0.004987
99 0.002972
104 0.002947
112 0.00296
120 0.004987
129 0.005034
139 0.00299
146 0.003005
152 0.002994
156 0.005986
160 0.005985
168 0.004986
172 0.005023
178 0.002989
182 0.002998
186 0.002991
190 0.005028
194 0.005021
200 0.002992
202 0.003988
176 0.003989
116 0.005985
53 0.00399
50 0.006032
59 0.005985
68 0.005985
69 0.002985
72 0.002973
81 0.003026
90 0.00602
96 0.005984
99 0.002991
103 0.003821
109 0.004002
123 0.003994
131 0.004029
138 0.006027
144 0.005984
150 0.00295
155 0.003044
159 0.003991
163 0.006033
167 0.006012
173 0.002988
178 0.003025
182 0.004026
188 0.004023
192 0.003989
196 0.005978
200 0.006026
205 0.003983
187 0.003988
128 0.003986
77 0.00594
54 0.005979
58 0.00399
71 0.003999
79 0.003959
85 0.004005
93 0.003998
99 0.007018
101 0.007035
103 0.004984
107 0.003956
113 0.003989
121 0.007017
130 0.006978
140 0.003996
145 0.004944
150 0.00399
157 0.004952
160 0.004995
164 0.007014
167 0.007015
171 0.004988
175 0.004991
178 0.004994
181 0.007014
185 0.007017
191 0.005
191 0.004024
158 0.003978
70 0.005045
49 0.004983
51 0.007023
63 0.007014
76 0.004987
79 0.004991
84 0.004989
93 0.007021
99 0.007029
101 0.004985
103 0.004995
107 0.003981
121 0.00598
130 0.005024
140 0.007981
144 0.007975
152 0.004964
156 0.004985
161 0.004995
165 0.006981
170 0.006948
173 0.007015
179 0.005988
183 0.005944
190 0.005996
195 0.005986
197 0.005981
153 0.007975
93 0.00797
53 0.005985
41 0.005015
48 0.004985
62 0.007975
65 0.007983
66 0.00499
73 0.00597
88 0.005983
92 0.006034
95 0.005982
101 0.007982
107 0.007954
116 0.004938
124 0.005983
133 0.005991
141 0.007973
147 0.007979
152 0.005025
158 0.006948
164 0.006987
168 0.005974
172 0.006017
177 0.006969
180 0.007969
185 0.005994
191 0.005995
194 0.005977
158 0.007979
99 0.007987
57 0.00597
45 0.007014
60 0.006979
66 0.006981
67 0.00696
72 0.007014
81 0.006981
89 0.005985
93 0.006954
95 0.005975
100 0.006981
107 0.007006
115 0.005983
126 0.008009
138 0.006947
144 0.006948
149 0.006983
154 0.007017
158 0.00698
163 0.006958
167 0.006975
169 0.005986
174 0.006986
177 0.006982
181 0.005992
189 0.006017
186 0.006951
137 0.005983
84 0.006979
54 0.006983
48 0.007001
63 0.006971
71 0.006028
78 0.006981
85 0.007014
92 0.007013
97 0.005986
98 0.006018
101 0.005989
107 0.005983
116 0.006941
125 0.005953
133 0.005994
139 0.00602
146 0.005984
151 0.005984
155 0.005979
159 0.007016
162 0.005983
168 0.005974
172 0.005986
179 0.005985
176 0.005987
137 0.005981
83 0.005981
49 0.006015
43 0.006013
52 0.005985
60 0.005979
63 0.005038
66 0.005021
82 0.005021
89 0.00502
94 0.006
97 0.005988
101 0.005993
109 0.006014
118 0.006008
129 0.005983
136 0.005985
142 0.006024
147 0.006016
152 0.005986
159 0.00502
163 0.005022
168 0.004958
172 0.004985
177 0.004985
183 0.005019
184 0.00502
139 0.004977
84 0.004956
50 0.005985
42 0.006009
49 0.004987
60 0.005016
60 0.005017
67 0.005018
79 0.005017
88 0.005018
92 0.003956
95 0.005019
101 0.005019
108 0.004976
117 0.00397
125 0.005017
133 0.005019
142 0.005019
148 0.004027
154 0.005004
159 0.005018
163 0.005035
168 0.00502
172 0.004985
178 0.004985
182 0.004983
185 0.004984
189 0.004988
196 0.004962
200 0.004035
190 0.003991
116 0.00402
67 0.003991
46 0.004028
49 0.003991
59 0.005031
66 0.004025
67 0.003999
72 0.005011
82 0.003992
93 0.004982
95 0.004023
99 0.003989
104 0.003922
115 0.003991
124 0.004038
132 0.003991
139 0.00399
145 0.003956
151 0.003991
156 0.005022
161 0.00402
168 0.003036
172 0.00299
176 0.004043
181 0.00404
186 0.003991
190 0.003999
193 0.003988
197 0.003978
201 0.003994
204 0.00403
177 0.003022
115 0.004022
53 0.003027
51 0.002995
62 0.002992
73 0.00396
77 0.00404
82 0.003988
90 0.003039
97 0.00303
99 0.002992
101 0.00399
105 0.002992
112 0.003026
125 0.00404
133 0.004065
139 0.002992
146 0.003029
151 0.00399
156 0.00399
161 0.003989
164 0.003049
168 0.002991
174 0.003032
178 0.002992
181 0.002985
188 0.002992
192 0.002997
196 0.002992
201 0.002992
195 0.003027
142 0.002994
84 0.002027
53 0.001995
47 0.001996
63 0.001996
74 0.002031
77 0.003037
85 0.003025
93 0.002994
99 0.002997
101 0.002989
105 0.003023
110 0.002042
118 0.002992
127 0.001995
136 0.001995
146 0.002002
151 0.00205
156 0.001997
164 0.001995
168 0.002005
172 0.001986
176 0.001996
181 0.002026
186 0.002992
190 0.002993
194 0.001991
198 0.001996
201 0.002063
206 0.002011
187 0.001995
85 0.002009
50 0.002041
43 0.001996
52 0.002027
64 0.002025
70 0.002026
72 0.00099
80 0.001
89 0.001995
95 0.001996
99 0.001049
101 0.001998
112 0.001031
120 0.002
129 0.001994
137 0.001984
145 0.001995
151 0.000998
156 0.000996
161 0.00103
165 0.000998
169 0.000998
175 0.001004
181 0.000987
187 0.002023
191 0.00201
195 0.002027
198 0.001027
201 0.001986
207 0.002019
208 0.000998
174 0.000998
107 0.000998
59 0.000998
39 0.00201
54 0.001002
68 0.002028
71 0.001035
74 0.002049
82 0.002039
89 0.002009
94 0.002028
95 0.002026
99 0.001996
105 0.000987
113 0.000999
125 0.001003
135 0.000996
142 0.001004
148 0.000997
153 0.000998
157 0.0
161 0.000997
167 0.000997
171 0.0
176 0.0
180 0.0
185 0.0
189 0.0
194 0.0
199 0.001001
203 0.000997
201 0.000997
156 0.000997
92 0.000998
51 0.000997
40 0.0
51 0.0
65 0.0
71 0.0
73 0.0
85 0.0
90 0.0
93 0.0
94 0.0
98 0.000998
104 0.000997
113 0.0
124 0.0
132 0.0
139 0.0
144 0.0
151 0.0
156 0.0
160 0.0
165 0.0
169 0.0
173 0.000964
176 0.0
180 0.0
186 0.000997
191 0.003038
175 0.0
118 0.0
69 0.000967
46 0.0
57 0.0
72 0.002024
81 0.001997
88 0.0
95 0.000976
99 0.000972
98 0.002044
98 0.002026
103 0.001004
110 0.0
118 0.000957
133 0.000954
140 0.0
145 0.002027
151 0.002026
156 0.0
160 0.0
164 0.0
166 0.003022
169 0.003026
175 0.0
179 0.0
184 0.0
157 0.0
98 0.0
54 0.001994
37 0.001995
43 0.0
54 0.0
58 0.0
58 0.002042
63 0.00203
75 0.0
83 0.000962
86 0.0
91 0.001018
97 0.00095
106 0.002027
114 0.001995
125 0.0
132 0.0
138 0.0
143 0.003023
148 0.003023
154 0.000998
157 0.0
162 0.002044
167 0.000974
172 0.0
177 0.0
181 0.002993
168 0.002032
97 0.0
55 0.000968
40 0.0
44 0.002995
54 0.003006
60 0.000996
61 0.003023
73 0.000949
82 0.000997
87 0.0
89 0.002022
92 0.001993
100 0.0
109 0.0
117 0.0
125 0.002031
132 0.002007
140 0.0
146 0.002001
152 0.001016
155 0.002992
160 0.0
164 0.002042
169 0.00302
173 0.0
178 0.0
182 0.0
187 0.00203
190 0.002044
173 0.002005
97 0.001995
49 0.00095
43 0.0
52 0.0
62 0.003028
65 0.003036
67 0.002997
76 0.002006
85 0.00202
90 0.002944
92 0.002981
97 0.00198
105 0.001995
116 0.000995
124 0.001999
131 0.001995
137 0.003052
143 0.003053
149 0.001992
153 0.001991
157 0.002998
161 0.002993
165 0.003025
171 0.002011
176 0.002994
180 0.0
184 0.002989
188 0.001994
193 0.004029
186 0.004021
118 0.002003
72 0.00198
51 0.001988
54 0.004022
66 0.003025
79 0.002005
84 0.003039
94 0.000966
99 0.0
100 0.002996
101 0.002968
104 0.002992
111 0.002991
122 0.003001
131 0.003005
139 0.003017
145 0.003994
150 0.003989
158 0.003957
162 0.004988
167 0.001992
171 0.001985
175 0.002001
179 0.004023
183 0.004043
187 0.001987
192 0.001993
196 0.003053
199 0.00399
180 0.004024
83 0.005022
49 0.00502
43 0.001992
53 0.00203
61 0.001992
62 0.004022
63 0.003975
74 0.001994
84 0.001993
89 0.001993
92 0.004984
98 0.001965
105 0.004999
114 0.004956
125 0.002987
133 0.001991
139 0.001994
145 0.00499
150 0.004022
156 0.002015
160 0.002993
165 0.002992
169 0.004026
176 0.000977
180 0.005018
184 0.005029
189 0.003007
193 0.002028
198 0.001992
200 0.005022
171 0.005024
91 0.001988
53 0.001994
42 0.001996
50 0.005021
65 0.002995
66 0.004989
69 0.004966
81 0.002982
90 0.002994
94 0.002979
97 0.004942
100 0.005004
108 0.003995
116 0.002025
126 0.001971
134 0.004978
145 0.003005
150 0.005986
154 0.007017
160 0.003014
164 0.00296
168 0.002995
173 0.00602
178 0.005036
183 0.002995
187 0.002996
191 0.002942
195 0.006017
202 0.003029
205 0.00302
194 0.005987
136 0.005985
67 0.002997
45 0.003
48 0.00299
60 0.004995
69 0.005015
71 0.003992
77 0.003983
85 0.003999
95 0.00402
97 0.002937
100 0.005984
105 0.006016
114 0.003976
122 0.003001
131 0.002991
137 0.006017
144 0.00602
150 0.003988
155 0.004005
159 0.00399
165 0.003989
169 0.003962
173 0.007015
176 0.006017
182 0.004002
187 0.004988
192 0.003998
181 0.005978
128 0.005983
67 0.005023
50 0.004987
55 0.003977
76 0.004982
83 0.003985
89 0.00705
97 0.007023
102 0.004
102 0.003985
102 0.003989
104 0.005985
111 0.006015
122 0.004987
130 0.005006
138 0.004984
148 0.004986
153 0.004022
157 0.006983
160 0.006993
164 0.003969
168 0.003985
172 0.004018
176 0.00702
169 0.007022
103 0.004987
59 0.004986
111 0.004989
127 0.004985
127 0.004986
127 0.006951
127 0.006986
127 0.00499
127 0.004987
127 0.004988
127 0.00698
127 0.007981
127 0.006004
127 0.004994
127 0.005026
127 0.004995
127 0.005948
134 0.007991
141 0.006957
146 0.007013
152 0.005997
158 0.006003
164 0.005955
172 0.007955
178 0.007965
178 0.005949
81 0.007974
23 0.005952
0 0.004972
2 0.004986
15 0.007978
22 0.006982
23 0.005984
31 0.004988
46 0.005988
58 0.007923
66 0.007978
69 0.005986
81 0.007978
93 0.005955
105 0.005954
116 0.004974
128 0.007978
135 0.008031
145 0.005982
152 0.004993
159 0.004995
167 0.006986
173 0.006975
179 0.005985
188 0.005986
193 0.00598
198 0.005982
204 0.005986
210 0.007958
195 0.00797
124 0.006015
54 0.005981
17 0.005982
18 0.007944
32 0.006981
39 0.006937
40 0.00698
51 0.006982
65 0.005987
74 0.006949
80 0.005986
85 0.007028
92 0.005984
102 0.006005
113 0.005977
128 0.007006
136 0.006984
144 0.005984
155 0.005987
161 0.006966
167 0.006929
172 0.006946
180 0.007026
186 0.007009
192 0.004959
198 0.006014
205 0.006953
209 0.006943
213 0.007111
218 0.006093
227 0.00696
186 0.006973
105 0.006981
47 0.006008
25 0.006026
32 0.006024
48 0.005985
58 0.002988
60 0.005982
68 0.006052
79 0.006011
87 0.006017
91 0.004951
94 0.005982
105 0.005985
115 0.00502
125 0.006976
134 0.006026
142 0.006016
153 0.005981
158 0.005982
163 0.005977
169 0.006018
174 0.005981
182 0.005974
186 0.006003
195 0.006011
200 0.006019
207 0.00598
210 0.005021
174 0.005019
77 0.005989
34 0.00498
25 0.004988
36 0.006023
56 0.005983
58 0.005985
64 0.005981
82 0.006021
90 0.005022
94 0.004972
96 0.005021
102 0.005023
114 0.004983
126 0.004984
138 0.004985
148 0.004989
161 0.005019
167 0.005021
174 0.005989
181 0.005014
186 0.005026
192 0.005033
198 0.005018
202 0.005022
209 0.004928
215 0.004995
221 0.004984
226 0.005018
172 0.005032
92 0.004983
39 0.004988
23 0.004988
36 0.005021
48 0.003989
51 0.003987
51 0.004029
66 0.003992
80 0.003941
89 0.00398
93 0.004956
100 0.005018
108 0.005019
120 0.004987
135 0.003964
145 0.004011
154 0.00401
161 0.00399
168 0.003991
176 0.003956
182 0.00394
187 0.003992
193 0.004
203 0.003931
209 0.003986
213 0.004947
218 0.00402
226 0.003989
231 0.004022
232 0.00394
184 0.004022
100 0.004025
33 0.003991
25 0.004023
38 0.003965
56 0.003029
58 0.002997
64 0.002991
76 0.003009
89 0.004026
93 0.00399
96 0.002992
101 0.00399
109 0.003995
124 0.003991
136 0.003992
146 0.004025
160 0.003988
166 0.00402
172 0.002987
178 0.002996
184 0.003029
190 0.002995
195 0.003029
200 0.003024
205 0.003031
213 0.003025
220 0.003028
219 0.002985
115 0.00299
57 0.00304
35 0.004007
41 0.002965
62 0.003001
74 0.002994
81 0.003043
91 0.003019
99 0.002992
103 0.003031
103 0.003027
104 0.002994
117 0.002989
129 0.002954
140 0.003029
149 0.002991
161 0.002066
168 0.00299
174 0.001986
178 0.001996
182 0.001994
188 0.001994
192 0.002003
198 0.001995
173 0.003014
103 0.002993
48 0.002989
24 0.003021
32 0.002027
46 0.003023
53 0.002993
56 0.002992
66 0.002993
82 0.002043
90 0.002033
95 0.002023
100 0.002031
108 0.001987
119 0.002026
131 0.002041
142 0.001992
154 0.001998
161 0.001998
169 0.002029
175 0.001995
180 0.001983
187 0.001963
195 0.002002
204 0.002006
195 0.002025
135 0.001993
68 0.001973
30 0.002039
26 0.001043
38 0.000997
44 0.009013
47 0.003041
51 0.000998
70 0.000998
85 0.002022
91 0.001995
95 0.002016
102 0.000986
112 0.002045
123 0.001979
137 0.002025
146 0.001883
155 0.001028
162 0.000996
168 0.000998
176 0.000997
182 0.001042
189 0.001949
194 0.001968
201 0.001988
208 0.002015
205 0.0
130 0.001976
65 0.002022
32 0.002028
29 0.002036
42 0.000997
52 0.000998
53 0.001029
67 0.001027
81 0.001031
91 0.000998
95 0.001046
98 0.001002
107 0.002043
116 0.000858
128 0.0
138 0.001046
148 0.0
158 0.0
168 0.001025
175 0.0
181 0.001018
186 0.0
191 0.001
195 0.000994
203 0.000997
208 0.0
214 0.0
219 0.0
198 0.0
103 0.0
44 0.0
40 0.0
55 0.0
66 0.0
68 0.0
75 0.001018
88 0.000998
98 0.0
100 0.0
102 0.0
106 0.0
115 0.0
132 0.0
141 0.0
153 0.0
160 0.0
166 0.0
171 0.0
176 0.0
182 0.0
185 0.0
191 0.0
196 0.0
199 0.0
209 0.000966
194 0.0
126 0.003023
64 0.0
35 0.0
35 0.0
55 0.0
64 0.002024
68 0.002043
80 0.0
91 0.00099
99 0.0
101 0.0
106 0.0
114 0.002015
125 0.002033
141 0.0
150 0.0
158 0.0
166 0.00203
173 0.001992
181 0.0
186 0.000995
195 0.0
199 0.0
204 0.0
209 0.002972
216 0.002991
223 0.0
221 0.00095
166 0.0
89 0.002988
41 0.003022
29 0.0
40 0.0
51 0.000976
51 0.0
59 0.000965
73 0.003038
86 0.00299
94 0.000964
98 0.000969
103 0.0
112 0.002027
123 0.002032
137 0.000979
147 0.0
161 0.001028
168 0.0
174 0.000954
181 0.002968
186 0.002991
193 0.000998
200 0.001001
203 0.001974
210 0.0
216 0.002029
220 0.001949
226 0.0
234 0.001994
223 0.000968
152 0.000966
77 0.000951
36 0.002995
29 0.003
46 0.002002
56 0.000997
58 0.0
61 0.002993
74 0.003025
89 0.0
95 0.003032
101 0.000952
106 0.001012
115 0.000958
126 0.002996
138 0.003989
150 0.001007
159 0.000928
167 0.000966
173 0.00299
178 0.003021
185 0.0
192 0.001994
200 0.000978
206 0.001001
210 0.001997
215 0.002028
220 0.002025
226 0.0
232 0.001012
236 0.0
197 0.000969
116 0.002961
47 0.0
38 0.00299
60 0.001003
75 0.000998
82 0.000991
91 0.003007
100 0.002994
104 0.000997
104 0.0
104 0.002994
109 0.004024
117 0.002992
131 0.001981
144 0.002992
155 0.000965
163 0.000967
168 0.0
174 0.002994
178 0.003031
183 0.0
187 0.000959
191 0.002033
197 0.003022
204 0.00305
211 0.001977
159 0.002988
63 0.000967
26 0.001
22 0.001079
34 0.00399
50 0.004024
59 0.0
65 0.000992
76 0.002994
87 0.002998
93 0.003989
98 0.002997
104 0.005009
113 0.003975
129 0.002992
141 0.003989
151 0.003042
160 0.003988
168 0.004182
177 0.004008
182 0.001967
187 0.002008
192 0.004043
201 0.002987
207 0.00402
213 0.005023
202 0.001995
131 0.002995
60 0.002993
22 0.005028
17 0.005048
35 0.002992
46 0.001987
48 0.002943
53 0.003977
75 0.002979
85 0.005021
91 0.004988
96 0.001035
101 0.003994
111 0.002988
123 0.005039
135 0.005008
149 0.003006
159 0.002996
166 0.001983
173 0.005032
183 0.000997
189 0.004956
193 0.005019
200 0.002027
206 0.001977
213 0.001992
220 0.005018
203 0.005017
103 0.002999
44 0.002007
21 0.002977
25 0.005981
51 0.002974
58 0.005029
64 0.00499
80 0.001964
89 0.003024
94 0.001994
95 0.005016
98 0.004988
109 0.001992
119 0.002988
131 0.002978
143 0.005978
159 0.002995
167 0.005971
173 0.006023
180 0.003012
185 0.002997
188 0.003013
193 0.005017
197 0.006024
206 0.003995
212 0.003012
194 0.002993
122 0.006018
32 0.003972
23 0.003983
37 0.005985
55 0.005984
71 0.002995
82 0.003947
93 0.003977
98 0.006982
98 0.006015
98 0.003989
102 0.002999
112 0.002938
132 0.003976
144 0.003978
153 0.005967
162 0.006865
172 0.003986
178 0.003989
183 0.002961
188 0.005983
192 0.005978
198 0.003933
205 0.002992
209 0.00298
132 0.003
57 0.002999
16 0.006018
9 0.007024
28 0.003952
42 0.004004
47 0.003978
52 0.006983
64 0.006981
80 0.004006
86 0.003983
92 0.00399
98 0.003977
108 0.003044
119 0.006988
133 0.006952
143 0.007008
152 0.006949
164 0.003985
171 0.006984
177 0.006982
185 0.003986
190 0.004023
199 0.003026
205 0.004957
212 0.004954
219 0.007987
198 0.006983
92 0.003994
34 0.003982
12 0.004028
19 0.007013
37 0.006983
52 0.003984
56 0.004031
74 0.004996
84 0.003987
91 0.004971
95 0.007978
101 0.007977
110 0.00497
120 0.004986
132 0.00498
148 0.00798
157 0.007951
165 0.004992
173 0.004985
183 0.005954
189 0.005007
195 0.005984
202 0.007991
205 0.00798
213 0.005982
219 0.00499
223 0.004984
204 0.005015
236 0.00798
200 0.007977
111 0.004999
22 0.007978
19 0.004993
34 0.004993
53 0.004799
67 0.007978
71 0.007991
85 0.004995
92 0.005937
95 0.005969
97 0.00701
102 0.006985
110 0.006022
129 0.006979
141 0.005985
151 0.005984
161 0.00595
172 0.007017
178 0.007003
183 0.006951
188 0.006025
192 0.004976
198 0.006982
201 0.007979
209 0.005983
219 0.007012
167 0.006973
112 0.006943
51 0.006951
24 0.007016
35 0.007013
57 0.005965
74 0.005948
86 0.005983
102 0.006999
106 0.006978
105 0.005981
103 0.007013
111 0.005976
122 0.005994
134 0.006017
147 0.007001
157 0.00703
167 0.006937
174 0.006934
181 0.006955
188 0.006934
192 0.007025
197 0.005978
205 0.007015
212 0.005941
200 0.005991
98 0.006021
36 0.005991
11 0.006025
19 0.006013
37 0.006018
49 0.00602
54 0.006026
62 0.006021
79 0.005995
87 0.006028
89 0.006978
93 0.006981
100 0.005985
110 0.005981
121 0.005993
135 0.006018
145 0.005991
153 0.005978
159 0.005983
164 0.006015
170 0.006967
174 0.006018
178 0.005984
184 0.005984
185 0.005987
144 0.005983
69 0.006016
16 0.00597
0 0.006
12 0.005977
26 0.005013
34 0.006019
47 0.004981
61 0.005025
71 0.004985
78 0.004949
81 0.005984
86 0.005081
94 0.005022
105 0.005987
120 0.005982
129 0.005962
139 0.006041
149 0.005903
162 0.005977
168 0.005974
173 0.004986
180 0.005987
187 0.004975
193 0.004974
193 0.005018
144 0.006018
53 0.005012
20 0.004985
19 0.004987
33 0.003989
55 0.004979
60 0.00499
72 0.005019
86 0.006016
91 0.004987
92 0.004986
96 0.006018
103 0.005016
116 0.00503
127 0.005036
139 0.004985
148 0.005021
161 0.005016
167 0.005017
171 0.005007
177 0.005039
181 0.005011
187 0.00502
190 0.004986
157 0.005017
69 0.005203
32 0.004988
26 0.004942
39 0.005
62 0.00498
69 0.004983
81 0.003947
93 0.004022
97 0.003947
99 0.003987
101 0.00399
107 0.004041
123 0.003975
136 0.00399
147 0.003977
156 0.004033
168 0.004951
173 0.004021
179 0.004057
185 0.004025
192 0.003986
197 0.00399
180 0.003974
114 0.004039
53 0.004024
22 0.00402
28 0.004013
42 0.003992
52 0.004016
58 0.003981
72 0.004017
85 0.002975
96 0.004034
99 0.003035
103 0.00303
111 0.003957
122 0.003989
138 0.004027
148 0.004046
158 0.003989
171 0.003023
176 0.003984
181 0.004025
185 0.00399
193 0.003992
199 0.003998
205 0.003992
200 0.003995
145 0.003021
58 0.003037
30 0.003018
41 0.002022
54 0.002991
59 0.002995
64 0.002992
77 0.002028
94 0.002992
101 0.002992
103 0.002979
107 0.002993
114 0.003025
129 0.002966
140 0.001988
157 0.002992
165 0.002007
172 0.002991
178 0.002992
184 0.003041
190 0.003035
195 0.002959
200 0.002961
205 0.002993
210 0.003026
219 0.001961
221 0.001999
129 0.001999
64 0.003024
35 0.002018
36 0.001965
52 0.002041
67 0.001996
71 0.002003
80 0.00301
93 0.003046
101 0.003001
106 0.002994
108 0.001976
120 0.002029
132 0.002035
143 0.00202
154 0.002025
163 0.002036
173 0.002026
180 0.002028
185 0.003026
190 0.00305
195 0.00199
200 0.002025
205 0.001994
212 0.002036
219 0.002025
226 0.001029
231 0.002
207 0.001987
129 0.001955
54 0.002044
39 0.001959
49 0.002024
68 0.002017
82 0.002028
95 0.002024
108 0.002039
111 0.002032
110 0.002043
111 0.002035
116 0.001041
126 0.001028
141 0.00199
152 0.000997
161 0.001964
170 0.003033
176 0.00203
184 0.002035
190 0.001993
196 0.00202
200 0.001993
204 0.000996
210 0.001995
218 0.001995
213 0.001999
151 0.000995
77 0.001001
34 0.000999
26 0.001031
44 0.002032
61 0.002045
69 0.001974
80 0.002027
93 0.001999
100 0.001999
103 0.002006
107 0.001995
115 0.000952
125 0.0
137 0.001
149 0.0
162 0.0
173 0.000998
182 0.0
188 0.0
193 0.000998
199 0.001042
204 0.001042
210 0.00103
215 0.0
221 0.001033
226 0.0
232 0.0
206 0.0
96 0.0
30 0.0
21 0.0
34 0.0
50 0.0
58 0.0
65 0.001012
78 0.000994
89 0.001028
97 0.001
100 0.0
107 0.000995
116 0.0
132 0.0
145 0.0
155 0.0
164 0.0
172 0.0
180 0.0
185 0.0
189 0.0
193 0.0
197 0.000989
204 0.000997
209 0.000991
215 0.000992
215 0.0
162 0.000963
61 0.0
30 0.0
15 0.0
31 0.0
48 0.003037
59 0.0
64 0.000999
88 0.0
93 0.000997
97 0.001007
100 0.000991
105 0.003033
117 0.0
128 0.0
138 0.000977
146 0.00298
152 0.002987
157 0.0
161 0.0
170 0.000993
174 0.001011
183 0.0
190 0.000998
198 0.003025
205 0.000963
174 0.0
102 0.001005
49 0.003992
28 0.002991
42 0.0
62 0.0
83 0.0
96 0.0
104 0.0
107 0.003024
105 0.003013
106 0.0
111 0.000998
121 0.000958
132 0.003035
