83 0.012931
86 0.002964
86 0.001999
88 0.002997
92 0.002026
95 0.002992
103 0.002036
108 0.002986
114 0.002
121 0.002992
127 0.001985
133 0.001994
128 0.001994
105 0.000998
94 0.001995
90 0.0
93 0.001995
99 0.00195
99 0.001982
101 0.001964
102 0.002959
107 0.002851
111 0.003056
116 0.002998
124 0.002993
127 0.002993
133 0.002993
136 0.002988
133 0.003029
110 0.003993
98 0.00399
94 0.004986
95 0.004988
98 0.005984
102 0.007979
78 0.007979
76 0.007978
78 0.007978
83 0.005984
86 0.007005
94 0.00603
102 0.005983
109 0.006029
95 0.006029
72 0.006008
39 0.006015
33 0.004033
32 0.00402
42 0.002998
47 0.000997
44 0.0
43 0.0
48 0.0
51 0.000968
63 0.00296
72 0.002962
81 0.00296
75 0.002959
44 0.002774
11 0.00297
1 0.004955
3 0.004956
10 0.004988
16 0.004986
21 0.004987
24 0.00502
27 0.004987
35 0.004989
46 0.006026
53 0.006982
67 0.006968
53 0.006954
33 0.006982
4 0.006951
57 0.006982
60 0.008015
64 0.006982
70 0.006982
88 0.007027
94 0.005127
95 0.004034
95 0.001996
100 0.002026
104 0.002041
110 0.001995
111 0.001994
117 0.001993
121 0.001978
124 0.00199
112 0.001997
92 0.0
85 0.000968
78 0.001999
75 0.00296
74 0.003956
74 0.003869
79 0.005011
84 0.006014
89 0.005982
95 0.006941
99 0.007013
109 0.006982
113 0.006949
122 0.006986
129 0.006939
132 0.007024
125 0.006025
112 0.007018
91 0.006025
86 0.006034
84 0.006024
87 0.005024
89 0.003025
91 0.001995
89 0.000999
93 0.000998
94 0.0
100 0.0
106 0.0
109 0.0
116 0.0
121 0.000998
125 0.001995
124 0.001965
108 0.002964
57 0.001966
38 0.002962
39 0.002961
43 0.002991
45 0.002959
46 0.002979
44 0.002958
45 0.002992
50 0.002963
54 0.002962
63 0.004986
73 0.005953
78 0.005954
88 0.005983
76 0.005983
51 0.005948
16 0.005951
8 0.005987
7 0.00698
13 0.007978
12 0.006981
7 0.007974
7 0.007978
9 0.004973
13 0.003989
18 0.002969
25 0.00399
38 0.0
48 0.0
40 0.0
3 0.0
56 0.000961
53 0.001993
64 0.002
70 0.001997
71 0.00399
66 0.003958
67 0.005984
69 0.005984
75 0.006011
79 0.005978
87 0.006983
92 0.007012
96 0.006979
87 0.006902
73 0.006982
66 0.006982
64 0.007978
66 0.006982
71 0.006979
72 0.005025
73 0.005035
77 0.004198
83 0.004025
87 0.003991
99 0.001994
107 0.002993
111 0.001996
112 0.002041
106 0.001995
84 0.0
73 0.0
72 0.0
76 0.0
82 0.000998
84 0.001995
87 0.002028
88 0.002029
94 0.002992
101 0.003989
107 0.00399
116 0.00399
125 0.003991
129 0.004991
137 0.004934
132 0.005952
122 0.005984
109 0.006023
109 0.006975
112 0.007033
119 0.006975
123 0.007013
125 0.006019
125 0.004023
131 0.002992
137 0.002992
146 0.001995
155 0.002042
169 0.001996
183 0.001034
187 0.001964
197 0.001036
191 0.002035
170 0.000997
142 0.000997
135 0.001038
136 0.000998
143 0.0
147 0.0
147 0.0
146 0.0
149 0.0
151 0.0
159 0.0
168 0.000997
173 0.0
182 0.0
189 0.0
178 0.0
146 0.001995
136 0.001995
134 0.001955
140 0.00399
148 0.004022
148 0.004008
145 0.00399
145 0.00399
147 0.003972
153 0.003987
162 0.003962
170 0.004035
174 0.00399
181 0.004988
161 0.005033
140 0.006982
125 0.006943
128 0.006988
130 0.006981
135 0.006026
138 0.006018
138 0.006027
144 0.007029
152 0.005028
155 0.006016
163 0.005019
173 0.005984
181 0.004987
188 0.005011
192 0.004986
158 0.004008
128 0.00503
109 0.004039
108 0.005021
112 0.004043
120 0.004022
125 0.004023
126 0.004022
131 0.001001
131 0.000992
132 0.0
143 0.00082
148 0.000955
159 0.000998
168 0.000998
174 0.000994
94 0.002992
66 0.002995
50 0.004988
77 0.004984
117 0.004986
144 0.005035
159 0.004951
160 0.004998
160 0.005038
165 0.004987
166 0.004987
172 0.005078
179 0.004983
185 0.004848
188 0.005034
183 0.004984
142 0.004944
122 0.00598
115 0.007968
126 0.00698
135 0.007979
201 0.007006
222 0.006957
214 0.007982
195 0.007979
162 0.00701
133 0.007975
126 0.007009
122 0.007892
123 0.00702
123 0.006988
96 0.007021
56 0.006031
47 0.005018
51 0.004019
55 0.002036
63 0.002033
64 0.0
65 0.000955
67 0.0
76 0.000997
80 0.0
91 0.000998
103 0.001995
109 0.002003
118 0.001995
107 0.001999
65 0.001999
20 0.001995
16 0.002028
20 0.001994
33 0.002956
39 0.002959
35 0.003028
29 0.002993
16 0.003947
16 0.006017
29 0.006952
36 0.006964
52 0.006988
66 0.007009
68 0.007018
71 0.006019
74 0.006079
50 0.002995
32 0.00399
50 0.003027
68 0.001988
85 0.00103
90 0.000996
96 0.000999
96 0.0
99 0.000982
99 0.000997
108 0.000998
115 0.000953
126 0.000998
154 0.001003
255 0.000998
255 0.000997
255 0.000999
234 0.001009
193 0.000997
178 0.000987
162 0.001996
145 0.002993
123 0.002951
107 0.002964
133 0.002975
181 0.004997
182 0.005016
182 0.006972
182 0.007014
178 0.006981
166 0.006971
113 0.006987
76 0.007007
35 0.006975
26 0.007974
28 0.006986
34 0.006982
41 0.006973
68 0.006983
89 0.005022
93 0.003988
92 0.00402
100 0.003975
98 0.00402
98 0.002976
85 0.002974
37 0.003026
38 0.00298
34 0.001983
38 0.001995
42 0.000962
43 0.000998
47 0.000997
49 0.001996
51 0.002027
56 0.002952
61 0.001994
67 0.00302
72 0.001982
77 0.002994
77 0.004035
47 0.004942
28 0.005923
26 0.007015
30 0.007027
38 0.007028
43 0.006993
47 0.006986
51 0.006981
58 0.007011
63 0.006978
75 0.006977
83 0.006987
89 0.006096
97 0.005044
101 0.004029
98 0.003988
66 0.004026
49 0.003989
49 0.00299
55 0.000977
57 0.00204
61 0.00103
64 0.002025
69 0.0
73 0.0
78 0.0
88 0.0
95 0.0
99 0.0
107 0.000997
108 0.000997
86 0.000983
48 0.000999
45 0.000998
53 0.001006
60 0.001995
36 0.003047
39 0.002957
48 0.002979
54 0.005022
67 0.004987
77 0.004992
87 0.005975
98 0.007015
104 0.007013
95 0.006023
33 0.005978
13 0.005939
18 0.005983
25 0.005977
39 0.004013
49 0.003026
55 0.003026
58 0.001034
57 0.000976
59 0.0
64 0.0
74 0.00102
81 0.000997
84 0.001006
57 0.000964
0 0.000998
54 0.001006
61 0.001019
66 0.002993
76 0.003
82 0.002987
89 0.003023
95 0.003959
100 0.004023
107 0.005993
117 0.007011
119 0.006981
127 0.005986
135 0.004995
138 0.004011
141 0.003025
129 0.004022
97 0.003024
91 0.002971
98 0.0
101 0.0
109 0.0
114 0.0
120 0.0
124 0.0
130 0.0
134 0.0
142 0.0
146 0.0
152 0.002005
155 0.002009
159 0.002028
163 0.001997
163 0.00199
145 0.003989
121 0.005986
119 0.005981
123 0.006005
127 0.005868
128 0.006984
131 0.007013
133 0.005988
135 0.003988
140 0.004987
145 0.003989
148 0.002956
151 0.002993
154 0.002993
157 0.002992
157 0.000996
148 0.001995
126 0.0
119 0.000989
121 0.000997
123 0.000989
127 0.000838
128 0.000998
127 0.000996
128 0.001001
132 0.000998
140 0.001005
139 0.00199
144 0.001996
148 0.001995
149 0.001992
127 0.001987
105 0.002002
93 0.001996
94 0.001996
100 0.001995
105 0.001996
106 0.002992
110 0.002991
116 0.003016
120 0.002992
127 0.004996
134 0.004984
142 0.004996
149 0.005019
153 0.005022
151 0.00502
120 0.005017
106 0.005021
105 0.004976
107 0.004966
112 0.005011
117 0.005018
118 0.006016
120 0.00602
123 0.00698
127 0.006982
136 0.006982
140 0.007017
148 0.007107
155 0.006849
157 0.006982
164 0.00603
168 0.00702
169 0.005017
151 0.004024
122 0.000996
116 0.000989
119 0.0
123 0.0
126 0.0
127 0.000998
126 0.0
128 0.001012
134 0.0
139 0.0
144 0.0
151 0.0
159 0.000991
166 0.002024
172 0.002992
157 0.004032
120 0.005017
104 0.005016
94 0.005021
98 0.005021
104 0.004972
108 0.005018
105 0.004988
101 0.007934
103 0.001994
104 0.006985
111 0.004988
116 0.005017
118 0.004985
125 0.004131
126 0.00402
103 0.002952
73 0.003991
58 0.002026
55 0.001956
59 0.0
64 0.000998
62 0.001975
63 0.002992
66 0.002993
68 0.002989
75 0.002993
83 0.003017
90 0.004016
100 0.00396
95 0.004988
63 0.006034
43 0.007022
40 0.00702
47 0.007011
52 0.007015
62 0.005977
66 0.007014
70 0.007018
80 0.007012
87 0.007013
97 0.007023
103 0.005965
114 0.004985
125 0.005984
117 0.005984
96 0.005981
70 0.005986
64 0.006007
70 0.005984
80 0.003987
82 0.003987
83 0.003025
85 0.00299
88 0.001993
95 0.001996
101 0.001996
111 0.001982
121 0.002007
129 0.000998
137 0.001045
142 0.001992
140 0.00101
115 0.00219
83 0.001
71 0.001993
74 0.001964
75 0.00101
83 0.000997
86 0.000996
88 0.001012
94 0.001007
100 0.001008
107 0.001967
118 0.003027
125 0.002993
136 0.004014
149 0.004987
157 0.004988
167 0.007016
174 0.006025
182 0.005985
194 0.005989
173 0.003991
151 0.004
124 0.004993
114 0.003988
118 0.001993
123 0.002028
123 0.0
125 0.0
123 0.0
125 0.0
132 0.0
139 0.001969
143 0.001994
151 0.002993
159 0.004804
162 0.00494
165 0.005022
171 0.005003
169 0.005023
141 0.005021
118 0.005025
105 0.00603
107 0.00694
110 0.005983
113 0.003987
115 0.003043
111 0.002015
108 0.001989
108 0.001993
109 0.001993
116 0.001995
122 0.0
129 0.0
134 0.0
136 0.0
123 0.000954
88 0.000998
74 0.00203
72 0.002003
76 0.003028
78 0.002994
81 0.002986
87 0.002991
92 0.003961
94 0.00402
100 0.006014
105 0.004987
115 0.006023
120 0.006024
136 0.00506
140 0.006966
119 0.006797
99 0.006954
90 0.00794
89 0.007978
86 0.007979
89 0.007945
89 0.007964
90 0.006981
91 0.007978
92 0.00701
95 0.007968
103 0.007017
112 0.00602
119 0.006019
127 0.00698
135 0.007013
131 0.006981
96 0.005983
79 0.006025
68 0.00597
69 0.007017
69 0.005971
76 0.005034
78 0.003981
78 0.003055
82 0.003003
89 0.003042
97 0.002994
111 0.000994
120 0.002034
131 0.002029
139 0.001037
140 0.0
145 0.0
154 0.001003
156 0.000998
131 0.000998
107 0.000996
87 0.002028
83 0.002993
86 0.003037
92 0.00399
85 0.006042
86 0.007025
91 0.007003
100 0.006984
104 0.005997
116 0.006994
127 0.006029
129 0.005993
132 0.005984
137 0.006172
139 0.005988
147 0.003988
139 0.004969
98 0.003969
75 0.004983
63 0.00399
68 0.003987
72 0.003023
75 0.003008
78 0.002992
74 0.0
75 0.002004
84 0.002042
89 0.002037
100 0.001998
109 0.002001
120 0.001994
129 0.0
132 0.00098
101 0.001004
76 0.000997
49 0.0
43 0.0
46 0.0
53 0.0
60 0.0
64 0.000997
70 0.0
73 0.0
90 0.0
98 0.000997
104 0.001031
114 0.001995
125 0.001994
134 0.002034
130 0.002028
106 0.002027
69 0.001995
62 0.002993
61 0.003991
69 0.003991
79 0.004989
81 0.006021
84 0.007027
88 0.007012
95 0.007017
104 0.004988
118 0.00303
126 0.00199
140 0.001031
151 0.001029
163 0.001996
174 0.001024
178 0.001029
147 0.001031
106 0.001031
86 0.0
81 0.0
87 0.00104
90 0.001001
92 0.000997
94 0.000997
91 0.00101
98 0.000998
100 0.001963
112 0.001995
121 0.001995
129 0.002034
142 0.001995
150 0.001997
162 0.00203
167 0.001995
172 0.001997
138 0.001996
107 0.001995
85 0.003036
86 0.002992
87 0.002997
91 0.002992
92 0.003034
88 0.00303
88 0.002992
91 0.004052
99 0.003991
105 0.004038
115 0.003991
126 0.002992
133 0.00404
140 0.005984
113 0.005924
80 0.005952
46 0.006021
41 0.005579
44 0.00598
51 0.006014
55 0.007979
53 0.00602
44 0.005988
43 0.00603
58 0.006002
69 0.005974
82 0.005961
98 0.006017
106 0.005985
112 0.006023
101 0.005975
57 0.006027
31 0.007014
15 0.006015
24 0.007014
36 0.007017
36 0.007014
43 0.00399
47 0.004038
50 0.004015
61 0.002998
72 0.004041
95 0.003001
110 0.003026
117 0.003029
122 0.003037
126 0.003032
112 0.003038
77 0.003982
43 0.00297
30 0.00399
28 0.002974
32 0.004025
41 0.004021
46 0.003028
45 0.001997
51 0.0
58 0.001932
63 0.0
80 0.002017
88 0.002041
102 0.001994
115 0.003035
127 0.004043
139 0.005034
138 0.005984
110 0.006016
63 0.006027
46 0.007026
39 0.006084
47 0.006018
52 0.006107
58 0.005981
60 0.006012
63 0.007016
68 0.007028
76 0.004982
82 0.006019
95 0.006028
104 0.006104
115 0.005003
123 0.003036
128 0.004025
136 0.001008
123 0.000997
87 0.000967
44 0.0
34 0.0
41 0.0
50 0.0
53 0.0
53 0.001997
46 0.001997
46 0.002034
51 0.001995
58 0.001995
71 0.002036
82 0.001995
92 0.002029
99 0.002031
103 0.002006
110 0.002992
88 0.002993
42 0.003022
11 0.003041
6 0.003957
10 0.004023
18 0.00598
27 0.006729
28 0.007967
29 0.006015
30 0.007014
36 0.005984
53 0.005981
67 0.005013
83 0.003984
99 0.003996
107 0.003992
121 0.003988
115 0.004026
70 0.004025
32 0.005019
13 0.002031
15 0.005035
23 0.002034
31 0.002026
40 0.002037
41 0.002172
46 0.001995
60 0.001045
68 0.002026
84 0.000967
95 0.0
106 0.0
122 0.0
139 0.000999
149 0.002994
156 0.002993
163 0.005011
141 0.005979
81 0.006981
39 0.006995
32 0.006982
35 0.007087
41 0.006953
44 0.006834
46 0.006981
43 0.007024
49 0.00694
55 0.006985
63 0.007994
83 0.007967
87 0.007979
102 0.005988
117 0.004979
124 0.006014
135 0.003999
141 0.006021
122 0.004017
60 0.004001
31 0.003995
17 0.003993
23 0.002007
27 0.000965
33 0.0
34 0.000998
30 0.000997
32 0.000998
41 0.000997
49 0.000989
62 0.000997
74 0.001996
76 0.004027
91 0.004052
103 0.004033
113 0.003992
99 0.004023
63 0.004037
0 0.005981
0 0.00702
0 0.006974
0 0.006976
2 0.006983
4 0.006979
0 0.006988
0 0.00701
6 0.006978
14 0.006991
27 0.006984
40 0.007013
50 0.00502
58 0.005984
69 0.004056
55 0.003963
0 0.003989
0 0.000997
0 0.003029
0 0.00103
0 0.0
0 0.0
0 0.0
0 0.001996
0 0.001996
52 0.001965
59 0.002026
68 0.003947
79 0.003989
84 0.003979
92 0.004992
90 0.004986
70 0.00499
31 0.004978
23 0.004994
21 0.006984
28 0.006983
35 0.006981
40 0.006982
41 0.007973
40 0.007017
48 0.006073
58 0.004008
66 0.004037
79 0.002996
85 0.004021
97 0.004033
106 0.003042
111 0.003045
118 0.002036
125 0.003041
115 0.002033
72 0.002008
51 0.00099
40 0.0
43 0.001032
51 0.0
55 0.000998
56 0.0
57 0.000998
60 0.001996
66 0.000992
76 0.002986
86 0.00399
94 0.003993
105 0.004053
116 0.004032
123 0.004053
133 0.003989
140 0.00595
144 0.006021
147 0.005983
135 0.005955
85 0.005986
57 0.006004
54 0.005972
61 0.006022
69 0.005988
73 0.005989
73 0.005983
68 0.004985
73 0.002996
78 0.004026
88 0.001029
96 0.0
106 0.002028
113 0.002992
119 0.004026
125 0.003976
129 0.005027
113 0.006988
73 0.007015
40 0.004989
40 0.005023
51 0.004019
62 0.00402
66 0.004034
63 0.00303
59 0.001038
59 0.00103
66 0.0
76 0.001029
81 0.0
93 0.0
99 0.0
107 0.0
97 0.001867
71 0.002029
30 0.003002
21 0.003959
31 0.00399
41 0.004089
51 0.004001
54 0.00402
53 0.004037
54 0.004051
61 0.005001
74 0.004977
82 0.004989
92 0.005015
101 0.004992
110 0.004984
97 0.004987
68 0.004985
27 0.004991
22 0.00499
29 0.00601
40 0.005985
48 0.005984
51 0.007978
50 0.007946
51 0.006018
59 0.005023
72 0.002992
78 0.004021
92 0.002039
103 0.003033
109 0.001023
119 0.000997
99 0.0
66 0.0
34 0.000997
30 0.002027
35 0.002992
47 0.004978
54 0.004987
56 0.004979
56 0.005025
60 0.004995
71 0.005996
78 0.005986
89 0.005983
96 0.005983
106 0.006006
115 0.005984
124 0.005987
129 0.005985
139 0.005952
146 0.005993
152 0.007009
133 0.006957
110 0.007979
55 0.006042
43 0.006004
50 0.006983
61 0.006023
68 0.005987
71 0.00598
71 0.006017
74 0.005012
83 0.004987
93 0.007178
104 0.003022
116 0.004021
129 0.004034
136 0.002992
147 0.001995
152 0.001995
160 0.0
167 0.0
168 0.000998
132 0.000999
78 0.002994
66 0.002994
78 0.003982
94 0.004988
103 0.005978
105 0.006996
98 0.007013
100 0.007014
108 0.006981
118 0.007012
124 0.006983
133 0.005974
139 0.004989
148 0.005021
153 0.006035
149 0.005002
113 0.005987
59 0.005985
48 0.00604
60 0.005987
69 0.005993
89 0.005984
106 0.003024
106 0.003989
106 0.001987
114 0.001997
121 0.002
129 0.002017
132 0.001993
142 0.002028
151 0.001994
151 0.002019
103 0.002025
69 0.002032
49 0.002025
55 0.003032
66 0.002043
73 0.002992
78 0.002044
76 0.002047
74 0.002043
77 0.0
88 0.00103
99 0.0
109 0.0
117 0.0
123 0.0
122 0.001964
70 0.00395
30 0.004008
29 0.003994
43 0.003988
51 0.003952
62 0.00498
63 0.004989
64 0.004989
72 0.004988
78 0.00499
93 0.00499
104 0.006975
115 0.006979
126 0.007016
136 0.006972
139 0.00798
138 0.007012
84 0.006005
58 0.006982
49 0.005952
57 0.006985
69 0.006024
79 0.005984
81 0.006022
79 0.005991
82 0.004992
93 0.004988
103 0.004999
111 0.005003
122 0.005023
129 0.004988
143 0.004021
150 0.004
155 0.003023
162 0.004126
171 0.004019
164 0.00399
105 0.004037
72 0.003989
58 0.003991
71 0.001995
81 0.002992
90 0.002005
90 0.002026
90 0.001005
93 0.0
105 0.001024
113 0.001019
126 0.003947
141 0.002991
148 0.003002
159 0.002979
162 0.002996
167 0.002982
170 0.003996
160 0.003994
100 0.003992
76 0.004004
73 0.003937
86 0.004982
98 0.005983
105 0.00703
106 0.007014
103 0.006981
106 0.006977
117 0.005017
124 0.007019
137 0.004997
144 0.005987
156 0.005004
165 0.004986
169 0.005022
144 0.004144
84 0.004018
67 0.00402
69 0.002953
77 0.002992
91 0.003025
95 0.004967
93 0.002997
89 0.003989
93 0.002991
105 0.002027
121 0.001996
128 0.001006
142 0.0
151 0.0
156 0.0
131 0.0
69 0.001011
52 0.000997
60 0.000967
72 0.000863
88 0.002986
96 0.002989
94 0.003979
94 0.004986
107 0.004989
115 0.005037
131 0.004982
147 0.007023
154 0.006998
165 0.006978
171 0.00698
142 0.006978
86 0.007011
62 0.006966
60 0.007979
79 0.007832
88 0.00797
96 0.006021
96 0.006018
95 0.003966
103 0.002993
111 0.003023
126 0.000966
139 0.0
153 0.000997
162 0.000998
175 0.000997
182 0.002003
192 0.004995
202 0.005985
202 0.005984
147 0.005979
94 0.00602
77 0.005951
86 0.007979
98 0.007977
110 0.00797
114 0.007978
113 0.004995
113 0.004976
119 0.003994
128 0.005023
143 0.003977
159 0.002034
172 0.0
179 0.000972
187 0.0
192 0.0
199 0.0
187 0.002011
136 0.0
88 0.001029
80 0.0
94 0.0
115 0.0
121 0.0
123 0.0
118 0.0
114 0.0
121 0.0
131 0.0
145 0.0
157 0.001004
160 0.002952
161 0.004
165 0.004986
145 0.006987
93 0.00598
59 0.006031
62 0.005019
86 0.003987
108 0.004026
114 0.003991
108 0.003026
104 0.00298
107 0.002986
114 0.004044
126 0.003
137 0.004005
153 0.002993
164 0.001999
165 0.0
116 0.0
70 0.0
56 0.0
63 0.000968
79 0.001004
95 0.003007
97 0.002989
88 0.002865
83 0.002992
86 0.002991
97 0.003015
105 0.002994
118 0.002962
131 0.00499
135 0.005
85 0.005018
32 0.005994
25 0.005994
41 0.006017
53 0.006016
67 0.006978
73 0.007945
70 0.005941
70 0.007948
83 0.007976
93 0.007977
105 0.005991
120 0.003993
130 0.004987
141 0.003981
149 0.004988
115 0.002012
48 0.001995
34 0.001992
43 0.00198
62 0.000997
70 0.000998
76 0.000997
76 0.001002
78 0.0
86 0.0
94 0.0
110 0.001993
125 0.00399
135 0.003994
148 0.004019
157 0.004995
168 0.005023
157 0.005982
88 0.007023
57 0.006981
50 0.007022
63 0.006983
74 0.006996
90 0.00502
94 0.001979
95 0.001982
101 0.000986
112 0.001084
116 0.0
131 0.000985
146 0.000998
153 0.000996
163 0.000999
168 0.001018
175 0.001
164 0.000998
103 0.000997
60 0.000981
55 0.001992
69 0.001999
90 0.001995
98 0.001985
95 0.001997
90 0.001979
93 0.001995
104 0.003016
114 0.003009
127 0.005026
139 0.004994
142 0.005018
151 0.00701
136 0.006982
94 0.005975
40 0.003985
38 0.004994
53 0.002947
69 0.004987
76 0.003984
74 0.001979
67 0.001998
74 0.000999
80 0.001995
97 0.002
103 0.001995
111 0.001038
121 0.0
127 0.0
87 0.0
19 0.001003
6 0.000996
13 0.001006
25 0.001
45 0.001
50 0.002992
50 0.003004
58 0.002844
77 0.003027
93 0.003991
122 0.004995
140 0.006023
159 0.006017
173 0.005985
196 0.005983
197 0.006019
120 0.007015
89 0.007978
66 0.006979
87 0.003974
88 0.004985
74 0.001002
49 0.0
33 0.0
11 0.0
12 0.0
22 0.000979
54 0.001016
76 0.000985
84 0.00103
100 0.001003
111 0.000974
111 0.001999
26 0.001998
0 0.001991
0 0.002037
0 0.001995
19 0.002027
36 0.003955
47 0.004986
47 0.005037
59 0.004991
77 0.004984
98 0.006014
112 0.006984
123 0.007963
141 0.006984
155 0.00499
161 0.004975
174 0.004985
154 0.004982
48 0.003971
3 0.003997
19 0.003988
57 0.003981
77 0.003989
86 0.004002
81 0.00499
85 0.003991
96 0.003989
116 0.00299
127 0.002992
140 0.002991
151 0.002997
167 0.002993
177 0.0
161 0.0
65 0.001018
49 0.001046
53 0.001037
76 0.001009
95 0.000997
101 0.000998
103 0.00203
103 0.002007
109 0.001995
121 0.003013
129 0.002992
138 0.003969
145 0.00503
152 0.005018
156 0.004901
125 0.004964
65 0.00502
48 0.005032
60 0.005997
83 0.007028
98 0.006956
104 0.006982
107 0.006974
113 0.006024
119 0.00499
133 0.002961
144 0.001993
150 0.002993
159 0.002993
163 0.00195
170 0.001
164 0.002007
107 0.001995
60 0.002036
66 0.001995
82 0.000956
104 0.002028
112 0.002028
119 0.000986
118 0.0
121 0.001
132 0.001028
141 0.001946
150 0.0
161 0.000997
167 0.000997
175 0.001008
180 0.001002
184 0.000984
190 0.000997
191 0.001995
154 0.001961
78 0.001996
68 0.001995
87 0.003024
111 0.004043
121 0.004023
127 0.00399
126 0.004032
127 0.00502
134 0.006995
145 0.006007
153 0.007945
162 0.00698
171 0.003005
176 0.003028
184 0.0
190 0.0
192 0.0
195 0.000997
194 0.000983
168 0.000973
93 0.001007
82 0.000997
103 0.002959
129 0.002993
139 0.003001
145 0.004043
140 0.006018
139 0.006971
146 0.00697
154 0.006982
164 0.005019
172 0.005999
181 0.005984
184 0.005984
189 0.005967
191 0.005983
193 0.005008
169 0.002996
125 0.002992
83 0.002148
101 0.002018
117 0.002046
136 0.001991
141 0.001036
140 0.002036
135 0.001023
137 0.001008
144 0.0
149 0.002038
152 0.0
157 0.002007
163 0.0
168 0.002031
146 0.002034
112 0.002037
83 0.000993
94 0.001996
111 0.003023
123 0.002992
129 0.002953
126 0.004017
122 0.004988
125 0.006014
131 0.006973
140 0.005977
145 0.004986
150 0.004254
157 0.001999
137 0.003058
92 0.000998
69 0.003005
80 0.001992
98 0.00199
114 0.002043
117 0.003023
116 0.001974
116 0.001984
120 0.002028
130 0.0
136 0.001979
145 0.0
150 0.0
154 0.0
129 0.0
87 0.0
53 0.0
70 0.0
82 0.003062
97 0.001996
104 0.002992
104 0.001995
108 0.001961
112 0.001993
123 0.003976
132 0.004029
138 0.004989
145 0.005039
151 0.004996
151 0.00504
115 0.005017
62 0.005024
52 0.005038
71 0.005022
81 0.005004
95 0.005033
98 0.005026
100 0.005043
103 0.006034
108 0.005955
116 0.006993
126 0.006956
131 0.00711
140 0.006972
145 0.007016
151 0.006034
155 0.005992
158 0.005991
161 0.005983
135 0.005961
79 0.004998
58 0.005978
70 0.004971
88 0.006016
103 0.006067
107 0.005978
106 0.005995
109 0.001994
113 0.002993
123 0.00199
130 0.003989
140 0.002017
148 0.001993
154 0.001959
160 0.002001
163 0.001987
167 0.001
160 0.002003
133 0.001173
86 0.002
91 0.003022
106 0.000956
119 0.00203
127 0.0
127 0.001008
123 0.0
124 0.0
132 0.002994
138 0.001995
146 0.001998
151 0.001996
157 0.003001
161 0.003991
165 0.00402
139 0.006985
101 0.006983
73 0.00505
85 0.004997
97 0.002992
111 0.001016
116 0.0
114 0.0
112 0.0
118 0.0
123 0.0
132 0.0
136 0.0
143 0.001
150 0.003002
147 0.002044
97 0.003035
60 0.003048
65 0.003047
80 0.003031
93 0.002995
101 0.003032
103 0.003053
103 0.003959
107 0.003956
108 0.004028
121 0.002992
133 0.003957
137 0.004021
145 0.004034
136 0.004022
101 0.003991
50 0.004023
53 0.004023
75 0.003991
88 0.004018
98 0.003992
101 0.005977
104 0.005985
108 0.005994
118 0.007018
125 0.006982
136 0.007002
146 0.006991
150 0.00704
157 0.006977
161 0.006988
122 0.006966
63 0.006989
52 0.007002
71 0.006013
92 0.005984
102 0.004988
109 0.005017
110 0.00399
113 0.004988
119 0.006029
129 0.004035
140 0.006015
150 0.004993
155 0.004987
162 0.004979
166 0.005019
172 0.004992
177 0.002991
181 0.00404
186 0.001986
189 0.003992
159 0.002034
83 0.001006
69 0.000981
88 0.0
108 0.001969
116 0.0
122 0.0
121 0.000994
123 0.0
130 0.001035
139 0.000943
147 0.000998
157 0.001015
161 0.000999
169 0.002009
174 0.00403
179 0.005022
183 0.005032
186 0.004989
190 0.004986
186 0.006032
158 0.005993
93 0.005946
92 0.005949
105 0.00602
122 0.007022
132 0.006025
132 0.006024
127 0.007012
126 0.006978
132 0.004985
142 0.004022
148 0.003986
157 0.004983
163 0.006016
169 0.003982
173 0.005984
176 0.003992
179 0.005017
153 0.005021
122 0.005018
96 0.005007
102 0.005002
120 0.005036
133 0.002992
135 0.005022
129 0.003008
126 0.004163
128 0.002991
137 0.001993
143 0.002978
150 0.001997
156 0.001995
159 0.002004
162 0.000959
146 0.002023
104 0.0
78 0.000998
80 0.000998
99 0.002032
113 0.0
118 0.000998
116 0.003952
113 0.004026
116 0.005023
122 0.006017
132 0.00599
137 0.005986
143 0.006022
146 0.006018
151 0.006501
118 0.006983
85 0.006997
67 0.005972
82 0.004994
94 0.002986
108 0.002991
113 0.006019
113 0.001997
113 0.005039
120 0.002004
126 0.002014
136 0.001996
141 0.003013
149 0.00204
157 0.001025
157 0.003033
114 0.0
76 0.002032
66 0.000951
86 0.0
97 0.0
110 0.0
115 0.0
113 0.0
117 0.001013
123 0.0
136 0.0
144 0.002029
151 0.0
157 0.002036
164 0.0
169 0.000998
148 0.000881
109 0.002989
67 0.005017
77 0.004992
95 0.004987
109 0.005019
118 0.004984
119 0.004987
118 0.004994
121 0.004978
131 0.00502
143 0.005944
148 0.005954
156 0.006021
164 0.00695
167 0.005977
172 0.005989
168 0.005986
115 0.005959
70 0.005998
76 0.005953
98 0.003993
111 0.005027
119 0.003977
118 0.003027
115 0.003006
119 0.002993
128 0.003034
134 0.003033
144 0.003028
151 0.0
154 0.002038
160 0.0
137 0.001035
100 0.0
68 0.0
77 0.0
100 0.0
113 0.0
118 0.0
116 0.0
118 0.001001
122 0.001996
134 0.001969
141 0.003007
150 0.003032
158 0.003057
163 0.002977
159 0.002988
116 0.004021
67 0.005017
64 0.004983
83 0.004985
99 0.005025
112 0.004983
115 0.004982
115 0.007995
119 0.00497
126 0.006014
138 0.003993
149 0.002991
156 0.001994
164 0.002024
171 0.0
172 0.000997
116 0.0
68 0.0
66 0.001001
85 0.0
98 0.0
111 0.002034
116 0.00402
118 0.005033
123 0.005021
132 0.004984
144 0.006801
149 0.007004
159 0.006985
163 0.007014
170 0.00603
175 0.00498
165 0.002993
100 0.001967
68 0.002015
78 0.002994
102 0.0
116 0.001996
121 0.0
122 0.0
123 0.002039
128 0.00199
139 0.003853
146 0.006023
152 0.006979
158 0.00798
164 0.007974
166 0.007023
170 0.007019
138 0.004958
98 0.006983
79 0.003986
100 0.002986
111 0.002996
122 0.002989
122 0.002999
117 0.001964
119 0.001984
125 0.001946
136 0.001995
141 0.002
150 0.0
154 0.000997
158 0.0
157 0.00203
107 0.004028
71 0.004001
77 0.003986
95 0.004028
109 0.005019
119 0.006011
121 0.00602
120 0.006019
124 0.006982
132 0.005977
138 0.00702
148 0.005101
155 0.003951
160 0.003985
159 0.002993
134 0.00299
72 0.001996
76 0.002001
91 0.001998
109 0.001994
119 0.001996
122 0.001994
121 0.002026
126 0.0
133 0.001995
144 0.002025
152 0.002025
161 0.002025
166 0.0
172 0.000998
171 0.001968
111 0.001996
74 0.002025
77 0.001959
93 0.002
113 0.00399
124 0.003983
125 0.003985
126 0.003959
134 0.00399
140 0.005019
151 0.005985
158 0.005985
164 0.004987
172 0.003999
178 0.002983
184 0.000984
187 0.002997
190 0.003023
172 0.003031
94 0.002027
75 0.001997
92 0.00203
116 0.000983
125 0.0
133 0.0
134 0.000962
135 0.001996
143 0.001999
154 0.002992
162 0.004032
171 0.004985
179 0.00598
184 0.005987
190 0.007001
194 0.004975
197 0.005001
197 0.004988
159 0.005026
101 0.002988
92 0.003989
112 0.001988
128 0.003989
142 0.001997
144 0.001986
143 0.002033
148 0.0
153 0.001035
162 0.000991
170 0.001945
178 0.001008
184 0.000993
188 0.001013
192 0.001004
195 0.002998
190 0.00299
134 0.003982
96 0.005017
103 0.006984
123 0.006963
139 0.006977
147 0.003996
147 0.004987
142 0.002992
143 0.003118
151 0.002034
159 0.0
165 0.000997
171 0.000969
175 0.002038
177 0.001995
166 0.002028
104 0.002044
83 0.001995
93 0.002995
109 0.002992
128 0.002993
136 0.003028
133 0.002992
131 0.002991
134 0.002992
144 0.002992
153 0.003993
158 0.002992
166 0.002992
170 0.005026
167 0.006028
123 0.006011
75 0.005984
70 0.005872
95 0.004989
109 0.005984
122 0.006026
122 0.006977
120 0.007026
124 0.004951
136 0.003997
142 0.002989
151 0.003004
159 0.000995
164 0.0
170 0.0
155 0.001996
109 0.0
56 0.0
59 0.0
83 0.000967
102 0.002019
109 0.002989
112 0.003994
114 0.003998
119 0.00499
128 0.004031
140 0.00403
146 0.005031
155 0.004987
159 0.004986
166 0.00503
168 0.004976
145 0.004973
70 0.005024
58 0.005025
76 0.00597
93 0.006945
102 0.005981
111 0.004979
114 0.004987
117 0.005113
127 0.003976
138 0.006983
147 0.004985
154 0.004983
160 0.002003
165 0.003987
172 0.00399
177 0.003989
143 0.002979
75 0.001993
71 0.002992
91 0.00201
102 0.002983
116 0.00099
122 0.001026
124 0.001987
128 0.001994
136 0.001996
147 0.000999
159 0.002002
164 0.002
172 0.002006
175 0.001952
181 0.0
176 0.0
141 0.0
87 0.000997
96 0.001966
113 0.005032
125 0.005016
133 0.004975
134 0.004986
134 0.005024
141 0.006045
148 0.006937
158 0.006877
165 0.005952
170 0.002957
177 0.001995
183 0.001985
185 0.001987
145 0.001962
94 0.002992
92 0.0
107 0.002004
122 0.0
132 0.0
134 0.0
133 0.0
136 0.0
143 0.002967
150 0.003009
157 0.003021
165 0.002992
170 0.003008
172 0.003029
150 0.003004
90 0.005026
93 0.004988
106 0.004959
124 0.005029
135 0.004988
134 0.005985
128 0.004954
131 0.00598
137 0.006976
146 0.005957
151 0.005971
158 0.00598
163 0.007984
139 0.005982
75 0.006981
61 0.004987
76 0.004988
94 0.003989
102 0.003989
107 0.003986
101 0.0
101 0.002046
110 0.000994
123 0.0
131 0.0
142 0.0
148 0.0
115 0.0
50 0.0
47 0.0
67 0.0
82 0.0
90 0.001003
95 0.000997
96 0.002991
99 0.004982
112 0.007017
124 0.007009
133 0.007014
142 0.006971
152 0.007162
151 0.006981
85 0.004988
47 0.002991
54 0.004945
76 0.002996
86 0.004029
101 0.002981
105 0.002983
104 0.001995
112 0.0
128 0.0
137 0.0
149 0.0
155 0.0
163 0.0
169 0.0
142 0.0
60 0.0
58 0.0
72 0.000997
90 0.001032
99 0.000985
103 0.002
103 0.002993
106 0.002995
113 0.002993
128 0.004023
137 0.004022
151 0.003993
163 0.006025
170 0.006015
181 0.006977
182 0.007029
110 0.006966
66 0.006981
73 0.006977
93 0.006977
106 0.00698
122 0.006978
124 0.00698
123 0.00698
131 0.005986
143 0.007944
154 0.005988
169 0.007914
177 0.005981
186 0.007976
193 0.005981
198 0.007979
193 0.005986
133 0.007986
90 0.005973
101 0.005969
116 0.005985
139 0.005971
150 0.003989
150 0.003025
147 0.002004
153 0.002039
162 0.0
170 0.00204
178 0.000968
182 0.0
188 0.001996
189 0.002014
153 0.004053
97 0.003991
90 0.003896
108 0.004041
134 0.004025
145 0.004
152 0.003991
150 0.004038
151 0.003029
160 0.005025
166 0.006018
174 0.006954
180 0.006975
184 0.006973
175 0.006977
136 0.00697
81 0.00698
84 0.005979
99 0.004984
122 0.00499
132 0.006116
135 0.002991
132 0.00498
135 0.003989
140 0.003987
148 0.00399
149 0.003996
151 0.004025
142 0.002007
112 0.002993
59 0.0
62 0.0
70 0.0
100 0.0
122 0.000998
126 0.002993
140 0.00296
189 0.003991
228 0.005026
255 0.006949
255 0.006981
255 0.006968
255 0.005982
239 0.006978
125 0.006977
115 0.006987
123 0.004984
135 0.004987
157 0.003027
156 0.0
148 0.000951
140 0.001959
116 0.002023
87 0.002866
59 0.00399
59 0.005984
34 0.005989
0 0.005026
0 0.002985
0 0.002014
31 0.002009
61 0.001991
61 0.0
43 0.0
40 0.002038
50 0.0
61 0.002042
71 0.0
81 0.002038
102 0.002039
96 0.002026
24 0.001029
13 0.000972
33 0.000964
54 0.000997
78 0.000998
91 0.002028
87 0.00204
86 0.002994
95 0.003989
113 0.004954
125 0.00399
141 0.004004
151 0.005993
151 0.005953
86 0.006978
41 0.006959
34 0.006949
69 0.006971
83 0.005993
108 0.004985
116 0.006981
116 0.007015
113 0.005021
125 0.002993
134 0.004987
145 0.001973
151 0.003976
160 0.002961
168 0.000999
149 0.0
62 0.0
53 0.0
69 0.0
101 0.0
119 0.0
132 0.0
131 0.000985
128 0.000969
137 0.00204
151 0.002992
162 0.002992
176 0.003031
185 0.002992
193 0.002992
194 0.003029
137 0.002998
85 0.003038
94 0.003942
112 0.004988
140 0.003992
162 0.004989
164 0.004991
157 0.006048
156 0.006966
163 0.005937
177 0.005973
185 0.005984
197 0.005983
207 0.005953
213 0.005949
221 0.00599
185 0.005985
112 0.004973
113 0.006969
136 0.002975
155 0.003993
170 0.002962
174 0.0
171 0.000997
169 0.001038
176 0.000999
184 0.000998
196 0.000977
202 0.001003
210 0.000998
213 0.002036
220 0.001959
221 0.002961
185 0.002991
122 0.005035
131 0.003952
147 0.005025
163 0.005977
175 0.004975
176 0.004974
167 0.004986
165 0.007013
170 0.00403
177 0.007014
185 0.004029
190 0.005982
194 0.005984
198 0.005984
202 0.004005
202 0.002
174 0.004032
117 0.001992
118 0.00399
140 0.002948
156 0.001995
165 0.0
170 0.00193
168 0.002036
164 0.0
168 0.0
176 0.002028
182 0.001048
188 0.001995
190 0.001901
193 0.00203
195 0.002025
199 0.00402
197 0.00499
151 0.004021
123 0.004944
134 0.006028
153 0.006017
162 0.006039
174 0.007985
175 0.007974
171 0.006024
170 0.00399
172 0.005984
179 0.002961
185 0.001994
192 0.0
196 0.000957
198 0.0
201 0.0
202 0.0
184 0.001995
142 0.002001
114 0.003992
129 0.00399
140 0.004054
150 0.00602
169 0.006039
169 0.006947
162 0.006018
160 0.005978
163 0.00798
172 0.004984
177 0.006981
183 0.003982
190 0.002005
189 0.000952
164 0.0
112 0.0
117 0.000955
140 0.0
153 0.002993
160 0.000928
155 0.003009
148 0.0
144 0.002027
149 0.002021
156 0.002031
168 0.0
172 0.000997
177 0.002037
180 0.002029
134 0.004029
87 0.006027
79 0.00502
96 0.006027
111 0.006981
126 0.004008
130 0.004988
128 0.004961
126 0.003989
129 0.004035
137 0.003996
148 0.002978
154 0.00302
163 0.002992
165 0.004987
131 0.002996
69 0.005021
62 0.001978
76 0.004987
95 0.00503
105 0.005107
110 0.00502
108 0.004957
106 0.005022
112 0.001987
117 0.003991
128 0.001978
137 0.0
143 0.0
149 0.001004
143 0.0
107 0.0
43 0.00103
43 0.0
63 0.0
83 0.002058
91 0.000993
93 0.002995
89 0.00399
92 0.004956
102 0.004987
110 0.005981
114 0.005977
118 0.006982
125 0.006984
132 0.00598
140 0.006986
136 0.006022
65 0.005985
25 0.004005
34 0.006019
65 0.004993
82 0.006021
96 0.002961
95 0.003993
94 0.003999
97 0.003036
108 0.003005
116 0.002994
126 0.003976
128 0.00299
133 0.0
139 0.003989
137 0.001042
82 0.003023
25 0.002993
27 0.003045
50 0.002963
64 0.002961
81 0.000965
83 0.0
79 0.002026
82 0.000966
90 0.000998
101 0.0
114 0.000997
117 0.001033
124 0.0
135 0.00099
125 0.002008
52 0.003043
22 0.002994
33 0.002989
62 0.003033
86 0.004984
93 0.005979
92 0.00398
93 0.004996
100 0.001998
109 0.003049
120 0.002028
128 0.002029
137 0.002048
143 0.0
132 0.002026
68 0.0
18 0.000999
22 0.0
45 0.000999
59 0.000997
76 0.001025
83 0.001035
85 0.000998
99 0.001042
108 0.002033
123 0.003059
134 0.004023
140 0.005004
154 0.005984
132 0.005986
71 0.006981
44 0.007975
63 0.007979
76 0.007975
106 0.007986
114 0.005017
116 0.006966
116 0.004972
122 0.00699
138 0.00403
151 0.00399
157 0.003956
166 0.003976
173 0.002981
163 0.001984
84 0.001996
49 0.002028
52 0.001991
76 0.004037
97 0.00303
110 0.003993
116 0.001999
119 0.002989
127 0.003043
137 0.002027
153 0.00295
167 0.001002
174 0.000952
179 0.002025
187 0.00403
191 0.004036
170 0.003992
75 0.006
47 0.007981
55 0.003982
88 0.003989
103 0.003996
116 0.001979
118 0.0
118 0.000953
128 0.0
142 0.003046
154 0.000997
166 0.002001
178 0.0
181 0.000999
188 0.001004
192 0.000999
179 0.000963
119 0.00206
74 0.002029
77 0.004075
110 0.006001
128 0.005899
146 0.006017
146 0.005985
144 0.005985
148 0.006977
155 0.007035
166 0.006971
176 0.006985
181 0.006983
187 0.006021
191 0.006995
189 0.006979
126 0.006979
83 0.006983
77 0.004989
106 0.007994
121 0.005985
135 0.007964
136 0.005026
134 0.007977
138 0.007006
144 0.00497
156 0.006021
166 0.003988
171 0.006021
178 0.002963
183 0.005023
160 0.003025
75 0.0
57 0.0
77 0.0
108 0.0
122 0.0
130 0.000954
127 0.000996
126 0.001
132 0.00204
144 0.000997
148 0.000997
156 0.002028
160 0.002002
168 0.002027
165 0.004015
116 0.00399
58 0.004024
59 0.004986
77 0.005021
102 0.004991
114 0.004984
119 0.00498
119 0.004993
122 0.004946
130 0.004956
137 0.005042
148 0.005972
154 0.005964
160 0.004978
164 0.003018
160 0.006001
119 0.003993
57 0.00399
54 0.003034
80 0.0
93 0.000997
107 0.000997
110 0.0
110 0.001995
114 0.001996
119 0.001998
131 0.001995
143 0.0019
148 0.001996
157 0.002008
163 0.001996
157 0.003042
97 0.003987
62 0.004976
59 0.006973
84 0.006978
99 0.005998
113 0.00499
114 0.007032
113 0.004937
116 0.006983
124 0.005991
132 0.006033
143 0.003979
148 0.00399
156 0.00403
157 0.002997
136 0.004025
70 0.002003
57 0.004023
75 0.002977
98 0.002988
108 0.00301
110 0.001999
103 0.001008
102 0.0
107 0.0
112 0.0
120 0.0
126 0.002015
125 0.003006
119 0.003988
79 0.003986
51 0.004984
64 0.005852
88 0.006017
105 0.005968
120 0.006982
119 0.007013
112 0.006977
112 0.007028
121 0.004982
128 0.007017
138 0.005988
144 0.006019
151 0.003994
146 0.002001
113 0.001973
28 0.002047
26 0.001988
43 0.00199
70 0.001995
81 0.002028
86 0.0
87 0.002025
90 0.001007
98 0.002021
111 0.002019
117 0.002967
128 0.000965
136 0.002005
141 0.001962
125 0.002962
33 0.002992
5 0.002955
21 0.002991
38 0.003998
62 0.006017
75 0.005984
76 0.006
79 0.005983
93 0.006
100 0.005951
115 0.005958
127 0.003989
133 0.003992
143 0.003978
150 0.004039
139 0.001999
73 0.003994
17 0.002085
23 0.003023
54 0.002029
69 0.0
82 0.000998
86 0.000997
87 0.00096
93 0.001996
106 0.002049
115 0.002027
126 0.002022
130 0.002041
138 0.003994
144 0.003966
148 0.003989
116 0.005986
39 0.004988
15 0.004993
38 0.004992
70 0.003997
84 0.001976
92 0.001964
92 0.002992
95 0.001995
105 0.003001
120 0.002992
129 0.003028
141 0.001992
150 0.000964
154 0.0
156 0.000997
154 0.0
89 0.001005
15 0.0
6 0.001017
36 0.001996
68 0.001997
82 0.002028
91 0.001993
89 0.001996
92 0.001954
103 0.001966
112 0.002005
128 0.002029
137 0.001995
146 0.003001
153 0.00499
161 0.005992
151 0.005974
78 0.005983
39 0.005966
45 0.00602
69 0.006009
84 0.007981
99 0.002992
100 0.00296
97 0.001981
103 0.002002
115 0.001998
124 0.001993
137 0.002996
146 0.002008
156 0.001938
163 0.003027
169 0.00199
160 0.002026
107 0.0
54 0.001002
63 0.0
82 0.0
106 0.000997
115 0.002992
118 0.003034
117 0.002859
121 0.002993
128 0.002959
140 0.002988
147 0.002992
156 0.003953
165 0.00498
168 0.004988
175 0.004987
158 0.004981
119 0.005982
66 0.005954
71 0.005983
95 0.005966
114 0.006977
118 0.006953
115 0.006985
111 0.006985
113 0.005985
123 0.006987
131 0.005995
142 0.008004
150 0.007977
154 0.007984
161 0.007033
137 0.003982
93 0.006014
49 0.001991
69 0.001995
83 0.001993
103 0.0
110 0.0
108 0.000998
106 0.000959
109 0.000961
122 0.000998
135 0.002003
142 0.001967
150 0.001995
159 0.001983
165 0.001956
138 0.001995
86 0.001883
31 0.002994
46 0.003004
69 0.004001
88 0.00502
99 0.004978
99 0.006981
98 0.006973
105 0.005994
111 0.006976
124 0.005984
134 0.007958
141 0.002994
150 0.002006
156 0.001993
155 0.002002
90 0.002956
38 0.002001
30 0.001989
52 0.002963
75 0.002008
88 0.002993
91 0.0
91 0.002993
94 0.002027
100 0.001993
111 0.000998
124 0.001998
131 0.001959
142 0.002001
150 0.001994
154 0.001996
141 0.001995
103 0.001995
38 0.001961
49 0.001977
66 0.002798
89 0.004031
96 0.003991
96 0.004985
93 0.005981
98 0.007894
105 0.005984
114 0.007976
124 0.004994
132 0.006976
141 0.006016
147 0.004987
129 0.002999
64 0.002004
43 0.002992
58 0.0
82 0.0
94 0.0
101 0.0
94 0.0
91 0.0
99 0.0
105 0.000997
120 0.001978
131 0.003999
137 0.00402
147 0.00399
123 0.003997
77 0.003956
32 0.003955
43 0.003992
70 0.003958
86 0.003958
94 0.005982
92 0.007012
88 0.007975
90 0.005982
100 0.00499
112 0.001997
119 0.003021
130 0.000997
139 0.0
145 0.0
129 0.0
51 0.002994
20 0.003003
31 0.004985
58 0.005021
70 0.005018
79 0.004991
77 0.005019
79 0.004987
88 0.004989
98 0.006857
107 0.006975
116 0.007968
125 0.006
132 0.006981
140 0.006014
131 0.006014
56 0.006993
10 0.003983
19 0.006018
47 0.002001
67 0.001999
71 0.0
70 0.0
73 0.0
78 0.000962
91 0.000996
99 0.000992
111 0.001004
121 0.000968
127 0.001995
136 0.002993
116 0.002992
74 0.003958
18 0.003811
24 0.003987
54 0.003992
70 0.003982
77 0.003959
76 0.003942
73 0.003991
77 0.004039
90 0.003956
97 0.003984
109 0.005023
119 0.004991
125 0.004995
129 0.00697
70 0.00698
37 0.006978
16 0.006948
36 0.006881
57 0.003968
74 0.003988
73 0.004991
71 0.003983
75 0.005979
85 0.003982
99 0.006019
110 0.003999
120 0.006002
132 0.005986
137 0.005984
144 0.005984
124 0.005986
37 0.005985
9 0.002004
24 0.003026
53 0.00097
69 0.0
74 0.0
74 0.0
78 0.002005
87 0.001005
102 0.002992
113 0.0
125 0.000998
136 0.0
141 0.002031
150 0.0
149 0.0
84 0.002002
21 0.001965
27 0.003981
45 0.004015
68 0.003966
76 0.003955
78 0.005023
79 0.005026
83 0.006007
97 0.005984
115 0.004987
123 0.004987
135 0.004989
144 0.003968
148 0.003968
156 0.003991
159 0.003988
126 0.003989
54 0.005982
23 0.003994
41 0.005983
63 0.003988
79 0.004984
87 0.003997
85 0.00399
86 0.00399
96 0.0
106 0.002036
119 0.0
134 0.001005
145 0.000855
156 0.001
161 0.002007
165 0.002958
164 0.002955
96 0.004981
51 0.004987
48 0.004959
66 0.004996
91 0.005949
102 0.005978
103 0.006943
98 0.004938
101 0.006974
110 0.004977
121 0.007015
135 0.004968
143 0.003009
154 0.002991
160 0.0
165 0.0
149 0.0
79 0.0
58 0.0
59 0.001004
87 0.002992
101 0.003959
113 0.003998
109 0.004987
101 0.004976
107 0.004977
114 0.004979
127 0.006886
136 0.005984
143 0.00698
149 0.006008
155 0.006981
123 0.003989
63 0.00698
33 0.003987
48 0.006099
78 0.003993
92 0.00399
101 0.00399
95 0.002014
94 0.004071
103 0.002989
111 0.00399
126 0.001995
138 0.001994
144 0.0
150 0.001995
105 0.0
56 0.000999
30 0.000997
53 0.001005
70 0.001018
90 0.002982
95 0.003989
93 0.004955
91 0.00698
101 0.007008
111 0.005981
124 0.006019
137 0.006008
142 0.005984
152 0.005981
141 0.006152
60 0.005995
15 0.003018
31 0.005993
66 0.002989
80 0.005995
92 0.003031
90 0.002996
89 0.002987
98 0.003016
113 0.003989
126 0.002993
138 0.003013
149 0.00102
156 0.001996
167 0.003028
155 0.002991
60 0.0
5 0.0
19 0.0
49 0.0
77 0.001001
87 0.002025
89 0.002016
89 0.003958
95 0.002985
110 0.003962
120 0.004011
135 0.005982
148 0.005986
153 0.006973
162 0.004985
171 0.002993
174 0.001994
133 0.001999
50 0.00399
19 0.001996
41 0.002969
75 0.002
88 0.001993
99 0.001997
96 0.0
96 0.002
108 0.0
118 0.0
132 0.0
147 0.0
156 0.001
166 0.002997
175 0.00304
178 0.003024
131 0.002991
70 0.003024
33 0.002977
65 0.005001
86 0.004939
108 0.004989
112 0.005954
107 0.004956
107 0.005982
113 0.005998
126 0.00598
137 0.007978
150 0.005988
157 0.007978
170 0.00795
165 0.007978
118 0.00798
69 0.007977
49 0.006988
80 0.002945
99 0.004987
118 0.002991
115 0.002992
108 0.002993
110 0.002988
123 0.0
132 0.0
145 0.0
153 0.002994
162 0.0
155 0.0
119 0.0
43 0.00201
46 0.002001
65 0.001994
93 0.002027
106 0.001998
105 0.001969
101 0.002006
104 0.002993
115 0.004009
130 0.004988
137 0.004983
148 0.005021
158 0.006977
153 0.007976
83 0.005986
22 0.005982
30 0.004982
61 0.004989
75 0.004989
90 0.004988
90 0.004985
89 0.004979
98 0.004984
110 0.005979
122 0.002026
133 0.005158
145 0.003027
150 0.003029
128 0.002991
33 0.0
4 0.002025
25 0.0
45 0.0
65 0.003034
81 0.003992
82 0.005949
83 0.006981
94 0.006982
106 0.003943
116 0.003968
130 0.003967
136 0.003993
147 0.002962
156 0.004964
140 0.002998
64 0.001997
4 0.001995
16 0.002026
51 0.001995
75 0.0
83 0.0
84 0.0
86 0.003034
92 0.003993
109 0.003992
126 0.003805
135 0.003956
148 0.003984
153 0.003981
163 0.004989
148 0.005991
119 0.005986
20 0.006978
32 0.005983
55 0.006938
86 0.006128
97 0.005969
100 0.005939
99 0.006978
104 0.005985
118 0.007951
128 0.005988
139 0.007977
150 0.007981
158 0.007977
169 0.006981
147 0.003975
88 0.00698
21 0.003995
31 0.006985
71 0.00316
101 0.00399
111 0.003994
109 0.002992
109 0.001985
118 0.000996
137 0.001002
150 0.0
159 0.0
171 0.0
184 0.002001
186 0.000972
117 0.002027
50 0.002026
30 0.002011
63 0.000945
92 0.003037
113 0.001964
120 0.002011
120 0.001996
127 0.002025
138 0.001995
156 0.003032
173 0.003024
182 0.003001
192 0.002989
199 0.002962
208 0.003015
178 0.004958
111 0.004954
47 0.005044
72 0.005006
96 0.004985
123 0.004948
133 0.005019
134 0.004992
133 0.007978
140 0.005985
153 0.005978
168 0.005986
177 0.005993
191 0.005978
199 0.002025
206 0.003989
213 0.003026
195 0.004027
96 0.001993
55 0.00299
72 0.000946
110 0.001998
134 0.000988
139 0.0
134 0.0
135 0.0
140 0.0
154 0.002026
165 0.002995
178 0.001997
185 0.003992
191 0.003999
193 0.003991
144 0.004027
70 0.004028
57 0.004025
86 0.00402
115 0.004028
139 0.003944
141 0.003944
133 0.004959
135 0.005984
144 0.006985
156 0.005945
164 0.006995
171 0.004021
181 0.003978
188 0.003991
161 0.004002
80 0.005989
39 0.002992
59 0.006018
99 0.004971
117 0.003989
132 0.004021
132 0.003991
128 0.002011
138 0.0
147 0.002992
162 0.0
176 0.0
181 0.0
194 0.001944
195 0.0
124 0.0
50 0.001002
40 0.0
75 0.002045
108 0.00199
123 0.001996
128 0.001995
122 0.002992
125 0.005025
137 0.003993
146 0.003986
163 0.005975
173 0.007973
183 0.00701
190 0.006985
170 0.007011
117 0.006985
48 0.006985
70 0.003983
92 0.006982
120 0.002994
130 0.00498
127 0.002991
123 0.002028
129 0.002977
144 0.001988
157 0.002982
166 0.003006
177 0.002987
182 0.002953
166 0.0
101 0.003014
59 0.0
64 0.003007
100 0.001996
116 0.001104
130 0.00097
124 0.001997
115 0.002992
120 0.004988
133 0.005951
141 0.007957
152 0.007962
162 0.005001
163 0.007978
122 0.004024
47 0.001991
42 0.003006
76 0.002004
104 0.0
117 0.000961
120 0.0
110 0.0
112 0.0
125 0.0
134 0.0
147 0.0
160 0.0
166 0.0
130 0.0
70 0.000998
24 0.001032
48 0.001046
78 0.001035
101 0.000966
112 0.000998
108 0.002032
108 0.002036
115 0.002032
132 0.001
147 0.001996
157 0.001995
170 0.0
173 0.001997
114 0.001995
26 0.00399
25 0.004031
63 0.003981
95 0.003986
108 0.003958
112 0.004992
110 0.005991
116 0.005985
127 0.005984
142 0.005983
154 0.005958
166 0.00609
170 0.007979
182 0.006195
153 0.002008
88 0.004962
23 0.003025
52 0.0
77 0.0
106 0.0
115 0.003027
114 0.001995
112 0.0
120 0.001003
128 0.001996
144 0.00495
155 0.005018
165 0.004988
175 0.005021
182 0.005009
177 0.004984
90 0.006026
43 0.006037
49 0.005989
76 0.005984
109 0.005984
124 0.005976
122 0.005993
116 0.005989
121 0.005971
129 0.005984
146 0.004988
160 0.002986
166 0.002992
175 0.001989
181 0.002991
151 0.002032
80 0.005127
44 0.0
61 0.00303
96 0.003006
112 0.002037
120 0.002978
114 0.00303
108 0.003033
117 0.0
128 0.00304
145 0.0
153 0.003012
165 0.0
174 0.001023
159 0.0
77 0.0
41 0.0
52 0.0
88 0.001996
115 0.002019
122 0.002999
118 0.003965
115 0.006974
118 0.00697
134 0.005974
149 0.006943
157 0.004971
166 0.006981
175 0.002977
180 0.006027
121 0.004995
39 0.0
39 0.003032
72 0.0
92 0.003027
113 0.0
114 0.0
111 0.000998
111 0.001
125 0.000958
134 0.002031
149 0.003023
161 0.004001
167 0.003002
177 0.003992
138 0.006983
102 0.005961
38 0.004987
50 0.007013
77 0.003994
102 0.006001
114 0.00303
114 0.005984
109 0.006025
111 0.006022
124 0.006017
140 0.00301
149 0.004021
165 0.000963
173 0.004013
176 0.003006
110 0.000981
60 0.000965
54 0.0
86 0.0
103 0.000997
120 0.001955
116 0.001
109 0.000996
108 0.001995
115 0.002033
131 0.001994
143 0.003027
151 0.002994
162 0.003955
152 0.004001
96 0.003957
40 0.004047
42 0.003987
69 0.005982
100 0.005987
111 0.006003
109 0.005978
103 0.005966
106 0.005984
118 0.006023
136 0.004025
144 0.003989
155 0.003007
167 0.00301
170 0.002026
113 0.000996
37 0.001994
22 0.003029
50 0.003026
71 0.003022
97 0.0
104 0.002025
100 0.002028
99 0.001954
109 0.00204
119 0.001966
137 0.001997
146 0.001996
158 0.002046
166 0.001997
153 0.001996
75 0.001989
34 0.001997
42 0.002002
80 0.003004
100 0.002997
121 0.005001
118 0.004043
115 0.004958
122 0.006029
132 0.007955
142 0.004951
152 0.005018
162 0.005017
169 0.004945
177 0.005025
161 0.005023
78 0.00502
46 0.002019
75 0.0
94 0.0
119 0.0
120 0.001003
113 0.000998
108 0.0
112 0.000997
126 0.001995
141 0.004003
148 0.004024
157 0.003987
165 0.00399
146 0.00396
65 0.003959
34 0.003961
52 0.004982
81 0.005981
105 0.006013
117 0.00598
110 0.007019
107 0.006994
114 0.006983
124 0.006978
138 0.006986
147 0.005954
156 0.006982
164 0.00598
172 0.006983
146 0.005995
51 0.004983
23 0.003987
43 0.002988
77 0.00296
94 0.003023
105 0.002971
98 0.00402
96 0.001997
103 0.005024
116 0.00201
131 0.004121
146 0.005036
152 0.002992
165 0.00504
169 0.004069
122 0.004023
41 0.002991
34 0.004022
63 0.00299
93 0.001009
107 0.000958
111 0.0
105 0.000965
105 0.0
117 0.000967
126 0.000996
141 0.0
153 0.002037
159 0.002992
170 0.003957
162 0.003995
121 0.004987
52 0.005995
51 0.00699
76 0.006981
101 0.00698
115 0.005931
116 0.007014
104 0.006981
103 0.006981
108 0.00798
123 0.003989
133 0.006956
144 0.005006
152 0.006014
163 0.003996
127 0.003977
80 0.002986
40 0.003997
51 0.004028
83 0.002967
109 0.0
115 0.00303
107 0.0
101 0.003025
107 0.0
118 0.003057
131 0.0
141 0.0
151 0.0
162 0.0
142 0.0
64 0.002029
36 0.002046
48 0.00396
82 0.003959
98 0.00396
122 0.00399
115 0.003954
106 0.003946
106 0.004988
117 0.005997
128 0.005005
142 0.003994
153 0.006982
161 0.003991
168 0.00798
120 0.004933
41 0.006979
17 0.007016
34 0.007018
70 0.005986
85 0.006022
95 0.006983
89 0.003003
88 0.004021
95 0.001999
103 0.0
112 0.0
125 0.0
140 0.0
151 0.001996
134 0.002964
57 0.003962
31 0.00498
46 0.005985
80 0.006019
98 0.005976
106 0.005986
98 0.00701
93 0.004991
97 0.007939
105 0.004995
118 0.007027
133 0.007992
144 0.00797
152 0.006985
138 0.004024
92 0.00603
21 0.003986
22 0.005993
54 0.002945
83 0.00399
92 0.002988
84 0.001996
75 0.002978
78 0.003018
87 0.0
96 0.0
108 0.000789
117 0.003033
118 0.0
70 0.00202
0 0.003046
0 0.003023
33 0.001998
58 0.002003
75 0.002074
74 0.003962
67 0.003957
69 0.003955
82 0.004031
92 0.003992
107 0.003958
123 0.004863
120 0.007013
67 0.005986
0 0.004006
0 0.004996
19 0.004998
41 0.004995
67 0.00399
69 0.003988
67 0.003974
74 0.003985
82 0.006982
96 0.002992
105 0.003043
119 0.002025
120 0.001976
45 0.002027
53 0.001
54 0.000997
69 0.000962
84 0.001993
93 0.002009
94 0.001005
92 0.001997
96 0.000998
104 0.001995
109 0.003991
116 0.003989
120 0.003948
123 0.003996
79 0.003958
46 0.005973
42 0.00598
63 0.005982
73 0.006014
84 0.005984
85 0.006981
84 0.006981
87 0.006981
93 0.006982
103 0.006982
112 0.003984
117 0.007992
123 0.00399
126 0.006982
93 0.004016
38 0.003988
37 0.003006
56 0.0
73 0.0
81 0.000956
84 0.0
84 0.002025
88 0.000967
98 0.002003
107 0.000967
116 0.002998
126 0.002027
130 0.002996
136 0.002985
139 0.000988
120 0.0
68 0.0
49 0.001002
61 0.002993
81 0.002993
90 0.002992
99 0.003001
99 0.003026
101 0.003001
110 0.003957
118 0.002993
131 0.003997
141 0.003992
146 0.00399
153 0.003974
158 0.006011
161 0.004988
162 0.006975
130 0.006983
82 0.002943
76 0.006018
96 0.00398
106 0.004117
119 0.002992
122 0.0
122 0.003022
127 0.0
133 0.00299
145 0.0
154 0.0
159 0.0
164 0.001959
169 0.001995
172 0.001996
176 0.00202
153 0.003024
118 0.003826
96 0.004021
114 0.005984
125 0.00599
139 0.00599
142 0.006
140 0.006013
140 0.007975
144 0.004986
153 0.007972
160 0.007977
165 0.007974
171 0.00698
176 0.002986
178 0.003996
182 0.000993
166 0.000998
136 0.000967
106 0.0
112 0.0
133 0.0
147 0.0
150 0.0
145 0.0
142 0.000982
144 0.000997
153 0.001993
158 0.001963
168 0.001996
174 0.001993
177 0.001984
182 0.003986
184 0.004997
162 0.005988
117 0.006982
105 0.006973
112 0.007917
138 0.007976
147 0.003951
150 0.006986
147 0.002046
147 0.0
151 0.0
160 0.0
168 0.0
171 0.0
176 0.0
180 0.0
184 0.0
181 0.0
158 0.001014
104 0.000996
105 0.001001
118 0.001991
136 0.002999
144 0.002991
147 0.004023
145 0.003987
147 0.003969
152 0.00403
159 0.005003
163 0.005999
170 0.005985
173 0.006
178 0.005982
179 0.004961
161 0.006015
110 0.005979
83 0.006182
98 0.006014
130 0.004987
143 0.005
155 0.005016
150 0.007972
149 0.004012
154 0.00598
166 0.006019
172 0.005984
183 0.005968
188 0.005982
196 0.005983
193 0.002989
162 0.00399
98 0.005023
101 0.00299
119 0.0
142 0.0
156 0.0
154 0.000998
145 0.002983
147 0.002987
152 0.002994
162 0.004993
172 0.005019
178 0.004987
186 0.005984
161 0.007979
120 0.005994
80 0.006991
90 0.004992
115 0.00798
143 0.006981
148 0.006979
143 0.007982
138 0.007978
141 0.006981
152 0.003981
159 0.006979
170 0.004987
179 0.003988
183 0.003986
145 0.00399
97 0.003984
68 0.003962
94 0.001995
111 0.002992
131 0.000998
133 0.002007
131 0.0
129 0.001012
138 0.000997
146 0.000997
157 0.002018
163 0.000997
172 0.002026
174 0.002
140 0.001986
78 0.001998
61 0.001953
77 0.001009
106 0.001997
118 0.001985
125 0.001995
122 0.003997
123 0.00399
132 0.005983
142 0.005964
149 0.005941
159 0.003956
168 0.003026
172 0.002955
138 0.0
75 0.002996
63 0.0
80 0.00085
108 0.001973
121 0.001994
126 0.004005
120 0.004031
121 0.004023
126 0.002988
139 0.004017
146 0.004009
155 0.00402
160 0.002985
161 0.004023
105 0.004015
69 0.003984
71 0.003985
99 0.004957
114 0.006016
125 0.005029
123 0.004984
119 0.005008
123 0.004989
129 0.005021
142 0.003975
150 0.005984
158 0.002024
164 0.003028
141 0.002991
102 0.0
65 0.0
82 0.002003
100 0.002027
123 0.001996
129 0.002981
126 0.004022
122 0.005985
128 0.004991
136 0.005976
148 0.002989
157 0.002997
162 0.002993
170 0.002972
145 0.005997
84 0.003132
57 0.004998
78 0.003037
94 0.00303
113 0.002989
119 0.000997
116 0.0
114 0.0
119 0.0
127 0.0
138 0.0
144 0.0
154 0.0
163 0.002028
156 0.002005
94 0.001988
60 0.001999
66 0.002996
94 0.003954
107 0.00395
118 0.002959
114 0.004992
112 0.005989
118 0.005957
125 0.004941
135 0.004984
146 0.007937
152 0.00398
158 0.005984
161 0.00399
109 0.000986
73 0.003023
70 0.000976
86 0.003035
110 0.0
122 0.001
123 0.000962
115 0.003003
115 0.003025
120 0.003009
132 0.002971
