146 0.011676
151 0.003701
157 0.005207
161 0.005016
168 0.005143
174 0.005252
139 0.003991
87 0.00394
66 0.004721
70 0.006123
84 0.005025
105 0.004983
116 0.003687
129 0.003986
141 0.005485
145 0.00594
138 0.005041
133 0.005221
137 0.004607
143 0.005447
147 0.005234
155 0.005839
161 0.005944
169 0.004933
173 0.005843
131 0.005786
82 0.005945
63 0.006284
70 0.00546
89 0.006765
102 0.005984
111 0.006017
124 0.005154
138 0.005971
138 0.005983
132 0.006273
130 0.005779
133 0.005006
139 0.007192
146 0.005568
152 0.00634
161 0.00671
166 0.00598
172 0.006015
174 0.005982
114 0.004982
71 0.005939
58 0.006983
65 0.006294
85 0.004653
98 0.00512
108 0.00621
119 0.006786
136 0.007689
136 0.00708
130 0.005626
129 0.006899
133 0.005846
139 0.007442
146 0.007124
153 0.007132
159 0.006943
164 0.005988
168 0.007501
173 0.006765
126 0.007178
77 0.006538
61 0.006044
72 0.006934
88 0.005366
103 0.007188
114 0.007018
130 0.00701
140 0.007267
140 0.005983
133 0.007348
127 0.007619
131 0.007186
140 0.007916
146 0.007009
152 0.006694
158 0.005804
164 0.006983
163 0.008112
101 0.006175
68 0.005981
62 0.007736
80 0.0076
90 0.007979
116 0.006977
129 0.007974
139 0.006077
141 0.007688
135 0.007009
129 0.006981
131 0.007971
137 0.006976
143 0.007044
149 0.007449
155 0.008156
158 0.007948
156 0.007655
105 0.007164
66 0.007167
58 0.007514
69 0.007045
83 0.008166
95 0.006937
108 0.007393
120 0.007153
127 0.006539
132 0.007979
128 0.007611
126 0.00698
128 0.007865
136 0.00742
143 0.007185
151 0.007143
155 0.007231
163 0.007409
167 0.007935
137 0.007213
84 0.007176
61 0.007213
61 0.007124
84 0.006118
97 0.006983
107 0.006993
123 0.006848
135 0.006816
139 0.005988
135 0.00783
131 0.007644
134 0.007113
137 0.007119
146 0.006628
158 0.007779
164 0.0061
170 0.007151
175 0.006502
181 0.006551
184 0.007379
186 0.006985
190 0.0068
186 0.007328
109 0.00697
72 0.006561
66 0.005924
89 0.005481
107 0.005978
120 0.006313
132 0.007086
147 0.006088
148 0.006167
141 0.005998
132 0.006042
130 0.005982
136 0.006183
142 0.00562
149 0.005997
159 0.00599
164 0.006151
170 0.005956
175 0.005346
140 0.005946
90 0.006729
70 0.006494
72 0.006517
86 0.006739
105 0.005806
117 0.00577
129 0.006263
146 0.004987
144 0.003958
137 0.005521
132 0.005946
135 0.00607
140 0.005973
147 0.005614
153 0.005079
159 0.005848
166 0.005619
171 0.004928
175 0.005546
169 0.003988
112 0.004982
72 0.006192
61 0.005987
68 0.004948
88 0.005422
100 0.005986
110 0.004956
119 0.005438
130 0.005558
137 0.006177
133 0.005227
127 0.004584
130 0.005178
136 0.00495
143 0.005086
149 0.004412
157 0.005856
163 0.004989
168 0.005813
172 0.004855
175 0.003988
178 0.004989
180 0.004988
112 0.003026
70 0.00399
58 0.005663
64 0.003949
80 0.004948
99 0.003978
109 0.004729
119 0.004986
130 0.005347
135 0.004988
128 0.005035
121 0.00537
124 0.004996
130 0.004987
138 0.004988
145 0.004006
150 0.005112
157 0.005327
163 0.004485
167 0.004025
138 0.004091
87 0.004969
61 0.003922
67 0.003988
93 0.003988
106 0.003025
116 0.004119
128 0.003989
136 0.00384
133 0.004956
125 0.004154
121 0.00322
124 0.004712
131 0.003994
140 0.003994
146 0.004868
155 0.003022
161 0.00401
164 0.004495
128 0.003551
79 0.003893
58 0.003643
64 0.003999
79 0.003681
94 0.004023
104 0.00399
114 0.003845
131 0.004141
133 0.002969
126 0.002999
124 0.00298
126 0.002992
132 0.003984
139 0.003999
148 0.002995
155 0.003033
160 0.002993
164 0.003001
168 0.002988
174 0.00197
148 0.002999
76 0.003989
56 0.002994
58 0.003026
72 0.003363
86 0.001954
100 0.003719
108 0.004157
120 0.002038
129 0.002619
130 0.001994
122 0.001994
123 0.002883
129 0.002448
136 0.002988
144 0.002503
150 0.002252
156 0.002504
163 0.003037
167 0.00299
170 0.003007
173 0.002342
175 0.001997
163 0.001288
104 0.002116
60 0.001706
59 0.001996
73 0.001983
89 0.001997
103 0.002033
115 0.001996
127 0.002993
135 0.003033
134 0.002962
126 0.002033
120 0.002592
125 0.001666
134 0.001125
141 0.00247
147 0.001993
152 0.002653
157 0.001214
164 0.00276
151 0.001993
99 0.001
66 0.001224
61 0.000839
82 0.001413
96 0.001143
111 0.002043
122 0.00203
133 0.001002
135 0.000931
130 0.000997
124 0.001
125 0.001704
129 0.000871
135 0.001004
142 0.000805
151 0.001805
156 0.000964
161 0.000994
167 0.000952
150 0.000997
96 0.001038
62 0.000997
56 0.000998
70 0.00086
84 0.000997
95 0.0
104 0.0
122 0.0
129 0.000995
129 0.00096
123 0.000725
123 0.000962
127 0.0
134 0.001034
141 0.00099
151 0.0
156 0.0
161 0.0
165 0.000997
173 0.0
151 0.0
94 0.000908
60 0.0
61 0.0
75 0.001053
90 0.000999
101 0.0
113 0.0
124 0.0
132 0.0
129 0.0
125 0.001
125 0.0
130 0.0
139 0.00099
146 0.001035
152 0.0
157 0.0
161 0.000129
168 0.0
166 0.000956
119 0.0
64 0.0
69 0.000942
84 0.000997
95 0.000997
110 0.001053
119 0.001
131 0.0
137 0.0
134 0.0
126 0.0
125 0.0
132 0.0
141 0.0
147 0.001
154 0.001025
159 0.000993
165 0.0
151 0.001002
100 0.000997
63 0.0
65 0.0
77 0.0
92 0.001
102 0.001042
119 0.0
130 0.0
134 0.0
130 0.00099
126 0.0
127 0.001002
132 0.001052
139 0.0
147 0.0
153 0.0
158 0.001004
163 0.001036
169 0.000999
131 0.001
71 0.0
59 0.0
66 0.0
80 0.000997
93 0.0011
105 0.000996
115 0.0
127 0.001001
133 0.001235
132 0.001006
127 0.000953
129 0.001137
138 0.000998
145 0.0
151 0.000992
156 0.001461
162 0.001795
169 0.001002
140 0.001
91 0.000997
69 0.001156
71 0.001288
93 0.002996
105 0.002913
116 0.000996
127 0.001026
137 0.000999
137 0.001055
131 0.001251
126 0.001001
129 0.001035
135 0.000868
141 0.001317
148 0.001986
159 0.001998
144 0.001961
89 0.000997
73 0.000997
77 0.000985
90 0.002273
103 0.001995
116 0.001043
127 0.002013
137 0.001929
141 0.001957
136 0.001957
131 0.000991
134 0.00281
139 0.002669
147 0.001972
153 0.000998
159 0.000996
162 0.001994
131 0.002989
80 0.000999
70 0.000993
73 0.001995
89 0.002995
106 0.002027
114 0.003041
125 0.003997
135 0.001997
133 0.001996
129 0.001994
128 0.001993
131 0.002816
139 0.002732
145 0.002004
151 0.002018
159 0.001951
164 0.003046
166 0.004366
131 0.003077
77 0.001986
68 0.002406
75 0.002958
89 0.003158
101 0.003908
112 0.001673
121 0.001993
131 0.001994
132 0.002987
127 0.00287
125 0.003508
129 0.002969
134 0.002668
143 0.003413
149 0.002663
155 0.00371
161 0.003831
138 0.002798
94 0.003502
74 0.003544
83 0.001939
99 0.002903
111 0.004028
120 0.004031
134 0.001995
140 0.003666
137 0.001953
130 0.003
128 0.003022
132 0.003495
138 0.003398
144 0.003536
160 0.003808
168 0.003708
173 0.004947
135 0.004122
68 0.003149
55 0.002255
64 0.003887
83 0.003807
99 0.003641
115 0.001997
128 0.002916
140 0.004158
139 0.003492
131 0.004326
130 0.002634
135 0.004975
143 0.003926
151 0.003817
162 0.004129
169 0.002802
175 0.004561
180 0.003547
187 0.003633
191 0.003684
196 0.004044
198 0.004009
200 0.003979
203 0.004994
204 0.004993
207 0.00392
209 0.001993
179 0.00369
94 0.003864
51 0.005204
46 0.004005
63 0.0038
97 0.00398
110 0.004083
120 0.004212
132 0.005609
139 0.004692
133 0.004185
127 0.005043
125 0.004301
131 0.004988
139 0.004992
151 0.004722
160 0.005047
172 0.003959
179 0.004043
184 0.00299
189 0.005011
192 0.005653
195 0.004809
199 0.004978
200 0.0045
201 0.005873
204 0.006055
188 0.004009
111 0.004721
52 0.004981
51 0.005013
71 0.005702
92 0.005903
110 0.006731
128 0.003023
141 0.004847
149 0.003895
146 0.005557
134 0.006005
124 0.003982
130 0.006141
145 0.005337
155 0.005057
163 0.005387
170 0.006594
175 0.006282
181 0.005021
185 0.006229
190 0.003981
149 0.006024
81 0.006903
48 0.0041
61 0.006509
83 0.007411
109 0.005701
125 0.005229
141 0.005298
153 0.006769
151 0.007054
134 0.006008
127 0.004987
128 0.00502
135 0.006981
143 0.007019
155 0.006838
161 0.00692
171 0.005119
177 0.005884
149 0.005962
82 0.007605
45 0.007404
43 0.006095
60 0.004486
79 0.005282
95 0.007458
106 0.006806
128 0.007414
134 0.007399
126 0.005907
120 0.005986
121 0.005949
127 0.00737
136 0.008034
147 0.006838
154 0.004983
160 0.005542
166 0.007616
173 0.007975
134 0.007634
69 0.007413
37 0.006271
42 0.006378
59 0.005829
77 0.007859
89 0.006977
103 0.006032
116 0.006346
124 0.006223
123 0.00798
118 0.007984
117 0.008015
123 0.00797
135 0.00733
147 0.007539
152 0.006407
160 0.007004
166 0.0082
172 0.00693
167 0.00611
107 0.007353
46 0.007012
39 0.006976
66 0.00705
84 0.007018
95 0.007319
105 0.005938
119 0.006167
128 0.007895
123 0.007639
115 0.006013
114 0.006975
119 0.006749
128 0.006604
141 0.007596
152 0.006727
158 0.006969
165 0.005984
172 0.006978
155 0.007099
73 0.006807
46 0.007322
46 0.007945
73 0.007277
85 0.006943
98 0.006945
113 0.007904
132 0.006569
129 0.006001
121 0.006115
117 0.006995
122 0.006958
130 0.006736
139 0.006849
147 0.007014
155 0.006947
162 0.007393
169 0.00695
165 0.006909
70 0.006521
43 0.006116
44 0.00595
65 0.005929
79 0.005941
88 0.00643
97 0.006077
111 0.005477
121 0.00617
119 0.006132
114 0.005986
118 0.006939
125 0.007059
134 0.005821
142 0.006929
153 0.007057
159 0.006266
164 0.007094
167 0.006003
171 0.006967
176 0.006347
157 0.006148
90 0.006091
40 0.007031
46 0.005374
62 0.005946
76 0.004991
89 0.006153
98 0.005985
111 0.007017
120 0.006015
120 0.005811
114 0.005996
115 0.004976
121 0.005993
135 0.005376
144 0.00494
152 0.004988
159 0.005662
166 0.006232
172 0.005325
175 0.006079
177 0.005939
179 0.004749
183 0.005361
178 0.005304
117 0.005671
49 0.00493
51 0.00499
68 0.004958
87 0.005986
100 0.00609
112 0.004951
125 0.004841
134 0.005672
131 0.005237
122 0.005145
118 0.005777
124 0.004931
140 0.006015
149 0.005958
156 0.005927
163 0.005377
168 0.004882
173 0.00426
177 0.004996
182 0.004119
179 0.004737
125 0.003988
59 0.00575
51 0.005557
77 0.004029
95 0.003988
107 0.004984
118 0.003952
133 0.004986
140 0.005006
133 0.004892
124 0.004554
124 0.004665
129 0.004805
141 0.004624
150 0.005049
163 0.004995
169 0.004986
173 0.005312
179 0.004435
184 0.003039
160 0.003991
92 0.002963
53 0.003954
46 0.003995
59 0.003993
83 0.004021
96 0.003525
112 0.003931
126 0.003803
134 0.002989
133 0.00315
128 0.002995
127 0.003736
133 0.004073
141 0.003995
150 0.003866
159 0.005041
169 0.00466
176 0.003888
184 0.002956
187 0.003945
192 0.002951
192 0.003948
142 0.004165
62 0.003818
45 0.003493
52 0.003679
70 0.003524
87 0.002856
99 0.003168
116 0.002995
129 0.004369
133 0.004032
128 0.003612
124 0.00316
125 0.00299
131 0.002993
143 0.002962
152 0.003916
161 0.002995
168 0.002994
174 0.002855
181 0.00282
185 0.003026
183 0.002962
122 0.002105
65 0.002952
47 0.003676
54 0.00227
78 0.002899
95 0.002028
106 0.002814
116 0.002848
129 0.002993
132 0.003001
122 0.00299
115 0.00196
117 0.002036
125 0.001996
133 0.000996
140 0.001993
147 0.002899
153 0.002996
159 0.001982
159 0.00284
112 0.001805
43 0.001993
40 0.000996
60 0.002145
77 0.002077
89 0.001999
100 0.001947
114 0.001995
123 0.002992
120 0.001998
114 0.002043
112 0.002037
117 0.001995
131 0.00166
139 0.001995
149 0.002991
155 0.002992
162 0.002992
168 0.001998
168 0.001735
97 0.002266
53 0.002043
40 0.001998
48 0.001721
65 0.001085
87 0.0
96 0.000965
112 0.001992
122 0.000996
123 0.001034
119 0.000993
117 0.001028
120 0.001362
130 0.000996
140 0.001993
150 0.001602
159 0.000725
170 0.000996
177 0.001057
181 0.000913
186 0.000954
190 0.000953
171 0.001135
102 0.000981
58 0.0
49 0.00101
63 0.001997
81 0.002132
95 0.001
111 0.000962
123 0.0
131 0.000862
129 0.000987
122 0.0
122 0.001007
127 0.000991
136 0.0
148 0.0
156 0.0
164 0.0
170 0.0
177 0.0
182 0.0
187 0.0
151 0.001031
86 0.001013
56 0.0
56 0.0
73 0.0
98 0.001002
112 0.0
122 0.000999
136 0.000966
142 0.000999
133 0.001001
125 0.0
126 0.001
133 0.0
142 0.0
151 0.0
158 0.00096
166 0.0
172 0.0
179 0.0
128 0.0
62 0.0
52 0.0
62 0.0
80 0.000966
96 0.0
107 0.001001
122 0.000964
131 0.001004
137 0.0
131 0.001005
125 0.0
128 0.002037
136 0.0
145 0.0
153 0.0
163 0.0
170 0.001986
174 0.00304
180 0.0
183 0.000996
177 0.0
113 0.001001
61 0.000998
47 0.002038
61 0.001048
83 0.0
95 0.0
103 0.0
115 0.000997
125 0.001034
129 0.000962
124 0.0
122 0.0
125 0.001034
133 0.001006
148 0.002001
157 0.002004
167 0.0
173 0.0
178 0.0
182 0.001001
185 0.002209
187 0.0
163 0.001001
78 0.0
52 0.000994
52 0.001221
81 0.001
96 0.00092
109 0.0
120 0.0
133 0.0
137 0.001997
132 0.002033
124 0.0
126 0.0
133 0.0
142 0.001693
152 0.001996
165 0.002989
171 0.001002
177 0.0
182 0.000999
187 0.001034
170 0.001597
104 0.001997
55 0.0
55 0.000997
71 0.000995
91 0.001998
106 0.001359
125 0.002858
138 0.003005
142 0.000998
134 0.0
126 0.001983
125 0.001297
131 0.002448
142 0.0
150 0.0
157 3e-05
163 0.002198
168 0.002301
179 0.001996
148 0.001999
87 0.0023
52 0.001999
57 0.001979
75 0.001958
92 0.003299
105 0.002996
120 0.002
134 0.000962
140 0.000882
136 0.002994
127 0.001294
129 0.002813
136 0.002849
148 0.001248
156 0.001163
164 0.000993
171 0.003075
176 0.002105
184 0.000942
189 0.00234
191 0.001347
101 0.002989
58 0.001957
49 0.003299
59 0.002994
83 0.003031
97 0.001923
106 0.00124
116 0.003989
129 0.003329
137 0.001996
133 0.002018
128 0.001992
132 0.001826
140 0.00228
149 0.003401
158 0.003745
168 0.001958
175 0.001996
180 0.001987
186 0.003625
189 0.003474
192 0.001995
196 0.001186
194 0.001992
94 0.002431
54 0.001891
47 0.00376
60 0.003799
84 0.002338
99 0.00135
108 0.00199
119 0.004334
130 0.003465
134 0.002979
128 0.002991
124 0.003561
128 0.002948
136 0.001983
145 0.002991
154 0.003988
164 0.002992
171 0.00267
177 0.001993
182 0.003816
186 0.00524
192 0.002964
161 0.002549
93 0.00299
54 0.002571
64 0.002346
82 0.001988
100 0.003546
114 0.004269
131 0.00399
144 0.003946
147 0.002994
138 0.004807
128 0.005987
127 0.001998
133 0.003653
147 0.004073
155 0.002429
161 0.002866
168 0.005187
175 0.004861
161 0.002621
100 0.003966
59 0.003766
51 0.004896
62 0.003987
86 0.004089
100 0.003772
122 0.002981
136 0.003889
140 0.002967
135 0.00517
128 0.005369
128 0.003591
134 0.002959
142 0.004271
150 0.005006
157 0.004457
166 0.002955
173 0.002995
173 0.004197
114 0.003991
63 0.004247
46 0.005656
51 0.0054
72 0.003014
86 0.002994
96 0.003623
106 0.005206
120 0.005726
130 0.003849
127 0.004081
122 0.003968
126 0.004654
133 0.003024
141 0.006067
150 0.00588
160 0.003027
166 0.003981
171 0.005322
176 0.005
182 0.005213
141 0.003807
79 0.004441
48 0.003823
57 0.003984
73 0.003912
86 0.006796
95 0.00626
109 0.003945
122 0.003991
128 0.003862
126 0.006715
122 0.006137
123 0.004987
132 0.005431
141 0.006474
152 0.005387
160 0.004418
166 0.004762
171 0.005986
176 0.006986
183 0.005066
177 0.004947
119 0.004829
67 0.006718
51 0.00617
69 0.007215
85 0.007313
101 0.003989
111 0.004985
124 0.004811
133 0.007309
132 0.007008
123 0.006416
121 0.004615
125 0.004823
133 0.006443
142 0.007031
154 0.006781
160 0.007024
167 0.005949
174 0.005752
162 0.004952
104 0.006985
62 0.007317
55 0.00599
69 0.005989
86 0.004987
100 0.007316
111 0.006968
134 0.007104
136 0.007921
129 0.00558
123 0.006697
124 0.004781
132 0.0075
141 0.007137
152 0.005963
157 0.004987
163 0.005867
170 0.007019
175 0.007939
82 0.008119
60 0.008011
56 0.004518
70 0.005554
86 0.006294
101 0.007886
112 0.007367
125 0.005856
133 0.00534
133 0.00594
128 0.007542
126 0.00799
134 0.007349
145 0.007111
153 0.006649
160 0.006981
167 0.006644
174 0.008007
178 0.006942
183 0.006923
186 0.00595
155 0.005882
72 0.007202
49 0.007769
60 0.007119
70 0.007696
87 0.007452
96 0.00664
105 0.005481
117 0.006379
126 0.006399
124 0.007889
120 0.006981
120 0.006894
126 0.006655
134 0.007938
150 0.006985
162 0.00777
169 0.006981
175 0.006935
180 0.004931
184 0.006538
186 0.006949
189 0.005985
190 0.007389
149 0.006634
83 0.006057
52 0.006986
54 0.00703
75 0.007151
90 0.006097
101 0.005995
114 0.006623
123 0.006779
133 0.006497
130 0.005978
123 0.005995
124 0.005957
130 0.007298
145 0.006014
154 0.007004
162 0.006896
168 0.006725
175 0.006496
179 0.006661
184 0.006981
187 0.006389
159 0.006132
78 0.006258
55 0.006122
55 0.006903
86 0.005979
102 0.006032
113 0.004984
126 0.005021
141 0.006238
140 0.00639
131 0.006898
124 0.00633
124 0.005122
132 0.005222
141 0.005984
149 0.005975
158 0.006795
166 0.005873
174 0.005484
169 0.005983
94 0.00597
58 0.00498
53 0.005984
65 0.005954
83 0.004941
102 0.006021
113 0.00599
128 0.005981
138 0.005952
133 0.005229
125 0.005944
124 0.005988
129 0.005379
139 0.005058
147 0.006162
154 0.00517
161 0.00437
167 0.004976
176 0.004856
165 0.004985
70 0.005983
48 0.004994
50 0.004151
64 0.005104
80 0.005108
95 0.005241
105 0.005169
118 0.004987
128 0.006179
129 0.005318
123 0.004972
123 0.005211
132 0.004931
140 0.004985
148 0.00402
156 0.004733
162 0.004626
169 0.004953
174 0.004935
180 0.003981
181 0.004026
135 0.005144
64 0.004912
49 0.005251
66 0.004938
81 0.003603
93 0.00396
102 0.004274
113 0.004378
129 0.004388
132 0.004204
129 0.003921
125 0.00385
126 0.005446
135 0.003629
144 0.00395
158 0.003937
165 0.004027
171 0.004942
176 0.005019
181 0.004615
187 0.003988
163 0.004054
97 0.003891
58 0.004043
53 0.004148
71 0.003934
88 0.003977
107 0.003948
117 0.003059
131 0.003804
137 0.003956
133 0.002963
124 0.003995
123 0.002962
129 0.004943
138 0.004881
147 0.003986
156 0.002993
162 0.003989
173 0.004013
178 0.002997
141 0.004322
83 0.003
57 0.003132
58 0.003322
80 0.002334
97 0.003433
108 0.003041
120 0.002996
134 0.002993
139 0.003989
133 0.004615
128 0.003978
132 0.002966
140 0.00361
149 0.002883
156 0.002971
165 0.003994
172 0.003978
180 0.002924
171 0.002342
112 0.002264
55 0.002928
58 0.002996
79 0.002961
93 0.002172
104 0.002033
114 0.002992
127 0.003041
138 0.002961
136 0.002774
131 0.002047
131 0.002307
136 0.001997
149 0.001994
157 0.003114
167 0.001987
173 0.002054
179 0.003168
184 0.002828
189 0.002995
149 0.001994
84 0.001966
53 0.00265
52 0.002991
66 0.002994
91 0.001999
101 0.001995
115 0.00299
129 0.00197
136 0.002651
135 0.001954
130 0.002717
130 0.002953
136 0.002105
144 0.00204
153 0.001719
162 0.002353
174 0.002289
179 0.001954
185 0.002992
190 0.002145
193 0.00204
157 0.002124
89 0.001958
52 0.001993
57 0.002028
74 0.00195
92 0.000996
104 0.000975
123 0.001958
136 0.000948
140 0.002043
133 0.001627
128 0.002484
129 0.001998
135 0.002029
143 0.002179
154 0.001064
161 0.000926
167 0.000863
172 0.000952
182 0.001
174 0.000951
113 0.0
59 0.000958
55 0.000927
70 0.001191
89 0.001741
104 0.001113
121 0.00092
137 0.0
145 0.000998
143 0.001996
131 0.00153
131 0.000964
136 0.000956
147 0.000967
156 0.0
163 0.001003
169 0.0
176 0.0
185 0.0
164 0.0
99 0.0
59 0.0
58 0.000847
75 0.0
91 0.000985
107 0.000948
119 0.0
133 0.0
139 0.0
137 0.0
130 0.0
132 0.003027
137 0.0
150 0.0
158 0.0
166 0.0
172 0.0
179 0.0
184 0.001
188 0.0
169 0.0
100 0.00096
51 0.0
49 0.0
63 0.0
89 0.001002
100 0.0
111 0.000969
125 0.0
135 0.0
132 0.001033
126 0.000989
127 0.001033
132 0.000908
142 0.002028
151 0.001036
160 0.001001
171 0.0
177 0.0
182 0.00106
186 0.0
189 0.000996
185 0.001992
124 0.002048
67 0.000998
48 0.001021
60 0.0
78 0.001997
94 0.001998
113 0.002035
127 0.002034
138 0.0
135 0.000951
128 0.0
124 0.000998
129 0.000954
139 0.0
148 0.0
156 0.0
163 0.000995
169 0.002006
176 0.001038
181 0.00204
172 0.0
109 0.001006
63 0.0
52 0.001998
63 0.002033
87 0.0
103 0.000967
110 0.000997
129 0.000984
140 0.001999
136 0.001989
128 0.001211
125 0.000171
132 0.0
140 0.0
149 0.002031
157 0.001003
166 0.001005
172 0.0
178 0.000963
184 0.002031
159 0.001997
63 0.001522
48 0.002363
60 0.0
77 0.0
91 0.0
102 0.001929
114 0.002568
130 0.0
134 0.000996
129 0.00096
124 0.00231
125 0.001998
136 0.002038
144 0.002289
155 0.0
162 0.0
168 0.0
173 0.002337
177 0.002026
183 0.000988
185 0.000954
146 0.0
80 0.001876
48 0.001968
55 0.000996
72 0.002001
87 0.002579
100 0.0
111 0.0
124 0.0
130 0.002955
128 0.002288
123 0.000997
124 0.001035
131 0.001997
139 0.002749
153 0.000998
161 0.001952
168 0.002596
175 0.001001
180 0.002033
183 0.001992
187 0.002251
187 0.002589
114 0.002117
63 0.000997
49 0.002032
69 0.001838
86 0.001
100 0.003162
111 0.004028
128 0.00104
137 0.001995
135 0.001156
127 0.003186
121 0.003572
126 0.001998
133 0.000974
142 0.00096
155 0.002681
162 0.001945
166 0.002995
171 0.003287
177 0.002023
180 0.002007
136 0.001993
77 0.003026
51 0.003844
57 0.001995
75 0.002001
92 0.001993
113 0.001831
127 0.000998
138 0.003859
138 0.002827
129 0.001963
126 0.001973
129 0.001986
136 0.003039
144 0.002962
156 0.001998
163 0.001994
170 0.001995
179 0.001944
183 0.00296
187 0.004247
190 0.003992
134 0.002986
73 0.002993
47 0.001997
49 0.004281
64 0.00431
81 0.004254
98 0.001996
108 0.001483
128 0.002929
133 0.002946
129 0.001951
124 0.003502
124 0.004395
132 0.00399
140 0.002945
149 0.001968
158 0.004275
165 0.004993
174 0.002993
180 0.002023
186 0.002959
189 0.002619
193 0.003028
189 0.005553
129 0.005495
59 0.002811
46 0.00275
55 0.00293
71 0.005057
87 0.004972
103 0.003935
114 0.002978
132 0.003955
131 0.001958
125 0.001956
122 0.005184
124 0.005174
134 0.001993
143 0.003989
152 0.002955
160 0.005114
168 0.005521
176 0.003004
181 0.002906
188 0.003235
193 0.002932
188 0.003131
124 0.004986
71 0.005532
54 0.002331
66 0.004146
85 0.0036
102 0.005342
116 0.004989
134 0.003002
145 0.003477
140 0.003581
131 0.001961
128 0.002985
131 0.005906
139 0.006614
150 0.003051
159 0.003989
166 0.004595
172 0.005962
178 0.006289
186 0.003371
177 0.006026
91 0.003989
56 0.002995
51 0.002951
63 0.00618
80 0.006015
100 0.003989
112 0.003846
126 0.004427
137 0.002992
139 0.006941
134 0.005973
128 0.005482
132 0.00551
142 0.003137
150 0.004209
159 0.004093
166 0.006387
172 0.006455
179 0.003988
184 0.003947
188 0.00399
183 0.006961
121 0.007651
48 0.006617
45 0.006486
65 0.004166
81 0.005023
93 0.005373
104 0.006074
116 0.005894
130 0.004034
130 0.004309
125 0.003955
122 0.006975
125 0.007243
138 0.006948
147 0.00697
158 0.003943
165 0.00393
171 0.003961
176 0.006943
182 0.007208
188 0.004987
160 0.00595
90 0.005235
54 0.007675
49 0.006613
73 0.007723
89 0.007038
104 0.00528
116 0.005007
129 0.004949
134 0.007463
130 0.007364
120 0.005456
121 0.00498
127 0.003083
138 0.007818
143 0.007002
154 0.00719
160 0.007157
167 0.006712
173 0.005828
169 0.00464
92 0.007741
63 0.007877
48 0.006224
59 0.005501
76 0.006353
95 0.007443
102 0.007345
128 0.007585
131 0.006943
126 0.006087
119 0.004943
119 0.006951
124 0.007379
135 0.007256
143 0.006732
151 0.005271
158 0.006094
166 0.007069
171 0.006623
179 0.003995
161 0.008241
95 0.007858
48 0.006177
46 0.005819
59 0.006229
81 0.006979
93 0.007155
102 0.007044
115 0.006326
127 0.006418
129 0.00696
123 0.004983
123 0.007718
131 0.007923
140 0.005507
148 0.006643
156 0.006332
166 0.006983
172 0.006945
177 0.007109
184 0.006793
187 0.006454
155 0.006096
72 0.006979
47 0.007959
55 0.007933
70 0.005949
85 0.006546
95 0.006152
109 0.006187
123 0.007533
131 0.006185
130 0.005852
124 0.006808
126 0.004948
133 0.006409
144 0.00746
153 0.006434
160 0.006182
167 0.006981
174 0.006541
178 0.006444
182 0.005952
186 0.007137
171 0.005865
125 0.005981
52 0.004985
55 0.006693
72 0.006055
89 0.006284
103 0.006664
118 0.00575
132 0.005927
138 0.006046
135 0.005989
125 0.006017
124 0.005986
129 0.00659
140 0.006945
149 0.006752
159 0.006076
166 0.00605
174 0.005934
179 0.0059
185 0.006133
159 0.005112
93 0.005841
54 0.005202
57 0.005142
73 0.00587
101 0.005936
110 0.005645
128 0.005986
141 0.006418
145 0.005023
137 0.005988
133 0.006
134 0.005987
140 0.005038
147 0.005946
158 0.005419
166 0.004985
177 0.005156
183 0.00626
187 0.006121
192 0.005613
195 0.005263
164 0.004879
90 0.004926
52 0.005429
47 0.005783
59 0.004943
82 0.004811
96 0.00502
114 0.005723
128 0.005707
137 0.006027
136 0.004831
131 0.005021
130 0.005678
134 0.005001
142 0.005218
151 0.003885
160 0.004987
170 0.004662
177 0.00468
187 0.005055
191 0.004984
194 0.005009
198 0.004955
197 0.004026
117 0.003958
63 0.00499
48 0.004992
54 0.003989
71 0.003985
94 0.005155
106 0.00367
128 0.004612
138 0.004577
139 0.003993
133 0.004043
127 0.003976
130 0.003374
137 0.003876
146 0.003754
155 0.003418
164 0.003995
176 0.00433
184 0.003997
192 0.003993
196 0.004521
181 0.003661
107 0.00365
61 0.003002
53 0.003766
66 0.004295
86 0.003471
103 0.003732
116 0.004037
131 0.004599
146 0.004036
140 0.004389
128 0.003748
126 0.003764
131 0.003985
140 0.00299
147 0.003002
157 0.003987
162 0.003673
169 0.003089
175 0.003025
176 0.002993
86 0.00399
51 0.002976
49 0.002917
64 0.003595
81 0.003499
94 0.003017
106 0.002
124 0.003521
132 0.002795
131 0.001881
124 0.002422
121 0.001952
129 0.003011
137 0.003032
148 0.002998
156 0.002992
163 0.002992
168 0.001974
173 0.002942
180 0.001931
176 0.001946
115 0.001989
60 0.002296
40 0.001433
54 0.002611
70 0.002056
86 0.002033
96 0.003033
109 0.002992
120 0.003041
124 0.001991
119 0.002993
117 0.002988
120 0.002992
127 0.00204
135 0.002041
150 0.002185
157 0.002669
165 0.003158
170 0.002037
175 0.002219
180 0.001845
179 0.001994
102 0.002348
56 0.00196
44 0.002036
52 0.002022
67 0.00096
90 0.002041
99 0.00199
116 0.002485
124 0.001999
124 0.002651
118 0.001827
115 0.001926
118 0.001102
128 0.001004
137 0.002019
145 0.001037
153 0.001033
162 0.000996
167 0.001998
172 0.000998
176 0.002027
134 0.002011
74 0.00157
49 0.001997
51 0.001459
72 0.000954
88 0.000793
100 0.001
112 0.00095
131 0.00087
130 0.001998
123 0.000997
118 0.001998
122 0.000998
129 0.000998
138 0.0
146 0.0
155 0.001964
161 0.000613
166 0.000997
172 0.00103
167 0.000691
107 0.001483
60 0.001668
45 0.000999
56 0.0
71 0.0
85 0.0
94 0.0
110 0.00108
122 0.0
125 0.0
122 0.0
119 0.0
124 0.001021
131 0.0
142 0.001335
150 0.001
157 0.0
164 0.0
170 0.0
175 0.0
179 0.0
183 0.0
131 0.001002
71 0.001001
46 0.0
47 0.001002
67 0.001001
81 0.000997
92 0.0
105 0.000997
114 0.0
127 0.0
127 0.001037
122 0.0
124 0.0
130 0.0
139 0.0
147 0.0
158 0.0
165 0.001025
171 0.0
177 0.0
182 0.0
184 0.0
189 0.0
178 0.001
76 0.0
52 0.002035
60 0.000983
71 0.000999
88 0.0
104 0.001029
115 0.002998
133 0.0
138 0.0
133 0.0
125 0.002046
123 0.001842
133 0.001042
141 0.001033
153 0.000997
160 0.0
166 0.0
171 0.0
177 0.002039
184 0.0
163 0.0
97 0.0
60 0.002033
54 0.002194
78 0.002035
95 0.000999
111 0.0
125 0.000995
138 0.0
142 0.001999
137 0.000997
129 0.0
130 0.000959
136 0.0
144 0.001969
151 0.002018
164 0.001251
170 0.001269
176 0.0
182 0.001008
186 0.0
161 0.002037
91 0.001163
47 0.000964
48 0.000973
61 0.0
76 0.002051
89 0.001139
105 0.001264
119 0.001748
129 0.0
127 0.0
123 0.0
123 0.002033
129 0.001998
140 0.0
148 0.0
157 0.0
164 0.001263
169 0.00225
178 0.001236
183 0.001037
151 0.000997
85 0.0
52 0.000989
48 0.001275
61 0.002031
81 0.0
93 0.0
102 0.0
114 0.001003
126 0.001965
127 0.002016
121 0.002367
120 0.00215
127 0.0
136 0.001994
144 0.001993
152 0.001996
158 0.002266
165 0.0
171 0.0
176 0.0
97 0.0
58 0.001026
51 0.002561
63 0.002805
85 0.0
98 0.0
109 0.002004
122 0.002365
133 0.002788
131 0.001995
123 0.000994
119 0.000997
127 0.000952
135 0.001913
143 0.002116
150 0.003366
160 0.002014
167 0.000999
162 0.001984
108 0.00399
65 0.003221
54 0.001991
66 0.0
82 0.001934
102 0.000997
114 0.000955
128 0.003103
134 0.002994
130 0.001501
125 0.001999
125 0.001986
131 0.003282
138 0.003212
148 0.001958
155 0.0
161 0.002026
170 0.002953
173 0.002105
133 0.003377
74 0.002991
44 0.001999
50 0.000992
64 0.001996
77 0.002992
86 0.003129
98 0.002453
111 0.002061
121 0.001956
121 0.001452
118 0.00196
120 0.003074
127 0.003231
138 0.002032
146 0.001978
154 0.0
160 0.004029
165 0.004126
172 0.001839
177 0.000954
164 0.002984
68 0.00202
49 0.001935
52 0.001998
66 0.003403
80 0.004388
93 0.002084
102 0.002123
116 0.002
126 0.004245
127 0.004487
123 0.001992
123 0.001994
132 0.002943
140 0.003327
149 0.002963
157 0.004797
164 0.004468
171 0.002958
176 0.002899
180 0.003371
185 0.005641
174 0.00581
90 0.002655
58 0.002016
64 0.001997
82 0.003136
97 0.001214
108 0.004453
120 0.004
138 0.003
140 0.00296
134 0.00295
126 0.005059
126 0.00399
135 0.003993
143 0.002994
157 0.003512
165 0.001999
172 0.003016
179 0.004986
186 0.004234
143 0.003625
86 0.002829
61 0.001774
64 0.00578
79 0.004432
100 0.003901
113 0.002027
136 0.003016
145 0.003989
144 0.004036
137 0.00602
132 0.005542
136 0.003511
143 0.001998
151 0.002992
158 0.005925
165 0.006749
172 0.002999
180 0.00504
180 0.003403
123 0.003618
70 0.003023
51 0.004768
55 0.005925
75 0.003172
88 0.003993
98 0.004593
108 0.006345
123 0.005981
134 0.002957
131 0.006982
127 0.00563
130 0.003957
137 0.004985
146 0.003944
154 0.005948
162 0.006293
171 0.003544
176 0.001988
182 0.004026
187 0.006251
184 0.005984
84 0.006026
53 0.006021
54 0.00413
70 0.002962
84 0.004802
95 0.005847
104 0.006299
122 0.004978
132 0.003953
133 0.003952
129 0.006571
127 0.005997
135 0.006026
143 0.006953
154 0.003085
162 0.004979
168 0.004785
174 0.005947
179 0.006978
186 0.003951
181 0.004989
121 0.00495
72 0.006018
57 0.00599
74 0.006381
89 0.005992
104 0.005017
114 0.004097
127 0.003528
136 0.007108
134 0.00716
124 0.004955
122 0.005985
127 0.004
135 0.007219
142 0.006533
154 0.006825
159 0.007019
168 0.005033
173 0.005474
139 0.003938
82 0.006796
54 0.007414
57 0.005016
73 0.004673
89 0.005979
101 0.006671
118 0.007978
134 0.00794
135 0.007707
128 0.006024
125 0.004998
129 0.004986
139 0.008284
145 0.00783
155 0.004006
162 0.003988
167 0.006596
173 0.00739
180 0.006863
134 0.007626
63 0.007442
50 0.006971
53 0.005461
68 0.006949
82 0.005965
94 0.007779
104 0.007719
117 0.005751
125 0.005859
125 0.006121
121 0.007014
123 0.004925
130 0.007977
138 0.008013
149 0.005127
156 0.005023
162 0.004987
169 0.007574
175 0.007616
180 0.006496
159 0.006016
78 0.006983
49 0.004839
54 0.004995
74 0.007144
87 0.007113
97 0.005985
107 0.004987
120 0.004947
129 0.00813
126 0.007691
121 0.005873
122 0.005686
130 0.005887
141 0.00571
149 0.005985
158 0.006942
164 0.007018
169 0.005984
173 0.005902
178 0.004984
167 0.005953
104 0.006828
61 0.006282
54 0.005983
68 0.006413
88 0.005996
99 0.005022
113 0.006448
127 0.006505
132 0.005982
128 0.004958
120 0.005944
119 0.006139
125 0.007274
133 0.006042
144 0.005619
151 0.006393
160 0.006645
166 0.006132
169 0.006331
121 0.005741
64 0.006241
56 0.005838
67 0.006789
83 0.006758
97 0.006689
112 0.006683
126 0.005294
137 0.006033
136 0.006576
131 0.006564
131 0.006351
136 0.005555
144 0.005581
152 0.005979
162 0.005747
168 0.005535
174 0.005584
180 0.005597
184 0.006106
138 0.005423
60 0.006275
55 0.006105
66 0.005984
81 0.006534
94 0.005725
106 0.005633
117 0.006256
130 0.005333
135 0.004891
133 0.004986
130 0.004919
132 0.005029
144 0.005373
153 0.005219
160 0.005379
167 0.004987
173 0.005635
179 0.005623
185 0.00496
185 0.004986
134 0.005105
77 0.004801
55 0.005205
63 0.005834
88 0.005696
99 0.005063
108 0.005607
121 0.005555
132 0.004753
135 0.004891
130 0.003929
127 0.004678
129 0.004049
135 0.004997
146 0.003005
154 0.005028
163 0.00489
168 0.004639
172 0.003916
177 0.003935
169 0.00399
93 0.004994
63 0.00507
62 0.00446
76 0.004217
93 0.003521
110 0.00373
119 0.003582
140 0.003993
141 0.004735
135 0.00412
127 0.00399
126 0.003991
134 0.004579
142 0.003788
150 0.003992
157 0.003945
163 0.003881
170 0.002968
171 0.003873
117 0.004019
64 0.003735
59 0.003971
72 0.004148
88 0.00326
102 0.002974
118 0.00369
133 0.003588
143 0.00359
144 0.003993
138 0.002985
135 0.004028
140 0.003033
151 0.00386
158 0.003032
165 0.004005
172 0.004
178 0.00299
185 0.002998
189 0.002955
151 0.003689
86 0.002912
56 0.002944
62 0.002991
78 0.003795
96 0.002963
105 0.002914
118 0.002823
131 0.002666
138 0.001828
136 0.003573
132 0.002785
134 0.002685
139 0.003033
147 0.002007
162 0.002998
169 0.002024
177 0.003492
182 0.002669
187 0.002028
192 0.002958
173 0.003149
86 0.003002
57 0.003067
57 0.003028
71 0.00184
88 0.002107
107 0.003117
118 0.002994
135 0.003031
140 0.002034
136 0.001996
130 0.001963
130 0.001686
138 0.00168
146 0.001998
154 0.002025
162 0.001997
168 0.001662
176 0.001815
182 0.00102
183 0.001887
126 0.002017
74 0.000996
57 0.002039
64 0.001799
88 0.001919
103 0.002233
115 0.002033
128 0.002994
142 0.001048
143 0.001992
135 0.001043
131 0.001997
136 0.000921
144 0.001998
152 0.000995
159 0.002662
166 0.000768
175 0.00073
181 0.000997
166 0.000942
103 0.001918
57 0.000996
62 0.001537
78 0.001005
100 0.002031
111 0.001001
125 0.001962
141 0.001998
148 0.00097
144 0.001553
140 0.001592
141 0.001034
146 0.0
158 0.00203
166 0.000792
173 0.000762
180 0.000797
187 0.000777
194 0.0
185 0.001604
116 0.000786
61 0.001321
56 0.001961
68 0.001
93 0.001
104 0.001051
114 0.000999
129 0.001001
142 0.001038
142 0.0
138 0.000704
137 0.000591
140 0.001039
150 0.001002
159 0.0
166 0.0
176 0.0
181 0.0
187 0.000997
192 0.000966
133 0.0
75 0.001
55 0.0
59 0.0
76 0.0
99 0.001001
111 0.0
122 0.0
141 0.0
141 0.0
133 0.0
126 0.0
128 0.0
135 0.0
143 0.0
150 0.0
157 0.0
165 0.0
172 0.0
170 0.001
78 0.001
52 0.0
53 0.001001
69 0.001001
92 0.0
105 0.000462
118 0.001997
133 0.0
140 0.0
137 0.001001
129 0.0
129 0.001
141 0.0
149 0.0
159 0.000999
166 0.0
173 0.000968
179 0.001038
159 0.002002
79 0.0
53 0.0
55 0.0
69 0.002039
85 0.002034
104 0.002411
116 0.002052
134 0.0
137 0.0
135 0.000996
128 0.001996
130 0.001118
138 0.0
147 0.0
154 0.0
161 0.001036
168 0.002373
179 0.002398
178 0.001159
99 0.0
58 0.0
50 0.0
60 0.001268
76 0.002267
94 0.0
103 0.000967
116 0.0
129 0.002994
133 0.003028
126 0.002028
125 0.001279
132 0.0
139 0.0
148 0.0
156 0.001242
162 0.001001
169 0.0
175 0.0
180 0.0
149 0.001936
85 0.004028
52 0.002013
63 0.001041
86 0.0
99 0.000997
108 0.000934
121 0.001249
133 0.001214
132 0.0
124 0.0
122 0.0
128 0.001282
136 0.001264
149 0.000998
154 0.00125
158 0.002215
166 0.0
167 0.001062
121 0.001024
70 0.002223
52 0.002056
62 0.0
78 0.0
93 0.001029
111 0.0
126 0.0
132 0.002215
130 0.002964
123 0.0
122 0.000992
127 0.000998
135 0.002959
143 0.001997
152 0.000998
158 0.000998
165 0.002
172 0.001989
124 0.001039
69 0.001996
48 0.002779
55 0.0
70 0.001995
84 0.001369
94 0.003991
105 0.003988
124 0.001991
131 0.0
129 0.0
125 0.001922
129 0.001965
136 0.002468
145 0.002343
157 0.001923
164 0.001229
171 0.001786
176 0.003878
181 0.003492
187 0.001488
157 0.000998
90 0.001528
53 0.001994
61 0.002007
78 0.003955
92 0.00295
105 0.001995
116 0.002003
129 0.003007
135 0.002978
132 0.002918
125 0.000985
126 0.003185
132 0.002071
146 0.002001
154 0.002997
160 0.002987
164 0.00313
170 0.0019
175 0.002005
177 0.002025
130 0.002026
76 0.004004
56 0.003461
65 0.001957
83 0.002004
107 0.001947
118 0.001995
132 0.001963
141 0.003989
139 0.003985
129 0.00196
126 0.001444
130 0.001953
137 0.004143
145 0.003989
155 0.002026
160 0.002304
170 0.003044
176 0.001965
144 0.002006
85 0.003988
57 0.004848
60 0.003
76 0.002866
93 0.001951
106 0.003991
118 0.004252
136 0.00196
141 0.00196
133 0.003679
129 0.002952
131 0.003023
138 0.00562
146 0.004891
156 0.002959
164 0.001995
170 0.002991
176 0.004978
181 0.004935
188 0.003005
185 0.002947
83 0.003131
52 0.003327
48 0.002982
61 0.004986
77 0.005004
95 0.002992
105 0.002997
118 0.002977
130 0.005988
134 0.006006
129 0.003401
126 0.004978
132 0.003946
139 0.003636
147 0.002957
155 0.005785
162 0.004815
171 0.004282
177 0.003025
182 0.002031
186 0.006375
189 0.006619
192 0.003958
145 0.006002
66 0.003039
49 0.004987
54 0.004988
70 0.005996
87 0.006047
105 0.003632
116 0.00299
130 0.002962
138 0.003989
137 0.005984
131 0.006393
127 0.006146
132 0.006093
142 0.004681
151 0.003023
158 0.003024
165 0.005724
171 0.005846
177 0.00419
182 0.004027
187 0.005507
173 0.006756
106 0.006562
54 0.006337
59 0.007269
82 0.002959
100 0.002951
115 0.002732
128 0.006712
143 0.006982
148 0.004987
140 0.004
131 0.005013
129 0.005987
132 0.007436
145 0.006981
152 0.007678
161 0.003627
167 0.004467
174 0.001997
175 0.007419
125 0.006632
62 0.004402
52 0.003048
61 0.00395
79 0.00729
96 0.00735
117 0.00664
132 0.007476
143 0.004326
140 0.003992
133 0.00595
130 0.006164
133 0.007251
141 0.003039
149 0.00299
156 0.002992
161 0.007076
167 0.00702
177 0.006699
181 0.007954
124 0.00579
67 0.005825
46 0.004953
48 0.00808
62 0.008092
83 0.00435
94 0.004985
105 0.00594
119 0.006991
129 0.007788
128 0.006984
124 0.007097
124 0.004905
131 0.002955
139 0.002991
147 0.004463
157 0.007878
161 0.007417
170 0.004814
175 0.003941
179 0.002991
154 0.0081
63 0.004735
50 0.007013
61 0.008034
78 0.005059
93 0.004543
103 0.003998
119 0.007016
131 0.006987
133 0.006981
127 0.007012
121 0.005941
122 0.006981
131 0.004992
142 0.006419
149 0.007807
155 0.004938
159 0.003868
165 0.006018
167 0.00724
117 0.008099
68 0.006061
51 0.003982
57 0.006087
84 0.004913
97 0.004948
113 0.007887
126 0.008083
133 0.004989
129 0.004029
121 0.005526
117 0.007442
121 0.006985
129 0.005558
137 0.006009
144 0.006955
158 0.006947
164 0.006975
134 0.006975
81 0.006982
53 0.0069
54 0.00684
67 0.005015
87 0.007316
98 0.007301
109 0.005721
123 0.004986
131 0.005949
126 0.005645
123 0.006187
126 0.005985
133 0.007112
144 0.006897
149 0.004702
156 0.006027
164 0.006465
170 0.006185
176 0.005982
170 0.005983
93 0.006919
53 0.005766
57 0.006375
71 0.005892
84 0.005812
94 0.005809
103 0.00599
116 0.004954
128 0.005983
128 0.005706
125 0.006582
124 0.00662
129 0.006539
142 0.005615
150 0.005791
158 0.006542
164 0.006451
169 0.005432
176 0.004389
179 0.005948
173 0.005569
114 0.00566
67 0.005965
54 0.005946
61 0.005965
89 0.005085
99 0.004876
109 0.006099
122 0.004989
131 0.006127
131 0.005904
126 0.005785
124 0.005373
129 0.006142
136 0.005791
147 0.005074
155 0.005812
166 0.005337
171 0.005022
175 0.004352
180 0.005239
184 0.00502
124 0.005401
74 0.003987
58 0.00499
65 0.005408
82 0.003926
102 0.005477
113 0.004898
133 0.005251
141 0.004299
138 0.004987
130 0.00497
126 0.00495
130 0.005018
138 0.005304
146 0.003931
154 0.00399
160 0.004026
167 0.004134
174 0.004612
162 0.004466
103 0.004515
66 0.004975
60 0.004988
71 0.004955
93 0.004503
107 0.004391
118 0.005014
132 0.003044
142 0.003807
142 0.004962
134 0.003027
134 0.003936
140 0.004701
147 0.00413
154 0.003992
162 0.003988
168 0.00399
176 0.004654
182 0.003635
187 0.003544
166 0.003695
100 0.003876
54 0.003042
60 0.002967
80 0.003994
94 0.004031
105 0.003768
116 0.003988
129 0.002992
138 0.002748
135 0.004312
131 0.003953
130 0.003661
135 0.002746
148 0.003024
156 0.002959
167 0.003311
173 0.002857
178 0.002578
183 0.003993
188 0.002959
173 0.002977
105 0.003024
63 0.003006
54 0.002994
64 0.002961
92 0.003035
103 0.003102
118 0.003064
131 0.002729
139 0.002782
138 0.002839
132 0.002031
128 0.002611
132 0.003035
139 0.003055
147 0.003009
155 0.00403
165 0.002001
170 0.002992
178 0.003008
181 0.001724
135 0.002033
79 0.002312
57 0.001996
63 0.001943
79 0.002554
95 0.001699
107 0.002561
118 0.001919
137 0.002007
135 0.002002
125 0.002994
121 0.001949
124 0.001994
131 0.001995
139 0.001994
148 0.001995
156 0.002993
164 0.00205
170 0.002039
136 0.001993
62 0.001825
55 0.00096
72 0.002682
89 0.002547
103 0.001999
116 0.000997
131 0.001695
141 0.001852
140 0.001868
134 0.002061
131 0.00193
134 0.001555
146 0.001848
154 0.002938
161 0.000959
169 0.002512
176 0.002026
181 0.002028
141 0.001063
81 0.000971
54 0.001992
60 0.001997
76 0.002011
92 0.00199
110 0.001582
123 0.001998
135 0.001996
139 0.001998
135 0.000639
131 0.001049
132 0.002499
138 0.0
149 0.000615
156 0.000873
163 0.000575
174 0.001776
181 0.000963
179 0.000965
124 0.0
64 0.000999
55 0.0
65 0.001995
80 0.001034
94 0.00104
108 0.000957
120 0.000778
132 0.001999
135 0.0
129 0.000958
127 0.001029
130 0.000997
140 0.001034
148 0.002005
155 0.000998
161 0.001995
167 0.001
176 0.0
167 0.001009
108 0.000994
58 0.001001
63 0.0
79 0.000958
95 0.0
111 0.0
123 0.0
136 0.0
141 0.0
135 0.0
126 0.000996
126 0.0
131 0.0
143 0.0
149 0.000827
156 0.0
163 0.000998
168 0.0
111 0.001055
69 0.0
57 0.0
65 0.0
82 0.0
102 0.0
113 0.0
134 0.0
138 0.0
133 0.0
125 0.0
126 0.0
132 0.0
140 0.0
147 0.0
156 0.0
163 0.000971
171 0.002053
156 0.00208
68 0.002074
52 0.001998
60 0.0
75 0.001042
89 0.0
99 0.002026
109 0.001965
124 0.0
128 0.0
124 0.0
121 0.001005
122 0.001995
132 0.002035
139 0.002043
148 0.0
156 0.0
163 0.0
141 0.002168
87 0.002274
55 0.0
57 0.0
70 0.0
84 0.0022
94 0.002039
113 0.002036
125 0.002028
130 0.000966
126 0.0
125 0.000969
128 0.001217
133 0.001228
143 0.0
151 0.0
158 0.0
166 0.002002
154 0.002206
74 0.001996
59 0.003028
69 0.0
85 0.0
98 0.0
107 0.001999
120 0.001997
134 0.0
133 0.000967
129 0.000998
125 0.00119
127 0.001431
136 0.0
142 0.003035
148 0.002268
157 0.001034
159 0.0
120 0.001
75 0.001246
59 0.002238
72 0.0
92 0.0
106 0.0
125 0.000999
137 0.0
139 0.002037
135 0.003189
131 0.0
135 0.001
141 0.001014
149 0.002992
155 0.001996
162 0.000392
168 0.0
174 0.001
124 0.001032
75 0.001992
59 0.001997
64 0.0022
84 0.0
97 0.0
107 0.001995
118 0.002292
130 0.002031
135 0.000951
131 0.000958
129 0.0
135 0.000998
142 0.0
150 0.001992
156 0.002991
165 0.00199
172 0.001035
177 0.002038
142 0.002976
86 0.003029
60 0.002
66 0.001999
80 0.001995
100 0.001952
110 0.000996
124 0.002995
135 0.002995
137 0.002954
134 0.0
133 0.001987
136 0.002994
144 0.00325
154 0.002
162 0.002992
169 0.001529
179 0.000998
184 0.0
188 0.002992
190 0.002992
192 0.000997
194 0.001914
195 0.001996
197 0.004031
199 0.003983
203 0.001952
179 0.001994
103 0.001985
57 0.001954
66 0.001962
85 0.002954
104 0.003213
117 0.004218
132 0.001993
143 0.002096
143 0.001997
136 0.003252
127 0.003376
127 0.001995
133 0.001952
148 0.002026
156 0.002982
163 0.000963
169 0.004178
175 0.004037
181 0.001955
186 0.003073
180 0.001954
122 0.003988
74 0.004986
59 0.002993
71 0.001988
100 0.002015
113 0.001994
125 0.003142
140 0.004506
148 0.004688
144 0.001955
137 0.002532
136 0.002998
140 0.00506
147 0.005235
158 0.002193
166 0.00202
177 0.003023
183 0.00299
188 0.002994
193 0.00398
197 0.005643
137 0.00241
78 0.001998
55 0.001958
57 0.004542
72 0.004474
94 0.001948
109 0.00434
125 0.00396
137 0.003943
141 0.002968
137 0.004986
131 0.004988
132 0.002972
138 0.00299
146 0.001976
154 0.004948
162 0.005972
171 0.003014
178 0.004825
183 0.00296
188 0.002889
182 0.002985
120 0.004761
69 0.005479
53 0.003947
64 0.002987
82 0.001969
97 0.005646
107 0.005763
122 0.00296
136 0.00603
134 0.005208
123 0.002991
120 0.002008
124 0.003014
132 0.005382
140 0.006256
149 0.003824
154 0.002988
159 0.002987
165 0.005974
171 0.006012
99 0.006014
60 0.005515
54 0.00466
68 0.003974
86 0.003989
100 0.006196
110 0.005611
128 0.004192
134 0.00299
130 0.003955
122 0.005951
119 0.00581
126 0.006366
135 0.005921
144 0.003006
151 0.003704
159 0.002959
166 0.006685
166 0.006507
99 0.003957
59 0.004986
50 0.004082
60 0.00738
75 0.007863
95 0.006412
105 0.006145
123 0.004036
129 0.004523
127 0.003989
122 0.006955
121 0.006954
128 0.003989
136 0.004983
143 0.004962
151 0.007317
158 0.007212
167 0.007188
173 0.006386
166 0.004302
106 0.004093
61 0.004281
48 0.007117
55 0.007084
75 0.004314
87 0.005045
96 0.002992
107 0.007566
120 0.007018
126 0.007511
123 0.007653
121 0.004207
125 0.004022
133 0.005036
141 0.008034
149 0.007852
159 0.005452
164 0.00504
169 0.004435
173 0.007978
177 0.007978
170 0.005984
89 0.007976
64 0.007978
52 0.005984
64 0.00586
81 0.00541
97 0.008167
105 0.007688
117 0.005974
128 0.005928
129 0.005246
123 0.007301
120 0.004648
125 0.007506
134 0.007534
152 0.006363
166 0.00505
175 0.003988
178 0.007117
181 0.007022
185 0.004108
178 0.005632
119 0.00599
62 0.006948
65 0.005985
87 0.007101
102 0.007109
113 0.00745
124 0.005944
140 0.006975
141 0.006982
137 0.007977
128 0.004987
129 0.006019
134 0.006122
149 0.005541
157 0.005973
166 0.007538
172 0.00726
178 0.006074
185 0.00667
178 0.006935
118 0.007664
71 0.00741
57 0.006043
63 0.005738
80 0.006783
102 0.00554
112 0.006001
128 0.007344
136 0.005833
136 0.006985
131 0.005296
127 0.006042
133 0.005626
140 0.006638
148 0.005844
156 0.005978
163 0.005976
174 0.00599
177 0.006979
181 0.006668
184 0.006976
186 0.006946
186 0.006125
158 0.005939
74 0.006023
50 0.006078
51 0.006002
65 0.005941
82 0.005902
103 0.005985
115 0.005693
127 0.006688
131 0.006046
128 0.006526
124 0.006373
126 0.005811
130 0.004943
141 0.006711
150 0.006799
161 0.005934
165 0.004985
177 0.005172
182 0.006223
184 0.005578
187 0.004747
190 0.005986
194 0.006358
161 0.005032
94 0.005953
62 0.005942
59 0.006027
78 0.004988
96 0.005603
117 0.005605
128 0.005364
140 0.005944
143 0.00559
136 0.005479
126 0.004678
125 0.005282
129 0.004986
140 0.00499
149 0.005988
158 0.006209
164 0.005117
173 0.00585
179 0.005255
150 0.005979
90 0.003847
59 0.005726
59 0.005818
76 0.004976
93 0.004998
106 0.00495
118 0.004943
136 0.004988
140 0.005012
128 0.004958
121 0.005427
122 0.004685
128 0.004442
136 0.004988
146 0.005417
153 0.004999
160 0.005168
165 0.00515
131 0.004989
62 0.003938
44 0.005387
57 0.005078
73 0.004305
84 0.00512
93 0.004674
104 0.003949
117 0.00521
117 0.004684
111 0.003919
108 0.003986
110 0.003728
117 0.003645
130 0.003994
138 0.004453
147 0.003991
154 0.004989
156 0.003945
113 0.003985
62 0.00399
40 0.004735
47 0.004021
61 0.004568
74 0.003992
84 0.004351
102 0.004479
114 0.002993
118 0.00385
114 0.004474
112 0.003599
115 0.002995
122 0.002991
133 0.003991
141 0.003001
149 0.004146
155 0.003
161 0.002824
170 0.003238
159 0.00313
82 0.003338
52 0.002954
48 0.002534
58 0.003991
73 0.003587
89 0.003492
97 0.00351
109 0.002628
120 0.002994
123 0.002991
118 0.002991
117 0.002991
123 0.003992
131 0.0027
139 0.002626
145 0.002995
150 0.002983
150 0.002026
151 0.002764
156 0.002991
160 0.002988
136 0.001843
58 0.002778
47 0.001872
59 0.003041
74 0.002628
87 0.002991
96 0.002983
107 0.001989
119 0.003042
118 0.002997
112 0.001709
108 0.002005
110 0.001997
122 0.002749
131 0.001996
146 0.003071
154 0.003025
160 0.001984
165 0.002988
169 0.001986
117 0.001995
71 0.002027
55 0.001634
60 0.001999
74 0.002489
96 0.001705
105 0.001975
117 0.00299
128 0.0026
125 0.002038
120 0.001877
118 0.001995
123 0.002031
133 0.001998
141 0.001997
149 0.001995
156 0.00214
165 0.001956
171 0.001991
176 0.002035
134 0.002206
80 0.001996
57 0.000999
56 0.001999
68 0.000999
86 0.000718
96 0.001
104 0.001997
116 0.001735
128 0.001998
125 0.000881
122 0.0
125 0.001999
131 0.002006
139 0.002041
147 0.0
156 0.002033
164 0.000752
169 0.001695
175 0.000779
182 0.001999
146 0.001
88 0.0
62 0.001008
62 0.000749
76 0.001004
91 0.00199
101 0.001993
110 0.0
126 0.001559
134 0.000651
133 0.001055
126 0.001001
128 0.0
135 0.0
143 0.0
153 0.001032
161 0.001
167 0.0
172 0.0
177 0.001
184 0.000997
155 0.000998
95 0.000539
62 0.001018
71 0.0
88 0.0
103 0.0
116 0.001
128 0.001
138 0.001005
139 0.0
133 0.0
127 0.0
129 0.0
136 0.0
149 0.0
157 0.0
163 0.0
168 0.0
174 0.0
180 0.0
140 0.0
74 0.0
62 0.0
66 0.000991
82 0.0
97 0.001997
113 0.0
125 0.0
135 0.0
136 0.0
131 0.0
127 0.0
130 0.003007
140 0.0
148 0.0
155 0.0
163 0.002043
169 0.003029
177 0.002041
181 0.001998
185 0.0
187 0.000997
144 0.0
84 0.002039
58 0.002037
59 0.0
73 0.0
88 0.0
100 0.003174
108 0.002049
127 0.003035
132 0.00204
128 0.0
125 0.001001
127 0.0
133 0.002028
141 0.002135
152 0.0
160 0.0
167 0.0
173 0.001985
178 0.001961
184 0.001988
187 0.00223
191 0.0
162 0.0
98 0.00097
66 0.002224
60 0.003692
76 0.0
93 0.000965
107 0.0
115 0.00303
126 0.001997
139 0.003023
135 0.002235
128 0.0
127 0.0
132 0.000999
139 0.001204
147 0.001998
157 0.0
163 0.0
167 0.0
171 0.0
179 0.0
175 0.000966
120 0.002028
74 0.001994
59 0.0
69 0.000999
87 0.0
103 0.002027
114 0.003026
131 0.0
141 0.0
140 0.0
128 0.0
126 0.0
130 0.002186
138 0.002161
149 0.0
157 0.0
163 0.0
169 0.003164
174 0.004025
181 0.0
181 0.0
131 0.000999
60 0.0
54 0.001996
65 0.002986
82 0.002034
101 0.00104
111 0.001
122 0.0
133 0.002439
135 0.002996
127 0.001996
124 0.002992
127 0.001999
138 0.001031
146 0.001985
154 0.002715
161 0.002844
169 0.001982
173 0.00206
178 0.001994
182 0.002186
185 0.003212
127 0.002014
73 0.0
53 0.0
63 0.000956
80 0.0
95 0.003266
106 0.003165
121 0.002007
131 0.001312
133 0.001001
128 0.003308
124 0.002801
125 0.002001
133 0.001948
141 0.001967
153 0.000957
160 0.001993
166 0.003493
171 0.002995
177 0.001994
182 0.00199
160 0.00299
97 0.001995
64 0.003992
57 0.003093
75 0.001974
93 0.0
113 0.002988
125 0.002006
136 0.001995
139 0.003989
132 0.003939
123 0.001954
123 0.003001
128 0.00298
136 0.004095
144 0.004052
152 0.001993
157 0.003001
167 0.002
169 0.001989
127 0.002992
76 0.004334
55 0.003991
61 0.00201
78 0.001952
94 0.002993
105 0.004244
117 0.00399
132 0.001969
134 0.002001
124 0.002542
122 0.002984
126 0.001993
133 0.005243
141 0.004134
151 0.001961
158 0.001992
164 0.000996
169 0.004558
174 0.005031
180 0.001994
157 0.001962
66 0.002965
50 0.002768
54 0.002746
69 0.004292
84 0.004415
98 0.002816
107 0.00199
118 0.002035
125 0.004411
124 0.005213
119 0.00295
120 0.005043
129 0.002989
137 0.002726
145 0.002005
152 0.005987
159 0.004986
166 0.00313
171 0.002992
175 0.003013
178 0.005024
181 0.004979
143 0.003434
71 0.005434
51 0.003216
58 0.003386
74 0.001993
89 0.005008
99 0.005108
107 0.005137
122 0.003964
127 0.002981
125 0.002993
120 0.006017
120 0.005984
129 0.006472
138 0.004985
152 0.003036
163 0.003511
171 0.003781
177 0.006016
181 0.005856
186 0.00305
189 0.002281
157 0.002037
96 0.006171
65 0.006668
68 0.006104
84 0.006987
104 0.00399
114 0.004954
125 0.004017
136 0.006491
137 0.00643
127 0.003989
121 0.00296
123 0.003634
129 0.006187
137 0.006504
148 0.006675
154 0.005808
161 0.003715
168 0.002964
171 0.004954
129 0.006981
79 0.00728
58 0.004987
65 0.004987
81 0.003948
96 0.006085
107 0.006946
127 0.007301
135 0.007219
130 0.004155
123 0.003342
122 0.002991
126 0.006989
134 0.007434
144 0.004375
150 0.004295
157 0.002956
163 0.007154
169 0.006965
142 0.007129
86 0.007166
54 0.00402
56 0.002992
70 0.003031
86 0.007389
99 0.00728
112 0.004187
124 0.002034
130 0.003568
129 0.007781
124 0.006982
124 0.007814
130 0.007613
140 0.004263
148 0.004992
155 0.003991
161 0.004983
165 0.007255
172 0.007527
192 0.004719
177 0.004194
113 0.005009
72 0.007797
65 0.004719
76 0.007875
91 0.007321
98 0.00627
106 0.004857
117 0.004227
126 0.007618
125 0.007519
120 0.005984
120 0.005736
125 0.005844
138 0.004989
145 0.005416
154 0.006873
158 0.007409
165 0.004995
168 0.005595
172 0.005458
177 0.007535
178 0.008097
135 0.005256
80 0.004653
57 0.001984
63 0.004988
78 0.004988
93 0.006952
101 0.007977
111 0.006007
121 0.005983
125 0.005957
120 0.006866
116 0.006677
119 0.006638
125 0.005479
133 0.006044
147 0.005969
153 0.005984
159 0.006982
163 0.008026
169 0.006981
173 0.006979
154 0.006981
97 0.006981
64 0.006977
57 0.006979
67 0.006813
83 0.00399
106 0.006332
112 0.006376
128 0.005986
130 0.006988
124 0.006849
118 0.006377
119 0.005316
125 0.006535
133 0.00675
142 0.006956
149 0.007028
155 0.005975
165 0.005026
173 0.006516
144 0.006191
90 0.006242
64 0.006346
64 0.006485
78 0.005732
93 0.005986
104 0.005363
113 0.006593
129 0.006491
134 0.00606
126 0.005844
122 0.005982
124 0.006037
131 0.005595
139 0.00595
149 0.005981
155 0.005525
161 0.005492
166 0.006169
171 0.004854
178 0.005685
144 0.004986
74 0.005987
54 0.005984
61 0.005982
76 0.005984
90 0.005984
102 0.005985
112 0.005985
124 0.004534
128 0.006092
125 0.005472
121 0.005123
123 0.004986
134 0.006116
142 0.005835
150 0.005769
157 0.005932
163 0.00574
171 0.005278
176 0.005194
179 0.005306
183 0.005678
171 0.005048
92 0.00519
61 0.005255
59 0.004898
73 0.004989
87 0.004701
97 0.003912
106 0.003994
121 0.005366
128 0.005281
129 0.004951
125 0.00502
124 0.005029
129 0.005212
137 0.004757
151 0.004338
159 0.004258
166 0.004985
172 0.005026
178 0.004011
183 0.004983
187 0.004786
191 0.004505
175 0.003641
110 0.003989
65 0.00499
65 0.003992
86 0.004973
101 0.005003
112 0.004988
122 0.003987
134 0.004749
141 0.00403
136 0.004246
129 0.003982
128 0.004833
132 0.003649
140 0.003788
154 0.004562
162 0.003782
169 0.004354
175 0.003994
182 0.004421
182 0.004429
135 0.004061
76 0.003857
65 0.004025
73 0.003881
88 0.003917
103 0.00399
120 0.00399
134 0.003939
144 0.002966
140 0.003262
133 0.00355
131 0.002732
133 0.003993
142 0.003992
150 0.002591
158 0.00267
164 0.002848
170 0.003663
180 0.003987
186 0.003995
143 0.00399
86 0.002994
62 0.003014
59 0.002991
71 0.002997
90 0.003042
101 0.003028
110 0.003992
122 0.002991
132 0.003007
131 0.002958
128 0.00299
128 0.002999
134 0.002992
141 0.003104
149 0.003992
156 0.003
166 0.002996
173 0.003033
180 0.002995
186 0.002963
191 0.002851
147 0.001949
86 0.002008
56 0.001723
58 0.00167
72 0.001633
87 0.002996
98 0.002147
110 0.002528
122 0.001594
130 0.001607
131 0.002033
127 0.002283
125 0.001602
130 0.002073
138 0.002033
149 0.001992
156 0.00203
163 0.002428
169 0.000995
174 0.002031
180 0.001923
183 0.001802
153 0.001998
93 0.002037
58 0.002004
65 0.002029
81 0.002084
100 0.001662
110 0.001609
121 0.00225
133 0.001694
137 0.002015
129 0.002031
124 0.001998
124 0.001
130 0.001056
142 0.000776
149 0.00265
154 0.00191
161 0.002023
168 0.000696
163 0.000765
112 0.001821
70 0.001998
58 0.000519
68 0.00062
84 0.001994
105 0.001996
117 0.00059
130 0.002001
136 0.000884
129 0.000709
123 0.0
122 0.002034
127 0.001001
134 0.0
143 0.002
150 0.000998
157 0.000987
165 0.002038
129 0.001261
79 0.0
57 0.000997
59 0.0
73 0.0
87 0.0
97 0.0
107 0.000997
128 0.006981
131 0.0
129 0.0
123 0.0
127 0.0
134 0.0
142 0.0
152 0.002992
158 0.000998
164 0.0
169 0.000998
175 0.0
153 0.0
80 0.0
57 0.0
61 0.0
74 0.0
85 0.0
93 0.0
103 0.0
119 0.0
124 0.001001
123 0.0
122 0.0
123 0.0
130 0.0
137 0.001034
151 0.0
157 0.0
163 0.000997
168 0.0
176 0.0
173 0.00207
123 0.002031
68 0.004986
61 0.001995
66 0.000964
79 0.002992
88 0.000997
105 0.000997
116 0.00798
127 0.0
126 0.0
121 0.0
119 0.002993
122 0.0
131 0.0
138 0.0
145 0.0
151 0.00204
156 0.002241
166 0.001997
142 0.002989
79 0.0
62 0.0
64 0.000997
78 0.001994
92 0.002039
106 0.0
117 0.0
129 0.000956
134 0.002254
130 0.002992
124 0.002215
127 0.002253
136 0.0
144 0.0
151 0.00099
157 0.002036
164 0.001995
164 0.0
118 0.0
80 0.003991
69 0.00399
74 0.004985
95 0.002992
106 0.003033
120 0.0
132 0.0
137 0.001001
135 0.001995
130 0.001949
131 0.0
136 0.0
142 0.0
150 0.0
156 0.001991
166 0.0
173 0.001997
168 0.002202
100 0.0
69 0.000965
61 0.0
69 0.003866
81 0.002204
94 0.0
102 0.000958
113 0.000998
127 0.0
126 0.0
124 0.002402
124 0.002027
130 0.0
137 0.000998
145 0.0
151 0.001968
158 0.001998
165 0.0
171 0.0
158 0.0
80 0.0
64 0.0
66 0.001995
77 0.001994
92 0.0
100 0.0
110 0.0
121 0.001963
128 0.003268
127 0.0
125 0.000998
126 0.0
135 0.0
142 0.0
149 0.003055
154 0.003238
162 0.0
168 0.0
172 0.002996
138 0.003011
91 0.003995
68 0.00199
72 0.002999
85 0.0
103 0.000966
112 0.0
123 0.00322
132 0.003217
130 0.002992
125 0.002021
124 0.0
127 0.003158
134 0.003025
143 0.000998
149 0.002295
154 0.0
164 0.002993
160 0.0
116 0.003068
80 0.002995
67 0.003577
75 0.002005
88 0.0
100 0.0
109 0.004147
122 0.003993
133 0.000962
134 0.0
128 0.003008
129 0.002983
134 0.001987
142 0.003743
148 0.004095
157 0.003
163 0.003029
168 0.002982
174 0.004397
165 0.0033
97 0.000956
70 0.002994
69 0.001952
81 0.002961
93 0.000966
102 0.004233
112 0.004072
128 0.001995
133 0.00296
132 0.001955
129 0.004195
130 0.004558
136 0.001994
143 0.002994
155 0.002029
163 0.002992
169 0.002
150 0.005402
102 0.005044
71 0.002476
71 0.002859
82 0.002989
95 0.004972
106 0.004957
121 0.001989
133 0.00196
139 0.002968
135 0.003048
132 0.002987
135 0.005131
140 0.005063
150 0.001988
156 0.00296
162 0.0
168 0.00448
174 0.005219
161 0.002968
93 0.004491
66 0.002758
71 0.002997
86 0.002951
102 0.004683
113 0.005447
127 0.002953
138 0.002263
141 0.002962
136 0.005433
131 0.005538
132 0.002953
141 0.005165
150 0.002949
158 0.002957
166 0.00299
168 0.002993
132 0.005429
90 0.004986
72 0.003729
80 0.003005
96 0.0022
111 0.005987
122 0.006024
143 0.005806
147 0.005336
141 0.003004
136 0.003944
137 0.002954
142 0.00566
149 0.005382
157 0.00199
164 0.002954
171 0.002992
177 0.005984
152 0.006
75 0.005948
64 0.005506
75 0.003957
90 0.002927
103 0.002963
113 0.00582
125 0.005884
138 0.002495
139 0.00384
136 0.002959
134 0.005851
137 0.006954
148 0.005985
155 0.006626
166 0.003956
174 0.003008
173 0.002022
129 0.006627
86 0.006978
70 0.003767
78 0.002971
93 0.003037
106 0.006833
116 0.006456
136 0.00678
144 0.007205
143 0.004178
139 0.003554
139 0.004799
144 0.005976
150 0.007011
160 0.004995
167 0.004913
173 0.004532
178 0.007508
185 0.007124
129 0.005986
83 0.006568
68 0.004434
78 0.004594
95 0.004662
110 0.006975
120 0.006981
137 0.004506
145 0.004654
144 0.004985
138 0.007509
134 0.007978
140 0.007149
146 0.007666
156 0.003954
164 0.00398
172 0.004858
170 0.004151
109 0.00756
79 0.007374
73 0.004244
84 0.003984
101 0.004167
120 0.007669
137 0.00394
149 0.008188
152 0.007305
145 0.005006
140 0.005642
142 0.00395
149 0.007344
154 0.007473
162 0.005222
169 0.00404
177 0.004007
176 0.007979
92 0.004987
67 0.007997
68 0.006983
83 0.005546
98 0.003952
109 0.004519
120 0.007446
136 0.00698
141 0.006179
139 0.004385
135 0.006296
137 0.003951
143 0.006127
153 0.006493
160 0.007079
167 0.005148
174 0.005363
170 0.005365
100 0.00664
71 0.007635
65 0.006664
75 0.00537
90 0.004229
111 0.004946
123 0.00604
138 0.007783
142 0.007462
139 0.006175
136 0.005987
137 0.006976
144 0.006982
152 0.007971
162 0.006665
167 0.006197
174 0.00638
182 0.00396
188 0.004751
157 0.006361
96 0.006985
69 0.006982
66 0.00663
78 0.006641
100 0.006872
113 0.005957
124 0.006038
136 0.006646
144 0.006421
137 0.005027
133 0.003972
134 0.007029
141 0.006989
148 0.006497
157 0.006532
164 0.005902
172 0.005411
157 0.005984
107 0.005928
74 0.005449
73 0.005332
95 0.005983
116 0.005981
129 0.006022
143 0.006007
150 0.005999
147 0.005984
140 0.006127
138 0.005415
141 0.005834
147 0.005595
156 0.005531
162 0.005489
174 0.005984
177 0.006358
135 0.006075
86 0.005363
67 0.005796
72 0.006001
87 0.004633
103 0.004671
114 0.004685
125 0.005357
139 0.005854
141 0.00598
134 0.00602
132 0.005984
137 0.005945
143 0.005238
149 0.005505
159 0.00498
166 0.004986
172 0.004993
151 0.005824
114 0.0
66 0.005163
67 0.005215
89 0.005697
103 0.005533
114 0.005591
127 0.004989
138 0.004674
139 0.004895
135 0.005344
133 0.005559
135 0.003991
141 0.00399
150 0.005476
157 0.004963
168 0.004864
175 0.004728
171 0.005041
118 0.004026
77 0.003754
64 0.005139
75 0.004492
92 0.0036
106 0.003886
117 0.004032
133 0.004996
140 0.004018
134 0.003989
130 0.004986
131 0.004985
136 0.004792
143 0.004732
150 0.003991
160 0.004169
167 0.003014
164 0.003854
118 0.004992
80 0.004025
72 0.004027
86 0.003999
107 0.004412
121 0.002988
135 0.00399
145 0.003995
146 0.003994
137 0.003995
134 0.003994
135 0.00402
141 0.003986
148 0.00399
159 0.00421
166 0.003286
164 0.004028
114 0.004277
76 0.003519
65 0.003426
71 0.00356
92 0.00352
106 0.002517
117 0.002997
129 0.003934
139 0.002993
138 0.003039
133 0.002992
134 0.003874
140 0.003211
146 0.003032
153 0.0026
159 0.001987
169 0.00279
174 0.002599
142 0.002586
90 0.002092
66 0.003099
70 0.003034
85 0.002934
103 0.003834
113 0.002989
125 0.002992
135 0.00296
137 0.002655
132 0.003947
131 0.002622
134 0.00301
140 0.001864
148 0.003034
160 0.00321
165 0.002372
173 0.001786
179 0.003014
174 0.003034
118 0.002077
76 0.002038
62 0.002996
71 0.001996
88 0.00192
103 0.003021
114 0.001624
133 0.00184
139 0.001997
137 0.002307
130 0.002356
130 0.002221
135 0.001606
142 0.001832
149 0.001882
159 0.002373
166 0.001614
172 0.002
146 0.001997
77 0.002008
69 0.002007
78 0.001997
102 0.001054
117 0.001654
130 0.002162
143 0.001995
148 0.001961
143 0.001876
137 0.001578
135 0.001998
139 0.001891
150 0.002027
157 0.001996
163 0.002656
173 0.002048
161 0.000997
106 0.00164
73 0.002031
65 0.000988
79 0.000918
96 0.001998
111 0.001997
132 0.001991
143 0.002181
145 0.000827
141 0.001999
136 0.001629
138 0.001988
143 0.001987
150 0.001971
157 0.001987
166 0.000992
174 0.000999
170 0.001507
86 0.001928
65 0.001
65 0.000963
78 0.0
99 0.001029
111 0.000582
123 0.0
136 0.000997
142 0.001
138 0.0
134 0.001
134 0.000543
143 0.000616
151 0.0
157 0.000999
164 0.0
172 0.001003
178 0.000484
163 0.001
104 0.0
70 0.0
63 0.0
76 0.0
93 0.0
115 0.0
127 0.0
139 0.0
141 0.0
136 0.0
131 0.0
132 0.0
138 0.0
145 0.0
155 0.0
162 0.0
169 0.0
118 0.0
83 0.0
74 0.0
81 0.0
98 0.0
119 0.0
132 0.002996
148 0.0
152 0.0
146 0.0
140 0.002042
138 0.001984
144 0.003024
150 0.00204
159 0.000977
167 0.0
168 0.0
125 0.002356
85 0.001998
71 0.0
80 0.0
95 0.0
110 0.001996
122 0.002039
143 0.002033
147 0.001997
141 0.0
137 0.0
137 0.00096
141 0.002128
147 0.00208
156 0.0
163 0.001029
170 0.0
156 0.003993
104 0.002038
68 0.002976
71 0.003024
89 0.0
103 0.0
114 0.0
125 0.002268
135 0.003226
139 0.000957
135 0.0
131 0.0
133 0.002265
138 0.002281
149 0.003025
156 0.002026
164 0.0
171 0.0
166 0.001001
115 0.002959
76 0.003959
63 0.0
73 0.000968
88 0.0
102 0.0
113 0.002268
132 0.0
136 0.002983
133 0.002225
126 0.001001
127 0.0
132 0.0
139 0.003222
146 0.002205
155 0.0
162 0.0
165 0.0
95 0.0
69 0.0
67 0.003027
78 0.001995
100 0.001003
113 0.000992
126 0.000997
138 0.001988
141 0.002992
134 0.0
129 0.0
129 0.0
138 0.0
145 0.0
152 0.00199
159 0.003008
162 0.0
119 0.0
78 0.0
63 0.002217
68 0.002891
88 0.001032
103 0.0
114 0.00104
134 0.000994
139 0.000993
136 0.002243
130 0.003038
130 0.0
135 0.0
142 0.0
148 0.002236
155 0.003179
165 0.000719
164 0.0
118 0.000995
64 0.0
63 0.001967
74 0.002996
89 0.002995
105 0.0
116 0.0
129 0.000997
136 0.002992
135 0.002991
129 0.000956
130 0.002996
135 0.0
146 0.0
153 0.000954
160 0.003129
167 0.003093
171 0.002992
129 0.002975
81 0.0
64 0.004006
66 0.003166
86 0.002997
101 0.002035
113 0.0
133 0.0
139 0.002978
137 0.002575
131 0.00399
129 0.003991
133 0.002995
140 0.000994
147 0.000958
155 0.004058
162 0.004021
160 0.002992
113 0.002991
69 0.00269
72 0.002952
88 0.002
105 0.004172
119 0.004191
137 0.002815
147 0.0
146 0.0
140 0.004162
135 0.004228
137 0.002985
143 0.001994
155 0.002984
162 0.002975
170 0.003032
164 0.003989
113 0.004345
71 0.002987
68 0.0
79 0.003006
96 0.004148
111 0.004153
127 0.002991
140 0.003029
145 0.002995
140 0.003004
137 0.002088
139 0.004987
144 0.004985
153 0.002008
160 0.002988
166 0.001966
174 0.004613
175 0.005086
110 0.003165
69 0.004412
68 0.002993
82 0.002956
97 0.002993
110 0.004533
121 0.00442
137 0.002955
142 0.002947
140 0.002952
136 0.005172
136 0.005293
142 0.002946
152 0.006029
162 0.002983
169 0.001995
175 0.002961
181 0.005769
186 0.005229
147 0.002991
91 0.002951
70 0.002026
69 0.001995
82 0.00604
99 0.00598
120 0.005983
131 0.005942
144 0.002995
144 0.002951
139 0.00399
135 0.005803
137 0.005949
145 0.002996
152 0.002999
159 0.002913
167 0.006838
174 0.006162
146 0.00568
99 0.005617
80 0.003459
88 0.004093
105 0.002952
123 0.00585
137 0.006163
155 0.003947
162 0.003028
159 0.00399
149 0.00644
144 0.006983
148 0.006272
155 0.005985
163 0.003823
169 0.003497
177 0.002988
174 0.006556
126 0.006982
83 0.00399
80 0.00399
91 0.002988
109 0.006643
125 0.006587
146 0.007336
155 0.006982
154 0.002992
146 0.003959
141 0.003889
142 0.006589
146 0.006948
156 0.003999
163 0.003983
170 0.003584
174 0.00738
139 0.00718
80 0.007671
76 0.006242
92 0.002996
109 0.003006
123 0.00384
135 0.006962
146 0.006755
152 0.003513
147 0.00474
141 0.003949
140 0.00638
144 0.006548
157 0.007979
163 0.007937
168 0.005045
174 0.004726
180 0.00299
162 0.00399
103 0.007959
68 0.00779
68 0.004795
80 0.004987
96 0.005774
112 0.007562
125 0.003986
136 0.008
140 0.007888
136 0.005149
132 0.005107
133 0.005824
138 0.007956
145 0.007199
155 0.005255
161 0.005022
166 0.003989
173 0.007652
178 0.003989
123 0.00798
90 0.008105
64 0.004676
68 0.003988
82 0.003033
104 0.00698
115 0.007981
126 0.00596
137 0.006014
141 0.006383
132 0.004025
128 0.003165
132 0.007543
139 0.007465
146 0.004876
153 0.00399
160 0.004038
169 0.006998
150 0.007411
97 0.006384
71 0.004814
68 0.005607
93 0.004019
111 0.004709
128 0.007173
141 0.007785
149 0.004986
145 0.005509
137 0.004949
132 0.007508
135 0.006322
141 0.006169
148 0.004948
155 0.006298
166 0.003989
164 0.00502
100 0.006934
70 0.006981
66 0.004987
76 0.005985
100 0.005987
114 0.007051
126 0.006946
143 0.006905
146 0.005733
144 0.006162
134 0.005983
134 0.004698
141 0.006988
147 0.006032
153 0.00702
160 0.005809
170 0.006358
164 0.003986
97 0.005397
68 0.005351
65 0.005791
74 0.00547
101 0.006015
114 0.005984
131 0.005983
141 0.006642
144 0.005962
139 0.00662
136 0.005955
137 0.006401
142 0.005986
150 0.006031
159 0.006018
167 0.005059
172 0.005929
124 0.005728
91 0.005983
64 0.005618
68 0.005458
89 0.006166
105 0.006156
114 0.005984
130 0.004988
141 0.005988
144 0.006
139 0.00492
136 0.005949
140 0.00591
147 0.004732
154 0.005933
161 0.00591
168 0.005783
175 0.005784
179 0.004902
141 0.00516
86 0.005323
63 0.005078
70 0.005499
99 0.005452
113 0.005531
125 0.004506
138 0.004991
145 0.004956
139 0.004987
132 0.004987
130 0.005031
133 0.004991
139 0.005427
148 0.004785
155 0.004945
165 0.005452
135 0.005327
86 0.005287
65 0.004722
65 0.00382
86 0.005014
104 0.00468
117 0.004824
131 0.005097
142 0.003867
142 0.004846
134 0.004391
132 0.005102
136 0.003748
142 0.003656
149 0.004392
157 0.003993
165 0.00494
149 0.002985
94 0.003975
64 0.003986
58 0.00399
68 0.003992
97 0.003988
110 0.003989
128 0.00399
138 0.00399
140 0.003991
135 0.004033
131 0.00399
134 0.004455
139 0.003992
146 0.003834
154 0.003584
161 0.002801
165 0.003511
115 0.003601
67 0.003523
60 0.003023
69 0.003615
85 0.003993
100 0.003989
117 0.003662
130 0.003989
139 0.003951
139 0.003991
135 0.002995
134 0.002961
138 0.003074
147 0.002
154 0.002992
161 0.002992
167 0.002997
174 0.002029
139 0.002028
86 0.003204
63 0.002637
62 0.002989
75 0.003038
102 0.002992
114 0.003037
131 0.003038
139 0.002669
138 0.003028
133 0.002716
129 0.002541
