146 0.021239
148 0.003986
157 0.004346
161 0.003942
166 0.00414
172 0.004792
157 0.004024
101 0.003697
69 0.004135
70 0.003895
84 0.005032
100 0.002993
112 0.003992
124 0.003994
141 0.005027
145 0.003924
140 0.002996
134 0.003983
135 0.00325
141 0.003518
147 0.003956
155 0.004364
161 0.004082
167 0.003616
173 0.003959
150 0.002959
82 0.003339
63 0.003655
66 0.003873
79 0.002993
102 0.00399
111 0.003989
124 0.003989
138 0.003994
138 0.004598
133 0.00302
130 0.00399
132 0.003152
139 0.002667
146 0.003112
152 0.003856
158 0.003373
166 0.003955
172 0.003939
174 0.003991
134 0.003992
71 0.003232
58 0.002955
65 0.003991
80 0.002997
94 0.002949
108 0.003017
119 0.003994
132 0.002993
136 0.002989
131 0.002656
129 0.001993
131 0.002219
139 0.003545
146 0.002911
153 0.002972
158 0.001958
162 0.001989
168 0.002991
173 0.002992
163 0.00199
77 0.002998
61 0.001965
67 0.001998
82 0.003003
103 0.001996
114 0.001992
126 0.001994
138 0.002964
141 0.002991
133 0.003219
127 0.002048
128 0.002028
138 0.001002
144 0.002992
150 0.002422
156 0.003259
164 0.00212
163 0.002004
117 0.003068
75 0.001956
62 0.002027
74 0.001962
90 0.001962
104 0.000996
124 0.001541
137 0.001995
141 0.001308
137 0.001951
130 0.001304
131 0.001994
135 0.002003
142 0.002026
147 0.00163
153 0.001201
158 0.000986
164 0.000987
123 0.000988
75 0.000964
57 0.000997
60 0.000965
79 0.001001
91 0.001008
101 0.000965
112 0.001508
124 0.000996
132 0.001994
130 0.002028
126 0.000822
128 0.00203
134 0.00112
141 0.001
147 0.000997
153 0.0
160 0.001032
167 0.000983
165 0.000993
117 0.0
73 0.0
59 0.0
69 0.001999
93 0.001036
104 0.000998
114 0.001032
128 0.0
137 0.0
137 0.0
133 0.000948
131 0.0
135 0.0
141 0.000677
151 0.0
158 0.001016
168 0.000734
173 0.001206
178 0.0
182 0.0
184 0.0
188 0.001007
191 0.00102
153 0.00104
92 0.000992
67 0.0
73 0.0
89 0.000998
116 0.000619
128 0.0
140 0.0
148 0.0
147 0.001026
134 0.0
130 0.001001
132 0.001001
138 0.0
145 0.0
153 0.0
159 0.0
168 0.001004
173 0.0
170 0.0
104 0.0
74 0.000956
69 0.0
80 0.001039
96 0.0
110 0.0
120 0.0
137 0.000784
146 0.0
140 0.001001
133 0.0
132 0.0
138 0.0
144 0.0
151 0.001
157 0.001991
165 0.000995
169 0.0
174 0.0
178 0.0
169 0.000998
81 0.0
62 0.001001
64 0.000995
83 0.0
96 0.0
104 0.0
116 0.0
127 0.0
135 0.0
135 0.0
129 0.00096
127 0.001994
134 0.0
140 0.0
147 0.000979
155 0.0
161 0.0
166 0.0
171 0.001889
174 0.000997
177 0.0
179 0.0
170 0.000587
112 0.002952
59 0.0
61 0.00035
75 0.001996
95 0.0
103 0.000999
116 0.0
127 0.001306
134 0.001311
131 0.000961
123 0.000999
120 0.000997
124 0.000988
135 0.000998
143 0.000998
149 0.002033
155 0.000998
161 0.000997
166 0.000991
154 0.000995
101 0.00194
63 0.000996
63 0.001048
76 0.00104
93 0.000997
112 0.000998
124 0.001773
134 0.002026
135 0.00099
128 0.001012
122 0.000951
123 0.003998
128 0.001997
138 0.001992
144 0.001587
149 0.001995
155 0.002329
164 0.000995
145 0.002661
93 0.002028
63 0.001994
60 0.001995
74 0.002
89 0.002759
101 0.001995
110 0.001741
126 0.001952
131 0.001902
131 0.001
124 0.001036
125 0.001022
130 0.002995
137 0.003025
146 0.002605
152 0.001694
158 0.001397
163 0.003038
166 0.003935
172 0.001908
172 0.002044
127 0.001994
66 0.002151
56 0.001994
67 0.003036
82 0.004036
97 0.002043
105 0.002995
116 0.001995
126 0.004599
130 0.003251
125 0.00199
122 0.002007
123 0.002884
134 0.00315
141 0.003276
148 0.003438
154 0.003005
162 0.002089
166 0.002458
169 0.003199
172 0.003843
174 0.003672
177 0.003034
145 0.004024
87 0.002012
58 0.002044
67 0.002997
84 0.002966
99 0.003948
112 0.002448
119 0.003448
133 0.002692
135 0.002992
129 0.003727
120 0.003675
121 0.002982
127 0.002983
139 0.003555
145 0.002952
150 0.004995
155 0.00404
163 0.00395
161 0.002991
116 0.002991
74 0.004822
60 0.00454
71 0.003053
87 0.003031
101 0.003833
115 0.003283
127 0.003428
136 0.004817
132 0.004507
126 0.004925
124 0.004207
128 0.004388
133 0.003661
140 0.004668
146 0.004666
153 0.003955
157 0.003987
166 0.004015
163 0.003993
113 0.004552
70 0.005048
56 0.00499
65 0.003474
79 0.004735
92 0.004747
101 0.005067
110 0.005149
125 0.003106
130 0.004024
124 0.00425
122 0.004981
126 0.00302
132 0.005315
139 0.005216
148 0.005457
155 0.005317
159 0.004863
164 0.004986
169 0.00496
171 0.003989
131 0.005225
63 0.005129
59 0.003913
70 0.005349
85 0.00556
98 0.005648
109 0.00546
120 0.00543
130 0.005508
133 0.005625
129 0.005987
124 0.004028
126 0.005021
134 0.004958
144 0.003922
151 0.004961
155 0.004835
160 0.005981
166 0.004501
170 0.006081
138 0.005793
86 0.006246
64 0.005641
69 0.005093
84 0.004848
107 0.005249
116 0.00609
128 0.005271
137 0.006563
136 0.006264
128 0.004943
125 0.005115
128 0.005948
134 0.00655
141 0.006613
147 0.006981
154 0.003958
161 0.006945
161 0.006114
116 0.0053
75 0.006568
62 0.006796
68 0.006824
87 0.00583
99 0.006591
108 0.006322
119 0.006001
130 0.005767
134 0.006148
128 0.007551
126 0.006608
130 0.005809
137 0.005986
144 0.007281
149 0.006051
156 0.006145
161 0.005194
167 0.005946
169 0.007119
131 0.006987
71 0.005984
60 0.007383
71 0.007028
89 0.006288
99 0.00712
108 0.007139
119 0.007716
130 0.007051
133 0.006539
129 0.006391
127 0.006937
129 0.007363
138 0.005982
147 0.007737
154 0.006708
160 0.007447
166 0.007445
166 0.007063
105 0.007974
73 0.006967
68 0.007534
79 0.006785
93 0.007997
108 0.007028
116 0.006273
134 0.007292
138 0.00745
133 0.005883
127 0.007731
127 0.007785
133 0.007941
139 0.007471
148 0.007749
152 0.007144
158 0.007975
129 0.00797
89 0.007448
74 0.007836
85 0.006932
103 0.00758
110 0.007241
123 0.007274
134 0.007573
140 0.006415
136 0.007125
133 0.006457
131 0.006909
136 0.006946
141 0.007234
151 0.006982
157 0.006986
163 0.006981
131 0.006986
88 0.00698
71 0.006964
71 0.007946
89 0.00708
93 0.007727
108 0.006966
117 0.007672
128 0.007506
135 0.006437
131 0.005942
128 0.006874
131 0.007297
137 0.006854
143 0.006109
149 0.006015
156 0.007335
161 0.0072
166 0.006727
161 0.005981
113 0.005663
69 0.005977
71 0.005832
89 0.006431
101 0.00607
109 0.006922
118 0.00605
128 0.005944
134 0.00649
130 0.006018
126 0.005981
126 0.005983
130 0.006985
141 0.006445
147 0.006729
155 0.007334
161 0.006769
152 0.006043
107 0.006294
77 0.00668
75 0.00502
88 0.005014
103 0.005925
114 0.006073
123 0.006987
139 0.006078
139 0.004989
130 0.006988
128 0.006959
131 0.006941
136 0.005703
142 0.006769
156 0.005883
163 0.006844
171 0.004937
168 0.005603
113 0.004988
56 0.004959
59 0.005698
83 0.005218
99 0.006545
111 0.005897
123 0.006122
137 0.005727
142 0.004985
135 0.005907
130 0.00595
131 0.004991
138 0.006184
151 0.00544
159 0.005013
167 0.004947
175 0.006349
180 0.005541
185 0.00525
190 0.004986
193 0.004993
196 0.004612
199 0.005505
201 0.004269
203 0.004986
206 0.00535
209 0.00528
199 0.004951
94 0.005131
51 0.003959
43 0.003992
56 0.004024
78 0.003935
102 0.003985
113 0.003984
125 0.004978
136 0.00395
136 0.003825
128 0.005009
125 0.005461
131 0.004019
139 0.004987
148 0.005454
157 0.005476
165 0.004028
174 0.004654
180 0.004722
186 0.003719
190 0.003953
195 0.003983
198 0.002951
200 0.004886
201 0.003844
204 0.003956
200 0.004947
137 0.004021
71 0.004182
47 0.004254
57 0.00478
78 0.004009
99 0.003994
123 0.003166
136 0.003944
148 0.004021
146 0.004771
134 0.004003
125 0.003045
126 0.004007
134 0.003954
148 0.003988
158 0.00301
166 0.003719
172 0.003827
180 0.003953
185 0.004213
190 0.003151
149 0.002879
81 0.002953
50 0.002998
51 0.001028
68 0.002959
91 0.002985
115 0.002987
130 0.00298
146 0.003028
151 0.001988
139 0.002676
128 0.00197
127 0.002315
135 0.00243
143 0.002987
151 0.003993
157 0.002248
164 0.002981
173 0.002995
176 0.001985
125 0.001993
45 0.002545
40 0.002897
53 0.001954
73 0.002955
95 0.002084
106 0.002996
120 0.001959
132 0.001961
133 0.001998
124 0.002832
120 0.003557
122 0.002859
136 0.00196
144 0.002152
152 0.002565
158 0.001995
166 0.003031
173 0.001994
170 0.001994
110 0.001783
54 0.001901
37 0.00204
47 0.002592
65 0.003189
89 0.002037
99 0.002952
112 0.00328
123 0.001951
123 0.002085
118 0.001032
115 0.001953
119 0.001716
126 0.002039
139 0.001999
147 0.001991
154 0.002052
164 0.001887
170 0.001006
173 0.000996
130 0.001247
54 0.001789
39 0.002995
47 0.002386
66 0.001031
84 0.001033
98 0.002707
109 0.001628
123 0.002029
125 0.001001
118 0.001001
113 0.0
117 0.001004
125 0.00095
138 0.000993
146 0.000996
152 0.000749
158 0.001037
165 0.000998
172 0.001966
135 0.001407
51 0.0
46 0.000979
60 0.000891
79 0.000975
94 0.0
108 0.001001
122 0.0
132 0.0
129 0.0
121 0.0
117 0.000997
122 0.0
136 0.0
145 0.0
151 0.001019
157 0.001042
164 0.0
170 0.0
131 0.0
70 0.000998
43 0.001032
44 0.0
65 0.0
79 0.0
94 0.001003
106 0.0
118 0.0
121 0.0
117 0.000999
113 0.0
118 0.000955
125 0.001205
134 0.0
142 0.0
153 0.0
159 0.0
166 0.0
169 0.0
174 0.0
175 0.0
136 0.0
58 0.0
40 0.001
46 0.0
62 0.0
80 0.000994
89 0.0
98 0.0
117 0.000997
121 0.001034
115 0.0
114 0.0
119 0.000961
126 0.000996
135 0.000961
144 0.000991
152 0.0
161 0.0
166 0.001037
172 0.001002
177 0.0
179 0.00204
182 0.000967
184 0.001
163 0.000995
77 0.0
49 0.001
51 0.000998
75 0.0
87 0.0
100 0.0
112 0.000998
132 0.0
133 0.001001
125 0.002045
118 0.0
121 0.0
130 0.0
140 0.001033
149 0.0
156 0.0
163 0.0
169 0.0
173 0.000998
181 0.000956
183 0.001002
147 0.000971
69 0.0
50 0.000998
53 0.000999
77 0.000888
95 0.000996
111 0.0
123 0.0
137 0.0
140 0.000968
127 0.0
123 0.001034
127 0.002304
138 0.0
146 0.0
155 0.00103
163 0.001003
169 0.000999
175 0.001001
181 0.0
186 0.0
160 0.001993
61 0.0
46 0.002355
53 0.00203
77 0.000997
92 0.000983
102 0.000968
112 0.002
126 0.001996
135 0.0
131 0.0
126 0.0
127 0.003006
138 0.001045
147 0.001339
156 0.002414
167 0.000935
173 0.002011
180 0.001
184 0.001993
187 0.001999
193 0.001995
192 0.001979
116 0.000998
62 0.002903
48 0.000995
64 0.002029
82 0.002385
95 0.002905
108 0.00103
120 0.001993
131 0.001963
133 0.002997
128 0.003035
123 0.001996
127 0.0
134 0.000997
150 0.002018
158 0.001864
166 0.001864
172 0.00246
178 0.002029
182 0.000994
187 0.002035
183 0.003083
122 0.002992
55 0.002
47 0.001977
59 0.002034
90 0.001875
103 0.001966
112 0.004028
125 0.002996
135 0.00199
132 0.002966
119 0.002996
115 0.004028
117 0.00295
128 0.000998
136 0.002031
142 0.001997
151 0.002388
157 0.001991
162 0.003543
133 0.003269
59 0.001961
40 0.001956
44 0.001
60 0.003932
77 0.004023
93 0.001997
105 0.001036
118 0.000992
122 0.002627
115 0.002557
112 0.003835
115 0.003083
125 0.002942
134 0.002006
142 0.002026
149 0.002996
155 0.002992
164 0.002216
170 0.002955
158 0.00296
63 0.001934
41 0.003949
44 0.004829
59 0.004038
80 0.002958
90 0.00203
99 0.002954
112 0.004044
122 0.00498
122 0.000968
118 0.00299
118 0.001992
128 0.003608
133 0.00403
147 0.002908
156 0.004443
163 0.004879
173 0.002948
178 0.00199
182 0.002955
186 0.005984
190 0.004986
150 0.004029
83 0.002952
48 0.004114
58 0.003032
76 0.003682
91 0.005015
101 0.00398
114 0.00332
127 0.002992
132 0.00299
129 0.004987
122 0.005984
123 0.004009
130 0.00394
145 0.003121
154 0.003987
161 0.003826
168 0.005363
173 0.006401
178 0.003986
184 0.003032
187 0.003992
151 0.005112
86 0.005004
54 0.003978
61 0.004021
93 0.004222
107 0.004807
118 0.004273
131 0.005861
142 0.005618
139 0.004652
130 0.005275
124 0.003949
126 0.005487
133 0.006011
145 0.003949
153 0.003951
164 0.004988
169 0.004994
176 0.003989
177 0.006766
128 0.005259
62 0.00499
52 0.00395
62 0.003987
80 0.00598
96 0.005995
110 0.003932
122 0.004023
137 0.004761
134 0.004254
127 0.005101
124 0.006055
128 0.00699
139 0.005058
147 0.00498
156 0.004836
163 0.004039
170 0.006628
174 0.006947
180 0.00399
186 0.00672
138 0.005163
74 0.005374
47 0.005702
47 0.007554
61 0.006529
83 0.004938
95 0.004934
103 0.004985
115 0.007013
125 0.007046
129 0.004986
123 0.006957
124 0.005043
130 0.005063
139 0.006105
148 0.006985
159 0.007796
167 0.005022
173 0.004985
178 0.00502
182 0.006997
185 0.006644
187 0.005978
117 0.00737
57 0.005996
50 0.005492
62 0.005064
81 0.006329
96 0.007545
109 0.006019
120 0.005985
133 0.005774
137 0.007022
132 0.007022
124 0.004989
128 0.006979
139 0.004811
148 0.006618
157 0.006468
165 0.007969
171 0.00685
177 0.005983
182 0.006792
187 0.005742
170 0.007707
85 0.007537
55 0.00498
60 0.007495
85 0.005558
102 0.005651
114 0.004945
125 0.007879
138 0.007983
142 0.005844
134 0.005977
125 0.007018
126 0.007887
133 0.00701
142 0.006975
155 0.007526
161 0.007451
167 0.006841
174 0.00528
179 0.006981
127 0.007255
72 0.006701
52 0.006944
57 0.006968
75 0.006976
97 0.007776
109 0.0072
129 0.007917
139 0.007272
136 0.006388
131 0.006949
127 0.007521
131 0.005984
136 0.007949
148 0.007057
156 0.007104
164 0.005912
173 0.007356
178 0.007816
187 0.007321
192 0.007058
149 0.006958
101 0.006939
52 0.00693
51 0.006733
65 0.007003
83 0.00698
97 0.007522
109 0.006689
121 0.007457
133 0.007054
135 0.006448
130 0.005943
129 0.007028
132 0.007035
143 0.00684
151 0.006611
160 0.006801
168 0.007185
175 0.007285
182 0.006219
187 0.005639
190 0.006746
194 0.006998
197 0.00593
141 0.006246
76 0.007247
49 0.006693
50 0.007203
66 0.007045
89 0.007087
102 0.006389
112 0.006502
123 0.00622
133 0.006289
130 0.004986
125 0.006309
124 0.006885
130 0.00499
139 0.005984
148 0.006114
157 0.006093
166 0.006217
173 0.006011
178 0.005914
183 0.006569
188 0.004985
180 0.005983
113 0.005984
58 0.006673
55 0.006516
69 0.006358
89 0.005712
106 0.005762
118 0.004652
136 0.004988
146 0.005705
145 0.005657
135 0.004986
126 0.004848
131 0.005163
139 0.004987
150 0.004986
157 0.005733
163 0.006167
170 0.006159
177 0.003988
142 0.004872
82 0.005199
54 0.004928
53 0.004984
80 0.005055
96 0.004917
109 0.004337
127 0.005872
138 0.005467
139 0.005107
132 0.004951
127 0.005658
130 0.004992
137 0.003822
145 0.003994
153 0.005644
164 0.003959
170 0.0045
177 0.004182
159 0.004988
94 0.005034
54 0.005445
46 0.004614
56 0.003991
77 0.004159
90 0.004631
99 0.004168
110 0.004747
129 0.004077
129 0.003843
124 0.004027
123 0.004445
128 0.004249
136 0.004988
144 0.003961
153 0.00396
162 0.00399
167 0.003914
173 0.003999
178 0.004028
162 0.003004
96 0.003663
56 0.003157
49 0.003283
63 0.004507
78 0.004029
89 0.003801
98 0.003774
114 0.004336
125 0.003852
128 0.003969
124 0.002994
122 0.003951
127 0.00399
135 0.003863
144 0.002996
155 0.003155
163 0.002949
168 0.004007
172 0.003966
177 0.003867
184 0.003291
163 0.003829
98 0.003993
51 0.003082
58 0.002968
74 0.00303
90 0.001982
104 0.003991
115 0.003998
128 0.003009
134 0.002777
130 0.002559
122 0.003741
122 0.003997
127 0.003991
142 0.002861
150 0.003399
156 0.002694
161 0.003163
169 0.003283
175 0.003035
145 0.002767
86 0.002599
56 0.001961
59 0.002992
75 0.002988
91 0.002997
111 0.001909
125 0.002996
136 0.001993
136 0.002002
126 0.002883
123 0.002025
126 0.002944
135 0.002585
144 0.001958
154 0.001776
159 0.003191
165 0.002035
175 0.00203
139 0.003035
82 0.001994
55 0.003027
60 0.001959
76 0.001997
91 0.002517
101 0.001888
112 0.001355
129 0.001992
134 0.00204
131 0.001612
126 0.001808
129 0.001998
136 0.002429
145 0.00182
156 0.001777
163 0.00199
169 0.001998
174 0.00199
178 0.000997
184 0.002002
183 0.001998
131 0.000996
53 0.000971
48 0.002
60 0.001134
75 0.001985
87 0.001998
99 0.001001
109 0.000868
121 0.000727
126 0.000998
124 0.002327
119 0.002002
122 0.001999
134 0.001002
143 0.001022
153 0.001031
162 0.000791
169 0.0
177 0.001995
181 0.000738
184 0.000998
186 0.000995
189 0.0
190 0.000823
149 0.000596
59 0.000958
49 0.000678
59 0.001995
75 0.001053
90 0.001031
104 0.000999
114 0.000993
127 0.000998
133 0.000998
130 0.0
123 0.0
124 0.0
135 0.0
145 0.0
154 0.00145
162 0.000998
168 0.00071
175 0.001001
179 0.000997
184 0.000997
187 0.00103
159 0.0
78 0.001001
55 0.001002
67 0.0
86 0.0
102 0.0
113 0.0
126 0.000966
141 0.000999
140 0.0
131 0.001011
124 0.000999
124 0.0
132 0.000945
141 0.0
154 0.0
160 0.0
166 0.0
174 0.0
169 0.0
94 0.0
58 0.000997
53 0.0
65 0.0
83 0.000998
102 0.0
113 0.0
135 0.000636
138 0.0
133 0.0
125 0.0
124 0.0
132 0.0
139 0.001039
147 0.001082
157 0.0
163 0.000997
169 0.0
176 0.00203
126 0.0
70 0.001002
48 0.002031
54 0.000963
64 0.000879
85 0.0
95 0.001
105 0.00203
118 0.000997
129 0.0
128 0.0
123 0.000996
125 0.0
132 0.001036
140 0.002031
151 0.0
158 0.0
162 0.000962
169 0.001034
174 0.001148
181 0.0
173 0.0
112 0.0
64 0.001031
52 0.0
66 0.001038
81 0.001961
96 0.0
105 0.000998
118 0.0
129 0.001001
132 0.002002
127 0.0
124 0.0
128 0.0
135 0.002993
150 0.0
158 0.002
165 0.001998
173 0.0
177 0.0
182 0.000956
187 0.001994
163 0.00198
79 0.0
54 0.000997
55 0.001007
71 0.001993
97 0.0
107 0.001993
117 0.003025
134 0.002028
137 0.001036
130 0.0
124 0.001997
123 0.002992
132 0.000997
141 0.000993
150 0.000998
156 0.002992
165 0.000966
173 0.001959
178 0.00298
120 0.001003
70 0.0
55 0.0
63 0.000996
80 0.002955
97 0.001993
112 0.0
125 0.000997
137 0.0
138 0.001995
131 0.000996
128 0.001995
132 0.001956
143 0.001157
151 0.0
159 0.0
165 0.001996
172 0.002234
181 0.002029
154 0.0
93 0.0
54 0.001001
62 0.001038
79 0.002992
93 0.003989
107 0.0
118 0.001994
131 0.001037
138 0.002993
136 0.002938
130 0.002032
132 0.001
139 0.001001
152 0.000998
160 0.0
167 0.003893
173 0.002957
180 0.00096
186 0.002016
189 0.001965
149 0.003988
84 0.00399
50 0.001994
56 0.002995
71 0.002411
94 0.002037
104 0.002033
115 0.002982
129 0.002991
136 0.002029
133 0.001998
129 0.000997
130 0.003706
136 0.003983
148 0.00104
156 0.003024
164 0.000986
176 0.001992
181 0.002036
185 0.003992
190 0.003947
189 0.002015
132 0.002993
74 0.000998
52 0.003775
57 0.002984
80 0.002993
96 0.000997
107 0.00288
127 0.001956
138 0.002989
140 0.001954
133 0.004389
128 0.003863
131 0.002958
138 0.003025
146 0.00282
154 0.004989
161 0.00499
168 0.003039
173 0.001991
183 0.0
158 0.002954
94 0.001959
59 0.004985
55 0.004989
76 0.00199
94 0.002989
108 0.002993
121 0.004013
137 0.004961
145 0.003986
140 0.002981
130 0.002961
132 0.002992
139 0.003026
147 0.005022
156 0.005987
165 0.001996
171 0.002039
178 0.00296
185 0.005924
164 0.005038
82 0.002992
54 0.003956
64 0.003988
80 0.002953
95 0.003983
107 0.004916
119 0.006026
136 0.003955
139 0.00299
135 0.003987
130 0.005951
132 0.006018
140 0.003953
147 0.002979
161 0.00299
168 0.00303
174 0.00395
179 0.005993
184 0.005533
188 0.003947
147 0.002993
81 0.004948
51 0.005552
49 0.006051
69 0.004922
85 0.003831
104 0.004335
116 0.004077
129 0.00408
135 0.005989
132 0.006988
126 0.003954
128 0.002992
134 0.004024
142 0.006982
151 0.006986
162 0.003988
169 0.004025
177 0.005984
183 0.003953
186 0.00395
190 0.00403
185 0.005951
124 0.007579
57 0.002991
48 0.004616
60 0.004938
78 0.006986
94 0.007415
109 0.003473
127 0.006983
138 0.00495
135 0.004024
128 0.005049
124 0.006583
129 0.006012
139 0.00492
148 0.003953
156 0.003951
163 0.005986
169 0.006992
175 0.005699
181 0.00702
172 0.003953
109 0.003985
63 0.004947
52 0.006986
63 0.00698
87 0.004985
103 0.003987
115 0.004986
129 0.006428
140 0.007515
139 0.00402
128 0.007098
127 0.00522
132 0.00602
140 0.00598
149 0.007529
157 0.00702
166 0.005939
172 0.005983
178 0.004984
182 0.007944
137 0.007974
76 0.006366
48 0.007013
60 0.006021
77 0.005533
91 0.005016
102 0.007913
114 0.007554
130 0.005949
134 0.006025
129 0.003992
124 0.007673
125 0.007017
133 0.005472
147 0.007879
155 0.006002
162 0.005982
168 0.005982
173 0.007498
177 0.007334
183 0.005992
185 0.006207
146 0.004984
80 0.007011
45 0.007473
50 0.008054
72 0.007982
91 0.007457
100 0.006017
111 0.006037
124 0.005982
130 0.007939
127 0.007512
123 0.006781
124 0.006092
131 0.00695
142 0.006979
147 0.007943
161 0.007936
170 0.007601
175 0.005985
180 0.00598
183 0.006946
188 0.007617
179 0.007609
114 0.007336
63 0.005981
49 0.005019
62 0.007465
80 0.005987
104 0.00647
114 0.007321
128 0.006014
137 0.007026
135 0.006654
125 0.007472
121 0.006985
128 0.007007
133 0.00659
145 0.006764
153 0.005945
160 0.005341
168 0.007016
172 0.007337
177 0.00632
173 0.006298
113 0.005945
64 0.006949
49 0.005985
63 0.007017
81 0.006987
97 0.005952
109 0.005934
122 0.005971
139 0.007104
136 0.007163
127 0.006718
126 0.00593
131 0.006609
139 0.006979
147 0.006253
158 0.006586
163 0.006026
172 0.005707
178 0.005165
182 0.006016
189 0.006685
187 0.006053
110 0.005262
60 0.006807
46 0.005929
53 0.00611
70 0.005982
86 0.00659
101 0.005023
112 0.005815
125 0.006422
132 0.004877
127 0.006004
123 0.006486
126 0.00502
135 0.005744
143 0.005662
152 0.00541
160 0.005326
167 0.004207
176 0.004783
182 0.00538
185 0.004943
188 0.00599
194 0.006138
176 0.004985
104 0.005913
51 0.004985
47 0.005763
60 0.005885
77 0.005017
92 0.00502
107 0.005783
119 0.004744
130 0.004997
132 0.004025
124 0.00399
122 0.005697
126 0.005669
137 0.00392
147 0.003932
155 0.004991
163 0.005405
170 0.003991
178 0.00499
182 0.004988
186 0.005374
191 0.004038
173 0.004798
101 0.005748
61 0.00542
57 0.004869
72 0.005449
91 0.005269
107 0.003761
120 0.004988
138 0.003884
146 0.003861
143 0.003706
134 0.003961
128 0.005044
133 0.004534
141 0.003993
153 0.004025
161 0.00404
168 0.003993
174 0.003956
180 0.003618
187 0.004913
177 0.003883
111 0.00299
64 0.003302
53 0.003956
68 0.004748
86 0.003868
104 0.004349
116 0.002936
130 0.003992
139 0.004348
138 0.003026
131 0.002994
128 0.004336
132 0.003991
139 0.002743
153 0.003463
161 0.002988
168 0.002958
174 0.003032
181 0.004373
185 0.003992
190 0.002994
169 0.002948
98 0.002996
48 0.003001
45 0.002958
59 0.004028
86 0.004285
97 0.004306
107 0.002908
121 0.00373
131 0.00298
129 0.003991
123 0.002776
122 0.003505
127 0.002994
138 0.00227
147 0.001964
156 0.002108
167 0.00336
173 0.002996
178 0.001994
183 0.003024
185 0.003989
136 0.00302
74 0.003069
50 0.002071
52 0.003044
73 0.002168
89 0.002119
101 0.002668
120 0.001783
132 0.00205
133 0.002982
127 0.002597
120 0.001995
122 0.002029
129 0.002994
138 0.0019
146 0.002955
154 0.003001
160 0.001993
165 0.001294
175 0.003035
156 0.002995
92 0.00276
54 0.002038
50 0.003023
64 0.002004
81 0.002994
95 0.002047
106 0.002251
125 0.002145
131 0.002183
128 0.003005
118 0.003029
120 0.001998
126 0.002569
135 0.002029
146 0.002995
154 0.002042
160 0.000995
166 0.000997
171 0.001528
178 0.000956
161 0.001503
95 0.001643
45 0.001617
50 0.002313
65 0.00233
81 0.001017
93 0.002059
106 0.001995
120 0.001609
128 0.001997
129 0.002017
124 0.001044
123 0.002028
129 0.000999
143 0.00195
151 0.001356
159 0.000966
166 0.001028
172 0.001996
178 0.001997
184 0.001001
187 0.00104
155 0.001033
87 0.000989
48 0.001188
51 0.001002
76 0.0012
89 0.000685
98 0.000816
109 0.001029
123 0.000999
131 0.001031
128 0.001998
124 0.000888
125 0.0
130 0.001041
141 0.0
150 0.0
163 0.000583
169 0.0
174 0.001031
178 0.000666
182 0.0
187 0.001039
171 0.0
102 0.0
59 0.0
50 0.001058
66 0.0
84 0.000999
106 0.000999
118 0.0
132 0.0
138 0.0
135 0.0
125 0.0
124 0.0
129 0.0
137 0.001012
146 0.001003
157 0.0
164 0.0
174 0.0
179 0.0
185 0.0
159 0.0
93 0.0
54 0.0
57 0.0
73 0.0
97 0.0
106 0.000997
118 0.0
137 0.0
145 0.0
137 0.0
133 0.0
134 0.0
142 0.0
150 0.0
158 0.0
166 0.001038
175 0.0
181 0.0
186 0.0
190 0.0
196 0.0
164 0.000968
90 0.001995
48 0.0
50 0.0
65 0.000948
82 0.001005
96 0.001992
110 0.0
124 0.0
135 0.000997
137 0.001999
131 0.000993
130 0.001031
134 0.001125
145 0.0
154 0.0
163 0.0
170 0.000996
177 0.000997
185 0.0
189 0.0
193 0.001005
197 0.002041
189 0.0
117 0.003021
63 0.001996
48 0.001001
54 0.000996
77 0.0
94 0.001033
106 0.002024
123 0.0
136 0.0
140 0.0
136 0.001995
127 0.000993
130 0.002034
137 0.001996
149 0.0
158 0.000965
167 0.000962
176 0.001031
184 0.001986
190 0.0
195 0.0
192 0.0
133 0.002219
55 0.0
53 0.00204
66 0.001995
86 0.001996
108 0.0
121 0.00104
136 0.0
145 0.002359
143 0.002
131 0.0
126 0.0
129 0.000997
142 0.000963
150 0.0
157 0.002981
162 0.002985
171 0.00097
177 0.000993
168 0.0
106 0.002029
59 0.002531
46 0.000969
58 0.0
75 0.001041
98 0.0
110 0.0
124 0.002086
132 0.002971
129 0.0
123 0.0
122 0.002028
127 0.003674
134 0.004027
145 0.001034
153 0.001958
161 0.001964
170 0.002029
175 0.001389
180 0.003994
176 0.002929
92 0.001041
50 0.001993
40 0.000996
49 0.003031
65 0.003156
82 0.001996
92 0.000997
104 0.0
123 0.000965
123 0.00096
119 0.003029
117 0.003004
123 0.001001
130 0.0
138 0.00097
147 0.003841
155 0.003682
163 0.001996
168 0.002944
173 0.002003
181 0.0
169 0.00204
102 0.002992
56 0.003987
45 0.002085
56 0.001989
73 0.0
86 0.004048
96 0.003294
111 0.001956
123 0.002
125 0.002675
116 0.002
115 0.001984
120 0.001991
128 0.003986
137 0.003955
148 0.003046
155 0.000997
160 0.002
165 0.004538
170 0.004446
177 0.003117
155 0.002992
62 0.001998
48 0.00295
56 0.003078
72 0.003991
88 0.005026
104 0.001991
117 0.002026
129 0.001983
131 0.003808
126 0.004935
118 0.002356
120 0.002889
132 0.002043
141 0.0
149 0.0
155 0.005049
161 0.004745
168 0.003143
174 0.002951
174 0.002994
130 0.004305
72 0.004228
45 0.003913
51 0.002996
76 0.002992
88 0.000997
98 0.001995
110 0.004989
122 0.006021
125 0.003989
120 0.002995
118 0.003978
121 0.005191
128 0.005485
139 0.004087
148 0.003742
160 0.00299
166 0.002992
171 0.00395
175 0.005987
179 0.005988
184 0.002959
155 0.001994
87 0.002951
51 0.005773
45 0.005882
62 0.003646
77 0.003958
95 0.003943
105 0.003031
118 0.001994
127 0.006272
127 0.006062
121 0.003004
122 0.002874
128 0.002667
136 0.005264
144 0.005421
156 0.003852
163 0.005046
173 0.00399
178 0.004376
182 0.003955
185 0.004987
189 0.005983
178 0.005987
92 0.003534
57 0.002034
52 0.003974
65 0.006531
82 0.00672
101 0.002989
115 0.006729
133 0.003944
138 0.003956
133 0.002974
125 0.005986
123 0.006866
130 0.002989
139 0.004453
147 0.005984
156 0.006013
162 0.007429
169 0.005376
177 0.006522
184 0.00508
163 0.003951
97 0.003951
60 0.006837
54 0.00718
72 0.002841
89 0.004765
104 0.004791
115 0.006985
129 0.006459
141 0.005937
137 0.006667
129 0.006259
130 0.003983
136 0.00299
146 0.007568
151 0.006891
161 0.005536
168 0.006163
173 0.006058
178 0.007513
183 0.007455
177 0.005729
91 0.007233
47 0.003985
48 0.003975
61 0.004952
76 0.007979
89 0.007123
101 0.005383
115 0.006827
126 0.005174
129 0.007741
124 0.007976
123 0.005099
129 0.00688
140 0.004986
148 0.00595
157 0.006342
164 0.006933
169 0.007655
176 0.005141
182 0.006281
180 0.005984
127 0.008034
60 0.007331
47 0.005758
66 0.007698
81 0.005
93 0.005951
102 0.006012
114 0.00498
126 0.008168
129 0.007247
123 0.007123
120 0.005275
123 0.006086
133 0.007678
141 0.007689
152 0.007979
158 0.007532
165 0.005978
171 0.005064
176 0.00495
117 0.00778
67 0.007065
51 0.00641
58 0.005548
74 0.006798
94 0.006986
105 0.00691
127 0.007559
133 0.007772
131 0.006652
123 0.004985
119 0.007027
122 0.00798
133 0.007874
141 0.00613
150 0.00689
157 0.006671
164 0.007619
169 0.006788
90 0.007765
58 0.007222
54 0.00692
66 0.004982
82 0.007008
99 0.00709
110 0.006564
124 0.006907
134 0.00697
132 0.006765
126 0.00685
124 0.006539
133 0.00766
141 0.006332
148 0.007098
155 0.005024
161 0.005981
168 0.006089
173 0.006204
133 0.005672
90 0.006095
47 0.005968
46 0.004989
59 0.006025
80 0.006979
88 0.005992
102 0.006282
115 0.007137
123 0.006684
122 0.006004
119 0.006917
119 0.006842
127 0.005882
135 0.006783
143 0.006009
151 0.004819
162 0.006088
167 0.006411
174 0.006408
177 0.005937
145 0.006681
83 0.005961
52 0.006019
49 0.005988
66 0.006546
80 0.00502
90 0.006579
99 0.005367
120 0.005793
127 0.006469
127 0.00552
122 0.006077
123 0.006086
130 0.006241
138 0.004617
146 0.004883
157 0.005341
164 0.004751
170 0.004995
174 0.006143
181 0.005775
186 0.005989
156 0.005984
76 0.00611
55 0.006173
60 0.003992
76 0.004986
92 0.004933
108 0.004596
120 0.005957
134 0.006026
140 0.003844
131 0.005913
125 0.004753
127 0.005548
138 0.005761
146 0.005728
154 0.003945
162 0.004008
170 0.003952
179 0.004828
186 0.004864
165 0.004026
101 0.00402
60 0.005627
68 0.005528
84 0.005125
105 0.005034
117 0.00511
131 0.00499
143 0.004912
145 0.004999
137 0.004517
132 0.004568
134 0.003771
140 0.003884
153 0.005487
161 0.004176
166 0.003161
174 0.004464
180 0.004991
185 0.004042
147 0.002995
84 0.003955
51 0.005021
55 0.004028
70 0.003987
84 0.004069
101 0.003091
113 0.004784
127 0.00404
134 0.004182
131 0.003989
127 0.004377
129 0.003651
135 0.003989
143 0.004017
154 0.003992
162 0.002849
169 0.003055
178 0.003927
183 0.00394
188 0.004019
170 0.004144
84 0.00399
53 0.002996
51 0.00299
64 0.003076
80 0.004508
95 0.003522
104 0.003466
117 0.003233
133 0.002791
132 0.003991
128 0.002595
127 0.00399
135 0.003805
143 0.002027
151 0.004028
159 0.003964
166 0.003033
174 0.004029
179 0.002997
185 0.003989
167 0.003984
101 0.003956
64 0.00299
58 0.00399
74 0.00363
89 0.004234
100 0.002992
110 0.001869
123 0.001996
136 0.001816
134 0.00204
126 0.002991
123 0.003114
129 0.003122
137 0.003274
145 0.003235
154 0.002996
159 0.001997
165 0.001997
172 0.002001
158 0.00296
82 0.00296
54 0.002013
54 0.00263
79 0.001874
93 0.003021
104 0.002992
118 0.001994
134 0.001972
135 0.001999
130 0.001997
126 0.001946
127 0.002992
136 0.001608
145 0.000998
153 0.002036
164 0.00203
169 0.002271
175 0.001028
180 0.000995
134 0.001912
75 0.001994
50 0.002996
49 0.001995
62 0.001996
77 0.001989
91 0.000997
100 0.001938
121 0.001868
126 0.001998
124 0.002156
121 0.001028
122 0.001037
130 0.002
138 0.001
146 0.001001
154 0.001003
160 0.001006
167 0.002001
172 0.000938
179 0.001995
137 0.002037
78 0.000995
51 0.000816
51 0.000965
70 0.001631
83 0.001035
94 0.000883
103 0.0
116 0.0
128 0.000681
127 0.0
121 0.000537
124 0.001309
130 0.0
138 0.000987
146 0.0
156 0.000985
162 0.000995
167 0.001
172 0.0
176 0.0
177 0.000711
125 0.001044
55 0.001048
54 0.0
68 0.001238
84 0.0
96 0.0
109 0.0
123 0.0
131 0.0
130 0.0
123 0.0
118 0.001
122 0.0
136 0.001001
144 0.0
151 0.001
158 0.0
164 0.0
172 0.001
141 0.001
86 0.0
58 0.001002
58 0.0
78 0.000857
93 0.0
112 0.0
126 0.0
137 0.0
139 0.0
134 0.0
130 0.0
134 0.0
141 0.0
152 0.000964
160 0.0
166 0.000995
172 0.002029
180 0.0
184 0.002031
138 0.002029
68 0.00097
55 0.0
62 0.0
77 0.001995
90 0.001997
103 0.0
113 0.0
126 0.0
134 0.001892
131 0.0
130 0.001966
132 0.001043
141 0.0
150 0.0
158 0.0
165 0.00105
171 0.002033
178 0.0
183 0.0
188 0.0
157 0.001148
66 0.0
55 0.001152
63 0.001199
83 0.0
96 0.0
105 0.000998
116 0.002235
129 0.003034
136 0.0
132 0.0
127 0.0
128 0.002994
138 0.0
146 0.002984
154 0.000988
162 0.0
166 0.0
170 0.0
175 0.001309
177 0.002041
111 0.0
69 0.000996
60 0.001033
70 0.001299
99 0.000965
110 0.001585
119 0.001994
137 0.0
142 0.0
137 0.001932
129 0.001963
126 0.001543
132 0.0
139 0.0
147 0.0
155 0.0
165 0.0
172 0.000963
177 0.001282
137 0.002031
71 0.00021
58 0.0
67 0.0
83 0.002225
98 0.002217
114 0.0
128 0.000998
140 0.001996
142 0.000997
136 0.001956
134 0.002997
138 0.003028
148 0.000949
156 0.001006
163 0.000997
170 0.002431
176 0.001997
183 0.000999
189 0.001769
172 0.00102
72 0.000961
53 0.000996
58 0.003004
73 0.003585
92 0.002021
103 0.002033
113 0.0
127 0.00335
137 0.003203
137 0.000961
133 0.001998
133 0.000962
142 0.0
150 0.001
159 0.003995
167 0.003196
176 0.001964
181 0.002929
185 0.0
191 0.002992
187 0.003069
103 0.001986
63 0.001989
55 0.002015
77 0.001962
92 0.0
104 0.002996
113 0.003992
132 0.001992
139 0.001998
138 0.001974
132 0.003959
130 0.003557
135 0.001836
143 0.001991
151 0.001969
164 0.001952
170 0.001955
174 0.002986
180 0.003115
186 0.001957
150 0.001735
87 0.002992
60 0.003994
60 0.004178
82 0.00203
99 0.002999
111 0.003033
133 0.0
144 0.00261
145 0.002992
138 0.003944
132 0.004367
134 0.001972
141 0.001998
149 0.001572
157 0.004185
163 0.004316
172 0.002884
179 0.001556
146 0.000997
86 0.001995
59 0.001995
59 0.005008
73 0.004349
95 0.001988
108 0.001965
120 0.001972
136 0.004075
147 0.004801
145 0.001941
141 0.002034
142 0.002024
148 0.002001
156 0.002989
163 0.003954
170 0.00511
179 0.002968
185 0.002625
191 0.002406
194 0.005121
141 0.005023
68 0.002015
55 0.001961
73 0.002
89 0.002927
100 0.002952
110 0.005022
124 0.004555
140 0.002483
143 0.002812
139 0.003894
136 0.005007
139 0.005394
148 0.003023
156 0.002983
168 0.002021
174 0.002976
180 0.001992
185 0.004816
191 0.004987
159 0.004353
90 0.002953
58 0.001961
56 0.005698
70 0.005815
94 0.003954
107 0.002991
127 0.002993
139 0.001991
142 0.004386
136 0.005045
128 0.005136
126 0.003561
133 0.002828
141 0.002282
148 0.006046
154 0.00613
163 0.003859
170 0.002957
170 0.005986
94 0.002956
56 0.002993
50 0.003982
63 0.006009
81 0.006046
101 0.003989
113 0.001993
128 0.003963
139 0.005516
139 0.005666
130 0.004975
129 0.007022
137 0.005262
147 0.004022
155 0.003538
162 0.007675
168 0.006305
177 0.005151
174 0.0042
115 0.003701
66 0.006371
51 0.00602
63 0.003868
85 0.005986
101 0.00385
112 0.002034
126 0.002992
135 0.006975
136 0.006982
129 0.005776
129 0.005711
134 0.004512
141 0.006953
149 0.006783
159 0.005772
168 0.006317
177 0.004964
182 0.004178
145 0.004122
81 0.007139
52 0.006494
55 0.00403
71 0.004854
86 0.003984
97 0.00703
107 0.006952
125 0.004161
133 0.007003
128 0.004487
125 0.005103
127 0.006087
134 0.007044
145 0.007751
153 0.004502
160 0.004575
166 0.004942
171 0.007094
177 0.007189
168 0.006611
85 0.008013
52 0.005984
58 0.006019
75 0.005994
91 0.007231
102 0.007919
116 0.006134
130 0.00571
135 0.005481
127 0.00796
122 0.007511
126 0.006756
136 0.007326
147 0.007706
153 0.005383
157 0.00499
162 0.005134
168 0.007448
158 0.007979
84 0.005979
55 0.005878
53 0.005768
67 0.008133
88 0.007403
104 0.007604
121 0.00729
131 0.005316
132 0.004039
126 0.006909
122 0.007942
125 0.007975
133 0.006884
140 0.006993
148 0.006858
156 0.006987
162 0.00714
173 0.007633
146 0.006939
69 0.006978
52 0.006722
48 0.00568
59 0.007931
79 0.007649
94 0.006185
101 0.005628
115 0.005491
129 0.006773
130 0.006049
125 0.00719
127 0.007717
136 0.006947
142 0.00713
151 0.005454
162 0.006952
169 0.007088
176 0.006561
179 0.005949
185 0.006059
175 0.007028
109 0.005984
54 0.005983
57 0.005984
78 0.006022
92 0.006993
102 0.006981
112 0.006563
125 0.006015
135 0.006382
132 0.006088
126 0.006013
125 0.005751
130 0.00569
144 0.006644
152 0.004951
160 0.006841
164 0.006689
168 0.006156
173 0.00579
178 0.005988
152 0.00525
76 0.006037
56 0.006002
57 0.005983
77 0.00605
99 0.005906
114 0.005618
128 0.00593
141 0.005985
139 0.005988
132 0.005986
127 0.004641
128 0.006025
137 0.00598
145 0.00595
152 0.006018
159 0.00654
168 0.006228
174 0.005047
162 0.003945
85 0.005986
57 0.005353
56 0.005349
70 0.006133
88 0.005425
106 0.005018
118 0.005499
132 0.005368
140 0.005
137 0.005948
129 0.005041
130 0.004272
138 0.004989
146 0.005636
154 0.004643
161 0.004029
168 0.005025
176 0.004995
181 0.005043
186 0.004978
189 0.005029
102 0.004974
59 0.004986
47 0.003989
61 0.003984
77 0.00504
91 0.004007
102 0.003984
113 0.005011
130 0.003978
134 0.003965
131 0.004376
126 0.004985
130 0.005304
137 0.005148
145 0.003727
155 0.004521
162 0.00509
169 0.0045
175 0.003941
180 0.00388
186 0.003994
189 0.00303
191 0.002952
185 0.00399
80 0.003989
51 0.004988
50 0.003994
70 0.004028
87 0.00399
101 0.003629
112 0.003653
125 0.002851
136 0.003672
137 0.003642
131 0.004343
126 0.003672
132 0.003689
139 0.004101
148 0.00332
156 0.003957
165 0.003998
171 0.003992
176 0.00311
180 0.002992
186 0.003988
173 0.004027
106 0.002996
64 0.002954
59 0.003237
76 0.002917
95 0.002832
110 0.003042
128 0.002966
143 0.002956
149 0.003061
144 0.003998
134 0.002991
129 0.003988
132 0.002536
139 0.002992
152 0.003115
159 0.003003
165 0.002026
172 0.002991
175 0.001956
125 0.003022
72 0.00334
52 0.001997
56 0.001933
79 0.002792
96 0.001812
109 0.00268
132 0.001784
142 0.003581
142 0.002395
135 0.001994
130 0.00399
133 0.001729
139 0.002047
146 0.001954
153 0.001945
161 0.002997
167 0.001993
173 0.002983
181 0.00202
149 0.002991
82 0.001587
50 0.003002
48 0.002166
62 0.001635
78 0.001646
91 0.001744
101 0.001998
119 0.002485
129 0.001945
131 0.001617
124 0.001982
123 0.002037
128 0.003032
136 0.002957
144 0.002101
155 0.002015
161 0.003036
168 0.00203
173 0.001287
178 0.002154
154 0.000997
90 0.000858
50 0.001994
57 0.001957
73 0.001987
88 0.001959
101 0.002
115 0.001009
128 0.001021
134 0.001966
129 0.001963
122 0.000997
121 0.001036
126 0.001034
139 0.001009
147 0.000973
153 0.000996
158 0.000995
163 0.002005
171 0.000555
139 0.001667
81 0.001992
54 0.0
53 0.000782
73 0.000782
89 0.001839
108 0.001324
122 0.0
132 0.001685
131 0.000996
123 0.0
117 0.000962
119 0.000963
126 0.0
134 0.001002
142 0.000793
151 0.000997
158 0.000965
151 0.001003
97 0.001
60 0.001038
52 0.000654
62 0.001001
82 0.0
94 0.0
105 0.0
118 0.0
129 0.0
130 0.001035
124 0.0
124 0.000998
130 0.001277
138 0.0
146 0.0
154 0.0
162 0.0
167 0.0
174 0.0
177 0.001002
135 0.0
66 0.0
51 0.001001
66 0.0
80 0.001042
91 0.0
100 0.001026
111 0.000998
123 0.000999
129 0.0
126 0.000177
123 0.0
125 0.000996
131 0.0
142 0.001997
155 0.0
162 0.00303
168 0.003038
174 0.000965
179 0.0
181 0.0
136 0.00195
79 0.002035
54 0.0
61 0.001047
75 0.0
89 0.000996
105 0.0
117 0.003019
129 0.002047
132 0.0
127 0.000971
124 0.0
127 0.002059
133 0.002034
144 0.0
153 0.0
160 0.001039
166 0.001167
172 0.000964
179 0.001996
184 0.001995
146 0.0
86 0.000997
60 0.0
61 0.001969
76 0.001462
98 0.0
109 0.0
120 0.0
133 0.001214
140 0.0
133 0.001076
126 0.000955
127 0.000959
135 0.0
144 0.0
151 0.001994
158 0.001243
165 0.0
171 0.0
178 0.000962
162 0.003021
75 0.0
60 0.001973
66 0.001955
88 0.000994
103 0.001026
114 0.0
127 0.003024
140 0.001999
143 0.000974
138 0.0
133 0.0
134 0.001995
145 0.0
152 0.00196
159 0.001957
166 0.001997
174 0.0
179 0.0
186 0.0
181 0.003026
121 0.002996
62 0.0
55 0.000998
64 0.0
90 0.0
102 0.0
112 0.001995
125 0.001994
137 0.0
137 0.0
132 0.0
130 0.002033
133 0.002225
142 0.0
150 0.000961
159 0.000998
171 0.0
176 0.0
181 0.002958
187 0.002993
185 0.0
127 0.001994
73 0.0
55 0.002961
59 0.002962
81 0.001808
96 0.0
107 0.0
126 0.0
137 0.0
140 0.00324
134 0.00324
128 0.002002
131 0.000999
136 0.0
144 0.003278
152 0.003029
161 0.000963
166 0.0
172 0.001996
182 0.002004
158 0.001955
94 0.003347
61 0.003256
59 0.001951
74 0.0
90 0.002009
103 0.002717
114 0.002954
131 0.001987
137 0.001951
133 0.001962
121 0.001999
122 0.002
128 0.003991
136 0.004988
146 0.001994
154 0.001818
161 0.002991
169 0.004991
154 0.004281
82 0.001365
57 0.002992
57 0.000959
84 0.00293
99 0.001993
111 0.0
126 0.004248
139 0.003301
141 0.001954
135 0.0
131 0.001995
132 0.003991
138 0.003258
149 0.000995
156 0.001034
167 0.001991
174 0.003026
181 0.002154
162 0.003994
98 0.003992
56 0.003044
56 0.002987
71 0.002
87 0.003991
100 0.004023
114 0.001994
127 0.00203
139 0.002905
137 0.002893
132 0.001996
132 0.004307
136 0.004834
146 0.002873
154 0.001725
161 0.002433
167 0.004597
174 0.00397
183 0.001018
166 0.00396
72 0.001993
55 0.003027
60 0.002134
75 0.005021
90 0.005038
105 0.001989
116 0.002676
129 0.002925
136 0.004997
135 0.005986
128 0.001995
127 0.002013
137 0.002963
145 0.001996
153 0.002994
159 0.005949
165 0.004602
174 0.002924
176 0.002956
128 0.003027
76 0.004942
58 0.005542
67 0.002961
85 0.001024
108 0.002992
119 0.00268
132 0.001993
140 0.005538
138 0.005395
128 0.002954
125 0.001998
129 0.002007
136 0.004891
143 0.005987
152 0.003958
158 0.003094
168 0.005975
130 0.002882
79 0.002969
58 0.003953
61 0.005994
76 0.006452
98 0.003137
109 0.003957
122 0.004041
134 0.006244
138 0.006703
131 0.003949
125 0.005456
130 0.004218
137 0.00259
145 0.002477
152 0.005984
158 0.006481
168 0.003981
168 0.003951
117 0.002924
68 0.007218
52 0.006977
60 0.003954
81 0.006984
95 0.002967
105 0.003958
118 0.004054
126 0.007011
127 0.006946
122 0.005261
121 0.005023
125 0.005013
132 0.007012
139 0.006958
148 0.005017
158 0.006205
154 0.003857
104 0.004405
65 0.003365
53 0.007027
60 0.007425
80 0.004343
91 0.002988
101 0.002619
113 0.007427
125 0.007751
130 0.003992
125 0.006894
126 0.004833
131 0.005213
139 0.004985
146 0.006674
153 0.006794
163 0.005135
164 0.005189
120 0.006144
74 0.006983
59 0.007981
69 0.004951
90 0.006816
104 0.004977
115 0.005954
129 0.004993
134 0.007179
131 0.006981
124 0.005746
126 0.005414
131 0.005718
136 0.00395
144 0.008258
148 0.007085
160 0.007726
151 0.007267
86 0.004947
61 0.00576
62 0.005047
79 0.007382
102 0.007688
113 0.005809
125 0.004988
137 0.004957
138 0.007607
133 0.007778
133 0.007808
139 0.006919
147 0.005425
153 0.005501
159 0.005852
164 0.007953
170 0.007683
162 0.006948
124 0.006032
75 0.005985
59 0.007884
69 0.00775
93 0.00716
104 0.007011
114 0.007046
127 0.005055
134 0.004757
132 0.007866
129 0.007205
130 0.005747
135 0.004987
142 0.006024
152 0.006986
158 0.00598
170 0.007975
177 0.006949
161 0.007218
102 0.00698
67 0.006846
62 0.006013
75 0.006982
90 0.006688
100 0.007231
110 0.005989
128 0.007011
137 0.006477
135 0.006392
133 0.006516
136 0.0063
141 0.00599
149 0.00654
159 0.006175
167 0.006343
175 0.006317
179 0.004983
185 0.004988
189 0.006016
191 0.006436
193 0.005778
195 0.006976
197 0.005936
199 0.006021
200 0.006667
196 0.006129
126 0.005922
72 0.006424
58 0.005756
71 0.005892
85 0.005947
109 0.006665
124 0.005946
140 0.005984
144 0.006019
136 0.005975
127 0.005917
126 0.005956
131 0.00629
139 0.00556
150 0.00568
159 0.005638
166 0.005008
171 0.004791
179 0.006302
184 0.00508
186 0.005943
122 0.004988
74 0.005979
59 0.005026
66 0.004987
83 0.004991
105 0.00598
117 0.006014
130 0.005465
144 0.00537
146 0.005176
139 0.005075
135 0.005859
140 0.004803
147 0.005089
155 0.005392
163 0.0049
171 0.005007
179 0.005594
185 0.004954
190 0.004988
195 0.005589
162 0.003989
93 0.004987
60 0.004079
57 0.005521
72 0.00563
90 0.003794
103 0.004792
112 0.003989
130 0.003989
139 0.003977
140 0.003991
135 0.004983
131 0.00502
136 0.004987
143 0.004986
154 0.005028
162 0.003992
169 0.00499
175 0.003992
179 0.005033
185 0.005037
189 0.004988
167 0.003989
99 0.004321
53 0.004262
59 0.004015
76 0.004828
97 0.003669
107 0.004823
118 0.003532
131 0.00399
136 0.005238
132 0.003624
121 0.003523
121 0.003885
127 0.003537
140 0.003577
147 0.003992
152 0.004024
157 0.002986
165 0.004028
171 0.00399
140 0.00399
82 0.003992
55 0.003914
57 0.003959
74 0.003989
91 0.004009
110 0.003493
123 0.004039
133 0.00279
132 0.004423
122 0.002991
119 0.004164
122 0.002794
129 0.003089
137 0.002715
147 0.002574
154 0.003993
161 0.003994
166 0.003002
118 0.002696
68 0.003989
51 0.003996
60 0.002961
75 0.001996
89 0.00266
98 0.002993
109 0.003324
126 0.002449
129 0.002516
125 0.002997
121 0.00299
126 0.002992
133 0.002994
141 0.002953
151 0.002949
158 0.002995
163 0.002005
169 0.002992
175 0.002991
149 0.003372
86 0.002042
54 0.001808
55 0.002623
70 0.002035
84 0.002083
93 0.001997
107 0.003029
120 0.001797
127 0.001642
125 0.001902
121 0.003024
122 0.001999
128 0.002953
135 0.001995
149 0.001995
157 0.00203
163 0.002994
167 0.001993
173 0.001995
177 0.001995
180 0.001995
153 0.000949
89 0.00199
56 0.001995
55 0.001997
70 0.001993
94 0.00155
102 0.002151
112 0.001954
125 0.002456
130 0.001056
123 0.001996
119 0.001968
121 0.001707
128 0.001999
138 0.002
157 0.00199
170 0.002034
178 0.00203
180 0.001955
183 0.001914
185 0.00239
141 0.001019
73 0.001999
61 0.001001
70 0.001996
87 0.001
102 0.000838
116 0.00181
129 0.001998
142 0.000992
137 0.001996
130 0.001995
128 0.000992
132 0.002
143 0.001031
152 0.000998
160 0.001034
166 0.001459
172 0.001454
180 0.000593
185 0.000997
141 0.001277
82 0.0
58 0.001539
59 0.0
74 0.0
95 0.00071
105 0.0
115 0.001175
128 0.001
136 0.0
134 0.001038
129 0.0
130 0.000948
137 0.001001
146 0.000997
154 0.00105
161 0.000999
169 0.00101
174 0.001004
178 0.000998
181 0.0
184 0.000993
187 0.000986
186 0.0
89 0.0
55 0.0
48 0.0
60 0.0
77 0.0
95 0.0
103 0.0
115 0.0
127 0.000966
131 0.0
128 0.0
124 0.0
130 0.0
138 0.0
147 0.0
156 0.0
165 0.000964
171 0.0
177 0.0
182 0.0
185 0.000995
188 0.000994
191 0.0
194 0.00203
137 0.0
69 0.002022
57 0.0
72 0.0
90 0.0
106 0.0
117 0.001034
128 0.00305
142 0.0
141 0.0
133 0.0
126 0.003023
127 0.000998
137 0.002991
146 0.002029
156 0.0
162 0.0
167 0.0
173 0.001995
179 0.001251
129 0.000967
76 0.0
56 0.001012
59 0.002439
88 0.000997
102 0.001919
114 0.001964
131 0.0
140 0.0
137 0.0
128 0.001962
121 0.000999
124 0.0
131 0.0
139 0.000991
146 0.002032
157 0.000962
164 0.002027
149 0.002824
74 0.0
47 0.0
45 0.0
57 0.002259
73 0.002397
87 0.001004
96 0.000988
108 0.0
117 0.00124
113 0.001009
109 0.002021
109 0.002044
114 0.003008
125 0.000967
133 0.0
140 0.0
147 0.003036
154 0.001174
148 0.000998
93 0.000998
52 0.000964
43 0.0
56 0.0
70 0.002033
81 0.002269
93 0.000954
107 0.0
117 0.000962
118 0.001997
114 0.001993
113 0.000993
117 0.0
124 0.001029
138 0.0
146 0.0
153 0.002033
159 0.002179
166 0.002004
171 0.000998
142 0.000999
82 0.002987
52 0.002979
50 0.001037
64 0.002031
86 0.0
94 0.001036
104 0.0
117 0.002227
123 0.001994
120 0.001995
117 0.001994
118 0.001995
123 0.003007
131 0.003084
141 0.0
148 0.0
150 0.001963
150 0.000999
154 0.002029
159 0.002977
151 0.003161
80 0.001996
52 0.0
48 0.0
59 0.003035
74 0.00292
90 0.001935
99 0.002027
117 0.0
119 0.000998
114 0.0
109 0.002849
109 0.003996
116 0.002992
125 0.0
135 0.001994
146 0.002995
154 0.004006
161 0.002996
167 0.001995
136 0.001991
82 0.000997
58 0.001265
57 0.000963
69 0.003741
84 0.00323
99 0.002029
108 0.000962
121 0.000966
128 0.003966
125 0.003958
119 0.000965
121 0.004693
130 0.002989
138 0.002032
146 0.001994
153 0.003404
159 0.005058
167 0.002948
173 0.001994
175 0.001949
134 0.003813
80 0.003991
55 0.000995
64 0.004215
82 0.002992
93 0.003001
101 0.003036
112 0.00399
124 0.00408
127 0.002985
124 0.000998
122 0.000996
125 0.00492
131 0.004246
142 0.002991
153 0.004026
162 0.00251
168 0.001963
173 0.002334
178 0.003982
182 0.004023
125 0.002024
76 0.003946
59 0.001994
62 0.004508
76 0.00498
95 0.002992
106 0.005479
122 0.00299
132 0.002464
134 0.002937
130 0.004917
126 0.004991
130 0.002975
137 0.0
145 0.0
153 0.005953
161 0.004986
168 0.002989
176 0.004986
183 0.002992
172 0.002992
113 0.003591
73 0.005636
62 0.004968
77 0.00202
94 0.004022
106 0.002988
116 0.004986
128 0.004986
139 0.002991
135 0.006534
128 0.002003
128 0.00292
134 0.001961
141 0.002987
149 0.005669
157 0.005879
164 0.002944
170 0.002991
177 0.002992
180 0.005987
140 0.005986
67 0.005924
60 0.006058
76 0.002981
92 0.002991
104 0.002957
113 0.00599
125 0.005952
136 0.003956
134 0.00399
129 0.003984
127 0.006634
130 0.006972
142 0.006606
150 0.007019
160 0.003447
167 0.002439
173 0.002958
177 0.00606
181 0.005987
185 0.004037
187 0.001958
144 0.002953
84 0.005896
58 0.006238
63 0.00597
78 0.007008
96 0.004719
105 0.003925
116 0.002992
127 0.005964
132 0.00669
128 0.004944
125 0.002959
127 0.003953
133 0.006818
141 0.006952
155 0.006981
163 0.00698
171 0.004988
177 0.005017
181 0.005018
184 0.006977
187 0.007179
191 0.004936
162 0.003
98 0.002988
66 0.007261
60 0.007674
82 0.007369
98 0.006376
113 0.00399
122 0.004188
134 0.004074
139 0.007236
135 0.007557
128 0.004988
127 0.003953
132 0.004986
139 0.007163
147 0.007127
161 0.007906
164 0.007154
169 0.007079
174 0.00602
179 0.004958
175 0.003987
120 0.007981
74 0.007462
59 0.005992
69 0.004019
87 0.004942
103 0.00807
122 0.005026
139 0.007918
142 0.007925
136 0.005193
128 0.004953
126 0.004988
132 0.007845
138 0.007487
149 0.006011
157 0.005985
163 0.004926
171 0.007144
178 0.003952
184 0.007393
171 0.007573
90 0.005522
60 0.004949
56 0.00698
70 0.008218
88 0.007311
101 0.004909
111 0.004021
122 0.005985
135 0.006519
132 0.006981
125 0.006981
125 0.006932
131 0.006981
138 0.006026
146 0.005905
156 0.007892
163 0.007409
171 0.006733
175 0.00698
179 0.006973
184 0.00682
170 0.006217
87 0.006167
57 0.005903
52 0.006475
63 0.005945
80 0.004985
100 0.00599
109 0.007191
121 0.006701
133 0.006074
133 0.004983
126 0.006709
124 0.006113
130 0.006024
138 0.006708
148 0.006594
156 0.006733
162 0.006638
168 0.005985
172 0.006982
179 0.006016
182 0.005963
139 0.006022
82 0.006125
57 0.005781
69 0.006684
87 0.004986
103 0.006024
113 0.006834
129 0.00653
138 0.006023
137 0.006097
129 0.006039
122 0.006088
123 0.005985
131 0.005785
144 0.0061
148 0.005936
156 0.006365
161 0.005617
167 0.006205
162 0.006167
107 0.005254
66 0.006209
54 0.005653
66 0.005959
83 0.005987
98 0.005984
117 0.005984
129 0.00598
135 0.005984
130 0.00495
123 0.006094
123 0.006084
128 0.006032
136 0.005369
144 0.005359
153 0.005342
160 0.004363
164 0.005983
174 0.005585
179 0.00523
172 0.00503
114 0.004987
58 0.005792
50 0.003988
59 0.004583
74 0.004664
88 0.005392
100 0.005008
111 0.005067
121 0.004944
124 0.005347
120 0.005437
118 0.003785
122 0.00457
131 0.005459
139 0.00464
147 0.005295
155 0.004988
161 0.004989
168 0.004579
172 0.004987
176 0.004946
181 0.005
163 0.00517
100 0.004368
62 0.004784
52 0.005122
64 0.00431
80 0.004785
93 0.003752
101 0.004012
111 0.003769
125 0.004343
127 0.004206
120 0.003957
120 0.004117
125 0.003786
132 0.003992
141 0.004337
156 0.004989
166 0.004029
173 0.004237
179 0.003558
183 0.00399
187 0.003737
186 0.00355
96 0.00364
65 0.002805
61 0.00427
73 0.002956
90 0.002989
107 0.00304
117 0.004196
129 0.003445
137 0.002866
135 0.002735
124 0.002679
121 0.003382
129 0.003029
137 0.002989
144 0.002988
150 0.002903
155 0.00399
163 0.004307
170 0.003009
163 0.002949
110 0.002993
69 0.003988
58 0.003001
70 0.002992
96 0.003689
107 0.002841
118 0.003351
131 0.002934
135 0.003609
128 0.001998
122 0.002995
123 0.002995
128 0.003041
136 0.002715
146 0.002564
153 0.002656
163 0.0019
169 0.002639
169 0.002992
122 0.003213
73 0.002462
53 0.002555
60 0.003191
75 0.001772
91 0.003031
102 0.00303
116 0.001994
127 0.001779
129 0.001814
124 0.001961
122 0.001995
126 0.001997
133 0.002998
143 0.003002
151 0.001999
157 0.001994
162 0.001564
167 0.002393
177 0.001584
194 0.001553
134 0.001811
72 0.001816
62 0.002264
68 0.002244
80 0.002554
91 0.001998
100 0.001997
109 0.001921
121 0.001808
126 0.00163
124 0.001996
120 0.001954
124 0.002037
133 0.00196
140 0.001656
147 0.002216
154 0.001347
160 0.00204
166 0.002119
169 0.001329
173 0.001687
177 0.00203
178 0.001804
113 0.001997
61 0.001996
56 0.002028
68 0.001968
82 0.000993
93 0.0
101 0.001995
115 0.000996
123 0.001002
124 0.001026
120 0.000648
116 0.000663
121 0.00205
130 0.000989
141 0.000999
149 0.000997
155 0.000994
159 0.000998
163 0.001996
169 0.000997
175 0.000998
154 0.000996
97 0.000997
64 0.000996
59 0.000998
77 0.00106
96 0.000994
106 0.000999
117 0.001038
128 0.0
130 0.001002
122 0.001032
118 0.001008
119 0.0
125 0.001033
133 0.001
144 0.000994
153 0.0
161 0.0
167 0.001001
173 0.0
144 0.001
90 0.001001
64 0.0
64 0.0
78 0.0
93 0.000997
104 0.0
113 0.0
132 0.001008
133 0.0
126 0.0
122 0.0
124 0.0
131 0.0
139 0.0
149 0.0
155 0.0
161 0.0
168 0.000954
173 0.0
174 0.000998
103 0.001002
65 0.0
54 0.00399
61 0.000998
82 0.00103
94 0.000997
102 0.002029
112 0.002991
126 0.0
127 0.0
123 0.000999
121 0.0
127 0.0
134 0.002041
142 0.002035
152 0.001003
159 0.0
165 0.0
171 0.001996
176 0.002073
181 0.0
184 0.0
153 0.000993
68 0.001002
54 0.000998
59 0.002962
73 0.002991
91 0.0
97 0.001995
109 0.000972
121 0.002277
128 0.00203
127 0.000992
124 0.0
124 0.0
134 0.001034
143 0.0
151 0.003109
159 0.002041
168 0.0
174 0.000995
179 0.00101
183 0.001961
187 0.002037
192 0.0
154 0.0
93 0.0
61 0.0
69 0.0
86 0.00196
101 0.001942
112 0.002001
126 0.000997
138 0.0
141 0.0
136 0.002225
129 0.002992
129 0.0
134 0.0
148 0.0
157 0.000965
164 0.0
169 0.002026
175 0.003024
184 0.001034
172 0.0
115 0.0
76 0.003026
65 0.001963
77 0.0
93 0.0
114 0.0
125 0.0
138 0.000998
144 0.003025
140 0.002952
131 0.0
131 0.0
135 0.000997
142 0.003021
150 0.002958
160 0.0
166 0.001024
176 0.0
182 0.000994
185 0.000998
143 0.002991
86 0.002991
59 0.0
62 0.001001
76 0.001004
90 0.003456
101 0.002952
114 0.001995
127 0.000956
134 0.001995
130 0.0
127 0.0
128 0.002947
134 0.003987
144 0.002026
151 0.0
159 0.0
166 0.002991
173 0.002952
182 0.0
188 0.000998
184 0.00266
123 0.0
74 0.000963
56 0.003985
58 0.003923
77 0.001994
91 0.000966
101 0.000998
110 0.002985
122 0.003954
131 0.002996
130 0.002982
125 0.003179
127 0.0
133 0.002954
141 0.002981
149 0.003988
156 0.004664
166 0.001998
171 0.0
175 0.001992
180 0.004024
183 0.003989
131 0.002979
70 0.003187
59 0.003015
70 0.000958
86 0.0
100 0.00399
110 0.003989
125 0.002991
135 0.0
136 0.002979
129 0.003956
124 0.004988
126 0.0
135 0.004988
145 0.003441
151 0.0
156 0.001007
161 0.003574
168 0.00499
149 0.001957
94 0.0
64 0.002993
58 0.00499
68 0.004991
89 0.002989
105 0.003989
121 0.002962
133 0.002992
135 0.000998
129 0.004991
123 0.004988
123 0.002419
129 0.0
136 0.00199
143 0.003985
150 0.005985
159 0.001991
165 0.004598
110 0.002004
69 0.001995
55 0.003038
59 0.005985
73 0.005988
90 0.003035
100 0.00199
111 0.002992
128 0.003989
131 0.006986
127 0.001997
123 0.005983
129 0.002995
136 0.004987
144 0.002992
152 0.002992
158 0.005029
166 0.003989
171 0.0
174 0.00403
133 0.003955
80 0.005985
57 0.005987
61 0.005984
74 0.005985
88 0.001992
96 0.004
107 0.003987
119 0.005984
124 0.006982
123 0.002992
121 0.003979
124 0.004983
130 0.006982
137 0.006986
151 0.005983
157 0.005968
165 0.003956
170 0.002957
176 0.003988
173 0.006138
123 0.006013
68 0.000997
59 0.001996
79 0.001994
84 0.000999
113 0.000997
120 0.003991
127 0.003988
126 0.003988
121 0.004012
119 0.006981
122 0.005983
131 0.00399
138 0.003959
145 0.002991
151 0.006832
156 0.00682
166 0.006984
142 0.006978
79 0.004952
62 0.005034
64 0.004016
78 0.006981
92 0.007022
106 0.003958
117 0.003951
129 0.002992
134 0.007199
130 0.007978
124 0.007161
127 0.007098
136 0.004951
144 0.003959
151 0.003988
157 0.00703
164 0.006981
164 0.004952
118 0.00395
80 0.003991
69 0.001994
78 0.001993
99 0.007977
109 0.007967
120 0.004996
132 0.004944
137 0.004984
135 0.007018
130 0.006939
131 0.004941
136 0.004947
142 0.003951
150 0.00498
156 0.007975
166 0.004986
173 0.007982
168 0.007831
100 0.004944
69 0.003988
61 0.003956
69 0.007886
81 0.00719
94 0.005984
102 0.004983
113 0.003989
124 0.007978
126 0.005017
123 0.007421
124 0.007844
130 0.006201
137 0.004953
145 0.004994
154 0.008013
158 0.007983
165 0.005543
171 0.005989
158 0.005986
91 0.007028
64 0.006043
70 0.007015
77 0.007978
92 0.006506
100 0.005986
110 0.006914
124 0.007933
128 0.006945
127 0.005984
125 0.003987
126 0.005986
132 0.006907
142 0.003986
151 0.006745
156 0.007481
162 0.005907
168 0.006457
172 0.006982
120 0.006981
81 0.005987
68 0.006829
76 0.006619
85 0.005956
101 0.00745
112 0.005325
127 0.006662
132 0.006748
130 0.00665
125 0.006454
124 0.006035
129 0.007123
136 0.006848
143 0.005993
149 0.006284
156 0.006431
162 0.006889
160 0.005965
100 0.006232
73 0.006799
67 0.00622
79 0.006114
93 0.005974
100 0.006059
113 0.00584
126 0.006073
134 0.00625
134 0.005975
130 0.006092
131 0.00598
137 0.005982
144 0.006594
151 0.006361
159 0.005986
165 0.005962
171 0.006258
175 0.005933
150 0.005978
85 0.005868
66 0.005874
65 0.006146
85 0.006383
97 0.005835
105 0.006082
116 0.00633
130 0.004963
133 0.004825
131 0.006184
129 0.006334
131 0.00458
138 0.005971
145 0.005368
153 0.004961
165 0.004846
168 0.005875
134 0.00458
90 0.006006
70 0.005985
74 0.005021
87 0.00501
99 0.005031
110 0.005019
125 0.004635
136 0.005708
139 0.005131
133 0.004987
133 0.005802
136 0.005555
142 0.005269
152 0.005492
158 0.003991
164 0.004994
170 0.004648
176 0.004035
144 0.005043
93 0.00544
69 0.004786
76 0.004989
92 0.004799
105 0.005086
116 0.005443
131 0.003969
140 0.0052
140 0.005065
134 0.004486
130 0.004261
134 0.004721
141 0.004493
148 0.00452
161 0.003937
168 0.00503
161 0.004936
115 0.003863
82 0.003989
74 0.004617
85 0.004024
101 0.004989
115 0.004985
126 0.003036
143 0.004645
147 0.003955
139 0.003832
136 0.004675
138 0.004326
144 0.003034
151 0.00399
160 0.003991
166 0.003697
173 0.003609
175 0.00399
132 0.003524
75 0.002977
64 0.003541
80 0.003992
95 0.002964
107 0.004018
117 0.003666
129 0.002991
139 0.003923
138 0.003348
135 0.003376
135 0.003443
139 0.003991
148 0.003952
155 0.002581
168 0.003942
176 0.002764
163 0.003003
111 0.004027
78 0.002991
71 0.003025
82 0.002991
97 0.002988
110 0.002633
120 0.003003
136 0.002982
144 0.002556
142 0.003236
139 0.002677
140 0.003037
146 0.003446
153 0.001994
163 0.003989
169 0.002674
175 0.003363
181 0.002037
185 0.002996
129 0.002992
83 0.002992
70 0.00314
84 0.003145
100 0.002993
114 0.002991
124 0.002992
140 0.003114
146 0.002199
143 0.002264
136 0.002012
134 0.001994
140 0.002585
146 0.001574
159 0.002373
167 0.002984
174 0.002026
159 0.002183
109 0.002005
79 0.001998
76 0.002071
90 0.002162
106 0.00236
120 0.001633
133 0.000998
149 0.001667
151 0.001995
142 0.001941
140 0.002291
143 0.002027
149 0.001998
156 0.002403
165 0.001727
171 0.002181
179 0.002027
165 0.002996
107 0.001996
67 0.000971
68 0.000959
88 0.001033
102 0.002005
113 0.002187
124 0.002251
136 0.000998
141 0.00121
137 0.000608
134 0.001276
136 0.001035
141 0.000708
150 0.001035
160 0.0
169 0.00196
176 0.001876
156 0.001994
100 0.000965
71 0.002001
67 0.002319
79 0.001197
95 0.00124
108 0.000961
118 0.001235
135 0.000565
142 0.000949
138 0.001989
136 0.001201
138 0.000991
144 0.000996
152 0.001994
162 0.000564
169 0.001023
174 0.000997
180 0.0
186 0.001001
176 0.0
96 0.000998
66 0.000998
69 0.001184
84 0.001038
100 0.001001
113 0.0
128 0.000999
140 0.0
144 0.000418
139 0.0
134 0.0
133 0.0
141 0.0
148 0.0
157 0.0
164 0.0
172 0.0
157 0.0
107 0.0
74 0.0
75 0.0
89 0.0
106 0.0
120 0.0
143 0.0
150 0.0
147 0.0
140 0.0
138 0.0
141 0.0
147 0.000406
156 0.0
162 0.002032
169 0.0
176 0.0
154 0.0
77 0.0
65 0.0
72 0.001997
87 0.002986
107 0.0
114 0.000996
130 0.0
139 0.00204
141 0.002033
135 0.0
132 0.000953
135 0.0
145 0.0
152 0.000997
159 0.002986
166 0.002989
172 0.0
151 0.000679
98 0.0
66 0.002249
67 0.002216
84 0.0
99 0.0
110 0.0
131 0.000965
139 0.001019
139 0.002264
135 0.002037
133 0.0
137 0.000967
143 0.0
150 0.002245
157 0.002226
166 0.0
173 0.0
177 0.001072
101 0.0
70 0.0
64 0.002035
75 0.002038
97 0.000998
110 0.000969
121 0.0
133 0.002234
140 0.002121
136 0.001003
131 0.0
130 0.0
138 0.0
145 0.0
152 0.001959
160 0.002245
167 0.003949
152 0.000996
101 0.0
74 0.0
69 0.002242
80 0.003237
103 0.0
116 0.0
139 0.000997
146 0.0
144 0.0
137 0.001989
134 0.00199
137 0.0
144 0.001007
150 0.001009
156 0.002248
164 0.003262
170 0.001008
133 0.000968
70 0.0
65 0.0
76 0.000997
92 0.002993
106 0.003081
121 0.000997
133 0.0
140 0.0
139 0.002994
134 0.002193
133 0.001036
137 0.000997
148 0.001007
155 0.0
162 0.000997
169 0.003027
174 0.002962
123 0.0
79 0.000963
63 0.000966
66 0.002475
80 0.002941
99 0.003016
109 0.001995
129 0.0
136 0.0
136 0.0
132 0.00199
131 0.003484
136 0.0
142 0.000985
150 0.002035
158 0.003224
164 0.003254
171 0.002953
177 0.0
159 0.001012
100 0.0
68 0.001965
62 0.002989
71 0.003989
93 0.003023
106 0.0
117 0.0
130 0.0
138 0.003201
138 0.004011
131 0.0
130 0.00367
137 0.0
144 0.0
151 0.0
159 0.003911
166 0.004942
170 0.003027
129 0.0
85 0.001995
69 0.004001
74 0.004289
96 0.0
117 0.004254
134 0.003029
146 0.0
148 0.000964
143 0.003913
137 0.004122
136 0.003001
141 0.001957
147 0.001971
154 0.004204
161 0.004026
171 0.0
161 0.004931
92 0.00101
68 0.000978
66 0.001024
79 0.004805
96 0.003988
115 0.002315
128 0.002716
140 0.0
146 0.003983
143 0.004025
137 0.002958
138 0.003991
146 0.002993
153 0.003005
160 0.002028
166 0.004954
174 0.004981
155 0.002997
100 0.002946
70 0.002987
64 0.005074
73 0.004987
94 0.002617
111 0.0054
128 0.000946
139 0.003033
141 0.0
138 0.00499
134 0.005168
135 0.002024
141 0.00296
148 0.002992
155 0.005984
162 0.005197
170 0.003019
178 0.005075
144 0.002956
89 0.000998
65 0.001966
63 0.005983
76 0.00595
93 0.005425
111 0.002948
123 0.00399
136 0.002993
141 0.005978
139 0.00646
131 0.005991
132 0.005983
140 0.002948
147 0.003951
155 0.002961
162 0.005987
169 0.005987
135 0.002952
91 0.002005
75 0.00299
77 0.005515
92 0.006295
119 0.005992
132 0.005986
148 0.003957
152 0.003008
146 0.003959
140 0.006052
138 0.005942
143 0.003983
148 0.002951
155 0.002994
162 0.006513
170 0.007064
125 0.0065
85 0.006592
71 0.003988
80 0.003989
95 0.003989
110 0.005988
122 0.006666
139 0.003939
147 0.002944
145 0.004312
140 0.006982
137 0.006707
141 0.006083
147 0.006634
156 0.004027
163 0.002002
170 0.003936
156 0.006983
104 0.006984
69 0.004789
69 0.005073
79 0.004372
94 0.007118
107 0.007062
125 0.006614
135 0.007347
139 0.003353
135 0.004948
131 0.004991
133 0.007244
138 0.007166
147 0.005094
154 0.004984
160 0.00399
167 0.007014
173 0.007473
115 0.007941
76 0.007951
63 0.003988
73 0.003989
88 0.003959
102 0.004956
113 0.007143
124 0.007295
136 0.004987
135 0.004964
129 0.005209
126 0.007186
132 0.00399
141 0.007759
146 0.007156
155 0.005046
162 0.004954
165 0.003988
127 0.007926
83 0.007465
66 0.004748
73 0.005964
89 0.004973
109 0.007664
126 0.003991
138 0.007476
140 0.007978
134 0.005986
129 0.005995
129 0.006031
134 0.007889
140 0.00773
149 0.005955
156 0.005354
164 0.006366
137 0.007533
78 0.004961
63 0.007631
68 0.007832
88 0.003954
103 0.004946
114 0.004692
131 0.006983
138 0.007981
137 0.006605
132 0.004894
129 0.005975
133 0.007821
142 0.003989
151 0.007115
158 0.007706
165 0.006764
164 0.004953
118 0.003989
69 0.007113
61 0.007012
69 0.005984
89 0.00598
98 0.005984
112 0.007326
129 0.005984
136 0.007423
133 0.006984
129 0.005885
131 0.005987
135 0.006016
144 0.00706
151 0.007404
158 0.005063
164 0.006567
173 0.006308
148 0.007184
73 0.005984
63 0.006029
70 0.00703
91 0.006697
105 0.006376
116 0.005964
129 0.005971
138 0.006874
139 0.005647
133 0.004946
129 0.005787
132 0.005602
140 0.004935
147 0.005998
157 0.005986
165 0.005985
147 0.00502
98 0.006034
72 0.006143
70 0.00591
82 0.005517
105 0.005886
119 0.005849
132 0.005841
147 0.005946
144 0.005714
138 0.006139
135 0.005642
139 0.005929
143 0.00599
153 0.005563
160 0.005264
167 0.006118
164 0.005983
113 0.006197
77 0.005627
70 0.005711
85 0.004894
101 0.006008
115 0.005435
131 0.005886
143 0.00579
146 0.005909
142 0.005022
137 0.005721
139 0.004986
144 0.005987
151 0.004987
162 0.005981
169 0.00459
176 0.005387
165 0.004842
95 0.005986
69 0.005595
66 0.005549
77 0.004988
92 0.004988
110 0.005033
121 0.004837
134 0.003992
142 0.005339
139 0.003991
136 0.004714
137 0.004781
145 0.005391
152 0.003988
160 0.005222
167 0.003584
173 0.003757
181 0.003628
186 0.004603
167 0.003562
81 0.003993
68 0.005008
72 0.004712
88 0.003991
104 0.002991
120 0.003989
131 0.004031
142 0.004002
145 0.004529
141 0.003989
135 0.00407
137 0.003594
147 0.004202
154 0.003992
162 0.004447
169 0.004988
177 0.004025
146 0.003992
99 0.003989
82 0.003992
84 0.003751
99 0.003619
123 0.003475
137 0.003589
159 0.003637
162 0.002926
156 0.002993
147 0.003593
143 0.00399
148 0.003671
155 0.003525
161 0.002605
167 0.003036
174 0.002991
174 0.003998
126 0.002992
80 0.003994
83 0.00399
97 0.003998
115 0.00303
130 0.002995
146 0.003235
155 0.00299
156 0.003072
149 0.003228
142 0.00279
142 0.002628
146 0.002555
158 0.002621
165 0.00321
173 0.003259
168 0.002692
120 0.002995
80 0.002995
76 0.002996
87 0.002952
104 0.002992
119 0.002613
135 0.00303
146 0.00299
151 0.001996
145 0.002217
140 0.002348
141 0.00303
146 0.002994
155 0.002003
161 0.001996
167 0.001964
172 0.001611
178 0.002021
175 0.001732
103 0.002023
68 0.00215
71 0.002445
85 0.000998
100 0.003034
112 0.00203
122 0.001966
136 0.001718
140 0.00166
138 0.001638
133 0.001624
132 0.002051
138 0.002036
147 0.001773
157 0.002161
163 0.002031
168 0.001014
173 0.001
178 0.001854
145 0.001998
90 0.002026
66 0.001978
65 0.001035
77 0.003025
99 0.000996
115 0.001995
130 0.000995
139 0.001994
140 0.001585
134 0.002996
129 0.000813
131 0.002222
137 0.001669
144 0.001555
151 0.000979
157 0.001
167 0.001041
150 0.002039
85 0.0
68 0.001994
71 0.000975
87 0.001003
105 0.0
124 0.002158
137 0.001982
147 0.0
147 0.000578
140 0.0
132 0.000653
135 0.001032
144 0.002218
151 0.001041
157 0.000997
164 0.0
169 0.000998
116 0.001041
77 0.000998
65 0.0
72 0.000997
88 0.0
110 0.001001
126 0.001181
143 0.000999
146 0.000785
141 0.000522
135 0.0
134 0.0
139 0.0
145 0.0
151 0.0
158 0.0
166 0.0
170 0.001055
97 0.0
68 0.0
65 0.0
79 0.0
96 0.0
110 0.000935
122 0.0
138 0.0
144 0.000577
142 0.0
136 0.0
136 0.0
142 0.0
150 0.0
159 0.0
167 0.000927
174 0.000996
161 0.0
91 0.0
67 0.002995
65 0.003025
83 0.00099
101 0.0
114 0.000963
134 0.0
141 0.0
144 0.003033
139 0.003025
136 0.000948
139 0.001015
145 0.000997
152 0.002029
159 0.002042
167 0.000995
172 0.000995
179 0.0
119 0.0
76 0.0
63 0.002148
70 0.000525
93 0.0
109 0.000996
121 0.001
134 0.002991
143 0.002954
141 0.0
134 0.0
130 0.0
135 0.0
141 0.0
148 0.002257
155 0.002123
165 0.0
151 0.0
100 0.0
69 0.002244
63 0.00218
80 0.0
98 0.000955
113 0.000958
136 0.0
144 0.0
142 0.004016
135 0.002319
132 0.001015
134 0.0
140 0.0
147 0.0
154 0.003035
162 0.002209
162 0.0
112 0.001
60 0.0
60 0.0
73 0.0
91 0.002974
106 0.002993
123 0.0
136 0.0
140 0.0
137 0.002992
132 0.002992
132 0.0
137 0.000998
149 0.0
156 0.001032
163 0.00097
169 0.002213
135 0.002194
74 0.0
60 0.0
65 0.0
80 0.003285
96 0.002844
113 0.001018
126 0.0
140 0.0
138 0.0
134 0.000999
133 0.003025
137 0.002964
145 0.0
152 0.0
159 0.0
