110 0.009972
115 0.004937
128 0.005028
137 0.005007
145 0.004957
153 0.003988
158 0.004988
137 0.003989
73 0.004005
61 0.003956
67 0.004
77 0.003988
91 0.004033
102 0.00399
101 0.00399
97 0.00399
101 0.004012
109 0.003001
119 0.001963
126 0.001966
137 0.001962
146 0.000998
151 0.001995
159 0.0
129 0.0
91 0.0
69 0.000994
82 0.002988
91 0.002962
105 0.002961
110 0.002962
107 0.002962
104 0.002952
107 0.002954
119 0.003964
130 0.004951
137 0.005001
147 0.005984
152 0.004979
160 0.005954
153 0.007055
98 0.007943
70 0.00698
71 0.007966
80 0.007978
94 0.00798
99 0.007968
106 0.006023
105 0.004022
105 0.002034
108 0.002
119 0.001033
134 0.0
137 0.0
149 0.000966
157 0.001991
162 0.002967
169 0.002804
172 0.002991
170 0.002961
98 0.002956
75 0.003973
76 0.004987
88 0.00598
96 0.005984
104 0.005984
108 0.005984
106 0.005982
106 0.006946
109 0.006946
120 0.007025
130 0.006979
138 0.007975
148 0.007017
155 0.00798
162 0.007024
169 0.006982
172 0.005973
178 0.005021
182 0.003033
143 0.002992
85 0.002981
82 0.003034
91 0.003032
106 0.002992
117 0.0
119 0.0
113 0.0
109 0.0
113 0.0
124 0.00104
132 0.000997
143 0.000998
153 0.000997
158 0.000997
165 0.000998
169 0.000998
121 0.000998
87 0.01496
72 0.000998
98 0.004986
105 0.005149
112 0.00698
109 0.007025
107 0.007007
112 0.007945
122 0.006981
130 0.006982
142 0.007013
148 0.007031
158 0.006036
167 0.006003
171 0.006015
170 0.005984
97 0.003989
69 0.002981
73 0.00299
82 0.002981
92 0.003016
102 0.002992
104 0.000998
101 0.000997
102 0.001995
108 0.001034
119 0.000998
129 0.001
139 0.000999
150 0.000998
155 0.0
163 0.0
170 0.000876
150 0.001995
84 0.002002
69 0.004019
76 0.004898
90 0.006026
101 0.006989
106 0.006987
104 0.007026
102 0.007015
106 0.007019
117 0.006982
125 0.006985
137 0.007028
143 0.007023
151 0.007059
158 0.007022
159 0.006996
111 0.006983
78 0.007956
73 0.006952
88 0.006981
97 0.006981
110 0.006968
115 0.005927
110 0.006128
107 0.005012
113 0.003957
120 0.003982
132 0.001994
142 0.0
147 0.0
155 0.0
150 0.0
112 0.0
74 0.0
73 0.001999
87 0.001995
96 0.001973
103 0.002983
108 0.002993
106 0.002983
106 0.002994
112 0.002993
122 0.002994
131 0.003989
141 0.005027
147 0.005008
154 0.005026
161 0.003975
165 0.005028
124 0.004972
89 0.004987
72 0.005984
83 0.00698
88 0.007042
94 0.006969
102 0.008004
104 0.007007
102 0.006939
106 0.004986
111 0.004025
123 0.00299
132 0.000997
140 0.000994
147 0.000998
164 0.0
170 0.0
179 0.0
185 0.0
195 0.0
154 0.0
102 0.0
76 0.0
83 0.0
102 0.000955
111 0.000997
116 0.000997
115 0.00096
112 0.001
116 0.000997
129 0.000998
138 0.001004
152 0.000998
160 0.001995
168 0.003043
174 0.00296
179 0.002968
186 0.002992
183 0.003025
137 0.002993
137 0.044882
97 0.000963
157 0.005981
169 0.004029
179 0.003995
184 0.003987
191 0.004087
199 0.003992
199 0.003987
127 0.004032
101 0.004025
101 0.003007
116 0.00201
121 0.002036
127 0.001995
130 0.000994
126 0.0
126 0.0
131 0.0
141 0.0
152 0.001998
158 0.001954
167 0.002027
176 0.001963
181 0.002028
189 0.001843
193 0.001995
199 0.001995
205 0.001993
212 0.003031
165 0.00205
98 0.002968
90 0.003991
102 0.00399
111 0.003991
119 0.004016
124 0.004021
121 0.00605
114 0.006016
116 0.00698
121 0.006954
133 0.006973
145 0.007032
154 0.006021
162 0.005977
166 0.00597
172 0.006026
178 0.007
183 0.005017
190 0.004986
197 0.004987
201 0.004983
198 0.003999
142 0.003983
88 0.003989
91 0.003003
103 0.00402
119 0.002994
125 0.00399
127 0.002988
115 0.003005
112 0.002992
120 0.003037
131 0.004029
141 0.002994
150 0.002991
155 0.003032
163 0.002994
170 0.002992
174 0.003034
180 0.002992
184 0.002992
191 0.002995
200 0.002038
196 0.002993
107 0.001998
79 0.003014
77 0.001997
95 0.001036
102 0.001031
109 0.0
110 0.0
107 0.0
101 0.001995
108 0.00198
115 0.003011
129 0.002024
136 0.002005
147 0.002005
157 0.002996
162 0.002993
169 0.005019
175 0.005067
181 0.004993
187 0.004987
193 0.005024
198 0.007019
114 0.006981
78 0.007022
68 0.007016
86 0.007023
98 0.007012
111 0.007058
117 0.007065
109 0.007026
100 0.007011
103 0.007025
109 0.007967
124 0.007946
139 0.007981
147 0.007982
155 0.006981
164 0.00597
170 0.006029
176 0.005028
181 0.004986
182 0.003983
129 0.003993
68 0.002033
67 0.00197
80 0.002018
102 0.002012
114 0.002035
123 0.001998
105 0.001001
99 0.000997
99 0.015958
104 0.0
159 0.000997
167 0.002994
172 0.00399
171 0.004043
100 0.003989
55 0.004987
49 0.004988
67 0.004989
79 0.005028
96 0.004987
103 0.005043
93 0.005013
85 0.005024
88 0.00698
103 0.007963
112 0.007978
121 0.007979
138 0.006967
144 0.007088
155 0.00698
162 0.006988
166 0.00696
174 0.006949
142 0.006962
57 0.007009
37 0.007976
45 0.00697
61 0.006019
75 0.004965
82 0.004986
81 0.004987
75 0.004986
72 0.005023
85 0.002992
94 0.003991
110 0.000992
123 0.000983
130 0.0
138 0.0
147 0.0
152 0.000991
160 0.003036
168 0.002994
175 0.003033
135 0.002994
80 0.00299
43 0.002994
51 0.002993
68 0.003048
81 0.002995
91 0.005028
90 0.005029
80 0.004992
78 0.005024
89 0.004987
105 0.005986
115 0.007016
129 0.007027
139 0.006984
144 0.006984
151 0.006955
155 0.006956
159 0.00702
169 0.005029
128 0.004009
70 0.002006
52 0.003034
64 0.00203
82 0.003031
101 0.002992
109 0.003031
100 0.003032
92 0.002993
93 0.002027
107 0.002035
117 0.003018
132 0.00204
144 0.002038
150 0.002027
159 0.002028
163 0.002026
170 0.002032
175 0.002022
181 0.002014
112 0.0
69 0.0
50 0.0
64 0.000998
76 0.000998
88 0.000998
97 0.001012
93 0.000998
84 0.001045
87 0.000998
100 0.000997
113 0.002029
126 0.00399
136 0.002993
146 0.004016
152 0.004079
160 0.002993
164 0.002992
172 0.003987
180 0.004008
185 0.004024
195 0.003987
184 0.005021
121 0.004988
58 0.004979
53 0.004987
71 0.004977
85 0.005018
93 0.004987
98 0.004972
92 0.005969
85 0.005984
92 0.005993
101 0.005903
118 0.00603
134 0.005986
142 0.006018
153 0.005988
158 0.006982
166 0.005985
174 0.006985
179 0.006965
188 0.007024
193 0.006867
202 0.006982
208 0.009015
198 0.000997
92 0.006982
104 0.006016
112 0.007038
100 0.005972
92 0.006031
94 0.005984
110 0.004027
121 0.00403
137 0.003023
144 0.003989
153 0.000997
160 0.0
166 0.0
170 0.0
176 0.0
181 0.0
156 0.000998
70 0.000998
49 0.001005
56 0.000998
70 0.000998
87 0.000998
98 0.001001
97 0.000998
88 0.000997
87 0.003044
93 0.003027
110 0.002954
121 0.00296
138 0.002993
153 0.00301
162 0.003003
173 0.004987
181 0.006033
185 0.005984
194 0.006052
187 0.005952
96 0.006016
58 0.005986
60 0.006975
76 0.007979
101 0.007957
110 0.00696
110 0.007985
100 0.006983
91 0.007978
101 0.007976
112 0.007968
126 0.007979
142 0.005017
148 0.006025
157 0.00502
165 0.003029
165 0.00203
74 0.00096
48 0.000997
49 0.001005
72 0.001001
83 0.001039
99 0.0
98 0.000998
88 0.0
86 0.000997
96 0.0
110 0.0
127 0.0
136 0.0
148 0.000936
155 0.002028
161 0.001995
168 0.00399
124 0.003999
72 0.004091
38 0.004031
45 0.003989
67 0.003983
80 0.004069
87 0.00399
86 0.003986
82 0.004022
83 0.003992
97 0.004022
108 0.003888
124 0.004985
132 0.004989
143 0.005021
150 0.004974
156 0.005987
161 0.007024
169 0.007015
175 0.006985
111 0.00699
67 0.006842
48 0.007016
68 0.006974
79 0.006995
87 0.006971
94 0.006989
91 0.00696
85 0.007011
89 0.007013
103 0.00702
120 0.006975
130 0.007014
141 0.006986
147 0.007013
154 0.006985
161 0.006983
165 0.006991
173 0.006997
182 0.007015
187 0.007015
196 0.006975
201 0.007019
204 0.007014
110 0.005989
75 0.006982
68 0.004039
88 0.004032
97 0.004023
103 0.020944
106 0.0
110 0.003022
126 0.002973
133 0.002951
143 0.004004
149 0.004987
153 0.004987
159 0.004978
165 0.004987
172 0.00503
180 0.005003
149 0.006017
95 0.008014
63 0.007021
61 0.005017
73 0.005024
87 0.004986
93 0.004993
97 0.004988
89 0.004964
88 0.004989
99 0.005025
109 0.004987
126 0.005047
137 0.004998
144 0.00497
153 0.005018
160 0.004
165 0.002989
172 0.001995
180 0.0
185 0.000994
195 0.0
201 0.001008
129 0.0
62 0.0
55 0.0
72 0.0
79 0.0
89 0.0
96 0.0
93 0.000997
85 0.002022
90 0.001992
100 0.001989
118 0.004023
134 0.003485
141 0.003989
151 0.005013
156 0.005031
163 0.005979
169 0.007014
174 0.00699
180 0.006961
189 0.006982
194 0.006981
204 0.006982
172 0.006024
107 0.006982
60 0.005986
70 0.004032
79 0.002966
98 0.001995
104 0.001004
98 0.001011
85 0.001095
84 0.0
94 0.0
113 0.0
124 0.0
138 0.000965
145 0.001018
150 0.00102
156 0.002993
162 0.003943
167 0.004987
175 0.004026
182 0.004954
148 0.004987
65 0.005021
49 0.005024
59 0.006016
79 0.007016
86 0.006966
95 0.007015
93 0.007015
84 0.006982
85 0.005986
94 0.005983
113 0.006018
127 0.005001
138 0.00402
146 0.004027
155 0.003029
160 0.001995
168 0.002027
175 0.0
181 0.0
187 0.0
195 0.0
202 0.0
158 0.000998
93 0.001995
49 0.001964
59 0.001995
73 0.002028
84 0.002805
91 0.002993
89 0.002994
80 0.002993
79 0.004002
92 0.003963
112 0.004023
121 0.004033
134 0.003989
144 0.005984
153 0.006015
161 0.005987
167 0.005988
176 0.007013
184 0.006981
188 0.0
216 0.005018
223 0.004986
162 0.004971
100 0.005013
71 0.004983
92 0.004986
106 0.004983
125 0.004981
135 0.005986
125 0.004992
111 0.006017
111 0.00502
122 0.004984
144 0.005984
152 0.005017
161 0.004987
166 0.003987
171 0.00299
177 0.001996
181 0.003028
186 0.001994
192 0.000998
200 0.002034
196 0.000997
89 0.0
59 0.000963
55 0.001996
77 0.002938
86 0.003035
96 0.002993
92 0.005036
84 0.005022
82 0.007013
92 0.007979
108 0.006983
127 0.007943
137 0.007019
149 0.00798
157 0.007978
162 0.007979
170 0.00798
175 0.008006
183 0.007978
193 0.004993
194 0.005022
90 0.003971
41 0.003984
42 0.003982
61 0.003993
68 0.003951
75 0.003969
76 0.003991
70 0.002991
66 0.001962
75 0.002992
86 0.002992
105 0.002993
115 0.002955
129 0.002992
140 0.000999
146 0.001957
154 0.000998
165 0.0
171 0.0
178 0.0
184 0.0
185 0.0
77 0.0
45 0.0
42 0.000996
63 0.001964
70 0.004023
79 0.004027
75 0.004986
67 0.006007
67 0.006017
78 0.006013
94 0.005998
109 0.006048
121 0.007033
127 0.007973
137 0.007979
141 0.00786
146 0.005983
158 0.003988
162 0.00498
86 0.004021
49 0.005023
40 0.00396
62 0.003982
74 0.003952
89 0.003984
88 0.003989
79 0.003987
76 0.003026
84 0.002012
104 0.002001
120 0.003024
132 0.002031
141 0.002996
150 0.000988
155 0.0
164 0.001035
170 0.000997
176 0.001962
185 0.001994
175 0.001996
88 0.00204
39 0.002994
41 0.002992
59 0.003027
66 0.003001
70 0.004255
73 0.004954
67 0.005994
68 0.006998
82 0.006981
93 0.007015
108 0.005944
120 0.007031
130 0.005964
132 0.03888
137 0.000957
149 0.001019
158 0.000967
167 0.001031
173 0.001009
184 0.001038
167 0.001009
101 0.000972
49 0.0
46 0.000845
57 0.000997
69 0.000998
71 0.000998
77 0.000999
73 0.000998
72 0.001001
81 0.001032
92 0.001028
110 0.001033
125 0.001996
132 0.002995
141 0.002994
147 0.006014
153 0.006982
160 0.00705
170 0.007978
173 0.006981
183 0.007013
194 0.005981
199 0.006983
112 0.006026
68 0.007012
55 0.006018
75 0.006021
84 0.005168
92 0.006016
93 0.006022
84 0.005935
80 0.005984
86 0.005982
104 0.005989
116 0.006017
131 0.003975
138 0.005023
143 0.004026
151 0.005021
158 0.002983
162 0.002992
172 0.000995
170 0.001122
116 0.001964
52 0.000996
47 0.000996
63 0.001982
75 0.001003
80 0.000984
86 0.000998
83 0.000998
80 0.0
87 0.0
98 0.0
117 0.0
133 0.001007
139 0.000997
149 0.000997
155 0.001995
162 0.002994
169 0.003959
178 0.004011
183 0.004021
193 0.003986
200 0.00396
182 0.005021
80 0.006015
55 0.005884
60 0.006938
77 0.006984
81 0.006982
87 0.005985
88 0.005018
84 0.003988
84 0.003994
91 0.004031
109 0.00401
123 0.005021
135 0.003992
144 0.004989
153 0.004025
157 0.003031
166 0.003028
171 0.002987
181 0.002026
191 0.0
199 0.000997
205 0.000998
211 0.001995
154 0.001989
71 0.002035
63 0.001997
75 0.001986
92 0.004025
100 0.004982
102 0.005981
93 0.005996
89 0.007015
97 0.007016
107 0.007016
127 0.007015
137 0.00711
150 0.006011
156 0.006017
164 0.005984
171 0.004985
175 0.006016
182 0.005985
187 0.006019
197 0.005018
196 0.004988
137 0.005025
71 0.004983
71 0.003027
86 0.00299
106 0.003027
115 0.001986
117 0.001985
103 0.001995
97 0.001012
106 0.001997
125 0.002005
137 0.001024
153 0.0
162 0.000963
169 0.001996
172 0.024935
182 0.003982
186 0.004062
195 0.004022
200 0.004029
143 0.003991
66 0.004988
56 0.006963
70 0.006998
86 0.006981
90 0.006983
98 0.007014
94 0.006981
86 0.006992
93 0.006893
104 0.007012
123 0.006976
134 0.006989
146 0.007014
154 0.007976
160 0.006995
167 0.006024
174 0.00494
179 0.005954
186 0.00303
101 0.002985
65 0.003037
56 0.002
76 0.000983
85 0.001036
95 0.002001
99 0.000993
93 0.0
87 0.000994
92 0.001996
109 0.002017
128 0.001994
138 0.002026
151 0.001991
156 0.002006
163 0.00302
168 0.002976
176 0.003997
181 0.002994
104 0.002957
67 0.003019
59 0.002988
72 0.002988
91 0.00399
104 0.003946
105 0.004978
92 0.005022
90 0.006981
98 0.006986
117 0.007018
132 0.006974
140 0.00696
150 0.005017
156 0.005979
162 0.004002
167 0.005985
118 0.004021
64 0.004977
54 0.003031
66 0.002993
85 0.001029
97 0.0
101 0.001
94 0.002028
89 0.002008
95 0.003988
113 0.003991
131 0.003988
139 0.003948
150 0.004031
158 0.00598
161 0.006986
167 0.006019
172 0.006986
180 0.005988
145 0.006982
77 0.006014
53 0.006013
65 0.005994
75 0.004991
80 0.005022
89 0.003994
87 0.004955
84 0.003976
87 0.003989
101 0.001987
119 0.00105
128 0.0
137 0.000997
147 0.0
152 0.0
159 0.0
165 0.001001
171 0.001988
180 0.001881
185 0.001995
195 0.002005
188 0.004025
125 0.004034
64 0.003954
64 0.004027
79 0.004996
88 0.006018
94 0.005987
96 0.00599
90 0.007034
88 0.007021
97 0.006986
114 0.006982
124 0.006982
135 0.00699
145 0.006022
150 0.006024
156 0.005974
160 0.005978
167 0.006009
174 0.005985
177 0.0
195 0.004991
151 0.003989
77 0.003955
69 0.003993
86 0.004025
105 0.001008
112 0.002
115 0.000993
102 0.001995
98 0.00196
109 0.001001
120 0.0
138 0.001031
149 0.000967
156 0.001016
163 0.000998
170 0.001003
174 0.002962
180 0.003029
188 0.00296
195 0.002993
188 0.002959
126 0.002999
67 0.003023
65 0.004955
80 0.004974
91 0.004992
99 0.004992
101 0.006022
94 0.005023
91 0.006991
96 0.007926
114 0.00698
124 0.007979
140 0.006989
151 0.006999
156 0.006002
164 0.00697
171 0.005977
176 0.004991
184 0.005024
189 0.00402
198 0.003989
131 0.005018
71 0.003987
57 0.004986
70 0.00399
84 0.004987
91 0.004987
96 0.004993
92 0.004972
88 0.004034
92 0.004986
108 0.002026
127 0.000996
134 0.0
148 0.0
154 0.0
162 0.0
170 0.0
175 0.0
183 0.000963
192 0.001995
199 0.00203
191 0.002001
125 0.001995
69 0.002028
71 0.001994
88 0.002992
102 0.001968
112 0.002994
111 0.002994
99 0.00296
95 0.002966
105 0.002915
123 0.003016
134 0.002999
148 0.005026
157 0.006028
162 0.006968
166 0.006021
172 0.00504
178 0.005995
180 0.00502
131 0.00499
71 0.004974
68 0.007016
84 0.004978
101 0.006012
113 0.004975
118 0.005978
104 0.005984
99 0.005017
107 0.003988
126 0.002955
138 0.003993
152 0.002992
163 0.000967
169 0.0
175 0.0
181 0.0
186 0.0
194 0.0
168 0.0
76 0.0
57 0.0
66 0.001009
84 0.002028
92 0.002992
97 0.003007
91 0.00502
86 0.004008
88 0.005046
103 0.005019
114 0.005017
132 0.004988
145 0.005064
152 0.004954
160 0.004956
165 0.004943
171 0.007021
179 0.006986
183 0.006966
195 0.006928
126 0.006981
76 0.006978
54 0.005994
67 0.005984
82 0.00499
90 0.005986
97 0.004984
92 0.006019
88 0.000991
87 0.005967
103 0.006016
115 0.006017
133 0.005984
146 0.002013
152 0.002985
160 0.0
167 0.0
171 0.0
177 0.0
189 0.0
193 0.0
108 0.001995
61 0.001995
63 0.001995
86 0.001943
105 0.00402
113 0.00399
106 0.004021
95 0.004801
92 0.004957
104 0.005044
120 0.006995
136 0.006037
151 0.007007
157 0.006995
165 0.007
168 0.007989
174 0.007017
180 0.005041
139 0.006023
63 0.002988
55 0.00299
68 0.002967
88 0.003029
103 0.002986
105 0.001998
95 0.004023
89 0.00206
94 0.00401
114 0.003025
126 0.003025
144 0.002028
155 0.0
162 0.000993
168 0.0
175 0.001936
179 0.003028
187 0.003991
190 0.004995
133 0.00599
56 0.006028
47 0.005891
63 0.005988
77 0.007024
82 0.007013
90 0.005973
84 0.006016
80 0.006021
87 0.005937
98 0.005977
118 0.00599
132 0.006982
144 0.003976
152 0.00502
160 0.00499
165 0.004955
173 0.004981
179 0.004988
188 0.004014
199 0.003025
205 0.00399
172 0.002026
70 0.003027
50 0.002025
60 0.002995
73 0.001981
83 0.000998
92 0.000998
91 0.000997
83 0.0
85 0.0
95 0.001006
115 0.002041
135 0.004026
144 0.00402
156 0.003958
164 0.004022
170 0.004022
177 0.004823
186 0.007013
192 0.007021
202 0.006981
207 0.007013
218 0.006982
217 0.006976
145 0.00698
67 0.006984
61 0.006977
81 0.006991
102 0.006976
110 0.006974
112 0.006977
101 0.006955
90 0.004991
94 0.00602
109 0.004979
127 0.006034
147 0.006016
155 0.00602
165 0.006018
173 0.003007
177 0.004021
183 0.003031
188 0.004023
199 0.001965
155 0.00197
91 0.001986
55 0.001996
69 0.000995
79 0.0
102 0.000991
110 0.000955
105 0.002026
94 0.001995
95 0.001988
108 0.002031
130 0.000997
142 0.000998
159 0.002033
166 0.001995
177 0.002027
186 0.0
190 0.00204
198 0.000993
203 0.0
198 0.0
87 0.0
55 0.0
53 0.0
66 0.0
85 0.000997
96 0.0
97 0.0
86 0.000951
85 0.002961
94 0.002966
114 0.002992
128 0.002992
146 0.004022
157 0.004959
166 0.004984
173 0.004985
180 0.00496
185 0.004986
194 0.005017
167 0.005018
69 0.006015
47 0.006019
57 0.007018
77 0.005992
94 0.004987
103 0.003993
96 0.002991
83 0.002003
86 0.001997
104 0.001007
122 0.002028
138 0.002013
149 0.001995
159 0.0
163 0.0
169 0.0
176 0.000984
134 0.002018
68 0.00203
51 0.004991
63 0.004986
89 0.006009
111 0.006976
116 0.006982
98 0.006989
90 0.007014
98 0.006983
115 0.006021
128 0.005963
146 0.004967
159 0.005024
164 0.004087
172 0.002995
179 0.002974
176 0.000998
101 0.002031
52 0.000993
47 0.001994
68 0.001995
80 0.002032
93 0.002043
96 0.0
88 0.000998
84 0.000997
95 0.001036
107 0.002955
126 0.002994
141 0.004984
148 0.004986
156 0.004986
160 0.004991
167 0.004998
174 0.005018
181 0.005019
153 0.004981
76 0.006017
46 0.005988
52 0.006016
69 0.006021
76 0.005981
84 0.007025
85 0.007979
80 0.00695
80 0.005982
87 0.006991
105 0.005982
116 0.006944
130 0.007045
141 0.006026
146 0.006017
154 0.005985
158 0.004982
166 0.005021
175 0.002987
182 0.002987
191 0.003
123 0.004981
66 0.002991
56 0.003984
75 0.001995
85 0.002008
93 0.0
96 0.000999
89 0.000997
85 0.000953
91 0.001013
105 0.000998
124 0.000998
133 0.000998
144 0.001971
151 0.002956
154 0.002877
159 0.002992
163 0.002993
174 0.002947
172 0.003016
122 0.00299
83 0.012965
69 0.0
91 0.002965
107 0.003011
118 0.002985
119 0.003987
105 0.006022
103 0.007012
116 0.007876
131 0.00702
145 0.007981
155 0.006982
164 0.003978
169 0.002991
176 0.00303
180 0.003026
188 0.00198
197 0.001991
204 0.001996
151 0.002005
92 0.00299
78 0.0
89 0.000999
102 0.0
108 0.000999
114 0.001031
111 0.001006
104 0.000997
110 0.00096
119 0.000994
136 0.000987
146 0.0
155 0.001014
163 0.001001
168 0.000952
175 0.003959
182 0.002997
187 0.004027
196 0.004017
207 0.005021
207 0.006019
119 0.005984
86 0.005986
80 0.006015
97 0.005988
103 0.005983
109 0.006015
110 0.00702
105 0.006001
101 0.007979
106 0.005989
118 0.007016
135 0.006984
144 0.006982
156 0.00499
165 0.003995
170 0.004998
177 0.003981
182 0.003988
191 0.002976
201 0.001993
207 0.000996
217 0.0
224 0.000996
185 0.001009
119 0.013962
78 0.00094
90 0.003999
109 0.004023
117 0.004006
121 0.003986
112 0.00399
102 0.003979
105 0.003995
121 0.003991
133 0.005025
149 0.005023
160 0.005995
165 0.006019
171 0.006043
173 0.00602
179 0.005986
188 0.00591
193 0.006981
195 0.006983
105 0.007001
78 0.004973
79 0.003985
98 0.006034
115 0.00299
128 0.002992
123 0.002012
111 0.000982
106 0.001002
120 0.0
132 0.000998
148 0.0
162 0.001989
168 0.001962
177 0.001026
181 0.002992
187 0.002013
195 0.002041
200 0.002999
132 0.004037
65 0.005979
58 0.006991
75 0.007015
91 0.00702
100 0.006979
106 0.007038
102 0.00697
91 0.007021
96 0.007013
106 0.007014
126 0.007018
137 0.007948
149 0.006989
160 0.004988
165 0.005976
173 0.004
178 0.003986
184 0.00299
194 0.001998
168 0.003007
99 0.001963
50 0.002996
51 0.001995
72 0.0
85 0.001997
93 0.0
94 0.002041
85 0.0
82 0.0
92 0.0
108 0.001996
124 0.002993
138 0.00306
148 0.002965
156 0.004026
165 0.00399
170 0.004007
178 0.004029
187 0.004067
194 0.004823
181 0.00399
111 0.003983
53 0.005026
60 0.005023
75 0.004984
93 0.005029
105 0.006017
102 0.006992
90 0.005016
87 0.004982
97 0.003983
113 0.005035
133 0.003983
143 0.00399
156 0.003021
162 0.004024
168 0.004
174 0.001956
180 0.002003
175 0.001023
118 0.000974
61 0.002004
67 0.000978
82 0.001972
108 0.002
124 0.003034
119 0.002044
101 0.003029
96 0.002027
107 0.002994
128 0.003024
141 0.003024
157 0.001007
164 0.000929
174 0.000997
180 0.000997
185 0.000998
192 0.001016
152 0.000998
87 0.000998
46 0.001046
50 0.000998
74 0.000998
91 0.00201
100 0.002018
96 0.002994
83 0.004044
85 0.004052
101 0.003956
123 0.004961
134 0.005986
149 0.005952
156 0.005958
164 0.006015
170 0.005984
175 0.006018
182 0.005992
173 0.007974
129 0.007978
44 0.007981
42 0.007975
64 0.007861
80 0.00598
88 0.007022
95 0.003991
83 0.003978
80 0.003974
89 0.004034
102 0.003995
123 0.003993
138 0.004988
149 0.003983
157 0.004975
166 0.003041
170 0.002983
178 0.002993
184 0.003038
165 0.002041
67 0.002046
47 0.002007
57 0.001003
83 0.0
94 0.0
104 0.001031
96 0.001996
87 0.002996
88 0.003096
107 0.003959
120 0.005013
140 0.004958
150 0.005086
161 0.004965
169 0.006981
172 0.007036
177 0.006981
183 0.007014
192 0.005974
152 0.006947
67 0.006971
55 0.007015
74 0.006982
92 0.006985
118 0.006981
125 0.005028
111 0.007021
95 0.004974
99 0.006984
119 0.004956
141 0.004988
152 0.004994
166 0.004955
172 0.00504
180 0.004017
186 0.00499
191 0.003989
180 0.004008
92 0.005962
49 0.003987
49 0.006033
69 0.004027
87 0.005992
103 0.00602
105 0.004986
90 0.005022
85 0.005986
95 0.002987
117 0.004
130 0.002994
148 0.002005
160 0.00303
167 0.001995
175 0.002023
179 0.002032
185 0.002004
193 0.00399
163 0.0
74 0.002993
39 0.002041
46 0.002045
69 0.000999
81 0.001995
90 0.002962
88 0.003018
80 0.003011
80 0.003004
96 0.003021
108 0.003039
129 0.00297
146 0.003029
154 0.002994
164 0.005018
169 0.005022
177 0.006008
185 0.00598
191 0.005984
203 0.006987
195 0.005987
120 0.007021
49 0.006982
46 0.006984
68 0.007185
88 0.007975
96 0.005991
101 0.007986
86 0.00797
84 0.00798
93 0.007013
106 0.008016
128 0.007028
147 0.005987
155 0.005017
165 0.00402
172 0.003038
176 0.002998
183 0.002044
187 0.001999
199 0.0
169 0.0
99 0.0
57 0.0
64 0.0
81 0.0
109 0.001002
125 0.002022
118 0.002971
100 0.002992
97 0.002968
106 0.002959
129 0.002959
143 0.002962
161 0.002864
174 0.005
179 0.004986
187 0.004986
193 0.004986
197 0.004989
204 0.004986
160 0.004977
62 0.00602
49 0.005998
62 0.005984
84 0.006977
103 0.007977
111 0.006982
98 0.007971
88 0.00699
88 0.007941
111 0.007978
126 0.007975
142 0.007976
153 0.007976
168 0.00798
176 0.005962
180 0.007011
187 0.005985
192 0.006982
194 0.005987
87 0.004973
47 0.004991
39 0.00498
63 0.001977
76 0.001968
89 0.001997
91 0.003994
81 0.002009
77 0.003989
86 0.001998
103 0.003022
126 0.00395
138 0.003008
153 0.002992
159 0.002992
169 0.002993
176 0.000983
181 0.002992
191 0.001026
116 0.0
61 0.0
36 0.0
47 0.0
68 0.000997
85 0.001031
95 0.0
90 0.000993
81 0.000974
83 0.001039
100 0.002067
114 0.00203
135 0.001991
149 0.0
159 0.0
167 0.0
174 0.0
179 0.000997
187 0.000994
193 0.000998
198 0.002985
90 0.002992
51 0.002992
46 0.002803
62 0.002958
86 0.002958
103 0.004958
104 0.004993
88 0.004953
86 0.005018
95 0.005017
117 0.006031
131 0.005991
150 0.00698
161 0.007016
169 0.007017
174 0.006979
181 0.006981
185 0.006981
193 0.005984
203 0.002991
209 0.004987
125 0.002994
70 0.005019
52 0.003001
78 0.001996
96 0.001995
119 0.001995
115 0.001965
98 0.00199
88 0.002026
96 0.002043
119 0.0
137 0.002028
149 0.002036
164 0.001977
170 0.000998
176 0.001002
181 0.000998
190 0.002034
176 0.001999
73 0.001991
45 0.001988
50 0.001995
78 0.001993
93 0.002007
112 0.001996
100 0.003935
89 0.003997
90 0.003989
101 0.003959
124 0.005019
145 0.004991
155 0.006024
166 0.006985
174 0.006968
180 0.00501
185 0.00598
192 0.005984
198 0.006015
115 0.00695
59 0.004984
36 0.005017
59 0.002992
74 0.004983
90 0.00299
95 0.002995
86 0.002994
77 0.002999
83 0.002992
103 0.002991
126 0.002994
138 0.002994
152 0.003024
159 0.003026
167 0.001984
173 0.001996
178 0.0
187 0.002005
160 0.001993
89 0.001995
37 0.00103
41 0.001101
68 0.000984
86 0.000966
100 0.00102
99 0.001995
83 0.001994
80 0.002
95 0.001997
119 0.003031
132 0.00399
148 0.00502
161 0.004993
165 0.005022
170 0.005033
176 0.004982
182 0.006006
115 0.006024
55 0.006017
45 0.006036
65 0.006009
84 0.007941
109 0.007978
118 0.006982
103 0.005983
87 0.004115
92 0.005978
113 0.001965
136 0.001995
148 0.001998
161 0.002015
170 0.001996
174 0.0
183 0.0
174 0.0
91 0.000983
39 0.001992
47 0.0
70 0.001987
94 0.00199
105 0.001991
102 0.002033
90 0.002027
87 0.001012
100 0.0
119 0.001972
137 0.002992
153 0.003006
160 0.003009
170 0.003029
174 0.002994
180 0.00299
188 0.002992
193 0.004016
107 0.005018
36 0.004988
32 0.004996
56 0.006984
73 0.006977
80 0.006982
87 0.006979
81 0.005986
74 0.006979
82 0.007978
99 0.007972
116 0.00798
132 0.007981
147 0.007982
155 0.00598
161 0.007949
167 0.003991
175 0.003993
180 0.003029
190 0.003996
197 0.003989
200 0.003994
84 0.00399
44 0.003991
43 0.002024
64 0.002985
80 0.001998
90 0.003025
92 0.00201
86 0.0
82 0.0
94 0.00203
111 0.001997
129 0.004004
148 0.004035
156 0.004021
166 0.004958
171 0.005018
178 0.005018
186 0.005018
192 0.007016
202 0.006826
211 0.006982
217 0.005982
215 0.00499
93 0.004012
59 0.004956
62 0.004991
80 0.00499
105 0.004016
118 0.004985
114 0.001972
97 0.004022
92 0.00399
102 0.002989
125 0.003989
140 0.002993
157 0.002993
169 0.0
174 0.0
180 0.000997
185 0.0
189 0.002013
199 0.001995
185 0.001955
113 0.003992
51 0.00403
59 0.005019
76 0.006016
99 0.005994
113 0.007015
113 0.005987
99 0.006026
93 0.005973
100 0.005991
122 0.006028
136 0.004987
156 0.003037
169 0.001986
175 0.001991
183 0.001
190 0.0
193 0.000997
202 0.0
211 0.00096
209 0.000989
92 0.000997
40 0.001995
45 0.002993
70 0.003035
81 0.002993
94 0.004023
92 0.003989
84 0.003023
82 0.003998
94 0.005057
113 0.006016
131 0.005953
146 0.005978
156 0.006019
166 0.006946
170 0.006989
177 0.006967
185 0.006976
188 0.007978
201 0.003974
146 0.002005
79 0.001991
42 0.0
61 0.0
77 0.000953
93 0.0
102 0.0
95 0.0
85 0.000997
91 0.002028
103 0.001995
126 0.002017
140 0.001995
156 0.004025
165 0.004022
172 0.00399
177 0.003998
184 0.004025
189 0.003993
201 0.004986
195 0.006009
127 0.005994
56 0.004986
53 0.00501
79 0.004979
104 0.003026
115 0.002976
112 0.002984
94 0.004986
89 0.002002
101 0.002044
124 0.001996
137 0.002026
154 0.001026
161 0.001029
168 0.001996
173 0.0
177 0.000996
187 0.0
126 0.001007
86 0.001195
45 0.000997
61 0.001996
78 0.002993
98 0.003985
107 0.004023
99 0.005031
87 0.006976
93 0.00502
105 0.005018
127 0.005973
139 0.004961
154 0.004964
162 0.007021
168 0.004989
173 0.006017
179 0.004987
183 0.005029
194 0.005059
177 0.004989
69 0.005017
37 0.002993
47 0.003989
71 0.00199
82 0.001987
88 0.002006
83 0.002
78 0.001046
82 0.000982
97 0.002044
114 0.0
130 0.002058
144 0.0
150 0.0
159 0.0
165 0.001992
171 0.003954
178 0.004039
187 0.005984
195 0.005976
201 0.006017
117 0.006011
54 0.007982
45 0.005954
63 0.007978
81 0.005974
93 0.005971
97 0.005966
88 0.00495
82 0.005032
89 0.006006
110 0.005961
123 0.004942
140 0.004981
150 0.007019
157 0.005015
162 0.00601
165 0.001911
170 0.004986
178 0.004983
186 0.006031
174 0.003993
78 0.0
57 0.003038
68 0.002016
85 0.002029
108 0.000952
121 0.0
111 0.0
94 0.000954
102 0.000933
110 0.0
137 0.0
148 0.0
159 0.0
169 0.00087
174 0.00196
180 0.001996
186 0.002992
190 0.004987
201 0.005983
177 0.007013
105 0.00599
53 0.008009
54 0.005993
68 0.007018
87 0.005021
99 0.004937
100 0.004991
88 0.004986
86 0.004986
98 0.005
119 0.004094
132 0.002985
149 0.002995
158 0.004946
166 0.00298
172 0.004168
178 0.00299
183 0.004022
192 0.003991
198 0.003989
210 0.004034
136 0.0
74 0.002001
45 0.0
54 0.002025
75 0.0
89 0.0
96 0.0
93 0.000997
84 0.002005
85 0.001997
102 0.002992
124 0.003993
137 0.00601
151 0.005941
163 0.006981
168 0.005962
177 0.006007
182 0.006004
190 0.005986
200 0.00701
207 0.005986
206 0.007965
90 0.007952
65 0.007979
55 0.006982
81 0.002997
96 0.003979
113 0.00298
111 0.000973
98 0.001089
91 0.0
95 0.0
116 0.0
139 0.000997
150 0.001012
164 0.000997
171 0.001009
175 0.000998
182 0.001
189 0.001995
171 0.00299
86 0.00296
53 0.004966
61 0.005032
91 0.00598
107 0.005979
129 0.00602
115 0.005985
100 0.006019
97 0.00598
115 0.004942
129 0.003989
152 0.004987
163 0.003979
175 0.00399
184 0.002
188 0.00198
195 0.001994
194 0.00399
109 0.001999
48 0.003992
42 0.002025
57 0.002025
81 0.0
94 0.000968
99 0.000996
86 0.002
78 0.004032
85 0.004989
106 0.005983
128 0.005017
139 0.00602
153 0.005981
159 0.005997
166 0.005986
173 0.006013
178 0.005984
105 0.005984
53 0.006978
31 0.005945
48 0.004986
63 0.005017
78 0.002949
86 0.004987
81 0.003014
73 0.003989
79 0.003989
90 0.00399
111 0.003996
123 0.003993
139 0.003989
150 0.002
154 0.001994
160 0.000993
169 0.0
172 0.0
89 0.0
42 0.001033
37 0.001955
60 0.002891
80 0.004027
88 0.003957
92 0.00399
85 0.003995
80 0.003959
89 0.004045
105 0.004023
122 0.006019
139 0.005983
147 0.005987
156 0.006018
160 0.006017
166 0.006968
172 0.006971
177 0.00795
187 0.003988
199 0.003989
159 0.003993
64 0.003988
50 0.00399
68 0.001996
95 0.001993
105 0.002006
109 0.001999
92 0.00199
84 0.000967
91 0.001026
113 0.001008
126 0.001996
143 0.001995
151 0.000998
157 0.003006
162 0.002987
168 0.004027
174 0.00602
151 0.007015
77 0.004999
52 0.007072
60 0.004996
86 0.004982
98 0.005005
112 0.004947
107 0.004949
91 0.002992
96 0.001981
107 0.002981
129 0.001974
144 0.001997
153 0.001996
163 0.001996
171 0.0
174 0.0
179 0.0
185 0.0
193 0.0
192 0.0
125 0.0
49 0.0
51 0.0
66 0.000996
84 0.00202
93 0.003995
93 0.003991
84 0.004954
81 0.005041
94 0.00503
115 0.005029
127 0.004989
144 0.004988
154 0.006979
161 0.00695
167 0.007026
173 0.006983
180 0.006989
189 0.006937
195 0.006998
208 0.006017
207 0.006953
115 0.006016
52 0.002996
60 0.001995
76 0.00198
95 0.00299
101 0.002025
103 0.001997
91 0.001995
91 0.001995
105 0.0
123 0.002988
141 0.0
155 0.0
167 0.000997
173 0.0
181 0.0
184 0.0
192 0.0009
200 0.000994
211 0.000998
208 0.000997
117 0.000998
69 0.000984
73 0.001997
90 0.002992
116 0.003036
133 0.00296
129 0.002998
107 0.003045
104 0.002992
118 0.003026
142 0.00399
156 0.004043
173 0.004987
182 0.004987
188 0.004982
194 0.005984
199 0.005985
207 0.007016
164 0.007971
83 0.007963
60 0.007012
77 0.001995
94 0.00403
114 0.00399
129 0.00204
120 0.001993
103 0.002041
111 0.002029
124 0.0
149 0.000996
165 0.000997
175 0.000998
187 0.00089
193 0.001043
199 0.001009
207 0.000961
208 0.000999
106 0.002027
64 0.002018
55 0.003989
76 0.003024
99 0.005017
108 0.005025
115 0.007974
103 0.006017
97 0.007988
105 0.005977
117 0.00701
140 0.005985
161 0.005004
170 0.005017
181 0.005938
187 0.005943
193 0.004986
201 0.003988
208 0.005019
142 0.005986
83 0.004992
56 0.004977
73 0.00695
90 0.007008
111 0.006979
122 0.004988
115 0.005987
102 0.001997
109 0.001029
121 0.001011
144 0.0
164 0.0
170 0.0
182 0.000998
190 0.002993
194 0.003028
200 0.002993
207 0.002962
184 0.004951
85 0.00503
66 0.004988
81 0.004985
106 0.005984
126 0.006033
139 0.007971
126 0.007006
111 0.005982
107 0.005984
125 0.002982
140 0.003988
161 0.002014
170 0.003989
180 0.001984
188 0.001964
194 0.001992
180 0.002015
83 0.001943
61 0.001995
70 0.001998
88 0.001951
114 0.0
130 0.001995
126 0.002031
108 0.001995
104 0.0
116 0.002024
139 0.002021
152 0.002027
169 0.003024
180 0.001034
186 0.002028
193 0.0
196 0.002028
201 0.000993
203 0.0
142 0.0
55 0.0
50 0.000998
65 0.001995
88 0.003027
101 0.003948
102 0.003982
90 0.004026
86 0.00404
97 0.003974
114 0.003961
132 0.004002
146 0.006038
160 0.005978
166 0.006009
172 0.007016
178 0.004027
182 0.005023
192 0.002991
196 0.005022
104 0.002985
45 0.004005
46 0.001992
71 0.002984
92 0.002009
101 0.002045
102 0.002008
91 0.001986
90 0.0
101 0.00199
118 0.0
136 0.002035
155 0.002045
163 0.002011
173 0.002033
179 0.000998
185 0.001013
190 0.001048
197 0.003037
207 0.002992
177 0.004026
103 0.004024
55 0.004987
70 0.005984
89 0.006982
109 0.005984
121 0.001008
117 0.002962
95 0.002989
98 0.002948
110 0.002946
134 0.002018
151 0.003073
163 0.001982
172 0.002027
180 0.002983
183 0.000998
192 0.00203
187 0.001953
103 0.001957
54 0.001996
50 0.002029
73 0.002984
100 0.003028
114 0.002993
119 0.003044
97 0.005004
94 0.004984
108 0.004989
122 0.006014
141 0.005988
160 0.005988
169 0.004985
180 0.004945
187 0.006022
191 0.002985
197 0.005033
204 0.00503
161 0.005037
56 0.005019
39 0.005019
52 0.005019
78 0.001995
87 0.004987
99 0.002017
88 0.002987
82 0.001996
88 0.0
103 0.0
118 0.001994
140 0.002987
157 0.00399
163 0.005986
170 0.006981
177 0.006002
181 0.005951
191 0.004006
196 0.006023
125 0.003977
52 0.00503
37 0.004993
51 0.004987
76 0.003034
91 0.001994
95 0.003031
82 0.00298
77 0.002993
86 0.001977
108 0.002
122 0.001982
141 0.001993
150 0.000997
161 0.0
167 0.00402
171 0.000999
179 0.002018
186 0.0
193 0.00203
196 0.0
131 0.0
50 0.002992
47 0.004027
73 0.004981
88 0.006987
108 0.007029
106 0.006968
87 0.00698
80 0.006981
91 0.006981
115 0.006802
134 0.005981
144 0.006002
158 0.005977
164 0.005983
171 0.00698
177 0.004969
182 0.004972
192 0.003989
132 0.004967
57 0.002984
38 0.005016
58 0.003367
75 0.003991
95 0.002993
103 0.002952
93 0.003991
81 0.001987
85 0.002991
106 0.002009
121 0.001995
143 0.000993
158 0.0
165 0.0
174 0.0
179 0.0
183 0.001013
191 0.002028
179 0.003002
105 0.002956
37 0.002994
42 0.004028
58 0.00403
79 0.003987
89 0.00402
92 0.005028
80 0.006958
78 0.006987
89 0.00698
112 0.006992
126 0.00797
145 0.007972
155 0.007976
164 0.005977
171 0.005985
175 0.005985
182 0.004972
192 0.005953
154 0.004991
58 0.002982
42 0.002989
59 0.002984
81 0.005017
97 0.001997
108 0.002007
92 0.00203
82 0.002028
86 0.001995
104 0.0
114 0.002043
127 0.000955
134 0.004023
144 0.0
155 0.000955
162 0.0
170 0.0
92 0.001995
54 0.001995
48 0.001961
74 0.004988
89 0.005947
108 0.006982
109 0.006976
98 0.005955
91 0.004967
101 0.007013
118 0.003992
136 0.003974
153 0.002992
160 0.002992
169 0.002992
173 0.002992
180 0.002988
183 0.002005
135 0.002041
65 0.0
61 0.0
79 0.0
97 0.0
106 0.0
117 0.0
104 0.000997
99 0.001995
107 0.00199
126 0.001995
137 0.002027
154 0.00201
162 0.002003
171 0.002025
175 0.003007
179 0.004037
184 0.00501
192 0.005008
152 0.005019
81 0.004993
75 0.004992
92 0.005021
110 0.004987
115 0.007011
118 0.006007
106 0.005023
103 0.003984
112 0.003988
127 0.002999
138 0.004008
153 0.003043
164 0.00498
172 0.001999
178 0.002975
182 0.001994
187 0.002992
162 0.002998
113 0.002993
88 0.002031
101 0.0
121 0.0
133 0.0
143 0.000859
138 0.000997
125 0.001026
126 0.002024
139 0.001996
157 0.002006
166 0.002971
179 0.00402
187 0.00299
191 0.004992
197 0.00498
202 0.005017
167 0.004957
108 0.005925
107 0.005021
127 0.005975
146 0.006983
157 0.006023
165 0.007008
151 0.004965
142 0.004986
146 0.004986
161 0.002992
171 0.003068
185 0.001995
193 0.0
197 0.0
204 0.0
204 0.0
140 0.0
115 0.002029
119 0.003024
127 0.000998
163 0.002008
173 0.001995
165 0.002022
151 0.002009
147 0.002
157 0.002038
169 0.001993
180 0.001995
191 0.002994
196 0.003959
203 0.00405
205 0.004022
134 0.003941
103 0.004997
108 0.005017
125 0.005984
143 0.006017
148 0.006988
146 0.00598
130 0.006016
129 0.005985
139 0.005987
148 0.005967
162 0.004991
170 0.006982
176 0.004997
181 0.006991
186 0.004986
148 0.004987
87 0.004992
82 0.004998
97 0.004987
112 0.001992
117 0.003977
120 0.002002
108 0.001994
105 0.001995
112 0.002982
121 0.002989
136 0.001994
146 0.001995
151 0.00201
158 0.0
161 0.0
168 0.002991
129 0.002999
88 0.002982
70 0.002992
87 0.0
97 0.001965
105 0.002961
110 0.003989
105 0.005017
97 0.00502
105 0.004985
113 0.005934
128 0.004985
136 0.004833
145 0.006031
154 0.006971
157 0.006969
163 0.005976
171 0.005018
174 0.003981
109 0.004003
79 0.005982
84 0.003993
102 0.006019
115 0.003989
125 0.006024
119 0.00502
110 0.004987
108 0.004994
120 0.0
129 0.003008
143 0.000974
153 0.000941
156 0.000994
162 0.0
165 0.0
171 0.0
115 0.000861
87 0.0
84 0.0
97 0.0
115 0.0
130 0.0
127 0.0
110 0.0
111 0.000997
118 0.0
134 0.001006
143 0.000997
154 0.000964
161 0.000997
167 0.001998
171 0.001996
177 0.00095
163 0.002027
87 0.001877
71 0.001018
80 0.003007
97 0.003002
103 0.003002
110 0.002992
106 0.00396
97 0.004985
102 0.005988
108 0.006973
123 0.005984
135 0.007014
144 0.004998
151 0.006982
158 0.007029
162 0.007217
170 0.007011
174 0.006982
111 0.00499
68 0.001991
76 0.0
88 0.000995
100 0.0
105 0.0
106 0.0
98 0.0
98 0.0
108 0.0
125 0.0
135 0.002002
149 0.002993
158 0.003019
163 0.002041
170 0.003005
174 0.001997
182 0.003004
191 0.004987
144 0.004988
92 0.00499
84 0.004995
96 0.00499
114 0.004988
121 0.006018
126 0.006969
116 0.00599
111 0.007949
117 0.005985
133 0.005986
144 0.00598
157 0.006009
163 0.005992
171 0.005014
176 0.004985
179 0.004984
187 0.003963
188 0.006014
131 0.003011
96 0.004019
99 0.003036
112 0.003045
132 0.0
141 0.002029
139 0.000999
122 0.0
122 0.0
132 0.0
148 0.0
158 0.002033
170 0.000943
179 0.002043
183 0.002056
189 0.001965
192 0.002028
196 0.002032
118 0.002985
88 0.003006
84 0.00301
95 0.003028
111 0.003033
120 0.002946
122 0.002991
112 0.003992
107 0.005981
112 0.005922
128 0.006018
144 0.006973
152 0.007987
161 0.00502
168 0.007977
173 0.005018
181 0.004989
184 0.004978
113 0.004983
68 0.002988
68 0.002991
86 0.003003
97 0.002989
109 0.002042
111 0.00503
102 0.003006
98 0.005021
108 0.005995
118 0.006016
137 0.00399
146 0.00402
159 0.004015
169 0.0
174 0.0
180 0.0
178 0.0
125 0.000966
70 0.001002
74 0.003029
88 0.002878
109 0.002988
124 0.003986
120 0.004963
103 0.004974
101 0.005976
111 0.005984
129 0.007996
140 0.005968
153 0.006996
164 0.006015
169 0.006019
178 0.006015
148 0.003984
97 0.006025
67 0.003
83 0.001972
98 0.003038
122 0.003
130 0.001004
117 0.0
105 0.0
106 0.0
121 0.001007
142 0.001001
152 0.000998
165 0.000997
175 0.002048
180 0.002992
185 0.002993
138 0.002997
65 0.004988
57 0.006977
77 0.006981
86 0.006982
105 0.006982
113 0.002993
103 0.002992
93 0.0
103 0.000997
114 0.000979
134 0.000945
148 0.0
156 0.000998
166 0.001996
171 0.000998
179 0.002981
159 0.00402
98 0.00403
49 0.003981
58 0.003995
72 0.003999
90 0.003991
101 0.004997
97 0.004959
91 0.010946
86 0.000997
94 0.00798
118 0.007978
126 0.007979
144 0.003001
156 0.003984
163 0.003989
170 0.004023
180 0.003022
168 0.003021
78 0.002982
54 0.002994
61 0.003066
81 0.005984
98 0.002991
110 0.004028
106 0.001997
93 0.004021
93 0.004028
103 0.003986
123 0.004023
142 0.001994
152 0.003006
163 0.00095
168 0.0
175 0.0
168 0.0
113 0.0
61 0.001995
68 0.003988
95 0.00399
109 0.00504
127 0.006978
124 0.006978
103 0.006982
104 0.006976
119 0.006849
135 0.006979
153 0.007013
161 0.005977
171 0.006978
176 0.00603
182 0.005973
96 0.006979
59 0.00698
54 0.006983
67 0.007988
88 0.005979
109 0.004957
113 0.005984
96 0.003985
90 0.004013
97 0.003994
119 0.001995
135 0.002959
148 0.0
158 0.003026
166 0.003002
172 0.002998
176 0.002992
129 0.002993
51 0.002025
43 0.0
57 0.002
74 0.0
87 0.0
96 0.0
87 0.000998
82 0.000997
90 0.002984
109 0.002979
121 0.002989
139 0.00399
152 0.003988
158 0.003989
166 0.0039
172 0.003988
164 0.004035
74 0.005987
50 0.005985
56 0.005979
75 0.006017
88 0.004998
101 0.006015
100 0.005806
91 0.00502
93 0.006026
101 0.006016
121 0.005978
134 0.007003
151 0.007022
161 0.006981
170 0.007022
176 0.003997
183 0.002993
189 0.002987
171 0.000964
81 0.00097
64 0.000993
77 0.000998
97 0.003023
114 0.0
126 0.002996
113 0.0
103 0.000997
107 0.001972
117 0.001996
138 0.001995
153 0.004
165 0.004001
173 0.004025
179 0.003987
182 0.005021
190 0.006949
147 0.005972
96 0.005985
73 0.003989
93 0.003995
110 0.001996
136 0.001992
144 0.0
123 0.002006
111 0.002006
120 0.002026
132 0.002041
153 0.002991
164 0.001952
177 0.0
186 0.0
192 0.0
199 0.0
145 0.000997
88 0.000998
59 0.000836
67 0.001001
92 0.000998
114 0.001016
123 0.000997
110 0.002001
100 0.001027
102 0.002001
120 0.002037
132 0.002035
151 0.005016
166 0.005985
170 0.006983
180 0.005982
186 0.007976
130 0.005984
64 0.007974
51 0.007975
68 0.007977
88 0.005984
100 0.005984
113 0.004995
99 0.001994
94 0.000961
101 0.0
116 0.0
128 0.0
149 0.001996
163 0.002991
174 0.004022
181 0.005027
167 0.005991
87 0.005984
58 0.004987
62 0.007982
78 0.004984
99 0.006963
121 0.00698
124 0.007011
106 0.005984
103 0.003136
111 0.005021
131 0.002992
151 0.003038
161 0.002036
173 0.002037
179 0.002073
189 0.002994
124 0.000951
82 0.0
74 0.0
94 0.002992
118 0.0
141 0.002954
149 0.0
127 0.000982
115 0.002
122 0.00194
141 0.002001
156 0.003014
168 0.002992
178 0.003036
190 0.003991
188 0.003989
101 0.005938
75 0.005984
85 0.00594
112 0.005951
127 0.005984
145 0.005983
128 0.005983
117 0.005024
121 0.005976
131 0.006963
146 0.005997
163 0.004987
170 0.004995
182 0.005001
189 0.006981
133 0.003986
76 0.004986
70 0.005023
82 0.005022
104 0.004984
114 0.004987
121 0.003996
107 0.0
103 0.002031
112 0.001003
129 0.001014
139 0.0
152 0.001008
159 0.000996
168 0.0
138 0.000998
86 0.000997
59 0.000996
76 0.001997
89 0.002029
105 0.001953
113 0.004028
107 0.004034
100 0.003995
104 0.003949
115 0.003956
131 0.004026
139 0.004904
152 0.004986
156 0.026933
161 0.000962
141 0.003988
93 0.005942
69 0.00695
82 0.00502
97 0.004994
114 0.005974
124 0.004989
119 0.003977
110 0.003005
114 0.005997
126 0.002993
141 0.004987
153 0.002999
164 0.004986
174 0.002034
182 0.003988
148 0.002024
91 0.0
89 0.001996
110 0.0
125 0.003027
147 0.0
149 0.001964
141 0.001998
131 0.000997
139 0.001992
148 0.001999
164 0.004028
176 0.003958
183 0.004955
183 0.004992
114 0.005017
101 0.00499
108 0.00502
129 0.004945
150 0.004985
168 0.004987
158 0.005956
140 0.006984
145 0.00498
155 0.007003
167 0.00497
176 0.007014
188 0.003001
198 0.002041
164 0.00204
104 0.00199
105 0.003013
117 0.001997
137 0.001992
149 0.001994
151 0.002011
138 0.004025
135 0.001995
143 0.004007
157 0.002993
166 0.003007
178 0.003015
190 0.0
185 0.003023
111 0.0
95 0.003029
100 0.000981
120 0.001996
129 0.001995
142 0.001995
135 0.002027
130 0.001995
132 0.001999
139 0.002061
153 0.001995
167 0.001963
174 0.00196
184 0.002033
190 0.000995
133 0.002028
97 0.002984
101 0.00395
122 0.004981
135 0.00495
146 0.00495
144 0.006023
134 0.005984
134 0.005985
144 0.006989
155 0.003984
163 0.006039
175 0.002997
180 0.006165
190 0.002984
163 0.002976
122 0.002982
105 0.002012
120 0.004018
138 0.002991
152 0.00403
159 0.003006
146 0.003006
135 0.002045
138 0.002993
150 0.0
160 0.001995
170 0.002013
177 0.002043
184 0.002029
168 0.003027
102 0.004037
81 0.004983
94 0.004954
119 0.00698
135 0.00696
142 0.006017
126 0.005956
118 0.005999
124 0.003995
140 0.003972
149 0.004038
164 0.004029
173 0.007019
184 0.003021
179 0.00299
82 0.003022
60 0.001984
71 0.00205
87 0.002042
107 0.001996
120 0.0
115 0.0
104 0.001995
107 0.004027
123 0.004963
132 0.005982
143 0.005984
155 0.016957
168 0.000997
185 0.004993
148 0.002994
87 0.003006
58 0.001019
73 0.002028
95 0.000998
113 0.003025
124 0.0
118 0.003028
109 0.0
112 0.000965
129 0.0
149 0.0
157 0.0
168 0.001973
190 0.003028
196 0.004048
207 0.004987
120 0.005985
94 0.004986
86 0.004986
116 0.003985
136 0.002962
164 0.002022
165 0.002995
145 0.0
139 0.003023
153 0.001002
166 0.000998
187 0.001011
202 0.002012
215 0.00303
225 0.002992
236 0.004027
232 0.003991
131 0.005965
110 0.005978
123 0.00598
151 0.005995
179 0.007976
203 0.004972
192 0.002994
166 0.003003
168 0.0
184 0.0
200 0.0
212 0.000994
229 0.003027
244 0.002998
250 0.002963
255 0.002995
211 0.003026
126 0.003991
128 0.004027
151 0.004985
179 0.005004
212 0.004991
220 0.004809
191 0.005039
177 0.005996
181 0.005978
199 0.006001
212 0.006018
150 0.005983
244 0.00698
249 0.005035
254 0.004997
207 0.004985
123 0.004981
126 0.007976
149 0.004987
184 0.007977
210 0.00598
215 0.006016
183 0.005983
169 0.005986
174 0.004026
192 0.001988
203 0.00399
219 0.002002
232 0.001993
238 0.001996
140 0.002005
101 0.0
99 0.0
117 0.001001
136 0.000967
157 0.0
149 0.002992
130 0.0
123 0.0
136 0.000965
147 0.002995
165 0.002994
175 0.002987
188 0.002996
197 0.002975
132 0.004987
62 0.004987
53 0.00498
66 0.005984
90 0.006016
110 0.005988
111 0.007001
89 0.006989
83 0.006981
88 0.006977
108 0.006857
119 0.00698
133 0.006021
143 0.005981
158 0.006981
112 0.005961
48 0.004986
18 0.003979
31 0.007013
47 0.007013
69 0.005984
80 0.001998
69 0.00399
54 0.002994
56 0.004017
71 0.002993
91 0.002996
102 0.000992
114 0.0
129 0.0
123 0.0
26 0.0
0 0.0
9 0.0
35 0.002027
61 0.002995
66 0.011982
49 0.003959
42 0.003961
50 0.003986
65 0.005019
83 0.005991
98 0.005987
113 0.006017
122 0.006016
132 0.005985
83 0.005958
0 0.006021
0 0.005989
10 0.006994
31 0.00502
52 0.004985
55 0.00497
39 0.003956
35 0.003985
47 0.002997
68 0.003986
81 0.002995
101 0.003008
112 0.003991
122 0.001979
132 0.002992
77 0.00303
21 0.003024
62 0.0
69 0.0
79 0.000998
87 0.001035
92 0.00204
89 0.001995
85 0.001965
88 0.00399
99 0.003972
110 0.004989
115 0.004995
123 0.003992
130 0.004999
133 0.006013
138 0.005956
142 0.00598
139 0.005985
94 0.006016
75 0.006977
73 0.006933
84 0.00798
86 0.00698
93 0.007015
96 0.007033
92 0.006979
92 0.004013
97 0.005984
108 0.002993
118 0.002959
124 0.002994
131 0.00302
135 0.002992
141 0.002995
147 0.002057
150 0.003004
156 0.003035
162 0.002938
167 0.0
124 0.0
86 0.0
83 0.0
94 0.002003
101 0.003038
107 0.004028
109 0.004041
104 0.004977
103 0.005987
110 0.00602
116 0.007029
127 0.00698
137 0.00599
144 0.006975
154 0.003975
161 0.005003
165 0.003025
171 0.002992
180 0.001999
185 0.001991
194 0.002993
202 0.002991
164 0.0
102 0.001978
87 0.001032
95 0.000964
110 0.002028
122 0.002014
130 0.002008
119 0.001995
111 0.001989
114 0.001989
127 0.000961
136 0.002028
151 0.003995
161 0.004023
166 0.005969
171 0.005983
174 0.00698
178 0.006982
186 0.004043
188 0.004049
117 0.002988
82 0.004987
80 0.002996
93 0.004987
107 0.002993
114 0.002979
116 0.002992
104 0.0
104 0.0
114 0.000997
127 0.0
136 0.002012
148 0.002992
158 0.00396
164 0.00399
170 0.004023
173 0.004023
156 0.003988
83 0.003988
66 0.00482
74 0.003991
85 0.005
99 0.004987
109 0.004987
107 0.004988
96 0.004987
96 0.010936
99 0.001994
103 0.001029
123 0.001007
140 0.006021
150 0.005982
154 0.005984
161 0.005995
145 0.005985
85 0.006978
58 0.004978
64 0.007018
85 0.004982
102 0.004992
110 0.003998
104 0.004024
97 0.00498
100 0.001991
111 0.004985
128 0.003997
139 0.002991
155 0.003015
163 0.003023
172 0.002002
175 0.0
135 0.00198
86 0.000951
87 0.0
99 0.00099
120 0.001039
132 0.000998
140 0.002993
125 0.005021
124 0.005989
130 0.006954
145 0.00599
154 0.005957
165 0.006985
177 0.006
180 0.005985
188 0.006977
148 0.007992
113 0.00399
102 0.007025
114 0.002995
132 0.006981
150 0.006945
156 0.00702
142 0.006981
133 0.003055
136 0.005984
146 0.002992
153 0.005988
163 0.001992
172 0.000945
177 0.0
184 0.002993
167 0.001999
126 0.001039
107 0.001999
114 0.00199
137 0.001009
150 0.003041
159 0.000999
152 0.003003
139 0.002027
141 0.003023
151 0.001045
162 0.003026
169 0.002992
179 0.00297
184 0.001995
191 0.002993
179 0.00295
135 0.002992
112 0.00296
127 0.002962
140 0.003993
156 0.004987
163 0.005986
156 0.005972
143 0.005999
143 0.004986
152 0.005986
162 0.006104
171 0.002996
179 0.004037
186 0.003972
190 0.004019
143 0.004021
98 0.001995
103 0.00402
130 0.001996
145 0.004017
164 0.003002
151 0.0
137 0.0
136 0.0
147 0.00099
156 0.001003
171 0.002044
182 0.001997
188 0.002007
160 0.003004
103 0.002962
74 0.003
94 0.002995
107 0.003967
122 0.003955
125 0.005985
110 0.005989
101 0.005951
111 0.006026
119 0.006019
134 0.005989
140 0.00798
145 0.007974
149 0.005951
101 0.007979
42 0.00497
34 0.004014
45 0.004022
58 0.004969
61 0.0
67 0.000961
59 0.00305
57 0.002998
62 0.0
78 0.000998
88 0.00203
97 0.000998
105 0.001876
110 0.0
117 0.002992
117 0.00299
70 0.003031
25 0.004045
39 0.003955
51 0.005005
58 0.005954
64 0.005985
69 0.004978
69 0.005985
73 0.005985
85 0.006011
99 0.006
107 0.005976
121 0.005984
125 0.004982
131 0.004994
136 0.007981
141 0.00499
137 0.005988
70 0.006015
57 0.006026
71 0.005014
86 0.0
92 0.002025
99 0.000951
91 0.0
92 0.0
98 0.0
114 0.001044
123 0.001033
135 0.00203
141 0.002992
148 0.002997
156 0.002992
161 0.003987
127 0.004982
74 0.005983
72 0.005974
87 0.00498
95 0.006982
98 0.007974
105 0.007978
101 0.004987
100 0.004949
108 0.002039
124 0.001035
133 0.001994
143 0.0
150 0.001027
157 0.001017
166 0.0
171 0.0
177 0.001965
188 0.001991
188 0.001994
118 0.00203
97 0.002005
104 0.001992
117 0.002019
119 0.002
125 0.00202
119 0.002046
114 0.001997
117 0.001996
129 0.00395
137 0.003992
148 0.00497
157 0.006982
161 0.006964
166 0.00499
173 0.004029
178 0.002993
186 0.002997
193 0.002972
198 0.003992
121 0.002989
95 0.00301
97 0.003993
107 0.002999
110 0.002992
114 0.005041
113 0.003004
106 0.00502
107 0.005018
113 0.005024
127 0.005023
135 0.005022
145 0.005028
153 0.002997
158 0.002967
165 0.000961
171 0.000997
176 0.000997
187 0.002962
196 0.002959
203 0.003004
189 0.00299
101 0.003989
81 0.00396
86 0.002999
93 0.004028
95 0.004
99 0.003987
98 0.004984
93 0.006979
95 0.007963
100 0.00792
115 0.007026
129 0.003995
136 0.00598
146 0.00299
150 0.005981
157 0.00299
167 0.00395
173 0.003998
184 0.002998
196 0.002039
203 0.000999
213 0.0
200 0.002027
118 0.0
77 0.002988
76 0.000969
82 0.015917
88 0.0
94 0.000967
99 0.0
94 0.0
93 0.00097
100 0.0
113 0.001013
126 0.001035
140 0.002948
147 0.003008
156 0.003027
166 0.002962
171 0.003995
182 0.004987
193 0.004983
200 0.004986
212 0.004996
219 0.005003
228 0.004988
141 0.005985
98 0.006015
86 0.00599
96 0.006017
112 0.005974
116 0.005984
120 0.006019
112 0.006981
105 0.004991
106 0.007971
122 0.004979
137 0.007975
149 0.004989
160 0.002996
164 0.002994
174 0.001995
183 0.003011
188 0.0
198 0.000956
209 0.002028
204 0.00101
129 0.002989
90 0.000955
88 0.002991
104 0.003039
115 0.003024
130 0.003008
127 0.0
115 0.001997
111 0.0
118 0.002994
136 0.0
154 0.0
162 0.001956
173 0.0
178 0.0
185 0.0
192 0.001006
198 0.000971
129 0.001995
66 0.002017
60 0.001951
77 0.003987
93 0.003992
101 0.004025
106 0.00396
98 0.003952
89 0.003994
97 0.003961
111 0.003997
128 0.003951
144 0.00602
152 0.006015
162 0.005984
167 0.005983
174 0.006945
183 0.004979
189 0.007
107 0.005004
52 0.00397
49 0.003971
68 0.004001
80 0.003997
89 0.0
93 0.003023
86 0.0
82 0.002991
95 0.002992
105 0.002994
124 0.003005
138 0.0
145 0.003024
156 0.000987
162 0.00203
171 0.001003
180 0.000963
187 0.000997
174 0.0
111 0.0
62 0.0
70 0.0
82 0.0
93 0.0
102 0.002984
102 0.0
97 0.00199
99 0.00299
107 0.002971
125 0.003958
135 0.002959
149 0.005987
159 0.006982
165 0.006979
173 0.006977
180 0.00698
186 0.007975
195 0.006993
207 0.003986
203 0.006978
111 0.004023
86 0.006987
92 0.003993
105 0.022916
112 0.002992
130 0.003934
126 0.003991
120 0.002935
121 0.00301
128 0.002993
145 0.002975
158 0.003995
168 0.002993
177 0.002988
185 0.003034
188 0.003024
195 0.001962
202 0.004024
208 0.004046
212 0.004935
124 0.005984
99 0.007017
102 0.00602
123 0.005981
134 0.005989
148 0.005939
151 0.005938
136 0.005945
131 0.005949
137 0.005983
153 0.006036
169 0.006981
178 0.005976
186 0.006977
191 0.00599
196 0.005991
200 0.006981
204 0.006966
184 0.006016
108 0.002993
98 0.005013
114 0.002031
138 0.0
150 0.0
160 0.0
141 0.0
130 0.0
132 0.0
141 0.0
159 0.0
173 0.001993
180 0.002996
187 0.001838
193 0.003046
197 0.00303
147 0.002974
99 0.002994
79 0.003049
92 0.002996
110 0.002991
124 0.003028
132 0.00503
120 0.005015
104 0.006974
108 0.00599
120 0.006976
133 0.005967
145 0.006982
154 0.005972
163 0.005969
166 0.006154
172 0.004986
172 0.005977
103 0.003988
55 0.004983
48 0.003023
62 0.001991
79 0.003016
87 0.002031
90 0.003
74 0.001002
70 0.003001
80 0.000944
90 0.003024
107 0.0
120 0.000966
125 0.000961
133 0.0
139 0.002001
143 0.002016
139 0.002026
54 0.000979
32 0.001001
37 0.001876
51 0.002034
67 0.001992
78 0.004017
74 0.00397
61 0.003958
63 0.004976
74 0.004992
89 0.004987
