118 0.023997
121 0.007933
126 0.007974
138 0.007965
141 0.007023
144 0.007018
111 0.007985
81 0.007016
68 0.006977
78 0.006981
91 0.007983
103 0.007939
103 0.007962
106 0.007959
106 0.00798
109 0.007972
112 0.006988
118 0.007018
125 0.00699
133 0.006981
142 0.006993
148 0.006986
144 0.007964
101 0.006994
89 0.007941
66 0.007015
72 0.007028
87 0.007971
97 0.006972
103 0.007007
104 0.006984
101 0.006979
101 0.006981
107 0.00698
117 0.006981
125 0.006955
130 0.007974
138 0.007951
143 0.007962
150 0.007974
132 0.007019
97 0.006975
75 0.006981
71 0.006982
83 0.006966
97 0.006995
106 0.006984
104 0.006937
102 0.007962
102 0.007913
106 0.007952
114 0.007924
122 0.006983
132 0.006982
143 0.006982
155 0.006994
171 0.006982
178 0.007017
138 0.006977
87 0.006989
65 0.006941
66 0.00701
79 0.006982
98 0.006986
111 0.006974
115 0.006974
109 0.006995
104 0.006987
107 0.006981
119 0.006961
132 0.007001
148 0.00701
158 0.006022
166 0.006951
170 0.007008
177 0.007009
160 0.006951
104 0.006979
68 0.006982
61 0.00698
75 0.006982
98 0.006984
116 0.006989
123 0.006992
119 0.00697
111 0.005984
112 0.005992
121 0.006941
134 0.006982
145 0.006974
157 0.006987
167 0.007001
176 0.006981
181 0.006981
155 0.007011
103 0.006978
75 0.005988
73 0.005992
87 0.005955
103 0.005974
118 0.006947
128 0.006979
130 0.00698
118 0.006964
120 0.007031
133 0.006973
155 0.007032
165 0.006987
171 0.00604
175 0.006006
183 0.006001
183 0.00599
173 0.00695
122 0.006005
81 0.006983
74 0.006989
93 0.006981
111 0.006978
133 0.006981
141 0.00697
142 0.006062
141 0.005978
143 0.005969
148 0.006027
157 0.006008
164 0.006017
167 0.005984
171 0.006979
179 0.006982
179 0.007016
145 0.005995
98 0.006002
79 0.00597
81 0.005998
91 0.005979
110 0.005984
129 0.005979
138 0.005983
143 0.005991
142 0.005971
145 0.006982
151 0.006966
159 0.005984
165 0.005973
168 0.00597
172 0.005952
176 0.005943
180 0.005999
165 0.006019
117 0.005967
92 0.006018
94 0.006025
112 0.005978
127 0.005996
143 0.005971
151 0.006008
152 0.005974
153 0.005988
156 0.005932
165 0.006008
171 0.006018
174 0.005976
177 0.005993
183 0.004993
186 0.004992
184 0.004994
146 0.005993
105 0.005981
96 0.009973
95 0.0
140 0.0
82 0.00601
63 0.004988
64 0.00494
71 0.004975
95 0.004944
108 0.004997
116 0.005035
117 0.006027
120 0.005994
125 0.005964
133 0.006018
140 0.006019
149 0.006029
152 0.005983
157 0.004986
158 0.004978
122 0.004975
75 0.004987
59 0.004987
61 0.004984
72 0.004988
89 0.00602
102 0.005996
113 0.005033
119 0.005986
117 0.004977
117 0.005019
128 0.004974
139 0.004957
145 0.00498
146 0.005015
153 0.004994
153 0.004988
136 0.004993
86 0.006034
61 0.005968
60 0.005019
67 0.004967
86 0.004986
103 0.004996
116 0.004973
117 0.004982
117 0.005032
126 0.005019
133 0.004994
142 0.004978
148 0.005025
152 0.004989
161 0.004992
165 0.004987
163 0.004988
111 0.004997
83 0.004975
76 0.004972
78 0.004977
97 0.004978
113 0.004989
124 0.004983
130 0.003989
131 0.004985
127 0.004984
134 0.004987
145 0.004999
151 0.004987
154 0.005018
159 0.004983
163 0.005014
160 0.004963
136 0.004988
87 0.004024
68 0.003982
65 0.004015
79 0.004988
94 0.004974
106 0.00498
118 0.004986
116 0.004961
118 0.004988
123 0.004992
134 0.004979
140 0.005008
146 0.003969
153 0.00402
157 0.003983
161 0.004987
154 0.004995
115 0.004954
63 0.004988
61 0.004929
73 0.005026
89 0.004959
104 0.004987
115 0.003989
120 0.00399
114 0.003994
111 0.003993
121 0.003962
127 0.004953
133 0.004974
143 0.004987
153 0.005
160 0.005003
156 0.004001
122 0.003986
83 0.003989
69 0.003982
71 0.003969
84 0.003992
105 0.004
117 0.004019
127 0.003994
126 0.004974
129 0.004979
134 0.004975
141 0.004033
152 0.004021
156 0.003951
161 0.00398
165 0.004041
169 0.003992
153 0.004001
109 0.003992
77 0.004029
75 0.004988
84 0.004005
98 0.003991
107 0.003978
120 0.004018
118 0.003987
114 0.003995
117 0.003954
124 0.00398
135 0.003957
141 0.003997
147 0.003968
153 0.004025
151 0.003019
137 0.003984
90 0.003979
61 0.00398
62 0.00402
74 0.003989
88 0.003031
104 0.003989
118 0.003998
126 0.003022
125 0.003026
129 0.004003
136 0.002988
144 0.00299
150 0.003985
156 0.003962
160 0.000997
165 0.000997
164 0.000997
123 0.00396
85 0.003952
73 0.003019
74 0.003001
92 0.003957
104 0.003955
115 0.003952
124 0.003954
120 0.004004
112 0.003983
123 0.002947
134 0.002955
145 0.002978
149 0.002966
153 0.00299
159 0.002996
163 0.002955
147 0.004035
102 0.003973
75 0.003015
73 0.003986
81 0.002993
99 0.002986
118 0.003041
126 0.002993
124 0.002964
122 0.002958
129 0.002961
138 0.002959
145 0.003961
152 0.003989
157 0.003993
158 0.00298
160 0.002978
154 0.002955
109 0.002988
72 0.002942
66 0.002952
79 0.00293
92 0.002964
106 0.002956
114 0.002974
119 0.003992
119 0.003998
118 0.00298
123 0.002981
129 0.002984
140 0.00298
143 0.002961
148 0.002954
152 0.002946
155 0.002951
136 0.002952
91 0.002981
63 0.002037
60 0.00299
67 0.002974
85 0.00298
104 0.002983
114 0.002959
113 0.00299
113 0.002934
118 0.00296
123 0.002981
131 0.002955
141 0.002988
146 0.001986
149 0.002961
156 0.003004
156 0.003
130 0.002947
73 0.002946
67 0.002932
73 0.002965
84 0.002953
97 0.002963
117 0.002982
123 0.002
124 0.001985
126 0.001997
130 0.002959
140 0.002999
152 0.002993
156 0.002994
162 0.002958
167 0.002953
174 0.00294
174 0.002948
153 0.002969
108 0.001995
87 0.00199
86 0.001992
95 0.002011
108 0.00195
125 0.002919
134 0.002992
135 0.003039
135 0.002952
135 0.002944
143 0.001995
151 0.001987
153 0.002003
156 0.002
161 0.001998
161 0.002964
148 0.002956
110 0.001995
77 0.002956
76 0.002967
83 0.002978
98 0.002988
110 0.001993
118 0.001987
121 0.002011
124 0.002002
126 0.002002
133 0.002993
139 0.001983
142 0.001978
147 0.002963
151 0.002947
154 0.003026
150 0.001981
134 0.001983
83 0.001999
70 0.001979
76 0.001987
88 0.001998
102 0.00202
121 0.001991
129 0.001986
132 0.002992
135 0.001996
141 0.003002
149 0.002
153 0.001981
160 0.001989
165 0.002009
168 0.002007
171 0.001986
165 0.001975
119 0.001953
95 0.000953
88 0.00195
101 0.001945
117 0.000962
129 0.001996
136 0.001958
136 0.029921
137 0.0
152 0.001996
156 0.001959
157 0.000998
161 0.000943
149 0.00097
120 0.001
83 0.001971
75 0.001987
83 0.001989
92 0.002
108 0.002009
115 0.001994
120 0.001996
122 0.001954
125 0.000994
131 0.000981
135 0.000969
137 0.000983
142 0.000995
147 0.000989
145 0.001992
139 0.001979
121 0.001982
82 0.001969
65 0.00196
74 0.000984
89 0.000972
108 0.000997
115 0.000966
120 0.000998
124 0.000997
128 0.000992
132 0.001963
139 0.001997
144 0.001988
148 0.001956
152 0.001986
151 0.00094
146 0.00103
116 0.001031
83 0.000998
73 0.001004
81 0.00097
93 0.001007
109 0.000995
122 0.000956
122 0.000955
122 0.002033
127 0.000996
134 0.000974
140 0.000963
143 0.001
147 0.000997
152 0.000997
153 0.001005
145 0.000997
117 0.000994
80 0.001008
65 0.00198
70 0.000981
95 0.000998
109 0.000998
117 0.001007
121 0.001002
123 0.000983
123 0.000983
127 0.001024
133 0.000997
139 0.001
142 0.001007
148 0.0
151 0.0
139 0.000999
110 0.000997
77 0.000991
72 0.001022
81 0.000998
97 0.000991
106 0.001025
117 0.001038
123 0.001
122 0.0
126 0.0
137 0.0
145 0.0
147 0.000992
149 0.000998
159 0.000996
167 0.000999
157 0.000993
129 0.000992
77 0.000987
52 0.0
57 0.0
78 0.0
106 0.0
111 0.0
113 0.0
114 0.000993
118 0.000997
122 0.000982
132 0.001006
139 0.000995
146 0.000987
154 0.001014
157 0.0
150 0.0
83 0.0
45 0.0
37 0.0
49 0.000998
72 0.000986
89 0.000983
103 0.000945
113 0.000976
110 0.0
115 0.0
126 0.0
135 0.0
145 0.0
147 0.0
155 0.0
160 0.0
139 0.000964
96 0.001015
54 0.001029
39 0.0
42 0.0
70 0.0
88 0.0
102 0.0
111 0.0
116 0.0
119 0.0
128 0.0
138 0.000996
148 0.0
154 0.0
160 0.0
163 0.0
157 0.0
118 0.0
68 0.0
48 0.0
55 0.0
75 0.0
89 0.0
106 0.000966
112 0.000975
112 0.0
106 0.0
114 0.0
127 0.0
137 0.000986
145 0.0
155 0.0
157 0.0
153 0.0
95 0.0
55 0.000969
37 0.000989
48 0.0
53 0.015958
77 0.0
108 0.0
157 0.000997
166 0.000958
167 0.0
149 0.0
123 0.0
69 0.0
63 0.0
79 0.0
102 0.000999
126 0.0
131 0.0
136 0.0
136 0.001
139 0.000954
144 0.0
152 0.0
152 0.0
158 0.0
162 0.0
164 0.0
149 0.001003
90 0.0
51 0.0
39 0.0
49 0.000971
69 0.000999
91 0.0
108 0.0
118 0.0
117 0.000961
122 0.0
130 0.00097
144 0.000999
154 0.0
152 0.0
156 0.0
159 0.000962
151 0.000971
113 0.0
64 0.0
40 0.0
38 0.000997
61 0.0
81 0.0
94 0.000999
103 0.0
110 0.0
115 0.0
121 0.000999
126 0.000981
143 0.0
148 0.0
156 0.0
158 0.000942
149 0.000999
117 0.000997
69 0.000998
49 0.0
57 0.0
82 0.0
99 0.000971
110 0.000959
118 0.0
119 0.0
121 0.000959
130 0.000979
141 0.000998
149 0.000998
154 0.000998
162 0.0
167 0.0
158 0.001006
135 0.000999
101 0.001
73 0.00103
79 0.000976
98 0.000996
119 0.001966
142 0.000998
148 0.00103
152 0.000969
159 0.0
161 0.000998
169 0.0
171 0.000971
178 0.000998
180 0.0
182 0.000999
173 0.001032
157 0.002041
102 0.000965
92 0.001958
100 0.002032
116 0.000999
134 0.000959
139 0.0
142 0.000999
146 0.001043
144 0.0
149 0.000973
158 0.001049
160 0.001999
168 0.000999
167 0.002034
167 0.002
152 0.000999
118 0.000998
73 0.0
72 0.001968
85 0.000999
107 0.0
120 0.000985
124 0.000994
127 0.001952
129 0.000998
136 0.001996
143 0.001995
150 0.000999
155 0.000998
153 0.000999
164 0.000999
158 0.001011
132 0.000961
93 0.000967
71 0.000971
86 0.001044
102 0.001027
118 0.002025
134 0.001996
137 0.000998
140 0.002028
143 0.000973
144 0.000949
144 0.002041
154 0.000962
157 0.000967
162 0.000952
163 0.001033
151 0.001045
124 0.001995
79 0.002023
56 0.00103
69 0.000997
84 0.000967
98 0.002045
107 0.003033
111 0.002012
114 0.000996
120 0.000992
129 0.017927
131 0.000997
133 0.0
146 0.000996
139 0.001037
114 0.001952
64 0.002978
32 0.002995
29 0.002002
33 0.001997
55 0.000996
73 0.000988
82 0.000963
83 0.001996
81 0.00203
95 0.002022
101 0.001056
107 0.000996
116 0.002985
124 0.003028
121 0.002005
113 0.002031
70 0.00197
16 0.001032
21 0.000985
29 0.000939
49 0.002051
66 0.003044
72 0.002027
76 0.00201
74 0.001994
80 0.003024
91 0.00303
109 0.001987
117 0.000953
134 0.000967
132 0.000969
114 0.000961
58 0.001995
22 0.002992
15 0.002031
30 0.002029
48 0.002024
66 0.003024
79 0.002961
82 0.002037
80 0.002021
86 0.002008
95 0.002035
106 0.001032
120 0.001998
127 0.003022
133 0.002006
124 0.002023
70 0.00204
16 0.003036
0 0.003036
10 0.002006
20 0.001996
45 0.002047
52 0.002993
47 0.003032
45 0.002992
44 0.002992
64 0.001999
77 0.001937
89 0.002027
102 0.00303
113 0.003016
114 0.002038
73 0.002028
0 0.003019
0 0.002992
0 0.003047
5 0.003039
22 0.003038
35 0.002026
33 0.002033
29 0.002
34 0.002976
47 0.002948
62 0.00202
82 0.003033
103 0.002036
120 0.002033
135 0.002056
135 0.004018
109 0.003987
51 0.003041
15 0.001975
18 0.001995
36 0.002992
53 0.003046
71 0.001994
73 0.003989
73 0.003028
70 0.003028
75 0.003025
88 0.004017
94 0.003988
109 0.002991
120 0.001996
135 0.00203
147 0.003023
150 0.002988
110 0.002022
27 0.004006
8 0.003009
14 0.003048
27 0.002993
45 0.003995
57 0.003988
56 0.003025
53 0.002029
55 0.002015
60 0.002992
71 0.003948
95 0.002031
114 0.004024
131 0.003042
136 0.003036
149 0.003034
159 0.003989
151 0.003988
74 0.003033
20 0.002012
2 0.002043
8 0.002985
24 0.002997
47 0.003007
61 0.00399
57 0.002967
61 0.003025
66 0.003027
75 0.003988
87 0.004019
107 0.003029
119 0.002035
133 0.003043
145 0.002992
158 0.003965
172 0.003028
176 0.003989
100 0.003001
52 0.00304
40 0.00298
49 0.003996
62 0.003933
89 0.002993
98 0.002991
92 0.003042
91 0.004987
95 0.00498
100 0.003987
118 0.003994
136 0.002991
150 0.002989
161 0.003026
168 0.003989
178 0.004001
189 0.003006
184 0.002991
139 0.003034
74 0.004979
40 0.005024
43 0.002992
61 0.004972
79 0.003993
90 0.00399
94 0.003046
89 0.003003
93 0.003992
103 0.003981
119 0.003001
135 0.004033
148 0.004017
160 0.005011
166 0.004954
184 0.004971
195 0.004989
192 0.003057
138 0.00399
75 0.002998
55 0.003991
58 0.003965
82 0.003998
103 0.002951
116 0.003998
124 0.00502
124 0.004953
123 0.00501
133 0.004998
151 0.003012
167 0.00299
181 0.003019
187 0.004994
192 0.004988
202 0.003979
207 0.003992
206 0.003962
186 0.00498
82 0.004023
65 0.005011
75 0.004986
90 0.003973
109 0.003989
119 0.003044
124 0.004022
117 0.004955
112 0.003961
118 0.002991
129 0.004004
146 0.00496
168 0.004052
179 0.004988
182 0.005032
193 0.004026
202 0.003998
195 0.003987
158 0.003981
90 0.004984
56 0.003984
59 0.004007
77 0.003989
95 0.004999
126 0.004035
132 0.004984
128 0.00498
134 0.003988
143 0.003982
152 0.002998
167 0.006025
177 0.005998
187 0.003971
199 0.003989
210 0.004
214 0.004983
206 0.003993
173 0.00499
109 0.00595
86 0.004003
98 0.00494
114 0.004994
131 0.005986
152 0.005977
159 0.003962
159 0.004014
153 0.004009
155 0.00495
172 0.003969
176 0.00498
182 0.004979
188 0.004038
190 0.004028
191 0.00504
195 0.005987
177 0.00598
103 0.004039
70 0.00401
63 0.004027
72 0.004964
105 0.003988
126 0.004985
140 0.004986
141 0.003995
146 0.005043
154 0.004982
161 0.00598
165 0.005983
178 0.004029
182 0.004031
186 0.003997
192 0.004968
191 0.004007
173 0.004979
125 0.00598
73 0.004971
75 0.005019
87 0.005022
108 0.005984
123 0.005969
143 0.004039
146 0.004987
151 0.003983
157 0.004984
169 0.003997
177 0.004956
185 0.005987
193 0.004992
202 0.004988
206 0.004994
199 0.005972
185 0.005981
136 0.003993
86 0.004967
76 0.004937
89 0.005021
124 0.004959
137 0.005983
137 0.006024
142 0.004945
141 0.004956
145 0.004984
153 0.00602
159 0.006007
163 0.004952
168 0.005014
176 0.00505
177 0.005033
169 0.004996
140 0.005978
83 0.005993
58 0.004983
60 0.005029
79 0.004979
99 0.005941
119 0.005951
131 0.004981
133 0.005029
131 0.006036
141 0.005976
144 0.004969
149 0.005982
162 0.005975
166 0.004979
167 0.004974
174 0.004972
172 0.005954
143 0.00598
77 0.003988
73 0.00402
83 0.004991
119 0.00598
133 0.005976
145 0.006988
152 0.005988
153 0.005984
150 0.004986
153 0.00498
157 0.005968
159 0.00601
167 0.004958
168 0.004948
170 0.006012
161 0.005984
142 0.006024
106 0.005986
82 0.006979
84 0.006017
113 0.005003
130 0.004995
139 0.004995
142 0.005988
145 0.005964
151 0.006023
156 0.005985
162 0.00595
171 0.005987
178 0.005965
179 0.006975
179 0.006928
185 0.005985
173 0.004981
149 0.005001
123 0.005991
112 0.006979
118 0.006031
136 0.006012
153 0.006026
155 0.005986
150 0.006016
147 0.006963
149 0.006987
151 0.005012
148 0.005022
150 0.004998
150 0.006955
147 0.007023
140 0.005986
130 0.005953
78 0.00602
44 0.006032
44 0.006021
55 0.006975
73 0.006979
84 0.00599
90 0.005984
90 0.004981
96 0.00698
97 0.006989
113 0.005974
120 0.005957
127 0.005992
125 0.005984
129 0.00598
135 0.006979
122 0.00697
42 0.006986
8 0.006988
7 0.006007
16 0.00697
33 0.006965
62 0.005995
75 0.005965
73 0.005996
72 0.005974
80 0.007032
89 0.007979
94 0.007954
104 0.006977
115 0.00698
122 0.00694
125 0.007946
119 0.007971
51 0.005953
0 0.00595
0 0.005993
9 0.006981
26 0.006001
45 0.006989
60 0.007968
63 0.006979
57 0.00697
59 0.007019
66 0.007974
84 0.007967
101 0.005975
117 0.006968
124 0.005989
133 0.006982
140 0.005994
117 0.007006
54 0.00798
19 0.007017
26 0.007021
42 0.007008
58 0.007978
75 0.00798
79 0.005983
77 0.007975
83 0.005995
94 0.00602
103 0.005991
118 0.007017
134 0.00795
147 0.006985
153 0.007009
166 0.00701
176 0.007978
162 0.007978
115 0.007007
56 0.007977
63 0.006012
76 0.005979
93 0.005991
104 0.00798
110 0.007979
107 0.006983
103 0.006955
107 0.006955
119 0.007978
130 0.007989
142 0.006975
157 0.007945
164 0.006013
172 0.006978
176 0.007942
182 0.00794
167 0.007963
112 0.007015
71 0.006971
62 0.006954
77 0.007982
88 0.00798
112 0.006985
118 0.007979
115 0.006985
116 0.007008
125 0.00694
133 0.006957
141 0.007958
151 0.007029
161 0.006977
170 0.006988
174 0.007963
179 0.007934
186 0.007054
172 0.008977
106 0.002986
63 0.006972
55 0.00697
67 0.007008
87 0.007978
109 0.00701
114 0.006982
110 0.00697
103 0.007978
111 0.007984
122 0.006977
142 0.007979
149 0.007034
162 0.007012
167 0.007012
173 0.007017
177 0.00701
183 0.00701
163 0.007031
116 0.007028
75 0.006977
59 0.007957
74 0.006986
106 0.006974
121 0.006968
117 0.007017
108 0.007011
110 0.007021
117 0.007008
122 0.007011
138 0.00698
142 0.007007
151 0.006955
155 0.007985
163 0.007978
164 0.00701
147 0.006983
74 0.007035
34 0.007006
39 0.007043
58 0.007012
78 0.00702
104 0.006951
109 0.007019
102 0.006973
96 0.006983
96 0.00797
116 0.007013
125 0.006984
142 0.007009
150 0.007027
153 0.00701
160 0.007025
164 0.007021
147 0.007026
95 0.007022
32 0.006974
20 0.006957
49 0.007018
72 0.007011
87 0.00701
99 0.007009
96 0.007009
92 0.007013
92 0.007008
103 0.00701
119 0.007011
125 0.00698
133 0.006994
143 0.006971
156 0.006014
159 0.007015
140 0.007009
67 0.006992
14 0.007017
3 0.007022
21 0.007024
48 0.006968
71 0.007013
81 0.007034
84 0.006019
81 0.005955
89 0.006013
95 0.005957
109 0.007027
127 0.006981
134 0.007039
136 0.006983
143 0.00694
150 0.006015
145 0.00701
100 0.006029
28 0.006007
0 0.005985
11 0.006021
32 0.006012
56 0.006013
67 0.007025
66 0.007013
63 0.007011
65 0.007015
72 0.007016
90 0.006946
106 0.006013
115 0.006025
118 0.006009
129 0.006034
138 0.00602
139 0.006036
80 0.006983
7 0.007021
0 0.007011
0 0.00701
0 0.007026
34 0.006026
46 0.005984
51 0.006023
49 0.005984
47 0.006035
59 0.00602
71 0.00597
86 0.006029
99 0.006029
107 0.006993
116 0.007016
121 0.006013
134 0.006014
128 0.006003
81 0.006029
2 0.005993
44 0.006036
54 0.006027
66 0.006019
80 0.005986
84 0.005985
85 0.006015
80 0.006013
82 0.005986
90 0.005982
96 0.006024
104 0.006009
113 0.005985
122 0.006023
124 0.006012
129 0.006028
133 0.006013
124 0.006011
92 0.005983
56 0.005984
45 0.006031
54 0.006018
68 0.006018
80 0.005987
87 0.005987
89 0.004949
86 0.006014
88 0.006019
96 0.006013
104 0.005989
112 0.005038
118 0.005016
126 0.006026
129 0.006009
135 0.006017
140 0.006022
129 0.00601
92 0.006025
58 0.006014
52 0.005013
67 0.005016
78 0.005015
89 0.005038
99 0.004992
98 0.005019
96 0.00601
98 0.006016
102 0.006045
114 0.006014
119 0.006028
126 0.006014
131 0.00603
135 0.005023
141 0.005015
146 0.004988
145 0.005044
130 0.005015
90 0.005049
61 0.006029
63 0.006017
82 0.006015
94 0.005012
102 0.006014
105 0.005018
102 0.005013
103 0.005023
109 0.005022
117 0.005019
125 0.005013
132 0.005024
138 0.005023
140 0.005985
146 0.006011
151 0.006026
155 0.005001
146 0.004985
120 0.005029
73 0.005022
65 0.005021
73 0.005022
85 0.005019
98 0.005026
105 0.005036
107 0.004978
106 0.005986
110 0.005991
114 0.005023
122 0.00503
128 0.005019
137 0.004964
140 0.00503
143 0.005013
149 0.005026
154 0.004991
154 0.00502
139 0.005023
84 0.005024
71 0.005026
76 0.005024
87 0.004988
100 0.005025
110 0.005021
112 0.005027
111 0.004992
114 0.005027
116 0.00503
128 0.005038
136 0.005025
143 0.005023
148 0.005054
150 0.005016
156 0.004985
160 0.005027
159 0.005015
143 0.004985
114 0.00502
82 0.005018
76 0.005013
90 0.004986
100 0.004986
110 0.004016
111 0.003983
110 0.004015
102 0.005028
109 0.005013
121 0.005019
131 0.005025
137 0.005013
141 0.004952
145 0.004994
155 0.005015
158 0.004043
156 0.004025
127 0.004027
87 0.003982
57 0.004024
57 0.004988
76 0.005029
92 0.004988
105 0.00498
108 0.005032
109 0.005038
109 0.003982
115 0.003993
132 0.003988
142 0.004015
150 0.004015
154 0.004024
156 0.004033
166 0.005014
170 0.005037
169 0.005015
149 0.004037
108 0.003991
70 0.003986
75 0.00399
96 0.003989
109 0.004017
117 0.004015
118 0.004007
116 0.004018
117 0.004986
123 0.00503
136 0.005019
145 0.003981
150 0.004018
157 0.004037
164 0.00399
173 0.004002
174 0.004019
164 0.003985
122 0.003999
91 0.003995
83 0.003989
92 0.003979
106 0.004981
124 0.003983
131 0.003983
128 0.00402
122 0.004007
128 0.003995
135 0.003988
143 0.004024
152 0.004034
159 0.003968
162 0.003968
172 0.003984
179 0.002947
178 0.002998
169 0.003948
121 0.003987
85 0.004016
88 0.003975
99 0.004036
114 0.003953
125 0.003936
129 0.003993
124 0.003978
122 0.00398
123 0.003987
131 0.002986
139 0.002993
148 0.004032
158 0.003982
165 0.003986
171 0.003987
176 0.003941
176 0.0
144 0.00302
98 0.002976
85 0.003002
90 0.00298
100 0.003006
116 0.002965
128 0.003975
128 0.00396
118 0.003947
121 0.003958
128 0.003975
133 0.004004
138 0.002986
149 0.003
154 0.002951
159 0.002987
168 0.00296
172 0.002953
151 0.002952
100 0.003978
79 0.003976
85 0.003979
94 0.00395
107 0.003031
118 0.003037
123 0.002964
117 0.003007
115 0.002933
119 0.002988
127 0.00298
136 0.002931
150 0.002942
155 0.002991
166 0.00397
172 0.003936
174 0.003
171 0.00299
137 0.002962
89 0.002995
83 0.002994
92 0.002992
103 0.002998
115 0.002993
125 0.002948
122 0.002969
116 0.003988
114 0.00296
121 0.002973
133 0.00294
139 0.002957
148 0.002988
157 0.002966
161 0.00296
165 0.002983
157 0.00297
121 0.002993
87 0.003991
74 0.002989
83 0.002977
97 0.002978
108 0.002991
118 0.002954
120 0.002992
114 0.002947
114 0.00295
116 0.002997
130 0.002993
139 0.003001
148 0.001946
155 0.00199
162 0.001973
169 0.003016
172 0.00304
155 0.002973
104 0.002992
79 0.002964
75 0.002994
87 0.002992
107 0.00302
118 0.001969
117 0.001991
111 0.002979
113 0.002999
116 0.002949
124 0.002951
134 0.002955
144 0.002964
149 0.002953
159 0.002994
168 0.002987
176 0.002994
167 0.001996
128 0.003005
88 0.00299
82 0.001987
89 0.002956
103 0.002993
115 0.002947
122 0.002944
120 0.002949
115 0.002951
114 0.003015
121 0.001992
128 0.00201
135 0.001995
147 0.001995
155 0.001999
160 0.001994
167 0.001995
169 0.001929
133 0.002993
94 0.00295
78 0.001991
79 0.002997
98 0.002
110 0.001997
117 0.002007
117 0.002026
108 0.001997
109 0.00199
115 0.001995
124 0.001944
133 0.001995
141 0.001973
149 0.00299
153 0.001953
162 0.001996
163 0.002022
143 0.001955
87 0.001996
69 0.002021
70 0.00199
83 0.001963
96 0.001936
111 0.001997
113 0.002029
108 0.001001
104 0.002033
114 0.001992
123 0.001992
133 0.001989
145 0.001994
153 0.001974
159 0.001957
163 0.001979
170 0.001962
172 0.00198
145 0.00197
100 0.000984
83 0.000991
93 0.002032
107 0.001981
117 0.001985
126 0.001994
123 0.001977
113 0.001994
106 0.00198
109 0.001994
113 0.000988
116 0.000997
123 0.000991
132 0.001006
145 0.002001
149 0.001954
152 0.001918
131 0.001991
83 0.001036
56 0.002028
50 0.001966
60 0.000996
88 0.001001
103 0.001006
113 0.000996
116 0.00103
119 0.001003
122 0.000999
128 0.001991
144 0.002015
154 0.001993
162 0.001972
169 0.002006
172 0.000992
177 0.000945
180 0.000965
153 0.001031
92 0.000991
84 0.000998
90 0.000976
97 0.001012
106 0.000989
110 0.001996
108 0.001992
102 0.000971
101 0.000995
103 0.000948
111 0.000986
122 0.000987
146 0.000981
152 0.000991
159 0.000999
164 0.001002
168 0.000998
128 0.001957
84 0.001045
62 0.000999
60 0.001006
71 0.000953
93 0.001004
105 0.000992
105 0.001009
100 0.000999
104 0.001005
113 0.0
119 0.000993
130 0.001957
136 0.000988
139 0.001035
144 0.000998
154 0.000999
165 0.000988
156 0.000997
76 0.000965
55 0.001002
61 0.001002
72 0.00101
81 0.001942
98 0.000969
102 0.000953
98 0.000956
95 0.00101
98 0.000997
107 0.000991
116 0.000989
126 0.001016
141 0.001009
148 0.001005
156 0.000951
161 0.0
158 0.0
113 0.0
74 0.0
65 0.0
73 0.001004
86 0.001007
98 0.000947
112 0.000956
110 0.00096
105 0.000981
108 0.0
116 0.0
130 0.0
141 0.0
153 0.0
162 0.0
166 0.0
174 0.00102
176 0.000944
149 0.000966
107 0.0
90 0.0
94 0.0
104 0.0
114 0.0
124 0.0
129 0.0
121 0.0
113 0.0
112 0.000997
117 0.000985
138 0.001009
145 0.0
153 0.0
159 0.0
168 0.0
166 0.0
154 0.0
110 0.0
80 0.0
72 0.0
83 0.0
96 0.0
113 0.0
119 0.0
118 0.0
111 0.0
107 0.0
114 0.0
127 0.0
135 0.0
144 0.0
153 0.0
162 0.0
169 0.0
142 0.0
102 0.0
88 0.0
89 0.0
99 0.0
119 0.0
131 0.0
139 0.0
142 0.0
137 0.0
137 0.0
151 0.0
162 0.0
169 0.0
172 0.0
175 0.0
177 0.0
178 0.0
161 0.0
115 0.0
91 0.0
88 0.015952
101 0.0
120 0.000997
130 0.000993
135 0.001994
126 0.0
124 0.0
130 0.0
139 0.001035
146 0.001028
156 0.0
161 0.0
163 0.0
167 0.000998
158 0.001004
107 0.001988
74 0.001992
69 0.0
82 0.0
96 0.0
113 0.001037
132 0.0
136 0.002962
132 0.000961
122 0.0
128 0.000997
132 0.000948
145 0.000969
159 0.001997
167 0.002039
176 0.0
178 0.0
170 0.0
133 0.00104
106 0.000998
102 0.0
112 0.0
127 0.0
140 0.000952
144 0.000998
139 0.00098
132 0.002034
125 0.0
131 0.0
141 0.0
151 0.001029
156 0.001038
166 0.0
170 0.0
161 0.0
97 0.0
69 0.0
67 0.001002
73 0.000997
80 0.000997
99 0.0
111 0.0
109 0.002007
100 0.001038
100 0.0
108 0.0
120 0.0
135 0.0
144 0.0
153 0.000992
158 0.000998
152 0.0
115 0.0
79 0.0
72 0.002046
75 0.00103
92 0.0
103 0.0
117 0.0
122 0.000963
117 0.0
120 0.00201
125 0.000999
136 0.000997
151 0.0
157 0.0
161 0.001995
169 0.002042
173 0.0
158 0.0
92 0.0
80 0.0
85 0.0
94 0.001004
102 0.000998
119 0.0
121 0.0
115 0.0
109 0.002036
109 0.002013
113 0.0
124 0.0
140 0.0
148 0.0
152 0.0
153 0.000997
140 0.000999
82 0.000998
60 0.0
63 0.0
72 0.002039
86 0.002023
99 0.0
107 0.0
100 0.0
95 0.000968
98 0.0
105 0.002006
119 0.002046
131 0.00198
140 0.0
147 0.0
154 0.002028
149 0.002022
100 0.000997
74 0.000979
76 0.000997
85 0.0
96 0.0
112 0.000996
121 0.001995
118 0.000957
118 0.002005
122 0.002067
128 0.001995
138 0.002024
152 0.000997
159 0.000997
167 0.000998
168 0.001
162 0.000965
129 0.001962
91 0.002032
80 0.00097
88 0.001989
96 0.002011
108 0.001997
117 0.001996
123 0.001024
117 0.001025
117 0.000998
125 0.001004
132 0.000936
143 0.001993
147 0.001995
153 0.000969
155 0.000969
150 0.001995
116 0.001995
73 0.001994
52 0.001042
57 0.001005
85 0.000993
103 0.000999
117 0.00099
118 0.002014
113 0.001995
118 0.000954
124 0.00096
136 0.00095
145 0.001994
152 0.001995
153 0.001967
158 0.000998
149 0.001018
104 0.000962
74 0.000993
69 0.002994
73 0.001988
90 0.000972
105 0.000989
120 0.000968
121 0.003028
118 0.001995
114 0.002016
120 0.001022
139 0.001003
147 0.000997
149 0.001026
151 0.001953
153 0.002993
146 0.000994
111 0.001005
83 0.000954
80 0.001995
82 0.001996
94 0.002005
107 0.001992
118 0.003017
119 0.001019
113 0.000986
115 0.001002
125 0.003019
131 0.002992
139 0.001009
147 0.001005
148 0.001963
153 0.002031
149 0.002035
106 0.003018
84 0.00299
83 0.001038
97 0.000985
111 0.000978
127 0.002989
138 0.002992
148 0.000972
152 0.000936
155 0.000986
156 0.002021
162 0.002992
170 0.002993
179 0.003021
178 0.001
176 0.001995
164 0.001015
128 0.002993
107 0.003036
110 0.000987
118 0.001006
125 0.001972
131 0.003006
136 0.002989
134 0.002948
132 0.00299
136 0.001006
143 0.00199
146 0.001005
147 0.003029
155 0.003053
155 0.000992
138 0.002003
99 0.002017
81 0.003026
88 0.003034
108 0.003026
122 0.003033
136 0.000994
139 0.001024
138 0.000985
141 0.002992
146 0.002992
151 0.001994
157 0.002
163 0.001957
168 0.004019
170 0.002993
159 0.003017
123 0.002991
86 0.001032
85 0.001032
88 0.001005
103 0.002993
121 0.004024
132 0.001036
135 0.00197
135 0.001957
132 0.00399
133 0.004043
149 0.003038
156 0.003027
161 0.001014
162 0.001025
165 0.000963
143 0.004041
85 0.003018
65 0.002032
76 0.001975
86 0.001958
102 0.004015
114 0.003989
125 0.002985
123 0.003041
122 0.002
134 0.001994
146 0.000986
152 0.003989
158 0.003985
166 0.00203
169 0.001999
162 0.002
123 0.003993
62 0.003984
36 0.004052
49 0.004032
67 0.000996
84 0.000982
97 0.002001
92 0.003979
87 0.003989
92 0.002992
98 0.002031
105 0.001956
114 0.00399
127 0.003989
145 0.004022
151 0.004014
129 0.001987
74 0.002995
37 0.002998
33 0.004029
44 0.004038
68 0.002997
85 0.002993
102 0.002033
108 0.004017
104 0.001994
100 0.004016
110 0.003987
132 0.00295
139 0.003002
144 0.001994
148 0.003944
152 0.004016
128 0.002998
72 0.002991
40 0.003
41 0.004022
62 0.001951
78 0.004986
92 0.003982
106 0.002013
104 0.001992
103 0.001995
109 0.00399
118 0.004008
124 0.002995
132 0.002032
138 0.003015
143 0.004001
148 0.002023
122 0.004999
67 0.004986
40 0.001977
40 0.003004
56 0.003028
77 0.004982
92 0.003991
104 0.002964
108 0.002992
105 0.003004
103 0.003988
119 0.003035
130 0.005016
138 0.004974
146 0.003003
152 0.002977
153 0.002986
136 0.004986
79 0.005
39 0.003002
45 0.003026
57 0.00298
61 0.020905
78 0.0
106 0.004987
108 0.00499
102 0.002983
110 0.002942
126 0.002997
135 0.00497
145 0.004983
159 0.002988
163 0.00299
167 0.002994
169 0.005023
123 0.00303
68 0.002993
45 0.00499
48 0.005028
63 0.002991
78 0.002992
92 0.002965
101 0.005023
102 0.00498
98 0.004001
102 0.003992
112 0.003997
133 0.003051
141 0.003029
149 0.004986
153 0.004984
162 0.002976
159 0.002964
133 0.003001
82 0.004962
53 0.004998
52 0.002992
65 0.003008
86 0.003988
111 0.00396
117 0.003037
116 0.004952
120 0.004988
129 0.002922
140 0.002985
153 0.003003
166 0.004939
169 0.004948
180 0.003009
188 0.003991
189 0.003994
160 0.002975
103 0.002991
75 0.005013
77 0.004979
88 0.002973
104 0.002977
119 0.002981
123 0.004992
121 0.005996
121 0.00401
124 0.003978
131 0.003992
143 0.002954
150 0.003009
158 0.004982
166 0.004987
172 0.002987
173 0.002952
160 0.003012
111 0.00497
68 0.005988
63 0.004017
73 0.003981
102 0.003989
115 0.003975
122 0.002956
125 0.004985
122 0.004984
130 0.002946
142 0.002954
149 0.003999
158 0.004993
166 0.005976
176 0.003976
180 0.003961
177 0.003991
162 0.003982
120 0.003979
86 0.004977
81 0.004985
96 0.002956
109 0.002966
126 0.00401
138 0.00598
142 0.005983
140 0.003998
142 0.003951
150 0.004946
160 0.003936
169 0.004001
174 0.005941
175 0.005985
182 0.003989
177 0.003941
158 0.003982
115 0.005986
78 0.005989
70 0.003939
82 0.003992
110 0.003988
124 0.004007
132 0.003029
129 0.005914
135 0.005974
141 0.004985
145 0.003989
154 0.004946
161 0.005986
162 0.006013
168 0.003998
171 0.004009
158 0.003991
117 0.003988
76 0.00399
65 0.005984
73 0.005993
88 0.00498
109 0.004999
123 0.005004
127 0.005995
132 0.006013
138 0.004987
142 0.003987
159 0.00399
165 0.004017
170 0.004002
177 0.005975
182 0.006984
177 0.004991
161 0.004996
124 0.004995
81 0.005988
67 0.005943
81 0.004981
97 0.003992
123 0.003972
122 0.004018
125 0.004991
126 0.006984
129 0.006982
136 0.004939
144 0.003978
147 0.005015
149 0.00602
155 0.005996
158 0.004985
149 0.005005
86 0.003969
56 0.00395
56 0.00496
66 0.007016
80 0.007025
107 0.004995
113 0.004991
116 0.004994
118 0.005941
119 0.005984
124 0.004987
136 0.005002
147 0.005003
157 0.004961
158 0.004981
155 0.006989
140 0.006985
91 0.004947
58 0.00499
53 0.004993
64 0.005973
82 0.005953
102 0.004996
110 0.005952
108 0.004986
115 0.004987
122 0.00496
131 0.006968
141 0.006962
152 0.004922
156 0.004961
163 0.004988
166 0.006966
152 0.00602
99 0.004988
50 0.005988
45 0.006945
65 0.004984
82 0.004987
100 0.004927
111 0.006943
120 0.006981
117 0.004987
120 0.004982
125 0.004999
129 0.006982
134 0.006958
144 0.005978
151 0.006979
146 0.005991
114 0.00599
58 0.005028
36 0.006987
35 0.006935
49 0.004951
71 0.004982
85 0.004986
92 0.006985
97 0.007948
102 0.007963
108 0.006969
117 0.005977
125 0.005975
136 0.005947
144 0.007978
147 0.006983
148 0.004986
122 0.00499
66 0.004956
44 0.006976
46 0.007948
73 0.007974
88 0.007977
105 0.005984
111 0.004986
106 0.004986
106 0.006993
108 0.006985
123 0.004949
134 0.004967
141 0.004971
152 0.00698
157 0.007973
158 0.007973
112 0.007962
62 0.005985
45 0.005994
50 0.005989
59 0.007007
79 0.007011
98 0.004963
102 0.005984
103 0.004988
98 0.007953
101 0.007943
118 0.007937
133 0.007948
146 0.005987
152 0.006001
157 0.005988
158 0.006951
146 0.006974
73 0.005995
43 0.004988
44 0.005992
53 0.007952
69 0.007974
100 0.007978
104 0.007958
101 0.005947
94 0.005935
100 0.005992
110 0.006982
123 0.006977
136 0.005983
146 0.006978
151 0.005987
157 0.007979
154 0.00797
101 0.007971
48 0.007972
38 0.005979
50 0.005988
65 0.005983
86 0.00795
102 0.006982
108 0.007002
105 0.007023
102 0.00602
110 0.007949
118 0.00797
139 0.007949
154 0.007977
159 0.005985
170 0.005979
175 0.005995
159 0.007964
136 0.007966
73 0.006984
56 0.006976
60 0.006978
74 0.007979
101 0.005985
111 0.007969
110 0.007967
106 0.00594
107 0.006006
113 0.005978
128 0.006991
139 0.006996
145 0.006987
153 0.006994
159 0.006012
166 0.007978
152 0.006005
87 0.007982
52 0.007952
49 0.005984
61 0.005991
77 0.006963
97 0.007007
108 0.007996
111 0.006981
105 0.006018
107 0.0
135 0.006991
146 0.00793
153 0.00797
160 0.005988
167 0.005986
170 0.006983
159 0.007006
115 0.006956
64 0.006939
56 0.006964
63 0.006991
75 0.007944
104 0.006984
119 0.007975
125 0.00797
120 0.006982
120 0.006013
129 0.00697
143 0.007014
150 0.006989
163 0.006973
167 0.006979
175 0.006953
179 0.007951
169 0.006906
128 0.00798
77 0.007971
74 0.006011
82 0.006957
106 0.006956
123 0.006974
132 0.006983
136 0.006988
125 0.006981
124 0.006939
134 0.007016
140 0.006999
152 0.006998
157 0.007967
159 0.007986
167 0.006981
167 0.006981
143 0.006958
92 0.006967
58 0.006967
58 0.006955
64 0.006975
87 0.006985
107 0.006954
117 0.006012
114 0.007942
112 0.006982
116 0.006964
122 0.006983
137 0.006994
148 0.006984
154 0.00698
157 0.006981
164 0.006972
154 0.006945
87 0.006972
47 0.006968
42 0.006972
53 0.006988
70 0.006987
90 0.00699
105 0.006961
107 0.006983
105 0.007024
101 0.006975
112 0.00697
122 0.006966
140 0.006974
147 0.005983
155 0.006985
167 0.006986
168 0.006965
151 0.006966
102 0.006997
67 0.006977
60 0.007
80 0.00697
99 0.006971
124 0.006979
125 0.005953
124 0.005993
122 0.005966
121 0.005978
130 0.006993
140 0.007016
145 0.007007
152 0.007004
156 0.006969
163 0.006985
154 0.006968
84 0.005959
51 0.005996
49 0.005998
56 0.005965
73 0.005979
95 0.006984
107 0.006969
109 0.00695
107 0.006952
106 0.007019
115 0.006969
126 0.006022
142 0.005969
151 0.005976
158 0.005984
162 0.00599
159 0.005987
123 0.006
68 0.006006
48 0.007003
51 0.006974
65 0.006969
83 0.005975
99 0.006023
107 0.005965
108 0.006007
103 0.00598
108 0.005984
120 0.005965
136 0.005985
145 0.005984
156 0.005958
164 0.007002
170 0.006982
167 0.006034
142 0.006019
64 0.005943
56 0.005988
65 0.006006
82 0.005956
99 0.005949
117 0.005987
123 0.005974
121 0.005973
121 0.006983
125 0.005969
142 0.006011
153 0.006011
165 0.00598
169 0.005982
175 0.006018
183 0.005974
180 0.005986
138 0.005997
84 0.005997
64 0.005999
65 0.005982
71 0.005021
92 0.005995
105 0.006013
108 0.005984
101 0.005971
102 0.005999
108 0.006022
118 0.005988
133 0.00595
145 0.005991
149 0.005969
157 0.004992
161 0.004994
156 0.006032
121 0.006033
67 0.009973
42 0.0
54 0.00597
63 0.005992
79 0.005955
97 0.005988
100 0.004989
94 0.004973
90 0.004995
94 0.004987
110 0.005026
123 0.004976
136 0.005965
146 0.005986
155 0.005977
154 0.005993
149 0.004989
110 0.005978
58 0.00498
41 0.004989
51 0.004994
68 0.004991
83 0.004987
98 0.006011
101 0.005983
97 0.005994
92 0.00597
96 0.005985
107 0.004985
120 0.004987
128 0.004964
136 0.004996
144 0.004982
148 0.004993
150 0.005015
125 0.004983
56 0.004971
41 0.005995
48 0.005989
60 0.005979
74 0.004992
94 0.004983
103 0.004982
104 0.00496
102 0.004985
101 0.004996
104 0.004986
127 0.00499
137 0.004944
149 0.004993
155 0.006009
162 0.005017
166 0.004988
152 0.004991
88 0.004943
58 0.004996
56 0.004987
69 0.004997
87 0.005014
115 0.005038
124 0.005001
120 0.004997
119 0.004987
129 0.00399
143 0.004985
155 0.004992
167 0.004995
168 0.004991
168 0.005001
172 0.00494
174 0.004986
160 0.004993
127 0.004
86 0.003976
93 0.003983
109 0.003995
131 0.005005
144 0.004983
157 0.004991
158 0.004982
154 0.005006
150 0.00499
156 0.005037
167 0.004997
166 0.004997
168 0.003952
171 0.003989
173 0.004038
169 0.003957
157 0.004986
90 0.004986
65 0.004963
66 0.00499
80 0.004992
95 0.004022
117 0.00399
121 0.004008
122 0.004025
117 0.004007
118 0.003988
127 0.003988
137 0.004025
149 0.004955
158 0.004987
169 0.004974
171 0.004966
157 0.003995
75 0.004013
46 0.00399
56 0.003997
69 0.003963
86 0.003988
105 0.003997
120 0.00395
117 0.004937
113 0.004994
115 0.004996
123 0.004987
129 0.004021
149 0.00399
162 0.003997
170 0.003998
166 0.003983
154 0.003992
105 0.003941
56 0.003988
45 0.003959
59 0.004952
72 0.004996
88 0.004
104 0.004031
115 0.003982
113 0.004016
115 0.003993
124 0.003996
137 0.003958
145 0.003957
154 0.003957
169 0.003991
175 0.002989
171 0.002991
161 0.003988
120 0.00399
68 0.004019
75 0.003954
88 0.003989
100 0.003981
108 0.003991
112 0.003963
105 0.003955
102 0.003983
108 0.002983
112 0.012966
116 0.001999
145 0.003987
156 0.003988
157 0.003976
156 0.003993
143 0.003989
88 0.00398
48 0.00399
46 0.003994
60 0.003963
74 0.004016
97 0.002944
111 0.002957
115 0.003996
109 0.003961
110 0.00399
123 0.00397
130 0.003961
137 0.004011
149 0.002992
159 0.003032
165 0.002939
165 0.002988
145 0.002987
92 0.002988
65 0.002988
76 0.002986
88 0.003995
114 0.003938
126 0.003993
134 0.004001
135 0.003949
138 0.003989
142 0.002943
153 0.002951
165 0.002955
168 0.002978
174 0.003019
176 0.002991
178 0.00394
162 0.00396
118 0.003964
79 0.002939
71 0.003951
75 0.002967
97 0.002946
118 0.002956
127 0.002984
130 0.002992
126 0.002998
130 0.002997
139 0.003003
143 0.004017
148 0.003989
158 0.00299
164 0.002943
168 0.002989
162 0.002993
130 0.002989
75 0.002955
50 0.002983
65 0.003979
83 0.002979
103 0.003001
118 0.003987
129 0.00398
126 0.003957
124 0.002938
124 0.002966
136 0.002939
149 0.002953
151 0.002952
161 0.002976
174 0.002991
179 0.002997
165 0.003007
129 0.003962
90 0.003964
86 0.002956
95 0.002966
115 0.002992
133 0.002993
140 0.002954
143 0.00295
141 0.00299
139 0.001993
139 0.001967
149 0.001989
163 0.002997
172 0.002003
172 0.003027
173 0.00294
163 0.002963
138 0.002964
77 0.002988
65 0.003018
67 0.002948
96 0.002999
114 0.002955
123 0.002984
129 0.00202
130 0.001992
131 0.001996
139 0.001997
147 0.002961
153 0.002964
159 0.002978
164 0.002991
165 0.002989
156 0.002995
125 0.002958
86 0.00199
69 0.001995
72 0.001994
96 0.001989
123 0.002024
136 0.001955
141 0.001982
154 0.002971
157 0.002946
151 0.001995
155 0.001999
161 0.002989
162 0.001994
165 0.001993
167 0.001995
165 0.001992
146 0.001986
122 0.001995
92 0.001995
85 0.00299
95 0.002992
117 0.00298
127 0.002971
127 0.001952
131 0.001997
132 0.001984
135 0.001984
134 0.001992
137 0.001965
139 0.001966
146 0.00195
161 0.00296
159 0.001996
121 0.002994
84 0.001995
77 0.001995
83 0.001987
99 0.002
137 0.001967
150 0.002043
151 0.01194
151 0.0
154 0.002012
156 0.00198
164 0.001989
171 0.001995
181 0.001995
187 0.001993
193 0.001994
186 0.001994
168 0.001959
155 0.001995
150 0.002025
157 0.00202
172 0.001982
178 0.001997
173 0.001991
157 0.001941
154 0.001973
153 0.00201
150 0.001955
153 0.001949
160 0.001996
160 0.001946
160 0.001984
155 0.00202
139 0.001995
109 0.002023
97 0.001995
107 0.002003
117 0.001994
119 0.000989
124 0.001995
128 0.001993
121 0.001994
124 0.001991
128 0.002011
132 0.002022
136 0.001994
149 0.000992
150 0.000961
114 0.000972
74 0.001012
56 0.001008
58 0.00099
73 0.001994
104 0.001978
118 0.001995
119 0.002002
114 0.002004
107 0.000995
110 0.000949
115 0.00096
129 0.000965
137 0.000954
137 0.000994
135 0.001009
118 0.000997
79 0.001955
58 0.001956
59 0.001956
68 0.000998
83 0.000996
100 0.000969
102 0.000988
103 0.001986
107 0.000993
115 0.000992
123 0.000997
130 0.001957
145 0.001999
146 0.001987
140 0.001951
131 0.000959
99 0.000967
66 0.000981
60 0.001007
74 0.000997
99 0.001011
107 0.001987
110 0.001
112 0.001986
110 0.000993
113 0.000958
118 0.000972
123 0.000969
134 0.000996
141 0.000964
141 0.000997
123 0.000998
70 0.001005
52 0.000989
55 0.001997
68 0.001986
80 0.001977
97 0.00198
102 0.000998
105 0.000962
100 0.000998
100 0.001
112 0.001002
122 0.001001
134 0.000999
141 0.000994
146 0.001993
135 0.0
88 0.0
46 0.000994
45 0.0
54 0.0
68 0.001002
87 0.001008
99 0.000979
97 0.000989
88 0.000996
92 0.000996
100 0.000977
111 0.000985
120 0.0
136 0.0
142 0.0
140 0.0
104 0.000967
59 0.000999
34 0.000999
48 0.000996
64 0.000997
77 0.000993
85 0.0
84 0.0
78 0.0
83 0.0
89 0.0
100 0.0
111 0.0
120 0.0
138 0.001004
139 0.001012
108 0.001033
59 0.001029
28 0.000972
20 0.0
32 0.0
57 0.0
73 0.0
81 0.0
81 0.0
78 0.0
85 0.0
92 0.000982
105 0.001035
114 0.0
126 0.0
135 0.0
139 0.0
105 0.0
54 0.0
22 0.0
21 0.0
33 0.0
64 0.0
77 0.0
85 0.0
84 0.0
87 0.0
99 0.0
113 0.0
125 0.0
134 0.015913
139 0.0
151 0.0
165 0.0
144 0.0
88 0.000957
43 0.0
41 0.0
64 0.0
78 0.0
89 0.0
93 0.001993
87 0.0
81 0.0
84 0.0
92 0.0
106 0.0
131 0.0
139 0.000985
150 0.001
152 0.0
135 0.0
103 0.000963
38 0.001999
26 0.001994
43 0.0
61 0.0
91 0.0
95 0.0
91 0.0
91 0.000991
93 0.002011
104 0.00095
117 0.001018
129 0.000996
141 0.001009
149 0.001965
167 0.0
165 0.0
84 0.0
50 0.0
43 0.000965
56 0.002001
79 0.002027
99 0.000998
107 0.001002
110 0.000998
101 0.001996
99 0.001994
114 0.0
123 0.0
141 0.0
151 0.0
166 0.0
174 0.001969
174 0.002021
131 0.0
80 0.0
53 0.000991
57 0.001996
72 0.000998
95 0.0
108 0.0
118 0.0
117 0.0
120 0.000959
127 0.001996
140 0.002023
161 0.0
174 0.0
182 0.000996
187 0.002984
194 0.000998
198 0.000971
163 0.0
91 0.001974
75 0.0
90 0.0
103 0.0
118 0.001993
132 0.001999
140 0.0
133 0.0
131 0.0
136 0.001994
145 0.001993
152 0.000987
159 0.001984
172 0.0
176 0.0
176 0.0
167 0.001999
120 0.001966
71 0.0
75 0.0
90 0.001006
108 0.001992
125 0.001973
146 0.000965
146 0.001973
142 0.0
143 0.0
149 0.0
163 0.001996
176 0.001986
182 0.0
187 0.0
193 0.0
190 0.002014
166 0.002022
99 0.001003
80 0.001979
92 0.0
105 0.0
124 0.0
140 0.001999
143 0.002004
142 0.0
147 0.0
152 0.0
160 0.002995
170 0.001978
179 0.000996
185 0.001999
188 0.001007
188 0.000992
169 0.0
117 0.002007
84 0.002
89 0.0
102 0.0
119 0.0
137 0.002027
149 0.001995
157 0.001973
162 0.001999
167 0.000987
170 0.000986
180 0.0
186 0.001998
188 0.001994
198 0.0
198 0.0
184 0.0
156 0.001994
112 0.001997
99 0.001996
111 0.001991
132 0.000958
149 0.0
154 0.0
154 0.001969
157 0.001994
162 0.0
162 0.0
173 0.0
182 0.00201
183 0.001998
184 0.001977
181 0.001975
159 0.0
112 0.0
78 0.00099
75 0.002021
88 0.00197
112 0.0
130 0.0
144 0.0
147 0.001982
149 0.001995
151 0.016903
155 0.0
167 0.0
170 0.00096
175 0.00097
180 0.001976
178 0.002014
151 0.0
108 0.0
80 0.0
78 0.002037
85 0.001994
117 0.001951
130 0.002
141 0.0
139 0.0
139 0.0
142 0.002027
147 0.002944
153 0.0
164 0.000993
166 0.0
164 0.001954
161 0.001971
111 0.00198
72 0.002
66 0.000971
78 0.0
93 0.0
106 0.002964
122 0.001999
128 0.0
128 0.0
127 0.001995
132 0.002027
138 0.001958
145 0.001994
153 0.001996
152 0.001993
144 0.002046
120 0.0
75 0.001996
56 0.002964
68 0.002044
89 0.001996
107 0.0
119 0.002013
128 0.001994
131 0.001985
133 0.002958
139 0.001985
147 0.00299
149 0.000998
152 0.002988
155 0.003015
150 0.001009
124 0.000961
79 0.001995
59 0.002023
60 0.002991
85 0.002973
102 0.002996
116 0.001041
117 0.001982
114 0.001982
118 0.00399
120 0.002991
124 0.002014
128 0.000997
139 0.000969
144 0.002992
130 0.001996
96 0.002986
51 0.003017
40 0.001991
50 0.00204
67 0.001958
86 0.001997
101 0.002925
105 0.001983
105 0.001007
108 0.00201
113 0.002015
129 0.000981
134 0.002018
141 0.002989
146 0.002983
129 0.001967
99 0.002048
59 0.001988
46 0.002992
52 0.002969
73 0.001996
87 0.001991
100 0.002003
111 0.000965
117 0.001988
123 0.003004
129 0.002989
141 0.001976
151 0.001982
156 0.001994
161 0.002958
156 0.003998
120 0.001984
69 0.0
54 0.00199
65 0.001978
78 0.001005
100 0.002989
107 0.003
112 0.001994
114 0.001988
115 0.001989
118 0.002964
129 0.003951
137 0.002958
145 0.001983
149 0.00197
135 0.00199
95 0.001995
50 0.002993
40 0.003028
54 0.002001
72 0.001955
88 0.001975
103 0.002953
110 0.002986
109 0.002039
112 0.001958
121 0.00202
135 0.001029
142 0.00103
148 0.003989
152 0.003996
141 0.00199
100 0.001996
56 0.001957
42 0.002986
49 0.003989
68 0.00204
89 0.002972
103 0.002987
111 0.002025
107 0.001967
109 0.003964
120 0.004945
134 0.002014
141 0.001988
149 0.001997
158 0.003992
157 0.00399
152 0.000997
113 0.0
66 0.001999
78 0.001991
96 0.004021
113 0.00399
115 0.001996
113 0.001959
115 0.001936
118 0.003977
127 0.004012
141 0.002
147 0.002981
152 0.001996
151 0.001986
141 0.001981
93 0.003989
59 0.003995
55 0.002005
64 0.00202
79 0.001967
94 0.005011
104 0.003987
111 0.002001
105 0.001995
108 0.002996
123 0.002017
132 0.002001
142 0.004987
146 0.004988
154 0.002985
151 0.00204
129 0.002028
70 0.003967
41 0.004978
45 0.002013
54 0.00199
83 0.002018
101 0.002004
108 0.001971
105 0.004011
106 0.00399
120 0.002965
129 0.001996
136 0.002032
147 0.00499
154 0.004962
156 0.002
151 0.002019
87 0.001996
45 0.002001
37 0.001985
51 0.004016
71 0.00397
92 0.00301
105 0.002024
114 0.002033
115 0.00499
116 0.004976
120 0.001999
129 0.00198
144 0.001995
146 0.001961
152 0.002022
153 0.004987
153 0.004954
121 0.002992
73 0.00299
54 0.001999
61 0.004974
72 0.00499
98 0.002036
114 0.002032
122 0.001992
121 0.001975
120 0.002027
130 0.00498
142 0.004963
152 0.002992
164 0.002947
174 0.002033
174 0.005016
170 0.004976
145 0.001976
88 0.00203
54 0.001985
67 0.001985
91 0.002972
115 0.002994
127 0.004987
130 0.00499
134 0.001999
134 0.001999
141 0.002992
147 0.004988
154 0.004986
164 0.001995
171 0.004986
172 0.00299
164 0.002992
141 0.003003
87 0.004976
60 0.004974
66 0.002983
80 0.002031
99 0.002027
117 0.004
127 0.003967
129 0.002942
133 0.004985
142 0.003035
152 0.002993
154 0.002996
156 0.004986
164 0.004987
170 0.002957
164 0.002032
147 0.001993
106 0.005024
73 0.006011
68 0.002965
86 0.006014
111 0.003999
121 0.003032
129 0.003022
127 0.005985
129 0.005016
136 0.003959
140 0.003984
150 0.002994
158 0.006013
160 0.006026
167 0.002922
163 0.006019
145 0.003964
102 0.004005
72 0.00301
73 0.006024
88 0.004989
105 0.003956
124 0.002993
137 0.002995
134 0.005987
128 0.006027
134 0.005985
140 0.005983
148 0.003991
150 0.002992
159 0.002995
168 0.005986
165 0.005984
142 0.002957
105 0.003964
68 0.003961
64 0.006041
72 0.006011
96 0.00595
113 0.005984
118 0.003996
123 0.004021
125 0.003956
130 0.005981
134 0.006016
142 0.003991
149 0.002945
155 0.003965
156 0.005988
157 0.0
123 0.00602
81 0.006036
54 0.003962
60 0.003992
78 0.003
94 0.006021
107 0.006983
120 0.003991
116 0.003955
119 0.003961
127 0.006984
135 0.005984
147 0.005985
151 0.005983
157 0.003989
161 0.003023
148 0.003988
120 0.006014
78 0.005984
62 0.00399
69 0.004019
84 0.003961
100 0.006016
114 0.00599
118 0.006017
118 0.005979
123 0.003994
127 0.00399
134 0.003983
135 0.005987
143 0.005984
149 0.00499
145 0.00399
129 0.003988
94 0.006954
54 0.007018
55 0.006013
65 0.005983
94 0.003988
103 0.00399
105 0.004987
109 0.006982
115 0.006981
118 0.004991
130 0.00496
137 0.003988
141 0.007015
144 0.006983
142 0.006014
131 0.006022
76 0.003019
44 0.003039
47 0.003988
62 0.006017
77 0.007006
100 0.004985
107 0.003989
105 0.004031
106 0.00698
109 0.006978
122 0.005995
130 0.006017
137 0.003978
146 0.003992
146 0.004968
138 0.007014
112 0.007009
56 0.004935
42 0.004985
48 0.003982
61 0.007021
82 0.006986
102 0.006983
109 0.005975
104 0.005023
110 0.004961
121 0.004948
130 0.007008
136 0.00701
149 0.00399
155 0.003989
150 0.005003
137 0.007034
100 0.007012
40 0.007985
43 0.007011
58 0.00496
74 0.00499
88 0.005012
96 0.00702
93 0.006979
92 0.004947
96 0.00499
104 0.004999
114 0.006981
131 0.003986
139 0.004018
143 0.007018
135 0.007016
100 0.004982
51 0.004986
29 0.005021
34 0.007025
53 0.007045
66 0.004987
83 0.005957
93 0.005946
93 0.006006
92 0.005949
99 0.006982
119 0.007983
130 0.005024
136 0.004978
144 0.004982
150 0.007024
151 0.007006
130 0.004961
79 0.004955
47 0.005956
55 0.004998
68 0.004014
94 0.007968
102 0.007988
105 0.004957
105 0.004989
105 0.004987
108 0.006956
117 0.007012
134 0.004984
137 0.00495
147 0.005955
158 0.005981
158 0.005956
139 0.007956
109 0.007977
45 0.004989
39 0.004987
47 0.00503
57 0.007988
72 0.008015
93 0.004948
95 0.004977
87 0.005948
89 0.005977
102 0.005975
114 0.007977
120 0.007974
132 0.004991
147 0.004976
152 0.004943
150 0.007977
124 0.007946
64 0.005944
32 0.004959
33 0.005958
64 0.004985
87 0.004981
104 0.007988
107 0.00798
105 0.004986
100 0.005013
103 0.00497
114 0.007978
129 0.007955
132 0.005944
141 0.005967
146 0.000998
152 0.001965
151 0.004995
107 0.00797
56 0.007968
48 0.005983
61 0.00502
76 0.004986
104 0.007988
114 0.006958
120 0.005986
120 0.005985
120 0.005963
135 0.005986
143 0.005984
151 0.007979
165 0.00799
171 0.005025
172 0.004987
176 0.00696
160 0.006977
109 0.007983
67 0.005986
58 0.005983
65 0.005957
89 0.005951
104 0.005969
119 0.007981
117 0.007989
114 0.006002
118 0.005965
131 0.005004
142 0.007984
152 0.007967
162 0.005978
166 0.006014
171 0.005979
166 0.005979
148 0.005985
82 0.007935
56 0.007974
64 0.006017
77 0.005995
96 0.00598
116 0.007957
125 0.006952
129 0.005982
129 0.00598
138 0.005979
146 0.005985
160 0.005957
167 0.007982
172 0.007979
179 0.005981
186 0.005949
185 0.006954
161 0.007016
116 0.007007
78 0.006956
76 0.006016
95 0.005946
115 0.005949
130 0.005987
130 0.007982
129 0.007967
132 0.005955
132 0.005982
138 0.005959
152 0.007008
158 0.007008
163 0.006954
170 0.005974
174 0.005984
170 0.005984
147 0.005995
80 0.007962
61 0.007979
65 0.005993
79 0.005961
96 0.006954
119 0.00698
124 0.006942
126 0.006976
125 0.006933
134 0.006013
143 0.005986
152 0.005982
160 0.006981
167 0.007979
171 0.005984
177 0.00698
169 0.006984
145 0.007008
96 0.007007
66 0.006939
69 0.006952
92 0.00698
111 0.006018
122 0.005982
134 0.00702
134 0.006939
137 0.006986
145 0.006971
145 0.006941
152 0.006981
159 0.00698
166 0.006977
171 0.005983
168 0.007023
152 0.006988
130 0.006012
77 0.005983
63 0.006013
71 0.006022
93 0.005983
107 0.006984
117 0.00697
124 0.006987
124 0.006981
125 0.005982
133 0.007009
145 0.006016
147 0.005975
153 0.005984
156 0.005948
161 0.006004
156 0.005981
140 0.00598
113 0.006961
69 0.007013
66 0.006993
84 0.006948
102 0.007015
116 0.00602
125 0.006948
124 0.005974
128 0.006021
137 0.005994
143 0.00598
151 0.005984
154 0.006982
163 0.006991
164 0.006944
168 0.00697
150 0.006987
120 0.006981
76 0.005987
77 0.005983
94 0.006018
109 0.006024
127 0.005987
135 0.005997
133 0.005985
134 0.006936
135 0.005986
142 0.005975
149 0.006979
155 0.005963
159 0.005991
163 0.005978
163 0.005985
148 0.005973
104 0.006007
64 0.006008
56 0.006004
60 0.005984
78 0.005952
96 0.022939
106 0.0
108 0.005984
111 0.00602
120 0.005982
126 0.005976
131 0.005938
142 0.005985
146 0.006981
151 0.005984
152 0.005984
138 0.005984
72 0.005986
46 0.00595
47 0.006014
67 0.005987
84 0.006016
94 0.00599
100 0.00598
103 0.005978
105 0.005988
111 0.005984
119 0.005957
131 0.005956
140 0.004969
147 0.00593
157 0.005986
153 0.005984
139 0.005987
105 0.005984
74 0.005985
71 0.005983
82 0.005983
101 0.005983
114 0.005982
118 0.004986
119 0.004983
120 0.004977
132 0.004966
138 0.005978
137 0.006021
138 0.005946
139 0.005985
135 0.005998
134 0.005983
113 0.005984
63 0.00502
32 0.004984
38 0.004993
53 0.004989
69 0.004935
75 0.004986
78 0.005987
77 0.005975
80 0.005929
90 0.00596
101 0.005979
108 0.004985
116 0.004987
116 0.00499
122 0.004987
108 0.004993
42 0.005002
17 0.005948
26 0.004956
44 0.00598
65 0.006017
87 0.004991
94 0.004989
87 0.005005
84 0.004985
89 0.004995
99 0.004991
112 0.005001
122 0.004982
130 0.004989
137 0.004999
126 0.004988
86 0.004987
18 0.005988
5 0.005013
20 0.004974
43 0.004962
71 0.004982
100 0.004989
101 0.004989
97 0.00499
101 0.004986
107 0.004957
113 0.004969
120 0.004979
132 0.004984
137 0.004951
142 0.00495
142 0.004985
135 0.004952
77 0.005
65 0.004981
72 0.004988
98 0.004986
118 0.004995
128 0.004996
131 0.003987
131 0.003988
129 0.004982
137 0.004991
147 0.004983
163 0.004972
167 0.004981
170 0.004998
176 0.004984
171 0.00499
151 0.004957
118 0.004984
97 0.003979
92 0.003989
113 0.003992
133 0.004991
146 0.00499
145 0.00498
140 0.004987
138 0.004987
142 0.004987
154 0.004987
158 0.00496
158 0.004055
162 0.00399
165 0.003986
160 0.004983
142 0.004027
116 0.004991
93 0.004988
104 0.004949
118 0.00399
131 0.004028
135 0.004992
135 0.003991
141 0.003996
145 0.003962
148 0.003953
160 0.003996
163 0.003993
168 0.005015
171 0.005026
167 0.004977
151 0.005004
124 0.004977
96 0.003988
95 0.00399
103 0.003991
116 0.003986
128 0.003936
134 0.003989
131 0.003973
131 0.003987
138 0.003995
148 0.003983
155 0.003961
161 0.004986
169 0.003986
168 0.003995
150 0.004002
123 0.00399
79 0.003973
60 0.00403
78 0.003991
100 0.003986
136 0.003986
140 0.012965
144 0.0
131 0.0
138 0.003958
138 0.003976
147 0.003946
157 0.00394
163 0.003955
145 0.003986
115 0.003956
49 0.003952
47 0.002959
73 0.003985
107 0.003976
125 0.003958
123 0.004026
116 0.003984
120 0.00397
120 0.003954
123 0.003966
129 0.003946
134 0.00399
140 0.003945
134 0.00299
120 0.002991
90 0.003989
38 0.003999
27 0.003969
38 0.00399
69 0.003983
91 0.003956
106 0.003963
97 0.002957
94 0.00399
109 0.002957
112 0.002977
122 0.002961
133 0.003966
139 0.003
128 0.003996
106 0.003982
39 0.003989
1 0.00399
8 0.00399
26 0.002989
65 0.003988
72 0.002988
81 0.003009
82 0.003001
81 0.004038
91 0.00396
107 0.003988
119 0.003954
135 0.00396
144 0.003989
135 0.002956
76 0.002954
0 0.002969
0 0.002985
6 0.003
25 0.002985
46 0.002992
60 0.002986
51 0.003954
45 0.00396
51 0.003989
67 0.003936
92 0.002982
105 0.002991
123 0.002966
124 0.002986
104 0.002979
27 0.002999
44 0.002997
49 0.003987
61 0.003975
71 0.00394
84 0.003998
95 0.003987
94 0.002946
95 0.002987
105 0.002994
115 0.002957
124 0.002992
132 0.002985
140 0.002978
144 0.003016
140 0.002985
118 0.00296
74 0.002022
53 0.002991
57 0.002939
69 0.002955
91 0.002993
98 0.002991
96 0.00296
91 0.002991
90 0.002991
100 0.003001
111 0.002983
119 0.003946
128 0.003932
136 0.001971
141 0.002027
142 0.002958
107 0.002988
57 0.00299
46 0.002977
54 0.002988
68 0.002999
80 0.002993
92 0.002984
96 0.003001
93 0.001974
91 0.001991
98 0.001962
111 0.002936
125 0.003041
134 0.002992
143 0.002992
152 0.002986
153 0.002989
142 0.00296
93 0.002986
67 0.002003
65 0.002001
79 0.001962
92 0.001995
108 0.002027
119 0.001979
114 0.003019
113 0.00299
115 0.002978
123 0.002981
131 0.00298
142 0.002989
146 0.001986
151 0.001995
155 0.001997
155 0.013959
153 0.001034
131 0.0
69 0.003019
76 0.003021
86 0.002979
96 0.002989
109 0.001995
116 0.002023
112 0.001968
113 0.001994
116 0.001995
125 0.001995
135 0.002031
143 0.001996
153 0.000999
160 0.001999
163 0.002993
161 0.003001
135 0.001995
91 0.001995
87 0.001996
97 0.001994
107 0.002007
120 0.00198
135 0.001993
135 0.001979
137 0.00199
136 0.001987
144 0.001997
148 0.026928
150 0.000998
153 0.0
159 0.0
167 0.001967
167 0.00201
157 0.001995
94 0.002003
83 0.001939
92 0.001992
100 0.000995
113 0.00105
126 0.000957
128 0.001987
126 0.00196
129 0.002032
129 0.001997
137 0.001975
147 0.001975
156 0.001997
163 0.002025
164 0.001002
164 0.001002
154 0.000998
117 0.00095
85 0.000993
87 0.001994
88 0.001014
104 0.001998
122 0.002001
132 0.002001
139 0.001988
142 0.002016
147 0.000983
157 0.000964
165 0.000994
172 0.001001
176 0.001007
184 0.001956
186 0.001979
179 0.001994
159 0.001994
113 0.001996
83 0.002002
88 0.001048
107 0.001
123 0.000998
132 0.000998
131 0.000998
133 0.000997
136 0.000997
139 0.002023
149 0.002025
158 0.001998
160 0.002038
168 0.001966
169 0.001996
160 0.000999
124 0.000998
79 0.000998
68 0.000998
76 0.000999
92 0.000998
112 0.002028
127 0.002029
136 0.000995
137 0.00203
139 0.001002
142 0.000998
155 0.000998
159 0.002031
166 0.000999
178 0.000996
184 0.001996
174 0.002041
148 0.001063
107 0.00103
87 0.002028
89 0.002023
120 0.001009
139 0.000961
151 0.001014
145 0.000997
144 0.000998
149 0.001011
152 0.00199
159 0.002024
166 0.002025
168 0.002042
171 0.001037
174 0.000999
154 0.000986
124 0.000997
88 0.000997
84 0.000998
96 0.000998
113 0.000997
126 0.002026
131 0.000998
136 0.002024
134 0.000998
135 0.0
144 0.000996
149 0.0
156 0.000998
158 0.000995
162 0.0
157 0.000998
135 0.000998
93 0.000997
66 0.000999
68 0.00101
81 0.0
101 0.0
120 0.0
125 0.0
124 0.0
126 0.0
136 0.000998
141 0.000998
146 0.000998
156 0.000998
164 0.000997
163 0.0
154 0.0
129 0.0
71 0.0
70 0.0
81 0.0
96 0.0
117 0.000999
121 0.000997
124 0.000997
127 0.000998
134 0.0
141 0.0
149 0.0
155 0.0
165 0.0
169 0.0
161 0.0
142 0.0
94 0.0
74 0.0
75 0.000997
88 0.0
105 0.0
119 0.0
127 0.0
124 0.0
128 0.0
132 0.0
138 0.0
146 0.0
148 0.0
156 0.00096
157 0.0
146 0.0
121 0.0
74 0.0
64 0.0
71 0.0
99 0.0
112 0.0
120 0.0
122 0.0
119 0.0
123 0.000998
126 0.000969
136 0.0
140 0.0
150 0.0
153 0.0
149 0.0
103 0.0
56 0.000995
53 0.0
60 0.0
82 0.0
98 0.000997
104 0.000997
104 0.0
107 0.0
114 0.0
123 0.002041
131 0.000965
134 0.001996
141 0.000969
147 0.001011
146 0.0
136 0.003022
103 0.00302
77 0.0
82 0.0
94 0.0
109 0.002052
117 0.002046
121 0.0
122 0.001996
121 0.00095
124 0.000998
131 0.000985
136 0.002993
139 0.003029
146 0.0
145 0.0
135 0.0
107 0.003021
66 0.00299
55 0.0
67 0.002015
88 0.0
104 0.0
110 0.000981
113 0.003039
112 0.003023
121 0.0
127 0.0
136 0.0
143 0.003024
154 0.003028
158 0.002009
145 0.001995
99 0.000997
62 0.0
58 0.000955
62 0.003036
77 0.002023
100 0.000959
108 0.0
112 0.000974
116 0.003025
116 0.003043
127 0.002989
137 0.001985
147 0.0
150 0.000997
155 0.000999
158 0.002033
152 0.001995
104 0.000982
68 0.0
61 0.0
68 0.003026
83 0.002992
108 0.002976
118 0.00299
124 0.000954
119 0.0
124 0.0
129 0.002021
140 0.002031
145 0.000963
157 0.000949
162 0.0
163 0.003021
154 0.00302
112 0.002994
74 0.003002
73 0.0
83 0.0
98 0.000997
114 0.002027
123 0.001995
125 0.002027
132 0.000995
132 0.000957
136 0.000962
143 0.00303
158 0.0
166 0.002992
171 0.002997
168 0.0
159 0.0
124 0.0
84 0.002991
69 0.002032
75 0.0
86 0.000962
102 0.000988
112 0.003025
117 0.0
119 0.002998
123 0.003019
134 0.0
142 0.0
147 0.000998
147 0.002029
152 0.002023
153 0.000971
147 0.001009
129 0.000969
94 0.00302
71 0.0
83 0.00302
96 0.003032
120 0.0
129 0.000998
131 0.0
134 0.002037
136 0.001994
139 0.0
146 0.000958
152 0.000969
157 0.002996
162 0.0
162 0.003029
153 0.002989
117 0.0
77 0.0
69 0.0
77 0.002012
93 0.002021
113 0.001043
124 0.0
124 0.000966
125 0.002022
130 0.0
136 0.003017
143 0.017951
146 0.000985
154 0.0
164 0.002989
153 0.003026
115 0.0
78 0.0
67 0.0
87 0.000969
102 0.0
117 0.003007
126 0.002997
127 0.0
127 0.0
132 0.0
139 0.002986
144 0.002992
151 0.0
156 0.0
158 0.0
152 0.0
135 0.0
104 0.003009
75 0.003033
78 0.0
96 0.0
111 0.0
119 0.003025
129 0.00302
130 0.0
129 0.0
133 0.0
146 0.000997
154 0.000997
156 0.003019
161 0.001998
165 0.0
160 0.0
143 0.0
115 0.003022
88 0.003025
83 0.0
97 0.0
110 0.0
126 0.0
132 0.0
131 0.002023
131 0.002024
140 0.000973
149 0.0
149 0.0
155 0.003037
158 0.00302
158 0.0
147 0.0
131 0.0
77 0.001008
71 0.000996
78 0.001996
99 0.002028
116 0.0
121 0.0
123 0.0
125 0.003028
127 0.002996
131 0.0
142 0.0
144 0.0
152 0.0
166 0.0
155 0.002991
133 0.002991
75 0.0
48 0.0
51 0.0
70 0.002978
88 0.002999
112 0.0
115 0.0
116 0.0
124 0.0
127 0.0
141 0.001994
151 0.002993
158 0.000967
166 0.0
173 0.001998
156 0.003
128 0.002992
81 0.001994
62 0.0
67 0.002022
102 0.0
119 0.000969
124 0.00202
120 0.003012
116 0.002982
120 0.002978
126 0.00202
130 0.002989
139 0.002992
150 0.0
151 0.0
146 0.001995
97 0.000988
53 0.001
40 0.002992
49 0.002992
67 0.002993
96 0.002017
109 0.002022
109 0.002023
111 0.002992
111 0.001994
124 0.001983
135 0.002971
145 0.0
159 0.0
160 0.0
147 0.003991
124 0.004029
63 0.002995
35 0.002992
39 0.002972
58 0.002995
82 0.002992
102 0.001987
107 0.003922
112 0.001003
111 0.002998
119 0.000997
132 0.004992
140 0.00399
150 0.002983
159 0.003021
159 0.002995
139 0.002982
104 0.002955
42 0.001998
25 0.003963
47 0.002983
70 0.002997
87 0.00299
100 0.003998
105 0.003986
104 0.002963
112 0.003009
124 0.002996
134 0.002993
142 0.002992
156 0.002997
162 0.003963
155 0.002999
124 0.002993
80 0.003
56 0.003959
51 0.004013
72 0.00302
98 0.002985
111 0.001965
117 0.003955
119 0.004017
122 0.001997
129 0.003989
139 0.002991
148 0.0
157 0.002997
165 0.003932
167 0.003987
155 0.002993
146 0.019941
123 0.0
91 0.0
44 0.004013
63 0.002998
97 0.003958
111 0.002021
116 0.003027
115 0.003019
117 0.003979
120 0.003993
136 0.002993
143 0.003034
152 0.002994
164 0.003976
168 0.004993
148 0.002034
94 0.003988
41 0.003051
44 0.003024
56 0.003028
77 0.003982
99 0.00399
115 0.003024
110 0.00298
111 0.003
116 0.004946
120 0.005024
130 0.003
138 0.003988
152 0.002051
156 0.0
143 0.000995
123 0.003962
75 0.003983
30 0.002995
31 0.002992
52 0.001978
75 0.004979
96 0.005014
109 0.002021
110 0.003988
114 0.002028
121 0.001995
133 0.003026
141 0.004983
154 0.004017
162 0.001987
167 0.002004
163 0.001964
136 0.005021
82 0.004972
44 0.002986
48 0.003949
75 0.002059
90 0.003024
106 0.00303
115 0.003953
112 0.003984
114 0.002992
124 0.001995
133 0.001984
137 0.004984
146 0.004985
155 0.003006
158 0.003949
127 0.00203
75 0.002986
35 0.003003
29 0.003988
39 0.003975
70 0.002018
89 0.001989
102 0.001957
108 0.004959
107 0.005929
117 0.003984
133 0.004979
148 0.003033
154 0.002994
163 0.002938
169 0.00499
161 0.004986
134 0.002
78 0.002018
33 0.002
31 0.005986
52 0.004967
83 0.003984
102 0.005957
114 0.002994
120 0.001995
115 0.003001
122 0.005019
133 0.004978
147 0.002016
150 0.00202
162 0.002007
169 0.004977
172 0.005003
138 0.00399
75 0.003961
32 0.003031
27 0.002962
42 0.002002
61 0.005947
81 0.005982
94 0.002986
94 0.002992
87 0.002022
92 0.004954
100 0.005975
126 0.00499
141 0.005949
153 0.005999
165 0.002002
159 0.002982
134 0.002032
70 0.005974
18 0.00598
15 0.003002
38 0.002995
65 0.002024
86 0.004969
103 0.002993
103 0.005984
100 0.004934
104 0.002005
122 0.002993
137 0.002996
142 0.006021
147 0.00596
166 0.003002
163 0.002982
139 0.00203
84 0.004985
33 0.002991
43 0.006026
65 0.005947
89 0.002038
104 0.002943
113 0.002992
110 0.00599
100 0.005982
115 0.002025
123 0.002045
134 0.002993
141 0.005976
149 0.003008
155 0.005948
142 0.00594
79 0.003998
57 0.021936
30 0.0
35 0.000994
77 0.002986
89 0.002992
100 0.002955
99 0.004968
101 0.002991
109 0.005954
115 0.00598
135 0.002956
143 0.002981
150 0.003988
154 0.005979
137 0.005976
49 0.002995
17 0.002986
23 0.003951
39 0.005971
82 0.002991
98 0.005986
104 0.005986
105 0.002992
101 0.002993
103 0.003009
120 0.006007
137 0.005984
142 0.00396
156 0.003977
165 0.002971
148 0.003993
91 0.003017
30 0.005936
21 0.005986
39 0.003976
65 0.002979
88 0.003973
105 0.006025
108 0.00598
108 0.004027
114 0.003983
120 0.002993
145 0.003028
153 0.003024
164 0.005969
172 0.005984
169 0.00299
148 0.002993
90 0.00399
33 0.005988
25 0.005979
51 0.002991
74 0.002978
91 0.003989
104 0.004014
103 0.003984
107 0.006935
125 0.005954
139 0.003962
152 0.003957
162 0.003993
168 0.005984
172 0.005985
171 0.003963
143 0.003996
71 0.003955
12 0.004
21 0.003996
49 0.006947
67 0.005938
90 0.002992
103 0.003989
96 0.003953
94 0.005939
99 0.006932
110 0.003986
117 0.003935
133 0.003956
146 0.003026
155 0.003993
146 0.006945
113 0.006978
42 0.002992
30 0.004033
41 0.002986
61 0.005962
84 0.006978
108 0.003991
118 0.004015
123 0.003986
130 0.004002
131 0.004002
134 0.00698
138 0.006951
153 0.004973
166 0.004016
174 0.003957
168 0.006977
147 0.006983
58 0.003982
35 0.003966
48 0.003989
91 0.003989
116 0.005014
133 0.007972
130 0.006934
128 0.004974
124 0.004961
144 0.003989
160 0.006978
168 0.006982
173 0.003994
180 0.003986
179 0.00399
154 0.003048
87 0.00399
43 0.007949
44 0.007941
70 0.002986
102 0.004951
127 0.003989
134 0.006977
137 0.006981
144 0.004017
143 0.003979
146 0.004004
160 0.003963
164 0.00399
170 0.007982
179 0.006973
168 0.004945
143 0.005015
85 0.004959
58 0.005026
55 0.007971
80 0.006934
112 0.004023
133 0.003989
132 0.004927
133 0.003992
142 0.004941
149 0.007974
152 0.007974
169 0.004982
174 0.004932
177 0.004976
179 0.007975
169 0.007977
109 0.00498
46 0.006979
47 0.003989
70 0.003986
90 0.004986
111 0.007978
113 0.007979
119 0.004997
119 0.004981
126 0.003985
134 0.007978
145 0.007978
155 0.004982
172 0.007997
170 0.005957
150 0.004016
99 0.00503
39 0.007009
21 0.00798
37 0.004999
62 0.004991
80 0.007979
98 0.000999
107 0.000991
117 0.007967
133 0.005957
137 0.004984
138 0.004988
148 0.007973
162 0.007966
149 0.004999
111 0.004949
51 0.004987
16 0.007975
29 0.007986
51 0.004995
86 0.006981
91 0.004949
86 0.005979
79 0.004986
83 0.00798
89 0.007978
103 0.004958
115 0.005016
125 0.004944
138 0.007966
135 0.007974
87 0.004997
0 0.007997
0 0.003984
7 0.005002
30 0.005956
52 0.007974
69 0.007945
69 0.005001
60 0.004994
60 0.004995
76 0.00799
81 0.007983
98 0.004962
120 0.00798
127 0.005945
119 0.005996
63 0.005957
0 0.006992
0 0.007969
0 0.005
0 0.005952
1 0.005013
23 0.007976
28 0.006986
25 0.004983
40 0.007932
58 0.005957
76 0.006
89 0.005945
108 0.00696
120 0.006976
129 0.004964
101 0.005982
36 0.004951
28 0.007976
19 0.007976
30 0.005
54 0.007017
65 0.005984
66 0.005942
62 0.005937
65 0.006975
70 0.006969
77 0.00602
87 0.006023
93 0.004998
100 0.007963
108 0.006979
110 0.004984
68 0.005981
21 0.005957
0 0.005985
64 0.005984
74 0.006983
82 0.00698
86 0.005984
90 0.004985
90 0.004985
91 0.007971
96 0.007977
104 0.006997
111 0.006976
115 0.005964
117 0.004986
120 0.005958
119 0.006996
