87 0.02899
86 0.002956
90 0.003958
96 0.003954
84 0.002989
72 0.003004
69 0.002985
74 0.002972
83 0.003942
93 0.002972
93 0.002986
90 0.00295
88 0.002958
89 0.002986
90 0.003947
97 0.003991
109 0.00299
113 0.003976
118 0.003008
107 0.003012
85 0.002996
74 0.002993
76 0.003988
82 0.003951
85 0.002956
85 0.002992
80 0.003941
75 0.003998
80 0.003989
82 0.002982
87 0.002949
96 0.002992
97 0.002994
100 0.003993
100 0.00399
86 0.003936
63 0.003955
56 0.003027
60 0.003939
65 0.003982
68 0.003984
63 0.003987
60 0.002982
62 0.002997
67 0.003955
77 0.003953
84 0.003953
87 0.003955
85 0.003955
85 0.003994
88 0.00399
78 0.003986
0 0.00399
0 0.004006
16 0.002977
32 0.003945
41 0.003949
29 0.003954
14 0.003962
2 0.003947
8 0.003991
19 0.00393
26 0.003953
43 0.00399
68 0.003952
84 0.004022
86 0.003956
50 0.002945
5 0.003926
56 0.003954
60 0.003956
76 0.002993
83 0.003031
87 0.003991
88 0.003985
83 0.003991
81 0.003992
92 0.003979
96 0.00497
106 0.003949
114 0.00395
120 0.003991
122 0.003943
124 0.003988
116 0.00399
90 0.003991
71 0.003982
76 0.003972
90 0.003042
98 0.004983
94 0.004988
90 0.004011
85 0.004037
84 0.00399
88 0.004987
92 0.003988
96 0.003989
106 0.004989
115 0.004987
124 0.004019
131 0.00399
119 0.004988
102 0.004988
104 0.003987
112 0.004001
118 0.004022
121 0.004987
120 0.003963
113 0.004017
111 0.00399
114 0.003997
122 0.004986
127 0.004022
126 0.004984
133 0.004947
146 0.003991
155 0.003953
161 0.004016
146 0.004988
126 0.005025
119 0.003984
121 0.004018
124 0.005018
132 0.004984
135 0.005022
127 0.004987
128 0.004953
127 0.003989
132 0.003988
135 0.004041
134 0.004959
137 0.00496
146 0.004018
150 0.004022
156 0.004979
134 0.004987
101 0.005009
99 0.004986
106 0.004987
111 0.005019
109 0.003989
104 0.004028
99 0.004987
93 0.004987
106 0.004987
117 0.005015
121 0.005028
127 0.005034
144 0.004987
167 0.004988
171 0.004987
160 0.005031
133 0.004031
119 0.003989
116 0.005986
125 0.005988
133 0.004954
137 0.004987
146 0.004987
151 0.005985
152 0.004986
160 0.004986
158 0.004987
155 0.004987
164 0.004987
171 0.005027
174 0.005013
175 0.006037
146 0.005015
119 0.004987
112 0.005019
116 0.00601
122 0.004984
125 0.004988
127 0.004987
125 0.005031
124 0.004015
126 0.020946
131 0.0
131 0.0
137 0.005981
135 0.005983
135 0.005985
140 0.005015
143 0.004986
155 0.005985
182 0.004987
204 0.006013
214 0.005015
212 0.004987
201 0.005013
146 0.005984
74 0.005985
56 0.005986
66 0.004986
82 0.005015
91 0.004988
104 0.006011
104 0.005036
91 0.005984
90 0.005984
115 0.005016
131 0.005984
156 0.005986
170 0.00602
178 0.005985
178 0.006012
132 0.004987
85 0.004987
70 0.00603
79 0.005014
91 0.006014
91 0.006026
96 0.005984
101 0.005985
108 0.005984
119 0.005984
139 0.005981
152 0.00601
163 0.005984
155 0.00502
153 0.006017
140 0.005014
98 0.005985
52 0.005984
20 0.006013
16 0.004988
22 0.005947
33 0.005988
42 0.005985
40 0.004988
45 0.006018
51 0.005017
59 0.004987
102 0.005015
108 0.005983
110 0.006983
133 0.00698
136 0.005984
115 0.006006
102 0.005985
84 0.005984
91 0.005985
106 0.006016
113 0.006011
108 0.005014
96 0.004988
92 0.005016
100 0.006984
101 0.006984
121 0.005983
135 0.005986
144 0.005985
149 0.005985
113 0.006026
71 0.006006
56 0.005986
55 0.006025
54 0.005984
55 0.005986
59 0.006983
73 0.006983
80 0.005945
79 0.005984
83 0.006013
100 0.005984
111 0.00602
124 0.006019
137 0.006033
128 0.005985
53 0.006982
38 0.005985
48 0.006955
67 0.006982
82 0.005983
89 0.006034
97 0.005985
102 0.006982
100 0.006981
105 0.006024
119 0.006932
138 0.006014
156 0.006981
160 0.006945
116 0.006982
83 0.006982
73 0.006014
83 0.005985
91 0.006025
94 0.006983
88 0.006993
72 0.006028
81 0.006983
95 0.006026
108 0.006983
124 0.007026
144 0.006983
164 0.006982
180 0.005984
164 0.005984
128 0.005984
100 0.007019
101 0.007017
95 0.006985
95 0.006982
110 0.006981
103 0.007016
102 0.006988
102 0.006982
97 0.006981
115 0.006013
137 0.006011
151 0.006981
167 0.007013
174 0.007979
138 0.006981
103 0.006982
83 0.007017
86 0.006983
93 0.006983
93 0.006982
88 0.006954
73 0.006984
76 0.006023
86 0.006983
80 0.007978
91 0.007978
111 0.006981
127 0.007032
137 0.006982
109 0.006982
85 0.006954
61 0.007033
64 0.006981
65 0.007006
73 0.006953
94 0.006016
88 0.006983
90 0.007976
91 0.000995
119 0.0
137 0.007015
143 0.007022
150 0.00798
162 0.007981
161 0.007982
121 0.00798
74 0.006981
66 0.006983
77 0.007016
104 0.006982
104 0.007027
107 0.007979
118 0.007979
135 0.007981
146 0.007979
147 0.007979
159 0.007981
167 0.007979
177 0.00698
198 0.00698
191 0.006982
134 0.006941
114 0.006981
115 0.007955
119 0.006985
134 0.006969
142 0.007944
131 0.007937
139 0.007945
152 0.007946
152 0.007932
155 0.006982
154 0.007008
159 0.006985
166 0.007016
166 0.007941
111 0.006985
71 0.00701
71 0.006946
67 0.007978
70 0.007943
81 0.007948
83 0.007971
92 0.007968
96 0.006982
99 0.00697
115 0.006985
127 0.006985
136 0.006984
143 0.006986
151 0.007006
139 0.00798
92 0.007946
54 0.007962
46 0.007948
51 0.007961
57 0.007937
61 0.00698
64 0.006984
65 0.00702
78 0.00701
89 0.006936
104 0.00701
123 0.006992
130 0.006972
140 0.007967
136 0.007962
93 0.007945
44 0.007986
38 0.006986
56 0.006985
65 0.007011
69 0.007008
72 0.006952
72 0.006961
80 0.006951
88 0.006951
90 0.006979
98 0.007973
105 0.007967
115 0.007922
128 0.006942
96 0.007021
51 0.006964
32 0.007008
32 0.007014
39 0.00697
50 0.006985
52 0.006981
50 0.006969
53 0.00798
66 0.007976
69 0.007982
77 0.007965
88 0.007009
100 0.006984
120 0.007009
137 0.006973
111 0.007038
66 0.006954
44 0.006945
47 0.006975
60 0.007014
67 0.006977
67 0.007014
59 0.00697
66 0.006984
86 0.007021
91 0.006973
102 0.006977
110 0.006984
113 0.006963
118 0.006967
125 0.006961
117 0.005987
59 0.007947
43 0.007979
32 0.006981
41 0.006986
48 0.006955
52 0.006985
61 0.006965
69 0.00694
73 0.006994
83 0.006949
84 0.005986
96 0.006011
118 0.007934
131 0.005983
147 0.006988
115 0.006959
66 0.006976
43 0.006973
34 0.00702
47 0.007002
62 0.006989
69 0.006015
66 0.005983
65 0.006984
78 0.005966
92 0.005992
92 0.006953
113 0.006977
125 0.006978
127 0.006952
143 0.00698
121 0.006946
61 0.00694
24 0.005987
23 0.005987
30 0.005933
32 0.005986
49 0.006006
62 0.006014
62 0.006981
78 0.00696
99 0.00697
115 0.006979
135 0.006975
157 0.005955
183 0.005987
197 0.006
196 0.005986
168 0.005962
127 0.005987
112 0.005955
111 0.005963
112 0.009974
113 0.0
147 0.0
137 0.005983
128 0.005978
128 0.005958
143 0.005978
151 0.00598
158 0.005984
158 0.004988
161 0.005984
174 0.005983
167 0.005983
131 0.005984
91 0.005985
76 0.005985
92 0.005933
108 0.005936
106 0.005983
101 0.005947
94 0.004983
90 0.004985
88 0.004986
96 0.005983
113 0.005983
131 0.005984
152 0.005984
167 0.005984
168 0.005963
140 0.005956
65 0.005993
59 0.006004
72 0.004989
82 0.004994
94 0.005021
99 0.004987
101 0.004949
104 0.005959
103 0.005974
109 0.005967
118 0.005962
123 0.005982
145 0.00597
165 0.004991
178 0.005015
168 0.004986
116 0.004985
83 0.004986
80 0.004986
95 0.004987
99 0.005982
102 0.005985
103 0.006029
97 0.005971
112 0.004986
119 0.004989
133 0.004988
148 0.005019
158 0.004992
175 0.004957
200 0.004989
200 0.00499
167 0.00496
122 0.00598
100 0.00599
106 0.005988
101 0.004987
98 0.004986
99 0.005029
106 0.005026
110 0.005019
111 0.005022
114 0.005041
120 0.004971
130 0.005019
144 0.004987
159 0.005037
184 0.00604
178 0.005033
133 0.00499
106 0.004988
112 0.004991
123 0.004956
134 0.004986
137 0.005022
134 0.004941
139 0.004996
141 0.004967
145 0.004979
155 0.005971
159 0.00499
174 0.004964
194 0.004944
210 0.004979
208 0.004976
177 0.004992
124 0.004981
118 0.004968
120 0.004966
116 0.005013
120 0.004987
115 0.005981
109 0.005016
116 0.004979
121 0.005001
130 0.005
147 0.004993
157 0.004976
169 0.004977
180 0.004958
186 0.004993
164 0.004984
114 0.004946
89 0.00393
86 0.003991
87 0.005038
87 0.004992
83 0.004951
81 0.004942
84 0.004963
94 0.004956
96 0.004986
102 0.004027
109 0.004983
113 0.004993
137 0.003997
152 0.004015
133 0.004029
112 0.00399
102 0.005041
104 0.005014
115 0.005018
111 0.004957
114 0.00502
121 0.005019
134 0.004018
150 0.005025
153 0.00399
155 0.004021
151 0.00399
161 0.00399
170 0.004992
173 0.004997
157 0.005038
108 0.005015
92 0.004039
95 0.005001
101 0.004025
102 0.003989
95 0.003982
104 0.003945
117 0.003989
131 0.004
138 0.003912
141 0.010971
144 0.0
86 0.0
81 0.003999
76 0.003948
81 0.003953
87 0.003989
93 0.004023
104 0.004003
115 0.003951
124 0.00393
138 0.003986
151 0.003957
112 0.004017
71 0.00398
54 0.003947
55 0.003966
62 0.002939
74 0.002992
97 0.002979
113 0.003978
122 0.003977
130 0.003977
117 0.004
88 0.003976
84 0.003945
109 0.00395
143 0.003954
153 0.002991
125 0.002993
74 0.002991
62 0.002979
67 0.00398
87 0.004019
99 0.003992
100 0.003987
87 0.003976
88 0.00395
100 0.004005
99 0.003018
106 0.002953
119 0.002958
136 0.002944
153 0.002948
148 0.002995
117 0.002953
71 0.003955
44 0.004002
54 0.003994
65 0.004031
65 0.002992
59 0.002991
60 0.002993
73 0.002965
92 0.002966
98 0.002945
108 0.002951
125 0.002953
126 0.002987
145 0.003919
158 0.004005
110 0.003955
57 0.003035
43 0.002993
46 0.002991
52 0.002957
48 0.002992
46 0.002992
54 0.00294
64 0.003036
59 0.003936
53 0.00298
66 0.00299
76 0.003993
93 0.002989
104 0.002998
107 0.002985
95 0.003036
56 0.002931
47 0.002981
60 0.003015
52 0.002939
44 0.002978
36 0.003031
23 0.001968
42 0.00299
66 0.002963
87 0.002993
95 0.002953
96 0.002991
102 0.00296
127 0.00296
138 0.002955
113 0.002994
58 0.003993
40 0.002996
54 0.002991
69 0.002989
70 0.002955
72 0.002991
73 0.002963
74 0.002969
77 0.003008
86 0.002925
92 0.002927
109 0.003006
118 0.003005
131 0.002985
141 0.001994
97 0.001993
48 0.001994
47 0.002979
57 0.002993
70 0.00294
75 0.002934
66 0.002928
62 0.003986
67 0.00394
79 0.002967
79 0.00394
88 0.001995
90 0.001993
98 0.00196
106 0.002955
113 0.002981
88 0.00296
46 0.002948
19 0.002941
20 0.002998
29 0.002928
32 0.001948
36 0.002994
44 0.001993
49 0.001994
60 0.001994
68 0.001995
80 0.002992
102 0.002989
111 0.003011
128 0.002997
140 0.003009
127 0.00299
78 0.001995
49 0.001992
56 0.00195
72 0.001957
76 0.001959
74 0.001965
79 0.001995
86 0.002991
80 0.00304
76 0.002977
88 0.002991
104 0.001975
115 0.001982
124 0.001989
143 0.001993
118 0.001989
49 0.00299
34 0.001959
41 0.001995
42 0.0
58 0.002996
130 0.0
82 0.000979
35 0.002
31 0.001969
37 0.001986
43 0.001998
55 0.001992
61 0.002012
62 0.001996
83 0.001958
91 0.001953
94 0.001949
101 0.002029
109 0.00199
106 0.00104
119 0.001996
132 0.001976
112 0.001995
61 0.002003
25 0.002001
28 0.001983
45 0.001969
55 0.001965
50 0.002022
50 0.000996
54 0.000999
53 0.000965
60 0.000981
69 0.001007
81 0.002007
96 0.001973
107 0.001961
128 0.001987
132 0.001033
89 0.000985
53 0.000968
54 0.001037
61 0.000995
68 0.001007
75 0.000987
78 0.000998
79 0.001008
77 0.001966
87 0.001962
96 0.001988
98 0.001958
108 0.001045
122 0.000995
136 0.000966
154 0.00101
160 0.000986
120 0.00101
72 0.001
52 0.001006
62 0.001983
74 0.001995
77 0.000997
76 0.000997
75 0.000998
81 0.001033
90 0.000963
102 0.001017
104 0.000996
110 0.000993
119 0.001013
126 0.000993
136 0.000997
160 0.000985
143 0.001999
86 0.00104
50 0.000999
56 0.000967
59 0.000998
62 0.000998
71 0.000998
75 0.000998
77 0.000997
80 0.001039
92 0.000998
107 0.000998
105 0.000996
113 0.000997
126 0.001027
128 0.000998
138 0.000998
146 0.000999
123 0.000999
73 0.000998
53 0.000998
55 0.000998
57 0.000998
64 0.000997
70 0.000997
77 0.0
80 0.000997
83 0.000998
94 0.000998
103 0.000998
121 0.000998
149 0.000998
159 0.000998
171 0.000997
190 0.000997
170 0.0
133 0.0
121 0.000996
114 0.000997
109 0.000997
114 0.000998
116 0.000998
122 0.000998
131 0.000954
147 0.000993
155 0.000998
150 0.000997
156 0.0
165 0.0
189 0.0
200 0.0
201 0.000999
181 0.000999
150 0.001
129 0.000997
122 0.000998
121 0.000997
119 0.000998
119 0.000945
117 0.0
121 0.0
125 0.0
126 0.0
120 0.0
116 0.0
125 0.000984
129 0.000986
124 0.000975
116 0.000996
85 0.000952
62 0.0
56 0.0
61 0.0
62 0.0
69 0.0
78 0.0
85 0.00095
87 0.0
91 0.0
115 0.0
132 0.00099
144 0.001009
157 0.0
176 0.0
154 0.0
112 0.001046
87 0.0
76 0.0
83 0.000996
97 0.002994
129 0.0
145 0.0
160 0.0
165 0.0
175 0.0
173 0.0
149 0.0
93 0.0
59 0.0
56 0.000971
53 0.0
66 0.0
73 0.0
73 0.0
76 0.0
80 0.0
88 0.0
97 0.0
111 0.0
120 0.0
124 0.0
123 0.0
80 0.000981
5 0.0
0 0.0
0 0.0
14 0.0
25 0.0
34 0.0
29 0.000958
30 0.0
39 0.0
40 0.0
50 0.0
55 0.000963
63 0.001021
82 0.0
98 0.0
87 0.0
19 0.0
9 0.0
12 0.000996
9 0.000997
17 0.0
21 0.0
22 0.0
24 0.001008
30 0.000997
29 0.0
36 0.000988
68 0.0
87 0.0
97 0.0
115 0.000947
120 0.000966
87 0.0
58 0.0
59 0.0
69 0.000997
79 0.001041
75 0.0
74 0.000959
87 0.0
94 0.0
111 0.0
122 0.000992
129 0.000974
149 0.0
156 0.0
165 0.0
172 0.000999
154 0.000997
84 0.0
60 0.0
74 0.0
86 0.0
100 0.0
102 0.0
101 0.001021
104 0.0
114 0.0
125 0.0
138 0.000979
151 0.00097
163 0.0
168 0.0
172 0.0
145 0.0
95 0.0
64 0.000996
61 0.000986
61 0.0
69 0.0
76 0.0
70 0.00102
59 0.000951
62 0.0
63 0.0
60 0.000996
69 0.0
81 0.0
87 0.001955
107 0.000976
112 0.0
82 0.0
43 0.0
31 0.000971
39 0.001027
71 0.0
93 0.0
120 0.000965
123 0.000941
117 0.000959
111 0.001956
113 0.001986
126 0.0
150 0.000983
173 0.0
190 0.000964
206 0.00099
190 0.000981
132 0.000969
66 0.000949
66 0.000998
88 0.001037
109 0.001995
120 0.001987
126 0.0
115 0.0
110 0.0
114 0.000963
117 0.000978
130 0.000985
139 0.000961
152 0.00095
175 0.000998
179 0.000948
133 0.001954
82 0.001961
82 0.0
94 0.0
108 0.0
112 0.000988
109 0.001006
94 0.000971
88 0.00099
97 0.000963
107 0.000962
109 0.000995
120 0.001995
132 0.0
138 0.000963
142 0.0
140 0.0
105 0.001016
67 0.002009
65 0.000979
71 0.000997
86 0.000971
87 0.00097
93 0.000994
106 0.001995
120 0.00197
140 0.001002
146 0.000998
151 0.000968
155 0.002023
155 0.00099
174 0.000979
184 0.000997
142 0.000962
106 0.000959
98 0.000998
107 0.001994
114 0.00199
125 0.001001
123 0.000999
127 0.000995
133 0.001996
152 0.00298
177 0.000957
186 0.001018
196 0.00097
185 0.001011
187 0.001004
193 0.00197
169 0.001963
105 0.001034
94 0.000997
98 0.000997
97 0.002992
103 0.002984
105 0.000977
99 0.00096
96 0.001005
99 0.000987
100 0.000986
102 0.002013
111 0.002002
126 0.000999
146 0.00099
157 0.001983
145 0.002961
120 0.002988
91 0.00096
97 0.000959
99 0.001
102 0.001027
112 0.000971
128 0.001007
137 0.001991
142 0.00294
141 0.001946
146 0.002037
160 0.002032
168 0.002995
181 0.002992
192 0.002023
162 0.002993
115 0.001
104 0.000996
105 0.001964
111 0.001997
110 0.001997
115 0.002023
116 0.001993
118 0.002021
133 0.002992
136 0.002988
141 0.000999
153 0.002029
173 0.000995
181 0.001012
168 0.000988
121 0.001994
87 0.003005
74 0.002009
76 0.002001
82 0.002021
78 0.002961
69 0.002992
67 0.002046
67 0.00302
76 0.002031
82 0.000997
94 0.000972
100 0.002992
104 0.003033
108 0.001996
95 0.001988
55 0.001989
22 0.002992
18 0.002993
25 0.002003
33 0.003027
37 0.00205
45 0.002035
53 0.001027
64 0.002992
73 0.002993
87 0.00201
99 0.001973
100 0.001988
114 0.002991
134 0.003025
121 0.002022
74 0.002992
56 0.002041
60 0.001996
71 0.001996
84 0.004029
85 0.003991
89 0.001994
87 0.001986
91 0.001964
97 0.003035
102 0.002992
109 0.001992
131 0.003992
141 0.002036
131 0.001964
81 0.003043
52 0.003989
52 0.004026
62 0.00199
63 0.001989
68 0.002024
70 0.002989
67 0.002995
71 0.002004
70 0.004023
83 0.001995
91 0.003008
89 0.00303
101 0.003981
111 0.00399
93 0.002994
56 0.001985
30 0.002001
21 0.003008
23 0.002986
34 0.002005
40 0.003949
46 0.00303
66 0.003036
87 0.002992
100 0.003986
111 0.003948
124 0.00199
128 0.001987
140 0.001992
150 0.002983
147 0.002952
113 0.001995
92 0.003931
99 0.002995
106 0.003028
111 0.00299
117 0.003991
113 0.003991
117 0.0
123 0.0
129 0.002991
138 0.003948
151 0.001998
172 0.003946
166 0.003006
132 0.003011
93 0.002998
82 0.003988
82 0.003969
85 0.003019
79 0.003005
82 0.002024
83 0.002985
86 0.002987
96 0.003037
101 0.003991
111 0.002988
123 0.003001
132 0.002999
143 0.004002
140 0.003972
96 0.00301
52 0.002991
25 0.003021
23 0.003991
26 0.00397
34 0.002988
49 0.003953
61 0.003012
70 0.003001
82 0.003002
85 0.003987
80 0.003979
93 0.002996
112 0.002989
128 0.002995
144 0.005022
131 0.004988
92 0.002973
77 0.003988
92 0.002999
105 0.00302
111 0.003006
109 0.003974
112 0.00397
117 0.003001
124 0.002991
130 0.00399
134 0.004967
144 0.00499
156 0.002985
171 0.003995
168 0.002977
129 0.002988
91 0.003004
85 0.00399
96 0.003985
99 0.003994
105 0.003973
109 0.004035
106 0.003992
107 0.004987
107 0.004991
107 0.003989
113 0.003975
121 0.002992
135 0.002998
157 0.003051
159 0.00498
124 0.004987
71 0.003954
57 0.003922
55 0.003998
67 0.004984
77 0.004984
80 0.004987
82 0.004987
87 0.002973
87 0.003012
91 0.002992
101 0.00399
114 0.004993
136 0.004026
158 0.00399
174 0.004002
164 0.00499
131 0.00498
97 0.004943
95 0.004953
104 0.002996
112 0.003014
116 0.003011
111 0.003942
114 0.004992
131 0.004006
134 0.003989
139 0.003989
146 0.00498
155 0.004964
169 0.004962
174 0.004983
142 0.003988
100 0.002958
96 0.002986
111 0.004984
119 0.004984
118 0.00399
118 0.003998
120 0.004008
124 0.004979
129 0.004987
125 0.004973
128 0.004958
147 0.004027
154 0.00302
169 0.003972
177 0.005987
165 0.004984
106 0.003998
87 0.004003
87 0.003986
89 0.005011
92 0.004981
89 0.004965
97 0.005001
104 0.004016
112 0.004012
122 0.003995
135 0.005956
143 0.004984
158 0.004
178 0.003992
188 0.003972
180 0.004948
149 0.004973
104 0.004994
106 0.005001
108 0.004015
109 0.004995
112 0.004988
108 0.005966
109 0.005985
114 0.003985
112 0.004
123 0.003998
135 0.005021
138 0.004987
140 0.004989
141 0.004985
92 0.004994
45 0.004991
20 0.005021
19 0.005974
24 0.005985
36 0.003982
39 0.003973
48 0.00401
63 0.004987
75 0.004982
94 0.005005
111 0.005993
128 0.004987
152 0.004992
177 0.004984
185 0.00598
173 0.0
91 0.001994
67 0.003993
72 0.003989
82 0.004991
85 0.004987
85 0.005973
88 0.005985
102 0.004994
105 0.004983
107 0.003989
117 0.005956
125 0.005973
133 0.004988
152 0.003996
160 0.003993
142 0.005926
92 0.004982
64 0.005996
61 0.00599
69 0.004977
73 0.004982
76 0.004995
85 0.005971
94 0.005985
100 0.004977
109 0.004026
119 0.003962
124 0.005971
128 0.005934
159 0.005984
159 0.005989
105 0.004046
52 0.004998
40 0.005024
56 0.00598
70 0.005982
73 0.004994
66 0.004983
52 0.004996
49 0.006027
53 0.006027
62 0.006008
76 0.005984
79 0.004991
91 0.005043
116 0.005028
130 0.005982
113 0.005977
53 0.004987
28 0.005945
22 0.005958
23 0.00694
30 0.006978
49 0.006981
57 0.005979
69 0.005973
79 0.004985
90 0.00598
102 0.004981
107 0.005975
114 0.006948
128 0.005985
143 0.006005
144 0.00595
109 0.006969
59 0.005011
60 0.006979
65 0.006975
87 0.005
94 0.004976
98 0.005025
99 0.005972
98 0.005999
99 0.005996
106 0.004962
121 0.005023
134 0.006988
158 0.004985
168 0.006988
172 0.006987
135 0.004988
90 0.005015
78 0.004982
88 0.005995
86 0.007006
80 0.005999
77 0.006001
75 0.006002
79 0.006979
93 0.005988
95 0.007007
101 0.007022
110 0.005034
120 0.004988
138 0.004984
159 0.007027
155 0.006971
113 0.005988
88 0.005996
86 0.005999
95 0.006986
104 0.006013
122 0.006984
132 0.006964
140 0.005009
149 0.004983
154 0.005988
148 0.006972
152 0.007004
177 0.005984
192 0.005989
208 0.005984
206 0.006985
132 0.005994
102 0.00697
99 0.006991
112 0.005019
120 0.005971
114 0.005988
105 0.007982
98 0.006957
106 0.005982
111 0.005972
116 0.005993
127 0.006981
140 0.005957
155 0.006976
171 0.006981
160 0.007027
122 0.006024
84 0.005989
62 0.007949
63 0.007022
64 0.006016
71 0.005951
75 0.006025
81 0.006982
106 0.006014
111 0.007014
112 0.006984
121 0.006992
134 0.006985
142 0.007021
161 0.007982
173 0.007978
155 0.006004
128 0.005997
112 0.00597
114 0.007008
123 0.005993
109 0.006985
112 0.007947
116 0.007011
109 0.007007
98 0.007011
86 0.007968
87 0.007969
105 0.005983
136 0.005984
155 0.005988
175 0.00798
151 0.006001
120 0.007942
107 0.007921
106 0.00703
103 0.007006
84 0.007008
81 0.007944
88 0.007951
100 0.0
84 0.003989
79 0.00699
94 0.006983
102 0.007978
110 0.007976
110 0.007015
96 0.006988
69 0.006967
45 0.007952
47 0.00794
53 0.007014
61 0.00696
65 0.005989
77 0.007024
84 0.006976
80 0.007911
98 0.007943
131 0.006995
141 0.007001
133 0.007003
136 0.00793
146 0.007952
144 0.007025
112 0.005988
87 0.006014
96 0.00701
119 0.006979
134 0.007953
138 0.007951
144 0.006968
151 0.006973
153 0.006983
159 0.007933
174 0.007939
181 0.007017
203 0.00703
204 0.006981
183 0.007009
144 0.006964
120 0.007025
118 0.00801
120 0.00699
109 0.006982
110 0.006979
121 0.006983
127 0.007953
126 0.00795
130 0.006992
135 0.00702
131 0.007015
141 0.006974
154 0.006948
165 0.007007
155 0.007027
149 0.006961
155 0.006991
156 0.006968
162 0.007953
165 0.007009
161 0.006969
162 0.007007
166 0.00701
185 0.006967
200 0.006988
193 0.006979
196 0.006982
207 0.006988
196 0.006988
179 0.006948
157 0.006962
152 0.007012
149 0.007013
150 0.007008
144 0.007017
130 0.00697
124 0.00699
128 0.008015
137 0.007008
147 0.006956
159 0.006954
163 0.006973
174 0.007009
173 0.007013
143 0.007016
127 0.007007
122 0.006985
128 0.006978
124 0.006972
125 0.006999
122 0.007014
141 0.006027
145 0.006028
142 0.006023
156 0.007017
156 0.006942
171 0.007007
182 0.007007
178 0.007028
130 0.006991
112 0.006993
114 0.00601
115 0.005982
115 0.006013
115 0.005984
108 0.005987
106 0.00602
107 0.007036
114 0.007012
113 0.006992
115 0.00697
129 0.00699
131 0.006982
118 0.007012
90 0.006023
54 0.005965
50 0.005978
54 0.006011
51 0.006024
39 0.006016
42 0.006989
48 0.00701
60 0.007009
68 0.006982
77 0.006982
84 0.006984
84 0.00698
97 0.006012
101 0.006019
84 0.00601
56 0.005985
45 0.006012
48 0.007009
55 0.007021
62 0.00698
64 0.007022
71 0.00698
69 0.006011
68 0.006014
67 0.006013
67 0.005984
81 0.006011
100 0.006018
115 0.006012
107 0.006013
74 0.006982
45 0.006983
38 0.006983
41 0.006982
38 0.00602
38 0.006019
41 0.005984
55 0.00599
60 0.00604
73 0.006009
76 0.006017
91 0.005985
118 0.005026
142 0.006025
140 0.007011
111 0.006011
81 0.006022
75 0.00601
66 0.006013
65 0.006024
73 0.006014
72 0.005958
72 0.006025
71 0.009937
66 0.0
60 0.005025
63 0.005939
67 0.005983
80 0.006015
88 0.006018
58 0.005992
28 0.005962
19 0.006016
26 0.006012
34 0.005963
40 0.005979
43 0.005006
48 0.00499
58 0.004987
52 0.005014
47 0.005973
45 0.005986
51 0.006018
68 0.006023
81 0.00597
78 0.005974
47 0.006014
0 0.005028
0 0.005028
8 0.005021
33 0.005014
36 0.004988
33 0.006013
35 0.006022
49 0.006013
61 0.006021
73 0.006035
90 0.006018
100 0.006021
119 0.004942
131 0.004985
114 0.004987
36 0.005026
24 0.005021
28 0.005019
35 0.006022
41 0.005965
40 0.006014
46 0.006014
41 0.005984
43 0.004986
57 0.004987
66 0.004987
79 0.004987
81 0.004987
87 0.004988
98 0.004988
68 0.00502
18 0.006016
56 0.006015
58 0.005988
64 0.00598
71 0.006023
69 0.005042
63 0.005045
69 0.005012
80 0.00496
82 0.00502
83 0.005034
88 0.005021
93 0.004981
101 0.006013
111 0.005986
114 0.006018
102 0.005017
79 0.005023
71 0.004988
79 0.005018
91 0.00502
91 0.005016
90 0.005018
90 0.004987
92 0.005029
100 0.005022
109 0.005984
116 0.005016
122 0.005001
128 0.005016
136 0.005024
145 0.005022
149 0.005016
122 0.005021
99 0.004983
96 0.00503
97 0.005024
103 0.005024
109 0.003973
111 0.005034
107 0.005017
107 0.005014
115 0.004987
117 0.004988
122 0.005024
125 0.005023
132 0.005029
143 0.005033
148 0.005024
156 0.004033
148 0.004019
114 0.004978
95 0.005028
97 0.005014
101 0.005019
103 0.005023
109 0.004974
106 0.004988
103 0.00496
108 0.004988
113 0.003981
114 0.003985
115 0.003994
121 0.004
125 0.004993
132 0.005024
162 0.00495
193 0.004972
174 0.004962
161 0.004986
168 0.004985
170 0.004965
160 0.00402
137 0.003946
125 0.003991
115 0.003946
109 0.003949
103 0.004947
108 0.00493
113 0.004985
117 0.004969
118 0.004964
122 0.00498
125 0.003993
120 0.00395
90 0.00397
80 0.003967
82 0.003956
87 0.003949
100 0.004952
108 0.004986
98 0.004986
96 0.005015
100 0.003987
102 0.004015
103 0.003964
105 0.00399
111 0.0
123 0.003987
121 0.003937
130 0.003945
119 0.003962
77 0.004994
67 0.002958
78 0.004986
77 0.004916
76 0.00399
87 0.00399
101 0.003973
112 0.003986
122 0.003983
126 0.003976
130 0.003953
131 0.003939
128 0.003961
127 0.002969
127 0.004988
107 0.003931
87 0.00398
82 0.003947
84 0.003949
98 0.003958
108 0.003955
110 0.003991
109 0.003955
108 0.002992
127 0.002967
138 0.002992
145 0.002985
167 0.003996
180 0.003989
188 0.00401
196 0.003957
181 0.003983
130 0.00396
82 0.003961
67 0.003951
68 0.003001
84 0.002963
86 0.002991
75 0.002979
74 0.003942
77 0.003993
83 0.003947
104 0.003948
128 0.00399
146 0.00395
158 0.003954
163 0.002992
160 0.002957
118 0.002965
97 0.003052
97 0.002947
104 0.003001
107 0.002992
100 0.003933
90 0.003955
74 0.003976
77 0.003997
93 0.003967
113 0.002958
131 0.002996
149 0.002948
148 0.002992
153 0.002981
138 0.004003
99 0.002949
69 0.002951
69 0.003009
80 0.003946
76 0.003946
75 0.002977
80 0.002996
75 0.002994
75 0.003031
85 0.002991
85 0.002957
88 0.003013
94 0.003038
103 0.002948
111 0.00302
119 0.002996
97 0.003995
50 0.002957
25 0.002991
33 0.00301
48 0.002958
65 0.002992
80 0.002964
86 0.002982
95 0.002962
103 0.002983
108 0.002968
115 0.002964
124 0.002993
134 0.002938
138 0.002989
152 0.002992
156 0.002996
115 0.002996
84 0.002946
83 0.002974
92 0.002975
103 0.002992
113 0.002956
122 0.003932
126 0.002983
131 0.002992
129 0.002992
137 0.00299
147 0.002991
154 0.002958
168 0.002984
194 0.002986
186 0.002996
144 0.002982
118 0.002982
106 0.003956
103 0.001981
106 0.002991
106 0.002994
105 0.003006
104 0.002943
103 0.002944
113 0.002908
119 0.002989
126 0.003005
137 0.002987
150 0.001959
159 0.002956
163 0.002004
139 0.002
94 0.001964
79 0.002958
80 0.002996
84 0.00296
93 0.002957
103 0.002971
113 0.001997
125 0.001996
135 0.001978
141 0.002001
140 0.001987
139 0.002039
141 0.002
145 0.002939
166 0.002989
174 0.003008
141 0.003005
112 0.002992
112 0.002992
115 0.001995
114 0.001976
117 0.002014
125 0.001991
121 0.003033
129 0.001952
147 0.001931
160 0.001994
167 0.001984
168 0.003005
172 0.002994
176 0.00204
174 0.002034
145 0.001996
112 0.001994
107 0.003029
111 0.001995
114 0.001995
116 0.000997
121 0.002936
119 0.001023
123 0.001987
127 0.002975
127 0.001987
130 0.001995
132 0.002002
137 0.002003
148 0.001989
147 0.00196
128 0.001978
102 0.001954
96 0.001026
112 0.001996
125 0.001989
135 0.001995
139 0.002033
133 0.002002
136 0.001941
146 0.001957
149 0.001967
164 0.000985
181 0.000964
187 0.001961
190 0.00097
200 0.000963
176 0.000992
135 0.000983
130 0.001982
134 0.00195
141 0.001951
139 0.002006
137 0.001996
136 0.001945
133 0.001003
136 0.000947
139 0.001023
148 0.000998
151 0.000974
156 0.00101
170 0.000964
168 0.001004
142 0.002002
108 0.001945
100 0.001014
105 0.001974
106 0.000998
105 0.001005
107 0.000998
103 0.000958
112 0.000987
118 0.00099
120 0.001001
124 0.000995
122 0.000989
125 0.001005
133 0.00197
130 0.001034
105 0.000998
79 0.001018
79 0.00103
81 0.000998
85 0.00099
86 0.000961
85 0.000997
90 0.001015
93 0.001008
99 0.000967
107 0.000954
120 0.000964
133 0.000998
146 0.000992
154 0.000997
152 0.001
111 0.001015
91 0.000996
74 0.000955
73 0.000981
72 0.001
82 0.000958
94 0.000997
107 0.0
124 0.000999
141 0.000996
153 0.000962
156 0.001012
139 0.000985
139 0.001027
158 0.001002
141 0.000998
113 0.000983
102 0.000985
81 0.0
87 0.0
96 0.0
108 0.0
121 0.000998
134 0.001004
136 0.001005
140 0.000987
145 0.000996
156 0.001012
156 0.000993
166 0.0
173 0.0
146 0.0
107 0.0
96 0.0
103 0.0
115 0.001003
112 0.000989
133 0.001003
131 0.000997
139 0.000998
137 0.0
129 0.000985
127 0.0
133 0.0
154 0.0
178 0.0
181 0.0
172 0.000937
129 0.000996
114 0.001
105 0.000975
95 0.00101
104 0.000998
110 0.0
123 0.0
132 0.0
121 0.000995
117 0.0
116 0.000995
123 0.0
157 0.000997
169 0.000999
156 0.000997
102 0.000997
67 0.000995
54 0.0
53 0.0
55 0.0
49 0.00097
47 0.0
48 0.0
52 0.0
63 0.0
63 0.0
76 0.000988
90 0.0
100 0.0
108 0.0
112 0.0
68 0.0
34 0.0
29 0.0
31 0.0
34 0.0
44 0.0
50 0.0
59 0.0
70 0.0
80 0.0
90 0.0
95 0.0
108 0.0
112 0.0
120 0.0
130 0.0
118 0.0
65 0.0
54 0.0
60 0.000997
76 0.0
84 0.0
86 0.0
81 0.0
78 0.0
84 0.0
93 0.0
99 0.000991
101 0.0
110 0.0
125 0.0
138 0.001025
119 0.0
76 0.0
51 0.0
54 0.001022
65 0.001029
66 0.0
69 0.0
72 0.000998
70 0.0
87 0.0
91 0.0
93 0.002022
99 0.001982
108 0.0
109 0.0
120 0.000961
119 0.0
101 0.001023
53 0.001007
37 0.000997
34 0.000998
40 0.0
49 0.0
54 0.002024
55 0.002026
58 0.002022
67 0.000988
75 0.000998
83 0.001024
95 0.001023
109 0.001036
118 0.000993
126 0.000996
124 0.0
103 0.000998
76 0.000998
72 0.002024
83 0.002043
96 0.000968
100 0.001001
100 0.0
101 0.001024
107 0.000996
118 0.0
128 0.000968
140 0.0
155 0.00096
171 0.000967
180 0.00202
187 0.002023
182 0.0
134 0.0
104 0.0
105 0.001033
110 0.001042
116 0.0
116 0.000967
111 0.0
106 0.000987
108 0.000997
109 0.00202
114 0.002034
117 0.0
123 0.0
132 0.0
142 0.002021
154 0.002052
139 0.000952
100 0.0
58 0.001016
58 0.0
65 0.000939
69 0.000998
72 0.002023
76 0.0
79 0.0
83 0.0
96 0.002998
105 0.000998
121 0.0
133 0.0
137 0.0
143 0.0
152 0.0
145 0.001026
112 0.001037
81 0.0
84 0.0
90 0.0
101 0.002021
111 0.002028
117 0.0
121 0.0
137 0.0
141 0.0
142 0.0
139 0.001023
145 0.001995
160 0.0
167 0.0
167 0.0
155 0.002021
123 0.002026
97 0.0
103 0.0
105 0.0
107 0.0
108 0.0
111 0.001046
124 0.001994
135 0.001961
143 0.0
144 0.0
139 0.001995
141 0.002028
142 0.0
141 0.0
139 0.0
116 0.0
83 0.002022
64 0.000997
70 0.001996
78 0.0
85 0.0
87 0.000997
87 0.001994
87 0.001966
87 0.0
92 0.000998
96 0.001001
102 0.0
106 0.000967
117 0.001028
130 0.002037
149 0.002012
148 0.001974
132 0.002005
116 0.002025
117 0.001997
124 0.000981
129 0.000979
124 0.000998
117 0.000991
114 0.000958
122 0.00302
132 0.003029
140 0.001956
152 0.002991
163 0.001994
172 0.002031
179 0.002022
195 0.001026
190 0.0
144 0.002007
129 0.001994
126 0.000953
130 0.002992
129 0.002995
124 0.0
121 0.001997
120 0.001967
127 0.002985
131 0.001967
133 0.001984
137 0.000961
143 0.000979
151 0.000988
162 0.000994
166 0.002997
153 0.002992
117 0.001995
101 0.001997
98 0.002014
104 0.001996
110 0.002959
106 0.002006
110 0.000996
108 0.000974
109 0.001
112 0.001005
113 0.002994
116 0.003003
122 0.002962
125 0.001996
136 0.002005
141 0.001977
132 0.001995
114 0.003021
99 0.001029
105 0.002992
106 0.000998
105 0.000969
104 0.002006
103 0.002993
110 0.002992
113 0.002007
114 0.001975
117 0.002006
125 0.002023
133 0.003022
149 0.001983
159 0.003032
151 0.000996
121 0.00101
104 0.001025
102 0.002992
105 0.002992
110 0.001971
110 0.001994
108 0.001996
112 0.00399
115 0.003996
121 0.002029
135 0.002997
145 0.002001
158 0.001994
169 0.001027
181 0.002995
178 0.002992
132 0.000994
99 0.001004
94 0.002018
95 0.004033
102 0.003989
99 0.002018
97 0.00302
98 0.002025
98 0.001995
102 0.002003
104 0.002993
109 0.003991
125 0.00199
128 0.001957
130 0.003018
139 0.003992
133 0.003988
92 0.001984
53 0.003023
53 0.00198
59 0.001994
68 0.001995
73 0.003019
77 0.004026
87 0.001935
91 0.001939
89 0.001968
92 0.003989
101 0.003961
113 0.001989
125 0.00399
135 0.001995
124 0.00199
87 0.002009
66 0.002992
69 0.004026
72 0.002044
77 0.001991
78 0.001967
82 0.003991
88 0.00399
94 0.001967
102 0.003989
114 0.002004
122 0.001993
129 0.002993
145 0.004023
155 0.003991
141 0.002009
98 0.00202
63 0.001968
56 0.004016
62 0.004985
64 0.001995
66 0.003991
65 0.00196
70 0.001992
74 0.002965
79 0.003991
89 0.00399
99 0.002954
107 0.002035
118 0.002024
127 0.004023
130 0.004033
91 0.001956
37 0.004019
37 0.001999
41 0.002945
46 0.00199
48 0.003983
45 0.003997
47 0.002993
51 0.00296
57 0.002965
61 0.003983
71 0.00401
83 0.002969
97 0.003969
118 0.002003
124 0.002995
102 0.003002
67 0.004986
53 0.004983
50 0.002957
53 0.002992
54 0.002987
56 0.003987
63 0.004036
75 0.002957
92 0.003968
99 0.001958
104 0.002994
112 0.002986
123 0.00498
134 0.00494
150 0.00296
144 0.010011
89 0.002999
70 0.003995
75 0.003991
83 0.002992
91 0.004032
98 0.001973
97 0.002955
98 0.00298
101 0.004974
108 0.004984
113 0.002963
121 0.003003
129 0.00295
147 0.003992
163 0.004956
158 0.002963
102 0.004948
80 0.002955
81 0.002931
80 0.002963
90 0.00495
97 0.004993
87 0.003006
91 0.002999
96 0.003011
102 0.003991
106 0.003993
111 0.003961
117 0.004019
131 0.002981
145 0.002953
141 0.002961
115 0.002965
84 0.004968
75 0.002984
81 0.003004
78 0.002992
82 0.00399
85 0.004955
88 0.004981
99 0.003996
104 0.004976
101 0.002932
107 0.002943
121 0.002987
130 0.004963
143 0.00594
165 0.002994
155 0.003983
115 0.003999
82 0.005947
75 0.004979
86 0.004987
89 0.004996
96 0.002965
104 0.002999
105 0.002964
108 0.005976
113 0.004986
115 0.003953
122 0.003936
133 0.003937
142 0.005958
159 0.005936
152 0.004979
120 0.004953
86 0.002992
89 0.002973
90 0.00399
82 0.00495
88 0.005941
88 0.002962
87 0.003994
92 0.003987
100 0.005941
96 0.005948
97 0.004967
101 0.005022
122 0.00398
144 0.003024
144 0.002993
116 0.005984
70 0.005979
49 0.004018
53 0.003954
56 0.003952
59 0.005945
68 0.005934
63 0.005977
75 0.004988
88 0.003998
95 0.004006
110 0.003993
123 0.005969
133 0.005978
154 0.003978
168 0.003984
146 0.003943
99 0.005942
66 0.005956
57 0.005957
66 0.005985
67 0.003986
66 0.003984
74 0.004001
84 0.005968
86 0.005934
86 0.003962
94 0.003981
106 0.003963
110 0.005941
139 0.005968
177 0.005956
159 0.005994
104 0.003994
95 0.003988
96 0.004973
99 0.005985
98 0.005985
107 0.003953
112 0.003963
126 0.003955
139 0.005991
148 0.005947
181 0.005979
192 0.005979
201 0.003995
207 0.004987
194 0.004951
166 0.005948
126 0.005946
109 0.003944
83 0.003959
69 0.00399
61 0.005985
65 0.005953
76 0.00594
90 0.006947
86 0.004975
88 0.004963
104 0.005004
114 0.005954
125 0.005932
151 0.003959
146 0.003948
113 0.003952
63 0.005985
41 0.005994
58 0.005993
63 0.006983
84 0.003993
92 0.004018
89 0.004987
95 0.006946
102 0.005984
105 0.004958
121 0.005
137 0.004007
154 0.006952
170 0.005981
142 0.005983
93 0.006981
61 0.004945
65 0.004987
68 0.004967
65 0.006953
69 0.005984
61 0.004017
61 0.004958
65 0.003989
70 0.006019
80 0.006976
112 0.005974
118 0.006944
138 0.004946
145 0.004951
106 0.004986
45 0.00699
5 0.006971
18 0.005
28 0.004999
29 0.005937
22 0.005985
27 0.006977
27 0.005948
39 0.006938
46 0.004949
68 0.00495
91 0.00495
106 0.00696
121 0.006979
136 0.004951
87 0.003999
35 0.004987
31 0.00698
47 0.006952
54 0.006921
64 0.006931
66 0.004987
66 0.004948
63 0.003988
63 0.006954
70 0.006948
86 0.005008
94 0.004972
115 0.005987
141 0.005954
141 0.006952
47 0.004981
138 0.006916
113 0.006943
109 0.004959
109 0.004988
109 0.004994
109 0.00699
109 0.006933
109 0.005941
109 0.005956
109 0.005988
109 0.006955
109 0.004988
109 0.006936
109 0.006981
108 0.004955
91 0.005947
67 0.004996
72 0.006971
77 0.006994
86 0.005953
87 0.004952
72 0.005953
66 0.00791
78 0.005984
101 0.006947
124 0.006968
144 0.004951
170 0.004969
201 0.004986
229 0.006969
187 0.007955
84 0.005986
67 0.005951
81 0.00597
97 0.007948
140 0.005945
151 0.006979
149 0.006971
134 0.00498
145 0.005984
168 0.004974
206 0.007965
236 0.007962
254 0.005948
255 0.005989
255 0.005945
222 0.007931
97 0.005918
91 0.006951
95 0.006954
128 0.004988
140 0.004992
119 0.00493
100 0.007968
74 0.007957
94 0.005985
131 0.005953
182 0.005958
228 0.007928
244 0.005952
255 0.006976
255 0.007934
185 0.004985
98 0.006004
84 0.005978
103 0.007923
117 0.007949
146 0.005984
167 0.005942
162 0.005956
149 0.007946
156 0.005983
158 0.007975
166 0.007965
220 0.005991
205 0.006969
205 0.005989
216 0.007961
209 0.007964
145 0.005955
121 0.005961
122 0.005958
129 0.007955
144 0.005993
156 0.007963
160 0.007952
163 0.006974
158 0.006982
158 0.006001
163 0.007958
159 0.007948
170 0.005945
189 0.001029
207 0.006028
208 0.007981
148 0.005994
121 0.006991
122 0.006978
126 0.006937
132 0.006936
137 0.006928
141 0.007945
138 0.007944
141 0.005988
151 0.005987
159 0.00595
160 0.00797
171 0.006946
181 0.006983
189 0.006981
164 0.00698
126 0.005985
88 0.006982
83 0.007973
96 0.007944
111 0.005966
117 0.006017
113 0.005956
114 0.007977
116 0.006943
123 0.006981
130 0.007015
134 0.006977
145 0.00696
149 0.006953
156 0.007952
167 0.007946
126 0.007019
69 0.00696
61 0.006975
65 0.007976
76 0.006953
78 0.006955
76 0.006987
71 0.006957
72 0.006955
79 0.00698
97 0.007013
101 0.00798
120 0.006033
129 0.006965
143 0.005984
162 0.007978
143 0.006955
97 0.00699
91 0.00702
105 0.006946
115 0.006937
121 0.006948
126 0.007043
118 0.007017
114 0.00602
116 0.006988
121 0.006929
132 0.007012
145 0.006977
157 0.007012
165 0.00702
165 0.006953
125 0.006952
76 0.006955
66 0.006985
75 0.007015
90 0.006955
91 0.006984
91 0.006939
92 0.007976
95 0.006965
117 0.006934
127 0.006981
132 0.006942
146 0.006967
152 0.006955
158 0.006024
170 0.005991
122 0.00697
65 0.005976
53 0.006982
54 0.006018
83 0.00695
85 0.006953
79 0.007018
72 0.007026
73 0.006981
84 0.006972
91 0.006983
93 0.00599
111 0.005987
118 0.005981
134 0.006988
144 0.00601
117 0.006981
68 0.00698
55 0.007017
59 0.006985
73 0.006943
82 0.006928
86 0.006986
86 0.006018
82 0.006004
97 0.00596
116 0.006952
127 0.007014
141 0.006969
145 0.00698
157 0.007016
167 0.00698
130 0.005974
81 0.006969
51 0.005949
49 0.005997
59 0.005991
74 0.005988
79 0.005997
78 0.005977
86 0.006982
93 0.006984
102 0.007009
110 0.006985
120 0.005958
129 0.005991
143 0.00596
158 0.006038
148 0.005985
88 0.005969
58 0.005955
57 0.005948
62 0.006012
72 0.006989
79 0.007016
72 0.007007
72 0.006962
81 0.005987
90 0.005991
99 0.006014
105 0.00602
119 0.006012
130 0.006013
149 0.005974
153 0.004989
109 0.005974
81 0.00597
79 0.005982
94 0.006978
107 0.005986
114 0.00598
125 0.006013
131 0.005983
127 0.006015
121 0.005986
113 0.006013
136 0.005944
158 0.005952
177 0.005986
200 0.006018
204 0.00594
161 0.006019
113 0.005971
89 0.006011
90 0.009002
103 0.005993
118 0.00598
122 0.005952
121 0.005958
124 0.005951
129 0.00501
138 0.005039
144 0.005985
157 0.00598
168 0.00602
183 0.006013
190 0.006015
153 0.005965
102 0.006001
73 0.005939
75 0.004997
77 0.004985
84 0.004988
91 0.004985
87 0.005948
92 0.005988
114 0.006003
132 0.006019
130 0.006012
134 0.005989
142 0.005975
152 0.005993
167 0.00494
156 0.004989
119 0.004937
101 0.005002
106 0.005024
129 0.004987
144 0.006028
157 0.006018
160 0.006011
161 0.005988
160 0.005971
158 0.005984
179 0.005032
187 0.004987
202 0.004995
214 0.005013
224 0.005021
223 0.005987
185 0.006024
139 0.00598
126 0.006017
133 0.006018
143 0.005985
153 0.005984
153 0.004968
156 0.004975
153 0.005021
154 0.005019
163 0.005013
167 0.004989
173 0.004989
184 0.006023
190 0.006021
195 0.005974
175 0.006021
133 0.005977
108 0.004999
102 0.004955
104 0.005025
108 0.005013
111 0.004988
111 0.004003
108 0.005024
108 0.006015
112 0.004986
122 0.005983
139 0.006011
148 0.005979
165 0.004991
166 0.005025
145 0.004991
97 0.005022
75 0.005027
84 0.004983
100 0.004994
117 0.00503
126 0.004988
121 0.006011
111 0.005017
109 0.006012
130 0.005015
134 0.004987
156 0.005021
175 0.005016
191 0.005018
200 0.004953
185 0.005028
164 0.005015
117 0.003944
84 0.004987
86 0.005015
117 0.006032
164 0.005016
174 0.005015
161 0.005032
169 0.00396
172 0.004975
165 0.005017
164 0.004025
184 0.004985
199 0.00401
197 0.004025
177 0.003991
131 0.003981
65 0.004986
49 0.005013
59 0.005023
63 0.005024
80 0.005016
118 0.00395
136 0.003942
149 0.003967
158 0.003959
162 0.00395
161 0.00399
168 0.004017
205 0.004026
208 0.004988
184 0.005027
138 0.005019
94 0.004988
92 0.003954
99 0.003972
106 0.003962
116 0.003995
112 0.004028
103 0.003992
110 0.004032
117 0.004014
133 0.004988
146 0.00499
158 0.003986
167 0.004015
157 0.00395
134 0.003994
88 0.003988
65 0.004014
59 0.003991
65 0.003992
71 0.004007
80 0.004028
90 0.004014
98 0.004988
111 0.003964
123 0.003924
122 0.003962
126 0.003962
133 0.004025
145 0.004025
155 0.004005
139 0.003993
102 0.003991
83 0.004016
89 0.004026
111 0.002955
128 0.003961
135 0.003959
140 0.004017
142 0.00399
134 0.00399
139 0.00404
139 0.027873
148 0.0
172 0.00399
173 0.00399
145 0.002994
106 0.002991
92 0.004002
100 0.004003
113 0.004023
119 0.003982
116 0.003991
121 0.003991
129 0.003957
131 0.003961
137 0.003991
151 0.004028
164 0.003988
170 0.002992
172 0.003988
166 0.00399
118 0.004987
85 0.003989
75 0.003961
71 0.003991
73 0.004048
81 0.00399
86 0.003991
84 0.002963
104 0.002988
110 0.003011
119 0.003028
119 0.003011
126 0.003028
125 0.003988
133 0.004055
136 0.003991
118 0.004018
86 0.004026
88 0.004027
94 0.003012
104 0.002946
102 0.002992
109 0.003019
118 0.004017
122 0.004033
141 0.00399
162 0.003991
187 0.003992
207 0.00399
214 0.003965
204 0.003991
133 0.002992
99 0.003029
89 0.003003
93 0.002995
97 0.00304
93 0.00399
93 0.004025
97 0.002981
98 0.003012
104 0.003972
121 0.003986
129 0.003961
129 0.003001
134 0.003028
137 0.003014
132 0.003026
101 0.002994
78 0.00399
87 0.002992
99 0.002942
108 0.002982
119 0.002977
124 0.003997
124 0.003982
118 0.003001
128 0.002983
141 0.003019
155 0.003026
163 0.003015
176 0.002975
165 0.00299
123 0.002977
91 0.002973
84 0.003989
88 0.002957
92 0.003995
99 0.002992
99 0.002995
103 0.002996
99 0.002991
97 0.002998
103 0.002981
129 0.002956
140 0.002938
145 0.002988
150 0.003963
130 0.003954
62 0.003995
38 0.003033
44 0.002991
55 0.002947
51 0.00296
42 0.002994
37 0.002972
33 0.001959
40 0.001967
53 0.002983
71 0.003985
87 0.003946
100 0.002995
117 0.003027
116 0.002994
70 0.002993
30 0.002943
30 0.002955
47 0.001995
54 0.001995
53 0.002969
47 0.002983
39 0.00296
36 0.002013
36 0.002955
56 0.002992
69 0.002984
76 0.002994
87 0.00295
106 0.002953
89 0.001958
45 0.001954
38 0.002992
48 0.002987
58 0.001994
68 0.001995
70 0.001959
55 0.002016
52 0.002989
60 0.002949
69 0.001965
84 0.001964
106 0.001956
127 0.001963
128 0.003006
125 0.002996
101 0.001994
77 0.002027
67 0.001997
91 0.00299
100 0.003036
103 0.001998
101 0.001996
94 0.003025
104 0.0
123 0.002991
126 0.001993
142 0.002029
166 0.001996
171 0.001951
169 0.001959
135 0.002995
89 0.002955
79 0.001966
80 0.001963
99 0.001948
107 0.00299
113 0.001994
106 0.001995
106 0.002
118 0.001991
129 0.001991
149 0.001984
163 0.001974
169 0.001957
175 0.000954
177 0.001994
166 0.001966
167 0.001964
177 0.001969
173 0.001989
179 0.001978
193 0.001989
203 0.001995
211 0.001996
218 0.000968
211 0.000955
218 0.000945
213 0.001963
206 0.001996
193 0.001992
182 0.001994
157 0.002003
116 0.001998
91 0.00198
93 0.002037
106 0.001959
110 0.000991
139 0.000965
152 0.000997
164 0.001013
173 0.001995
176 0.001995
164 0.002001
166 0.00198
171 0.001993
174 0.001967
170 0.001949
137 0.00194
101 0.00097
90 0.000971
100 0.001003
106 0.002029
117 0.001049
132 0.00196
144 0.002032
152 0.001995
157 0.001999
151 0.002
150 0.001983
164 0.001993
188 0.000967
207 0.001989
208 0.000994
173 0.000968
149 0.002036
151 0.002034
159 0.002027
175 0.001989
178 0.001994
168 0.001994
151 0.001953
126 0.001995
133 0.000964
152 0.000998
174 0.001032
188 0.000965
201 0.000937
215 0.001993
192 0.001028
161 0.001966
160 0.001952
161 0.002003
151 0.002019
135 0.001984
136 0.000972
135 0.000997
146 0.001008
172 0.001994
186 0.002006
196 0.000988
227 0.000996
141 0.000977
233 0.001969
218 0.001975
175 0.001983
102 0.000986
83 0.001017
87 0.000967
93 0.002023
110 0.001997
114 0.002028
113 0.000986
117 0.000998
129 0.001001
148 0.001994
152 0.000999
162 0.001983
180 0.001994
176 0.001027
127 0.001993
92 0.001046
88 0.000999
88 0.0
79 0.001002
82 0.001979
88 0.000986
104 0.001032
121 0.001967
133 0.001993
146 0.001998
165 0.000996
165 0.000988
177 0.000945
179 0.000974
158 0.001078
111 0.0
81 0.000997
76 0.001007
74 0.001992
87 0.001977
111 0.002024
134 0.000983
139 0.001027
133 0.001022
136 0.0
111 0.000997
109 0.0
120 0.0
124 0.000998
135 0.0
112 0.0
85 0.001972
64 0.000989
45 0.0
50 0.000945
71 0.000998
92 0.001019
95 0.001026
112 0.0
126 0.0
122 0.001008
96 0.001968
90 0.000997
110 0.001002
139 0.0
152 0.0
103 0.000969
66 0.0
59 0.001005
76 0.0
104 0.0
119 0.000998
140 0.001008
149 0.000994
147 0.000991
159 0.0
174 0.0
178 0.0
163 0.001002
151 0.000981
122 0.0
73 0.0
40 0.0
33 0.0
36 0.0
41 0.001022
54 0.0
62 0.0
59 0.0
60 0.0
79 0.0
111 0.0
137 0.0
154 0.0
177 0.000998
181 0.0
142 0.000994
78 0.0
60 0.0
67 0.0
76 0.0
94 0.0
113 0.001021
115 0.0
115 0.0
114 0.0
120 0.0
134 0.000991
139 0.0
157 0.0
166 0.0
138 0.0
93 0.0
63 0.0
68 0.0
72 0.0
82 0.0
90 0.0
78 0.0
68 0.001
75 0.0
94 0.0
112 0.0
132 0.0
156 0.0
178 0.0
160 0.0
108 0.000997
59 0.0
55 0.000997
59 0.001002
68 0.000997
73 0.000998
65 0.0
61 0.0
70 0.0
80 0.0
85 0.0
90 0.001006
92 0.000984
111 0.001991
111 0.001999
77 0.000997
29 0.0
19 0.001006
31 0.002994
44 0.001961
60 0.0
63 0.0
61 0.0
71 0.001019
79 0.000959
101 0.00095
117 0.000998
144 0.001003
151 0.000963
163 0.00099
165 0.001968
120 0.002024
76 0.0
74 0.0
82 0.0
97 0.000988
94 0.0
91 0.001983
81 0.001978
97 0.001005
109 0.0
107 0.0
118 0.001998
126 0.001985
132 0.0
139 0.000977
142 0.0
73 0.000991
45 0.000972
57 0.001995
73 0.001997
100 0.000999
106 0.0
110 0.000968
105 0.002023
117 0.002024
144 0.001008
142 0.0
148 0.0
163 0.0
163 0.000995
169 0.002027
167 0.002034
134 0.002023
125 0.0
126 0.0
126 0.001995
127 0.002026
140 0.002026
155 0.000992
163 0.0
184 0.0
188 0.000998
190 0.0
194 0.002043
185 0.002023
193 0.0
204 0.0
212 0.0
189 0.002053
139 0.002024
81 0.001025
60 0.000997
78 0.0
94 0.0
112 0.0
135 0.001996
135 0.001995
129 0.0
114 0.0
117 0.0
136 0.002021
163 0.002003
210 0.000971
221 0.00097
168 0.0
147 0.010968
138 0.0
141 0.001991
156 0.002027
163 0.0
161 0.0
147 0.0
130 0.002028
112 0.002033
106 0.0
122 0.001035
132 0.000995
131 0.0
131 0.0
128 0.002024
91 0.002033
40 0.0
37 0.0
46 0.0
59 0.001995
74 0.002035
83 0.0
88 0.0
86 0.000968
94 0.000968
109 0.0
132 0.002037
145 0.00202
163 0.0
181 0.0
177 0.0
135 0.002048
98 0.00203
99 0.0
107 0.00096
124 0.000996
126 0.000958
119 0.001015
126 0.002021
129 0.002022
143 0.0
163 0.0
179 0.0
188 0.002025
197 0.002024
213 0.0
187 0.0
115 0.001001
108 0.001009
123 0.001011
133 0.002962
136 0.002963
129 0.0
120 0.0
115 0.0
115 0.002013
115 0.001993
121 0.0
124 0.0
137 0.000967
151 0.000996
157 0.001006
140 0.002942
91 0.002046
61 0.001005
61 0.0
66 0.0
77 0.002021
85 0.002029
92 0.0
97 0.0
101 0.00097
113 0.001005
120 0.0
126 0.002024
143 0.002022
167 0.0
170 0.0
157 0.0
113 0.00202
90 0.001994
98 0.0
109 0.000962
118 0.0
115 0.0
111 0.0
110 0.002994
114 0.003028
119 0.0
129 0.0
141 0.0
149 0.002003
162 0.00203
170 0.0
135 0.0
72 0.0
71 0.000967
81 0.000967
97 0.002992
111 0.002991
111 0.0
102 0.0
101 0.0
104 0.002047
108 0.002028
116 0.001994
124 0.001981
147 0.000962
150 0.000971
132 0.001976
88 0.003027
54 0.003022
50 0.001987
59 0.002021
69 0.002022
75 0.00302
76 0.001995
78 0.00199
81 0.001996
87 0.0
92 0.001994
102 0.002024
107 0.002992
123 0.003021
142 0.001994
129 0.002006
87 0.0
69 0.003021
64 0.003058
68 0.002002
72 0.001997
79 0.001996
88 0.002039
92 0.001995
98 0.002994
96 0.002977
108 0.002012
115 0.002005
121 0.001968
141 0.002038
152 0.002984
130 0.003042
76 0.002005
52 0.002991
65 0.002017
73 0.001968
78 0.004023
85 0.003025
85 0.003019
93 0.001995
99 0.001995
103 0.002022
110 0.002994
117 0.003032
128 0.001998
146 0.003991
132 0.002009
90 0.002
63 0.001989
60 0.002992
69 0.002993
75 0.001993
79 0.002011
83 0.001995
85 0.003021
90 0.003019
98 0.001996
112 0.003991
123 0.000971
124 0.0
141 0.002
146 0.003034
132 0.002994
88 0.002007
65 0.001995
58 0.001996
56 0.00399
65 0.003989
76 0.001996
82 0.003991
90 0.001994
97 0.001994
104 0.001994
111 0.003023
121 0.003038
141 0.001997
155 0.002972
160 0.002031
144 0.004029
109 0.004
82 0.001993
80 0.003989
87 0.002004
96 0.001985
94 0.001994
98 0.003032
112 0.002991
126 0.001994
129 0.002005
137 0.003031
144 0.004025
153 0.004006
165 0.001987
158 0.004028
102 0.002035
74 0.001998
72 0.001995
75 0.003026
91 0.004016
97 0.001989
96 0.001995
101 0.001989
103 0.00403
104 0.004019
117 0.002022
132 0.00399
153 0.00202
165 0.001981
171 0.002013
160 0.004027
114 0.003027
65 0.002004
66 0.00196
74 0.001994
85 0.004033
98 0.003996
114 0.001967
130 0.004993
148 0.001992
140 0.002031
143 0.001983
161 0.004
170 0.005031
163 0.002016
171 0.001984
161 0.002009
120 0.00403
71 0.004023
50 0.00299
55 0.005047
65 0.003005
74 0.002023
86 0.001989
100 0.004035
108 0.004981
124 0.002019
142 0.001994
160 0.002
174 0.004025
191 0.004018
202 0.002034
161 0.005032
98 0.001995
87 0.002047
87 0.002022
94 0.004027
99 0.005023
103 0.001986
109 0.001994
121 0.001997
135 0.00396
153 0.004018
167 0.001997
183 0.00505
177 0.002997
191 0.002021
194 0.002984
170 0.005038
127 0.00499
111 0.002009
111 0.002036
115 0.001991
114 0.005023
113 0.004038
110 0.001994
109 0.005011
107 0.00199
112 0.002021
117 0.002994
123 0.00502
131 0.004989
142 0.002007
147 0.001994
140 0.001999
118 0.004038
100 0.003982
102 0.001984
101 0.004987
99 0.002962
96 0.00301
100 0.00299
111 0.004973
119 0.005023
132 0.002018
148 0.001997
161 0.001986
166 0.005027
179 0.005024
192 0.001996
149 0.004989
105 0.003007
107 0.002967
122 0.002954
129 0.005034
136 0.005027
132 0.001994
129 0.002025
131 0.002037
140 0.00502
145 0.004982
156 0.001986
164 0.00499
180 0.004987
185 0.002996
175 0.002963
134 0.002991
101 0.005026
97 0.006035
90 0.002005
94 0.001994
98 0.001995
101 0.005986
107 0.005027
125 0.00502
133 0.004988
147 0.002948
148 0.002942
155 0.002963
177 0.004986
202 0.005027
182 0.002997
121 0.00202
86 0.002022
77 0.005022
76 0.005996
91 0.004987
86 0.0
81 0.002936
78 0.002956
81 0.00299
85 0.004985
88 0.00498
103 0.003
119 0.002998
143 0.001997
163 0.004985
156 0.00595
84 0.005957
69 0.005983
80 0.002992
91 0.003005
104 0.002939
112 0.004989
115 0.004989
118 0.003009
119 0.001995
125 0.002971
136 0.005982
150 0.005952
179 0.005945
195 0.005969
179 0.002993
123 0.002987
89 0.002956
87 0.004963
96 0.004988
104 0.003963
101 0.003989
101 0.003987
109 0.006013
124 0.005984
128 0.005948
135 0.005944
134 0.003955
138 0.002978
161 0.002998
177 0.00494
160 0.004985
96 0.002998
76 0.004009
84 0.00303
92 0.005982
90 0.00597
90 0.005978
89 0.005968
79 0.002979
83 0.003
95 0.003001
100 0.005004
111 0.004969
130 0.00398
139 0.003983
140 0.003996
111 0.005984
62 0.005979
43 0.006997
45 0.005983
56 0.002993
66 0.00296
69 0.002992
72 0.005988
82 0.006973
97 0.00396
103 0.003984
116 0.003999
124 0.005987
144 0.005952
169 0.006984
147 0.005972
91 0.003019
74 0.00298
79 0.002964
87 0.006939
94 0.006974
99 0.003989
97 0.003997
93 0.003947
100 0.005976
108 0.00601
117 0.006986
121 0.005975
151 0.002991
168 0.002991
159 0.002983
114 0.006953
74 0.006969
60 0.003985
69 0.003962
72 0.003997
80 0.005993
83 0.006002
94 0.006965
107 0.005977
114 0.004985
127 0.003984
141 0.003988
155 0.006995
165 0.006978
167 0.003993
146 0.003989
83 0.003963
51 0.005986
50 0.005985
64 0.005985
77 0.006031
72 0.00299
77 0.003989
119 0.003987
129 0.006966
122 0.006982
126 0.003972
134 0.003988
140 0.003999
150 0.00598
158 0.005976
103 0.005984
73 0.005984
65 0.004988
69 0.00399
82 0.004992
84 0.006981
84 0.006917
90 0.004994
91 0.003992
99 0.003999
110 0.005931
122 0.005984
137 0.005959
151 0.00598
161 0.004983
143 0.004033
97 0.004994
63 0.00698
62 0.006981
82 0.003979
82 0.003992
88 0.003987
90 0.006994
87 0.005959
103 0.006
107 0.006939
119 0.00399
130 0.004036
140 0.005008
155 0.006979
173 0.007019
141 0.003989
83 0.004042
63 0.004014
65 0.003992
66 0.007014
81 0.00499
75 0.006975
78 0.006972
88 0.004993
90 0.004982
97 0.003993
111 0.006982
126 0.006982
142 0.003978
155 0.003987
167 0.003977
139 0.007976
69 0.005
54 0.006982
52 0.000996
53 0.0
62 0.004967
75 0.004988
82 0.006987
85 0.006974
104 0.004988
108 0.003996
105 0.003991
115 0.007959
141 0.00502
170 0.007957
175 0.00694
152 0.004986
114 0.00499
94 0.004987
90 0.006945
98 0.006934
99 0.004033
103 0.004987
107 0.004984
112 0.00799
98 0.005022
100 0.007939
118 0.007949
137 0.004992
165 0.004975
181 0.004989
188 0.006985
177 0.006986
117 0.004978
94 0.005024
100 0.004995
110 0.00798
119 0.004985
111 0.007952
124 0.007973
132 0.00499
134 0.004984
142 0.004978
149 0.006972
157 0.006964
167 0.004978
183 0.005991
194 0.004991
174 0.007958
87 0.004985
63 0.007953
68 0.007974
98 0.004967
112 0.004997
106 0.004989
109 0.006979
123 0.007978
145 0.005987
156 0.005982
162 0.005024
180 0.007952
178 0.00501
193 0.007977
200 0.007973
171 0.004997
127 0.004994
112 0.005002
107 0.006974
101 0.007971
101 0.005992
107 0.00599
97 0.005984
98 0.007984
94 0.005038
94 0.007974
102 0.007973
110 0.004993
125 0.005006
150 0.004953
158 0.006981
140 0.007977
96 0.005983
76 0.00599
86 0.005974
103 0.007943
107 0.005984
99 0.007976
90 0.006981
82 0.005016
83 0.005003
108 0.00597
136 0.006983
152 0.006989
172 0.005999
178 0.005989
174 0.005928
154 0.007969
61 0.006004
39 0.007958
31 0.007951
37 0.015988
67 0.001998
78 0.00598
67 0.006983
81 0.006979
98 0.005957
104 0.005984
109 0.00599
108 0.007971
127 0.006001
126 0.007976
94 0.007979
48 0.00499
39 0.005987
49 0.005958
51 0.006944
60 0.006921
66 0.005984
62 0.006006
65 0.00598
72 0.00795
73 0.005978
98 0.007952
111 0.007978
137 0.006982
154 0.006014
150 0.00602
80 0.006978
43 0.006985
40 0.005985
52 0.005976
64 0.005985
76 0.00698
83 0.005976
75 0.007986
81 0.007029
95 0.00695
113 0.006987
126 0.005946
150 0.00701
156 0.006952
163 0.006003
140 0.005978
74 0.006019
39 0.006985
57 0.005991
75 0.007021
95 0.006975
96 0.006962
92 0.006956
95 0.006947
101 0.00599
115 0.00694
128 0.006983
142 0.005949
158 0.006027
178 0.005966
161 0.00596
103 0.006978
78 0.006989
72 0.006983
75 0.006975
79 0.006973
84 0.006031
91 0.007012
94 0.006945
89 0.006
81 0.005984
103 0.005989
141 0.005984
155 0.000995
168 0.000971
178 0.007016
140 0.005999
55 0.006954
39 0.00694
40 0.006996
43 0.006976
47 0.005987
61 0.006001
77 0.005987
92 0.005972
100 0.006
113 0.006031
132 0.006011
151 0.006009
178 0.006976
195 0.006024
222 0.006997
181 0.006983
103 0.005984
68 0.005994
76 0.005998
105 0.005989
118 0.005995
106 0.005944
99 0.005992
107 0.005983
121 0.006983
139 0.006981
138 0.007021
149 0.007038
175 0.005933
190 0.005989
210 0.005986
124 0.006011
59 0.005986
44 0.005978
49 0.005966
74 0.005942
66 0.006936
57 0.006986
49 0.006968
43 0.006982
61 0.005999
75 0.005947
81 0.00603
103 0.005954
123 0.00598
140 0.005989
160 0.005979
152 0.005982
88 0.005993
52 0.005984
54 0.005974
70 0.005959
87 0.005985
81 0.005974
79 0.004931
86 0.005969
101 0.005967
115 0.006011
124 0.005983
139 0.006006
155 0.005013
173 0.006011
196 0.006024
208 0.006043
148 0.00593
93 0.005961
78 0.00596
96 0.00597
110 0.005996
113 0.006015
112 0.006003
107 0.005996
109 0.005981
118 0.004994
126 0.004982
132 0.006
157 0.00601
170 0.005991
193 0.005955
208 0.00597
155 0.005981
87 0.005982
57 0.004986
68 0.005971
82 0.004988
91 0.005014
96 0.005026
97 0.005008
93 0.005999
95 0.005983
100 0.004992
113 0.005982
123 0.005986
139 0.006014
155 0.005013
163 0.005027
157 0.004977
120 0.004944
86 0.005017
75 0.004993
97 0.005959
103 0.005971
107 0.00497
112 0.005978
118 0.005974
132 0.006018
140 0.004986
143 0.004942
162 0.004993
183 0.004985
198 0.004987
219 0.006009
223 0.0
169 0.00395
112 0.006027
95 0.005982
105 0.005984
112 0.005017
115 0.005039
126 0.004988
132 0.004971
133 0.004984
132 0.00502
143 0.004992
159 0.004997
173 0.004016
194 0.003958
217 0.005009
194 0.004991
130 0.005015
91 0.004989
94 0.004958
105 0.004981
109 0.004974
108 0.005014
105 0.005012
98 0.004989
100 0.003948
101 0.004031
110 0.004982
122 0.004944
132 0.005047
154 0.005022
178 0.004973
163 0.00498
121 0.004999
91 0.005013
67 0.005017
57 0.02391
43 0.000997
71 0.002989
78 0.004008
86 0.00396
95 0.004985
105 0.005028
118 0.004987
136 0.004985
153 0.004948
176 0.004951
197 0.005024
199 0.005016
148 0.003962
107 0.003989
101 0.004987
119 0.004006
122 0.004003
123 0.004986
131 0.004986
136 0.004981
141 0.004984
149 0.004987
164 0.005024
178 0.004037
186 0.003959
199 0.003991
203 0.003981
155 0.00399
111 0.004032
95 0.004035
93 0.005013
91 0.005026
94 0.005013
96 0.005002
95 0.004985
96 0.004941
94 0.003989
99 0.003989
110 0.00399
118 0.003951
139 0.003988
149 0.003964
147 0.003953
114 0.004993
80 0.004981
82 0.004988
92 0.004951
103 0.004017
122 0.003959
127 0.002987
130 0.004024
138 0.003952
144 0.003947
140 0.004044
149 0.00402
167 0.003953
181 0.003948
196 0.004951
183 0.004987
143 0.003988
105 0.00399
110 0.003989
110 0.003955
124 0.004986
125 0.003989
135 0.00399
148 0.004024
153 0.003964
175 0.003962
179 0.004952
172 0.003977
158 0.003953
189 0.003998
174 0.003991
85 0.004027
31 0.003989
27 0.003941
33 0.005035
38 0.004988
56 0.003986
61 0.003959
63 0.00399
63 0.003989
65 0.004016
78 0.00401
99 0.003011
142 0.003986
155 0.003992
169 0.004014
166 0.003988
127 0.00399
73 0.002989
49 0.003021
40 0.002992
44 0.002992
55 0.003009
59 0.003017
64 0.002961
83 0.003989
96 0.00399
104 0.003988
111 0.003951
111 0.003961
108 0.002991
77 0.003031
23 0.003011
0 0.002993
9 0.00202
38 0.00399
43 0.002953
28 0.00399
31 0.003991
32 0.003986
39 0.002993
58 0.002994
78 0.002994
85 0.003002
108 0.003029
124 0.002992
134 0.003991
100 0.001938
82 0.002946
95 0.003949
105 0.004018
110 0.003017
107 0.003014
114 0.002994
130 0.002994
144 0.003006
163 0.003035
179 0.00302
183 0.001969
215 0.001953
220 0.001964
192 0.00399
161 0.004001
143 0.003986
149 0.002992
160 0.002993
162 0.002995
170 0.002991
169 0.002993
160 0.003991
159 0.001952
172 0.001997
189 0.001943
201 0.002037
213 0.001994
222 0.002992
208 0.002992
178 0.002992
163 0.002991
158 0.002994
161 0.003029
167 0.002992
163 0.001961
180 0.001969
168 0.002031
182 0.003024
194 0.002033
198 0.00205
209 0.003006
226 0.002993
228 0.002992
202 0.003026
175 0.002987
160 0.00301
164 0.002991
168 0.0
166 0.001989
164 0.002042
154 0.001973
160 0.00199
163 0.001996
163 0.002992
170 0.003019
189 0.003009
198 0.003022
191 0.00302
168 0.001952
140 0.001968
126 0.001993
122 0.001997
118 0.003045
113 0.001996
112 0.001996
110 0.002993
107 0.003029
118 0.002992
123 0.002998
133 0.002044
156 0.002023
178 0.001974
177 0.002023
148 0.002025
120 0.002036
112 0.001965
113 0.001962
114 0.002048
116 0.002992
118 0.003023
117 0.003004
118 0.001963
125 0.002059
127 0.00202
135 0.002026
165 0.002024
180 0.001968
161 0.001997
132 0.002024
111 0.00203
103 0.002032
101 0.003028
105 0.002023
101 0.001966
98 0.002021
101 0.002031
107 0.002035
113 0.001994
113 0.001997
124 0.002033
146 0.002026
147 0.002992
125 0.002022
73 0.002024
55 0.002027
52 0.001989
61 0.00201
61 0.001999
57 0.002025
53 0.001995
52 0.001996
53 0.00198
60 0.002015
74 0.002039
81 0.002022
110 0.002011
115 0.001032
93 0.001959
52 0.002028
27 0.002025
24 0.001022
37 0.002031
45 0.002028
41 0.002023
45 0.002
47 0.002023
46 0.001995
57 0.002045
63 0.000997
76 0.001994
90 0.001996
106 0.001994
88 0.002033
21 0.002023
10 0.001997
12 0.002058
18 0.001993
23 0.002022
21 0.013962
25 0.000995
30 0.0
46 0.001995
56 0.002022
68 0.002025
81 0.00097
100 0.001996
108 0.00199
75 0.002024
28 0.002023
18 0.002029
24 0.001991
43 0.000994
49 0.000999
51 0.000995
44 0.001985
43 0.00096
54 0.000989
70 0.002012
93 0.002037
102 0.002023
125 0.00203
141 0.00199
118 0.000998
43 0.000999
16 0.00097
12 0.001004
15 0.002026
26 0.0
30 0.0
29 0.002031
35 0.001979
46 0.00203
60 0.002025
77 0.000998
92 0.000998
112 0.000998
134 0.001995
131 0.001033
98 0.0
50 0.0
31 0.0
53 0.002024
70 0.000991
81 0.002033
79 0.001025
75 0.001028
73 0.001001
85 0.000998
90 0.0
97 0.0
110 0.0
132 0.0
158 0.000999
126 0.001995
63 0.001995
56 0.000998
62 0.000997
64 0.00098
76 0.001027
66 0.001012
47 0.0
51 0.0
63 0.0
68 0.0
89 0.0
115 0.001986
131 0.000997
160 0.0
134 0.0
60 0.0
20 0.000997
30 0.001027
42 0.0
51 0.0
55 0.0
51 0.000997
45 0.0
57 0.00096
65 0.0
78 0.0
90 0.0
113 0.0
134 0.0
146 0.00099
126 0.0
72 0.0
46 0.0
44 0.0
56 0.0
75 0.0
76 0.0
74 0.0
78 0.0
85 0.0
97 0.0
111 0.0
132 0.0
134 0.0
146 0.0
171 0.0
147 0.0
62 0.0
60 0.0
67 0.0
75 0.0
80 0.0
80 0.0
71 0.0
81 0.0
84 0.0
89 0.0
100 0.0
113 0.0
137 0.0
156 0.0
152 0.0
101 0.0
46 0.0
33 0.0
40 0.0
56 0.0
63 0.0
67 0.0
69 0.001039
68 0.0
86 0.0
89 0.0
103 0.0
114 0.0
127 0.0
154 0.0
165 0.0
115 0.0
70 0.0
50 0.0
57 0.0
72 0.0
86 0.0
87 0.0
101 0.0
103 0.0
109 0.0
122 0.0
139 0.0
150 0.0
169 0.000994
191 0.0
201 0.001014
171 0.001031
82 0.0
78 0.0
95 0.0
95 0.0
110 0.0
109 0.0
101 0.000995
103 0.000997
112 0.000956
114 0.0
124 0.001007
143 0.000988
174 0.000958
200 0.000991
195 0.0
147 0.001969
74 0.0
67 0.0
75 0.000952
91 0.003034
94 0.004031
96 0.000948
101 0.000959
103 0.001963
116 0.000952
121 0.001001
138 0.001995
149 0.001972
160 0.0
179 0.0
182 0.000977
150 0.000939
95 0.000952
81 0.000997
89 0.0
92 0.001033
108 0.0
111 0.000963
114 0.001002
127 0.00199
135 0.0
143 0.0
153 0.001994
156 0.002994
172 0.002979
194 0.001003
200 0.002013
190 0.001961
115 0.0
103 0.000954
118 0.001985
128 0.001998
135 0.0
144 0.00097
147 0.000993
156 0.002982
164 0.003013
160 0.0
170 0.000987
180 0.0
203 0.0
221 0.0
214 0.002988
167 0.002987
105 0.001024
105 0.000969
105 0.001978
115 0.002971
120 0.001974
113 0.000988
120 0.0
120 0.0
127 0.000998
133 0.000947
150 0.00297
164 0.002966
187 0.0
196 0.000965
190 0.001976
138 0.001991
111 0.001963
100 0.000999
111 0.0
126 0.001025
129 0.0
134 0.0
143 0.0
155 0.002995
155 0.002986
147 0.0
152 0.001987
157 0.001978
181 0.001999
199 0.002988
193 0.0
166 0.000998
136 0.0
121 0.0
134 0.0
138 0.00299
133 0.003002
129 0.0
135 0.000997
145 0.000961
146 0.002004
150 0.003
162 0.0
172 0.0
196 0.0
185 0.0
145 0.0
98 0.002986
78 0.002986
78 0.00096
83 0.0
90 0.000995
87 0.003002
84 0.001994
86 0.000997
82 0.0
95 0.0
100 0.0
114 0.0
129 0.00297
149 0.002977
144 0.000966
97 0.000963
55 0.001012
48 0.001981
63 0.001993
74 0.000983
83 0.001001
91 0.0
97 0.0
98 0.0
102 0.003027
107 0.002993
127 0.0
140 0.0
152 0.000959
164 0.002992
161 0.001996
103 0.000982
82 0.00102
88 0.0
97 0.0
104 0.0
101 0.002998
100 0.002966
105 0.0
106 0.0
110 0.000994
122 0.00399
132 0.002979
148 0.001007
162 0.000998
165 0.001001
140 0.001992
76 0.0
65 0.002984
70 0.002999
71 0.0
77 0.0
84 0.0
82 0.002994
79 0.003022
93 0.000964
95 0.000969
111 0.001029
119 0.001
133 0.000992
153 0.002986
149 0.002993
92 0.0
68 0.00097
63 0.0
68 0.002989
76 0.003028
88 0.0
95 0.000957
99 0.0
109 0.001001
110 0.000996
108 0.001991
117 0.002011
146 0.0
168 0.0
181 0.0
164 0.002994
114 0.002971
74 0.001006
67 0.0
89 0.001006
99 0.000949
113 0.000984
128 0.001966
136 0.002999
141 0.001009
148 0.0
160 0.0
165 0.002984
178 0.002937
189 0.0
191 0.000997
119 0.000984
75 0.0
68 0.000999
75 0.001997
74 0.001987
78 0.001026
79 0.0
86 0.0
91 0.002992
108 0.002979
138 0.0
142 0.0
158 0.000966
178 0.000998
191 0.000997
181 0.002937
137 0.002989
78 0.0
78 0.0
90 0.0
102 0.002985
114 0.002969
125 0.0
132 0.000962
138 0.0
139 0.0
150 0.000982
160 0.002023
174 0.003938
194 0.0
193 0.000998
157 0.0
102 0.002992
74 0.002988
84 0.0
91 0.0
97 0.0
98 0.0
102 0.0
106 0.00395
108 0.003933
113 0.004974
121 0.0
131 0.002016
151 0.003035
160 0.002986
173 0.003938
100 0.002984
43 0.002992
41 0.0
48 0.000999
58 0.002984
58 0.003986
51 0.003987
56 0.0
62 0.003011
63 0.001976
74 0.003983
95 0.003021
98 0.019909
117 0.000928
143 0.002996
110 0.002987
47 0.000993
12 0.003986
8 0.003955
20 0.002995
27 0.002031
30 0.00202
32 0.003016
36 0.003946
41 0.001998
56 0.002991
71 0.002003
84 0.002996
96 0.002991
118 0.003951
146 0.005025
112 0.003
60 0.002987
30 0.001993
40 0.00402
58 0.003988
69 0.002031
78 0.002977
83 0.002997
89 0.002974
97 0.003003
103 0.004992
118 0.005002
129 0.002964
142 0.002989
169 0.002977
177 0.004986
139 0.004984
66 0.002028
38 0.003983
47 0.002994
54 0.002978
56 0.003019
58 0.004958
51 0.004973
50 0.003005
60 0.003003
66 0.002994
73 0.004957
89 0.004957
109 0.002998
137 0.00396
132 0.002998
75 0.002988
25 0.002992
13 0.004991
9 0.004984
31 0.002994
39 0.002979
44 0.002992
45 0.00498
51 0.004946
67 0.003016
84 0.003947
106 0.002989
127 0.002995
155 0.0
175 0.005016
179 0.005036
125 0.003002
71 0.003021
63 0.002968
