158 0.010928
166 0.004996
177 0.003974
183 0.004984
194 0.004034
186 0.005962
128 0.006001
64 0.004986
51 0.005026
51 0.005019
49 0.005027
51 0.004945
63 0.005952
73 0.004986
79 0.004961
83 0.004983
86 0.005948
96 0.005982
107 0.005994
119 0.004987
130 0.004986
143 0.004983
149 0.004986
155 0.005029
161 0.00598
171 0.005986
179 0.005029
145 0.004983
88 0.005955
55 0.006953
47 0.006953
53 0.005979
55 0.00595
70 0.004986
76 0.005983
85 0.00598
87 0.005994
89 0.006019
98 0.005984
111 0.005959
122 0.005985
132 0.006094
140 0.007018
147 0.006982
157 0.006017
167 0.005984
152 0.00597
99 0.006033
59 0.005984
50 0.006992
53 0.006981
55 0.005979
58 0.005984
67 0.006033
82 0.006951
89 0.006981
91 0.006981
101 0.006981
114 0.006016
121 0.006981
136 0.005936
144 0.006982
151 0.007029
162 0.006018
169 0.006017
175 0.005979
183 0.007979
192 0.007977
170 0.007012
74 0.007989
57 0.006969
47 0.007012
46 0.006969
42 0.007013
42 0.006993
55 0.007028
70 0.006982
78 0.006029
80 0.006981
85 0.007979
96 0.006982
111 0.007929
124 0.007011
135 0.00701
141 0.006993
148 0.007979
156 0.007979
163 0.007939
170 0.007978
178 0.007978
190 0.007978
182 0.007932
104 0.006981
53 0.008008
46 0.006983
48 0.006977
46 0.006981
48 0.007979
64 0.007979
72 0.007013
76 0.007972
81 0.007015
87 0.007978
99 0.008002
107 0.007979
126 0.007979
141 0.007937
144 0.007988
157 0.007968
161 0.007979
170 0.007979
179 0.006982
135 0.007013
77 0.006983
50 0.007019
47 0.006981
53 0.006982
60 0.007012
69 0.006996
85 0.006984
90 0.006953
91 0.006994
93 0.007981
102 0.00698
117 0.007013
128 0.00698
139 0.006955
147 0.007009
154 0.007019
168 0.006973
175 0.006942
187 0.006982
174 0.006981
114 0.006023
64 0.006016
47 0.006027
48 0.006023
50 0.006029
51 0.00602
59 0.006981
69 0.007015
81 0.007045
85 0.006967
97 0.006982
107 0.00695
120 0.006981
132 0.006974
141 0.005981
152 0.005955
161 0.00595
169 0.005947
175 0.005973
183 0.005943
198 0.005984
195 0.006016
117 0.006962
68 0.006026
53 0.006032
52 0.005985
52 0.006034
51 0.006016
60 0.006028
72 0.006026
82 0.006017
87 0.005984
94 0.006019
105 0.005978
119 0.005984
130 0.005036
140 0.006025
147 0.005984
155 0.006038
166 0.005976
174 0.005957
182 0.006027
191 0.005984
200 0.005982
146 0.004986
88 0.004987
61 0.004987
57 0.005019
58 0.004987
57 0.005971
61 0.00498
73 0.004987
87 0.00599
91 0.006019
94 0.005984
100 0.006017
118 0.006024
129 0.004986
138 0.005034
151 0.005034
158 0.004987
167 0.005029
174 0.004978
182 0.005017
194 0.005022
200 0.004987
166 0.005029
104 0.004011
67 0.004016
70 0.004991
75 0.004987
80 0.005029
89 0.005028
101 0.005019
107 0.00502
107 0.004004
111 0.005027
118 0.005027
128 0.005025
138 0.003989
151 0.004019
160 0.004022
167 0.00399
176 0.004027
183 0.004031
190 0.003989
163 0.004988
104 0.004989
61 0.004041
60 0.004998
66 0.004025
71 0.005026
84 0.005028
96 0.00403
102 0.004032
103 0.003991
107 0.00399
115 0.004023
126 0.003972
136 0.003981
149 0.003958
157 0.00399
163 0.003991
170 0.00397
181 0.003957
189 0.003991
190 0.002993
124 0.002993
71 0.003991
48 0.003989
45 0.002999
47 0.004005
47 0.004028
54 0.00399
67 0.004
72 0.011968
82 0.0
90 0.003035
98 0.00303
109 0.003
124 0.004015
131 0.002993
141 0.002992
148 0.003025
157 0.00303
166 0.00295
173 0.002994
181 0.00302
179 0.002995
123 0.002993
65 0.002995
41 0.003034
36 0.002992
34 0.00303
34 0.001994
41 0.002021
55 0.003037
72 0.002994
78 0.003024
82 0.002997
95 0.003006
106 0.003594
118 0.002992
130 0.002025
142 0.002992
150 0.002
159 0.003029
166 0.002993
172 0.003021
185 0.002992
192 0.003047
200 0.002992
146 0.003022
82 0.002993
50 0.002992
45 0.002992
47 0.00198
50 0.001994
55 0.001996
67 0.001995
78 0.002036
84 0.00203
85 0.001995
91 0.001995
109 0.002034
122 0.002031
133 0.000996
142 0.001995
151 0.001995
158 0.001993
165 0.001996
174 0.001968
182 0.00204
153 0.002055
91 0.002011
55 0.001997
53 0.001955
61 0.001026
66 0.001995
74 0.00199
91 0.001017
96 0.001047
97 0.000997
99 0.000998
107 0.000963
117 0.000998
133 0.000997
144 0.000965
159 0.001008
166 0.000998
172 0.000983
178 0.000998
187 0.000998
173 0.001995
111 0.001951
62 0.002
47 0.000998
49 0.00101
55 0.000998
59 0.000992
76 0.000952
87 0.001026
92 0.000997
94 0.000998
100 0.000997
111 0.000997
123 0.000998
133 0.000997
142 0.0
151 0.0
162 0.0
169 0.000956
182 0.0
190 0.000997
197 0.0
170 0.0
104 0.000987
50 0.000997
45 0.000998
47 0.000987
47 0.0
48 0.000997
64 0.000998
78 0.000957
88 0.0
92 0.0
99 0.0
111 0.000998
122 0.0
136 0.0
147 0.0
154 0.0
160 0.0
168 0.0
176 0.0
183 0.0
195 0.0
199 0.0
161 0.0
94 0.0
55 0.0
52 0.000998
56 0.001009
60 0.0
63 0.0
76 0.0
88 0.0
90 0.0
93 0.0
102 0.0
113 0.0
129 0.0
138 0.0
144 0.0
151 0.000998
157 0.000997
168 0.0
176 0.0
177 0.0
132 0.001007
52 0.0
45 0.0
52 0.000998
60 0.000997
66 0.000998
79 0.001052
94 0.000999
96 0.014928
95 0.0
96 0.0
141 0.0
149 0.001995
155 0.002046
166 0.000998
173 0.0
179 0.000992
172 0.000998
113 0.000972
57 0.000965
36 0.000997
41 0.0
45 0.001023
52 0.0
64 0.002001
78 0.002012
86 0.000998
87 0.000998
93 0.001028
105 0.001988
116 0.001995
132 0.001035
142 0.001036
147 0.000998
158 0.001005
167 0.001032
178 0.002031
184 0.001995
194 0.002026
164 0.001027
94 0.000997
46 0.001995
33 0.002029
36 0.001035
37 0.001046
39 0.00103
50 0.001994
74 0.002031
81 0.002992
86 0.002035
91 0.002028
100 0.00202
113 0.00202
129 0.002019
140 0.00202
150 0.002027
158 0.002043
167 0.001032
175 0.00202
188 0.000957
197 0.002997
203 0.003025
160 0.002992
73 0.001995
45 0.001996
44 0.002028
51 0.002027
55 0.002992
60 0.001994
73 0.002038
85 0.001996
91 0.00203
93 0.003034
102 0.002991
112 0.003028
125 0.003046
139 0.00199
147 0.002019
156 0.002027
163 0.002992
172 0.003009
178 0.002986
186 0.002995
103 0.001998
67 0.003025
46 0.002992
55 0.002992
67 0.002035
74 0.002034
87 0.002033
98 0.003037
103 0.00303
103 0.002031
107 0.003017
116 0.002991
138 0.003023
149 0.001994
159 0.002995
167 0.003979
175 0.00299
183 0.003026
192 0.003028
186 0.004022
126 0.003999
56 0.002996
45 0.003027
50 0.002975
60 0.003036
66 0.002995
79 0.00396
91 0.003989
96 0.002943
99 0.002991
105 0.002943
115 0.003989
127 0.004006
142 0.002992
152 0.004006
160 0.004007
171 0.003981
177 0.004022
187 0.004026
194 0.00399
192 0.003999
113 0.002992
60 0.003031
42 0.003989
43 0.004022
48 0.004023
50 0.003991
60 0.00399
84 0.003992
93 0.004021
96 0.004026
100 0.004987
109 0.005029
126 0.004016
138 0.004022
149 0.004034
159 0.006015
168 0.004987
176 0.003989
181 0.003973
198 0.004026
202 0.005024
210 0.004987
216 0.004951
174 0.004988
82 0.003993
54 0.003977
53 0.003999
60 0.004986
61 0.004853
68 0.004014
82 0.005002
97 0.00498
98 0.005028
100 0.005023
109 0.005028
121 0.005028
135 0.003968
144 0.005027
155 0.003993
161 0.004979
168 0.005038
179 0.004998
186 0.004985
194 0.004982
152 0.005019
88 0.004983
56 0.006021
55 0.005984
66 0.005031
75 0.004984
78 0.021941
84 0.0
129 0.002004
143 0.005022
152 0.00602
159 0.005981
170 0.005023
177 0.005028
185 0.005033
176 0.005992
119 0.006974
55 0.005962
46 0.005986
59 0.006016
63 0.006018
67 0.006015
85 0.006032
94 0.005984
98 0.00602
100 0.004984
107 0.004991
118 0.007016
131 0.006979
141 0.007019
153 0.006018
164 0.007018
173 0.006015
180 0.006019
187 0.006035
183 0.006982
123 0.006981
49 0.00602
35 0.006016
35 0.007031
40 0.006981
40 0.007001
52 0.005729
71 0.007012
79 0.007013
84 0.006014
89 0.006023
100 0.007011
114 0.006982
128 0.006018
139 0.005986
149 0.006024
157 0.007024
165 0.007028
176 0.006987
186 0.007979
161 0.006977
93 0.00698
50 0.007013
41 0.00795
46 0.00798
49 0.007018
52 0.007021
58 0.00702
79 0.007008
90 0.00702
93 0.007022
104 0.007967
117 0.006966
128 0.007009
140 0.007012
152 0.007986
161 0.007941
167 0.007022
175 0.007007
180 0.007027
191 0.00797
200 0.007984
192 0.006007
89 0.007037
59 0.007974
57 0.007942
69 0.006979
75 0.007016
84 0.007018
97 0.008014
108 0.007056
110 0.006974
111 0.007936
115 0.007966
127 0.006979
145 0.007979
159 0.006988
167 0.00703
175 0.007028
182 0.006982
189 0.006981
197 0.006972
206 0.007016
177 0.007028
114 0.006977
73 0.007018
67 0.006947
79 0.006945
84 0.006977
95 0.007029
107 0.007018
115 0.00697
117 0.007017
119 0.00702
131 0.007015
141 0.006969
153 0.00695
164 0.007975
173 0.00599
184 0.006017
192 0.006028
200 0.006081
208 0.005986
213 0.006018
219 0.006028
227 0.007018
201 0.006981
129 0.006972
80 0.006932
67 0.006965
71 0.006994
71 0.007013
74 0.007042
93 0.006028
105 0.005984
111 0.006025
113 0.005951
119 0.005943
130 0.006011
143 0.005979
153 0.00599
164 0.005984
171 0.005981
183 0.006025
191 0.006015
201 0.005984
207 0.00502
214 0.004975
222 0.006018
165 0.005985
174 0.005945
107 0.004987
75 0.004998
71 0.004999
75 0.004972
78 0.005022
84 0.00498
103 0.005991
110 0.00602
112 0.005984
116 0.005984
124 0.005992
139 0.005984
151 0.00599
159 0.005943
168 0.004968
175 0.005025
186 0.004955
194 0.005031
202 0.005089
208 0.005026
216 0.004987
225 0.005022
228 0.010971
212 0.000997
72 0.004976
82 0.004973
90 0.004986
99 0.005029
109 0.004087
112 0.004018
112 0.003991
113 0.004031
120 0.00403
131 0.004028
146 0.003956
155 0.004993
162 0.004984
169 0.005019
179 0.005009
186 0.005015
193 0.005039
165 0.004029
102 0.004026
61 0.00403
52 0.004055
58 0.004084
67 0.003989
72 0.00399
84 0.003998
96 0.003957
99 0.004022
101 0.004023
107 0.004026
121 0.003991
133 0.00402
142 0.004021
151 0.002961
159 0.003952
166 0.003973
172 0.002925
180 0.00299
186 0.002944
196 0.003032
201 0.003989
164 0.004038
73 0.004023
40 0.004022
37 0.003981
39 0.004017
38 0.003986
42 0.003948
56 0.003989
68 0.003954
74 0.003987
79 0.004025
87 0.003992
99 0.004027
113 0.004021
125 0.004021
134 0.004027
144 0.004
151 0.004045
158 0.003946
168 0.003994
176 0.003982
182 0.002958
196 0.002993
198 0.003032
148 0.002992
78 0.002991
39 0.002996
40 0.003001
44 0.003008
43 0.002983
47 0.003991
64 0.002959
74 0.001995
78 0.001978
83 0.001995
92 0.002993
104 0.002992
117 0.003012
131 0.003017
139 0.003008
146 0.002992
153 0.002925
161 0.002993
171 0.00295
180 0.002046
172 0.001974
73 0.00203
41 0.002028
38 0.002039
46 0.001985
53 0.001994
62 0.002992
74 0.002993
83 0.001989
85 0.001993
86 0.002994
92 0.002966
104 0.001994
124 0.001995
133 0.001996
140 0.001995
149 0.001995
158 0.001995
163 0.002027
171 0.002033
180 0.001992
186 0.000998
136 0.002002
69 0.000997
33 0.001007
31 0.001031
35 0.001002
35 0.000997
43 0.001994
62 0.00199
72 0.002028
77 0.002026
80 0.001984
87 0.002006
104 0.00199
115 0.000997
125 0.001963
139 0.000997
147 0.000998
156 0.000998
164 0.000997
169 0.000998
179 0.000997
188 0.000961
195 0.000953
202 0.000966
210 0.000996
223 0.000992
231 0.001013
179 0.000997
98 0.000999
54 0.000997
43 0.000998
44 0.000997
44 0.000994
47 0.000994
56 0.0
68 0.000998
77 0.00101
80 0.000998
86 0.000956
104 0.000998
117 0.00101
129 0.000999
139 0.000996
149 0.000985
160 0.000997
166 0.000997
174 0.000996
182 0.0
190 0.0
200 0.0
209 0.0
225 0.0
224 0.0
159 0.0
89 0.0
60 0.000997
61 0.000965
68 0.000958
72 0.0
78 0.0
90 0.0
97 0.0
105 0.0
114 0.0
125 0.0
139 0.0
154 0.0
162 0.001009
169 0.0
177 0.0
185 0.0
194 0.0
204 0.000973
211 0.000999
130 0.0
71 0.0
51 0.0
55 0.0
63 0.0
69 0.001029
79 0.000989
93 0.0
100 0.0
102 0.0
104 0.00101
110 0.001004
130 0.000948
142 0.000995
153 0.000998
165 0.0
173 0.0
177 0.0
189 0.0
197 0.0
204 0.0
215 0.0
223 0.0
202 0.00099
77 0.0
45 0.000998
41 0.001035
44 0.0
46 0.0
52 0.0
65 0.000997
77 0.000985
86 0.0
88 0.001018
94 0.001023
104 0.000984
127 0.0
141 0.001002
150 0.001034
164 0.0
172 0.001015
179 0.0
187 0.000999
195 0.000994
208 0.000999
215 0.000991
220 0.000973
160 0.001966
51 0.001032
38 0.001995
43 0.001995
51 0.001039
55 0.000998
67 0.000998
80 0.002005
88 0.001024
90 0.000966
93 0.000999
100 0.00099
114 0.001992
134 0.000945
145 0.001995
152 0.001995
162 0.001
169 0.001014
178 0.001038
188 0.001997
193 0.001964
110 0.001996
50 0.001997
29 0.001989
33 0.002025
48 0.002027
54 0.002026
67 0.001994
80 0.001037
83 0.001058
84 0.001021
89 0.000996
100 0.003002
113 0.003007
130 0.001994
141 0.001996
149 0.001986
163 0.002031
170 0.002048
178 0.002993
187 0.003004
198 0.002028
177 0.002029
97 0.001957
37 0.003991
17 0.002987
22 0.001996
24 0.001994
24 0.001995
44 0.002002
58 0.00203
65 0.002992
68 0.002992
76 0.002032
87 0.001998
101 0.002993
114 0.004021
126 0.003989
142 0.002987
151 0.002991
161 0.002965
174 0.002037
182 0.002986
190 0.002992
158 0.002992
56 0.003005
19 0.001951
15 0.002988
21 0.003992
24 0.003999
29 0.002999
44 0.002977
59 0.003013
69 0.003039
72 0.002034
82 0.004024
94 0.004022
107 0.003027
122 0.002986
130 0.00298
139 0.003994
147 0.003985
159 0.002989
169 0.003025
156 0.003004
52 0.003019
23 0.002998
24 0.004023
36 0.004986
45 0.003989
54 0.003994
71 0.003989
80 0.004986
83 0.004981
86 0.002985
95 0.002993
106 0.002986
127 0.003027
139 0.002993
148 0.003994
155 0.005038
163 0.004986
172 0.003984
182 0.003977
188 0.003974
148 0.00499
71 0.005021
38 0.001964
23 0.003004
29 0.004025
30 0.002985
43 0.004028
59 0.004974
71 0.004987
76 0.003979
81 0.003992
91 0.003986
103 0.004977
118 0.005067
133 0.003963
142 0.003995
157 0.003984
165 0.003987
173 0.003978
181 0.005018
188 0.004985
200 0.003994
204 0.003988
157 0.003987
79 0.005984
35 0.005984
28 0.004987
30 0.004988
29 0.005019
40 0.005045
59 0.005025
73 0.006018
78 0.005984
84 0.004978
94 0.003965
108 0.005004
121 0.005983
136 0.005986
150 0.004985
158 0.005018
172 0.005995
181 0.005033
189 0.005021
196 0.005984
207 0.006026
206 0.005951
138 0.005965
71 0.00597
47 0.005972
51 0.005977
59 0.004952
62 0.004988
81 0.005018
92 0.00499
96 0.004987
97 0.006036
102 0.006933
115 0.005987
128 0.006013
141 0.005988
151 0.007033
160 0.005977
167 0.006981
177 0.006016
188 0.007016
201 0.006025
198 0.004968
139 0.005025
74 0.007002
49 0.007032
52 0.005022
59 0.006004
60 0.006023
68 0.007004
85 0.006994
101 0.005989
105 0.007018
112 0.005995
124 0.005971
139 0.005969
150 0.007019
160 0.007014
174 0.006036
182 0.006019
189 0.007016
201 0.007948
208 0.007987
214 0.005982
225 0.007014
200 0.006
122 0.005989
67 0.006019
53 0.007983
57 0.007977
56 0.006976
56 0.00702
70 0.007011
95 0.007971
104 0.007969
108 0.006992
116 0.007948
136 0.007016
148 0.00695
157 0.00602
172 0.007975
177 0.007984
188 0.006997
196 0.006983
204 0.006985
213 0.007977
222 0.007957
185 0.006981
244 0.007982
224 0.007018
144 0.007016
83 0.007014
69 0.006974
74 0.006985
76 0.00698
79 0.006982
90 0.00698
107 0.007955
114 0.007966
116 0.007021
119 0.006022
133 0.007012
146 0.007024
162 0.007016
171 0.006963
179 0.006981
190 0.006976
196 0.006956
204 0.006983
211 0.006982
222 0.006986
185 0.006984
238 0.006981
192 0.007978
86 0.007006
72 0.007015
76 0.007003
83 0.006972
86 0.006984
97 0.007001
111 0.006971
119 0.006992
122 0.006985
126 0.006966
137 0.006977
151 0.007016
166 0.007013
176 0.006016
185 0.005948
189 0.009972
201 0.005984
209 0.005976
217 0.006979
225 0.006984
231 0.006998
239 0.007029
180 0.006941
132 0.007012
103 0.007017
100 0.006015
103 0.005969
104 0.005983
105 0.005974
111 0.005993
119 0.005984
122 0.005963
124 0.005995
126 0.005966
132 0.005989
140 0.007014
147 0.006019
151 0.00596
156 0.005991
160 0.005985
163 0.005982
168 0.005978
171 0.005983
175 0.005985
180 0.005961
178 0.005975
133 0.006168
102 0.00503
100 0.005017
104 0.004968
106 0.004987
109 0.005999
114 0.00598
120 0.005952
121 0.005986
121 0.00598
123 0.005984
127 0.005988
134 0.005962
142 0.006027
148 0.00602
152 0.005981
154 0.004992
157 0.004991
162 0.005024
166 0.004989
158 0.004979
123 0.00502
98 0.004973
90 0.004989
92 0.004977
98 0.00502
102 0.005033
110 0.005027
114 0.004988
114 0.005025
115 0.005032
118 0.004966
125 0.004991
130 0.004995
136 0.004946
141 0.004992
145 0.004988
151 0.004987
167 0.005024
174 0.004982
180 0.004971
186 0.004965
173 0.004973
121 0.004989
70 0.004983
63 0.004988
64 0.004024
65 0.003973
66 0.00402
78 0.004047
87 0.004029
91 0.003989
93 0.004949
99 0.003982
105 0.004993
113 0.004999
125 0.004953
132 0.003989
138 0.00399
144 0.003958
151 0.00395
160 0.004047
166 0.004023
174 0.002983
152 0.002992
100 0.003958
66 0.002958
57 0.003996
62 0.003032
64 0.002991
66 0.003579
75 0.004019
85 0.003988
92 0.003959
93 0.004017
100 0.00395
109 0.002976
118 0.002994
126 0.002993
133 0.003051
140 0.003002
146 0.003012
151 0.002993
157 0.002965
164 0.002993
137 0.003032
88 0.002992
62 0.003957
62 0.004012
68 0.003958
72 0.004004
78 0.002993
88 0.002975
96 0.002997
97 0.002989
98 0.003
102 0.002992
116 0.003991
125 0.003001
132 0.003984
140 0.00396
146 0.002991
150 0.002991
156 0.002992
161 0.002993
169 0.002992
168 0.002993
128 0.002874
79 0.003004
53 0.003039
58 0.002975
62 0.003003
64 0.003022
74 0.002976
84 0.002033
89 0.001975
91 0.001993
95 0.002994
103 0.001991
111 0.001991
119 0.001957
123 0.0
137 0.001995
143 0.00196
150 0.003006
155 0.002987
160 0.001996
165 0.001989
170 0.001995
172 0.001956
130 0.001992
79 0.001964
56 0.002039
57 0.001996
59 0.000985
60 0.000959
73 0.001994
84 0.001996
92 0.001994
96 0.001995
100 0.001992
107 0.001996
114 0.001992
125 0.002013
134 0.00197
145 0.001995
150 0.000959
153 0.000985
161 0.001009
167 0.001009
173 0.000965
180 0.001963
186 0.001976
140 0.001039
90 0.001978
67 0.000998
67 0.001035
74 0.00105
75 0.000994
81 0.000992
92 0.001019
100 0.001031
102 0.00103
104 0.000961
111 0.000966
121 0.000996
134 0.000992
141 0.000991
146 0.001006
154 0.000998
158 0.002009
163 0.001017
170 0.000997
176 0.000965
170 0.000965
124 0.000971
80 0.000999
66 0.000959
74 0.000954
80 0.001005
83 0.000997
97 0.001005
105 0.001001
106 0.00096
106 0.000962
112 0.0
121 0.0
130 0.0
137 0.0
145 0.0
152 0.0
157 0.0
162 0.0
170 0.0
177 0.0
169 0.0
120 0.0
68 0.0
60 0.0
64 0.0
68 0.0
69 0.0
79 0.0
90 0.0
97 0.0
100 0.0
106 0.0
115 0.001001
121 0.00096
133 0.001018
140 0.001997
149 0.0
155 0.0
161 0.0
165 0.000991
170 0.000977
179 0.0
166 0.000998
94 0.0
64 0.0
59 0.0
63 0.000995
64 0.000998
65 0.000942
76 0.0
88 0.0
95 0.0
98 0.000995
101 0.000994
113 0.000996
123 0.000964
135 0.0
142 0.0
148 0.0
154 0.001003
159 0.000993
166 0.0
172 0.0
176 0.0
151 0.001016
98 0.000975
63 0.000978
67 0.000996
75 0.0
77 0.0
84 0.0
96 0.001002
103 0.001963
103 0.000998
105 0.001009
112 0.000963
121 0.002
130 0.001995
143 0.001998
150 0.002
156 0.001005
160 0.000999
166 0.000965
172 0.000993
176 0.001005
129 0.00097
82 0.000966
62 0.000995
63 0.001995
70 0.00199
75 0.001998
85 0.001938
98 0.000999
102 0.001982
105 0.001959
107 0.001995
114 0.001995
127 0.001007
136 0.001
143 0.000966
150 0.001983
155 0.001982
164 0.001986
169 0.00201
175 0.001014
181 0.001004
187 0.000977
168 0.001996
111 0.001992
66 0.001962
62 0.001946
65 0.001945
66 0.002992
69 0.002981
85 0.002993
95 0.003003
101 0.001008
104 0.000994
109 0.00099
117 0.000998
127 0.001988
136 0.001988
145 0.001996
152 0.001991
158 0.001963
163 0.003001
171 0.001969
176 0.002994
183 0.002993
182 0.001945
137 0.001999
88 0.001955
69 0.003996
71 0.00399
76 0.001995
80 0.001997
85 0.001964
97 0.002986
108 0.001987
108 0.002999
110 0.003013
119 0.001992
130 0.00205
138 0.002007
146 0.00399
152 0.003985
158 0.003023
163 0.001993
166 0.002993
170 0.004021
180 0.002993
182 0.003981
149 0.003058
83 0.001991
68 0.001996
72 0.001998
79 0.003008
82 0.004
91 0.002991
103 0.002996
109 0.003007
111 0.003989
115 0.003
122 0.00399
131 0.003993
143 0.002976
150 0.001984
156 0.002974
161 0.005005
166 0.00501
172 0.002967
176 0.002994
181 0.002992
186 0.003989
194 0.002999
161 0.003995
102 0.003988
68 0.00291
70 0.002991
74 0.003989
75 0.004996
78 0.004952
90 0.003988
99 0.002999
104 0.003992
106 0.005028
114 0.003006
123 0.004978
132 0.004812
141 0.00499
151 0.002974
157 0.003044
162 0.002995
167 0.003991
172 0.004986
178 0.002
184 0.002982
188 0.003987
197 0.003978
189 0.003991
134 0.004986
85 0.005004
68 0.00396
71 0.003992
75 0.003991
76 0.004987
82 0.004991
97 0.004971
104 0.004985
108 0.003982
114 0.003976
120 0.004009
129 0.004994
140 0.004987
150 0.003938
157 0.003993
163 0.004003
168 0.004993
173 0.005987
180 0.004986
184 0.004987
189 0.005051
200 0.005022
193 0.004972
138 0.005962
90 0.006003
75 0.004973
81 0.004993
88 0.003997
90 0.005985
97 0.00499
109 0.004998
112 0.004992
113 0.004984
118 0.004989
126 0.004986
136 0.005979
145 0.006016
156 0.004957
161 0.004946
165 0.004985
169 0.005966
173 0.006014
181 0.00501
186 0.004993
161 0.004984
83 0.004967
71 0.003973
76 0.007051
83 0.007016
91 0.004996
100 0.004984
108 0.004992
113 0.005983
113 0.007002
114 0.004993
121 0.005949
131 0.00599
145 0.004992
153 0.004989
159 0.00498
165 0.006989
170 0.007013
176 0.004988
182 0.004989
188 0.005008
160 0.007982
103 0.007973
69 0.005984
62 0.005991
67 0.005016
67 0.005989
70 0.004997
81 0.007015
91 0.007011
95 0.005024
96 0.005027
101 0.005019
112 0.007984
117 0.007951
128 0.006015
136 0.006017
145 0.005982
149 0.005982
154 0.005986
160 0.007015
165 0.007022
172 0.00599
157 0.006004
103 0.006997
62 0.007968
51 0.007975
55 0.006983
56 0.007011
63 0.006976
75 0.005995
85 0.005981
90 0.007977
92 0.00796
98 0.005983
107 0.005985
119 0.006967
128 0.006992
134 0.007994
139 0.006985
143 0.006979
149 0.007028
155 0.006985
160 0.00702
164 0.00797
115 0.007968
70 0.00696
55 0.00699
61 0.006975
67 0.007198
69 0.006937
80 0.007002
86 0.006992
94 0.006988
94 0.006974
99 0.006974
106 0.006968
116 0.006999
125 0.006991
133 0.006981
137 0.005966
144 0.006977
149 0.007999
155 0.006029
147 0.006953
74 0.006987
54 0.006985
60 0.00694
68 0.006974
71 0.006981
78 0.00698
93 0.006983
97 0.006985
96 0.006979
99 0.005974
105 0.006017
116 0.006018
128 0.005967
137 0.005997
144 0.005984
149 0.007013
153 0.006989
157 0.006982
165 0.006945
157 0.006982
108 0.005988
64 0.005977
48 0.006018
50 0.006016
51 0.005991
55 0.00599
66 0.006005
77 0.005977
83 0.005988
85 0.004977
92 0.005984
100 0.004988
111 0.005996
119 0.005981
126 0.006016
136 0.006014
144 0.005982
151 0.005987
156 0.005985
163 0.00598
165 0.005987
128 0.005983
64 0.005984
49 0.004977
50 0.004985
52 0.004989
52 0.004985
60 0.005023
78 0.005968
88 0.005995
91 0.005994
96 0.005979
105 0.005989
115 0.005983
124 0.004972
135 0.004983
142 0.004979
148 0.005022
154 0.005021
159 0.004979
168 0.004986
176 0.004992
184 0.004969
168 0.004987
112 0.004979
73 0.003984
62 0.003989
70 0.004994
72 0.004978
74 0.005027
83 0.005024
95 0.004988
102 0.004931
103 0.004993
110 0.004985
119 0.005024
128 0.004979
136 0.00399
144 0.004025
152 0.003988
157 0.003991
162 0.004027
168 0.00402
174 0.004034
181 0.003996
145 0.003992
80 0.004949
65 0.002992
68 0.002993
73 0.004026
76 0.003989
84 0.004034
96 0.003985
104 0.004029
106 0.004043
107 0.003987
119 0.003984
128 0.004009
141 0.00398
149 0.003996
155 0.003982
162 0.003028
168 0.003025
174 0.003042
180 0.002989
186 0.004029
191 0.004043
198 0.00403
167 0.003957
105 0.003988
67 0.003987
66 0.003976
69 0.003979
70 0.002985
71 0.00296
85 0.00299
96 0.003
102 0.002991
105 0.003027
109 0.002992
124 0.003972
134 0.004007
146 0.003984
154 0.003988
162 0.002983
168 0.002978
174 0.003017
179 0.00296
188 0.002957
194 0.002992
200 0.002959
208 0.003024
167 0.00299
105 0.004005
74 0.002986
71 0.004153
76 0.003989
75 0.002987
80 0.00396
90 0.002038
102 0.003053
106 0.001995
109 0.002029
114 0.001995
129 0.002003
138 0.001991
147 0.002951
160 0.003002
166 0.003002
173 0.001995
180 0.001989
187 0.002994
196 0.00298
203 0.002992
212 0.003023
220 0.003025
219 0.002991
153 0.002991
96 0.001995
77 0.001996
82 0.001992
87 0.001996
90 0.001995
98 0.002029
108 0.001995
111 0.001988
109 0.001995
109 0.001996
120 0.001981
128 0.001992
138 0.002
149 0.001998
155 0.001029
162 0.000958
168 0.001001
175 0.001998
185 0.001995
186 0.001982
136 0.001995
81 0.001995
59 0.001995
66 0.001964
72 0.001942
79 0.000966
90 0.000973
98 0.000999
98 0.000999
98 0.000966
104 0.000998
110 0.000997
118 0.000964
127 0.000997
141 0.001978
148 0.001955
155 0.001991
164 0.000958
170 0.000989
177 0.000998
185 0.000998
171 0.000996
106 0.000998
51 0.000992
43 0.000998
46 0.000998
49 0.000963
54 0.001997
65 0.001
74 0.001005
80 0.0
83 0.000968
89 0.001001
99 0.001033
110 0.000998
122 0.000997
131 0.000997
140 0.000998
150 0.000963
156 0.000963
163 0.0
171 0.0
162 0.0
106 0.0
62 0.0
50 0.0
53 0.0
61 0.0
64 0.0
71 0.0
88 0.0
92 0.001008
93 0.000951
98 0.0
108 0.0
118 0.0
127 0.0
136 0.0
142 0.0
150 0.0
156 0.0
162 0.0
174 0.0
151 0.0
84 0.000994
66 0.001003
61 0.001964
69 0.002001
74 0.000996
79 0.00095
89 0.000998
99 0.002036
98 0.001992
101 0.0
109 0.00099
122 0.0
130 0.0
137 0.0
145 0.000996
152 0.001007
157 0.0
163 0.0
170 0.0
174 0.000964
148 0.002026
96 0.000997
60 0.001993
63 0.001993
67 0.0
68 0.0
76 0.0
87 0.000994
94 0.000987
98 0.0
102 0.0
109 0.0
118 0.001
128 0.000999
142 0.000995
149 0.000996
156 0.0
162 0.000993
166 0.000997
172 0.001993
178 0.002012
186 0.0
165 0.0
112 0.0
78 0.001028
70 0.00103
74 0.000964
73 0.000996
77 0.0
89 0.0
98 0.0
101 0.001954
104 0.001972
111 0.0
120 0.0
130 0.001006
138 0.002019
146 0.002028
155 0.001998
160 0.002941
167 0.0
172 0.000998
177 0.001006
183 0.001994
174 0.001995
113 0.000962
84 0.000997
79 0.000954
85 0.001994
88 0.001994
93 0.00197
102 0.001994
111 0.001997
112 0.001996
114 0.001033
119 0.001993
129 0.002004
141 0.001045
148 0.001031
156 0.001044
161 0.002992
165 0.002992
173 0.002989
179 0.002991
187 0.000998
178 0.000951
134 0.001009
98 0.001847
86 0.001996
88 0.001994
92 0.0
92 0.002027
99 0.003021
109 0.003023
118 0.002997
120 0.003
124 0.002831
134 0.000999
143 0.000995
151 0.002006
158 0.002991
164 0.002979
172 0.001998
177 0.001995
182 0.000998
187 0.002992
196 0.002024
201 0.003003
196 0.002993
138 0.000998
102 0.000986
91 0.001994
92 0.004002
93 0.00402
93 0.001962
99 0.001956
110 0.002016
118 0.002992
123 0.002039
127 0.002991
133 0.002997
146 0.001976
154 0.002028
160 0.002001
167 0.002988
173 0.00399
180 0.003028
185 0.002044
190 0.00195
196 0.00402
203 0.00195
193 0.004003
147 0.00399
102 0.001995
95 0.001992
98 0.001962
101 0.002996
103 0.00399
112 0.002988
120 0.002993
125 0.00299
126 0.004024
131 0.002989
137 0.003996
146 0.003996
156 0.002985
161 0.002976
167 0.001998
171 0.003997
174 0.004987
181 0.003006
186 0.002959
189 0.002993
161 0.005017
96 0.002981
87 0.004015
91 0.003993
97 0.002995
101 0.002987
110 0.002987
119 0.003989
121 0.004987
121 0.003991
125 0.00399
130 0.003986
138 0.004986
153 0.003992
160 0.002962
165 0.005022
170 0.005011
176 0.003955
181 0.002991
186 0.002992
187 0.006016
153 0.005018
94 0.003989
78 0.003989
79 0.004018
83 0.002998
86 0.004031
92 0.006015
101 0.006014
108 0.003989
109 0.003988
113 0.004008
120 0.00502
129 0.005023
139 0.00399
148 0.005012
155 0.004988
165 0.004954
170 0.004979
175 0.006015
180 0.006018
177 0.003947
131 0.003957
88 0.00401
70 0.005984
70 0.00602
73 0.003991
74 0.00399
80 0.003993
97 0.004972
103 0.004985
103 0.006021
107 0.006019
116 0.004987
125 0.004985
134 0.003978
143 0.006022
149 0.006033
157 0.005029
163 0.00399
167 0.003987
179 0.004004
170 0.005004
125 0.005984
85 0.007022
71 0.004984
77 0.004989
83 0.004985
86 0.006017
93 0.005999
105 0.004987
107 0.004988
106 0.004989
112 0.004989
119 0.004986
128 0.006987
137 0.006983
145 0.004992
151 0.004991
156 0.004986
161 0.00698
166 0.007979
172 0.004986
143 0.004991
94 0.004987
62 0.006006
66 0.006003
71 0.005953
73 0.007011
78 0.006985
93 0.005993
98 0.005937
100 0.005015
103 0.007016
109 0.007016
120 0.005029
129 0.005019
142 0.004984
150 0.005021
155 0.006012
163 0.007974
168 0.007979
174 0.005984
178 0.005981
156 0.005984
103 0.006991
67 0.006989
59 0.006981
62 0.005979
63 0.005986
68 0.006036
80 0.006027
89 0.007979
92 0.007978
96 0.007025
103 0.005934
111 0.005984
124 0.007979
133 0.007979
140 0.005979
147 0.005987
157 0.006013
163 0.007005
169 0.006017
179 0.00798
169 0.007977
119 0.006973
76 0.007019
61 0.006015
64 0.007978
66 0.00799
69 0.006033
77 0.006984
93 0.006982
96 0.005972
97 0.006006
103 0.007966
111 0.007987
121 0.006978
130 0.006025
140 0.00698
145 0.007017
150 0.007026
155 0.006984
162 0.006979
173 0.006981
164 0.006949
102 0.00698
69 0.00698
65 0.007974
76 0.006968
80 0.006997
87 0.007007
98 0.007006
106 0.007014
109 0.007017
110 0.006988
114 0.005992
125 0.006998
133 0.006971
142 0.006979
148 0.006019
154 0.006021
161 0.005968
166 0.006018
171 0.005981
154 0.007018
104 0.007036
64 0.006977
66 0.006974
76 0.006976
81 0.006974
90 0.005987
100 0.005966
105 0.006014
106 0.006015
109 0.006007
116 0.006021
125 0.006014
135 0.006009
147 0.005979
156 0.005973
163 0.006014
169 0.005985
174 0.005986
180 0.005982
180 0.006016
121 0.006019
73 0.006017
56 0.005963
59 0.005983
63 0.005017
63 0.006017
74 0.004988
88 0.005977
95 0.005994
97 0.005988
100 0.005987
107 0.006021
120 0.00602
130 0.005982
139 0.006035
146 0.006018
153 0.006018
161 0.004981
169 0.005008
178 0.005011
171 0.004955
121 0.004956
76 0.004992
61 0.005026
64 0.005021
68 0.005986
68 0.006018
76 0.006017
89 0.005032
99 0.004976
102 0.005027
109 0.004985
118 0.004991
128 0.004976
139 0.004986
148 0.004979
155 0.005023
163 0.005017
169 0.004982
175 0.004989
179 0.005019
162 0.004022
83 0.004993
68 0.004955
75 0.004994
82 0.004989
87 0.005021
96 0.005021
107 0.00499
111 0.004986
109 0.005024
111 0.005034
115 0.004021
126 0.004006
140 0.003998
147 0.003985
154 0.003947
159 0.003992
167 0.003992
162 0.003991
119 0.004029
69 0.005018
61 0.004024
67 0.005041
75 0.005037
80 0.005034
98 0.004976
104 0.003967
105 0.004011
107 0.003958
112 0.004038
121 0.004023
131 0.004047
142 0.003991
148 0.00399
153 0.004007
158 0.004021
165 0.003989
152 0.002943
99 0.002986
58 0.002977
58 0.003011
63 0.002992
65 0.002992
69 0.00299
83 0.003994
95 0.003984
100 0.004002
101 0.00401
105 0.004004
119 0.003959
129 0.003954
142 0.003064
148 0.002992
154 0.003029
159 0.003036
166 0.003004
173 0.003026
173 0.003038
135 0.002996
82 0.002992
57 0.002992
58 0.003029
60 0.002971
60 0.002989
72 0.002992
88 0.004038
98 0.002988
103 0.002992
107 0.00299
119 0.003026
129 0.003025
139 0.001994
148 0.001991
161 0.00199
166 0.002004
170 0.001995
176 0.001996
182 0.002999
189 0.002881
177 0.002992
124 0.002992
73 0.003027
68 0.003023
70 0.002992
72 0.001994
76 0.001984
90 0.001955
101 0.001996
107 0.002005
109 0.001996
115 0.001995
125 0.002008
135 0.001995
146 0.001043
152 0.000998
157 0.00203
163 0.001995
169 0.001975
174 0.002012
180 0.01097
188 0.001996
171 0.001995
121 0.002028
87 0.002033
82 0.002028
91 0.001996
96 0.001994
102 0.000997
112 0.001
126 0.000996
126 0.000964
125 0.001012
134 0.000998
142 0.000991
151 0.002028
160 0.001995
166 0.002005
173 0.001996
178 0.000994
182 0.000999
188 0.000996
195 0.00104
165 0.000999
117 0.000997
90 0.000962
94 0.000984
103 0.000959
108 0.000998
114 0.000997
125 0.000997
135 0.000998
136 0.000986
136 0.001031
147 0.000964
157 0.000968
166 0.000964
173 0.001
181 0.000998
187 0.001042
192 0.000998
195 0.000998
199 0.000997
207 0.000981
203 0.0
159 0.000997
93 0.0
88 0.0
93 0.0
94 0.0
96 0.0
106 0.0
116 0.0
123 0.0
125 0.001011
128 0.000997
134 0.000998
144 0.000992
158 0.0
165 0.0
170 0.0
175 0.0
181 0.0
185 0.0
189 0.0
195 0.0
196 0.0
144 0.0
98 0.001014
81 0.001009
84 0.000993
86 0.0
89 0.0
95 0.0
110 0.0
115 0.001031
119 0.0
122 0.0
129 0.0
138 0.002016
147 0.002026
157 0.0
167 0.001994
175 0.0
180 0.0
184 0.000986
188 0.002026
192 0.002025
197 0.0
190 0.000985
121 0.0
84 0.001043
76 0.001036
83 0.0
89 0.000997
93 0.000997
104 0.000997
113 0.0
115 0.0
116 0.001996
119 0.002026
128 0.0
138 0.0
145 0.0
151 0.002046
155 0.002028
162 0.000987
168 0.000981
170 0.0
137 0.000944
93 0.0
72 0.001032
73 0.001029
84 0.000999
93 0.000998
106 0.0
116 0.002031
119 0.002031
116 0.002005
118 0.001987
127 0.000963
136 0.0
144 0.0
151 0.001028
157 0.001029
163 0.0
167 0.0
158 0.0
112 0.002046
73 0.001995
65 0.001998
75 0.001972
83 0.001036
91 0.0
102 0.0
107 0.002028
106 0.002027
108 0.000967
114 0.001996
123 0.001005
132 0.003037
139 0.002993
149 0.001999
153 0.00199
160 0.001033
152 0.001028
106 0.001029
62 0.001995
46 0.001986
51 0.001007
55 0.001989
58 0.002
66 0.002949
78 0.003028
88 0.002997
89 0.002993
96 0.001001
104 0.001995
113 0.001991
122 0.002994
130 0.002992
137 0.001014
142 0.000994
148 0.002001
154 0.002994
132 0.002992
53 0.002988
38 0.002988
40 0.002993
43 0.001988
44 0.001997
53 0.001994
67 0.002975
77 0.002981
81 0.002005
85 0.001031
92 0.001033
101 0.002993
117 0.000999
126 0.002993
134 0.002993
141 0.001995
146 0.002041
154 0.001997
158 0.00399
136 0.003989
69 0.001994
47 0.001999
48 0.002011
53 0.003032
57 0.001995
67 0.002995
80 0.003989
88 0.00198
89 0.001989
92 0.002015
99 0.00402
109 0.004038
122 0.002023
130 0.002
135 0.001996
140 0.00402
149 0.001992
156 0.003989
159 0.004007
117 0.003017
72 0.002991
55 0.002993
58 0.00399
65 0.003989
71 0.001994
79 0.001994
92 0.001996
99 0.004021
103 0.002961
107 0.005
116 0.004987
129 0.00298
138 0.00298
146 0.001984
152 0.004022
158 0.00402
165 0.003015
169 0.002992
174 0.002994
180 0.00399
180 0.003
132 0.003974
82 0.003989
63 0.003988
66 0.003022
67 0.002992
67 0.004987
74 0.005019
89 0.002996
97 0.003044
101 0.002961
103 0.002956
114 0.002995
124 0.00299
134 0.006018
142 0.004987
151 0.002996
157 0.002991
163 0.002989
168 0.004987
173 0.004986
182 0.003992
187 0.001952
193 0.003976
172 0.002978
115 0.003987
80 0.004987
74 0.004987
80 0.002988
82 0.00297
84 0.002991
92 0.005983
104 0.006014
112 0.003992
114 0.003991
117 0.003968
132 0.003987
142 0.003994
151 0.005983
158 0.004987
167 0.003988
172 0.003999
176 0.00499
181 0.005984
188 0.005984
196 0.004993
183 0.003984
134 0.004
89 0.003998
91 0.004993
99 0.007038
102 0.005984
111 0.003981
120 0.005004
124 0.004987
125 0.007014
126 0.007016
130 0.004989
139 0.004954
149 0.004026
162 0.003871
167 0.004988
171 0.005984
176 0.006019
184 0.003992
188 0.004991
167 0.004986
119 0.006949
89 0.006958
84 0.004987
90 0.004986
95 0.004986
106 0.004999
116 0.004953
122 0.007016
124 0.006981
126 0.006979
133 0.004986
141 0.004993
150 0.00598
160 0.007982
164 0.007978
172 0.005959
177 0.00593
187 0.005969
192 0.005988
182 0.00599
133 0.007025
92 0.006981
78 0.005016
82 0.006007
85 0.005988
86 0.007963
94 0.007979
108 0.00597
114 0.005994
117 0.005985
122 0.006
129 0.005988
138 0.00798
144 0.006981
154 0.006991
159 0.005997
164 0.006021
169 0.007977
175 0.007976
181 0.005986
177 0.005973
103 0.005
77 0.005976
76 0.005968
81 0.007978
84 0.006993
91 0.005021
105 0.006933
110 0.006967
115 0.007996
115 0.008
117 0.006952
121 0.005957
136 0.005983
143 0.00694
149 0.006942
155 0.00698
162 0.007979
166 0.00698
166 0.00698
134 0.006958
92 0.007981
75 0.007979
80 0.005965
90 0.005939
103 0.005981
113 0.006023
118 0.006985
116 0.006981
116 0.007018
122 0.006943
127 0.006006
135 0.006965
146 0.007013
151 0.006977
156 0.006034
162 0.00698
161 0.006039
121 0.006977
74 0.006965
69 0.006981
76 0.007016
84 0.007014
91 0.006981
98 0.006953
107 0.006946
110 0.00698
110 0.006981
112 0.006971
124 0.006945
131 0.006978
139 0.006983
145 0.006964
152 0.007
157 0.006017
164 0.005981
140 0.005966
92 0.005985
60 0.006016
55 0.007029
62 0.005967
65 0.006956
74 0.007009
86 0.006981
92 0.006968
97 0.005981
99 0.005985
105 0.00602
114 0.006025
123 0.005992
131 0.006017
139 0.005984
145 0.005969
152 0.006052
154 0.005978
118 0.00599
72 0.006049
51 0.004948
51 0.004992
58 0.005984
61 0.005976
67 0.006017
79 0.00598
89 0.005977
97 0.006069
101 0.006018
109 0.006079
118 0.006015
127 0.006022
136 0.006017
143 0.00602
150 0.005984
156 0.005025
162 0.005021
161 0.005022
126 0.003988
71 0.00502
62 0.004989
71 0.005019
76 0.005018
81 0.005026
91 0.004983
102 0.005024
105 0.006008
105 0.005012
109 0.00498
118 0.005036
127 0.00503
138 0.005041
148 0.005032
153 0.004987
160 0.004977
162 0.005018
134 0.005128
92 0.005037
73 0.004987
80 0.004994
89 0.003998
96 0.004024
107 0.003991
116 0.003961
120 0.00395
119 0.003957
125 0.00499
133 0.005042
141 0.005022
149 0.004988
156 0.004036
163 0.005023
168 0.004987
174 0.004024
179 0.003979
160 0.004019
86 0.004029
72 0.004023
77 0.004039
81 0.00402
84 0.003003
92 0.003989
103 0.003991
111 0.003992
113 0.004006
116 0.004037
121 0.004021
129 0.004001
143 0.002987
151 0.002992
158 0.002992
163 0.004034
168 0.004027
173 0.004022
166 0.004021
107 0.004033
77 0.003989
71 0.003987
76 0.004028
80 0.003989
88 0.002998
99 0.002993
109 0.002993
113 0.002993
115 0.003027
120 0.003991
127 0.003995
138 0.00399
146 0.004026
152 0.003989
158 0.002997
163 0.003044
173 0.002992
179 0.002995
165 0.003035
120 0.003027
86 0.003039
77 0.002992
83 0.002992
89 0.002964
95 0.002992
103 0.002993
113 0.002992
118 0.002988
120 0.002999
124 0.002001
132 0.001995
143 0.001995
150 0.001996
157 0.002004
162 0.002036
168 0.002992
173 0.002992
177 0.002991
184 0.002992
184 0.003025
122 0.001995
90 0.001994
85 0.002029
97 0.003027
103 0.001995
109 0.001995
119 0.001995
126 0.001995
125 0.001995
125 0.002031
127 0.001995
134 0.002035
146 0.003026
153 0.002993
158 0.002028
163 0.002026
167 0.001995
171 0.001995
176 0.001994
177 0.001997
134 0.001995
95 0.001995
81 0.001963
86 0.001995
99 0.001997
107 0.002038
116 0.000998
122 0.000966
123 0.000999
123 0.000998
126 0.001
132 0.001995
144 0.002044
151 0.001996
156 0.001995
163 0.001997
169 0.001996
175 0.001995
179 0.002037
151 0.002028
106 0.001952
80 0.001964
76 0.001055
83 0.000998
87 0.001013
92 0.000996
102 0.000997
111 0.001038
115 0.000997
117 0.002034
122 0.000997
131 0.000998
139 0.001996
145 0.001036
149 0.000996
155 0.002037
159 0.000999
159 0.0
128 0.001036
88 0.000999
70 0.000999
77 0.000998
82 0.000998
88 0.000993
100 0.000998
109 0.000997
113 0.000998
114 0.000997
116 0.000999
125 0.0
133 0.0
142 0.0
151 0.0
157 0.0
160 0.0
135 0.0
85 0.0
72 0.0
77 0.001025
88 0.0
95 0.0
109 0.0
118 0.0
122 0.0
124 0.0
127 0.0
135 0.0
142 0.0
151 0.0
158 0.0
164 0.0
168 0.0
157 0.0
102 0.0
79 0.0
78 0.006015
94 0.000998
109 0.0
118 0.000965
129 0.0
134 0.002992
139 0.001046
148 0.001008
155 0.0
161 0.0
165 0.001045
170 0.001992
175 0.0
178 0.001996
145 0.0
100 0.000969
81 0.0
83 0.002021
92 0.002026
105 0.0
116 0.0
122 0.0
121 0.002041
119 0.001989
122 0.0
131 0.002039
142 0.0
150 0.0
156 0.0
160 0.002027
166 0.002039
159 0.0
117 0.001015
79 0.001004
68 0.0
75 0.001033
83 0.000994
93 0.001996
102 0.001008
110 0.0
113 0.000984
113 0.0
118 0.00201
127 0.001995
138 0.0
144 0.0
151 0.0
156 0.001993
160 0.002031
163 0.002043
129 0.001962
73 0.0
60 0.000936
64 0.000961
69 0.001984
72 0.000978
83 0.0
95 0.0
103 0.000956
105 0.00201
108 0.002039
118 0.002035
127 0.002026
138 0.000942
145 0.0
152 0.001986
157 0.001996
162 0.001996
169 0.0
172 0.001025
153 0.0
102 0.001996
69 0.001996
68 0.002027
75 0.002027
80 0.001993
88 0.001994
100 0.001999
108 0.004041
110 0.003021
113 0.001995
121 0.002
130 0.001996
139 0.003022
147 0.003024
157 0.002028
162 0.001968
166 0.002986
170 0.001007
177 0.000959
181 0.002983
151 0.002992
89 0.001982
74 0.001005
80 0.001997
88 0.002996
92 0.002995
107 0.002001
114 0.003025
117 0.002992
116 0.001993
118 0.001
125 0.000997
134 0.004007
143 0.002993
152 0.001983
158 0.001995
162 0.002946
166 0.003959
177 0.001973
167 0.003991
120 0.00399
74 0.001999
70 0.002043
77 0.002005
84 0.002992
88 0.003024
101 0.002028
110 0.002014
115 0.001985
115 0.003998
122 0.001983
131 0.00399
141 0.004024
151 0.001979
158 0.001988
164 0.001978
169 0.00402
173 0.004024
179 0.001991
183 0.002994
158 0.001987
103 0.003989
64 0.001984
67 0.004023
73 0.004028
76 0.002004
85 0.001999
96 0.00199
105 0.004023
107 0.00399
110 0.002983
115 0.002989
124 0.002985
135 0.00499
150 0.002993
156 0.00399
163 0.003989
169 0.002045
175 0.002012
181 0.002043
180 0.002035
142 0.004022
74 0.002989
56 0.002989
60 0.00298
68 0.004985
78 0.003017
89 0.005023
100 0.005029
104 0.002991
106 0.002961
109 0.002959
116 0.005023
125 0.004986
137 0.003024
144 0.002993
150 0.002965
157 0.004985
163 0.002974
170 0.003013
175 0.005035
157 0.005018
91 0.00202
67 0.002989
68 0.003935
79 0.005984
89 0.005996
98 0.003977
108 0.002991
114 0.002994
113 0.003025
114 0.003034
119 0.004953
129 0.004986
140 0.002995
146 0.003987
152 0.00403
157 0.006022
162 0.005984
168 0.00398
157 0.002991
107 0.003
61 0.003989
65 0.003992
76 0.004987
84 0.005984
95 0.004012
105 0.003983
109 0.003989
108 0.005984
108 0.005986
115 0.003999
123 0.004989
134 0.003989
145 0.004943
151 0.00397
156 0.006015
161 0.007014
167 0.005006
157 0.002003
107 0.003976
61 0.007013
46 0.006984
54 0.003991
60 0.003996
64 0.003038
80 0.004017
89 0.003987
93 0.005972
94 0.006024
99 0.004946
107 0.003989
117 0.00399
125 0.005984
133 0.006982
142 0.00501
147 0.004988
152 0.004942
162 0.004976
152 0.004977
101 0.006982
55 0.006977
43 0.004993
50 0.004972
57 0.004989
61 0.007012
71 0.006983
86 0.004984
92 0.005021
93 0.004018
100 0.005022
108 0.005983
118 0.005979
129 0.007008
137 0.006981
146 0.004987
151 0.004969
156 0.00502
162 0.007019
166 0.007017
132 0.005027
77 0.004987
49 0.004995
56 0.00499
66 0.005982
73 0.007979
82 0.007974
94 0.005983
96 0.005964
96 0.005941
97 0.007749
106 0.006978
117 0.006018
126 0.00498
139 0.005979
145 0.00597
150 0.005947
156 0.007939
161 0.00798
131 0.005984
79 0.005981
53 0.00598
52 0.007934
61 0.006982
73 0.005922
82 0.004987
98 0.005989
101 0.005993
102 0.005977
106 0.007016
114 0.007978
123 0.006935
135 0.006981
140 0.006003
150 0.006979
156 0.007991
161 0.005019
165 0.005985
174 0.005986
174 0.005986
132 0.005984
65 0.007029
53 0.007015
58 0.006947
64 0.006978
69 0.006956
78 0.00697
90 0.00598
99 0.006982
101 0.005986
106 0.005985
114 0.005982
124 0.006951
137 0.006987
146 0.007012
155 0.00698
159 0.006969
167 0.006978
173 0.006978
179 0.006967
174 0.006986
107 0.006971
66 0.00698
67 0.006983
78 0.005981
83 0.005984
90 0.005983
97 0.009974
111 0.00598
114 0.005986
114 0.006943
119 0.006979
129 0.006967
142 0.006991
154 0.007015
160 0.006984
166 0.006977
171 0.006985
178 0.007016
183 0.007013
152 0.005984
97 0.005978
69 0.005991
69 0.005987
79 0.005981
90 0.005988
103 0.006031
114 0.00598
115 0.005007
114 0.005989
116 0.00602
123 0.006017
135 0.004999
144 0.00496
152 0.004989
160 0.005993
166 0.005982
172 0.005998
180 0.005982
182 0.005977
138 0.005988
84 0.005987
63 0.005984
65 0.005022
75 0.00502
79 0.004985
85 0.004985
98 0.004989
104 0.004984
108 0.004989
111 0.005024
121 0.005024
130 0.004974
139 0.005023
148 0.006026
156 0.006017
164 0.005983
170 0.00599
177 0.005979
183 0.004937
186 0.00504
140 0.004954
75 0.004987
65 0.004988
72 0.004988
80 0.00504
85 0.005026
94 0.003989
107 0.004968
112 0.005022
112 0.004928
115 0.004933
121 0.004771
131 0.004984
147 0.003989
155 0.004006
163 0.003991
170 0.004006
176 0.00498
183 0.005027
188 0.003992
146 0.003944
97 0.004987
77 0.004989
81 0.004999
93 0.004982
106 0.00502
116 0.004988
125 0.004021
126 0.003991
124 0.003991
124 0.004027
131 0.003991
141 0.003992
150 0.003945
158 0.004974
165 0.003044
171 0.002989
181 0.003957
176 0.004031
117 0.003991
81 0.004056
76 0.00399
84 0.003989
93 0.004
105 0.003993
117 0.003962
127 0.003989
130 0.003996
129 0.003989
135 0.004025
142 0.003993
154 0.003999
162 0.004044
168 0.003991
174 0.003989
180 0.003962
186 0.003952
194 0.00298
191 0.002967
141 0.00299
91 0.002982
73 0.00299
80 0.003035
85 0.00399
91 0.002984
102 0.002989
112 0.003992
114 0.004003
117 0.001991
121 0.003983
129 0.003962
138 0.001965
148 0.002992
162 0.001997
170 0.001995
176 0.002949
183 0.002
190 0.002996
185 0.002992
137 0.002992
91 0.003019
76 0.00298
83 0.003025
90 0.00295
94 0.002995
110 0.002991
119 0.002995
120 0.002994
123 0.002026
127 0.002993
136 0.002946
144 0.003027
153 0.002987
162 0.001996
168 0.001999
174 0.001995
180 0.002036
175 0.002033
128 0.002035
87 0.001995
78 0.002031
86 0.001995
94 0.001995
102 0.00203
113 0.001985
121 0.001952
120 0.001008
121 0.000973
125 0.000955
138 0.000999
147 0.001995
154 0.001951
165 0.001999
171 0.001999
177 0.001995
182 0.00103
185 0.00199
137 0.000998
87 0.001998
67 0.002035
69 0.001995
78 0.001028
83 0.000997
92 0.002032
104 0.000997
107 0.000997
109 0.000957
113 0.002005
119 0.000995
130 0.001988
140 0.001965
147 0.001994
153 0.000959
161 0.001038
167 0.000997
174 0.000997
158 0.000984
108 0.000998
73 0.000998
65 0.000997
71 0.000945
79 0.000999
83 0.002
93 0.000995
104 0.001998
112 0.001029
115 0.00103
119 0.000998
128 0.0
142 0.001013
150 0.001009
159 0.000984
166 0.001
172 0.000996
179 0.000998
184 0.000991
188 0.000994
132 0.0
88 0.0
76 0.0
80 0.0
92 0.0
97 0.000998
104 0.001005
114 0.0
120 0.0
119 0.0
121 0.0
127 0.0
140 0.0
148 0.0
154 0.0
160 0.0
168 0.0
174 0.000997
177 0.001025
147 0.00101
88 0.001077
74 0.001995
80 0.000996
92 0.001033
102 0.002043
115 0.0
123 0.0
123 0.0
123 0.002027
127 0.0
137 0.001011
146 0.0
154 0.0
162 0.002942
169 0.002986
175 0.0
182 0.001996
190 0.0
190 0.000996
148 0.0
91 0.001998
66 0.00105
65 0.0
71 0.0
73 0.0
80 0.002016
91 0.002039
103 0.0
109 0.002048
113 0.0
120 0.0
130 0.0
140 0.0
148 0.001998
155 0.001995
162 0.0
168 0.0
174 0.000942
179 0.003009
177 0.00199
95 0.002993
68 0.002027
66 0.000818
74 0.0
79 0.0
85 0.002026
96 0.001994
109 0.0
112 0.0
112 0.0
117 0.001992
124 0.001893
139 0.002026
149 0.002026
158 0.0
165 0.001006
172 0.0
178 0.002
185 0.002048
168 0.0
111 0.0
75 0.0
71 0.001994
79 0.002992
92 0.001996
100 0.002993
112 0.0
116 0.0
115 0.0
114 0.001987
119 0.001988
129 0.0
137 0.0
145 0.0
152 0.001993
156 0.001996
166 0.002045
161 0.00203
101 0.00199
65 0.001995
60 0.001999
70 0.002029
81 0.001996
93 0.001993
104 0.0
111 0.001989
113 0.002961
112 0.002992
118 0.002992
126 0.000975
140 0.0
148 0.001031
155 0.002028
162 0.003022
168 0.003035
169 0.002008
120 0.001988
69 0.00199
51 0.002995
53 0.00301
65 0.002992
70 0.003028
85 0.002011
94 0.002004
98 0.001996
100 0.002963
103 0.002959
110 0.002995
123 0.001992
131 0.001992
139 0.002002
146 0.002983
157 0.002997
160 0.004031
133 0.002992
62 0.001992
44 0.00199
45 0.001994
51 0.003025
54 0.003992
66 0.001991
78 0.001987
87 0.001988
93 0.003955
99 0.002019
107 0.003993
115 0.00402
128 0.001994
138 0.001991
145 0.001997
150 0.00304
157 0.003998
162 0.002013
132 0.001981
80 0.001992
54 0.003989
60 0.001973
67 0.00399
70 0.003983
84 0.001995
96 0.001996
101 0.002006
102 0.003991
105 0.003984
118 0.001997
127 0.001992
138 0.002962
144 0.004991
154 0.002989
161 0.004987
166 0.005023
169 0.002026
130 0.001998
83 0.001986
65 0.003981
68 0.003992
76 0.002986
82 0.002951
92 0.002951
103 0.004988
108 0.003977
108 0.005018
112 0.005023
124 0.002997
133 0.003985
141 0.00399
148 0.004975
152 0.005005
157 0.001975
163 0.003007
168 0.001996
164 0.004989
89 0.003025
64 0.005958
64 0.005018
72 0.002996
77 0.002952
82 0.002992
94 0.003007
103 0.004982
107 0.004987
108 0.002997
113 0.003008
123 0.002993
138 0.002992
145 0.003992
153 0.005984
158 0.006018
165 0.002977
171 0.00302
176 0.00299
181 0.005967
169 0.005991
103 0.002996
72 0.003984
68 0.002992
73 0.003995
75 0.003989
80 0.005984
92 0.005989
105 0.003028
109 0.003002
111 0.002981
117 0.006031
126 0.006019
137 0.002991
147 0.002971
154 0.003988
164 0.004005
170 0.003994
176 0.005952
181 0.005984
190 0.003991
197 0.003984
190 0.00301
138 0.006016
95 0.005985
82 0.003028
84 0.003011
87 0.004045
94 0.004972
108 0.004989
120 0.006981
129 0.006972
133 0.003963
138 0.003978
146 0.003982
157 0.005967
166 0.005976
177 0.003989
183 0.004022
188 0.003987
200 0.004943
207 0.004986
213 0.006982
219 0.006982
225 0.004985
196 0.004989
137 0.00499
105 0.007018
99 0.000957
106 0.005018
109 0.004024
112 0.004987
126 0.004986
131 0.004958
132 0.004994
134 0.007019
137 0.007981
145 0.005
152 0.004993
159 0.005013
164 0.006989
170 0.00694
175 0.004031
180 0.004033
188 0.005991
187 0.005019
147 0.005022
94 0.007978
85 0.007978
91 0.004988
100 0.005
106 0.004022
114 0.007012
124 0.00696
129 0.004975
129 0.003992
135 0.005977
144 0.005976
152 0.005978
162 0.007983
170 0.007978
176 0.004992
181 0.005994
187 0.004976
193 0.006981
199 0.006983
206 0.00598
208 0.004982
130 0.005984
92 0.00597
84 0.005982
92 0.007992
95 0.007979
99 0.005007
108 0.005029
116 0.004987
122 0.007973
123 0.006964
128 0.006013
135 0.005968
147 0.006979
157 0.005961
162 0.006982
172 0.007013
177 0.007011
181 0.005006
187 0.005019
195 0.005984
191 0.006977
143 0.006975
98 0.00699
82 0.005954
87 0.006976
95 0.006976
100 0.006969
110 0.007015
115 0.006961
117 0.005984
119 0.006025
123 0.006009
133 0.006989
142 0.00596
151 0.006047
158 0.005983
167 0.00698
173 0.006947
180 0.006
186 0.005969
149 0.006938
98 0.006987
74 0.006918
72 0.005975
83 0.006988
89 0.006979
99 0.006986
110 0.006051
120 0.005974
124 0.005983
127 0.005845
133 0.00585
141 0.005964
149 0.006015
158 0.005984
164 0.004993
172 0.005978
179 0.005984
174 0.00598
110 0.006019
69 0.00597
71 0.005984
81 0.005985
91 0.005989
102 0.005982
113 0.005984
120 0.00499
123 0.005992
125 0.005965
131 0.005964
140 0.005951
153 0.005974
164 0.006039
175 0.005987
185 0.00598
193 0.005973
174 0.005015
118 0.004985
81 0.004988
83 0.004991
94 0.004985
104 0.004987
113 0.00502
124 0.003994
128 0.006017
126 0.004984
130 0.005027
136 0.00599
144 0.004988
152 0.004971
162 0.004986
166 0.004978
172 0.004991
172 0.004993
133 0.004981
75 0.004976
66 0.005023
80 0.004988
90 0.00499
101 0.003987
110 0.004026
112 0.005003
110 0.004996
111 0.004992
116 0.004965
125 0.004979
133 0.004988
142 0.004994
152 0.00503
159 0.004995
163 0.004981
123 0.004979
71 0.003979
48 0.003989
49 0.003992
60 0.00399
66 0.003984
75 0.003988
85 0.004991
91 0.004979
93 0.004989
98 0.005027
107 0.005093
116 0.005019
124 0.004989
133 0.005002
140 0.004993
151 0.003994
158 0.004004
150 0.003995
100 0.004003
58 0.00399
52 0.003985
62 0.003984
72 0.003945
81 0.003986
93 0.00498
100 0.003985
101 0.002983
106 0.00396
113 0.003959
121 0.004007
132 0.003981
142 0.003991
154 0.003991
160 0.004025
166 0.004023
173 0.003988
176 0.003951
140 0.002973
84 0.00395
56 0.002972
60 0.002979
68 0.002981
72 0.002991
79 0.002996
94 0.002992
95 0.002976
97 0.003948
101 0.002993
108 0.002992
119 0.003944
128 0.002974
139 0.003014
146 0.002958
151 0.002994
157 0.002994
162 0.002987
140 0.002989
85 0.003024
51 0.002962
53 0.002992
61 0.002993
66 0.002992
72 0.002955
85 0.002977
92 0.002995
94 0.001998
95 0.001999
101 0.001995
116 0.001995
126 0.001997
134 0.001963
142 0.001998
149 0.002004
155 0.002947
160 0.00201
166 0.001976
171 0.001988
142 0.001992
83 0.002952
49 0.001982
49 0.00202
55 0.002959
57 0.001993
67 0.001994
79 0.001995
87 0.001996
89 0.001994
91 0.001996
101 0.001965
110 0.001993
120 0.001993
130 0.001981
141 0.002044
150 0.002038
154 0.00096
160 0.001028
167 0.001988
174 0.000992
183 0.000998
176 0.000971
99 0.000963
62 0.002012
57 0.002035
64 0.002011
71 0.002039
76 0.002025
88 0.002008
100 0.001033
101 0.002024
102 0.001964
108 0.001041
116 0.001027
130 0.000975
138 0.001011
140 0.001006
147 0.001013
155 0.000997
162 0.001984
169 0.001999
182 0.001991
192 0.001995
177 0.001991
117 0.000961
75 0.0
66 0.000961
74 0.001019
80 0.001008
85 0.00096
102 0.001033
107 0.000998
107 0.000964
109 0.000963
116 0.0
126 0.0
139 0.0
151 0.000993
154 0.000997
157 0.001002
157 0.000997
159 0.001004
164 0.0
134 0.0
82 0.0
55 0.0
59 0.0
72 0.0
83 0.0
94 0.0
104 0.0
110 0.0
108 0.000998
106 0.000998
116 0.0
127 0.0
137 0.0
144 0.0
152 0.0
158 0.0
163 0.0
168 0.0
163 0.0
93 0.0
55 0.0
48 0.0
61 0.002028
68 0.0
73 0.000965
87 0.0
94 0.002993
96 0.001979
96 0.0
99 0.0
109 0.0
118 0.001982
128 0.002
136 0.0
144 0.002029
150 0.001038
155 0.0
160 0.001013
154 0.001997
101 0.002993
49 0.0
43 0.0
49 0.0
55 0.00296
60 0.002995
73 0.0
90 0.001981
95 0.0
97 0.0
101 0.0
110 0.001994
119 0.001995
132 0.0
140 0.0
144 0.000961
151 0.001996
158 0.001992
165 0.000977
174 0.002053
151 0.001964
83 0.0
61 0.0
63 0.0
72 0.002987
80 0.001995
88 0.001003
100 0.0
109 0.0
111 0.001989
111 0.002989
118 0.002032
127 0.002993
141 0.0
148 0.001004
155 0.001001
161 0.003023
167 0.002996
173 0.0
179 0.0
183 0.0
157 0.002995
105 0.002992
74 0.002025
83 0.003022
97 0.0
105 0.0
114 0.0
122 0.001987
123 0.001996
120 0.001007
124 0.000992
130 0.000997
139 0.002998
147 0.002994
161 0.003029
166 0.002995
171 0.0
178 0.0
183 0.0
168 0.002
120 0.001974
86 0.0
87 0.0
99 0.0
111 0.002964
121 0.001995
136 0.002993
136 0.002988
133 0.0
136 0.0
141 0.000997
149 0.00299
156 0.003007
166 0.001994
171 0.000986
177 0.0
182 0.003957
186 0.002994
176 0.002993
126 0.002988
83 0.002987
80 0.00198
88 0.003005
95 0.003006
102 0.003037
114 0.001978
119 0.001993
121 0.001994
121 0.001997
123 0.004007
135 0.001994
143 0.003972
151 0.00399
160 0.001992
164 0.001996
169 0.002991
173 0.002985
177 0.002991
148 0.001965
101 0.001984
75 0.002
73 0.003978
86 0.001994
92 0.00399
101 0.003982
109 0.001996
113 0.001989
113 0.00299
115 0.003989
120 0.00399
131 0.001995
140 0.00201
147 0.00299
152 0.003979
161 0.002999
165 0.003976
171 0.003992
154 0.001996
110 0.002989
80 0.001994
75 0.003956
81 0.003969
92 0.002996
98 0.002016
106 0.002972
113 0.004017
115 0.002982
117 0.004993
122 0.00499
132 0.001994
140 0.002001
147 0.001998
152 0.004991
158 0.005021
164 0.002028
168 0.003002
172 0.002003
152 0.003989
91 0.002997
84 0.004985
93 0.004988
106 0.001998
113 0.00199
121 0.002995
125 0.005005
125 0.004989
122 0.002981
125 0.001994
133 0.001993
140 0.006019
152 0.002986
156 0.004968
160 0.005017
168 0.002983
172 0.00296
164 0.003015
125 0.005019
92 0.005026
84 0.00499
94 0.003007
104 0.001986
110 0.002995
123 0.003994
124 0.003998
123 0.005984
123 0.00603
130 0.002956
140 0.002992
147 0.002994
154 0.005972
161 0.005973
170 0.002975
174 0.002997
180 0.002992
186 0.003017
168 0.002998
120 0.004985
88 0.004988
82 0.003999
89 0.004001
94 0.003994
97 0.006019
105 0.006019
115 0.002993
117 0.003
117 0.002997
123 0.003989
130 0.00301
138 0.005989
145 0.005991
152 0.004015
157 0.004977
160 0.003991
165 0.005988
169 0.007019
170 0.004993
133 0.003988
92 0.00399
73 0.003976
80 0.002954
85 0.006952
89 0.006946
100 0.002976
107 0.003991
109 0.004009
110 0.006018
113 0.006015
122 0.003992
131 0.003023
139 0.004971
150 0.003991
154 0.004011
159 0.006983
163 0.006981
169 0.002992
174 0.00399
170 0.003985
132 0.006988
93 0.006981
78 0.00399
85 0.003989
93 0.003989
103 0.004987
110 0.004996
116 0.006987
118 0.007021
118 0.004991
121 0.003989
129 0.00395
137 0.003988
146 0.00797
151 0.006951
157 0.003988
161 0.003999
168 0.005036
172 0.004956
174 0.005978
140 0.007979
97 0.007977
78 0.00399
80 0.003984
90 0.004988
98 0.006945
105 0.006976
117 0.005004
121 0.004987
123 0.003983
126 0.00399
133 0.004988
143 0.007979
151 0.007978
161 0.004988
168 0.003989
173 0.004995
181 0.007968
184 0.006993
189 0.004987
194 0.004984
184 0.004029
134 0.004981
92 0.004998
78 0.006985
83 0.007948
88 0.004002
89 0.004986
96 0.005017
107 0.007011
110 0.007963
110 0.00499
113 0.005985
125 0.005993
136 0.005941
144 0.005961
153 0.006981
160 0.006975
164 0.004966
168 0.00499
173 0.004999
178 0.006975
183 0.005985
187 0.004986
161 0.005985
77 0.006987
70 0.005968
76 0.006978
83 0.006985
86 0.006979
95 0.006839
104 0.006966
110 0.004
114 0.007034
118 0.006984
124 0.005984
133 0.006014
149 0.005981
155 0.005026
161 0.005948
170 0.005984
174 0.005986
178 0.005984
184 0.005993
188 0.005997
193 0.005982
187 0.006986
138 0.006971
91 0.006979
76 0.00505
86 0.005951
91 0.006948
98 0.006951
108 0.005938
115 0.005988
117 0.005976
119 0.005985
123 0.005982
129 0.006011
136 0.006018
146 0.005984
151 0.005949
156 0.005974
159 0.005013
163 0.004979
167 0.005988
164 0.005983
108 0.004983
75 0.00502
68 0.005989
76 0.004982
87 0.005984
98 0.005979
109 0.004956
114 0.005981
110 0.005977
109 0.005984
114 0.005984
122 0.005985
134 0.004954
144 0.004963
153 0.004985
162 0.004988
169 0.004986
179 0.004964
190 0.004988
180 0.004984
121 0.004955
77 0.004985
64 0.004968
68 0.004953
76 0.006017
82 0.005973
89 0.004941
95 0.004998
98 0.005015
97 0.005023
100 0.004991
110 0.004989
118 0.003947
127 0.00493
135 0.004992
140 0.004987
147 0.004988
151 0.004953
155 0.004983
161 0.004991
155 0.003998
90 0.00403
50 0.003957
52 0.003963
61 0.003952
68 0.003951
74 0.005
83 0.005047
91 0.005026
94 0.004994
94 0.003945
99 0.004996
106 0.003989
114 0.00399
129 0.003956
135 0.003934
143 0.003958
147 0.004976
152 0.003953
157 0.003989
159 0.003978
107 0.004048
65 0.003959
51 0.003993
57 0.004041
66 0.003987
77 0.003945
87 0.00399
98 0.00399
100 0.00399
102 0.004029
105 0.003956
113 0.003946
124 0.003988
133 0.00399
140 0.002992
146 0.002993
150 0.002992
157 0.002993
163 0.002993
170 0.002953
159 0.002962
110 0.002992
70 0.003952
58 0.004053
70 0.003991
81 0.002992
87 0.002962
95 0.003954
104 0.003989
105 0.003989
105 0.003004
110 0.002973
118 0.002981
128 0.002993
136 0.002982
142 0.002993
149 0.002961
153 0.002984
157 0.003023
162 0.001996
160 0.001996
88 0.001994
63 0.002993
66 0.001996
79 0.001996
89 0.000997
98 0.002993
106 0.002997
110 0.003023
106 0.002031
107 0.001987
113 0.001995
121 0.001995
136 0.001963
144 0.001963
149 0.001991
156 0.003007
161 0.002955
166 0.003
169 0.003003
143 0.002995
74 0.002992
55 0.001995
58 0.001991
66 0.002027
76 0.001956
84 0.001962
93 0.001985
99 0.001975
99 0.002008
102 0.002027
109 0.001964
118 0.001971
132 0.001964
140 0.000994
146 0.000994
151 0.000995
158 0.001964
163 0.000955
168 0.00196
169 0.002011
129 0.001964
76 0.001996
52 0.002025
52 0.001995
62 0.001999
64 0.001994
70 0.001028
80 0.001037
91 0.000997
93 0.000997
97 0.002001
105 0.001992
115 0.001963
125 0.001964
134 0.001987
141 0.000965
151 0.001957
154 0.001033
159 0.001027
166 0.002006
177 0.000944
174 0.001001
127 0.001994
68 0.001963
60 0.002026
66 0.001993
71 0.002001
74 0.002028
86 0.002008
95 0.001997
100 0.001995
103 0.001029
108 0.000953
118 0.0
128 0.000973
141 0.000966
149 0.000975
156 0.001001
162 0.000997
168 0.000982
174 0.000999
178 0.000997
185 0.000997
192 0.000997
143 0.0
90 0.000991
71 0.000997
76 0.0
89 0.0
95 0.0
103 0.0
113 0.0
115 0.0
114 0.0
115 0.001005
121 0.0
135 0.000994
144 0.0
152 0.0
159 0.0
165 0.0
169 0.0
174 0.0
180 0.0
186 0.000983
177 0.0
123 0.0
80 0.0
73 0.0
82 0.0
88 0.000956
96 0.0
107 0.003022
114 0.002995
115 0.0
118 0.0
124 0.0
134 0.002027
144 0.001994
158 0.0
166 0.001991
175 0.000997
180 0.0
181 0.0
184 0.002513
187 0.002988
192 0.00098
198 0.0
183 0.000964
119 0.002048
73 0.002027
62 0.001014
70 0.001967
74 0.000968
79 0.0
91 0.0
101 0.001995
105 0.001996
108 0.0
114 0.0
122 0.000972
132 0.002029
143 0.002985
156 0.0
166 0.002996
173 0.0
179 0.0
185 0.0
191 0.001996
198 0.001985
205 0.002983
213 0.001021
170 0.000997
103 0.000998
75 0.001999
75 0.002029
87 0.001976
92 0.001975
102 0.0
113 0.0
117 0.000975
117 0.002992
119 0.002993
127 0.0
134 0.0
143 0.001001
152 0.002026
159 0.002028
169 0.001995
172 0.002989
180 0.0
186 0.0
192 0.000998
180 0.001992
121 0.003025
69 0.0
67 0.001013
77 0.0
87 0.002028
96 0.002029
112 0.003006
114 0.002993
112 0.0
113 0.0
118 0.0
126 0.003959
137 0.003037
150 0.0
159 0.0
167 0.0
175 0.003036
181 0.002028
192 0.001992
200 0.003011
199 0.0
138 0.0
79 0.0
58 0.002998
60 0.002991
69 0.0
73 0.002023
80 0.001993
89 0.003032
95 0.003992
97 0.003984
99 0.003937
108 0.0
118 0.00299
127 0.0
136 0.002986
145 0.002962
153 0.001995
158 0.001996
163 0.0
169 0.002991
175 0.002992
147 0.002992
86 0.004
53 0.00399
52 0.002997
61 0.002991
67 0.002998
73 0.003986
83 0.003059
94 0.001995
96 0.001991
97 0.001998
101 0.004027
113 0.001994
123 0.003989
132 0.002976
143 0.002994
150 0.002993
155 0.003004
160 0.003998
167 0.00399
169 0.002015
127 0.001993
76 0.002026
55 0.005022
65 0.001993
76 0.003994
83 0.003989
96 0.002006
102 0.000965
102 0.00201
100 0.004999
103 0.004979
112 0.002987
122 0.002991
134 0.002992
142 0.003994
152 0.002995
159 0.003948
166 0.003976
161 0.002994
113 0.003069
71 0.002992
61 0.003993
68 0.003985
84 0.002996
93 0.002032
103 0.002012
109 0.004994
105 0.002996
103 0.005019
108 0.005023
117 0.00299
127 0.002994
135 0.002997
142 0.00397
146 0.003989
154 0.00301
152 0.002979
110 0.002989
62 0.005018
46 0.002991
56 0.005022
66 0.005032
74 0.002954
85 0.004035
90 0.001994
91 0.00502
91 0.005006
100 0.002942
109 0.003035
119 0.002986
127 0.005976
138 0.002996
143 0.005016
148 0.004983
152 0.006027
122 0.002992
68 0.002993
40 0.002001
39 0.006029
46 0.005013
50 0.00296
56 0.002953
67 0.002947
80 0.002993
82 0.003001
83 0.005987
90 0.004986
102 0.002995
112 0.002981
121 0.002977
129 0.006016
135 0.006983
142 0.00399
148 0.00399
134 0.002993
64 0.002994
49 0.002991
52 0.006007
59 0.005993
64 0.002992
73 0.001997
85 0.002986
94 0.005987
95 0.006982
99 0.003985
105 0.003993
113 0.003992
126 0.003025
132 0.003045
135 0.005952
136 0.00598
143 0.002993
150 0.002983
140 0.003956
94 0.005984
58 0.006947
53 0.00399
61 0.004005
67 0.003973
79 0.004201
90 0.003986
94 0.006974
93 0.006982
95 0.004989
103 0.003957
114 0.004002
124 0.005984
133 0.006981
140 0.003989
143 0.003989
150 0.00399
153 0.003987
123 0.002988
81 0.006979
62 0.006994
68 0.003013
77 0.002992
83 0.003989
96 0.007978
102 0.007965
107 0.004987
106 0.003989
109 0.005034
121 0.003954
132 0.003994
140 0.006985
147 0.006976
154 0.003989
157 0.003989
162 0.003993
167 0.004986
165 0.007979
110 0.007975
74 0.004974
66 0.00498
74 0.00498
76 0.00402
81 0.004984
98 0.007978
103 0.006964
107 0.003988
110 0.005017
114 0.005991
121 0.007985
133 0.007982
142 0.005984
149 0.004979
158 0.004021
163 0.00395
167 0.003984
173 0.007975
178 0.007059
150 0.003989
106 0.005037
85 0.004984
83 0.007972
83 0.007937
87 0.004982
90 0.004969
110 0.004983
117 0.004974
120 0.004987
124 0.006975
131 0.006971
141 0.005016
151 0.005984
159 0.005975
165 0.007978
174 0.007021
180 0.006019
184 0.005984
193 0.005972
198 0.004985
203 0.005979
165 0.006985
126 0.006976
110 0.004997
112 0.005991
116 0.005983
121 0.006945
126 0.00798
139 0.006947
145 0.006975
146 0.006979
148 0.006019
155 0.005973
166 0.006976
173 0.006983
179 0.006035
185 0.006016
188 0.005981
194 0.006982
198 0.006019
206 0.005979
210 0.005982
167 0.005983
135 0.005944
126 0.005983
132 0.006338
139 0.006016
143 0.005982
152 0.006016
159 0.006014
160 0.005989
159 0.006016
160 0.006014
166 0.005977
176 0.005985
184 0.005016
187 0.005979
192 0.006018
198 0.005989
202 0.005984
208 0.005985
211 0.005984
215 0.00598
221 0.005945
209 0.006017
152 0.005977
122 0.005969
121 0.005988
124 0.005982
124 0.005018
126 0.004988
133 0.005019
139 0.004987
139 0.004992
141 0.004987
144 0.00603
150 0.005985
160 0.005984
169 0.005989
175 0.005981
179 0.004991
183 0.005004
186 0.004985
188 0.005023
194 0.005008
199 0.004986
198 0.008947
159 0.004982
144 0.005984
98 0.005984
100 0.004955
101 0.004931
104 0.006033
109 0.004975
116 0.004983
119 0.004986
119 0.005022
121 0.004988
127 0.004948
134 0.003953
141 0.005014
151 0.005001
157 0.003932
163 0.004981
167 0.005033
171 0.004996
176 0.004989
181 0.004987
184 0.004982
157 0.004977
115 0.00499
93 0.005022
91 0.004027
98 0.003985
104 0.003987
111 0.003995
117 0.003996
119 0.003998
119 0.004014
119 0.003978
123 0.004034
133 0.003983
141 0.005004
147 0.00499
152 0.004987
157 0.004033
165 0.003984
169 0.003956
165 0.003989
130 0.00396
96 0.003987
85 0.004024
90 0.004031
100 0.003989
107 0.004023
116 0.00399
122 0.00399
123 0.00399
122 0.004021
126 0.003962
135 0.003027
144 0.00394
152 0.003973
160 0.002992
167 0.002988
176 0.003025
184 0.003026
195 0.003026
200 0.002984
175 0.003023
112 0.002986
103 0.002992
110 0.002991
115 0.002996
116 0.003959
120 0.004003
124 0.00399
125 0.003957
123 0.003965
123 0.002992
126 0.003989
133 0.002992
145 0.002994
150 0.002991
155 0.002999
156 0.002995
161 0.002992
161 0.002991
131 0.002982
77 0.003036
62 0.003044
63 0.003023
70 0.002025
73 0.002029
82 0.001969
88 0.001998
90 0.002986
91 0.002999
96 0.003031
105 0.003
115 0.003029
126 0.003015
133 0.003025
140 0.002995
146 0.002996
153 0.001995
157 0.001996
122 0.001994
84 0.001995
70 0.00199
77 0.002033
85 0.002025
91 0.002017
98 0.001992
107 0.001983
105 0.002033
104 0.002025
106 0.002
115 0.001995
122 0.002004
130 0.001983
139 0.002004
144 0.001995
149 0.001996
146 0.002026
112 0.001026
70 0.000998
65 0.001997
73 0.002035
83 0.001996
96 0.002011
105 0.001996
107 0.002108
107 0.001965
108 0.001978
114 0.001993
123 0.000998
132 0.000998
141 0.001984
149 0.000995
156 0.002006
160 0.001994
168 0.001995
147 0.001995
102 0.00101
67 0.001994
67 0.002031
74 0.00198
78 0.001982
81 0.001003
91 0.00103
97 0.001048
99 0.001995
100 0.001972
109 0.00198
118 0.001996
126 0.0
138 0.001962
145 0.000995
152 0.000995
157 0.000997
161 0.000998
167 0.001991
145 0.001004
101 0.002041
73 0.002041
75 0.000981
81 0.000995
85 0.001012
94 0.001
103 0.000998
107 0.0
109 0.0
111 0.0
119 0.0
127 0.0
136 0.0
145 0.0
155 0.0
160 0.0
163 0.000966
168 0.0
175 0.000997
178 0.000964
161 0.000997
116 0.0
86 0.0
82 0.0
91 0.0
97 0.0
106 0.0
114 0.0
118 0.0
118 0.0
120 0.000998
126 0.000983
134 0.000989
142 0.00101
149 0.000997
155 0.0
159 0.001991
164 0.000974
169 0.002981
176 0.0
167 0.0
127 0.000997
94 0.003017
86 0.003025
97 0.0
104 0.0
111 0.0
119 0.003029
126 0.002997
125 0.0
127 0.002993
135 0.0
142 0.001011
150 0.0
157 0.002025
162 0.002027
166 0.0
171 0.000986
174 0.001023
179 0.002963
182 0.001995
187 0.0
147 0.002998
90 0.0
76 0.0
77 0.0
83 0.003025
88 0.003024
95 0.0
104 0.0
110 0.0
110 0.003024
111 0.002994
119 0.0
129 0.003016
140 0.0
147 0.0
163 0.0
184 0.003039
206 0.002999
219 0.0
222 0.00095
224 0.000976
216 0.000996
171 0.001993
123 0.00203
98 0.002995
103 0.002996
111 0.0
115 0.00099
124 0.000987
130 0.002032
132 0.002992
134 0.0
139 0.0
145 0.000966
154 0.003037
162 0.002996
