124 0.012934
127 0.003011
111 0.000997
104 0.002026
113 0.002013
124 0.001947
141 0.0
153 0.000994
162 0.001033
114 0.002003
34 0.00395
27 0.005019
64 0.006025
106 0.006026
117 0.005982
104 0.006019
97 0.007017
102 0.005987
120 0.006982
131 0.006981
147 0.007016
159 0.007009
139 0.006001
62 0.006981
24 0.006018
51 0.005983
89 0.006945
117 0.005986
115 0.007017
98 0.005983
98 0.00602
112 0.005984
123 0.005946
142 0.005983
156 0.004987
159 0.004986
79 0.002958
35 0.002994
48 0.002992
97 0.002992
115 0.002999
130 0.003027
108 0.003025
103 0.002028
112 0.001991
131 0.000998
141 0.001014
156 0.000989
163 0.000997
88 0.000995
36 0.0
46 0.000997
82 0.0
121 0.0
133 0.0
110 0.0
103 0.0
113 0.0
132 0.000998
143 0.001996
158 0.001863
158 0.001995
67 0.001963
23 0.006034
58 0.006981
88 0.007019
111 0.007979
112 0.006016
100 0.005028
96 0.005024
108 0.003982
124 0.004985
142 0.003987
152 0.003017
134 0.002989
41 0.0
20 0.0
40 0.0
86 0.0
107 0.0
106 0.0
93 0.002962
95 0.002961
113 0.004946
133 0.004986
142 0.004987
155 0.006019
159 0.006944
83 0.007013
28 0.006978
40 0.00698
87 0.006981
116 0.006831
120 0.00801
106 0.007942
101 0.007963
109 0.006985
129 0.00698
141 0.006981
155 0.006944
161 0.007947
171 0.005984
126 0.004924
59 0.003964
53 0.001033
101 0.001023
129 0.000999
139 0.000999
116 0.000997
112 0.001995
121 0.000988
131 0.001027
147 0.000952
159 0.0
167 0.0
170 0.000998
85 0.001009
55 0.000998
74 0.000998
105 0.001038
150 0.000998
149 0.000996
128 0.001003
122 0.001013
136 0.001004
149 0.000999
166 0.001996
174 0.001996
186 0.001963
118 0.003958
63 0.004022
46 0.003989
91 0.005035
119 0.006031
137 0.00602
127 0.005989
113 0.006024
123 0.00698
136 0.006027
156 0.006922
167 0.006018
177 0.006977
177 0.007979
130 0.007973
40 0.007978
44 0.007944
72 0.005982
117 0.005984
127 0.002992
117 0.003991
108 0.003027
122 0.003
135 0.003003
151 0.003022
163 0.002992
176 0.002992
169 0.003979
108 0.002992
36 0.002992
47 0.00199
87 0.002985
130 0.002992
136 0.002992
120 0.0
118 0.001995
139 0.0
150 0.0
164 0.0
178 0.0
168 0.0
74 0.0
46 0.0
67 0.0
121 0.0
147 0.0
138 0.0
114 0.0
114 0.0
131 0.0
143 0.0
161 0.000998
176 0.002
152 0.001959
57 0.001995
38 0.001996
69 0.002969
113 0.002986
145 0.002954
134 0.002992
110 0.004027
110 0.004026
127 0.00399
148 0.005985
159 0.006019
172 0.005984
131 0.006068
34 0.005984
28 0.006018
55 0.006018
103 0.00599
118 0.005985
104 0.006982
91 0.006979
96 0.006981
117 0.007014
134 0.007016
149 0.007018
150 0.006936
74 0.007008
16 0.006944
28 0.007015
56 0.006986
99 0.006978
106 0.006981
93 0.007979
83 0.006977
89 0.005984
107 0.004023
132 0.002041
140 0.003011
140 0.002024
46 0.001983
16 0.002001
38 0.002027
68 0.002028
109 0.002034
106 0.002024
92 0.00194
86 0.001986
93 0.002031
115 0.001961
135 0.0
144 0.0
144 0.0
73 0.0
28 0.0
41 0.0
84 0.0
123 0.001006
118 0.002993
100 0.002992
93 0.001982
110 0.003025
123 0.002851
142 0.003003
153 0.004028
118 0.005023
33 0.004988
25 0.005
67 0.004986
117 0.006022
124 0.007012
105 0.007972
93 0.007978
96 0.007979
120 0.007979
134 0.007978
147 0.007964
145 0.007016
87 0.00698
14 0.00503
27 0.005024
56 0.00502
99 0.005985
108 0.004987
88 0.004025
89 0.002028
100 0.002024
122 0.002027
139 0.001003
151 0.000965
138 0.0
40 0.000998
11 0.000997
37 0.001009
74 0.001995
102 0.001989
101 0.002026
88 0.00197
88 0.001977
107 0.001995
122 0.001911
140 0.002028
149 0.002031
161 0.003023
114 0.004024
53 0.004042
22 0.004023
66 0.004957
95 0.004996
119 0.005017
111 0.005024
94 0.004989
105 0.006015
118 0.007018
136 0.006986
149 0.007019
158 0.005031
165 0.004987
165 0.003993
114 0.00399
44 0.004026
55 0.004025
97 0.003987
145 0.002992
144 0.003989
114 0.00298
110 0.003043
121 0.002992
144 0.002996
152 0.003026
167 0.00299
181 0.001985
173 0.002013
97 0.00299
46 0.001998
65 0.00203
110 0.00208
146 0.000982
146 0.00203
119 0.000997
116 0.001995
132 0.001037
147 0.001029
167 0.001003
182 0.0
189 0.000997
161 0.0
91 0.000999
32 0.0
54 0.000989
85 0.001031
129 0.000998
130 0.001958
116 0.002962
111 0.002993
130 0.004952
144 0.005955
165 0.006018
180 0.006005
187 0.005976
153 0.00602
85 0.006023
35 0.006975
62 0.006982
94 0.00708
134 0.006981
144 0.00798
130 0.006966
117 0.007021
125 0.007011
148 0.006986
171 0.006024
181 0.005984
194 0.005998
190 0.004025
128 0.00404
50 0.003033
63 0.003025
121 0.002968
167 0.00399
172 0.003026
143 0.004025
131 0.003027
139 0.002992
161 0.002006
175 0.001031
194 0.000997
205 0.0
155 0.001028
72 0.0
58 0.0
86 0.0
150 0.0
179 0.0
164 0.000997
134 0.000998
134 0.000997
153 0.001029
168 0.000873
192 0.002953
207 0.002992
158 0.003008
46 0.004026
38 0.004982
69 0.006016
129 0.005984
155 0.005993
138 0.005981
116 0.006018
116 0.005984
132 0.005979
158 0.006016
172 0.006953
189 0.00797
137 0.00697
62 0.007031
19 0.005023
61 0.00502
85 0.004986
140 0.005016
135 0.005022
108 0.003996
109 0.005026
116 0.005022
142 0.005026
166 0.002994
183 0.002036
157 0.002992
63 0.002027
21 0.003028
54 0.002029
91 0.001964
142 0.001037
136 0.0
112 0.001002
104 0.000855
117 0.001038
138 0.000997
161 0.000997
174 0.000997
179 0.000991
78 0.000998
39 0.000998
52 0.001995
87 0.001961
148 0.001045
147 0.001956
123 0.003992
108 0.005035
124 0.005978
139 0.007023
162 0.007016
175 0.007978
167 0.006014
80 0.006983
30 0.005976
45 0.00603
105 0.006017
141 0.005028
142 0.005025
108 0.004026
103 0.00499
119 0.004018
135 0.005069
158 0.004024
172 0.003996
123 0.004021
21 0.00203
20 0.001998
52 0.002018
107 0.0
119 0.000964
100 0.0
85 0.001023
92 0.0
112 0.0
138 0.0
151 0.0
146 0.000998
80 0.0
3 0.0
15 0.0
55 0.001001
92 0.001994
100 0.001995
86 0.002993
77 0.002952
86 0.003002
111 0.002993
135 0.005023
146 0.005034
124 0.004983
25 0.005032
5 0.005023
39 0.005982
80 0.006032
105 0.006871
97 0.006982
81 0.007017
83 0.007014
104 0.007021
115 0.006969
136 0.007021
151 0.005961
154 0.00693
74 0.006005
28 0.00701
32 0.005953
84 0.004971
114 0.004972
114 0.005013
96 0.005023
87 0.004019
107 0.003026
122 0.002027
141 0.002029
152 0.00303
158 0.002045
107 0.001994
33 0.001018
33 0.0
81 0.0
115 0.0
128 0.0
104 0.002031
94 0.002992
106 0.004022
131 0.004986
144 0.004999
158 0.004894
166 0.005981
132 0.004991
37 0.006015
30 0.006978
48 0.00708
96 0.004993
115 0.005021
103 0.003967
89 0.004023
95 0.004032
118 0.003967
137 0.005038
149 0.004022
158 0.003982
162 0.004031
121 0.004024
30 0.004024
19 0.004026
56 0.00399
98 0.001052
109 0.00203
96 0.000983
89 0.000997
96 0.002001
120 0.002001
142 0.001997
151 0.002956
162 0.003991
171 0.003951
151 0.004994
56 0.005985
32 0.00602
61 0.006024
111 0.006951
130 0.006948
120 0.006979
103 0.006968
103 0.00599
120 0.006983
142 0.005982
156 0.006967
167 0.006987
172 0.006977
182 0.006017
138 0.003992
80 0.004987
54 0.001945
98 0.002027
132 0.002042
156 0.000988
126 0.0
117 0.001006
123 0.000998
138 0.000999
163 0.000997
178 0.000998
184 0.001995
193 0.002954
124 0.002993
68 0.004042
52 0.005024
88 0.005076
121 0.006019
151 0.00702
129 0.00689
118 0.00698
126 0.006982
135 0.007939
165 0.007974
179 0.006927
186 0.006977
195 0.006981
180 0.007181
75 0.007015
39 0.006981
59 0.006984
110 0.007014
135 0.007014
133 0.006099
114 0.007015
113 0.006017
129 0.004988
156 0.003028
168 0.002992
183 0.000998
191 0.000996
198 0.000998
138 0.002992
49 0.003987
44 0.003989
90 0.004022
143 0.003934
155 0.003962
130 0.004005
116 0.005023
124 0.005023
150 0.005986
170 0.006934
180 0.004999
193 0.004975
200 0.004989
169 0.004986
86 0.00602
59 0.004985
84 0.006019
149 0.005983
181 0.005998
166 0.003989
140 0.004013
129 0.004028
143 0.00402
166 0.003852
189 0.001992
206 0.001958
203 0.001996
98 0.001992
57 0.002033
65 0.001984
126 0.002013
164 0.001957
169 0.001986
144 0.001989
124 0.002002
135 0.001994
151 0.000998
178 0.0
198 0.0
204 0.0
105 0.0
46 0.0
35 0.0
78 0.0
125 0.0
147 0.0
129 0.0
107 0.001995
113 0.002992
128 0.003963
156 0.005984
176 0.006976
185 0.006989
146 0.006017
39 0.005968
19 0.005986
55 0.006017
109 0.003984
128 0.002997
118 0.004024
95 0.003989
99 0.002991
118 0.004026
141 0.002994
159 0.002106
174 0.00199
169 0.001958
68 0.0
23 0.0
40 0.0
85 0.002034
132 0.003971
130 0.005084
99 0.004974
97 0.006981
109 0.007018
136 0.006982
157 0.007014
166 0.007012
167 0.006996
114 0.00698
39 0.007012
48 0.007012
79 0.007928
132 0.005987
151 0.005976
126 0.005984
100 0.005986
105 0.005985
130 0.006127
155 0.004986
166 0.004025
174 0.003049
87 0.003026
38 0.002996
38 0.003025
95 0.001993
130 0.000997
138 0.000998
105 0.001029
96 0.001024
110 0.000981
127 0.000996
152 0.000998
168 0.000998
174 0.000997
107 0.000997
43 0.000997
15 0.000941
51 0.001995
93 0.001996
115 0.002031
98 0.003025
86 0.002985
93 0.002992
108 0.002995
134 0.002979
152 0.002993
159 0.004023
158 0.004954
59 0.005985
17 0.006981
30 0.007945
72 0.005984
100 0.005013
111 0.004972
99 0.004981
88 0.005022
101 0.005971
124 0.005016
143 0.005983
157 0.006017
164 0.006014
173 0.005985
176 0.005987
91 0.006019
28 0.001992
39 0.002984
95 0.002028
138 0.001994
131 0.002106
101 0.002027
97 0.000985
118 0.0
147 0.0
160 0.0
168 0.0
175 0.001034
181 0.001984
176 0.002943
78 0.00399
47 0.005021
69 0.004964
118 0.005029
162 0.006014
153 0.00595
120 0.005986
111 0.006017
131 0.006016
149 0.006033
172 0.006947
181 0.006964
191 0.007012
192 0.006074
141 0.006981
45 0.005984
48 0.006014
80 0.00501
139 0.004998
145 0.005015
123 0.004023
106 0.004023
110 0.004026
144 0.002981
164 0.003989
175 0.003954
186 0.003991
194 0.001993
157 0.002028
46 0.000963
22 0.001995
57 0.0
102 0.0
128 0.0
125 0.001036
101 0.002992
101 0.002993
123 0.003025
153 0.00296
167 0.002994
179 0.002993
185 0.00402
191 0.003992
100 0.004034
43 0.003995
35 0.004963
78 0.004977
122 0.004993
143 0.005021
125 0.005018
105 0.004985
114 0.005026
131 0.004987
161 0.00595
174 0.004976
186 0.00502
195 0.005984
200 0.006014
121 0.005982
63 0.005991
51 0.005984
107 0.005985
149 0.005985
173 0.006019
130 0.005985
119 0.007971
122 0.007015
145 0.007013
168 0.00397
183 0.005984
195 0.005178
204 0.003057
137 0.002992
72 0.002992
46 0.001996
97 0.0
139 0.000995
176 0.0
136 0.0
118 0.0
120 0.000998
148 0.000981
166 0.0
188 0.001994
196 0.003955
194 0.002926
75 0.004018
29 0.00398
38 0.004027
97 0.003481
131 0.003988
136 0.004025
115 0.004034
98 0.004987
111 0.004978
134 0.00599
157 0.005923
176 0.007013
183 0.00798
153 0.00798
57 0.007974
16 0.007973
46 0.006016
80 0.007949
126 0.007018
113 0.005015
97 0.003979
95 0.003973
109 0.003977
139 0.004032
162 0.003994
172 0.003989
177 0.004209
102 0.004019
32 0.002028
28 0.003023
68 0.002008
115 0.003029
136 0.001028
117 0.002024
94 0.001029
103 0.0
124 0.0
146 0.0
163 0.0
175 0.000998
166 0.001963
105 0.003
40 0.004036
65 0.004976
103 0.005015
161 0.005022
137 0.006031
112 0.006981
107 0.006987
132 0.006963
149 0.006983
168 0.006989
180 0.006982
176 0.007011
72 0.007982
43 0.007979
39 0.005967
96 0.004992
132 0.005959
140 0.004991
117 0.005984
99 0.005001
116 0.005021
135 0.005027
161 0.00498
171 0.004031
179 0.00399
91 0.003992
33 0.003994
21 0.002995
61 0.003026
104 0.000997
121 0.00097
97 0.000998
87 0.000998
97 0.00099
114 0.000997
141 0.0
157 0.0
169 0.000998
144 0.003043
42 0.005022
18 0.005023
48 0.00499
102 0.004979
123 0.004988
111 0.005027
97 0.005101
98 0.004971
123 0.006973
140 0.006971
158 0.006996
173 0.005013
179 0.004989
117 0.004983
47 0.005984
38 0.005021
76 0.005993
125 0.003958
151 0.006019
122 0.00619
106 0.005975
112 0.004987
129 0.004972
156 0.005021
175 0.003001
184 0.002997
184 0.002024
90 0.000997
53 0.000988
67 0.000989
115 0.000998
154 0.000998
159 0.002981
117 0.002993
110 0.003047
128 0.004993
157 0.005016
171 0.005021
186 0.007009
174 0.006977
87 0.006984
34 0.006982
45 0.007009
77 0.007979
134 0.005991
144 0.005969
112 0.006023
99 0.004997
109 0.005985
138 0.003031
161 0.002036
169 0.001997
174 0.001968
128 0.001013
29 0.002042
27 0.0
56 0.0009
97 0.000998
116 0.001004
103 0.001008
86 0.001996
101 0.003026
118 0.003026
142 0.003044
152 0.002947
164 0.004033
157 0.004033
80 0.003984
23 0.006025
39 0.006982
70 0.007014
118 0.006982
119 0.006991
104 0.006982
92 0.006022
101 0.006981
130 0.005016
154 0.006024
161 0.006017
169 0.005013
178 0.005984
172 0.004981
92 0.005984
41 0.002991
52 0.00201
110 0.002036
145 0.001995
145 0.001961
113 0.0
105 0.001
120 0.0
151 0.001995
166 0.002
178 0.001906
187 0.00399
191 0.00403
125 0.004025
70 0.004023
53 0.004024
105 0.003948
145 0.003993
167 0.005991
126 0.007014
116 0.006989
122 0.005984
146 0.006982
169 0.006002
182 0.007018
191 0.006015
197 0.006982
120 0.006981
58 0.005984
34 0.005992
84 0.00399
118 0.003989
144 0.002993
128 0.003987
103 0.002958
114 0.003028
133 0.001986
161 0.000966
175 0.0
181 0.001995
191 0.001999
131 0.002043
63 0.003027
25 0.002993
69 0.002988
102 0.003029
137 0.003026
128 0.003019
103 0.002959
106 0.003042
125 0.003042
151 0.003046
170 0.004029
182 0.003948
192 0.004021
197 0.005021
114 0.006021
44 0.006989
35 0.007978
81 0.005026
143 0.004959
160 0.004958
132 0.004017
111 0.003968
119 0.003993
149 0.003989
166 0.003988
189 0.004103
199 0.004955
208 0.003994
185 0.005024
94 0.003024
55 0.003027
87 0.001994
145 0.0
194 0.000998
181 0.002
139 0.001992
125 0.001994
144 0.001965
164 0.002025
194 0.003956
213 0.006018
217 0.006017
115 0.005944
46 0.006984
54 0.006992
115 0.007018
159 0.007013
183 0.006954
135 0.007016
122 0.007012
134 0.006974
153 0.007944
178 0.004989
198 0.006981
212 0.00502
162 0.005951
41 0.006019
21 0.005983
58 0.005984
124 0.002994
151 0.003006
131 0.003027
109 0.003026
104 0.002995
131 0.001052
150 0.001004
172 0.0
190 0.002993
141 0.005022
66 0.005036
16 0.005987
44 0.007013
82 0.007015
130 0.007015
134 0.005951
112 0.005986
95 0.004986
102 0.004987
130 0.001994
158 0.0
177 0.0
182 0.0
115 0.003053
29 0.003959
25 0.003984
75 0.003991
113 0.004019
145 0.003956
114 0.00404
100 0.003991
109 0.003024
141 0.005014
159 0.005008
182 0.005018
191 0.005024
140 0.005988
57 0.00602
35 0.005985
67 0.005988
135 0.007016
157 0.007953
147 0.006022
111 0.00396
108 0.003992
130 0.001987
161 0.000996
176 0.0
195 0.0
195 0.0
99 0.0
50 0.0
56 0.0
113 0.000997
181 0.001966
181 0.002004
130 0.002029
116 0.002994
127 0.003929
160 0.004986
182 0.006018
199 0.006978
193 0.007978
82 0.007959
39 0.007843
57 0.007979
95 0.007979
169 0.007958
155 0.003984
126 0.004986
109 0.003994
132 0.002994
151 0.001994
179 0.002028
192 0.002025
136 0.001998
31 0.002116
19 0.0
62 0.001038
111 0.001006
138 0.0
117 0.0
93 0.001039
96 0.002003
123 0.002029
142 0.001996
167 0.001996
177 0.001998
118 0.00196
35 0.001962
20 0.003032
47 0.003992
104 0.002957
125 0.002992
109 0.004033
91 0.003955
98 0.003957
124 0.003877
142 0.00402
163 0.00399
178 0.003982
168 0.004
62 0.005013
25 0.005979
46 0.007942
81 0.007012
142 0.007945
141 0.006022
110 0.005017
102 0.003988
114 0.004987
144 0.004065
160 0.005017
177 0.002047
189 0.001995
190 0.00103
96 0.000997
45 0.001
60 0.000999
123 0.000996
164 0.00202
164 0.001041
126 0.001011
112 0.0
126 0.001964
157 0.002996
173 0.002993
188 0.003988
197 0.002955
191 0.005987
104 0.006029
39 0.006977
48 0.007011
109 0.00797
164 0.005984
172 0.005984
129 0.003985
112 0.005983
121 0.005017
154 0.004037
173 0.003992
192 0.001997
202 0.001979
196 0.002003
79 0.002035
31 0.001036
36 0.002028
83 0.001996
131 0.0
145 0.002051
110 0.002031
99 0.00204
112 0.001987
131 0.001001
163 0.000998
180 0.0
186 0.000955
196 0.0
181 0.000998
64 0.00096
22 0.0
43 0.0
105 0.0
149 0.0
144 0.0
111 0.001995
102 0.001995
119 0.003991
154 0.003981
172 0.00499
188 0.006024
197 0.005953
204 0.005977
193 0.006013
98 0.007979
43 0.006016
64 0.007981
118 0.006982
161 0.006019
176 0.005979
147 0.006983
116 0.00599
133 0.004984
153 0.005984
184 0.005016
202 0.004025
208 0.003022
218 0.002025
184 0.002025
69 0.001992
53 0.001998
82 0.002
158 0.001963
198 0.002994
171 0.002005
131 0.003107
124 0.002025
145 0.000966
180 0.002031
197 0.001995
217 0.001002
228 0.0
165 0.0
43 0.0
25 0.0
54 0.0
125 0.0
165 0.0
158 0.0
130 0.0
111 0.0
134 0.002001
155 0.001993
186 0.002993
205 0.00399
212 0.00502
186 0.006016
50 0.007038
23 0.006986
21 0.007979
95 0.007946
123 0.007974
157 0.007979
136 0.007915
102 0.008006
110 0.005976
129 0.006975
164 0.005971
180 0.006981
194 0.004991
204 0.004982
209 0.005168
104 0.005037
22 0.004988
25 0.004981
85 0.005018
128 0.005032
166 0.003959
132 0.005024
103 0.002996
105 0.003986
136 0.002992
159 0.002992
184 0.003033
193 0.003031
202 0.002991
207 0.000994
152 0.002992
46 0.000996
36 0.001995
82 0.001003
159 0.001014
189 0.001982
151 0.0
114 0.0
109 0.0
135 0.0
156 0.0
184 0.000998
199 0.001012
206 0.000992
177 0.000997
55 0.001017
30 0.000998
60 0.000996
102 0.000993
172 0.000998
168 0.000996
123 0.00096
106 0.000997
119 0.003008
146 0.00395
177 0.003988
191 0.003958
206 0.004028
136 0.003953
53 0.006006
6 0.00599
36 0.007014
76 0.005987
139 0.005984
127 0.004989
101 0.003986
88 0.003992
100 0.00399
134 0.00199
160 0.00399
175 0.003025
185 0.003998
165 0.004025
84 0.003989
4 0.004027
8 0.004037
62 0.002017
124 0.001036
133 0.002008
98 0.0
82 0.0
89 0.001003
120 0.001027
153 0.000999
167 0.001023
180 0.000993
187 0.000998
125 0.000995
25 0.000909
15 0.001031
59 0.000999
101 0.000998
150 0.002994
118 0.004025
97 0.004039
97 0.00399
120 0.004024
149 0.004002
170 0.003964
182 0.003956
192 0.004981
161 0.006023
87 0.007012
33 0.007977
55 0.005981
95 0.006978
167 0.004995
157 0.003989
122 0.003992
102 0.004022
118 0.00495
146 0.003986
169 0.004986
184 0.003181
194 0.005045
161 0.004986
82 0.003981
21 0.002992
33 0.002992
96 0.002995
159 0.001052
155 0.002992
109 0.002033
99 0.000983
112 0.0
141 0.000998
170 0.002942
181 0.002959
193 0.002987
152 0.004021
69 0.00502
4 0.006981
36 0.006984
74 0.006995
131 0.006984
130 0.006981
101 0.006967
84 0.007033
94 0.006984
120 0.007985
148 0.006984
167 0.007979
180 0.007968
185 0.007986
174 0.006981
53 0.004016
13 0.005983
25 0.003987
60 0.005994
121 0.003994
127 0.004113
106 0.003997
88 0.003987
109 0.003991
131 0.004021
164 0.003031
175 0.003987
185 0.003016
192 0.004003
197 0.001998
129 0.003989
32 0.001032
24 0.001028
72 0.001007
115 0.001008
165 0.001033
129 0.000996
106 0.000997
102 0.0
131 0.000995
154 0.000997
183 0.000946
192 0.001002
202 0.001995
210 0.002034
169 0.001998
58 0.001995
47 0.003027
77 0.003992
153 0.003927
188 0.003991
157 0.004036
112 0.005036
112 0.003955
140 0.003958
168 0.00399
190 0.006034
201 0.00785
209 0.006981
207 0.006982
84 0.007015
32 0.005987
30 0.005945
94 0.004023
138 0.005984
167 0.004029
120 0.003998
103 0.00398
114 0.003995
135 0.003994
171 0.00399
194 0.003994
203 0.004029
208 0.003019
147 0.003984
26 0.002027
10 0.002991
47 0.001113
104 0.002029
152 0.002044
138 0.001996
98 0.000995
95 0.0
117 0.000997
149 0.000983
176 0.001005
194 0.000997
207 0.001022
194 0.001995
63 0.003959
17 0.00403
35 0.003937
103 0.00399
163 0.005984
155 0.005984
107 0.006018
97 0.006018
115 0.005969
143 0.006018
168 0.007014
187 0.007021
200 0.006985
199 0.005964
87 0.004987
31 0.003993
43 0.003989
108 0.000997
177 0.001045
171 0.001028
116 0.000994
103 0.001157
117 0.000995
149 0.002002
169 0.001993
191 0.000997
195 0.001027
113 0.0
19 0.0
27 0.002992
65 0.003992
137 0.005042
151 0.004963
115 0.005998
92 0.006028
97 0.00602
122 0.005977
156 0.006018
171 0.006015
186 0.005986
154 0.006026
29 0.005984
0 0.005904
23 0.005986
87 0.006986
119 0.00698
109 0.006949
77 0.006969
76 0.006947
101 0.006985
129 0.007029
146 0.006018
166 0.004965
173 0.004024
101 0.00103
21 0.002
11 0.002026
41 0.00197
108 0.002023
133 0.002027
110 0.001
87 0.002048
89 0.002063
111 0.002028
144 0.002001
158 0.002012
175 0.001995
185 0.002993
147 0.002992
42 0.00298
25 0.002995
64 0.002994
138 0.004983
167 0.004986
135 0.00502
99 0.004966
101 0.005982
130 0.005002
150 0.004987
176 0.006022
188 0.00695
193 0.007015
137 0.007979
36 0.007942
24 0.00696
69 0.006023
143 0.003031
168 0.00502
132 0.002987
108 0.005017
108 0.002991
139 0.002016
159 0.001005
183 0.00203
196 0.0
193 0.000998
72 0.000999
6 0.000961
16 0.000995
76 0.002051
116 0.00103
133 0.000967
96 0.001995
87 0.003029
97 0.002988
130 0.003021
150 0.002992
172 0.003017
181 0.003024
178 0.003
60 0.003028
15 0.004987
22 0.004987
71 0.006981
111 0.006971
139 0.006985
104 0.006004
92 0.005016
105 0.005018
125 0.004155
160 0.003959
179 0.006019
191 0.003987
197 0.005982
102 0.005019
44 0.00502
30 0.005023
61 0.00502
133 0.005018
168 0.003029
144 0.002022
108 0.0
118 0.0
131 0.0
166 0.002039
192 0.003999
203 0.00399
214 0.003998
122 0.006017
62 0.006017
50 0.005984
110 0.006016
160 0.006016
194 0.005985
163 0.006049
119 0.00597
122 0.00798
139 0.00598
166 0.007013
195 0.006017
208 0.00502
161 0.005032
45 0.00198
28 0.002996
68 0.001001
128 0.001009
177 0.001013
158 0.0
126 0.0
109 0.00099
133 0.001991
154 0.001994
184 0.001995
203 0.00305
165 0.003991
33 0.003961
4 0.002991
34 0.00502
102 0.004991
135 0.004985
120 0.005024
91 0.00499
87 0.004877
106 0.004991
133 0.004985
158 0.005038
178 0.004985
172 0.004989
57 0.007012
2 0.006981
17 0.00798
64 0.004985
125 0.002997
129 0.00299
96 0.002026
88 0.000963
100 0.000985
133 0.001
152 0.002
173 0.000999
184 0.002029
144 0.0
52 0.001021
21 0.0
43 0.0
111 0.0
148 0.0
135 0.0
103 0.000999
97 0.003066
115 0.00197
149 0.002991
164 0.002993
183 0.003039
193 0.005009
159 0.00498
55 0.006977
42 0.006987
59 0.004947
131 0.003979
177 0.003986
153 0.002008
110 0.000996
109 0.002991
131 0.001994
157 0.002992
174 0.003021
193 0.003194
155 0.001006
77 0.002333
22 0.000975
45 0.0
85 0.0
153 0.001003
156 0.0
113 0.0
99 0.0
111 0.0
145 0.0
164 0.0
185 0.00096
164 0.000997
84 0.000998
9 0.001006
33 0.001031
69 0.001011
129 0.000999
131 0.000999
98 0.000997
88 0.001997
102 0.002004
128 0.001965
154 0.001998
171 0.002026
175 0.003969
117 0.003998
22 0.003992
24 0.004006
59 0.003993
124 0.003983
141 0.003804
114 0.00502
97 0.004983
104 0.004986
135 0.005019
155 0.005019
179 0.004953
192 0.00602
157 0.006975
64 0.006981
29 0.006977
52 0.007002
106 0.007946
159 0.00695
145 0.007976
112 0.007978
105 0.007978
129 0.007982
157 0.004974
173 0.006018
193 0.003989
178 0.002985
109 0.001991
42 0.002004
48 0.001997
93 0.0
167 0.0
159 0.000998
127 0.001958
107 0.001998
116 0.002011
148 0.001992
176 0.002992
188 0.003005
132 0.004989
47 0.006017
24 0.006982
54 0.007014
120 0.006979
145 0.006876
119 0.007015
98 0.007016
97 0.006978
125 0.006974
144 0.007012
165 0.006977
170 0.007978
100 0.006984
19 0.003993
17 0.00398
62 0.003008
115 0.0
119 0.002034
93 0.001994
85 0.002989
98 0.0
122 0.001141
150 0.001027
161 0.00203
142 0.001
81 0.001995
21 0.002001
47 0.0
79 0.001995
126 0.0
122 0.0
97 0.000979
96 0.0
108 0.0
136 0.0
161 0.001989
172 0.001994
159 0.001996
65 0.003002
39 0.002997
63 0.00499
98 0.004989
151 0.005985
138 0.005982
111 0.006
107 0.006016
129 0.005988
147 0.005982
171 0.006018
182 0.006024
173 0.006015
78 0.005982
49 0.006979
60 0.005982
122 0.003979
161 0.004002
152 0.001994
114 0.001997
112 0.001038
134 0.001032
152 0.000984
176 0.0
188 0.002029
164 0.0
74 0.0
30 0.0
48 0.0
107 0.001995
146 0.001998
130 0.001993
105 0.002993
105 0.004983
119 0.004998
150 0.006017
169 0.006981
179 0.007979
139 0.003994
42 0.002987
25 0.003087
60 0.002036
116 0.000982
132 0.000998
113 0.001996
101 0.001011
108 0.001994
128 0.003992
151 0.0
169 0.0
176 0.0
132 0.0
45 0.0
35 0.000997
75 0.002955
122 0.002992
144 0.002992
126 0.003005
110 0.003
115 0.002992
140 0.005014
167 0.005007
178 0.006987
189 0.006982
146 0.005981
89 0.005986
57 0.002974
98 0.001991
136 0.001031
165 0.0
140 0.0
125 0.0
129 0.0
155 0.00103
171 0.002045
191 0.004029
198 0.004953
153 0.004948
91 0.005031
77 0.005028
107 0.005023
165 0.004988
179 0.004987
149 0.005032
135 0.005981
142 0.006985
167 0.006974
181 0.006981
197 0.006975
184 0.00699
131 0.006986
72 0.006982
90 0.005946
117 0.004016
157 0.003999
152 0.003989
130 0.001992
130 0.00399
144 0.001995
163 0.003992
180 0.003989
188 0.002992
167 0.003002
112 0.002991
62 0.002992
84 0.000992
110 0.00299
140 0.001962
129 0.002015
120 0.000995
126 0.001969
138 0.001998
158 0.00198
170 0.001984
179 0.002017
183 0.001033
115 0.0
73 0.0
68 0.0
91 0.0
130 0.0
138 0.001008
126 0.002005
119 0.001995
132 0.00299
146 0.003983
165 0.00502
175 0.006021
180 0.007015
187 0.006982
190 0.006969
132 0.006998
74 0.00694
84 0.006942
128 0.006978
159 0.005948
155 0.005947
130 0.00398
128 0.004984
141 0.003989
160 0.005019
174 0.004023
182 0.004977
190 0.004986
196 0.003989
178 0.002992
103 0.000995
88 0.003015
113 0.001982
144 0.002992
183 0.001957
156 0.001949
141 0.0
142 0.0
161 0.0
176 0.000981
192 0.001995
198 0.001995
207 0.002993
194 0.003991
104 0.005983
77 0.005952
85 0.005983
123 0.005985
161 0.003989
166 0.003978
138 0.001994
130 0.002027
143 0.001972
168 0.0
181 0.0
194 0.0
204 0.0
209 0.0
129 0.002037
85 0.001995
74 0.001995
121 0.00395
153 0.004954
168 0.005024
140 0.004951
133 0.004944
146 0.005991
173 0.006812
187 0.006978
203 0.004987
214 0.005989
212 0.002995
134 0.003989
70 0.002011
73 0.002024
124 0.00201
160 0.002042
181 0.002027
147 0.0
138 0.001973
151 0.0
173 0.001
189 0.001982
211 0.003852
228 0.003975
222 0.003954
117 0.004026
82 0.004037
93 0.005027
158 0.005019
198 0.004947
197 0.005034
154 0.004991
147 0.004956
165 0.006983
190 0.00699
206 0.005986
229 0.007946
238 0.00699
158 0.00801
84 0.007982
80 0.007978
122 0.006017
197 0.003019
218 0.002026
179 0.001043
151 0.0
150 0.001995
174 0.000997
205 0.00095
220 0.001996
222 0.000997
147 0.001995
64 0.002975
76 0.002994
113 0.003028
180 0.004021
186 0.004975
150 0.004988
131 0.005018
143 0.004945
161 0.004986
192 0.004893
208 0.005019
181 0.007032
63 0.006984
36 0.007012
64 0.006988
103 0.007016
151 0.006985
147 0.005989
124 0.003992
111 0.004
132 0.002998
151 0.00299
181 0.002027
195 0.002989
129 0.001048
52 0.001965
42 0.001043
73 0.0
138 0.0
159 0.000997
133 0.000997
112 0.000995
116 0.002004
137 0.001954
169 0.001995
184 0.001996
180 0.002014
117 0.001962
52 0.001993
77 0.002004
115 0.002959
173 0.002994
152 0.00399
128 0.005976
123 0.006017
148 0.006974
162 0.006978
189 0.005947
199 0.006964
132 0.004971
68 0.006982
63 0.005024
100 0.006971
164 0.006955
175 0.005968
137 0.005984
122 0.005984
131 0.005984
160 0.003975
177 0.004185
195 0.001996
111 0.001962
60 0.002
52 0.001994
80 0.001999
138 0.002017
146 0.001991
126 0.001994
109 0.000988
120 0.002031
144 0.0
166 0.002034
181 0.000968
142 0.000966
49 0.000998
34 0.000998
69 0.00184
113 0.003027
134 0.004026
118 0.00499
101 0.006042
104 0.00698
123 0.006983
150 0.003989
162 0.006018
159 0.003986
67 0.003991
35 0.003989
53 0.003987
85 0.00399
131 0.003998
118 0.001953
103 0.002025
103 0.000997
120 0.003025
142 0.001999
158 0.002967
170 0.002002
148 0.003043
62 0.00199
43 0.001995
74 0.000962
130 0.001044
143 0.0
113 0.0
101 0.0
108 0.0
127 0.0
141 0.000838
157 0.000998
167 0.002992
139 0.003029
59 0.004956
53 0.004989
81 0.005019
135 0.005026
143 0.004988
114 0.00502
105 0.005012
115 0.005018
137 0.007032
155 0.007979
166 0.006981
175 0.00798
145 0.007016
72 0.007983
44 0.005993
65 0.006982
114 0.002992
129 0.001994
117 0.0
104 0.0
119 0.0
134 0.0
154 0.0
163 0.001001
169 0.001004
173 0.000998
96 0.000997
53 0.000997
51 0.001994
86 0.003991
117 0.00485
121 0.006025
104 0.007024
100 0.00701
116 0.006985
132 0.006964
152 0.006016
161 0.004975
165 0.004994
175 0.002995
162 0.0
108 0.001004
53 0.0
76 0.000967
104 0.0
136 0.000877
126 0.002026
114 0.002045
115 0.001981
139 0.002025
156 0.002026
173 0.00201
178 0.002007
183 0.001996
190 0.003956
200 0.003986
161 0.00399
87 0.004994
80 0.004947
119 0.005021
160 0.005974
174 0.006977
145 0.00499
130 0.00299
138 0.002993
165 0.001995
186 0.001995
191 0.002028
197 0.001016
201 0.000966
207 0.0
152 0.000987
102 0.0
84 0.001032
126 0.001027
160 0.0
175 0.0
152 0.0
131 0.0
142 0.0
168 0.000999
208 0.001996
229 0.001996
229 0.002969
228 0.002983
221 0.002994
118 0.003022
50 0.003024
54 0.002952
103 0.005021
145 0.00498
141 0.004985
109 0.005016
103 0.004986
115 0.006979
140 0.007979
163 0.006983
176 0.005982
186 0.006013
193 0.006022
159 0.005983
57 0.003988
36 0.00502
66 0.002992
100 0.005039
142 0.00296
121 0.002996
104 0.001975
107 0.001997
136 0.0
156 0.001996
179 0.0
188 0.0
195 0.0
201 0.0
148 0.000998
54 0.001006
55 0.000997
89 0.000997
156 0.001921
170 0.002992
136 0.002992
114 0.003039
123 0.003997
148 0.003967
180 0.004983
194 0.005985
211 0.00599
217 0.00598
171 0.00698
68 0.004002
64 0.004002
99 0.003991
177 0.003163
193 0.001996
160 0.002008
126 0.001992
132 0.002035
162 0.002041
187 0.001991
208 0.0
221 0.002025
110 0.0
49 0.000998
38 0.001001
87 0.000998
149 0.000997
176 0.01496
143 0.001995
110 0.001996
118 0.002013
138 0.001995
172 0.002048
198 0.001993
210 0.001993
123 0.002963
41 0.004039
3 0.004023
58 0.003988
102 0.004952
145 0.005023
106 0.005986
91 0.006943
90 0.005992
115 0.007964
146 0.004999
171 0.006028
187 0.003988
156 0.005986
27 0.004986
0 0.004987
32 0.004986
105 0.003007
136 0.00499
115 0.003024
91 0.005021
88 0.00294
119 0.002001
142 0.001987
171 0.001995
187 0.0
152 0.0
31 0.001997
10 0.000964
35 0.002057
110 0.002042
147 0.001995
131 0.002003
90 0.001996
90 0.001995
120 0.001994
149 0.00405
173 0.004023
188 0.003961
164 0.003932
65 0.005984
27 0.005991
49 0.005984
108 0.005984
168 0.005986
154 0.005984
105 0.005987
103 0.005982
122 0.005982
157 0.002973
179 0.005017
191 0.003026
124 0.004987
31 0.002989
12 0.003988
64 0.003025
109 0.003034
144 0.003011
102 0.001993
86 0.001995
94 0.000999
121 0.0
149 0.0
172 0.0
181 0.0
106 0.0
6 0.0
65 0.0
92 0.0
112 0.002046
126 0.001996
109 0.001941
103 0.002981
110 0.002962
128 0.002953
137 0.002992
147 0.002991
151 0.002995
114 0.002993
73 0.001963
66 0.002991
87 0.002992
113 0.002994
128 0.00396
113 0.004023
105 0.004034
109 0.00599
127 0.00595
136 0.005985
147 0.005991
151 0.005991
153 0.005982
98 0.005991
75 0.005987
80 0.005984
99 0.006009
132 0.00598
130 0.006989
116 0.006986
108 0.00599
116 0.006974
130 0.004986
143 0.007017
154 0.006018
158 0.005021
146 0.005025
110 0.005021
82 0.004986
101 0.001997
124 0.003977
152 0.001019
138 0.002992
119 0.001994
119 0.001987
128 0.001966
146 0.001997
159 0.001988
174 0.0
118 0.0
65 0.001984
58 0.000998
91 0.00195
140 0.003972
148 0.004987
117 0.004988
105 0.005014
114 0.005008
133 0.005987
151 0.007975
160 0.005976
166 0.006018
93 0.003981
56 0.00602
55 0.003959
78 0.004988
119 0.003987
122 0.002995
107 0.003211
100 0.000995
116 0.000995
130 0.0
148 0.000958
154 0.0
161 0.000988
125 0.0
81 0.0
56 0.0
78 0.0
107 0.0
125 0.001003
113 0.002
105 0.001953
111 0.004022
123 0.003035
143 0.003998
154 0.004953
157 0.005974
164 0.005984
167 0.006946
126 0.006983
82 0.005978
81 0.005027
99 0.005021
134 0.00597
141 0.004979
123 0.00303
116 0.004986
124 0.002991
140 0.002988
158 0.003033
163 0.00201
167 0.00202
170 0.000974
174 0.001976
172 0.001005
112 0.001995
95 0.001992
107 0.002042
144 0.003957
163 0.004984
148 0.00503
132 0.005029
130 0.005019
148 0.006982
156 0.00698
170 0.006979
176 0.006837
178 0.00698
183 0.006011
156 0.006015
110 0.005003
100 0.004025
124 0.003988
147 0.003986
169 0.003989
154 0.00399
132 0.002992
138 0.0
149 0.002044
167 0.0
178 0.000943
182 0.0
183 0.0
149 0.0
93 0.000996
92 0.0
110 0.0
143 0.000955
150 0.0
135 0.000998
121 0.000998
125 0.000998
141 0.002992
158 0.003028
165 0.002995
186 0.003997
190 0.006032
146 0.006006
83 0.007981
68 0.007962
80 0.007983
130 0.007976
146 0.007976
137 0.006991
115 0.005001
116 0.006963
134 0.004021
158 0.002998
169 0.001996
180 0.0
189 0.0
184 0.000953
116 0.000996
70 0.0
75 0.0
120 0.001007
149 0.000985
159 0.001991
127 0.000993
121 0.001962
135 0.001998
155 0.001965
174 0.001991
187 0.001984
195 0.001982
203 0.002005
151 0.002972
101 0.003962
82 0.004974
122 0.004946
159 0.004997
190 0.005024
169 0.005022
135 0.006021
133 0.006995
145 0.006987
172 0.00598
190 0.007012
203 0.004001
208 0.006981
126 0.005963
84 0.00597
79 0.005984
106 0.005932
169 0.004985
185 0.002988
159 0.005026
129 0.002991
141 0.002029
156 0.003002
182 0.001023
195 0.00103
208 0.000998
113 0.0
64 0.0
54 0.000969
92 0.002993
139 0.0
161 0.002031
128 0.001963
111 0.001997
116 0.003989
137 0.004001
161 0.00396
180 0.00395
192 0.00399
157 0.005984
55 0.006
36 0.00597
66 0.005976
122 0.005995
144 0.006021
134 0.005974
111 0.006965
101 0.003984
123 0.002994
142 0.002996
169 0.003949
185 0.001995
181 0.001996
81 0.001004
39 0.0
45 0.0
96 0.001001
147 0.001004
146 0.000998
109 0.000998
99 0.000997
113 0.001964
137 0.00204
158 0.003024
171 0.004005
183 0.004987
166 0.005981
70 0.007827
46 0.006005
62 0.007979
121 0.004991
163 0.005992
148 0.005942
108 0.002993
110 0.001994
125 0.00201
153 0.001995
166 0.001976
181 0.0
176 0.002027
82 0.001004
51 0.001962
65 0.002037
99 0.00203
157 0.001999
154 0.001995
118 0.002005
105 0.001866
122 0.002992
140 0.00399
167 0.00403
176 0.004998
178 0.00399
74 0.004984
34 0.005024
34 0.00597
86 0.004986
120 0.004988
135 0.00496
100 0.003989
91 0.002026
106 0.001998
131 0.002992
153 0.001003
167 0.002008
164 0.002032
104 0.002031
25 0.0
29 0.000994
59 0.001957
113 0.001994
129 0.00196
104 0.004025
86 0.00499
94 0.005984
122 0.00697
144 0.006979
156 0.00499
166 0.004955
105 0.003956
47 0.004989
25 0.00599
61 0.005018
106 0.002964
132 0.003978
106 0.004024
90 0.002134
95 0.0
117 0.0
140 0.0
155 0.0
166 0.0
165 0.0
80 0.000997
43 0.001995
50 0.002999
104 0.00299
136 0.003026
130 0.002995
107 0.003051
95 0.002979
114 0.002991
131 0.002988
154 0.002976
168 0.003958
171 0.004981
104 0.006007
63 0.005966
58 0.005978
94 0.005967
141 0.005986
153 0.006015
123 0.005987
106 0.006016
118 0.005989
134 0.00598
160 0.006017
175 0.004972
181 0.006938
126 0.002991
50 0.002961
45 0.001992
85 0.0
128 0.0
144 0.0
119 0.0
102 0.002029
110 0.002041
136 0.001983
161 0.002057
172 0.001951
181 0.003023
150 0.002005
57 0.002999
41 0.003947
70 0.004987
113 0.004022
140 0.004988
126 0.00498
101 0.005022
102 0.00395
126 0.004993
149 0.006974
165 0.006945
178 0.006981
169 0.004977
113 0.003984
45 0.002992
62 0.002
94 0.001997
145 0.001995
144 0.001991
116 0.000967
105 0.002992
124 0.000993
142 0.001974
167 0.003028
179 0.004001
187 0.003778
188 0.00396
120 0.003998
63 0.005021
69 0.005981
101 0.005982
163 0.006018
166 0.005982
137 0.005989
115 0.00595
124 0.007041
148 0.006948
175 0.004985
186 0.005024
198 0.002988
186 0.003992
124 0.003008
59 0.002995
72 0.00298
119 0.001998
170 0.001995
172 0.001992
142 0.001994
117 0.0
125 0.0
146 0.0
174 0.001003
187 0.002022
200 0.002032
143 0.001996
72 0.002028
36 0.002963
56 0.002992
118 0.004996
161 0.004989
147 0.005017
107 0.004982
109 0.004988
126 0.005032
159 0.004818
178 0.006022
188 0.005966
181 0.007012
110 0.005974
30 0.006983
46 0.007978
69 0.007979
129 0.007974
142 0.004982
118 0.006016
94 0.003993
110 0.00201
130 0.002979
159 0.0
179 0.000999
184 0.002009
123 0.002989
35 0.004032
30 0.004987
76 0.005985
126 0.005985
149 0.00598
122 0.004984
93 0.007945
97 0.004952
116 0.007011
147 0.005
161 0.004974
176 0.004021
172 0.004023
79 0.004031
41 0.001995
59 0.003998
121 0.001998
166 0.002001
149 0.001997
107 0.003002
102 0.001987
123 0.001997
154 0.001995
168 0.001966
183 0.002001
172 0.001995
58 0.000997
40 0.0
60 0.0
122 0.0
159 0.0
139 0.000877
102 0.000998
101 0.001005
126 0.001001
151 0.000997
171 0.000997
178 0.001968
83 0.002004
34 0.004002
30 0.003032
61 0.002994
119 0.004074
129 0.002986
107 0.003959
87 0.005982
99 0.005968
118 0.005985
150 0.00597
171 0.006967
162 0.004982
61 0.002006
21 0.004022
39 0.001999
84 0.002988
130 0.002031
125 0.002026
93 0.0
90 0.0
107 0.0
134 0.001031
161 0.003052
172 0.00399
143 0.00401
77 0.003986
32 0.004989
69 0.005983
105 0.005981
145 0.005983
129 0.005988
106 0.006001
102 0.004987
128 0.005984
147 0.005989
167 0.007001
183 0.005021
175 0.003989
83 0.003023
56 0.003039
76 0.003027
138 0.001994
168 0.003024
146 0.000952
110 0.0
109 0.0
129 0.002031
159 0.001996
173 0.001999
183 0.002941
111 0.003956
63 0.005022
55 0.005985
93 0.005982
130 0.005987
156 0.002992
124 0.004022
104 0.001998
112 0.001998
139 0.003024
156 0.003022
174 0.000965
171 0.000982
95 0.00101
40 0.001996
49 0.003029
77 0.004046
123 0.004989
115 0.006002
98 0.007018
90 0.005984
107 0.004994
124 0.004987
147 0.004984
156 0.004984
161 0.004996
88 0.004984
46 0.004984
42 0.004989
67 0.004976
112 0.00402
122 0.006912
102 0.003975
91 0.006018
106 0.005967
121 0.005982
145 0.006015
153 0.006015
164 0.005985
165 0.002961
124 0.003981
53 0.002045
58 0.001982
86 0.0
134 0.000967
137 0.000993
119 0.001002
103 0.002993
120 0.004987
138 0.006022
158 0.006943
169 0.00698
173 0.006982
179 0.006015
185 0.007974
148 0.003989
82 0.00602
66 0.003999
95 0.005984
153 0.00598
174 0.004983
141 0.00399
113 0.002001
119 0.002978
147 0.001994
172 0.0
181 0.0
186 0.0
191 0.000998
187 0.001997
100 0.001998
66 0.001999
75 0.004035
131 0.003958
164 0.004981
169 0.006968
125 0.006978
115 0.006976
131 0.00499
156 0.006985
177 0.003984
189 0.00403
197 0.003004
200 0.003165
140 0.002994
50 0.001008
41 0.002005
82 0.0
137 0.000962
150 0.0
120 0.0
106 0.0
103 0.0
131 0.0
151 0.000999
174 0.002005
185 0.003982
189 0.003
175 0.005986
87 0.007031
47 0.005976
52 0.007985
96 0.007978
131 0.007974
157 0.005986
138 0.006981
107 0.006987
119 0.003983
138 0.006988
170 0.003992
189 0.003985
196 0.003001
205 0.001982
187 0.001996
79 0.002998
54 0.001994
79 0.001996
146 0.000949
187 0.002995
172 0.0
131 0.002029
124 0.0
139 0.001001
171 0.000997
188 0.000998
208 0.001999
219 0.000965
191 0.001997
93 0.002993
57 0.003993
77 0.002987
147 0.003991
188 0.003992
189 0.005033
144 0.00499
128 0.005982
140 0.004981
173 0.004028
202 0.002988
215 0.002988
210 0.002986
127 0.002047
36 0.002962
44 0.003027
92 0.002041
148 0.004023
170 0.001987
142 0.001992
106 0.002994
109 0.00307
140 0.001995
176 0.000966
192 0.002028
206 0.001967
149 0.001996
65 0.001963
21 0.00203
65 0.004022
107 0.004037
157 0.004035
148 0.004022
104 0.005018
97 0.00693
117 0.006977
153 0.006998
176 0.006981
188 0.005987
183 0.004981
84 0.007013
28 0.00403
39 0.006978
87 0.003988
142 0.005022
157 0.003963
129 0.004029
98 0.003983
114 0.001994
134 0.004028
167 0.002984
182 0.003954
195 0.0
109 0.0
45 0.002056
42 0.000998
93 0.001045
138 0.003006
177 0.003032
129 0.00498
103 0.00694
112 0.006835
143 0.006999
161 0.006984
184 0.006977
172 0.006984
99 0.006024
26 0.006971
31 0.005969
75 0.007022
142 0.005975
155 0.00596
113 0.005984
90 0.003957
99 0.003987
131 0.003984
161 0.001995
174 0.002997
139 0.001996
60 0.002947
6 0.0
29 0.001998
77 0.001
119 0.002029
106 0.0
83 0.0
75 0.001015
94 0.000884
120 0.002003
141 0.002001
154 0.002002
149 0.002043
49 0.002006
13 0.002013
25 0.002013
81 0.003028
112 0.002992
108 0.00203
88 0.00299
78 0.002942
102 0.003949
122 0.005992
144 0.00698
161 0.006984
167 0.00698
100 0.006981
47 0.006947
29 0.006983
72 0.006976
120 0.00698
144 0.006979
127 0.006025
93 0.007012
102 0.007988
113 0.007973
148 0.007982
163 0.006015
171 0.006983
178 0.00399
160 0.005982
64 0.003988
45 0.003963
70 0.003957
133 0.002988
159 0.002015
134 0.002
100 0.001999
103 0.001994
131 0.002005
154 0.003989
169 0.002994
179 0.003025
176 0.003028
120 0.004024
37 0.001995
37 0.0
77 0.001995
124 0.003992
141 0.005035
117 0.00499
93 0.00502
99 0.005022
128 0.005985
152 0.006976
167 0.006979
177 0.006993
173 0.005994
118 0.005986
33 0.005978
28 0.00598
74 0.005946
128 0.005981
139 0.005954
109 0.005954
92 0.006972
103 0.003038
128 0.006032
150 0.003993
165 0.006075
177 0.006019
182 0.006019
145 0.006016
48 0.001991
34 0.003975
72 0.002
132 0.0
154 0.0
126 0.0
104 0.000965
102 0.0
128 0.0
148 0.0
171 0.0
183 0.0
188 0.0
184 0.000998
87 0.002951
54 0.002949
63 0.002988
108 0.002999
161 0.00399
173 0.004941
142 0.004993
113 0.005018
130 0.004949
150 0.004939
172 0.005984
189 0.006973
199 0.003998
193 0.004001
128 0.003952
45 0.002031
60 0.002
96 0.002005
160 0.0
169 0.002026
131 0.0
110 0.0
124 0.00203
150 0.004027
174 0.004988
191 0.006
201 0.005995
188 0.006018
66 0.006981
38 0.007948
46 0.007976
95 0.006168
141 0.00798
149 0.006009
117 0.007944
97 0.004986
113 0.003998
133 0.00399
166 0.003011
187 0.001985
195 0.002958
158 0.002985
80 0.003011
29 0.001987
54 0.003181
106 0.002982
154 0.00304
149 0.00299
121 0.003036
104 0.00198
128 0.0
148 0.001996
177 0.0
190 0.0
201 0.0
160 0.0
86 0.0
44 0.000997
85 0.002997
127 0.003995
180 0.00399
141 0.005985
118 0.005977
95 0.005001
107 0.004977
121 0.004976
142 0.004983
151 0.004987
135 0.004987
54 0.007979
13 0.003996
27 0.007012
86 0.007016
123 0.005985
132 0.004986
116 0.003982
106 0.003989
124 0.002986
139 0.002024
164 0.001
185 0.000975
190 0.0
98 0.0
42 0.0
31 0.0
84 0.0
119 0.0
144 0.000955
112 0.001994
95 0.003046
100 0.002965
130 0.003052
150 0.003028
173 0.002964
180 0.002961
130 0.003023
47 0.004028
27 0.003991
57 0.004008
116 0.005056
144 0.006026
132 0.005955
112 0.005979
106 0.006982
125 0.006949
150 0.007014
172 0.006092
189 0.005984
194 0.00598
115 0.00601
55 0.006027
39 0.005986
79 0.008011
130 0.005978
159 0.007965
136 0.005983
103 0.007981
115 0.007977
127 0.007015
159 0.005975
181 0.002019
189 0.002993
176 0.0
71 0.0
46 0.0
61 0.0
122 0.000964
159 0.002026
161 0.001043
118 0.0
112 0.0
133 0.000997
154 0.002028
182 0.0
199 0.001962
194 0.002011
87 0.002028
48 0.001994
57 0.001999
101 0.001995
146 0.001997
155 0.002995
124 0.002983
107 0.001995
122 0.003951
141 0.003958
169 0.003958
187 0.004021
193 0.004024
150 0.00399
82 0.004933
41 0.003964
73 0.004991
106 0.004984
146 0.005979
131 0.005987
109 0.004997
104 0.004969
122 0.006972
146 0.003982
166 0.004987
179 0.003994
185 0.002965
173 0.001995
75 0.001013
47 0.002051
55 0.001992
106 0.000998
138 0.003022
147 0.004987
111 0.004988
105 0.005019
124 0.004993
143 0.005022
165 0.005981
180 0.005983
185 0.005987
191 0.005979
182 0.004986
123 0.003026
58 0.004124
65 0.005988
108 0.003013
157 0.005985
173 0.003989
138 0.006015
111 0.004983
118 0.00296
148 0.00399
175 0.000988
186 0.002989
196 0.002989
201 0.002993
167 0.0
76 0.002978
63 0.001004
85 0.000998
151 0.001992
188 0.001961
178 0.002047
129 0.003018
124 0.004047
146 0.004985
178 0.005001
194 0.004988
210 0.004975
216 0.005051
142 0.004984
58 0.005021
42 0.005033
73 0.004996
126 0.004981
168 0.005021
146 0.006002
118 0.006007
108 0.006017
121 0.005983
155 0.006017
182 0.005985
193 0.005984
202 0.003991
128 0.004034
59 0.003992
29 0.002959
62 0.003994
112 0.002011
154 0.002998
134 0.002992
107 0.003025
99 0.003035
112 0.002992
146 0.003008
174 0.001018
185 0.003056
192 0.0
100 0.0
46 0.00096
35 0.001975
62 0.001001
127 0.001011
159 0.001006
136 0.001994
100 0.0
99 0.0
122 0.002031
155 0.002997
172 0.002989
190 0.002985
193 0.004024
143 0.00399
48 0.005977
43 0.006015
83 0.005996
139 0.005987
176 0.005855
151 0.00698
107 0.007982
105 0.007978
131 0.007997
158 0.004987
175 0.00799
194 0.002961
183 0.002981
117 0.001995
46 0.001002
66 0.000963
106 0.0
176 0.0
177 0.002999
142 0.0
110 0.0
116 0.001005
145 0.002992
177 0.002843
192 0.002999
191 0.003032
90 0.002993
28 0.002992
31 0.002973
76 0.003944
132 0.002992
156 0.002986
128 0.004985
93 0.005989
105 0.005973
125 0.005978
160 0.005983
175 0.005981
188 0.005984
112 0.006015
42 0.005984
15 0.004019
64 0.003988
103 0.003991
144 0.003986
118 0.00402
88 0.002992
88 0.00402
115 0.002992
137 0.002972
164 0.003033
174 0.003027
169 0.002986
55 0.0
18 0.002028
31 0.000983
93 0.000998
118 0.0
137 0.0
112 0.0
83 0.001995
98 0.001995
117 0.002043
149 0.002031
169 0.001991
177 0.003992
161 0.005984
56 0.00698
35 0.006981
46 0.006979
109 0.008
149 0.004988
160 0.006993
119 0.003981
94 0.005023
106 0.001995
125 0.005029
155 0.002996
176 0.001997
183 0.001997
131 0.002992
64 0.002992
33 0.001022
76 0.0
118 0.0
163 0.0
137 0.0
109 0.0
101 0.0
127 0.0
147 0.000997
172 0.002845
185 0.003026
170 0.002995
71 0.002992
17 0.003033
25 0.002989
83 0.004039
119 0.004048
131 0.004957
92 0.005983
83 0.007007
94 0.005019
126 0.002963
145 0.002992
166 0.002974
176 0.004016
149 0.003959
42 0.00299
19 0.002022
48 0.002992
97 0.004953
139 0.001998
134 0.003989
98 0.003032
93 0.003027
114 0.002994
134 0.002993
164 0.002031
182 0.00099
190 0.00302
175 0.0
68 0.000997
39 0.000998
60 0.001992
99 0.00205
162 0.000997
155 0.001893
126 0.002941
107 0.003948
131 0.003982
144 0.006983
175 0.006007
195 0.005981
203 0.005021
179 0.005001
88 0.005979
52 0.003985
72 0.004987
139 0.004989
180 0.005003
178 0.00303
144 0.002987
118 0.002041
138 0.0
158 0.001982
188 0.0
204 0.0
211 0.000998
131 0.000998
41 0.001
38 0.001
89 0.002992
157 0.003989
176 0.005021
136 0.005998
108 0.005972
110 0.005989
133 0.003989
148 0.005981
150 0.004009
143 0.005976
104 0.002978
22 0.005018
0 0.005028
0 0.004976
52 0.005986
86 0.00299
73 0.004914
45 0.002995
44 0.002988
65 0.0
100 0.0
120 0.0
147 0.0
156 0.002992
117 0.0
29 0.0
32 0.001961
65 0.002993
131 0.001997
159 0.003008
142 0.003031
116 0.002942
117 0.001998
140 0.003025
178 0.003992
197 0.004988
220 0.004966
219 0.005976
129 0.006977
67 0.003988
78 0.003994
114 0.003044
180 0.004003
198 0.005003
159 0.003976
130 0.002984
135 0.003026
164 0.002993
183 0.001994
208 0.001995
216 0.003989
161 0.002992
80 0.003025
69 0.001995
96 0.002028
166 0.0
201 0.001999
176 0.002957
140 0.003025
137 0.002958
152 0.004993
187 0.005027
217 0.005951
228 0.005987
155 0.005877
90 0.005982
70 0.005983
122 0.005952
167 0.005982
210 0.005969
189 0.006009
141 0.005994
138 0.00598
151 0.004984
183 0.004985
213 0.007949
223 0.004989
187 0.005973
85 0.00504
73 0.003989
110 0.003988
184 0.002012
210 0.002992
178 0.0
148 0.003039
140 0.00095
158 0.0
178 0.0
208 0.001004
187 0.001002
112 0.000997
62 0.000997
72 0.001034
128 0.00095
188 0.000998
186 0.001029
135 0.002036
123 0.001997
136 0.000998
167 0.002008
186 0.002995
192 0.00304
98 0.002024
48 0.003026
52 0.003957
100 0.004987
137 0.005019
154 0.005003
130 0.004998
102 0.005019
114 0.004951
131 0.004987
162 0.004983
176 0.00496
128 0.004947
46 0.004986
38 0.005029
68 0.005974
110 0.006947
135 0.005984
117 0.005981
96 0.005983
92 0.004987
115 0.007967
133 0.004984
154 0.007981
157 0.006983
104 0.005984
41 0.004984
48 0.001996
73 0.00399
123 0.000997
129 0.0
109 0.001001
90 0.000998
94 0.000999
119 0.000973
146 0.001967
158 0.002951
159 0.00301
76 0.003
48 0.002995
55 0.003027
81 0.003013
133 0.00399
135 0.004046
105 0.004021
93 0.003993
107 0.006991
122 0.005981
147 0.007029
161 0.006939
168 0.006905
127 0.006016
68 0.006981
53 0.006021
85 0.00598
120 0.005984
154 0.005968
137 0.005978
104 0.005973
109 0.005978
123 0.005984
150 0.004995
166 0.005983
176 0.003953
153 0.003989
63 0.003989
42 0.003999
61 0.002991
91 0.002992
137 0.002992
120 0.0
100 0.001982
96 0.0
118 0.000957
135 0.000963
157 0.0
164 0.0
171 0.0
99 0.000963
66 0.0
34 0.002043
67 0.002963
97 0.001963
131 0.002026
119 0.002949
91 0.00499
96 0.003959
112 0.00499
141 0.00398
156 0.004991
166 0.004989
173 0.004979
148 0.007019
107 0.00696
43 0.005984
55 0.004003
84 0.005984
137 0.002019
135 0.0
113 0.0
99 0.001993
109 0.001995
139 0.000949
164 0.002995
173 0.002993
182 0.00096
188 0.00299
151 0.0
76 0.0
55 0.0
76 0.002008
137 0.003025
174 0.005028
155 0.005985
117 0.005019
112 0.005019
128 0.005018
158 0.006029
173 0.007953
188 0.006979
196 0.00401
189 0.007014
93 0.003003
55 0.003991
69 0.003988
129 0.00399
167 0.002993
172 0.002995
125 0.001964
116 0.002993
128 0.004984
152 0.001961
175 0.003025
195 0.000966
206 0.0
163 0.0
54 0.000967
37 0.0
56 0.0
118 0.0
152 0.0
150 0.0
123 0.0
104 0.0
124 0.000997
144 0.000874
174 0.001007
193 0.002032
197 0.00299
113 0.004024
42 0.005016
30 0.004987
70 0.006019
133 0.006991
158 0.005951
143 0.005949
106 0.005016
104 0.003989
128 0.004012
149 0.003992
178 0.003989
197 0.0
199 0.003975
100 0.0
40 0.0
47 0.000997
91 0.001993
144 0.000953
172 0.000997
133 0.002997
107 0.002994
114 0.00399
144 0.005023
175 0.004989
189 0.004957
201 0.004985
168 0.004987
67 0.004983
54 0.007976
76 0.004981
144 0.007989
188 0.007975
168 0.007909
126 0.007962
115 0.007969
137 0.007981
163 0.003993
180 0.005984
200 0.002994
119 0.003016
60 0.003028
43 0.002991
69 0.00299
137 0.001006
170 0.0
147 0.0
108 0.0
110 0.0
127 0.0
160 0.0
186 0.002997
191 0.001899
86 0.002986
26 0.003039
29 0.002993
72 0.00499
123 0.004982
146 0.004987
110 0.005013
93 0.005016
99 0.004987
131 0.004988
151 0.004979
175 0.006006
173 0.007033
90 0.00499
24 0.004035
28 0.002955
80 0.004016
137 0.002945
141 0.002995
104 0.003
92 0.004991
107 0.002035
135 0.004023
162 0.0
180 0.001998
156 0.003029
85 0.0
33 0.0
55 0.0
103 0.0
150 0.0
139 0.0
111 0.0
97 0.0
108 0.000998
139 0.001
167 0.00096
178 0.000998
147 0.002012
83 0.000997
41 0.001016
76 0.004002
117 0.003004
163 0.002992
135 0.004985
101 0.005985
99 0.006024
125 0.00602
144 0.006019
169 0.005984
172 0.005986
88 0.006025
35 0.006
39 0.007979
80 0.004986
140 0.00302
144 0.003021
104 0.003933
92 0.003996
105 0.003022
137 0.004012
153 0.003997
170 0.002992
130 0.004954
47 0.0
20 0.002989
54 0.0
87 0.0
126 0.000993
108 0.002044
86 0.002999
87 0.003016
113 0.002994
132 0.00299
155 0.003035
163 0.003991
126 0.003446
37 0.003988
24 0.003986
59 0.00397
92 0.004013
131 0.003986
107 0.003956
93 0.004002
100 0.004981
128 0.005984
140 0.005951
163 0.005996
171 0.005987
161 0.004992
86 0.006982
46 0.00399
58 0.006979
111 0.006014
144 0.006095
143 0.004022
111 0.003989
109 0.003991
130 0.001976
148 0.004026
172 0.003013
187 0.0
190 0.001991
159 0.002028
79 0.001996
69 0.002028
103 0.003
164 0.002963
181 0.003003
144 0.003992
123 0.004988
130 0.005982
152 0.005943
174 0.007015
188 0.003957
199 0.006022
185 0.004977
124 0.005022
67 0.004982
86 0.000969
117 0.003001
169 0.0
167 0.002027
127 0.0
121 0.0
134 0.000996
163 0.0
184 0.000998
191 0.0
198 0.00201
149 0.001997
88 0.003953
54 0.003989
69 0.00399
120 0.004954
156 0.004955
143 0.005944
116 0.005988
113 0.006982
126 0.005983
150 0.006985
173 0.006977
182 0.006017
191 0.005021
156 0.003011
94 0.003935
51 0.0
80 0.0
112 0.0
155 0.0
148 0.0
116 0.0
112 0.002026
129 0.00101
153 0.002993
177 0.002996
186 0.003022
197 0.000986
192 0.0
100 0.000998
62 0.001997
73 0.003049
115 0.003989
170 0.00399
172 0.003988
129 0.003789
119 0.005955
131 0.005982
155 0.005953
177 0.006994
192 0.004021
205 0.003967
197 0.003989
100 0.003947
66 0.003995
82 0.003995
143 0.003984
180 0.004943
173 0.003992
133 0.006969
121 0.002981
135 0.006016
166 0.006005
181 0.005988
201 0.006019
205 0.005025
112 0.003975
48 0.003007
53 0.00399
104 0.002993
162 0.001
168 0.000997
130 0.000993
108 0.001004
116 0.001965
146 0.001993
164 0.001962
186 0.002994
193 0.003024
140 0.003029
46 0.003957
45 0.003998
75 0.004001
135 0.004021
153 0.005984
125 0.006015
103 0.005986
105 0.005994
130 0.00698
161 0.006965
176 0.006968
193 0.006974
168 0.00499
98 0.007977
45 0.004257
54 0.005955
108 0.002952
164 0.003987
163 0.00305
120 0.002992
113 0.003996
125 0.003011
157 0.0
179 0.002994
196 0.0
202 0.002991
141 0.0
73 0.003988
69 0.00296
99 0.003026
169 0.002993
192 0.002973
154 0.001032
122 0.000954
123 0.000995
144 0.001996
175 0.002993
189 0.003023
201 0.002985
108 0.003024
63 0.002995
61 0.004988
117 0.005991
159 0.005987
176 0.005986
128 0.004984
111 0.00499
120 0.003025
144 0.004986
169 0.002978
187 0.005005
177 0.002991
81 0.005016
29 0.004952
39 0.004987
95 0.002992
145 0.0
137 0.001011
103 0.000966
90 0.002042
101 0.003048
134 0.002025
152 0.001999
171 0.003027
113 0.001997
51 0.001995
22 0.002827
62 0.004981
97 0.005993
130 0.004987
114 0.006976
88 0.00295
86 0.00499
111 0.003984
130 0.002986
156 0.00399
165 0.0
122 0.003039
40 0.000997
41 0.001008
69 0.000967
115 0.000998
139 0.002993
120 0.003026
96 0.003998
110 0.006021
127 0.006042
156 0.006008
168 0.005985
179 0.00502
108 0.005982
66 0.005989
60 0.00599
75 0.005988
145 0.005967
162 0.005988
131 0.005991
109 0.005988
119 0.007013
136 0.006984
163 0.006988
174 0.007984
184 0.007018
144 0.003989
91 0.00594
65 0.0
98 0.0
133 0.0
163 0.0
123 0.0
109 0.0
113 0.0
137 0.002004
153 0.003972
172 0.003991
169 0.003993
116 0.004024
53 0.003797
55 0.006018
79 0.006974
126 0.005984
138 0.005981
108 0.006034
95 0.005984
103 0.006974
128 0.006979
147 0.004971
157 0.006986
161 0.003029
