141 0.033911
141 0.001993
149 0.001985
156 0.002027
163 0.002997
170 0.002992
177 0.002998
182 0.00303
183 0.002947
132 0.003
82 0.00299
64 0.002992
72 0.001994
85 0.001995
95 0.002027
105 0.001996
111 0.001995
112 0.001994
108 0.001
101 0.001994
102 0.002961
104 0.002951
109 0.002997
114 0.001995
120 0.001995
126 0.001995
131 0.002042
137 0.002
142 0.001995
150 0.001998
153 0.001997
157 0.001996
162 0.00203
168 0.000998
168 0.001996
130 0.001995
72 0.001995
59 0.000997
61 0.002029
72 0.001037
81 0.00204
90 0.002034
98 0.001997
99 0.001996
87 0.001996
82 0.000998
84 0.002029
87 0.001996
90 0.001995
98 0.001996
101 0.001034
104 0.001
110 0.000959
115 0.000972
119 0.000997
120 0.000961
50 0.000998
14 0.001994
0 0.001995
3 0.001996
12 0.001008
23 0.001005
29 0.000997
36 0.000996
37 0.000989
32 0.000998
23 0.000999
22 0.000997
28 0.001034
33 0.0
38 0.000981
43 0.000996
49 0.0
56 0.0
60 0.0
35 0.0
0 0.0
0 0.000998
0 0.000998
0 0.000996
0 0.001005
0 0.000998
0 0.000987
0 0.0
0 0.001011
0 0.0
0 0.0
0 0.0
0 0.0
58 0.0
64 0.0
68 0.000987
75 0.001032
79 0.00101
78 0.000966
58 0.0
34 0.0
21 0.0
25 0.0
31 0.0
35 0.0
39 0.0
45 0.001007
46 0.0
45 0.0
45 0.0
48 0.0
51 0.0
55 0.0
62 0.0
66 0.0
71 0.0
74 0.0
77 0.0
82 0.0
85 0.000995
82 0.0
57 0.0
39 0.0
34 0.000966
43 0.0
51 0.0
57 0.0
62 0.0
67 0.0
70 0.0
68 0.0
68 0.0
73 0.0
77 0.0
81 0.0
85 0.000997
92 0.0
96 0.0
99 0.000998
104 0.001003
108 0.0
109 0.0
85 0.0
68 0.001007
65 0.000956
76 0.00101
82 0.000967
89 0.0
94 0.000996
94 0.0
92 0.000998
90 0.000968
90 0.000956
92 0.000953
96 0.0
99 0.000995
89 0.000966
95 0.001
98 0.00095
102 0.001035
106 0.000998
109 0.0
99 0.001995
65 0.001945
39 0.000947
35 0.000998
48 0.0
55 0.001022
61 0.000997
70 0.000983
71 0.000999
69 0.002033
64 0.0
65 0.0
69 0.002018
73 0.000997
78 0.0
83 0.000999
86 0.000998
89 0.001993
93 0.002006
98 0.001995
100 0.002031
101 0.000948
80 0.001003
55 0.000993
24 0.000998
24 0.000962
31 0.000999
40 0.002032
43 0.00198
48 0.001995
51 0.002029
48 0.001994
46 0.001981
46 0.001004
51 0.000997
55 0.00204
58 0.002009
61 0.002002
68 0.001995
70 0.001032
75 0.002045
79 0.001941
83 0.001995
88 0.001989
90 0.001994
94 0.001018
97 0.000964
98 0.002035
100 0.002032
104 0.001995
107 0.000996
107 0.001996
109 0.000999
95 0.002993
53 0.002986
17 0.002026
0 0.002026
0 0.002033
4 0.002027
9 0.002012
13 0.002992
16 0.002035
15 0.002011
8 0.001032
8 0.002033
11 0.001994
16 0.002995
25 0.002038
30 0.003025
35 0.003033
43 0.002027
47 0.002025
53 0.00102
58 0.002032
60 0.002992
63 0.001994
70 0.001995
72 0.002992
76 0.002992
85 0.002027
74 0.002992
29 0.002962
58 0.001994
59 0.001996
67 0.001995
74 0.001993
78 0.002992
82 0.002963
86 0.002952
88 0.002991
85 0.002994
84 0.001975
87 0.002994
90 0.003043
94 0.002026
97 0.00199
98 0.003032
100 0.004004
103 0.00399
106 0.003027
108 0.003025
109 0.002992
111 0.003027
113 0.00302
115 0.00303
116 0.003031
108 0.002025
84 0.002995
68 0.003003
64 0.004023
70 0.004023
79 0.002994
83 0.002993
87 0.003024
90 0.004036
88 0.003035
84 0.004024
83 0.004029
84 0.002998
87 0.002987
91 0.00401
94 0.003032
97 0.003029
100 0.004042
103 0.004024
104 0.003974
108 0.003985
111 0.003023
113 0.004025
114 0.004027
93 0.003025
73 0.003937
66 0.00298
71 0.004036
78 0.004024
85 0.004033
89 0.004024
93 0.004032
95 0.004018
93 0.004024
91 0.004022
90 0.003955
93 0.00402
96 0.004989
99 0.00304
64 0.003977
70 0.004987
73 0.004989
82 0.003992
86 0.00402
89 0.004021
93 0.004024
96 0.00399
70 0.00499
10 0.004987
47 0.004038
49 0.003978
55 0.00401
61 0.00399
65 0.006388
70 0.004022
72 0.003987
71 0.004024
67 0.004023
69 0.004025
71 0.005019
75 0.005975
81 0.004022
84 0.003988
88 0.004984
90 0.005023
94 0.005984
98 0.004987
100 0.005023
101 0.005018
105 0.005028
102 0.005024
68 0.004978
44 0.005034
38 0.00503
43 0.005028
52 0.004987
58 0.005037
63 0.005985
70 0.00499
71 0.004023
70 0.004027
69 0.005023
72 0.005019
75 0.005984
83 0.006019
96 0.004023
109 0.005022
129 0.005028
164 0.005028
208 0.005984
196 0.005984
228 0.004975
244 0.006015
207 0.00502
214 0.005019
210 0.006017
206 0.005982
210 0.004984
218 0.005985
226 0.005034
235 0.005982
184 0.006985
188 0.005985
191 0.006015
193 0.005985
197 0.004988
199 0.005035
201 0.005956
203 0.005984
204 0.005007
206 0.004992
207 0.005017
208 0.005019
208 0.006984
208 0.006982
208 0.006026
207 0.005984
206 0.006017
202 0.006008
195 0.006012
188 0.006022
186 0.006984
185 0.005978
184 0.005985
181 0.006043
179 0.007029
176 0.006983
171 0.006021
168 0.005994
163 0.005986
160 0.005984
159 0.006017
157 0.007021
156 0.006981
154 0.006
153 0.00602
152 0.00602
151 0.006019
151 0.005984
149 0.006017
142 0.006014
136 0.005984
136 0.006014
136 0.006972
135 0.006982
135 0.006983
134 0.005986
134 0.006982
133 0.006969
132 0.00698
131 0.007017
131 0.006944
131 0.006946
132 0.007014
132 0.007014
132 0.007015
133 0.007961
133 0.006982
133 0.008066
134 0.005998
134 0.006979
134 0.006981
134 0.006982
135 0.005986
138 0.005985
139 0.006948
140 0.006976
140 0.007019
141 0.007979
141 0.007944
130 0.00699
123 0.006987
120 0.007011
121 0.007978
121 0.007978
123 0.007012
124 0.007014
125 0.007017
125 0.007023
125 0.007041
124 0.007024
124 0.007983
125 0.007979
127 0.00698
128 0.006981
129 0.007973
130 0.00798
131 0.007025
132 0.006981
133 0.006982
134 0.007013
135 0.007014
136 0.007979
137 0.007007
138 0.00702
138 0.007003
139 0.006966
139 0.007003
133 0.007019
125 0.006949
121 0.006982
122 0.007979
124 0.007984
125 0.006981
126 0.007023
127 0.00798
128 0.007982
127 0.006482
127 0.006976
127 0.007974
127 0.007946
129 0.007978
130 0.006941
131 0.007989
132 0.007016
133 0.007013
133 0.007014
133 0.00702
133 0.006984
134 0.007012
134 0.007022
134 0.006986
135 0.006981
133 0.006981
124 0.007015
119 0.00703
67 0.008005
72 0.006969
79 0.006979
84 0.007012
90 0.00698
94 0.006979
88 0.006979
81 0.007014
80 0.007012
83 0.007013
89 0.007034
98 0.006024
106 0.006017
113 0.006035
116 0.007015
121 0.006992
124 0.005981
131 0.006983
123 0.006982
86 0.007009
54 0.007012
41 0.006982
46 0.006981
56 0.006011
63 0.006016
70 0.006017
76 0.005978
77 0.005987
75 0.005984
74 0.00599
78 0.005982
85 0.006029
93 0.007043
99 0.005937
107 0.006983
112 0.006983
117 0.007026
120 0.005983
123 0.006014
127 0.006015
130 0.00598
132 0.006017
136 0.006015
139 0.006021
142 0.005983
145 0.006018
152 0.006015
156 0.006017
161 0.005986
150 0.005983
103 0.005975
58 0.00598
36 0.006037
35 0.005999
42 0.005977
42 0.005986
42 0.005984
45 0.006037
47 0.005997
42 0.005015
38 0.006025
39 0.004987
44 0.004994
50 0.005016
55 0.004983
61 0.00499
69 0.00502
75 0.004987
81 0.006014
87 0.006041
93 0.006023
101 0.006019
105 0.005021
112 0.005037
114 0.00502
111 0.005019
112 0.005026
112 0.004985
70 0.003997
30 0.005751
10 0.005973
10 0.006029
16 0.005022
23 0.005015
27 0.005026
35 0.004991
36 0.005029
35 0.005024
34 0.005019
36 0.004984
44 0.004991
49 0.005024
54 0.004986
60 0.005001
65 0.004987
73 0.004988
77 0.005034
83 0.003992
88 0.005037
93 0.004992
98 0.005012
103 0.004988
110 0.005022
105 0.005035
71 0.005026
36 0.004989
20 0.00399
28 0.00399
36 0.00399
44 0.004024
51 0.003998
57 0.00398
56 0.003956
52 0.004022
48 0.003989
50 0.00399
55 0.003989
61 0.004949
67 0.004987
75 0.004965
80 0.00499
87 0.004987
91 0.004024
95 0.003989
100 0.00399
103 0.003987
107 0.00399
112 0.003439
93 0.003992
53 0.003997
23 0.003936
12 0.002994
19 0.003901
24 0.004036
28 0.003954
34 0.003991
37 0.003991
35 0.004021
32 0.003957
33 0.002991
36 0.002993
41 0.003015
49 0.003349
61 0.003958
67 0.002732
74 0.003027
84 0.003959
89 0.002992
96 0.002959
103 0.002993
107 0.004031
79 0.002952
40 0.002994
17 0.002982
15 0.002963
26 0.002992
30 0.00399
34 0.003986
45 0.002991
50 0.002977
50 0.003023
50 0.002959
53 0.003053
61 0.00299
68 0.002998
79 0.002992
88 0.002993
103 0.003018
112 0.003024
121 0.00299
133 0.003705
139 0.002991
144 0.003038
152 0.003032
158 0.002999
167 0.003629
175 0.002992
182 0.003009
189 0.002994
200 0.002984
208 0.002029
215 0.002029
177 0.003027
141 0.002953
123 0.001993
125 0.002029
135 0.001995
147 0.002992
152 0.002987
158 0.002992
163 0.00304
160 0.002041
159 0.003027
161 0.002032
167 0.00203
173 0.001994
180 0.00203
186 0.001996
192 0.001996
200 0.001995
205 0.002029
209 0.001997
213 0.001995
219 0.002995
222 0.000999
225 0.002045
222 0.002032
195 0.002027
167 0.001995
156 0.001018
159 0.001
169 0.001036
173 0.00199
179 0.001995
185 0.002032
182 0.001995
172 0.002029
167 0.001998
168 0.001959
170 0.002027
173 0.002012
176 0.001995
180 0.001995
185 0.001997
189 0.00202
193 0.001995
195 0.002026
169 0.001994
139 0.001997
121 0.001007
121 0.001966
128 0.002036
131 0.001045
134 0.001995
139 0.000997
142 0.000997
140 0.000998
137 0.000997
136 0.002053
141 0.000975
145 0.00101
151 0.000994
155 0.000998
159 0.001048
164 0.000965
170 0.000998
171 0.000998
156 0.000997
116 0.000998
101 0.000999
101 0.001032
108 0.0
111 0.001961
114 0.000996
119 0.001032
124 0.000987
125 0.000986
121 0.001011
122 0.000998
123 0.001004
126 0.001006
128 0.000998
131 0.000998
135 0.0
137 0.000998
139 0.0
140 0.0
138 0.001
137 0.001029
136 0.000999
134 0.000997
128 0.000998
111 0.001006
91 0.0
67 0.0
17 0.000958
8 0.01496
0 0.000963
0 0.000998
0 0.000995
0 0.000997
0 0.0
0 0.0
0 0.0
0 0.0
0 0.0
0 0.0
0 0.0
0 0.0
0 0.000984
0 0.0
0 0.0
0 0.0
0 0.0
0 0.0
0 0.000997
0 0.000997
0 0.0
0 0.000997
0 0.0
0 0.0
0 0.0
0 0.0
0 0.0
0 0.0
0 0.0
0 0.0
0 0.0
0 0.0
0 0.0
45 0.000999
50 0.001993
51 0.000963
53 0.000969
55 0.000972
57 0.0
61 0.000945
65 0.000997
69 0.0
73 0.0
76 0.0
78 0.001028
80 0.001038
83 0.000997
85 0.0
84 0.000997
78 0.000955
78 0.0
79 0.001181
81 0.000998
84 0.0
87 0.0
89 0.0
91 0.000998
93 0.001001
94 0.000939
95 0.001035
97 0.000995
99 0.000945
100 0.0
102 0.00196
103 0.000998
105 0.0
106 0.0
105 0.0
100 0.001029
93 0.001032
91 0.00103
92 0.00103
94 0.00101
96 0.001
98 0.000964
99 0.001995
99 0.001011
99 0.001046
100 0.00104
102 0.001044
104 0.001964
106 0.001995
109 0.002012
111 0.002054
113 0.000999
115 0.0
117 0.001042
115 0.00203
110 0.001996
107 0.001057
107 0.0
109 0.0
110 0.001048
112 0.001996
114 0.001994
101 0.002027
101 0.000965
101 0.000943
102 0.00097
104 0.002027
107 0.002028
109 0.00103
111 0.000994
112 0.000998
114 0.002033
115 0.002043
105 0.002028
94 0.002026
91 0.000996
96 0.000957
100 0.000993
103 0.002046
107 0.002008
110 0.001027
111 0.002029
111 0.000998
111 0.001995
113 0.003023
117 0.001995
120 0.003023
123 0.002992
126 0.001996
129 0.000997
132 0.001995
134 0.001995
135 0.002023
125 0.001033
113 0.002011
110 0.002
113 0.002047
120 0.001995
121 0.002993
124 0.003024
127 0.001009
127 0.00098
127 0.002015
126 0.003031
127 0.00303
129 0.001997
131 0.001027
133 0.000988
135 0.002993
137 0.002008
139 0.002991
139 0.003028
140 0.001962
142 0.001962
143 0.001992
136 0.003045
122 0.002992
114 0.001996
116 0.002993
121 0.001967
124 0.002996
127 0.001994
129 0.003024
130 0.00303
129 0.002982
126 0.003029
126 0.002025
129 0.004035
134 0.00399
139 0.002989
143 0.003023
147 0.003025
150 0.002982
155 0.001996
157 0.002962
159 0.003957
162 0.002993
165 0.003026
167 0.00302
167 0.004009
146 0.00399
103 0.002992
95 0.003027
103 0.003023
114 0.003989
124 0.003031
127 0.004027
131 0.004023
132 0.00303
128 0.001985
126 0.00296
127 0.003991
130 0.003991
134 0.003021
139 0.003028
141 0.003025
144 0.004
150 0.003026
153 0.00404
155 0.004021
158 0.004026
159 0.003028
162 0.003027
165 0.005018
166 0.004991
158 0.004023
124 0.002992
103 0.003024
100 0.003983
116 0.003988
127 0.004995
134 0.005018
140 0.005027
142 0.003022
140 0.002992
134 0.002993
132 0.003989
133 0.005022
139 0.003025
141 0.003028
146 0.00402
149 0.004024
152 0.003989
154 0.005021
156 0.005019
159 0.003049
148 0.00404
115 0.004026
71 0.004052
68 0.004987
83 0.003991
99 0.004
113 0.00399
128 0.003992
130 0.004028
121 0.005032
109 0.004988
104 0.003022
106 0.004022
109 0.003993
112 0.005799
116 0.006037
120 0.004005
126 0.004019
130 0.003986
131 0.004023
95 0.004019
39 0.005039
13 0.004986
16 0.004012
28 0.003985
41 0.005034
51 0.004986
59 0.004989
63 0.003983
58 0.003982
49 0.005022
46 0.00502
50 0.006047
57 0.004999
64 0.005985
71 0.003996
78 0.003986
84 0.004001
90 0.006025
95 0.006017
79 0.005022
20 0.004977
48 0.005019
43 0.005014
50 0.005022
57 0.006028
63 0.005984
69 0.004024
69 0.00401
68 0.004956
64 0.006016
62 0.005984
64 0.004994
67 0.005017
70 0.005023
76 0.005023
80 0.005024
83 0.006013
86 0.005984
90 0.004015
92 0.005984
72 0.006017
38 0.005984
19 0.006024
18 0.004969
24 0.005009
30 0.004989
39 0.004989
44 0.005984
43 0.006017
40 0.006018
36 0.006018
36 0.006038
39 0.00497
43 0.004991
48 0.007016
53 0.006981
59 0.004978
63 0.004985
71 0.005979
74 0.005953
79 0.005955
71 0.005984
42 0.006977
11 0.006024
6 0.006018
13 0.006016
22 0.006989
29 0.006984
38 0.006018
42 0.006018
38 0.006016
33 0.006037
32 0.006981
35 0.006989
40 0.006016
47 0.006015
52 0.005983
59 0.005984
63 0.006982
68 0.007016
76 0.005984
80 0.005985
50 0.006935
23 0.005983
0 0.006982
0 0.006982
0 0.007999
62 0.005981
70 0.007025
75 0.007017
76 0.007978
73 0.007979
71 0.006988
72 0.007013
78 0.007018
84 0.005978
88 0.006978
92 0.006981
96 0.007017
102 0.00602
105 0.006018
100 0.007013
69 0.007986
56 0.00798
49 0.007015
53 0.007015
65 0.006017
71 0.006031
78 0.006018
80 0.006981
78 0.007017
75 0.00599
76 0.007005
78 0.006979
83 0.007979
88 0.007979
94 0.006955
99 0.007031
105 0.006983
109 0.007013
112 0.006979
113 0.007934
85 0.007974
58 0.005955
46 0.006976
47 0.007011
54 0.007957
60 0.007984
67 0.006949
73 0.007023
74 0.007013
74 0.006985
73 0.006975
77 0.006979
81 0.007012
88 0.006982
94 0.007013
97 0.006949
102 0.007011
106 0.007011
108 0.007945
115 0.006979
107 0.007978
80 0.006954
57 0.006985
50 0.007017
55 0.007012
61 0.007988
68 0.00698
29 0.007012
36 0.007014
38 0.007016
36 0.007029
34 0.007978
42 0.006945
54 0.006947
63 0.006969
73 0.007012
80 0.008017
91 0.007038
102 0.007016
109 0.00702
117 0.007013
124 0.007014
130 0.007012
90 0.007013
28 0.007004
13 0.006976
20 0.007013
31 0.006973
39 0.005985
49 0.007024
60 0.006017
63 0.006006
62 0.006015
61 0.007022
63 0.007029
73 0.006975
84 0.006983
99 0.006985
108 0.007016
118 0.007013
126 0.007015
135 0.006989
144 0.006021
152 0.006026
160 0.005985
166 0.005988
151 0.006015
90 0.006024
57 0.006972
66 0.005984
78 0.006994
90 0.006982
102 0.006947
113 0.006833
120 0.006024
119 0.006018
116 0.006021
117 0.005987
123 0.006019
135 0.006018
146 0.006032
156 0.005984
165 0.006015
173 0.006032
179 0.006039
185 0.006017
192 0.00596
171 0.00601
126 0.006017
94 0.006019
87 0.00499
101 0.004984
121 0.006015
137 0.00499
148 0.005025
149 0.005021
144 0.005018
139 0.005018
141 0.006011
147 0.006024
154 0.006017
163 0.005021
171 0.006021
178 0.006018
189 0.005018
196 0.005017
206 0.004971
199 0.005021
156 0.005021
113 0.00502
98 0.004982
107 0.004978
122 0.005018
136 0.00603
149 0.00599
159 0.004991
158 0.004987
152 0.005025
151 0.005023
154 0.005019
162 0.004975
170 0.005019
177 0.005017
187 0.005018
195 0.004972
201 0.005011
207 0.005019
212 0.004022
220 0.004985
204 0.005021
137 0.005047
106 0.005018
105 0.005018
118 0.00502
131 0.005022
146 0.005016
158 0.005017
164 0.005019
163 0.00502
158 0.005022
156 0.004021
162 0.004024
169 0.004027
177 0.003989
186 0.004985
193 0.005021
198 0.00403
206 0.005019
211 0.004022
216 0.004022
214 0.003966
175 0.004027
109 0.003993
103 0.004024
118 0.003976
131 0.004955
142 0.003987
151 0.005004
155 0.005028
152 0.00503
145 0.003959
141 0.003982
144 0.004041
149 0.004024
160 0.003993
167 0.00403
176 0.003988
181 0.004002
186 0.003522
191 0.003948
197 0.003989
196 0.004004
153 0.003023
108 0.003026
88 0.003025
90 0.004058
112 0.004016
123 0.004024
138 0.003965
144 0.003996
140 0.004025
134 0.005036
132 0.00399
134 0.003017
141 0.003023
149 0.003612
155 0.003972
161 0.004037
172 0.003992
179 0.003948
186 0.004037
191 0.003041
166 0.002999
118 0.003948
90 0.00299
85 0.002956
102 0.00296
118 0.002992
130 0.003028
142 0.002959
144 0.003017
139 0.002994
134 0.003006
132 0.004045
137 0.004046
144 0.002988
150 0.003963
155 0.00399
164 0.004178
168 0.00322
172 0.002992
177 0.003026
175 0.003042
132 0.002992
89 0.003007
71 0.003032
81 0.003024
96 0.003053
109 0.002992
121 0.004022
132 0.002992
126 0.003
119 0.002992
113 0.002994
117 0.003015
124 0.003024
131 0.002992
141 0.002992
146 0.002992
152 0.003011
157 0.002992
163 0.00203
146 0.001989
96 0.001995
58 0.001995
49 0.002027
66 0.002008
78 0.000998
91 0.002992
104 0.002992
104 0.002027
96 0.001995
92 0.002027
92 0.001996
99 0.002026
107 0.001996
115 0.001997
121 0.001995
131 0.002026
136 0.001995
142 0.002017
149 0.001994
131 0.001988
79 0.000998
37 0.002992
26 0.001996
37 0.001996
50 0.001995
60 0.002
70 0.001963
78 0.002028
73 0.001967
69 0.00194
69 0.001996
75 0.001996
84 0.001997
94 0.001988
101 0.002032
111 0.001996
119 0.001964
126 0.001996
131 0.001007
121 0.001995
75 0.002019
33 0.001995
18 0.001972
28 0.001983
43 0.001959
53 0.001995
64 0.001995
75 0.001994
73 0.001044
69 0.001996
68 0.000993
76 0.001036
86 0.000998
94 0.000973
103 0.001
114 0.000998
121 0.001995
127 0.000997
132 0.000998
139 0.00098
146 0.001961
149 0.000997
126 0.001996
44 0.00205
30 0.001019
36 0.000997
48 0.000969
64 0.000998
73 0.000998
80 0.000997
82 0.001003
79 0.000997
74 0.001005
79 0.001007
87 0.000865
102 0.000999
110 0.000997
118 0.000998
127 0.00104
138 0.000997
142 0.000998
150 0.000998
157 0.000996
163 0.000997
160 0.000985
119 0.000998
69 0.000999
48 0.000998
58 0.000997
71 0.001015
81 0.0
95 0.0
99 0.0
97 0.000998
92 0.000998
91 0.000997
97 0.0
105 0.0
113 0.0
129 0.0
136 0.0
144 0.0
152 0.0
159 0.001028
166 0.000998
173 0.0
171 0.0
134 0.0
76 0.0
64 0.0
71 0.0
93 0.0
106 0.0
118 0.0
120 0.0
112 0.0
108 0.0
108 0.0
114 0.0
122 0.0
134 0.0
144 0.0
160 0.0
171 0.000998
178 0.000997
184 0.000998
191 0.0
183 0.000998
137 0.001021
79 0.0
69 0.0
77 0.0
91 0.001031
101 0.001031
111 0.001031
121 0.001033
119 0.000999
113 0.0
115 0.0
120 0.000997
129 0.001006
137 0.002041
149 0.0
157 0.0
164 0.0
171 0.001032
178 0.001026
189 0.000999
194 0.000998
172 0.0
121 0.0
81 0.0
71 0.000997
82 0.000993
100 0.0
108 0.000998
122 0.0
130 0.002028
130 0.002028
123 0.001004
123 0.000999
132 0.0
140 0.0
147 0.0
157 0.001033
166 0.001031
175 0.0
182 0.0
190 0.0
196 0.000996
201 0.001049
161 0.001033
106 0.001029
75 0.000963
79 0.000998
93 0.0
105 0.001995
117 0.002028
131 0.0
134 0.000992
129 0.0
124 0.001035
124 0.001036
136 0.001995
145 0.001995
159 0.000953
166 0.0
175 0.0
183 0.002018
189 0.002003
197 0.001034
204 0.001017
208 0.0
197 0.000964
147 0.002012
82 0.001991
82 0.00203
99 0.001002
113 0.000987
128 0.000993
140 0.002009
144 0.00296
140 0.001001
135 0.001
133 0.000996
138 0.001995
147 0.001964
161 0.002025
170 0.002026
180 0.000966
187 0.000997
194 0.000998
199 0.002029
203 0.002992
197 0.002026
150 0.000999
99 0.001005
77 0.002963
83 0.002992
104 0.000997
119 0.002963
133 0.003042
143 0.002025
135 0.001029
126 0.001006
122 0.002995
125 0.001991
134 0.000995
142 0.001876
150 0.000966
158 0.001995
169 0.001995
176 0.003002
181 0.002988
169 0.000984
115 0.001995
69 0.002026
50 0.003027
56 0.002989
74 0.002053
88 0.001032
102 0.001994
114 0.002997
110 0.001995
102 0.002991
100 0.002993
106 0.000997
115 0.000983
124 0.002029
135 0.00299
143 0.00299
153 0.002017
160 0.002006
167 0.001993
168 0.004029
96 0.001993
44 0.003042
24 0.003016
32 0.001997
48 0.001998
61 0.002008
74 0.003024
84 0.003024
88 0.002027
82 0.003027
77 0.001991
80 0.00402
92 0.001995
103 0.004022
113 0.00399
124 0.002007
134 0.001976
141 0.002001
147 0.003019
153 0.003029
161 0.002024
137 0.003018
79 0.002023
32 0.004021
23 0.003094
38 0.004023
52 0.003953
72 0.002994
86 0.002989
91 0.003022
89 0.00399
88 0.004022
93 0.002029
102 0.002028
115 0.002027
130 0.004989
154 0.002994
167 0.003989
179 0.00399
198 0.002992
209 0.002994
221 0.003032
228 0.003984
198 0.003989
123 0.002995
98 0.00402
103 0.002995
119 0.005018
148 0.002991
165 0.004019
176 0.004026
176 0.003026
168 0.00298
166 0.003957
170 0.004018
179 0.004062
189 0.005
203 0.004026
212 0.002993
222 0.003957
234 0.002993
241 0.00199
246 0.00502
250 0.005041
253 0.00399
237 0.003991
178 0.003016
118 0.00498
90 0.004987
99 0.004023
112 0.002979
125 0.002956
147 0.003013
148 0.003029
141 0.005022
130 0.005025
126 0.003984
132 0.003994
141 0.004021
147 0.004986
156 0.005017
167 0.00399
174 0.003985
181 0.004034
192 0.00399
191 0.004027
150 0.004986
85 0.005982
39 0.004004
41 0.004019
53 0.003989
65 0.004985
82 0.004986
98 0.004026
98 0.003992
92 0.004955
86 0.004034
89 0.003976
96 0.006018
104 0.005985
122 0.003959
131 0.004001
140 0.003959
150 0.004989
158 0.005019
165 0.003987
172 0.003988
178 0.00499
155 0.004985
83 0.005016
23 0.006015
1 0.005984
9 0.004015
20 0.004034
30 0.004003
43 0.006026
53 0.006027
54 0.003989
50 0.004963
47 0.005021
56 0.004988
66 0.004954
77 0.005988
90 0.006006
104 0.00502
115 0.005024
124 0.004989
134 0.005989
141 0.006014
150 0.005017
154 0.006004
123 0.004946
18 0.004966
59 0.004988
61 0.007013
69 0.006981
76 0.004988
84 0.004991
90 0.005979
91 0.005984
90 0.006024
89 0.006032
92 0.004988
97 0.004944
107 0.004987
115 0.006021
121 0.006007
127 0.007012
132 0.007013
138 0.006019
141 0.004989
144 0.004985
148 0.007021
152 0.007013
156 0.004987
145 0.005948
91 0.005993
76 0.005982
77 0.005985
84 0.007015
90 0.006982
100 0.005944
105 0.006014
104 0.006019
100 0.007021
98 0.007013
99 0.006939
104 0.006019
113 0.00698
118 0.004987
123 0.005951
127 0.007979
133 0.007974
137 0.005985
141 0.00598
143 0.005984
135 0.006998
104 0.007026
70 0.006985
65 0.006014
74 0.00599
79 0.004985
84 0.006018
93 0.007979
94 0.007981
91 0.007028
90 0.007006
92 0.006984
97 0.007976
101 0.007977
110 0.005989
115 0.004965
124 0.005986
129 0.005984
133 0.005981
138 0.006984
146 0.007049
152 0.007006
156 0.007004
162 0.00698
167 0.007975
171 0.00801
178 0.006952
184 0.006978
191 0.006989
195 0.006983
183 0.007018
129 0.007945
76 0.007979
52 0.006986
59 0.006958
67 0.005984
73 0.007976
80 0.007011
87 0.006952
90 0.006983
86 0.006982
87 0.006983
91 0.006965
98 0.007975
108 0.008025
122 0.006983
127 0.006968
135 0.006976
145 0.007011
152 0.007011
157 0.006957
162 0.006971
171 0.007985
175 0.006977
181 0.006983
188 0.006976
194 0.007013
199 0.006969
169 0.006998
120 0.007011
86 0.007008
77 0.006977
85 0.006977
100 0.006968
112 0.006991
122 0.006978
124 0.006982
119 0.006979
112 0.007021
112 0.007031
118 0.007014
124 0.006954
131 0.007012
139 0.006981
145 0.005968
154 0.006996
160 0.007015
164 0.006965
168 0.005983
169 0.006974
174 0.006016
178 0.006015
168 0.00597
121 0.006014
76 0.007017
57 0.006983
60 0.007033
74 0.005984
88 0.007069
100 0.006978
106 0.007036
102 0.006986
97 0.006014
94 0.006082
99 0.006086
105 0.006014
115 0.005987
124 0.006014
132 0.006018
141 0.005982
151 0.006015
157 0.006018
162 0.005983
167 0.006016
165 0.00701
130 0.007025
66 0.005996
45 0.006015
46 0.006025
57 0.005985
67 0.005985
79 0.005971
91 0.006019
95 0.006019
92 0.006017
88 0.006017
89 0.006017
97 0.005026
107 0.005018
117 0.005019
127 0.005019
135 0.005993
142 0.005974
152 0.005936
160 0.006019
163 0.005734
133 0.005031
84 0.006014
53 0.005019
49 0.005019
60 0.00531
77 0.004986
87 0.005019
98 0.005015
105 0.004975
105 0.004974
99 0.005021
99 0.004995
106 0.004993
114 0.005018
124 0.005019
133 0.005033
141 0.00502
154 0.006023
162 0.005054
169 0.005029
170 0.003994
135 0.004041
70 0.004013
61 0.004035
73 0.005025
87 0.004022
100 0.005019
115 0.00503
124 0.005026
121 0.005017
114 0.005017
113 0.005007
118 0.004991
125 0.004988
140 0.00502
148 0.00502
159 0.003993
165 0.003973
172 0.004019
169 0.004022
129 0.004021
70 0.003991
55 0.003991
60 0.002992
74 0.004982
87 0.004011
110 0.004985
114 0.003984
108 0.004026
100 0.004021
98 0.004016
102 0.003983
110 0.004023
119 0.004025
126 0.002979
135 0.003956
142 0.004026
148 0.002992
108 0.004026
57 0.004063
25 0.003987
28 0.003959
39 0.004021
52 0.004038
63 0.00399
74 0.004019
75 0.003992
66 0.003961
57 0.003958
55 0.003981
67 0.00399
75 0.002992
86 0.002994
94 0.003989
103 0.002992
111 0.00296
108 0.003024
50 0.002993
6 0.003002
0 0.003957
0 0.003599
10 0.002992
25 0.003955
39 0.002993
50 0.003001
51 0.003035
51 0.00304
54 0.003991
62 0.002993
72 0.002993
88 0.002975
98 0.002958
109 0.003954
120 0.002984
135 0.003991
141 0.002993
126 0.002966
65 0.003026
38 0.002992
40 0.002993
52 0.002992
63 0.002992
73 0.002971
86 0.002955
96 0.002994
100 0.002988
100 0.002983
106 0.003025
114 0.003032
129 0.002026
139 0.003079
148 0.002966
158 0.003025
167 0.002994
177 0.002969
184 0.002988
192 0.003023
199 0.002996
188 0.002992
147 0.003031
119 0.001995
122 0.001988
136 0.001994
147 0.002026
155 0.001995
165 0.001996
174 0.002992
176 0.003026
174 0.003027
176 0.001994
188 0.002993
198 0.001987
206 0.001991
217 0.002034
224 0.001995
232 0.001995
236 0.001999
187 0.002002
191 0.001997
194 0.001942
195 0.001998
183 0.002039
159 0.001987
159 0.001995
165 0.001995
172 0.001951
176 0.001996
180 0.001995
181 0.001996
178 0.002025
176 0.001961
176 0.001043
177 0.001035
180 0.001
183 0.001995
184 0.002007
185 0.001995
186 0.002028
188 0.000999
188 0.001006
189 0.000999
188 0.000998
167 0.001037
154 0.000967
152 0.000966
157 0.001992
164 0.001995
166 0.002031
169 0.001996
170 0.002044
167 0.001995
165 0.001031
165 0.000998
167 0.001
171 0.002002
174 0.000997
176 0.000968
178 0.001978
181 0.000997
183 0.001036
184 0.001028
186 0.001016
187 0.001994
188 0.001026
190 0.001013
192 0.001004
191 0.000961
167 0.0
153 0.00203
151 0.000958
160 0.001995
162 0.001032
164 0.000998
167 0.000998
168 0.000997
168 0.000998
166 0.000998
165 0.000999
165 0.000947
168 0.001011
239 0.0
243 0.0
252 0.001036
193 0.0
195 0.0
196 0.0
197 0.0
199 0.0
200 0.001015
202 0.001056
204 0.0
206 0.000954
207 0.0
209 0.0
211 0.000997
212 0.0
214 0.0
210 0.000962
174 0.0
154 0.000992
152 0.0
158 0.0
165 0.0
168 0.0
168 0.0
169 0.0
166 0.0
164 0.0
161 0.0
162 0.0
165 0.0
167 0.0
169 0.0
172 0.000992
173 0.000997
174 0.000996
176 0.0
177 0.0
179 0.001031
180 0.0
183 0.0
189 0.0
199 0.001031
206 0.000998
213 0.000988
218 0.0
214 0.000996
180 0.002029
167 0.002027
169 0.0
180 0.00203
185 0.0
188 0.0
191 0.0
188 0.0
183 0.001997
178 0.002
177 0.0
179 0.0
182 0.0
186 0.002006
188 0.002004
190 0.000982
191 0.001052
192 0.0
247 0.0
245 0.0
244 0.002038
246 0.002025
188 0.000967
179 0.0
154 0.0
134 0.001008
127 0.001009
135 0.001033
141 0.000999
146 0.0
149 0.0
149 0.000997
146 0.001032
140 0.001991
136 0.000998
137 0.0
139 0.0
141 0.001979
144 0.002027
147 0.002028
148 0.002019
150 0.0
152 0.0
152 0.0
147 0.00203
122 0.001036
94 0.0
87 0.0
91 0.001031
96 0.001994
100 0.002046
106 0.001995
108 0.002035
103 0.0
98 0.000984
96 0.0
97 0.002034
99 0.002997
103 0.0
106 0.0
109 0.000963
111 0.001998
114 0.002017
118 0.002034
118 0.001996
96 0.001997
70 0.001994
54 0.002
52 0.002013
58 0.002045
65 0.0
69 0.000996
74 0.000997
76 0.001994
74 0.002027
70 0.002994
71 0.002994
76 0.000967
80 0.000964
85 0.000965
88 0.002993
91 0.001985
96 0.001002
99 0.0
102 0.00103
102 0.002025
86 0.003032
50 0.001961
46 0.001995
55 0.001993
62 0.001991
66 0.00104
72 0.002992
75 0.002973
73 0.002991
70 0.001995
71 0.001024
73 0.001998
77 0.002959
86 0.000964
91 0.001995
95 0.002989
99 0.001987
104 0.002002
108 0.001995
111 0.002993
107 0.003035
78 0.001993
61 0.002005
59 0.001977
65 0.004027
77 0.000995
85 0.002992
91 0.002983
92 0.000996
89 0.002036
87 0.001963
89 0.003025
92 0.002992
99 0.00297
103 0.002024
106 0.00202
110 0.003029
116 0.001047
120 0.003032
122 0.003022
121 0.001996
102 0.001995
79 0.002002
70 0.00399
73 0.003034
83 0.002026
89 0.002004
95 0.002977
99 0.002993
98 0.001995
94 0.003023
94 0.003994
98 0.001996
102 0.001964
106 0.002003
111 0.004021
114 0.003991
119 0.001966
116 0.002018
122 0.001968
128 0.004022
130 0.002011
96 0.002993
53 0.002992
32 0.002992
39 0.003007
49 0.001989
57 0.003991
64 0.004024
72 0.001996
72 0.001992
70 0.002012
66 0.004022
71 0.001975
77 0.004022
85 0.005021
96 0.002981
103 0.003001
110 0.002029
118 0.004023
122 0.004024
130 0.002992
138 0.001989
141 0.00205
125 0.005018
56 0.001995
41 0.004027
46 0.005029
59 0.002014
65 0.002992
71 0.002049
77 0.004023
79 0.00401
76 0.003009
74 0.00296
77 0.003003
83 0.003993
97 0.002986
105 0.002991
113 0.003985
120 0.003989
129 0.002993
136 0.002998
142 0.003989
146 0.005021
152 0.00502
159 0.002989
164 0.003019
170 0.002988
180 0.002995
178 0.004017
139 0.005029
93 0.005027
75 0.003954
84 0.004004
96 0.003993
106 0.005025
113 0.005037
121 0.00298
122 0.003003
120 0.003984
118 0.002993
123 0.003993
132 0.006013
141 0.004987
151 0.00399
157 0.003985
164 0.003966
170 0.005051
176 0.004987
181 0.003988
183 0.003991
188 0.004028
193 0.003987
182 0.003988
144 0.006017
117 0.005957
114 0.003988
128 0.003989
140 0.004956
150 0.006039
159 0.006026
167 0.00499
164 0.004958
157 0.004987
156 0.004022
162 0.004988
168 0.005018
175 0.005021
181 0.004989
186 0.004023
190 0.00499
194 0.005998
198 0.006018
201 0.004028
191 0.004031
151 0.003971
112 0.003989
116 0.00399
127 0.006014
137 0.006014
148 0.004988
155 0.003946
155 0.004
149 0.006019
143 0.006019
144 0.00499
149 0.004945
154 0.005002
164 0.004983
169 0.00499
174 0.005984
178 0.00598
182 0.005952
186 0.005024
183 0.004978
147 0.006975
106 0.006979
90 0.004981
99 0.004954
114 0.004981
129 0.004989
137 0.004955
141 0.00499
139 0.006981
134 0.006982
131 0.00593
133 0.005993
138 0.004945
144 0.007952
151 0.007951
158 0.00599
162 0.004976
169 0.004955
172 0.004988
176 0.005962
176 0.007017
150 0.006995
93 0.005986
78 0.005989
84 0.00602
98 0.007023
108 0.006982
116 0.006033
125 0.005957
125 0.005991
120 0.005984
116 0.005991
118 0.007013
123 0.007015
130 0.005985
136 0.005983
142 0.006982
147 0.007986
151 0.006982
157 0.006952
159 0.005023
165 0.004984
160 0.005014
122 0.00498
75 0.007977
66 0.007978
77 0.004986
92 0.006
101 0.005981
111 0.007976
117 0.007981
116 0.004984
111 0.006004
106 0.005983
109 0.005952
115 0.005995
121 0.007977
128 0.007013
135 0.006949
142 0.006983
147 0.007002
154 0.007978
157 0.007978
161 0.006982
156 0.005985
89 0.005996
67 0.005993
68 0.00598
84 0.006978
96 0.007018
109 0.006965
118 0.006984
120 0.006951
117 0.007979
108 0.007979
106 0.006987
109 0.006952
119 0.006984
125 0.005981
131 0.005983
135 0.007978
143 0.007013
147 0.006995
151 0.006976
153 0.006975
133 0.006982
86 0.00696
59 0.006976
55 0.007001
74 0.006977
87 0.005966
98 0.005963
109 0.006979
108 0.007013
100 0.006983
96 0.006964
96 0.006981
101 0.007013
107 0.006928
116 0.006939
121 0.006014
129 0.006991
134 0.005982
138 0.006981
145 0.007006
139 0.007013
94 0.006032
52 0.006985
35 0.006944
41 0.00698
59 0.006981
71 0.006982
85 0.006941
93 0.006982
88 0.00698
81 0.006968
77 0.006983
80 0.005937
86 0.005983
96 0.006979
103 0.006994
109 0.006988
117 0.007025
121 0.007018
128 0.006981
135 0.007013
131 0.006979
102 0.00698
39 0.005989
20 0.005972
25 0.00602
43 0.005981
56 0.005978
67 0.00599
76 0.00602
78 0.006984
73 0.006977
67 0.007017
71 0.006958
78 0.00602
86 0.005968
93 0.005982
102 0.006015
112 0.005996
119 0.005986
126 0.005982
132 0.005984
135 0.006016
94 0.005025
39 0.007028
25 0.006972
35 0.005938
50 0.006015
63 0.006015
74 0.005987
83 0.004987
82 0.004986
77 0.005983
73 0.006027
78 0.006015
87 0.005983
98 0.006016
108 0.00602
117 0.00605
124 0.005975
131 0.005981
137 0.005988
144 0.004988
123 0.005016
73 0.005029
37 0.004965
27 0.004991
41 0.004958
59 0.005019
74 0.006022
85 0.006029
87 0.005977
83 0.005991
78 0.005021
80 0.005977
86 0.004987
93 0.004983
101 0.004025
109 0.005017
116 0.00498
127 0.00548
133 0.006015
142 0.005034
140 0.004929
102 0.005046
57 0.004982
35 0.004988
39 0.005
54 0.004954
68 0.004941
80 0.004989
91 0.004977
91 0.004994
86 0.003949
84 0.003996
86 0.004283
95 0.005018
103 0.003989
111 0.004034
122 0.003982
130 0.003996
136 0.004016
144 0.004977
149 0.005032
130 0.005028
83 0.00482
46 0.003992
47 0.00498
60 0.004085
76 0.00502
89 0.004928
104 0.00399
105 0.005019
99 0.004989
92 0.00399
91 0.003987
101 0.004033
110 0.004022
118 0.003988
126 0.003994
134 0.003999
140 0.002992
146 0.00399
154 0.003024
135 0.003937
86 0.00399
50 0.004992
40 0.003957
60 0.003969
73 0.004026
91 0.00395
101 0.003993
101 0.004034
95 0.003993
91 0.00399
93 0.003991
100 0.00394
110 0.003991
119 0.002985
128 0.004027
143 0.00399
149 0.003282
157 0.003995
163 0.003055
166 0.002986
137 0.003004
87 0.002992
54 0.002992
58 0.00399
72 0.002992
85 0.003989
95 0.003992
112 0.002992
114 0.002991
111 0.003073
112 0.003024
117 0.002993
126 0.003036
136 0.003033
148 0.00302
157 0.002999
165 0.002993
173 0.003025
180 0.002984
191 0.002992
198 0.002992
193 0.002961
139 0.002994
107 0.003025
101 0.002995
113 0.001941
126 0.002001
140 0.003034
150 0.002954
157 0.002995
156 0.002992
151 0.00303
153 0.003026
158 0.003025
169 0.002991
176 0.001993
184 0.001962
191 0.001988
197 0.002001
205 0.001998
210 0.00199
215 0.001994
221 0.001995
223 0.003006
191 0.002992
150 0.003028
137 0.003
149 0.003014
163 0.001998
173 0.00297
182 0.002004
191 0.001995
190 0.001505
186 0.002019
184 0.003022
188 0.002993
194 0.001985
200 0.001941
209 0.002039
214 0.001993
219 0.001993
222 0.001981
226 0.002024
231 0.002001
234 0.001984
236 0.001949
219 0.001956
159 0.00204
152 0.002039
161 0.001995
178 0.001996
187 0.000997
194 0.002027
200 0.001993
196 0.001992
184 0.001996
181 0.001994
183 0.002042
188 0.001959
196 0.001995
198 0.002038
202 0.002033
207 0.002027
209 0.000996
211 0.001034
214 0.000996
216 0.000941
209 0.000958
171 0.00104
136 0.001989
126 0.001989
144 0.001996
156 0.001951
165 0.00199
173 0.001996
174 0.001011
168 0.001048
162 0.001988
159 0.000963
163 0.001038
168 0.001969
173 0.000998
176 0.000961
182 0.002003
186 0.001045
189 0.001957
192 0.0
195 0.001985
197 0.0
175 0.000967
130 0.000997
104 0.000996
109 0.002026
123 0.000965
134 0.000966
146 0.000973
153 0.001034
151 0.0
144 0.0
138 0.001
138 0.001037
141 0.0
146 0.0
151 0.0
157 0.000998
162 0.000998
165 0.000984
171 0.000997
174 0.0
176 0.0
173 0.0
126 0.0
91 0.0
82 0.0
91 0.0
106 0.0
118 0.000966
125 0.0
133 0.001038
127 0.000998
120 0.0
117 0.0
119 0.0
127 0.0
132 0.0
138 0.0
144 0.0
148 0.0
152 0.0
157 0.0
159 0.0
145 0.0
102 0.000998
73 0.001011
70 0.0
81 0.0
94 0.001979
107 0.0
114 0.0
114 0.0
107 0.002013
100 0.001985
97 0.0
102 0.002031
110 0.0
115 0.0
118 0.000996
123 0.002003
128 0.002046
132 0.001028
134 0.0
119 0.0
79 0.001997
53 0.001984
52 0.0
67 0.00203
83 0.0
90 0.000997
98 0.000994
93 0.002043
85 0.00199
81 0.002034
82 0.0
88 0.000996
94 0.000929
99 0.00303
105 0.001004
112 0.002035
118 0.000982
122 0.0
112 0.0
70 0.0
34 0.001996
22 0.002034
32 0.00096
42 0.0
49 0.000981
60 0.002026
65 0.00203
58 0.002026
52 0.002028
51 0.0
57 0.0
63 0.000958
70 0.002032
75 0.00204
82 0.000959
88 0.001003
93 0.001965
98 0.001032
101 0.00299
44 0.002056
7 0.001975
0 0.000985
11 0.0
23 0.0
29 0.002019
37 0.003045
45 0.0
43 0.0
39 0.000968
38 0.001955
43 0.002029
55 0.000985
63 0.001979
75 0.0
82 0.0
89 0.0
96 0.002032
102 0.001971
108 0.000995
116 0.0
121 0.000973
103 0.002025
55 0.003031
13 0.001984
20 0.003043
36 0.0
41 0.0
48 0.0
56 0.002029
62 0.00205
59 0.0
59 0.0
62 0.0
69 0.00203
76 0.002027
92 0.002995
102 0.002993
112 0.000968
119 0.0
126 0.0
133 0.003026
140 0.003028
149 0.002993
156 0.0
153 0.0
116 0.002993
77 0.003024
63 0.003034
77 0.002993
89 0.001947
98 0.001994
108 0.002981
112 0.001006
109 0.003024
106 0.003022
107 0.001981
112 0.002986
122 0.002988
130 0.004023
142 0.003
149 0.00399
156 0.004033
164 0.002024
171 0.002054
176 0.00098
179 0.002994
173 0.003036
123 0.002035
97 0.003003
96 0.001944
109 0.004031
130 0.001985
140 0.004028
149 0.003991
148 0.001995
141 0.001021
138 0.002998
143 0.004037
150 0.003965
160 0.001994
167 0.001037
173 0.001945
177 0.004019
186 0.000992
190 0.00399
195 0.003959
190 0.001934
152 0.001987
116 0.001972
106 0.003993
114 0.004024
132 0.001988
143 0.001986
152 0.00199
159 0.003989
156 0.001996
150 0.004039
150 0.004042
156 0.002957
163 0.001937
169 0.002985
175 0.004023
179 0.004027
185 0.002994
189 0.002956
192 0.002004
194 0.00399
198 0.002997
185 0.005019
143 0.00502
100 0.001978
100 0.002063
111 0.002993
120 0.004052
126 0.004046
137 0.002986
141 0.003005
140 0.003004
137 0.005002
134 0.002994
139 0.005023
145 0.004988
154 0.001996
160 0.003003
164 0.002993
169 0.004005
173 0.004023
178 0.002992
181 0.00296
184 0.003009
188 0.004987
193 0.00301
174 0.005024
128 0.005027
98 0.003008
102 0.002987
115 0.001978
125 0.002954
133 0.004953
141 0.004983
146 0.002992
143 0.002987
140 0.004006
139 0.003994
144 0.002992
151 0.005027
158 0.005037
168 0.003024
173 0.002962
179 0.002995
185 0.005986
189 0.006015
194 0.003994
198 0.003987
201 0.00399
164 0.003954
125 0.00299
111 0.006015
116 0.006021
134 0.003993
146 0.003953
156 0.003009
164 0.005021
167 0.004982
161 0.00296
156 0.003999
156 0.003026
163 0.004022
170 0.003991
177 0.006019
183 0.005984
189 0.003954
194 0.003986
198 0.003983
202 0.005989
204 0.006984
188 0.004953
145 0.004
118 0.003985
119 0.004989
133 0.005001
146 0.006015
157 0.006025
167 0.003989
166 0.003991
157 0.003973
149 0.006018
147 0.007012
151 0.004983
155 0.003987
161 0.004989
167 0.003946
172 0.00399
176 0.006018
179 0.006016
174 0.00399
131 0.003986
91 0.00399
75 0.005985
79 0.005983
95 0.003985
107 0.004983
118 0.004987
127 0.004989
122 0.004982
115 0.006007
111 0.006027
117 0.003943
123 0.004988
128 0.004988
136 0.006981
142 0.006996
147 0.004979
152 0.004988
157 0.004987
139 0.004986
89 0.004987
55 0.006947
46 0.007018
56 0.007954
73 0.00595
85 0.005991
95 0.005023
102 0.006981
100 0.006951
92 0.004988
88 0.004987
93 0.004956
99 0.004992
107 0.004986
114 0.007022
122 0.007994
129 0.005978
136 0.005984
141 0.004956
135 0.007978
108 0.007979
47 0.005982
27 0.005018
38 0.005981
51 0.003975
62 0.005985
73 0.007015
81 0.007004
78 0.004993
74 0.005017
71 0.005979
74 0.007979
82 0.007975
89 0.005955
97 0.005981
107 0.005976
111 0.005982
115 0.006948
121 0.007972
125 0.007979
120 0.006947
74 0.006953
29 0.005984
13 0.007978
17 0.007969
36 0.005983
48 0.005937
68 0.005961
72 0.005971
68 0.005983
60 0.007981
61 0.006966
65 0.005984
72 0.006026
80 0.005984
92 0.00703
99 0.007013
106 0.005975
115 0.006976
123 0.005983
119 0.00698
77 0.006019
33 0.007934
14 0.006984
21 0.006982
35 0.005984
49 0.006947
69 0.006981
73 0.007019
69 0.006952
59 0.006977
55 0.00698
61 0.006979
65 0.005972
78 0.007013
85 0.005978
93 0.006985
100 0.005957
108 0.006949
111 0.006983
81 0.00701
15 0.006941
0 0.006949
0 0.006976
11 0.006976
21 0.006951
40 0.005986
45 0.00698
42 0.006981
35 0.006947
32 0.005984
38 0.005986
48 0.006012
55 0.006013
68 0.006951
80 0.006994
93 0.006992
98 0.006978
106 0.006971
75 0.00698
21 0.006814
0 0.005951
0 0.006017
0 0.005974
7 0.006032
20 0.006031
38 0.005987
39 0.005993
36 0.006986
35 0.006974
40 0.006977
50 0.007012
62 0.006979
75 0.005978
80 0.006944
92 0.00598
100 0.006015
107 0.006015
114 0.006018
66 0.006019
5 0.006001
60 0.005992
63 0.00598
70 0.006975
75 0.00702
82 0.005985
86 0.005981
86 0.005983
83 0.005982
82 0.006015
85 0.00596
90 0.006011
96 0.005986
100 0.005966
106 0.00601
114 0.005021
115 0.005052
98 0.004969
73 0.004986
90 0.00498
166 0.005986
237 0.006028
224 0.00599
254 0.006003
204 0.006014
205 0.005945
197 0.005966
188 0.005983
183 0.006085
181 0.006013
179 0.004987
175 0.004986
171 0.006016
170 0.004988
171 0.005016
169 0.004992
169 0.004974
172 0.004982
177 0.004967
181 0.005984
183 0.005988
171 0.005021
154 0.004984
145 0.004937
138 0.004988
132 0.005033
125 0.004987
120 0.004988
115 0.004973
111 0.004949
106 0.004974
103 0.003989
101 0.003989
100 0.003953
99 0.003985
98 0.004959
98 0.004023
99 0.00502
99 0.003991
99 0.004983
99 0.004953
95 0.004989
89 0.004941
86 0.004996
86 0.003994
87 0.003991
89 0.003968
91 0.00401
93 0.003991
94 0.00399
94 0.00402
93 0.003989
94 0.005042
96 0.004987
98 0.004987
100 0.004987
102 0.004022
104 0.003954
106 0.003957
108 0.003984
105 0.004023
99 0.004022
95 0.003991
96 0.00399
98 0.003945
101 0.003943
103 0.004971
104 0.003989
104 0.004963
103 0.004025
104 0.003989
105 0.003948
106 0.004988
108 0.004025
110 0.00399
113 0.003019
115 0.00399
117 0.003954
118 0.004011
114 0.00399
108 0.003948
106 0.00399
107 0.003958
109 0.003962
112 0.003958
113 0.004031
115 0.00401
117 0.00399
117 0.003315
118 0.003924
119 0.003995
121 0.003954
123 0.00303
124 0.003995
126 0.003018
128 0.002995
129 0.002992
131 0.003036
132 0.002994
130 0.003027
124 0.003031
121 0.003993
122 0.003024
124 0.002987
125 0.002002
127 0.001996
129 0.003991
130 0.004024
130 0.003949
131 0.002993
134 0.003033
140 0.003033
143 0.003033
146 0.00299
148 0.002999
149 0.002982
151 0.003984
154 0.002955
158 0.001995
163 0.003009
165 0.002992
167 0.002993
169 0.003035
162 0.002991
156 0.002993
155 0.003043
156 0.002982
180 0.002955
181 0.002992
183 0.002993
184 0.001986
183 0.001995
181 0.00203
180 0.001995
180 0.001995
182 0.002958
183 0.002021
185 0.001995
188 0.002976
189 0.003046
189 0.002961
190 0.002025
191 0.002961
192 0.003001
188 0.001995
176 0.001996
168 0.002048
167 0.001964
169 0.002002
171 0.002795
174 0.001962
175 0.001996
175 0.002027
173 0.001998
170 0.002008
168 0.001995
168 0.002026
168 0.002027
168 0.002033
170 0.001013
171 0.001995
172 0.001997
173 0.001997
173 0.003007
174 0.00203
171 0.002958
159 0.00203
150 0.000997
149 0.001997
152 0.001029
154 0.001995
158 0.002047
160 0.002014
160 0.001997
157 0.001961
155 0.001028
154 0.001009
155 0.000997
156 0.000942
158 0.00103
159 0.002024
160 0.001004
161 0.001024
162 0.001994
163 0.001993
163 0.001859
148 0.001014
139 0.001945
137 0.0
138 0.002032
157 0.002026
165 0.000997
170 0.002039
174 0.002049
173 0.00203
164 0.001052
161 0.0
161 0.000998
163 0.000998
167 0.001005
170 0.000998
172 0.000998
175 0.000997
177 0.001031
180 0.001034
181 0.001995
183 0.000997
152 0.0
128 0.001959
119 0.0
122 0.0
131 0.000957
136 0.001017
141 0.001032
145 0.000966
146 0.00101
141 0.000998
137 0.001001
136 0.000994
139 0.0
141 0.0
144 0.0
147 0.0
152 0.0
155 0.0
158 0.0
160 0.000995
160 0.000993
153 0.000997
125 0.000997
105 0.000989
99 0.000999
102 0.0
107 0.0
112 0.0
120 0.0
122 0.0
118 0.0
114 0.0
111 0.0
112 0.0
114 0.0
118 0.0
124 0.0
127 0.0
131 0.0
134 0.001031
138 0.000998
140 0.002004
122 0.0
96 0.0
80 0.0
78 0.0
82 0.0
88 0.0
98 0.001994
103 0.0
100 0.0
95 0.0
93 0.000973
93 0.002034
96 0.000995
100 0.000968
105 0.0
109 0.002005
113 0.002037
118 0.0
123 0.00202
114 0.000999
87 0.000946
69 0.000976
64 0.002046
66 0.001994
74 0.0
81 0.0
89 0.0
92 0.002992
90 0.001037
84 0.0
82 0.001979
85 0.000956
88 0.0
93 0.0
98 0.002994
102 0.002035
108 0.000966
112 0.0
115 0.0
98 0.000969
70 0.002027
52 0.002027
48 0.002023
53 0.002025
62 0.0
70 0.0
75 0.000995
73 0.002031
68 0.002028
65 0.0
65 0.0
69 0.0
74 0.001994
78 0.002032
86 0.001981
91 0.002025
98 0.0
100 0.000963
81 0.0
50 0.00196
30 0.002993
24 0.0
28 0.000962
35 0.0
16 0.001992
25 0.001049
28 0.003005
23 0.001995
20 0.0
23 0.001019
27 0.000971
34 0.003034
42 0.002027
52 0.0
60 0.0
67 0.0
74 0.002032
75 0.002035
23 0.001978
0 0.001977
0 0.000994
0 0.001019
0 0.0
0 0.002035
4 0.001982
9 0.000964
8 0.0
5 0.000963
4 0.001996
7 0.002953
17 0.003025
25 0.002033
33 0.001018
39 0.000977
45 0.0
50 0.002991
55 0.002058
57 0.0
31 0.001999
0 0.000938
0 0.002946
0 0.002992
0 0.003055
0 0.003028
0 0.0
1 0.0
2 0.001024
0 0.002993
0 0.001995
6 0.000953
14 0.002006
22 0.001998
32 0.001996
42 0.003008
54 0.00302
62 0.003
71 0.000961
78 0.00097
73 0.0
42 0.002971
12 0.002958
66 0.002033
69 0.001989
73 0.002976
78 0.002992
84 0.003006
89 0.000979
88 0.002982
86 0.003036
88 0.001997
91 0.002007
95 0.002003
99 0.002992
103 0.004011
108 0.001987
111 0.001995
115 0.001993
118 0.003033
115 0.001991
98 0.00399
84 0.004022
80 0.001997
83 0.001991
88 0.001986
93 0.002994
99 0.003047
103 0.001993
102 0.002998
100 0.002992
100 0.003961
105 0.003007
109 0.004046
113 0.003987
118 0.001998
121 0.001891
125 0.00099
128 0.00399
131 0.004009
132 0.001995
120 0.001947
100 0.002031
88 0.00404
87 0.001991
91 0.005024
95 0.005043
101 0.002012
104 0.001985
105 0.00199
104 0.003988
103 0.004003
106 0.001994
109 0.002002
113 0.002006
117 0.004003
124 0.002021
128 0.003989
131 0.003989
135 0.002015
138 0.00299
140 0.001983
141 0.004986
132 0.005027
105 0.002018
94 0.001998
59 0.001984
66 0.004037
77 0.002003
85 0.003991
93 0.005019
95 0.00298
93 0.002984
91 0.001995
94 0.005027
99 0.004985
109 0.00202
118 0.003016
126 0.001991
133 0.004986
144 0.002984
150 0.005026
155 0.005028
162 0.003021
166 0.003006
170 0.002956
176 0.004993
181 0.004987
165 0.002962
123 0.003011
91 0.002985
80 0.003007
89 0.004001
97 0.003051
107 0.006029
116 0.005984
120 0.002985
117 0.002991
114 0.002993
113 0.005022
116 0.005034
125 0.002996
133 0.002989
140 0.002999
153 0.004002
160 0.003958
166 0.005987
172 0.00598
178 0.003992
182 0.004025
173 0.003995
137 0.005984
103 0.005984
89 0.00399
94 0.002989
104 0.002986
124 0.002995
136 0.002946
140 0.006017
135 0.005019
129 0.003989
129 0.003958
133 0.003989
139 0.006016
146 0.006015
156 0.003989
161 0.00399
167 0.003991
176 0.003994
183 0.004987
180 0.007025
147 0.00702
100 0.003962
86 0.004
89 0.003991
99 0.00595
111 0.005984
129 0.003993
139 0.003992
140 0.002996
129 0.004012
127 0.004993
129 0.006954
135 0.005987
145 0.004994
152 0.004988
160 0.003988
167 0.00702
174 0.007013
182 0.004992
181 0.003998
142 0.003993
79 0.004005
70 0.004991
76 0.007014
87 0.007013
101 0.005006
113 0.003989
122 0.004982
122 0.007013
116 0.006983
112 0.004033
116 0.004986
122 0.005001
135 0.004025
144 0.00403
152 0.007013
160 0.007968
168 0.005022
174 0.004986
177 0.004987
151 0.004983
101 0.007025
68 0.007015
59 0.004989
66 0.004998
83 0.004987
95 0.003976
105 0.004992
105 0.00798
101 0.00798
98 0.004985
98 0.004957
104 0.005019
111 0.007015
120 0.006981
132 0.004973
140 0.004984
151 0.005987
157 0.004986
163 0.005983
166 0.007979
150 0.00798
88 0.005986
57 0.004988
50 0.004987
57 0.008016
69 0.006949
84 0.004987
97 0.005953
103 0.00598
98 0.00499
93 0.006017
94 0.007977
99 0.007979
110 0.005985
119 0.005994
128 0.006007
140 0.007986
146 0.007977
153 0.005984
160 0.004982
168 0.006977
151 0.006021
104 0.006027
60 0.00801
54 0.007558
61 0.005986
73 0.004988
86 0.005985
104 0.00701
109 0.006985
104 0.006981
97 0.005976
96 0.005953
102 0.005981
109 0.005953
121 0.007976
129 0.007977
135 0.005982
143 0.00598
151 0.006977
157 0.006954
150 0.007012
94 0.006983
59 0.00698
47 0.006975
54 0.005985
67 0.005968
86 0.006982
99 0.00698
102 0.006003
97 0.005955
90 0.005984
88 0.007964
92 0.007968
102 0.006982
110 0.006983
127 0.00698
135 0.006977
141 0.00698
147 0.006977
153 0.006972
137 0.006964
104 0.005977
57 0.005973
31 0.006975
34 0.006017
45 0.006963
59 0.005982
74 0.006991
80 0.006984
78 0.006984
72 0.006983
71 0.007015
76 0.007024
85 0.006976
94 0.006983
107 0.006978
115 0.006025
123 0.006005
131 0.005982
138 0.005987
146 0.005985
147 0.00598
116 0.006978
63 0.007023
27 0.00598
21 0.005981
26 0.006979
40 0.005965
49 0.005999
61 0.005979
68 0.005985
64 0.006025
60 0.006015
63 0.005986
70 0.005989
79 0.005983
89 0.006017
99 0.00698
111 0.005972
119 0.006981
127 0.006008
133 0.006014
139 0.005995
148 0.005987
154 0.006003
129 0.005969
76 0.005984
39 0.006015
30 0.005988
42 0.005983
52 0.005995
63 0.004971
77 0.005017
85 0.00504
82 0.005954
77 0.005959
80 0.004955
87 0.004984
96 0.005984
105 0.005999
116 0.005984
128 0.005021
136 0.00498
143 0.004965
149 0.005024
154 0.005022
161 0.004986
160 0.006019
104 0.005991
61 0.005984
44 0.005995
48 0.006017
60 0.006024
77 0.005985
92 0.005007
104 0.005003
102 0.005026
95 0.005019
89 0.005003
92 0.005026
103 0.004984
113 0.004986
122 0.00498
131 0.00502
140 0.004982
149 0.005986
155 0.005016
160 0.005026
166 0.004985
167 0.005017
135 0.005021
58 0.004972
44 0.004982
53 0.004988
66 0.004988
80 0.00499
96 0.005027
107 0.00402
105 0.004012
98 0.004027
94 0.004031
97 0.004021
105 0.00503
122 0.004972
131 0.004987
143 0.004992
153 0.005026
160 0.00496
166 0.004018
172 0.004053
181 0.004026
173 0.004023
123 0.004057
71 0.003989
46 0.00399
52 0.004016
66 0.003976
84 0.004006
100 0.005022
110 0.003971
111 0.003968
106 0.004021
102 0.004036
107 0.003994
115 0.004012
126 0.003992
136 0.004007
152 0.003994
160 0.004037
169 0.003953
175 0.003989
180 0.00302
185 0.004053
170 0.004024
96 0.003992
57 0.004043
48 0.004043
55 0.004035
69 0.003989
94 0.003988
110 0.003958
118 0.002995
112 0.002995
105 0.002958
104 0.003977
108 0.002992
119 0.003991
128 0.003038
137 0.003973
147 0.004044
157 0.004057
172 0.003025
180 0.003027
191 0.004003
189 0.002992
137 0.003026
81 0.002992
53 0.003043
53 0.003991
66 0.004024
82 0.004031
99 0.003025
117 0.003026
120 0.00296
111 0.001999
104 0.004008
107 0.003033
114 0.00399
124 0.003991
135 0.003024
151 0.003026
160 0.003006
169 0.003026
177 0.003016
185 0.002992
165 0.002992
107 0.001996
73 0.002989
67 0.002993
81 0.004007
99 0.002992
119 0.002028
140 0.001996
156 0.001946
150 0.001995
136 0.002995
128 0.003047
129 0.002943
135 0.002955
144 0.002991
156 0.003025
165 0.003019
174 0.00203
183 0.001994
191 0.001992
181 0.001995
116 0.00203
61 0.002006
36 0.003052
43 0.001996
56 0.00196
72 0.002992
93 0.002993
97 0.003043
90 0.001995
80 0.002029
75 0.002026
78 0.002026
84 0.002963
93 0.002046
104 0.001997
122 0.002006
141 0.00196
167 0.001996
211 0.001997
254 0.001995
255 0.001996
220 0.002035
175 0.00197
177 0.001996
201 0.002032
228 0.002029
255 0.001963
255 0.001955
255 0.001986
254 0.00101
255 0.002001
255 0.002015
254 0.00205
254 0.002962
255 0.002984
254 0.002029
255 0.002033
255 0.0
255 0.001043
255 0.001986
255 0.00203
213 0.001995
137 0.002029
118 0.002032
122 0.002042
132 0.000998
146 0.000998
157 0.001998
151 0.001006
135 0.001045
117 0.001008
101 0.001992
103 0.001995
109 0.000971
120 0.002026
130 0.001995
137 0.002029
144 0.001993
149 0.001983
149 0.000988
102 0.000998
39 0.000962
1 0.000998
63 0.000965
70 0.000997
78 0.001002
92 0.00204
97 0.000997
95 0.001995
91 0.002028
89 0.000997
88 0.000998
90 0.000998
93 0.0
98 0.0
106 0.0
110 0.0
114 0.0
115 0.0
89 0.000997
64 0.000998
52 0.000997
51 0.000998
57 0.0
67 0.000997
76 0.000998
82 0.000998
80 0.0
76 0.0
75 0.0
78 0.0
86 0.0
92 0.0
98 0.0
102 0.0
106 0.0
112 0.0
116 0.000971
118 0.000998
82 0.0
58 0.0
48 0.0
51 0.0
62 0.0
71 0.0
79 0.0
85 0.0
88 0.0
87 0.0
86 0.0
87 0.0
95 0.003047
101 0.000998
107 0.0
111 0.000997
117 0.003027
121 0.003024
125 0.0
128 0.000951
131 0.0
132 0.00195
119 0.002025
81 0.001035
64 0.003023
68 0.000996
46 0.000962
55 0.0
65 0.002001
73 0.001985
77 0.0
75 0.0
73 0.0
75 0.001999
82 0.001982
95 0.0
110 0.002031
124 0.0
134 0.0
141 0.0
149 0.003
153 0.003029
158 0.0
163 0.0
165 0.0
139 0.002032
95 0.002046
62 0.0
62 0.002031
75 0.001004
86 0.0
97 0.001015
105 0.0
107 0.00203
102 0.003027
96 0.0
100 0.0
108 0.0
118 0.002026
126 0.002031
140 0.002031
148 0.002033
157 0.0
163 0.000918
167 0.000997
172 0.003028
176 0.00303
178 0.000987
151 0.001022
110 0.0
86 0.003021
81 0.001948
95 0.001962
104 0.001964
121 0.0
130 0.0
130 0.0
126 0.002024
124 0.00298
127 0.0
133 0.0
140 0.0
148 0.003
155 0.002992
166 0.002034
172 0.003031
178 0.0
183 0.0
188 0.0
180 0.002045
143 0.003034
102 0.0
94 0.0
100 0.000995
113 0.002027
128 0.001995
152 0.002993
156 0.002993
149 0.0
144 0.002002
143 0.001006
147 0.002036
153 0.003025
163 0.0
170 0.0
175 0.002985
184 0.002993
190 0.002983
196 0.002995
179 0.002997
122 0.0
95 0.0
89 0.0
96 0.002996
109 0.00299
126 0.0
140 0.0
146 0.000979
142 0.002987
135 0.002955
131 0.002988
134 0.002992
143 0.001998
150 0.001999
155 0.0
161 0.002992
167 0.00302
173 0.00197
178 0.001995
177 0.003001
142 0.002994
97 0.003028
66 0.003026
71 0.003032
84 0.002988
93 0.000964
98 0.002052
96 0.002993
85 0.003944
73 0.002993
61 0.001993
58 0.001993
58 0.002033
60 0.00399
67 0.001991
74 0.002991
83 0.003029
93 0.0
100 0.001971
106 0.002989
105 0.002994
70 0.003025
17 0.00299
5 0.001994
10 0.002999
23 0.004032
48 0.002991
63 0.004022
64 0.003975
57 0.001993
47 0.001999
41 0.001992
38 0.004012
35 0.003987
33 0.001991
30 0.001997
28 0.003002
24 0.003982
17 0.00202
16 0.004023
17 0.00399
0 0.001985
0 0.002989
0 0.002018
0 0.004024
0 0.004021
14 0.002004
33 0.003003
48 0.002978
66 0.005033
86 0.001994
88 0.005019
98 0.005024
127 0.002992
141 0.003957
151 0.001996
163 0.004025
181 0.004028
202 0.002013
204 0.002044
204 0.001997
196 0.004029
144 0.002994
114 0.004026
101 0.003988
97 0.001998
99 0.002995
110 0.002945
122 0.004966
130 0.005031
128 0.002995
126 0.001968
123 0.001979
121 0.004987
125 0.001995
128 0.005047
132 0.005023
136 0.002015
140 0.002996
144 0.002016
143 0.004021
122 0.00503
78 0.002988
60 0.002982
53 0.00299
54 0.005026
66 0.002993
74 0.005032
75 0.005018
69 0.002001
65 0.002004
63 0.001997
63 0.001992
67 0.00598
72 0.006017
80 0.003
85 0.002966
91 0.002993
98 0.002996
95 0.002994
70 0.005984
43 0.005021
28 0.003
30 0.002997
38 0.002993
48 0.004987
59 0.004987
70 0.002037
72 0.003992
69 0.003961
68 0.003989
71 0.003023
76 0.005981
82 0.00598
91 0.003988
98 0.003007
104 0.002993
109 0.005984
113 0.006015
91 0.003957
65 0.003999
52 0.002991
61 0.00399
71 0.002948
80 0.007014
89 0.006015
97 0.003008
98 0.002962
96 0.003963
97 0.006015
99 0.006022
107 0.004029
115 0.00402
122 0.003989
133 0.004003
141 0.002995
148 0.00595
151 0.005937
126 0.004037
104 0.00296
95 0.003989
96 0.006987
103 0.006979
115 0.004
124 0.005025
129 0.00399
128 0.003023
125 0.004012
125 0.005969
126 0.005986
131 0.003973
138 0.002998
145 0.003989
151 0.007013
155 0.006984
164 0.003989
161 0.003995
137 0.003982
107 0.003991
108 0.003991
116 0.007015
126 0.006971
140 0.004991
151 0.004996
155 0.004019
154 0.00702
151 0.007011
150 0.003986
153 0.003985
158 0.004991
168 0.004988
175 0.005002
180 0.003984
185 0.006985
188 0.00702
167 0.003979
141 0.005011
128 0.004008
128 0.007014
136 0.007011
147 0.003994
156 0.005002
166 0.004988
166 0.004952
163 0.005987
161 0.006981
164 0.007977
168 0.00403
174 0.004997
179 0.004953
184 0.007013
188 0.007963
214 0.003994
220 0.005956
188 0.004956
156 0.004985
142 0.005016
146 0.007978
156 0.007949
170 0.003989
183 0.004945
193 0.005019
190 0.00795
186 0.007979
180 0.004983
180 0.005998
187 0.005978
193 0.005995
199 0.005011
205 0.007971
212 0.007973
217 0.005996
220 0.005984
203 0.004991
171 0.007959
146 0.00697
145 0.005987
153 0.005983
173 0.005934
185 0.006014
192 0.005986
187 0.007985
182 0.00798
182 0.005996
187 0.005985
192 0.006001
199 0.007976
205 0.00698
211 0.00596
216 0.006007
222 0.005985
221 0.005985
194 0.005988
159 0.006983
154 0.006981
162 0.00698
169 0.005981
177 0.005984
192 0.00698
198 0.007012
197 0.006979
192 0.006977
189 0.005981
192 0.005978
197 0.00598
206 0.006978
211 0.006981
216 0.005981
220 0.00495
225 0.005982
96 0.007025
224 0.006021
194 0.006991
161 0.00698
176 0.006981
190 0.005986
205 0.006977
214 0.005987
234 0.006701
240 0.005983
237 0.006016
234 0.006943
234 0.005953
234 0.005971
239 0.006998
244 0.00698
252 0.007022
255 0.005927
255 0.006976
255 0.005996
255 0.006014
255 0.006132
211 0.005983
181 0.00599
174 0.005985
183 0.006011
195 0.006019
209 0.00599
223 0.006019
225 0.006977
220 0.005986
215 0.006982
213 0.006948
217 0.00698
225 0.006014
89 0.006015
235 0.006053
240 0.005983
244 0.005953
190 0.005985
192 0.005988
194 0.005984
189 0.005991
168 0.005988
147 0.005985
139 0.006014
143 0.004965
149 0.004986
154 0.004984
160 0.005985
162 0.005951
160 0.005998
153 0.006014
149 0.004984
150 0.004987
152 0.004986
155 0.004987
159 0.005017
164 0.00599
166 0.005988
169 0.005979
172 0.006017
174 0.004991
175 0.005956
159 0.004991
131 0.004939
128 0.004946
133 0.004987
140 0.00504
146 0.004987
153 0.004954
155 0.004998
151 0.005021
145 0.004982
142 0.006024
143 0.00598
146 0.00499
150 0.00497
155 0.004981
162 0.004991
168 0.005023
173 0.005019
178 0.005002
180 0.004987
170 0.004987
146 0.005019
129 0.00403
123 0.003984
128 0.003951
138 0.004993
144 0.005002
147 0.004985
144 0.005018
139 0.004986
135 0.005019
134 0.004979
135 0.00499
137 0.00399
140 0.003971
143 0.003988
146 0.003987
149 0.003992
169 0.004023
166 0.00399
131 0.004989
88 0.00399
65 0.00399
66 0.003989
77 0.003
89 0.002991
101 0.003993
111 0.004019
109 0.004986
96 0.005032
95 0.004024
98 0.00399
102 0.00404
107 0.004021
116 0.004009
126 0.003988
135 0.004021
140 0.003989
144 0.003993
150 0.003984
134 0.003994
65 0.003991
24 0.003019
26 0.003019
41 0.00396
53 0.003984
64 0.004018
82 0.004026
88 0.003992
83 0.003979
72 0.00399
71 0.004007
79 0.003987
90 0.003995
100 0.002976
111 0.002993
122 0.003044
130 0.002992
136 0.002992
143 0.00398
141 0.003983
101 0.003985
51 0.003971
23 0.003005
25 0.002963
50 0.003989
69 0.00299
85 0.003018
95 0.002993
96 0.00297
89 0.002995
84 0.003028
89 0.003025
100 0.002989
110 0.002999
118 0.002993
129 0.003009
139 0.004025
148 0.002994
154 0.003044
158 0.002961
149 0.002992
105 0.002993
47 0.002992
35 0.002992
45 0.003
60 0.002996
74 0.00301
95 0.002993
101 0.003028
92 0.003029
85 0.001956
84 0.002992
92 0.002993
101 0.002993
112 0.002005
124 0.002959
134 0.003041
143 0.001999
149 0.001995
156 0.002035
159 0.002027
127 0.002002
64 0.002054
43 0.002034
46 0.00294
63 0.002993
83 0.002993
111 0.002993
124 0.002948
125 0.001991
120 0.001975
119 0.001985
127 0.002026
137 0.001993
147 0.001999
157 0.002053
165 0.002037
171 0.002031
175 0.001995
183 0.002026
183 0.001998
155 0.001992
108 0.002001
79 0.00205
83 0.001995
98 0.002026
122 0.00196
140 0.001995
145 0.002001
139 0.001995
130 0.002038
128 0.002015
134 0.001986
143 0.002032
151 0.001996
160 0.001995
175 0.000997
182 0.000999
192 0.001029
196 0.001994
179 0.00105
134 0.000998
98 0.002027
88 0.001998
100 0.002989
117 0.002006
133 0.002036
147 0.001985
151 0.000997
144 0.000997
140 0.001048
142 0.002032
150 0.000997
158 0.002015
168 0.001031
178 0.002027
185 0.000975
193 0.00106
198 0.002988
202 0.002001
151 0.0
111 0.001006
97 0.000999
108 0.000994
122 0.000961
133 0.00203
149 0.000998
161 0.002036
163 0.0
160 0.0
160 0.000995
164 0.000999
176 0.000998
186 0.000997
197 0.000959
205 0.000998
213 0.000997
220 0.000997
226 0.001004
232 0.0
161 0.0
191 0.0
149 0.0
133 0.0
146 0.001
159 0.0
168 0.000983
183 0.000998
189 0.000998
189 0.0
187 0.000998
187 0.0
192 0.0
200 0.0
208 0.0
215 0.0
227 0.0
233 0.0
240 0.0
246 0.0
249 0.0
254 0.0
255 0.0
255 0.0
255 0.0
255 0.0
255 0.0
242 0.0
174 0.0
164 0.0
171 0.0
185 0.0
190 0.0
195 0.0
199 0.0
196 0.0
187 0.0
186 0.001007
188 0.000964
195 0.000962
206 0.000998
213 0.001003
219 0.0
228 0.001
234 0.000999
241 0.0
245 0.0
247 0.001015
252 0.002013
192 0.002033
195 0.000965
197 0.001004
172 0.000964
154 0.0
148 0.0
151 0.002986
158 0.002992
165 0.0
169 0.0
172 0.0
172 0.002969
168 0.002987
165 0.000992
166 0.000965
175 0.0
181 0.0
188 0.0
193 0.002032
197 0.002014
200 0.0
201 0.0
201 0.000998
201 0.002992
200 0.003027
187 0.000968
166 0.000965
149 0.0
152 0.0
158 0.0
163 0.002025
168 0.00299
172 0.0
169 0.0
165 0.0
160 0.001994
159 0.002994
160 0.003001
164 0.001
167 0.00303
172 0.0
175 0.000959
178 0.000989
180 0.003028
181 0.003016
179 0.001019
160 0.000999
138 0.000997
127 0.003025
126 0.001978
132 0.000967
139 0.002033
145 0.000962
147 0.0
146 0.001
141 0.00303
138 0.002995
139 0.000964
142 0.0
146 0.0
149 0.003026
153 0.003016
174 0.000997
179 0.003026
181 0.0
185 0.0
174 0.0
135 0.003024
98 0.003038
81 0.001969
86 0.001982
97 0.000961
107 0.002991
115 0.004004
125 0.0
123 0.003023
116 0.0
113 0.0
115 0.0
120 0.002993
126 0.003006
134 0.00096
141 0.0
145 0.002978
152 0.003989
157 0.003039
162 0.0
149 0.003024
96 0.0
66 0.001017
56 0.0
62 0.002
72 0.002028
83 0.0
92 0.000986
96 0.001964
94 0.003032
87 0.003024
83 0.001007
86 0.003024
94 0.0
101 0.000967
107 0.0
114 0.002026
118 0.003957
125 0.001955
129 0.001004
132 0.0
122 0.003024
84 0.003975
41 0.0
33 0.003024
47 0.0
61 0.0
74 0.0
85 0.003023
90 0.003036
83 0.001026
78 0.000964
77 0.001998
81 0.00301
87 0.002994
96 0.001026
107 0.002997
116 0.001984
123 0.001039
130 0.00104
135 0.003027
138 0.002992
122 0.004
68 0.000965
39 0.003001
33 0.002999
42 0.004996
54 0.004975
78 0.002994
89 0.002993
88 0.0
81 0.00303
75 0.002978
76 0.003024
81 0.004024
90 0.002988
98 0.00399
105 0.003
110 0.004022
114 0.005021
117 0.004002
119 0.004021
104 0.002
63 0.002999
30 0.002045
19 0.004052
26 0.003989
44 0.002991
61 0.002992
78 0.003991
87 0.004987
84 0.00399
71 0.004009
69 0.005025
72 0.002997
77 0.002992
84 0.002998
91 0.003934
98 0.005026
106 0.003001
113 0.002011
117 0.002008
94 0.004973
51 0.00399
10 0.005022
14 0.004025
30 0.002995
46 0.003005
64 0.003004
77 0.004987
81 0.004987
75 0.002994
72 0.003985
75 0.002994
81 0.005021
88 0.004987
100 0.005018
108 0.005037
119 0.0
129 0.001996
126 0.002994
88 0.004987
42 0.005002
14 0.002986
14 0.002021
20 0.002039
25 0.004963
33 0.005019
40 0.004958
33 0.004988
21 0.002987
16 0.002006
17 0.002992
22 0.004953
30 0.004955
42 0.003991
52 0.002995
61 0.002029
69 0.00502
66 0.005017
0 0.005019
0 0.004975
0 0.002996
0 0.003001
2 0.002997
16 0.00502
30 0.006011
38 0.002997
36 0.004001
35 0.00299
38 0.006017
47 0.004947
64 0.005955
75 0.005023
85 0.006017
96 0.001997
103 0.003002
110 0.00399
116 0.006015
100 0.006018
42 0.002991
16 0.002999
12 0.002029
22 0.006023
43 0.00299
55 0.005028
68 0.006023
74 0.002992
75 0.002992
76 0.001996
82 0.006019
90 0.005983
107 0.003983
119 0.003959
132 0.003956
143 0.006028
159 0.002954
168 0.004986
177 0.006023
187 0.002991
194 0.002992
201 0.00302
206 0.005968
185 0.005985
145 0.003948
137 0.003992
145 0.003035
160 0.005983
179 0.002993
189 0.006024
196 0.005983
200 0.001994
199 0.002992
199 0.003989
204 0.006982
212 0.006981
222 0.002958
232 0.00502
239 0.004997
187 0.005981
192 0.002991
194 0.005973
196 0.005952
199 0.00399
201 0.003974
202 0.00402
201 0.007013
188 0.006995
176 0.003999
177 0.003999
182 0.004035
187 0.007014
193 0.003985
196 0.007088
196 0.007016
194 0.004021
192 0.003977
192 0.003031
193 0.007014
195 0.007036
198 0.005003
201 0.002952
203 0.004997
205 0.007979
207 0.004998
209 0.007014
210 0.006966
212 0.003957
213 0.004985
215 0.003986
215 0.007981
212 0.00698
197 0.002992
192 0.004987
193 0.004991
197 0.007016
204 0.003989
207 0.006972
209 0.006981
207 0.003985
204 0.004989
202 0.004985
202 0.004956
202 0.008014
204 0.006978
206 0.004995
207 0.00499
207 0.00499
208 0.004996
209 0.004986
209 0.00797
209 0.007979
208 0.005019
208 0.005008
207 0.005956
206 0.007016
196 0.007013
183 0.006009
182 0.005952
185 0.005006
193 0.004024
254 0.004976
255 0.007981
255 0.007978
232 0.004987
226 0.004977
222 0.004851
224 0.007962
226 0.006981
228 0.00594
231 0.005986
232 0.005022
234 0.004994
236 0.004962
237 0.007977
237 0.007937
237 0.004988
236 0.004989
233 0.004943
211 0.00799
202 0.007979
201 0.00499
208 0.005953
215 0.005986
225 0.00602
227 0.00599
227 0.007968
225 0.007966
217 0.005954
214 0.005972
214 0.005984
215 0.007016
217 0.006984
218 0.005985
218 0.005994
219 0.005988
219 0.005984
219 0.00498
218 0.007011
218 0.006964
207 0.005997
188 0.006945
181 0.00495
184 0.006972
190 0.006975
197 0.005985
202 0.005953
205 0.005956
204 0.006007
199 0.005984
192 0.00698
190 0.006979
191 0.005984
192 0.004992
193 0.005988
195 0.006982
197 0.006982
198 0.005971
198 0.00695
199 0.005999
199 0.005994
198 0.005993
175 0.007045
162 0.006976
161 0.006984
167 0.00602
175 0.005992
215 0.005977
222 0.00699
225 0.005985
219 0.006004
213 0.005984
202 0.005985
202 0.005985
203 0.005983
205 0.00698
209 0.006981
211 0.005998
215 0.006008
217 0.006997
219 0.005985
218 0.005957
216 0.005983
192 0.006015
162 0.00599
165 0.00598
175 0.005965
187 0.00598
194 0.005023
203 0.006019
204 0.006023
198 0.00599
190 0.005986
186 0.005988
186 0.005992
190 0.006002
197 0.00599
201 0.005966
205 0.005977
207 0.00602
208 0.006018
210 0.005964
209 0.005986
188 0.005986
162 0.004988
152 0.004988
158 0.004974
168 0.005979
180 0.006015
185 0.004998
184 0.005983
175 0.005982
165 0.005988
159 0.005982
159 0.006016
161 0.004986
163 0.004986
165 0.005015
166 0.005048
167 0.005037
168 0.004987
166 0.004986
147 0.004989
119 0.004987
109 0.005004
117 0.004928
128 0.00492
137 0.006019
145 0.005002
150 0.004988
145 0.004987
136 0.004984
128 0.004984
128 0.00499
128 0.004918
130 0.004986
132 0.004996
133 0.00502
134 0.004995
136 0.004985
135 0.004997
134 0.004993
103 0.004987
73 0.004947
64 0.004987
71 0.003952
79 0.003992
84 0.003985
89 0.00495
92 0.004987
90 0.004968
85 0.004988
84 0.004001
85 0.005014
88 0.005024
89 0.004965
92 0.005015
95 0.004991
96 0.003988
98 0.004019
98 0.004023
100 0.004045
96 0.003975
66 0.003987
37 0.00396
27 0.003987
32 0.002991
43 0.003984
49 0.003953
54 0.004982
55 0.003988
50 0.003984
43 0.003977
40 0.003619
