156 0.000994
164 0.000943
177 0.000999
186 0.000962
150 0.000969
81 0.000996
67 0.000967
75 0.001014
85 0.000997
94 0.000998
115 0.000994
122 0.001996
128 0.003057
139 0.002993
148 0.00199
163 0.003989
176 0.00399
184 0.004061
151 0.003989
94 0.004045
67 0.003949
81 0.004004
88 0.004029
104 0.003978
116 0.00382
129 0.005022
134 0.006986
141 0.006012
153 0.007009
166 0.007979
174 0.007978
186 0.00798
196 0.006981
140 0.006981
81 0.005947
76 0.005984
94 0.004987
110 0.004987
123 0.004986
136 0.004984
140 0.004988
146 0.004987
156 0.005019
166 0.004979
180 0.004987
193 0.004987
201 0.004884
164 0.003989
104 0.003982
79 0.003034
101 0.001995
113 0.002992
134 0.001991
143 0.001994
143 0.001995
146 0.000997
154 0.000998
169 0.001011
183 0.0
191 0.0
202 0.0
138 0.0
89 0.0
80 0.0
93 0.0
113 0.000998
132 0.001004
138 0.001028
139 0.001028
144 0.000997
156 0.001999
167 0.001995
178 0.001995
187 0.001906
197 0.002973
154 0.002992
73 0.002963
66 0.002949
83 0.003033
98 0.003012
108 0.002981
122 0.003046
126 0.002974
131 0.00299
144 0.004039
154 0.003985
168 0.004028
181 0.003991
187 0.003987
114 0.003882
70 0.004018
63 0.003995
78 0.005041
90 0.005022
105 0.005027
118 0.004981
119 0.005021
125 0.005935
133 0.005877
150 0.005983
164 0.006026
173 0.006028
182 0.005986
133 0.006017
61 0.006998
66 0.007033
77 0.007018
97 0.006956
114 0.007016
116 0.007014
116 0.007015
121 0.006964
129 0.007978
146 0.006978
153 0.006981
165 0.006981
172 0.006943
94 0.007031
50 0.006988
51 0.006969
70 0.005971
87 0.006018
96 0.005984
101 0.00598
102 0.005977
110 0.004987
125 0.004993
135 0.004025
148 0.00303
160 0.002991
145 0.003032
52 0.003025
33 0.002992
40 0.003036
51 0.002992
60 0.002998
78 0.003024
84 0.003039
89 0.003022
102 0.001997
110 0.00303
126 0.002042
140 0.001031
149 0.001009
113 0.001002
57 0.000996
30 0.0
40 0.0
47 0.0
62 0.000965
81 0.001051
86 0.000999
92 0.000962
99 0.001007
116 0.001017
132 0.000986
141 0.000998
155 0.000994
164 0.000998
104 0.000998
46 0.000997
41 0.00196
54 0.002002
69 0.003003
82 0.003009
96 0.002992
97 0.002992
103 0.002967
119 0.004034
129 0.003991
144 0.00399
156 0.005026
165 0.005016
136 0.006032
75 0.006038
39 0.00499
52 0.006995
60 0.006998
76 0.005981
86 0.007979
92 0.007981
96 0.007949
105 0.006015
121 0.006981
138 0.00698
147 0.006032
159 0.006067
172 0.005022
143 0.002999
51 0.002992
36 0.003039
43 0.002977
50 0.003115
59 0.002034
76 0.000977
87 0.001989
93 0.000992
103 0.001122
120 0.0
132 0.0
149 0.00098
156 0.001001
172 0.000996
177 0.000998
97 0.000996
48 0.000996
48 0.00101
55 0.001008
65 0.001002
76 0.000993
94 0.001996
100 0.001992
105 0.003017
121 0.004016
140 0.00502
151 0.005031
164 0.004986
171 0.005029
185 0.00502
143 0.005995
81 0.006016
50 0.007034
61 0.007889
70 0.006993
81 0.007945
95 0.007035
104 0.007014
106 0.006109
110 0.006028
127 0.004956
144 0.003989
152 0.004018
162 0.003983
174 0.003991
180 0.004034
113 0.004023
55 0.003027
48 0.002968
57 0.004017
62 0.004024
84 0.002993
97 0.003001
104 0.004042
112 0.003989
125 0.002026
139 0.003026
155 0.002992
163 0.00315
176 0.002989
184 0.003028
169 0.003027
74 0.000998
56 0.000982
60 0.001029
65 0.000999
71 0.000994
92 0.001004
103 0.000998
110 0.001008
120 0.001
131 0.000998
150 0.001995
166 0.002979
174 0.002991
187 0.002992
196 0.002987
178 0.00401
92 0.004979
63 0.005041
68 0.006951
77 0.006984
82 0.006979
101 0.007933
112 0.006983
114 0.007018
122 0.006028
131 0.007021
148 0.005964
160 0.006003
165 0.006018
174 0.005985
185 0.00502
170 0.005023
80 0.004986
59 0.003987
68 0.003978
73 0.005021
84 0.004008
99 0.004985
105 0.004034
108 0.004022
119 0.002992
129 0.002991
144 0.003027
155 0.001994
162 0.003023
172 0.001035
165 0.000998
107 0.000999
56 0.0
58 0.0
63 0.0
70 0.0
82 0.0
97 0.0
98 0.0
107 0.001031
120 0.001014
134 0.0
145 0.000997
157 0.0
166 0.000996
179 0.000998
188 0.000975
115 0.000997
74 0.0
62 0.0
68 0.0
70 0.0
81 0.0
101 0.000998
106 0.000997
112 0.000997
118 0.000998
136 0.000969
153 0.001995
162 0.001995
173 0.001996
185 0.001994
192 0.001995
151 0.001998
94 0.001996
65 0.002991
72 0.004023
78 0.003989
87 0.004021
101 0.003957
110 0.004039
113 0.004015
118 0.004021
134 0.003989
150 0.003956
158 0.003992
171 0.004953
178 0.005947
191 0.006018
180 0.006825
116 0.00695
63 0.006981
65 0.006997
66 0.006998
71 0.00685
83 0.007015
101 0.006981
106 0.007944
109 0.007014
120 0.007979
135 0.007011
150 0.007975
165 0.007019
174 0.006003
187 0.006021
202 0.005007
196 0.006015
94 0.004022
68 0.004987
69 0.004025
74 0.004026
78 0.004027
99 0.004021
114 0.002034
116 0.001194
124 0.001023
138 0.001995
153 0.001028
165 0.00196
177 0.001003
186 0.001995
199 0.001992
210 0.001007
145 0.000993
91 0.001005
74 0.001033
84 0.000958
90 0.001014
105 0.0
117 0.000997
124 0.0
128 0.0
136 0.0
155 0.0
166 0.000998
174 0.001052
186 0.001996
199 0.002991
182 0.003026
88 0.003002
70 0.00403
77 0.004069
84 0.004026
90 0.004025
107 0.004025
117 0.004023
119 0.004986
129 0.005017
139 0.005022
157 0.005021
170 0.006061
178 0.004988
191 0.00588
198 0.006019
149 0.005967
74 0.005984
66 0.006014
72 0.005971
74 0.005985
83 0.00602
104 0.005998
111 0.005977
115 0.006019
124 0.00603
138 0.006093
151 0.005989
162 0.005981
174 0.007022
184 0.007979
197 0.00798
188 0.007979
124 0.007978
72 0.008021
76 0.006983
80 0.007941
85 0.006972
105 0.006053
114 0.007014
118 0.006013
122 0.006018
137 0.006018
155 0.006015
161 0.006015
175 0.005982
183 0.005986
195 0.006021
209 0.006018
149 0.00499
85 0.006027
76 0.005034
83 0.005036
88 0.005034
95 0.005021
113 0.004987
117 0.004034
119 0.004029
130 0.003036
147 0.002031
155 0.002992
165 0.002011
173 0.000965
185 0.000998
146 0.001944
90 0.00095
64 0.001038
69 0.000943
75 0.000957
81 0.000999
94 0.000998
109 0.0
113 0.0
119 0.000999
131 0.0
145 0.0
157 0.0
170 0.0
179 0.0
192 0.0
201 0.0
134 0.0
67 0.0
64 0.000997
70 0.00196
75 0.000998
86 0.001995
107 0.001943
114 0.001962
119 0.002025
134 0.001992
145 0.001962
165 0.002948
178 0.003024
188 0.002992
200 0.002992
211 0.002993
224 0.003034
137 0.003989
86 0.00498
73 0.004875
81 0.005023
88 0.005021
102 0.004999
115 0.005011
123 0.004964
125 0.005981
134 0.006024
151 0.006022
162 0.007013
176 0.006995
188 0.007014
197 0.005973
208 0.006975
131 0.00793
79 0.007017
63 0.007975
72 0.007016
78 0.007979
89 0.007014
103 0.00698
115 0.006986
118 0.006977
127 0.00702
146 0.00501
162 0.001987
170 0.00103
178 0.000997
190 0.0
197 0.0
200 0.000998
132 0.000997
54 0.001003
50 0.000998
54 0.002992
56 0.003892
74 0.004039
87 0.005034
95 0.004974
102 0.005032
111 0.005037
131 0.004984
144 0.005048
162 0.004988
177 0.004986
185 0.004995
201 0.005985
212 0.005981
129 0.005984
56 0.006974
55 0.006974
64 0.007979
72 0.007109
80 0.007004
102 0.007012
110 0.006981
114 0.006952
125 0.007978
142 0.007011
158 0.007979
173 0.007019
184 0.006958
197 0.006017
206 0.005984
171 0.006008
73 0.005016
60 0.006016
73 0.004985
79 0.005978
93 0.00503
113 0.005018
118 0.005018
121 0.00398
135 0.00402
148 0.004019
162 0.002973
175 0.001991
186 0.002024
200 0.001995
213 0.000974
170 0.001
67 0.000997
53 0.000997
60 0.001008
61 0.001011
68 0.001097
92 0.0
101 0.0
104 0.0
113 0.000998
124 0.000997
143 0.001013
155 0.000982
170 0.000997
184 0.00099
193 0.000997
203 0.000998
97 0.002987
60 0.003002
57 0.0029
62 0.003985
65 0.003961
85 0.00403
99 0.004022
107 0.004117
108 0.004025
122 0.00401
138 0.004023
150 0.004023
166 0.00399
180 0.004023
188 0.003992
203 0.004982
169 0.005984
74 0.005993
65 0.006021
72 0.006016
78 0.005988
86 0.005812
106 0.00602
111 0.005984
112 0.006985
125 0.007019
140 0.006981
153 0.006917
163 0.007987
172 0.007964
180 0.007943
183 0.007972
147 0.007972
66 0.007979
56 0.007979
63 0.00794
65 0.007015
73 0.00798
94 0.006983
101 0.005984
104 0.004986
116 0.005022
123 0.005017
144 0.003998
158 0.00298
164 0.002999
175 0.002952
187 0.003989
173 0.002997
90 0.003026
55 0.002026
54 0.00299
55 0.002029
57 0.00203
74 0.000983
90 0.0
96 0.001
101 0.001013
117 0.001001
130 0.000998
149 0.000963
159 0.001032
174 0.000998
187 0.00096
195 0.000998
210 0.001001
184 0.000957
81 0.000997
64 0.001961
70 0.001996
72 0.002028
85 0.00296
99 0.002949
111 0.003025
111 0.002958
121 0.002993
137 0.002951
151 0.002991
164 0.002989
173 0.003049
185 0.002942
199 0.002995
208 0.003805
180 0.00399
79 0.004998
66 0.004989
76 0.005885
83 0.007007
90 0.005987
113 0.007014
119 0.007016
119 0.007004
126 0.00695
140 0.007988
152 0.00793
164 0.006981
175 0.007981
183 0.007013
189 0.005972
178 0.006018
82 0.005014
61 0.004988
66 0.003979
73 0.003029
79 0.003011
99 0.001977
107 0.003025
109 0.001985
119 0.001032
129 0.001035
147 0.001004
159 0.000999
169 0.0
179 0.001041
189 0.0
199 0.000997
165 0.001996
95 0.001003
51 0.000998
52 0.001994
53 0.0
54 0.0
67 0.0
85 0.000998
94 0.000999
97 0.00101
110 0.000836
122 0.00102
140 0.001017
155 0.000998
163 0.001972
175 0.000997
183 0.001
198 0.001964
136 0.003036
78 0.002994
52 0.00296
59 0.002993
59 0.002992
68 0.003006
82 0.003029
100 0.003954
105 0.002993
112 0.003022
126 0.00299
139 0.002958
158 0.003041
174 0.002959
183 0.002992
197 0.002999
205 0.003989
223 0.003989
171 0.003943
98 0.003937
66 0.00402
80 0.004
86 0.003996
95 0.00399
108 0.004036
122 0.005023
123 0.004987
130 0.005021
142 0.005019
161 0.007028
170 0.007012
179 0.007947
185 0.007948
198 0.007972
208 0.007005
201 0.007979
94 0.007018
67 0.006012
75 0.006005
88 0.005969
91 0.005986
109 0.004988
120 0.004993
120 0.004988
128 0.004975
138 0.00499
155 0.004025
166 0.004992
176 0.002991
185 0.003989
195 0.004185
203 0.004001
201 0.004021
132 0.004026
66 0.003989
67 0.003028
73 0.003992
75 0.003026
91 0.00217
102 0.000997
108 0.001032
111 0.001
121 0.000999
137 0.0
147 0.0
161 0.000998
168 0.001009
180 0.0
190 0.001031
201 0.0
156 0.001018
69 0.001043
61 0.002029
72 0.000997
77 0.000997
85 0.0
98 0.0
107 0.000997
110 0.0
114 0.000993
131 0.0
146 0.000989
155 0.001995
168 0.001883
180 0.002032
186 0.001995
199 0.002033
209 0.002
135 0.001964
65 0.001973
64 0.002001
78 0.002993
83 0.001997
95 0.002995
107 0.002046
109 0.003031
110 0.004037
122 0.003993
132 0.003988
149 0.004024
156 0.004015
167 0.004958
177 0.004987
185 0.004954
191 0.005028
90 0.004992
59 0.005025
56 0.00502
62 0.005023
67 0.005984
81 0.005065
92 0.006024
98 0.005987
101 0.005997
113 0.005027
127 0.006982
138 0.006974
152 0.00799
163 0.006977
170 0.006981
181 0.007019
189 0.006982
203 0.006981
116 0.005992
64 0.006992
47 0.006019
55 0.004983
55 0.004975
65 0.005031
77 0.005019
91 0.00503
96 0.003967
103 0.003959
121 0.003987
134 0.00403
151 0.003979
163 0.004987
174 0.003027
185 0.003983
198 0.004991
208 0.004018
221 0.004105
154 0.00399
59 0.00402
57 0.002019
64 0.002026
69 0.001986
84 0.001029
97 0.000998
105 0.000997
105 0.001032
117 0.000991
132 0.001995
147 0.001028
160 0.001029
170 0.0
179 0.000997
192 0.0
199 0.0
214 0.0
138 0.0
62 0.0
49 0.001041
59 0.0
66 0.000998
76 0.001001
89 0.00187
102 0.001995
106 0.001991
113 0.001994
132 0.002992
142 0.001996
158 0.001995
172 0.002057
179 0.003057
193 0.003001
201 0.003021
214 0.003037
229 0.002992
218 0.002992
77 0.003043
45 0.003025
46 0.004048
51 0.002992
51 0.00303
62 0.003991
83 0.00399
89 0.003994
94 0.004974
101 0.004987
121 0.005027
141 0.005982
152 0.006978
168 0.006981
184 0.006983
194 0.006952
209 0.006978
217 0.00697
191 0.006989
216 0.006985
116 0.006987
46 0.006004
49 0.007033
60 0.005994
63 0.006942
72 0.005945
91 0.005984
102 0.006037
103 0.006016
114 0.006017
127 0.005984
149 0.004011
167 0.005017
177 0.005022
191 0.003997
203 0.003986
209 0.004976
221 0.003996
191 0.003986
185 0.003987
71 0.005032
42 0.004028
51 0.004987
63 0.002995
68 0.004987
87 0.005032
96 0.005019
100 0.004977
103 0.004953
119 0.004034
141 0.002982
152 0.004
167 0.002041
181 0.001999
189 0.002036
202 0.002036
211 0.001011
224 0.001001
215 0.001003
117 0.001952
38 0.0
36 0.00095
44 0.0
46 0.0
53 0.0
73 0.0
86 0.0
88 0.002075
98 0.003975
115 0.004022
133 0.00399
149 0.004022
167 0.004984
175 0.006005
190 0.006024
204 0.006076
213 0.00685
191 0.006982
182 0.007017
54 0.006948
37 0.006977
44 0.006984
54 0.007012
56 0.00701
75 0.006026
93 0.006169
94 0.006024
100 0.006008
114 0.00703
133 0.006016
150 0.005986
163 0.004981
173 0.006982
183 0.006022
191 0.006016
207 0.006028
188 0.006043
63 0.005018
38 0.004025
46 0.004987
57 0.004031
67 0.002978
80 0.003028
92 0.000989
93 0.002034
101 0.0
118 0.001995
136 0.0
149 0.001036
163 0.001031
171 0.0
184 0.0
195 0.0
208 0.0
164 0.0
64 0.0
34 0.0
38 0.0
39 0.0
41 0.0
51 0.0
73 0.000994
80 0.000997
83 0.000998
100 0.000989
121 0.002008
134 0.001995
151 0.001954
161 0.002037
174 0.002986
189 0.002992
198 0.002992
197 0.00299
116 0.003016
43 0.002993
42 0.002953
48 0.002941
48 0.002992
63 0.004984
78 0.004991
90 0.005987
92 0.005975
103 0.006024
124 0.00598
138 0.005976
154 0.006028
167 0.006981
173 0.007
183 0.006996
191 0.007023
160 0.006984
58 0.007003
43 0.007013
50 0.005981
54 0.007016
59 0.005021
78 0.004986
89 0.003985
90 0.003991
99 0.00403
110 0.003025
132 0.002999
149 0.001997
158 0.003002
171 0.000998
185 0.001018
194 0.001029
139 0.0
90 0.0
40 0.0
40 0.0
40 0.0
41 0.0
63 0.000998
74 0.000997
80 0.000994
85 0.000998
102 0.001962
119 0.001996
136 0.001995
149 0.002005
161 0.001962
172 0.001995
187 0.001992
197 0.00299
198 0.003001
80 0.003993
50 0.003042
46 0.002995
48 0.002978
48 0.00399
67 0.003979
82 0.003989
90 0.004025
93 0.004022
107 0.003989
129 0.004004
140 0.003976
156 0.004028
166 0.003997
174 0.00401
182 0.003989
193 0.005018
199 0.006
93 0.006021
56 0.006026
51 0.005997
56 0.006024
59 0.005987
77 0.005902
88 0.006042
94 0.005988
99 0.006024
109 0.006018
130 0.006992
141 0.006985
156 0.006973
169 0.006982
177 0.007011
188 0.006988
196 0.006982
207 0.006982
125 0.00698
59 0.006984
47 0.007023
48 0.006976
47 0.007015
54 0.007979
63 0.007978
83 0.007926
89 0.006948
96 0.007981
110 0.006979
122 0.007977
141 0.007074
157 0.005985
166 0.005014
181 0.00499
192 0.005984
205 0.005021
220 0.003989
206 0.003989
101 0.006016
53 0.00602
54 0.005984
58 0.004984
58 0.004987
72 0.004986
92 0.002992
97 0.003988
100 0.00396
116 0.001995
129 0.001958
149 0.001984
158 0.001986
173 0.00204
185 0.001991
192 0.001995
205 0.001995
212 0.002041
199 0.001945
97 0.002994
55 0.002027
56 0.015958
67 0.001988
68 0.00295
84 0.001996
95 0.002046
99 0.001997
105 0.0
114 0.000997
134 0.0
143 0.001031
156 0.0
169 0.000997
176 0.00101
187 0.000998
202 0.000997
185 0.001006
76 0.00101
51 0.000955
51 0.000997
55 0.000965
57 0.001995
75 0.002051
86 0.001963
93 0.002032
99 0.002031
108 0.00296
128 0.003014
143 0.002945
155 0.002984
165 0.003046
176 0.004016
184 0.003992
197 0.003984
206 0.004992
162 0.00502
65 0.004986
50 0.004979
54 0.005023
55 0.005023
58 0.004987
79 0.004976
89 0.004999
95 0.005026
100 0.005016
116 0.004985
132 0.00502
149 0.005019
161 0.005986
177 0.007012
186 0.007017
200 0.007036
206 0.006938
222 0.00702
216 0.007162
136 0.007977
68 0.007007
57 0.007948
66 0.006991
70 0.006982
75 0.005944
96 0.005985
104 0.005984
106 0.006014
117 0.006981
130 0.006011
150 0.00598
163 0.007015
175 0.004962
183 0.006982
191 0.005022
201 0.006024
215 0.005963
180 0.005984
74 0.005984
55 0.006021
63 0.005984
72 0.003989
78 0.004986
97 0.003977
105 0.004032
106 0.004024
116 0.003003
127 0.004021
147 0.003031
163 0.000991
170 0.001013
181 0.0
191 0.001965
202 0.000995
210 0.001994
135 0.0
62 0.001039
46 0.0
50 0.001004
51 0.0
57 0.0
76 0.0
88 0.001018
93 0.002026
98 0.002033
116 0.001964
128 0.002011
146 0.002006
161 0.003986
169 0.00399
182 0.003034
197 0.004065
207 0.004024
176 0.003983
99 0.003944
49 0.005022
51 0.005021
54 0.005017
55 0.00602
73 0.006969
86 0.007014
93 0.007979
95 0.007979
107 0.007977
127 0.007042
143 0.007921
157 0.006016
172 0.004975
180 0.004995
193 0.004979
200 0.004998
215 0.004986
222 0.004983
151 0.00503
61 0.004018
54 0.00499
62 0.005032
66 0.005998
75 0.004016
93 0.005958
100 0.005032
100 0.00399
110 0.003976
121 0.004022
142 0.003989
158 0.002996
166 0.003991
178 0.003037
185 0.004018
198 0.003037
201 0.002038
133 0.003003
54 0.001996
49 0.000991
54 0.001986
56 0.00099
63 0.000968
86 0.000959
93 0.002004
96 0.002026
105 0.002044
120 0.000997
137 0.001981
153 0.0
162 0.0
175 0.001954
184 0.001
194 0.001996
206 0.001997
182 0.001999
105 0.00302
48 0.004032
49 0.005018
51 0.006044
53 0.006017
63 0.006015
85 0.006018
92 0.006031
96 0.006014
112 0.007023
134 0.007014
141 0.007024
158 0.006971
168 0.00599
182 0.007008
194 0.007975
201 0.005981
213 0.007976
223 0.007978
170 0.007016
68 0.004984
54 0.004986
62 0.003003
68 0.000977
72 0.001992
93 0.002033
101 0.001964
101 0.002059
112 0.001003
124 0.001991
143 0.002037
155 0.002066
165 0.001009
174 0.001996
185 0.002014
193 0.002028
207 0.0
203 0.0
89 0.000845
51 0.002026
52 0.00301
59 0.002994
64 0.003027
76 0.003032
92 0.002992
96 0.00303
101 0.003026
117 0.004022
131 0.003993
149 0.005031
163 0.005024
171 0.005018
183 0.004992
190 0.004987
202 0.004899
213 0.004987
158 0.004984
58 0.00694
44 0.007031
45 0.006991
47 0.007977
48 0.006982
67 0.007978
82 0.006982
86 0.007093
92 0.006981
110 0.006026
122 0.007029
142 0.003995
152 0.00598
167 0.003992
181 0.00399
189 0.003982
202 0.003006
218 0.002994
203 0.002979
80 0.002998
51 0.002993
50 0.00303
55 0.004989
57 0.002954
70 0.002992
90 0.002996
93 0.002992
97 0.001972
104 0.001981
123 0.001031
136 0.0
148 0.0
158 0.0
168 0.0
173 0.0
187 0.0
193 0.0
110 0.0
47 0.0
43 0.0
51 0.0
53 0.0
67 0.001977
85 0.001995
88 0.002026
92 0.003047
104 0.003029
120 0.002995
136 0.004029
150 0.005014
158 0.005025
170 0.004978
176 0.005028
189 0.005021
200 0.004987
152 0.004991
56 0.005988
39 0.006937
41 0.006936
39 0.006968
41 0.006983
59 0.006979
76 0.006981
80 0.00698
87 0.00594
100 0.006036
117 0.00399
134 0.003956
150 0.002992
159 0.002992
173 0.003027
180 0.002993
194 0.00304
208 0.000984
160 0.003033
61 0.001994
47 0.001993
51 0.001026
53 0.0
57 0.001039
80 0.0
92 0.0
93 0.0
103 0.0
111 0.000994
132 0.0
150 0.0
158 0.001032
169 0.000997
178 0.003051
186 0.004021
201 0.004978
156 0.006022
74 0.005988
48 0.006022
55 0.006046
59 0.005805
67 0.006994
75 0.007978
94 0.007963
96 0.006994
101 0.006984
118 0.006995
139 0.005781
149 0.005022
164 0.00614
172 0.005034
185 0.003971
195 0.006019
204 0.004001
215 0.006018
226 0.004016
152 0.005969
56 0.004986
44 0.00503
46 0.004021
46 0.002013
49 0.003037
72 0.002999
86 0.002027
89 0.001028
100 0.001032
111 0.0
129 0.0
149 0.0
158 0.0
173 0.0
188 0.0
196 0.000998
210 0.000998
220 0.00104
224 0.001999
97 0.002026
58 0.002026
52 0.002993
59 0.003989
60 0.003997
72 0.004025
94 0.005797
97 0.005979
100 0.006019
107 0.006056
128 0.006035
147 0.005985
157 0.005982
169 0.006016
176 0.007066
184 0.007005
194 0.007008
202 0.005989
214 0.006016
114 0.005998
64 0.005973
48 0.006019
55 0.006023
58 0.003991
67 0.006016
84 0.003991
93 0.006026
96 0.00602
103 0.00603
122 0.004987
136 0.00402
153 0.004024
167 0.002996
175 0.004018
188 0.00298
200 0.002036
207 0.002026
221 0.002013
224 0.001032
102 0.002001
52 0.003025
45 0.0
50 0.00302
49 0.0
56 0.00103
79 0.0
87 0.0
92 0.000998
101 0.000998
117 0.002027
135 0.002046
153 0.002993
162 0.003986
178 0.00402
191 0.004969
200 0.00594
215 0.005004
226 0.006973
177 0.00699
68 0.006948
51 0.007011
58 0.006979
63 0.006029
68 0.006181
90 0.005974
97 0.005981
99 0.006018
109 0.007981
122 0.00598
138 0.008008
155 0.007029
163 0.007036
174 0.005967
181 0.005974
194 0.006026
208 0.004975
178 0.005996
68 0.004987
46 0.005994
49 0.003011
53 0.001991
56 0.000999
77 0.001004
89 0.001
92 0.001002
101 0.001018
116 0.001996
132 0.000965
146 0.000996
156 0.0
168 0.001996
179 0.001006
187 0.000961
201 0.001995
202 0.001031
92 0.0
45 0.0
39 0.000994
40 0.000997
39 0.001037
46 0.000998
70 0.002992
80 0.003985
84 0.003992
97 0.003989
109 0.004018
130 0.004035
147 0.003988
156 0.003995
169 0.004026
177 0.004032
192 0.003977
206 0.004026
173 0.005023
80 0.006027
46 0.005997
49 0.006081
53 0.00602
55 0.00603
75 0.005987
91 0.006016
92 0.006021
98 0.006017
107 0.006
127 0.005998
144 0.007013
153 0.006016
164 0.006974
174 0.006978
182 0.006981
197 0.006979
162 0.005987
66 0.006944
47 0.007015
51 0.006977
55 0.006971
60 0.006979
78 0.007014
92 0.007978
94 0.008025
102 0.007979
118 0.005999
131 0.007014
149 0.005983
157 0.006981
171 0.005983
184 0.005962
192 0.005983
204 0.005984
211 0.005985
227 0.006006
157 0.005994
85 0.005972
46 0.006016
46 0.006032
46 0.005019
47 0.004986
61 0.002992
80 0.004956
88 0.003991
93 0.00399
109 0.004022
122 0.00402
144 0.002993
161 0.00101
170 0.001986
186 0.0
201 0.0
209 0.0
223 0.0
232 0.0
241 0.0
110 0.0
75 0.000997
53 0.000998
61 0.001021
63 0.001992
73 0.002989
93 0.003043
104 0.002991
105 0.003016
113 0.003005
129 0.002993
151 0.003023
161 0.001995
176 0.004023
188 0.003989
195 0.005865
206 0.005941
214 0.006014
168 0.006015
175 0.007037
117 0.006949
53 0.005983
55 0.006986
61 0.006946
66 0.006016
84 0.006014
99 0.005051
102 0.006006
106 0.002985
119 0.004987
142 0.005143
155 0.004958
172 0.005025
181 0.004983
195 0.004979
209 0.002992
216 0.004945
229 0.003032
185 0.001998
183 0.001992
113 0.000991
93 0.000951
88 0.001999
91 0.000998
91 0.002014
98 0.00103
107 0.002017
111 0.001003
114 0.002023
119 0.002004
127 0.001995
139 0.001995
145 0.001992
153 0.001996
158 0.001965
166 0.001999
174 0.002008
178 0.002032
185 0.002002
190 0.001995
179 0.001999
104 0.001997
90 0.001034
92 0.001012
96 0.000994
98 0.000966
109 0.001003
115 0.0
119 0.0
120 0.0
127 0.0
137 0.002005
146 0.0
154 0.001052
161 0.0
164 0.001
170 0.0
173 0.001029
179 0.0
180 0.0
138 0.0
91 0.0
90 0.001028
96 0.0
101 0.000995
107 0.001033
116 0.002042
118 0.000984
119 0.0
127 0.000998
134 0.001
146 0.001994
155 0.001995
159 0.001969
167 0.001995
171 0.001995
177 0.002951
182 0.002993
178 0.002994
116 0.003
84 0.002961
84 0.00296
88 0.002992
89 0.002959
95 0.002987
106 0.002993
109 0.003023
112 0.002991
116 0.002992
127 0.002992
138 0.002992
145 0.003988
153 0.004027
161 0.004022
165 0.004988
172 0.004986
177 0.004987
145 0.00502
96 0.004991
85 0.00499
88 0.005022
92 0.006014
94 0.006017
105 0.005985
111 0.006026
113 0.006951
118 0.006957
124 0.00702
134 0.006968
142 0.006993
149 0.006949
155 0.006978
158 0.006979
164 0.007024
168 0.006937
137 0.00698
94 0.006026
86 0.005985
89 0.006983
93 0.007064
98 0.005018
106 0.006981
111 0.005944
112 0.007024
117 0.004984
124 0.006981
135 0.004987
141 0.006981
149 0.004988
155 0.004981
159 0.003997
166 0.004
171 0.003962
141 0.003987
90 0.002033
83 0.002046
85 0.002041
86 0.003989
89 0.002019
98 0.003992
107 0.003991
108 0.003991
113 0.003026
119 0.002965
130 0.003153
140 0.001997
145 0.002975
153 0.002991
157 0.002992
165 0.001041
173 0.002045
151 0.0
95 0.0
86 0.0
89 0.0
92 0.0
94 0.0
104 0.0
111 0.0
112 0.0
116 0.001011
126 0.000998
132 0.001996
141 0.002961
146 0.001999
160 0.002995
166 0.002958
175 0.001997
182 0.002994
130 0.002861
80 0.003006
71 0.00399
76 0.002992
81 0.00402
94 0.004024
100 0.003988
105 0.004023
106 0.005018
116 0.006039
132 0.004979
141 0.004971
152 0.006023
161 0.006022
165 0.006013
174 0.005956
180 0.005982
165 0.006948
97 0.007012
73 0.006018
68 0.007967
71 0.007974
71 0.007975
81 0.007944
91 0.007978
99 0.007978
104 0.00597
112 0.005994
126 0.005986
135 0.005975
147 0.005971
156 0.005986
161 0.004973
169 0.005981
175 0.00597
186 0.005988
157 0.006981
92 0.006028
71 0.007024
71 0.005984
72 0.005985
75 0.006015
85 0.005985
99 0.005947
103 0.002994
107 0.005018
119 0.002992
134 0.003006
142 0.002995
153 0.001986
159 0.002052
168 0.001996
177 0.001996
183 0.001988
195 0.002002
171 0.001989
90 0.001002
74 0.003062
77 0.001993
81 0.000981
88 0.0
98 0.00104
107 0.0
107 0.0
112 0.0
123 0.00102
135 0.000998
144 0.000995
154 0.001962
159 0.001996
168 0.001972
178 0.002964
185 0.002991
176 0.003945
121 0.00401
75 0.004998
74 0.004985
77 0.00499
80 0.004944
94 0.006014
102 0.00604
107 0.006025
110 0.005895
122 0.006982
135 0.007016
146 0.006977
155 0.006955
164 0.006947
172 0.007974
180 0.007022
185 0.00702
194 0.005972
205 0.004983
196 0.005984
100 0.004969
70 0.003975
71 0.003993
75 0.004036
75 0.003989
88 0.002027
101 0.003988
106 0.001993
111 0.003971
123 0.001995
133 0.001996
149 0.001031
158 0.000963
169 0.001034
179 0.000997
188 0.002029
196 0.000998
207 0.0
214 0.0
224 0.0
187 0.0
89 0.000997
75 0.000998
79 0.000861
84 0.000995
93 0.001995
103 0.002037
112 0.002023
114 0.004022
122 0.003993
141 0.004031
152 0.004022
166 0.003958
172 0.005022
179 0.005019
185 0.006023
191 0.005973
199 0.005946
206 0.008015
180 0.007979
86 0.007017
70 0.004938
75 0.005985
84 0.004956
96 0.003991
105 0.003957
112 0.003009
114 0.002995
122 0.002012
139 0.002945
150 0.001039
164 0.001995
173 0.004003
182 0.001995
189 0.002992
197 0.001001
205 0.00203
212 0.002026
166 0.001028
74 0.002031
61 0.000993
64 0.000993
68 0.001039
71 0.001008
84 0.001033
98 0.002003
100 0.002993
107 0.005028
122 0.00502
133 0.004953
149 0.004957
163 0.004972
170 0.005
181 0.005029
187 0.004993
198 0.005019
201 0.004983
140 0.005984
76 0.007024
64 0.007779
68 0.007971
73 0.005975
81 0.003992
92 0.006023
103 0.004022
104 0.006042
111 0.003978
126 0.004019
138 0.00399
153 0.003989
160 0.003986
170 0.001986
179 0.002967
184 0.002025
194 0.002001
175 0.001995
94 0.001998
65 0.002988
68 0.001995
74 0.002031
81 0.002025
90 0.002034
100 0.002025
102 0.000955
105 0.0
116 0.00195
133 0.001995
142 0.001997
153 0.002783
163 0.004039
169 0.00402
178 0.005006
187 0.00698
192 0.006962
200 0.006966
177 0.005978
78 0.004979
56 0.004983
58 0.004986
60 0.005948
62 0.005979
75 0.004988
86 0.007015
90 0.004988
95 0.005021
107 0.005025
117 0.005022
131 0.005023
143 0.002994
150 0.005018
161 0.002997
168 0.00399
179 0.0
189 0.0
194 0.0
203 0.001014
115 0.001996
74 0.001998
60 0.001995
65 0.001966
65 0.001992
73 0.001994
84 0.001963
94 0.002026
99 0.00196
105 0.001959
116 0.001996
131 0.00195
142 0.001995
153 0.001996
160 0.001996
169 0.003002
178 0.003988
184 0.004976
196 0.004989
177 0.004981
84 0.004992
64 0.004985
68 0.00598
75 0.006983
84 0.006979
91 0.006982
100 0.006979
100 0.007978
104 0.005984
118 0.007976
129 0.005988
139 0.007994
150 0.007035
155 0.004987
164 0.003982
174 0.001948
180 0.003027
159 0.0
77 0.0
60 0.0
60 0.0
63 0.000994
65 0.000847
78 0.001009
86 0.002028
92 0.002
98 0.001996
105 0.002954
120 0.002993
134 0.00399
141 0.003956
151 0.003988
156 0.003988
166 0.005986
174 0.00502
181 0.005022
189 0.004967
113 0.005977
74 0.006982
59 0.006986
60 0.007029
63 0.006983
71 0.006996
81 0.007015
90 0.005983
94 0.005964
99 0.005979
112 0.00599
122 0.004991
136 0.004121
147 0.003009
152 0.003024
162 0.003029
169 0.004986
176 0.002997
186 0.005019
189 0.003001
121 0.004994
69 0.00502
65 0.004986
71 0.002996
73 0.003986
82 0.002987
95 0.002
98 0.001995
99 0.0
108 0.0
117 0.0
130 0.0
138 0.002026
144 0.0
152 0.000998
160 0.001998
166 0.003029
176 0.004023
142 0.003989
81 0.00503
61 0.005006
62 0.004953
64 0.005032
69 0.004982
78 0.004987
91 0.005024
94 0.004987
99 0.005024
111 0.004989
120 0.004986
134 0.005978
142 0.006962
148 0.00698
158 0.005996
164 0.00598
173 0.005977
185 0.006
186 0.005941
104 0.005984
68 0.006994
63 0.004987
66 0.005986
68 0.004988
73 0.006014
89 0.006021
95 0.00598
100 0.006021
105 0.00595
119 0.005995
134 0.00397
141 0.005984
153 0.002992
162 0.002998
168 0.002995
177 0.001995
182 0.001997
194 0.001995
145 0.000997
96 0.000998
70 0.002012
73 0.001951
77 0.001997
81 0.001995
92 0.001991
100 0.002189
102 0.002039
105 0.001998
117 0.002038
126 0.001999
139 0.00103
149 0.0
155 0.0
164 0.0
172 0.0
178 0.0
175 0.0
122 0.0
77 0.0
66 0.0
69 0.0
70 0.000997
80 0.001995
90 0.002992
98 0.003994
101 0.003954
109 0.003992
120 0.004016
132 0.00403
142 0.00396
153 0.003988
159 0.004022
168 0.003976
175 0.003827
185 0.005002
195 0.004023
163 0.005028
85 0.004984
70 0.004987
71 0.005025
74 0.005021
77 0.004988
92 0.005019
100 0.005021
104 0.006014
110 0.005988
117 0.006018
129 0.006983
143 0.007013
150 0.00698
158 0.007977
163 0.006047
169 0.007993
177 0.006966
184 0.005988
150 0.006017
83 0.004957
71 0.006991
76 0.003991
81 0.006015
88 0.003964
103 0.003979
107 0.003995
109 0.003992
118 0.00299
126 0.002993
141 0.002994
148 0.002994
158 0.002023
166 0.004021
173 0.002989
180 0.003989
187 0.001961
193 0.003988
119 0.004023
83 0.00398
68 0.00394
72 0.001995
73 0.00399
81 0.001989
90 0.003023
99 0.000996
103 0.000972
107 0.001991
120 0.001994
129 0.001964
142 0.002007
150 0.001968
159 0.0
166 0.001996
176 0.002034
182 0.003002
184 0.00103
133 0.001045
78 0.001993
74 0.001004
78 0.000996
82 0.000964
89 0.002006
102 0.0
110 0.0
110 0.0
118 0.0
133 0.001007
142 0.000997
155 0.002003
165 0.003026
170 0.003026
179 0.00296
183 0.003001
194 0.002991
162 0.004023
109 0.004025
77 0.003957
79 0.003936
87 0.004875
92 0.005
105 0.005007
112 0.006015
114 0.006023
118 0.007013
130 0.006981
142 0.006014
150 0.006981
161 0.004998
167 0.005985
176 0.004953
185 0.003
190 0.002984
199 0.002004
166 0.000986
108 0.000978
72 0.001992
71 0.001991
74 0.001125
77 0.002963
87 0.002005
100 0.002994
106 0.002993
108 0.002993
118 0.002993
127 0.002026
143 0.001997
155 0.0
161 0.001995
172 0.0
182 0.0
186 0.0
197 0.0
204 0.00099
135 0.002013
79 0.001995
73 0.001996
80 0.001989
84 0.00203
91 0.002035
108 0.001995
113 0.001997
116 0.002991
123 0.002958
135 0.004024
147 0.004021
159 0.004858
166 0.006051
175 0.005965
180 0.005979
188 0.006019
198 0.005988
204 0.007013
159 0.006974
91 0.006978
73 0.005983
77 0.00498
83 0.004988
90 0.005987
105 0.00302
110 0.003019
112 0.003024
116 0.004987
128 0.002986
141 0.005023
152 0.002973
162 0.004986
171 0.004019
177 0.004002
185 0.003981
195 0.001989
201 0.003998
167 0.001997
104 0.004026
67 0.002002
69 0.002039
73 0.002032
77 0.001996
86 0.001983
100 0.001996
105 0.002005
107 0.002007
120 0.002002
130 0.002004
145 0.0
154 0.002998
163 0.001995
170 0.003022
179 0.001959
185 0.002028
195 0.001997
200 0.002023
119 0.002993
69 0.0
65 0.002
71 0.001032
75 0.0
82 0.0
98 0.0
101 0.0
105 0.0
114 0.0
124 0.0
140 0.0
149 0.0
161 0.002038
171 0.002044
176 0.001996
185 0.002025
192 0.001027
201 0.003953
186 0.003
102 0.002989
70 0.00396
71 0.005034
76 0.00602
81 0.005992
97 0.006022
103 0.00595
106 0.006981
110 0.004949
117 0.004932
132 0.004971
146 0.003983
152 0.003987
160 0.004101
166 0.003988
174 0.003975
182 0.006016
189 0.002986
132 0.004987
72 0.004012
66 0.00399
73 0.002991
76 0.002993
85 0.001966
98 0.001036
101 0.003051
104 0.0
109 0.001998
124 0.0
139 0.0
145 0.0
155 0.0
162 0.0
168 0.0
176 0.001028
186 0.000997
192 0.000997
140 0.001999
87 0.001994
60 0.001995
63 0.002985
64 0.003003
67 0.002992
81 0.004024
91 0.004023
95 0.002993
100 0.005032
109 0.003991
125 0.003989
134 0.004952
146 0.005027
157 0.00597
163 0.005987
173 0.005979
178 0.006973
190 0.006987
181 0.00698
120 0.004981
69 0.00496
66 0.00598
70 0.003986
73 0.005987
80 0.003989
93 0.005985
101 0.005031
104 0.004021
112 0.003996
128 0.001986
137 0.004046
150 0.001992
156 0.003956
165 0.001992
172 0.001994
177 0.002005
188 0.0
151 0.0
98 0.001003
70 0.0
71 0.000964
75 0.000963
79 0.00102
88 0.000994
100 0.001039
103 0.001001
106 0.001995
118 0.002999
131 0.002992
142 0.003989
150 0.003026
157 0.003958
164 0.004041
173 0.00499
179 0.005037
177 0.005017
92 0.004992
68 0.005025
63 0.004986
65 0.004961
66 0.005988
79 0.005889
88 0.005973
95 0.006016
98 0.005945
108 0.005987
121 0.005982
130 0.006965
140 0.006953
150 0.006981
155 0.005992
162 0.00699
169 0.004955
177 0.007016
159 0.006016
82 0.002023
65 0.001997
64 0.000949
66 0.001032
66 0.000993
80 0.000997
92 0.000952
96 0.0
102 0.001031
109 0.002008
125 0.001995
138 0.001997
145 0.001976
155 0.001995
160 0.001998
168 0.002051
178 0.002044
186 0.001997
139 0.002
84 0.002027
69 0.002997
74 0.004027
77 0.004025
84 0.003987
100 0.004029
104 0.00402
106 0.003985
111 0.004041
124 0.004974
139 0.004986
145 0.005018
153 0.004995
158 0.005013
165 0.004982
176 0.006003
176 0.00597
102 0.005985
73 0.006979
71 0.006975
77 0.006989
81 0.006974
93 0.006978
104 0.006981
105 0.007967
108 0.006984
114 0.008038
127 0.006968
140 0.005991
147 0.00702
155 0.003992
163 0.00521
168 0.004998
176 0.00399
183 0.003031
165 0.005025
86 0.003991
68 0.003993
66 0.002959
67 0.005984
69 0.003987
80 0.004024
94 0.002005
96 0.001993
101 0.003028
106 0.002026
120 0.003026
133 0.0
140 0.002027
148 0.0
157 0.000998
162 0.001
171 0.000964
177 0.002006
166 0.001995
90 0.001986
71 0.002992
69 0.001966
73 0.003042
75 0.002962
90 0.003991
98 0.00399
103 0.00499
108 0.004992
116 0.004981
128 0.005018
142 0.004765
149 0.005005
159 0.006014
164 0.006016
173 0.005986
183 0.006015
189 0.006986
150 0.00697
94 0.006989
79 0.005951
81 0.004028
88 0.003998
92 0.002982
107 0.002989
112 0.002994
112 0.002994
117 0.004986
127 0.002991
138 0.004991
148 0.002953
154 0.004974
162 0.004023
166 0.005016
174 0.002985
179 0.0
141 0.002027
84 0.0
77 0.0
81 0.0
86 0.0
92 0.0
106 0.001006
110 0.0
112 0.0
118 0.0
126 0.0
141 0.0
151 0.0
157 0.0
166 0.0
174 0.001951
179 0.001952
189 0.000999
187 0.00197
109 0.000957
78 0.001984
74 0.002991
76 0.004967
78 0.004986
84 0.005985
100 0.005985
107 0.005992
109 0.005947
119 0.006983
128 0.007011
139 0.006969
154 0.005984
160 0.006958
171 0.005969
175 0.006975
184 0.005986
194 0.007989
201 0.004965
187 0.006172
102 0.006016
83 0.005987
83 0.004983
88 0.002002
90 0.004025
105 0.001995
113 0.003989
116 0.001995
122 0.001988
129 0.00199
144 0.0
158 0.0
164 0.0
172 0.0
180 0.003053
185 0.002984
192 0.00399
202 0.003988
199 0.004035
114 0.004023
87 0.004019
84 0.003999
91 0.004022
95 0.004017
105 0.004985
116 0.005024
117 0.004983
121 0.00497
127 0.006
142 0.006978
153 0.006963
163 0.007021
170 0.006942
177 0.006986
184 0.006981
192 0.005955
197 0.005954
207 0.004987
139 0.00499
94 0.003977
74 0.004991
76 0.004983
80 0.003989
83 0.004984
96 0.001992
105 0.004019
108 0.003991
112 0.003985
124 0.003024
140 0.000997
149 0.001992
160 0.0
166 0.001993
176 0.0
184 0.0
191 0.0
200 0.0
208 0.0
159 0.0
84 0.0
73 0.0
79 0.0
83 0.0
87 0.0
103 0.0
110 0.0
112 0.000998
117 0.0
128 0.000997
142 0.000997
155 0.001996
162 0.001989
171 0.002015
176 0.001991
184 0.001963
193 0.001997
200 0.002002
145 0.001995
96 0.00203
74 0.002027
82 0.001994
86 0.001967
95 0.00299
107 0.003988
108 0.003987
110 0.003996
114 0.003994
130 0.005037
142 0.00498
151 0.004978
159 0.006029
167 0.005984
172 0.006047
181 0.006026
188 0.006015
179 0.005976
90 0.005983
68 0.00597
64 0.005985
70 0.005979
71 0.003995
82 0.003975
95 0.002979
98 0.001997
101 0.001998
106 0.002029
120 0.001988
131 0.00203
139 0.000964
147 0.001993
156 0.00298
161 0.002991
170 0.002034
177 0.002987
185 0.001998
110 0.0
75 0.00203
63 0.0
67 0.000998
69 0.001027
75 0.002009
91 0.003039
96 0.00399
100 0.004998
109 0.005978
118 0.006011
134 0.005992
141 0.005984
152 0.005947
161 0.005985
167 0.005986
175 0.006018
181 0.005969
191 0.006001
138 0.007014
92 0.007013
70 0.006982
75 0.006963
78 0.006981
83 0.005984
93 0.007937
102 0.003988
103 0.00298
107 0.002992
120 0.001997
136 0.001998
142 0.001997
152 0.00199
157 0.00212
165 0.002966
172 0.003057
181 0.001026
180 0.002992
98 0.002004
73 0.001993
69 0.0
72 0.0
74 0.0
83 0.000959
94 0.001018
99 0.0
102 0.0
107 0.0
122 0.0
130 0.0
143 0.001989
153 0.000985
158 0.002027
168 0.002999
177 0.005017
183 0.005982
194 0.005985
147 0.005973
95 0.005982
67 0.005986
68 0.006967
69 0.006966
71 0.00795
78 0.005983
93 0.007036
98 0.007949
99 0.006957
109 0.006951
118 0.007009
133 0.006981
147 0.001992
154 0.004987
164 0.002002
174 0.001964
180 0.0
190 0.0
203 0.0
205 0.0
116 0.0
76 0.002032
72 0.0
78 0.0
79 0.000997
87 0.001047
102 0.002029
106 0.000998
108 0.001012
116 0.000982
124 0.002027
141 0.002995
148 0.003008
159 0.003991
168 0.003004
173 0.00301
182 0.005018
193 0.004974
200 0.004986
142 0.004994
93 0.004989
70 0.005982
76 0.005978
79 0.006979
84 0.00596
98 0.007013
105 0.005002
107 0.006981
113 0.005978
121 0.005965
137 0.006028
146 0.005984
156 0.005978
165 0.003995
171 0.006022
179 0.004006
186 0.003
191 0.002998
201 0.002025
179 0.002019
84 0.002985
59 0.000959
59 0.000964
61 0.0
63 0.002027
75 0.000983
87 0.001994
92 0.0
96 0.0
107 0.0
116 0.0
132 0.0
141 0.0
150 0.0
158 0.0
166 0.000998
175 0.001991
186 0.001995
193 0.002001
167 0.003024
81 0.002994
65 0.002992
65 0.002995
69 0.003001
72 0.003
88 0.002994
98 0.003047
103 0.002992
110 0.005989
117 0.005985
134 0.006981
142 0.007979
151 0.006
160 0.007027
168 0.004978
177 0.00698
190 0.004987
196 0.006976
207 0.004987
200 0.007014
100 0.003023
69 0.002991
72 0.003986
79 0.002988
87 0.002984
97 0.003004
106 0.00199
107 0.001992
112 0.001992
122 0.004036
135 0.000997
147 0.002
157 0.003027
162 0.003011
171 0.002024
176 0.002032
184 0.003028
194 0.0
162 0.002028
80 0.0
64 0.000961
66 0.000997
71 0.002989
77 0.002957
88 0.003039
99 0.004004
102 0.004033
107 0.004023
121 0.005023
131 0.00502
146 0.005984
158 0.005984
164 0.005943
173 0.005983
179 0.005985
189 0.005953
199 0.006788
176 0.005989
87 0.006973
68 0.007974
68 0.007951
73 0.007977
74 0.007974
88 0.007978
103 0.005955
106 0.006978
111 0.005
124 0.003992
134 0.003957
150 0.00399
158 0.003985
169 0.004003
179 0.003976
184 0.003969
194 0.003985
202 0.004008
184 0.004007
103 0.004987
73 0.004024
74 0.003975
81 0.003022
84 0.002935
99 0.002998
110 0.0
110 0.0
114 0.0
122 0.0
139 0.0
152 0.0
158 0.000997
164 0.0
172 0.001043
178 0.001003
189 0.0
172 0.0
87 0.0
66 0.0
69 0.000998
74 0.000989
77 0.000966
92 0.001978
101 0.00204
104 0.003014
108 0.004043
122 0.004982
131 0.004984
145 0.004897
155 0.004987
161 0.00502
170 0.004986
176 0.00495
185 0.004987
116 0.004986
78 0.004986
62 0.005904
64 0.005906
65 0.005943
74 0.005955
85 0.005973
96 0.00599
98 0.005945
103 0.005995
117 0.007016
127 0.005982
138 0.006982
149 0.005961
155 0.005984
164 0.005981
175 0.003943
183 0.004992
136 0.002003
91 0.00502
69 0.00301
73 0.002172
74 0.002036
82 0.00299
99 0.002944
103 0.001986
105 0.0
110 0.0
123 0.0
134 0.002029
143 0.0
149 0.002006
156 0.002031
162 0.002028
170 0.003031
140 0.00203
79 0.0
68 0.000998
70 0.000998
73 0.000998
83 0.001995
93 0.002992
99 0.004987
102 0.004945
107 0.004993
121 0.006972
132 0.005977
138 0.004984
147 0.004986
154 0.006097
162 0.003995
173 0.005982
159 0.003994
97 0.005024
68 0.004036
67 0.002993
67 0.003968
70 0.0
81 0.002024
94 0.001007
98 0.0
100 0.0
110 0.0
119 0.0
132 0.0
143 0.0
148 0.000964
157 0.002043
166 0.001
174 0.002954
146 0.002849
101 0.002999
71 0.002992
71 0.002989
73 0.003987
77 0.00399
91 0.003948
102 0.003951
105 0.003956
108 0.005942
118 0.004973
133 0.004991
140 0.005945
150 0.00502
156 0.00502
164 0.004953
173 0.005993
180 0.006019
157 0.004976
91 0.005987
80 0.006971
79 0.006013
82 0.005972
87 0.005989
102 0.006982
108 0.006946
110 0.006015
112 0.005984
124 0.005975
138 0.006976
145 0.005985
155 0.007025
161 0.007979
166 0.007977
177 0.007962
184 0.007973
158 0.006982
90 0.004982
77 0.005986
77 0.003985
79 0.003954
82 0.00399
98 0.003996
104 0.003
107 0.001981
113 0.003064
123 0.001036
135 0.002996
148 0.00203
154 0.002028
164 0.002027
169 0.002032
178 0.001987
189 0.00102
195 0.00203
143 0.0
84 0.0
77 0.0
80 0.0
81 0.002035
89 0.000958
106 0.001006
112 0.00202
116 0.002013
124 0.002049
134 0.001995
149 0.002006
158 0.002993
170 0.002957
180 0.002994
185 0.002992
197 0.0029
204 0.002978
155 0.002931
100 0.002991
87 0.002993
92 0.002992
99 0.003957
104 0.003958
120 0.005017
124 0.005016
125 0.005025
132 0.005058
142 0.00399
156 0.005036
167 0.005985
172 0.006031
180 0.006971
182 0.006974
193 0.006985
160 0.006978
110 0.005952
81 0.004972
85 0.006982
90 0.004993
96 0.006974
108 0.003072
117 0.005982
119 0.006021
123 0.00604
135 0.003989
151 0.001999
159 0.005025
169 0.001994
174 0.002992
183 0.002986
193 0.0
197 0.0
126 0.0
84 0.002994
75 0.0
79 0.003001
81 0.0
85 0.002948
103 0.002
109 0.0
113 0.0
122 0.0
130 0.000997
143 0.001004
154 0.001011
164 0.001002
174 0.003006
180 0.002993
192 0.002994
184 0.003973
128 0.003972
81 0.003958
82 0.004987
87 0.004987
93 0.004973
102 0.004984
117 0.005987
119 0.006953
121 0.005968
131 0.006004
147 0.00794
156 0.006
165 0.006998
173 0.005024
179 0.006984
188 0.006019
194 0.004988
126 0.004983
81 0.002995
80 0.004988
89 0.0021
93 0.005021
107 0.001991
116 0.00203
116 0.001983
119 0.001985
132 0.003004
142 0.0
154 0.000992
160 0.0
166 0.0
172 0.003039
179 0.0
152 0.002038
82 0.0
68 0.000997
70 0.002016
73 0.003992
78 0.003969
91 0.00504
100 0.00399
101 0.003969
108 0.004987
115 0.005031
130 0.003948
142 0.005942
148 0.00599
157 0.006027
166 0.005984
173 0.005987
163 0.005941
113 0.005449
72 0.005969
70 0.00801
72 0.005037
75 0.007016
93 0.006941
107 0.006941
116 0.006979
117 0.004945
128 0.00399
143 0.002979
152 0.003992
162 0.002026
170 0.001998
176 0.002008
187 0.0
194 0.0
209 0.0
150 0.0
101 0.0
81 0.0
87 0.000988
91 0.001011
98 0.000998
114 0.000997
118 0.001035
118 0.000988
121 0.000968
132 0.000997
143 0.001999
151 0.001992
156 0.002032
161 0.001995
165 0.002006
174 0.002
180 0.001953
153 0.005035
94 0.006965
76 0.006981
79 0.005988
86 0.005978
90 0.005985
104 0.005942
109 0.004985
109 0.003997
116 0.003131
124 0.002963
138 0.002988
146 0.006027
154 0.003028
160 0.003984
167 0.00399
173 0.004027
182 0.002977
160 0.003022
92 0.002992
75 0.000954
77 0.002031
80 0.000958
85 0.0
93 0.001968
105 0.001952
108 0.002002
111 0.002007
122 0.001995
130 0.001995
142 0.002978
152 0.001888
158 0.002992
167 0.002929
175 0.004026
185 0.004045
177 0.003988
114 0.00396
84 0.00398
83 0.00404
86 0.004024
90 0.004954
102 0.005976
110 0.006017
115 0.005988
116 0.005951
123 0.005969
137 0.005965
144 0.005984
155 0.006001
166 0.004988
170 0.00398
178 0.004988
186 0.004994
193 0.001975
140 0.004987
95 0.002995
86 0.003989
94 0.00297
98 0.003988
108 0.00399
116 0.00399
121 0.002991
121 0.001994
126 0.002993
138 0.00102
150 0.0
156 0.0
163 0.0
170 0.002021
176 0.001976
186 0.002042
163 0.002993
116 0.002987
83 0.003025
84 0.003042
91 0.004031
97 0.003956
105 0.00394
116 0.003991
118 0.004021
121 0.003958
129 0.004026
139 0.003988
148 0.004988
158 0.00503
163 0.005
171 0.005021
177 0.005018
185 0.006964
195 0.004972
182 0.007978
103 0.004996
83 0.004024
87 0.004969
93 0.004023
96 0.004023
109 0.004024
120 0.004015
121 0.002992
125 0.002989
135 0.003955
142 0.002984
155 0.002993
167 0.001962
173 0.003025
182 0.002039
188 0.002991
197 0.001992
208 0.000948
185 0.000966
102 0.0
87 0.0
92 0.001005
102 0.0
107 0.000956
118 0.0
127 0.002048
127 0.000999
129 0.001001
141 0.002038
150 0.001964
163 0.002037
169 0.002993
177 0.002992
183 0.002992
190 0.003995
199 0.002992
181 0.00295
110 0.004001
83 0.002886
87 0.00402
99 0.003956
109 0.00402
119 0.003992
126 0.003987
125 0.00402
130 0.004011
143 0.00499
153 0.004982
167 0.004977
173 0.004986
183 0.004984
192 0.004979
197 0.005984
207 0.005953
210 0.005981
150 0.004992
80 0.007022
73 0.006931
79 0.006969
85 0.007016
90 0.007033
106 0.007022
111 0.005002
113 0.007842
118 0.005021
128 0.007949
141 0.004987
155 0.00501
161 0.005018
172 0.003987
177 0.003985
187 0.003984
198 0.003978
200 0.003983
107 0.004006
70 0.006013
67 0.005017
77 0.003998
83 0.003001
91 0.002031
105 0.001016
108 0.0
110 0.000989
118 0.0
127 0.0
144 0.0
158 0.0
164 0.0
174 0.0
179 0.0
189 0.001955
201 0.001986
176 0.001993
83 0.00205
67 0.001997
75 0.001957
87 0.003006
93 0.001997
109 0.001988
111 0.001996
110 0.002004
117 0.002027
128 0.002954
142 0.002994
157 0.00396
163 0.002975
173 0.004026
181 0.004023
188 0.004026
194 0.00296
142 0.005024
68 0.005023
61 0.00495
67 0.004949
73 0.004975
85 0.005954
94 0.005951
99 0.006009
100 0.005985
106 0.006117
121 0.006949
130 0.005986
142 0.006968
153 0.007013
158 0.007013
168 0.00696
175 0.007158
180 0.006976
92 0.004021
63 0.006014
57 0.002993
66 0.002996
70 0.002992
83 0.002984
93 0.002989
100 0.0
105 0.001018
112 0.0
129 0.0
143 0.002976
155 0.0
164 0.002984
174 0.0
182 0.003027
193 0.000993
200 0.0
117 0.000995
70 0.002007
64 0.003019
75 0.00204
84 0.002981
92 0.00305
108 0.003033
110 0.003023
111 0.002997
121 0.002992
131 0.003023
148 0.00304
156 0.003045
167 0.003989
177 0.004982
183 0.006043
195 0.005986
188 0.006016
104 0.005984
67 0.006948
68 0.00698
73 0.007979
80 0.008155
88 0.007013
106 0.006977
111 0.004023
111 0.007014
122 0.003961
140 0.003999
150 0.003105
164 0.003988
171 0.00399
181 0.003976
190 0.002993
195 0.002989
206 0.002016
181 0.00302
90 0.001993
58 0.002992
59 0.001994
65 0.002994
69 0.002989
78 0.002991
96 0.0
101 0.0
103 0.000964
111 0.001996
127 0.003989
137 0.003961
150 0.003984
158 0.003991
170 0.00399
180 0.004986
186 0.004953
200 0.004995
164 0.004982
96 0.004986
60 0.00598
63 0.005983
74 0.00601
81 0.005983
92 0.006
104 0.00598
108 0.006973
110 0.005993
123 0.007974
139 0.006015
150 0.006018
163 0.006027
170 0.006011
179 0.002993
187 0.0
193 0.0
205 0.0
124 0.0
77 0.0
62 0.0
68 0.001024
78 0.0
88 0.001984
102 0.000952
107 0.002029
109 0.002035
114 0.00303
131 0.002987
143 0.002991
159 0.0
168 0.0
176 0.000998
183 0.001993
191 0.00204
197 0.002043
207 0.003007
176 0.002998
70 0.003991
52 0.00395
55 0.003989
60 0.00399
68 0.005027
80 0.005018
93 0.003991
96 0.003995
103 0.004026
119 0.003989
131 0.003989
148 0.003964
155 0.004
167 0.006019
176 0.004996
184 0.004986
194 0.005024
207 0.005976
203 0.006015
90 0.006976
60 0.006973
57 0.006007
65 0.004995
68 0.007056
78 0.00403
98 0.00399
102 0.002945
106 0.003992
119 0.002987
132 0.002972
151 0.003031
162 0.002028
170 0.0
179 0.000998
187 0.001991
193 0.000966
205 0.002053
173 0.002029
74 0.002006
59 0.002053
66 0.002032
74 0.001961
85 0.001964
97 0.001995
106 0.00197
106 0.003964
113 0.003948
131 0.003944
143 0.003945
159 0.003882
167 0.003957
178 0.003988
187 0.003989
193 0.00399
205 0.003989
186 0.005016
90 0.004986
56 0.00596
55 0.005979
60 0.006984
64 0.007024
73 0.007013
92 0.006981
97 0.004985
101 0.007953
109 0.005964
124 0.00698
139 0.003007
154 0.002986
162 0.002998
174 0.00401
184 0.002988
191 0.002991
203 0.002994
163 0.002042
69 0.002001
56 0.002992
62 0.002981
66 0.003002
75 0.003024
88 0.003006
102 0.003025
104 0.0
110 0.00299
128 0.0
139 0.003022
156 0.0
167 0.0
174 0.000997
184 0.0
194 0.001033
202 0.002015
174 0.002027
103 0.002041
62 0.001991
69 0.002028
75 0.001996
83 0.002992
102 0.002992
106 0.002999
107 0.003959
111 0.003942
127 0.004986
142 0.005021
155 0.005975
165 0.006989
176 0.006979
181 0.006975
193 0.007016
198 0.007978
141 0.007984
75 0.004992
62 0.005983
67 0.003949
73 0.002937
76 0.002961
95 0.003027
102 0.002995
106 0.002991
111 0.004963
122 0.002997
137 0.003978
153 0.002985
161 0.002994
172 0.002997
177 0.003025
187 0.003
199 0.000966
187 0.002998
87 0.0
61 0.0
65 0.0
74 0.000965
77 0.00097
93 0.0
107 0.0
109 0.0
114 0.0
123 0.0
142 0.0
156 0.002992
168 0.000998
179 0.002956
191 0.003024
200 0.0
213 0.0
222 0.0
221 0.0
118 0.0
72 0.0
69 0.001953
81 0.001995
85 0.001997
97 0.001965
107 0.002
113 0.002959
115 0.00299
121 0.002992
140 0.002991
158 0.005
166 0.004985
177 0.004971
183 0.004979
190 0.004986
200 0.005835
209 0.005967
176 0.005928
79 0.006944
66 0.005941
76 0.006982
85 0.005969
97 0.007967
116 0.007966
119 0.007978
120 0.006966
126 0.003997
136 0.005972
157 0.00498
167 0.006022
182 0.002996
193 0.002991
199 0.002033
210 0.001997
221 0.00396
216 0.002992
112 0.002992
64 0.0
61 0.002992
74 0.002992
78 0.002016
91 0.001989
110 0.00097
114 0.001934
117 0.0
123 0.0
138 0.000996
159 0.000998
169 0.001998
184 0.000999
197 0.000997
204 0.001996
216 0.001962
229 0.002993
229 0.00299
99 0.004011
65 0.003859
64 0.004994
79 0.004998
83 0.004981
101 0.004975
114 0.004982
122 0.004989
124 0.005045
134 0.00498
151 0.004984
174 0.005018
185 0.005024
199 0.004988
206 0.005985
217 0.006023
225 0.005985
233 0.006983
114 0.006981
67 0.007012
61 0.006941
83 0.005985
88 0.005985
106 0.004985
122 0.004997
122 0.004996
121 0.004976
129 0.004992
151 0.00499
172 0.007984
181 0.004014
190 0.006007
201 0.005985
208 0.005984
218 0.005974
167 0.005985
58 0.006015
51 0.003001
62 0.006016
75 0.001992
83 0.004986
105 0.002993
112 0.003021
113 0.003031
126 0.0
149 0.0
162 0.0
179 0.0
187 0.0
197 0.003028
208 0.003034
215 0.003002
219 0.00203
85 0.000994
47 0.002013
45 0.0
53 0.002986
61 0.0
79 0.0
94 0.0
104 0.0
106 0.0
115 0.0
136 0.001005
151 0.001923
172 0.002993
186 0.003942
194 0.003994
206 0.003957
219 0.005023
223 0.005991
134 0.005971
47 0.006991
43 0.006984
59 0.006986
68 0.006988
76 0.006979
102 0.006981
109 0.006981
111 0.007031
123 0.003985
138 0.006981
162 0.002992
174 0.006019
189 0.003957
200 0.002984
206 0.002988
217 0.003008
161 0.002029
77 0.002992
44 0.002999
53 0.003032
76 0.001998
90 0.003999
111 0.003017
118 0.003988
117 0.002983
122 0.00399
142 0.003989
157 0.003951
175 0.00392
183 0.000962
185 0.003991
192 0.002997
199 0.002976
188 0.00095
57 0.001015
36 0.0
29 0.0
40 0.0
43 0.0
60 0.002009
78 0.003026
81 0.002992
86 0.001995
93 0.001963
113 0.002065
130 0.003955
138 0.002987
151 0.004037
158 0.003992
170 0.004988
181 0.004989
174 0.00599
75 0.005875
32 0.005963
35 0.007026
44 0.004981
50 0.004995
60 0.004991
81 0.004022
89 0.004004
92 0.003991
107 0.002987
120 0.003937
142 0.00203
156 0.002985
170 0.0
178 0.0
193 0.0
201 0.0
182 0.001
82 0.0
49 0.0
54 0.0
65 0.000997
72 0.001995
94 0.001996
103 0.001957
105 0.004046
111 0.002071
122 0.002963
145 0.003039
156 0.002993
170 0.003995
181 0.003986
188 0.004018
201 0.003951
159 0.005986
84 0.004955
49 0.005987
54 0.005992
66 0.005989
77 0.006978
91 0.004984
108 0.006983
110 0.006864
115 0.006982
133 0.006982
148 0.006984
168 0.007042
179 0.005971
188 0.006953
197 0.005994
206 0.006994
216 0.005964
204 0.005985
114 0.005991
46 0.005985
48 0.004974
54 0.004966
59 0.00399
71 0.003952
96 0.003961
104 0.005025
108 0.00296
118 0.002989
142 0.002992
156 0.003994
176 0.003041
193 0.0
200 0.001023
212 0.001009
220 0.000968
233 0.0
194 0.001992
101 0.002029
52 0.001995
61 0.001043
67 0.002994
75 0.002992
99 0.002992
110 0.00297
113 0.003991
118 0.003952
138 0.003928
158 0.002946
173 0.002953
183 0.004022
189 0.003995
195 0.004953
205 0.006018
213 0.005986
183 0.006048
63 0.005985
47 0.005822
56 0.005976
64 0.006017
76 0.005976
98 0.006016
104 0.005981
106 0.005947
111 0.005981
130 0.005981
154 0.00695
162 0.006002
176 0.005951
185 0.007975
194 0.004985
205 0.007978
213 0.004042
202 0.006972
69 0.006014
41 0.005018
42 0.004996
51 0.002991
54 0.004969
75 0.003003
88 0.004041
95 0.002992
102 0.003007
112 0.002997
135 0.002994
155 0.003002
163 0.003037
176 0.002037
184 0.001991
195 0.002974
205 0.005023
199 0.003003
93 0.005017
46 0.002991
45 0.003989
57 0.004971
60 0.003046
77 0.003053
96 0.0
100 0.003045
104 0.000948
113 0.000996
135 0.0
155 0.0
165 0.000988
175 0.0
186 0.0
195 0.0
205 0.0
213 0.0
118 0.0
55 0.000968
55 0.0
68 0.0
72 0.0
89 0.0
103 0.001
104 0.000995
105 0.002994
119 0.002985
132 0.003039
149 0.003937
158 0.003989
170 0.003989
180 0.003958
188 0.003952
196 0.00399
91 0.004988
55 0.00399
50 0.005001
58 0.005944
67 0.006
85 0.005997
96 0.005961
100 0.006008
102 0.006985
109 0.006039
124 0.007976
139 0.004984
154 0.007986
164 0.007967
170 0.007978
178 0.005986
191 0.002958
182 0.006009
75 0.003052
45 0.0
46 0.0
53 0.001008
59 0.000997
71 0.000998
88 0.0
92 0.0
97 0.0
111 0.000998
122 0.000998
141 0.001004
156 0.000966
164 0.00195
176 0.000997
183 0.002054
196 0.001953
195 0.001961
104 0.002042
58 0.001978
54 0.001984
64 0.002039
71 0.002015
80 0.002991
99 0.004018
104 0.004953
106 0.00497
117 0.004985
129 0.004983
148 0.003989
162 0.004988
169 0.004988
179 0.004992
184 0.00499
195 0.004982
199 0.00499
118 0.004975
64 0.005982
59 0.007977
67 0.007972
77 0.00698
87 0.006978
104 0.008018
107 0.004987
108 0.006992
116 0.004979
136 0.00501
148 0.004986
163 0.004018
172 0.002992
182 0.002989
192 0.002006
198 0.001986
209 0.002995
148 0.005117
70 0.004002
52 0.004973
57 0.002992
63 0.004942
71 0.005147
83 0.005019
98 0.005039
100 0.005021
105 0.003991
121 0.0
134 0.002991
152 0.0
166 0.000977
172 0.001001
184 0.0
195 0.002053
203 0.002013
214 0.002001
114 0.002964
