139 0.007014
136 0.005984
125 0.006979
107 0.006025
104 0.005992
109 0.005991
114 0.00599
118 0.005993
121 0.005995
125 0.005984
127 0.005977
128 0.005966
129 0.007015
130 0.006981
131 0.006982
131 0.006024
133 0.005993
133 0.005985
133 0.005984
134 0.00595
135 0.005989
134 0.005984
127 0.006016
111 0.005984
104 0.006029
109 0.005984
115 0.005983
119 0.005042
124 0.004968
125 0.005953
126 0.005992
127 0.006014
127 0.005984
128 0.006044
129 0.006026
130 0.006027
130 0.005015
131 0.005004
132 0.005025
131 0.004997
124 0.004983
108 0.00503
101 0.005028
103 0.004999
109 0.005982
116 0.006034
120 0.00599
122 0.006027
124 0.005984
126 0.005017
118 0.005017
121 0.004989
123 0.005016
127 0.004946
130 0.005013
131 0.004986
134 0.004977
135 0.005125
137 0.005012
135 0.004987
90 0.004986
35 0.004991
23 0.004995
40 0.005021
68 0.005001
81 0.004986
94 0.00499
103 0.004956
110 0.004986
114 0.004987
116 0.004986
118 0.004988
123 0.004079
127 0.00399
131 0.004986
133 0.004974
134 0.004987
138 0.004986
139 0.004987
138 0.004987
128 0.004988
85 0.004987
25 0.004986
31 0.004987
66 0.004986
81 0.003989
95 0.003991
103 0.003997
109 0.00403
114 0.004987
115 0.004987
115 0.003984
117 0.003955
125 0.004101
128 0.005005
134 0.004959
139 0.00399
140 0.00399
141 0.003975
121 0.003998
72 0.003977
34 0.00399
44 0.003983
63 0.004945
81 0.003989
96 0.003989
107 0.00402
114 0.004033
118 0.003999
120 0.004
122 0.003993
124 0.00399
128 0.003001
130 0.003979
131 0.003991
132 0.003988
132 0.002992
128 0.002992
85 0.003034
31 0.002993
27 0.00402
45 0.004027
61 0.004022
72 0.00399
79 0.003994
88 0.002994
93 0.003989
98 0.004037
103 0.00299
108 0.002992
117 0.003
123 0.002993
127 0.002991
127 0.002958
132 0.002999
135 0.002949
126 0.002993
60 0.002992
24 0.00302
28 0.00297
45 0.002955
64 0.002992
85 0.002999
98 0.003021
111 0.002994
115 0.002993
120 0.001995
123 0.002983
126 0.002993
132 0.002974
134 0.002966
136 0.002964
137 0.002993
140 0.002992
134 0.003029
94 0.002992
19 0.003035
30 0.003029
52 0.00303
72 0.002943
89 0.002993
101 0.002975
110 0.002961
115 0.003004
118 0.002978
122 0.001995
126 0.001995
131 0.001995
134 0.003027
138 0.001998
140 0.001995
141 0.003005
138 0.002988
102 0.003004
36 0.002977
39 0.002943
60 0.003026
81 0.002992
96 0.002995
113 0.001995
119 0.002032
121 0.002004
122 0.001995
125 0.001991
129 0.001994
131 0.001992
134 0.001995
138 0.001988
138 0.001995
139 0.001995
130 0.001995
54 0.001995
42 0.001006
65 0.001947
85 0.001924
99 0.002001
109 0.001999
115 0.002011
117 0.001995
119 0.001996
121 0.001947
124 0.001003
127 0.001012
131 0.000998
133 0.000999
134 0.00101
129 0.000993
98 0.001955
54 0.002
47 0.001994
71 0.000963
88 0.000998
101 0.000997
108 0.000998
114 0.001996
116 0.001995
117 0.001994
120 0.001991
123 0.001996
125 0.000997
127 0.001057
129 0.000992
132 0.001995
126 0.001995
92 0.000997
38 0.001959
29 0.000998
62 0.001023
82 0.000997
98 0.000999
104 0.000999
110 0.00102
111 0.000997
113 0.00098
116 0.000997
120 0.000988
122 0.000987
126 0.000997
129 0.0
130 0.000953
132 0.001034
118 0.000963
59 0.001001
10 0.001001
12 0.0
34 0.000998
58 0.000997
81 0.001008
92 0.00099
99 0.000997
104 0.000998
108 0.000998
111 0.0
116 0.0
120 0.0
123 0.0
125 0.0
127 0.0
130 0.0
133 0.0
133 0.0
116 0.0
54 0.0
4 0.0
23 0.0
50 0.0
73 0.0
87 0.0
97 0.000999
104 0.0
107 0.0
111 0.0
115 0.0
117 0.0
121 0.0
125 0.0
129 0.0
131 0.0
133 0.0
134 0.0
134 0.0
110 0.0
51 0.0
20 0.0
30 0.000992
62 0.0
84 0.000985
99 0.0
104 0.000958
109 0.0
112 0.0
114 0.0
116 0.0
119 0.0
123 0.0
126 0.0
129 0.0
131 0.0
134 0.001016
135 0.0
131 0.0
108 0.0
54 0.000989
34 0.00099
53 0.0
75 0.0
89 0.0
99 0.001001
106 0.000997
111 0.000998
114 0.000998
116 0.0
118 0.000955
121 0.0
124 0.000998
124 0.000997
129 0.0
129 0.0
129 0.0
130 0.000998
122 0.000959
61 0.000998
19 0.000998
41 0.0
61 0.001
74 0.000945
90 0.00099
98 0.000991
105 0.000957
107 0.0
110 0.0
114 0.000992
115 0.001001
117 0.001995
121 0.002
124 0.001981
126 0.000425
128 0.000957
128 0.0
127 0.00199
114 0.001983
39 0.000964
14 0.000944
26 0.00097
49 0.002025
68 0.001995
88 0.002
97 0.002051
103 0.001034
106 0.000967
108 0.00096
113 0.001996
114 0.001989
117 0.002028
120 0.001986
124 0.000965
126 0.002027
127 0.001995
130 0.002996
129 0.002038
103 0.000991
47 0.002076
23 0.000995
34 0.003015
56 0.002997
75 0.002047
86 0.002028
96 0.002042
102 0.002032
105 0.001995
110 0.001995
111 0.002004
115 0.000998
118 0.001994
121 0.00098
123 0.003023
125 0.003023
128 0.002025
127 0.002025
117 0.002004
75 0.002975
33 0.002996
44 0.00203
65 0.00202
81 0.002051
93 0.001963
100 0.002019
103 0.002016
105 0.00201
107 0.002991
108 0.001978
113 0.002025
116 0.002987
119 0.002991
122 0.003022
123 0.003032
124 0.001989
124 0.001967
116 0.002046
79 0.003033
18 0.002999
7 0.002004
23 0.003033
54 0.00203
70 0.002992
90 0.001979
96 0.003024
98 0.003011
101 0.002027
105 0.001983
108 0.001994
112 0.003038
116 0.002002
120 0.004025
124 0.003023
125 0.003027
126 0.00202
128 0.001988
117 0.002029
63 0.002989
4 0.002977
0 0.001998
22 0.00204
44 0.00198
59 0.003043
72 0.00402
89 0.003033
95 0.003022
97 0.003022
102 0.002982
108 0.00303
113 0.004023
115 0.004027
119 0.004019
123 0.001998
125 0.003006
126 0.003019
127 0.003969
118 0.002992
59 0.002995
1 0.00302
7 0.002935
31 0.003025
50 0.004031
67 0.004024
86 0.003024
94 0.003041
97 0.002992
98 0.003988
102 0.004036
108 0.004037
114 0.003991
117 0.002965
121 0.004033
127 0.003026
128 0.004022
129 0.003995
107 0.002971
39 0.002989
0 0.003617
67 0.00502
78 0.00498
93 0.003983
99 0.004026
107 0.00403
113 0.004022
114 0.003038
114 0.004032
117 0.005022
121 0.00399
123 0.003974
126 0.004022
128 0.005005
128 0.005023
130 0.003976
130 0.004019
124 0.004026
75 0.004018
52 0.005029
59 0.004026
72 0.003991
82 0.005004
89 0.00502
98 0.005013
106 0.005018
108 0.005017
110 0.003989
113 0.00399
117 0.004025
124 0.004032
126 0.004031
129 0.005029
130 0.006019
132 0.00394
133 0.005017
133 0.005018
130 0.005024
100 0.00502
50 0.004013
46 0.003985
56 0.003971
75 0.004024
81 0.003989
90 0.004016
99 0.006014
103 0.006028
106 0.004983
108 0.004976
113 0.005021
118 0.005017
124 0.005976
129 0.004026
133 0.004994
135 0.004031
137 0.004005
138 0.004005
137 0.006222
137 0.006025
126 0.005011
84 0.005025
54 0.005022
54 0.006016
66 0.006021
63 0.005045
76 0.006989
92 0.006017
102 0.004003
104 0.005023
105 0.006024
109 0.005984
117 0.00495
123 0.005016
129 0.004993
133 0.00603
137 0.00602
137 0.005021
140 0.005984
141 0.005988
136 0.005004
100 0.005021
50 0.007015
39 0.007016
59 0.004994
71 0.006013
89 0.005418
103 0.007014
113 0.005984
117 0.006018
116 0.005979
118 0.006038
123 0.00604
129 0.004987
135 0.005993
138 0.006026
141 0.006019
143 0.006027
143 0.005981
144 0.006981
132 0.007012
61 0.00602
32 0.007018
53 0.005976
69 0.005998
82 0.006026
93 0.006024
105 0.006027
114 0.006032
116 0.005985
118 0.005983
121 0.007014
127 0.006982
134 0.005951
139 0.007979
143 0.006019
144 0.006034
146 0.006024
146 0.007969
147 0.007971
148 0.00702
141 0.006021
95 0.006015
41 0.007017
30 0.007017
44 0.007019
71 0.006983
81 0.007025
95 0.006035
107 0.006979
113 0.00703
118 0.007982
121 0.007986
126 0.007014
131 0.006012
137 0.007011
140 0.006981
142 0.00701
145 0.006982
145 0.006976
147 0.006021
148 0.007006
148 0.006969
143 0.007992
124 0.007959
60 0.007006
51 0.007013
64 0.006965
86 0.007808
97 0.007955
113 0.007021
121 0.007028
123 0.007019
125 0.00798
128 0.007983
131 0.007979
134 0.007983
138 0.006954
140 0.006995
141 0.007016
141 0.007979
141 0.007977
138 0.006981
123 0.006983
60 0.007015
40 0.00699
47 0.006986
62 0.006986
76 0.006983
93 0.007979
102 0.007989
107 0.007994
109 0.007978
110 0.006982
112 0.006959
116 0.006992
122 0.00699
125 0.006979
127 0.00698
131 0.006994
135 0.006978
140 0.006989
147 0.006983
154 0.007963
157 0.007979
163 0.007021
134 0.007009
118 0.007021
125 0.006984
131 0.006983
134 0.006995
136 0.00695
138 0.007024
136 0.006989
135 0.006971
135 0.006976
134 0.006978
136 0.007015
135 0.006981
137 0.007
138 0.006982
138 0.006965
139 0.006983
140 0.006986
139 0.006985
139 0.006959
139 0.006976
133 0.007008
106 0.006983
60 0.005984
66 0.006023
80 0.005996
93 0.006013
105 0.006989
112 0.007007
118 0.006976
120 0.006973
121 0.00698
124 0.006977
127 0.006015
127 0.005999
130 0.005981
131 0.006023
133 0.005986
134 0.006015
134 0.00599
135 0.005993
135 0.00599
133 0.005985
116 0.005978
75 0.006965
69 0.005983
80 0.005986
101 0.006022
110 0.006012
116 0.006
120 0.005981
122 0.005975
122 0.005993
123 0.00595
126 0.005974
128 0.00599
129 0.00596
132 0.005977
133 0.005984
134 0.005021
135 0.005031
135 0.004992
122 0.004987
52 0.000957
25 0.005996
40 0.005979
63 0.00603
83 0.005988
100 0.005943
108 0.005977
116 0.00497
119 0.005014
120 0.005017
123 0.004987
128 0.005002
131 0.004987
132 0.004983
135 0.004987
138 0.004978
139 0.003978
140 0.005001
141 0.004989
136 0.004982
52 0.005031
7 0.004987
10 0.004986
31 0.004987
59 0.004999
74 0.005014
90 0.004981
101 0.004975
108 0.004987
111 0.004976
113 0.00399
118 0.004975
123 0.005032
126 0.005018
129 0.004989
132 0.004983
134 0.005
135 0.004981
136 0.004986
136 0.004978
132 0.004975
98 0.003997
17 0.00399
14 0.004114
42 0.00402
62 0.00401
80 0.003999
93 0.004976
102 0.003985
108 0.004991
108 0.004965
111 0.004951
115 0.00498
121 0.004982
125 0.004971
130 0.003989
135 0.003991
137 0.004002
138 0.003989
135 0.00399
100 0.003991
19 0.003981
10 0.004004
28 0.003984
52 0.003993
73 0.002995
95 0.004989
108 0.003991
113 0.00402
113 0.00399
116 0.004003
119 0.003994
125 0.004004
132 0.003958
133 0.003972
137 0.004032
140 0.003986
141 0.004032
141 0.003983
142 0.003027
125 0.003988
53 0.003997
0 0.003985
0 0.003995
11 0.003985
39 0.003982
54 0.003978
69 0.003986
84 0.003988
94 0.002999
100 0.002992
103 0.003027
113 0.002993
121 0.003031
127 0.002995
131 0.002951
136 0.00301
140 0.003991
143 0.003975
143 0.003995
145 0.002991
145 0.002962
114 0.002993
11 0.003023
0 0.002993
4 0.002992
30 0.002927
48 0.002943
62 0.002975
80 0.002985
92 0.002973
96 0.001988
97 0.002026
102 0.002985
112 0.003026
123 0.002992
131 0.002994
135 0.002986
140 0.002968
141 0.003033
142 0.002953
144 0.001991
145 0.00294
141 0.002027
113 0.001986
36 0.001996
0 0.001995
76 0.002994
90 0.001995
103 0.002993
111 0.002992
117 0.002992
119 0.002964
119 0.001995
120 0.002992
123 0.002951
127 0.002953
132 0.002952
134 0.002993
137 0.001995
138 0.002993
139 0.003037
139 0.001961
125 0.002987
86 0.002991
61 0.001998
67 0.00201
80 0.001987
91 0.001993
100 0.002002
114 0.001996
118 0.002027
119 0.001994
120 0.002028
123 0.001005
127 0.001029
132 0.001012
135 0.001999
137 0.001995
139 0.001995
140 0.001995
142 0.002025
142 0.00203
141 0.001994
140 0.002034
100 0.001996
59 0.001001
50 0.002002
60 0.001956
72 0.000991
85 0.001007
92 0.001026
101 0.000964
108 0.000989
113 0.000997
116 0.000997
119 0.000997
125 0.000997
130 0.000993
134 0.000998
137 0.001995
138 0.001996
141 0.001953
141 0.001949
141 0.001047
141 0.001019
137 0.000997
108 0.000997
68 0.001
29 0.000998
46 0.000998
64 0.000988
77 0.000998
87 0.000997
102 0.000983
109 0.001004
110 0.000998
112 0.000966
119 0.0
126 0.000998
132 0.001004
137 0.000997
140 0.000956
142 0.001047
143 0.000972
144 0.0
144 0.00096
131 0.0
80 0.0
43 0.0
54 0.0
74 0.0
90 0.0
103 0.0
118 0.000997
123 0.001008
124 0.000999
124 0.000985
127 0.000991
133 0.0
138 0.0
142 0.0
145 0.0
146 0.0
147 0.0
148 0.0
148 0.0
145 0.0
113 0.0
53 0.001
28 0.000988
43 0.0
62 0.0
76 0.0
94 0.001022
105 0.0
113 0.0
115 0.0
117 0.0
122 0.0
129 0.0
136 0.0
140 0.0
143 0.001014
145 0.001004
147 0.0
147 0.0
148 0.0
149 0.0
134 0.0
77 0.000985
32 0.000998
32 0.0
51 0.0
69 0.0
80 0.000955
90 0.00096
104 0.0
110 0.000998
113 0.0
115 0.0
120 0.000963
129 0.0
133 0.000999
138 0.0
141 0.0
142 0.0
143 0.000999
144 0.000992
140 0.000997
104 0.000948
43 0.0
40 0.0
58 0.0
78 0.001003
93 0.001016
111 0.000969
121 0.000954
124 0.001017
124 0.001958
125 0.001983
129 0.000998
135 0.000999
139 0.0
142 0.0
144 0.001004
145 0.0
145 0.000992
147 0.000986
132 0.00102
77 0.001001
38 0.00099
38 0.001993
69 0.000997
85 0.001995
98 0.002039
114 0.001036
120 0.001037
122 0.001013
122 0.000999
123 0.002018
132 0.000997
137 0.001031
141 0.000982
144 0.001999
147 0.000998
148 0.001994
147 0.002027
149 0.000997
146 0.001039
118 0.0
53 0.001998
24 0.002037
36 0.001995
56 0.000999
71 0.000974
82 0.001982
103 0.001998
110 0.002992
114 0.001987
116 0.001995
121 0.000966
125 0.001965
134 0.002025
138 0.001985
142 0.001005
145 0.001047
146 0.001
146 0.002002
147 0.000998
148 0.003047
145 0.003023
95 0.002028
38 0.002027
24 0.000997
39 0.003024
59 0.001994
74 0.00199
91 0.000991
102 0.001203
110 0.003024
112 0.001986
114 0.003041
118 0.003025
126 0.002037
133 0.002028
137 0.001973
141 0.002977
143 0.002987
145 0.002008
146 0.001995
146 0.000996
147 0.00303
103 0.001026
51 0.002992
36 0.002027
57 0.001947
78 0.001988
93 0.002026
107 0.003029
118 0.003028
123 0.002055
121 0.002029
122 0.002038
126 0.004023
135 0.002038
139 0.004018
142 0.003991
146 0.00303
147 0.002025
147 0.001988
148 0.003021
148 0.003045
146 0.001988
118 0.001951
56 0.002004
27 0.002034
45 0.002037
65 0.002999
78 0.004
87 0.003988
104 0.00298
111 0.001993
110 0.001994
113 0.004017
117 0.003992
124 0.001988
133 0.002
141 0.001986
143 0.001992
147 0.00295
148 0.003961
149 0.003992
149 0.002948
150 0.00298
146 0.002989
112 0.004022
46 0.004005
20 0.002032
35 0.002992
64 0.002992
76 0.003993
86 0.003007
98 0.003986
106 0.003977
106 0.00298
109 0.002987
113 0.002976
120 0.004033
128 0.00399
137 0.003003
141 0.003009
145 0.003028
147 0.004027
148 0.004114
148 0.005018
148 0.004988
150 0.003991
143 0.003024
100 0.002961
45 0.003974
32 0.004989
54 0.00304
73 0.003
96 0.002965
108 0.003
117 0.004032
118 0.005021
116 0.005021
119 0.004012
123 0.003989
131 0.004005
137 0.005011
142 0.005009
145 0.002956
148 0.002967
149 0.003034
150 0.003037
151 0.003986
135 0.004986
77 0.004969
31 0.004025
38 0.003987
58 0.003988
76 0.004992
89 0.004998
106 0.004011
115 0.004029
118 0.003999
119 0.004029
122 0.004987
129 0.005984
135 0.005984
142 0.005017
146 0.003975
148 0.003984
150 0.003987
152 0.005019
152 0.00503
153 0.003994
153 0.004975
154 0.003995
140 0.005017
82 0.005017
29 0.00601
20 0.006009
44 0.004015
62 0.003998
74 0.004
83 0.006042
95 0.005015
106 0.003995
110 0.005026
113 0.005001
120 0.005017
127 0.004987
135 0.005884
140 0.006015
145 0.003977
147 0.005021
148 0.004035
149 0.006016
150 0.006033
150 0.004033
151 0.007014
150 0.005008
144 0.005038
103 0.005017
44 0.006015
27 0.005984
50 0.005017
68 0.004994
82 0.004988
93 0.006025
106 0.006024
116 0.006027
115 0.006981
117 0.006009
122 0.006021
128 0.004916
134 0.005978
139 0.005974
143 0.004985
145 0.004987
146 0.005002
147 0.005972
149 0.006026
148 0.006981
148 0.007011
119 0.006011
62 0.005963
37 0.006016
46 0.006982
66 0.00702
89 0.004995
103 0.004946
115 0.005983
123 0.006014
125 0.00703
126 0.007009
127 0.00701
135 0.006008
140 0.005986
142 0.006027
145 0.006981
149 0.006981
148 0.006024
149 0.00605
151 0.005033
151 0.007022
151 0.007965
142 0.007977
95 0.00798
39 0.005989
26 0.005983
42 0.006009
62 0.007012
77 0.006981
91 0.005975
102 0.00598
111 0.005973
114 0.007022
117 0.007022
122 0.006023
128 0.007979
135 0.007979
141 0.00702
145 0.007011
147 0.00698
148 0.007978
149 0.007986
150 0.007021
150 0.007013
149 0.00703
148 0.007973
78 0.005991
32 0.006985
28 0.006982
52 0.006999
71 0.006973
82 0.006976
92 0.007979
108 0.007987
113 0.006992
114 0.00702
116 0.007002
120 0.00799
132 0.006998
136 0.007012
140 0.007022
143 0.007001
145 0.007009
146 0.007972
146 0.007978
147 0.007983
148 0.006972
144 0.006989
107 0.006982
54 0.007939
45 0.006972
72 0.007978
90 0.007984
103 0.007019
116 0.007024
124 0.007011
125 0.007016
124 0.006988
127 0.00799
131 0.006988
135 0.006978
141 0.006984
145 0.006981
148 0.007019
148 0.007979
150 0.006991
149 0.006989
149 0.006945
147 0.007014
115 0.006982
39 0.006975
26 0.006984
40 0.006987
73 0.007022
85 0.007015
97 0.007018
108 0.007007
115 0.006975
115 0.006016
115 0.006976
119 0.007007
126 0.007006
135 0.006973
140 0.006984
144 0.006965
147 0.007004
149 0.007024
149 0.007016
150 0.006967
151 0.007023
140 0.007023
83 0.006013
30 0.005984
20 0.005974
41 0.005999
61 0.006982
74 0.006977
91 0.00695
101 0.006976
106 0.007009
107 0.007016
108 0.006017
115 0.005987
122 0.006025
130 0.006018
138 0.005975
141 0.005984
145 0.00599
147 0.005969
149 0.006983
150 0.006023
149 0.007026
150 0.007027
143 0.007024
72 0.006008
29 0.005992
27 0.006021
47 0.005949
67 0.005988
86 0.005977
98 0.005986
112 0.006016
111 0.006017
109 0.006023
113 0.005986
118 0.006015
129 0.006019
136 0.005021
141 0.005029
145 0.005981
148 0.006
151 0.005996
151 0.005984
152 0.005984
148 0.006014
108 0.006026
46 0.006014
22 0.006018
39 0.006014
60 0.005029
77 0.005017
87 0.004993
99 0.005003
108 0.004993
109 0.00499
111 0.006046
116 0.006023
125 0.00602
134 0.006015
140 0.00602
148 0.006017
150 0.005019
153 0.005034
154 0.004996
155 0.004996
155 0.004986
156 0.004982
145 0.005031
87 0.004983
25 0.004986
10 0.005041
24 0.005021
50 0.003963
63 0.00503
73 0.005022
85 0.004993
94 0.004993
100 0.004979
103 0.004977
111 0.005021
119 0.005033
128 0.005024
137 0.004978
144 0.005032
149 0.00403
152 0.004023
154 0.004019
157 0.003982
157 0.003988
156 0.00399
157 0.00498
151 0.005018
81 0.004987
26 0.005023
18 0.005035
35 0.005027
56 0.005017
75 0.004019
86 0.004029
97 0.003987
102 0.003977
103 0.003996
104 0.004033
111 0.00402
123 0.004019
133 0.004024
141 0.004034
146 0.005026
150 0.003979
154 0.00403
155 0.004018
156 0.003995
156 0.003966
156 0.003986
155 0.003991
126 0.00403
46 0.004024
30 0.004025
44 0.003909
68 0.004033
85 0.004033
103 0.004032
114 0.00296
120 0.002997
120 0.00395
119 0.00296
124 0.002995
132 0.002994
142 0.002964
148 0.002993
151 0.00403
154 0.004035
156 0.003991
157 0.004021
158 0.004029
159 0.00296
159 0.002936
159 0.002963
147 0.002994
88 0.002995
23 0.002992
24 0.002994
42 0.002995
62 0.002997
75 0.002997
88 0.002994
100 0.004026
109 0.002952
112 0.002954
113 0.002961
121 0.003042
128 0.003028
140 0.002992
145 0.002995
149 0.002995
151 0.002999
148 0.003
138 0.003021
130 0.002032
128 0.002959
126 0.001993
127 0.00296
125 0.003053
83 0.002993
17 0.002993
19 0.001994
42 0.002956
69 0.002994
86 0.002996
102 0.003005
115 0.001994
122 0.001972
123 0.001998
124 0.001995
131 0.002002
138 0.002993
145 0.003
151 0.002994
156 0.002992
157 0.002999
158 0.002993
159 0.003028
160 0.002045
160 0.002002
154 0.002009
114 0.001997
41 0.001996
48 0.001994
68 0.002028
94 0.002028
108 0.002993
121 0.002001
129 0.001995
132 0.001997
130 0.002026
131 0.001994
135 0.002017
143 0.001019
150 0.001
154 0.001996
155 0.000997
158 0.000998
159 0.000998
158 0.001995
159 0.001995
159 0.001995
152 0.00203
108 0.001976
43 0.001953
26 0.001995
46 0.001996
65 0.001996
77 0.002008
92 0.002001
102 0.000998
108 0.000998
110 0.001001
112 0.001004
117 0.000998
126 0.001001
136 0.000991
146 0.000997
150 0.000998
153 0.000997
155 0.002042
156 0.001028
157 0.00103
157 0.000998
156 0.000998
143 0.000998
60 0.000997
19 0.001021
20 0.001011
52 0.000997
67 0.000998
79 0.000998
90 0.000997
101 0.000998
104 0.001
103 0.000997
105 0.000998
112 0.000998
125 0.000988
135 0.000995
140 0.001
147 0.001006
151 0.000997
153 0.000998
154 0.0
155 0.0
154 0.0
127 0.0
62 0.0
25 0.0
35 0.000998
57 0.000971
75 0.001
97 0.000997
108 0.000994
112 0.000997
110 0.0
108 0.0
115 0.0
124 0.0
133 0.0
141 0.0
148 0.0
153 0.0
156 0.0
158 0.0
159 0.001003
158 0.000997
155 0.0
121 0.0
29 0.0
9 0.0
21 0.0
41 0.0
59 0.0
73 0.0
86 0.0
97 0.0
97 0.000997
99 0.0
109 0.000994
118 0.000989
128 0.001002
138 0.0
148 0.0
152 0.0
156 0.0
159 0.000997
160 0.000997
162 0.001033
159 0.00104
96 0.0
45 0.000998
5 0.000998
11 0.000998
31 0.001003
48 0.000997
62 0.0
72 0.000998
88 0.001979
93 0.001986
96 0.001038
101 0.001039
114 0.0
125 0.0
135 0.0
143 0.001028
149 0.000998
154 0.000999
157 0.0
160 0.0
161 0.000993
161 0.000996
158 0.001995
115 0.002045
28 0.0
13 0.0
26 0.0
48 0.001029
64 0.001035
81 0.0
92 0.0
98 0.0
97 0.000962
98 0.0
105 0.000997
115 0.001031
129 0.0
139 0.0
147 0.000986
153 0.00101
158 0.000995
161 0.0
163 0.000988
162 0.001009
127 0.001007
26 0.000998
18 0.000998
36 0.001999
57 0.001997
78 0.000998
93 0.002039
104 0.000995
108 0.001992
108 0.001024
110 0.001002
115 0.00101
125 0.001006
143 0.000999
153 0.002015
158 0.001995
163 0.001995
167 0.000998
168 0.001
169 0.000997
171 0.002026
170 0.002003
123 0.00204
44 0.001995
5 0.001965
18 0.002033
36 0.001035
50 0.003034
60 0.003033
80 0.000992
91 0.000997
95 0.000978
98 0.002002
103 0.001982
113 0.001039
126 0.000991
138 0.000995
153 0.000999
158 0.002043
162 0.002024
166 0.002992
169 0.002046
169 0.002044
171 0.001994
170 0.002983
141 0.002992
40 0.002033
9 0.001988
16 0.00099
49 0.000998
62 0.001039
73 0.00296
87 0.002996
98 0.000988
100 0.000998
102 0.001001
107 0.001995
116 0.003031
131 0.000997
141 0.001995
149 0.001998
159 0.001981
163 0.001975
166 0.003028
169 0.002992
170 0.002027
171 0.002049
151 0.002016
81 0.002992
31 0.004021
32 0.002039
54 0.002992
75 0.001969
99 0.002012
111 0.001938
118 0.004024
117 0.004001
115 0.002027
121 0.001993
129 0.00196
139 0.00402
149 0.003033
160 0.001999
164 0.001953
167 0.002006
170 0.001052
170 0.001993
170 0.001991
170 0.00399
153 0.004026
60 0.002988
16 0.003021
15 0.003021
36 0.003992
59 0.004019
77 0.003023
94 0.00399
107 0.003015
110 0.002985
110 0.002988
112 0.003979
121 0.004021
137 0.003024
147 0.003025
153 0.003036
159 0.00399
163 0.004031
167 0.001993
169 0.003989
171 0.002998
170 0.002992
168 0.002963
154 0.004021
88 0.00399
16 0.002966
16 0.003024
38 0.002999
61 0.003989
78 0.004021
95 0.002992
110 0.005025
117 0.003024
118 0.00402
120 0.003961
126 0.004986
137 0.005018
150 0.004022
157 0.004032
162 0.002994
165 0.005019
166 0.004987
168 0.003006
169 0.004031
172 0.002991
171 0.002995
162 0.003991
112 0.004986
49 0.005019
30 0.003987
48 0.004019
71 0.00399
87 0.005028
98 0.004994
115 0.003034
124 0.004979
119 0.002994
121 0.004004
127 0.003991
136 0.004968
143 0.004987
154 0.003994
158 0.004004
161 0.004001
164 0.004983
164 0.005029
165 0.00403
146 0.005017
62 0.005028
36 0.004001
46 0.003979
70 0.005989
91 0.006017
112 0.003987
126 0.003998
134 0.003992
136 0.005029
136 0.005019
135 0.005018
144 0.005019
150 0.006009
158 0.005037
161 0.005017
163 0.005018
164 0.006008
165 0.005984
164 0.00502
163 0.005013
133 0.005025
59 0.006984
19 0.005987
35 0.005985
59 0.005984
80 0.004014
91 0.00498
103 0.004987
114 0.006018
118 0.005984
123 0.005017
125 0.004976
131 0.005028
140 0.005996
148 0.005984
157 0.005984
161 0.006028
163 0.003972
163 0.00503
161 0.006017
163 0.006981
154 0.007013
68 0.004986
20 0.004991
19 0.004989
38 0.005969
61 0.006024
83 0.006024
98 0.005986
113 0.004983
119 0.005005
121 0.006003
123 0.007011
129 0.006981
141 0.006018
148 0.006009
153 0.005027
158 0.007011
160 0.005984
162 0.006981
162 0.006981
163 0.005987
155 0.005952
101 0.005987
42 0.007012
27 0.007005
52 0.005985
75 0.00595
91 0.006023
105 0.007024
123 0.00602
126 0.007015
126 0.007956
127 0.006032
133 0.005982
141 0.005982
148 0.007005
154 0.007011
159 0.00599
161 0.005993
163 0.004985
163 0.007011
155 0.004989
101 0.007027
41 0.007006
32 0.007023
55 0.005986
78 0.005971
98 0.007979
117 0.007962
134 0.007979
144 0.005975
146 0.005983
146 0.005985
151 0.005999
155 0.005991
160 0.006978
162 0.007921
165 0.006991
166 0.006986
167 0.006979
166 0.007963
166 0.007979
163 0.007016
125 0.006955
49 0.006987
15 0.005963
35 0.005984
65 0.007009
77 0.007002
89 0.006981
102 0.006972
111 0.006982
114 0.007979
115 0.007979
122 0.006981
131 0.006981
140 0.007025
151 0.007019
155 0.007018
159 0.007014
160 0.007021
161 0.006976
162 0.006981
161 0.006972
136 0.007978
42 0.007986
14 0.006981
24 0.006983
49 0.00698
84 0.006985
97 0.006977
109 0.007016
116 0.006984
120 0.006952
121 0.006981
127 0.006969
135 0.007018
144 0.00702
151 0.006978
156 0.006983
156 0.006981
160 0.007007
160 0.007011
161 0.007015
161 0.007021
110 0.007012
50 0.006983
32 0.006976
48 0.007016
73 0.007013
100 0.006981
115 0.005977
127 0.006016
133 0.005997
132 0.006018
132 0.007022
136 0.007
144 0.006989
151 0.007014
155 0.007013
158 0.007009
159 0.006976
161 0.006979
161 0.006024
162 0.005981
126 0.006024
56 0.005983
24 0.006015
32 0.006018
57 0.006026
87 0.005986
101 0.005985
114 0.007021
124 0.006985
128 0.007015
127 0.006018
131 0.005986
140 0.005981
147 0.005987
152 0.005974
154 0.00602
156 0.006018
159 0.005986
158 0.006019
158 0.006033
158 0.005018
141 0.005018
54 0.006015
18 0.006019
44 0.006026
68 0.006014
84 0.005986
97 0.005988
111 0.00602
122 0.006017
124 0.005969
124 0.005984
129 0.006019
134 0.00502
143 0.005018
150 0.004991
155 0.004992
157 0.004966
158 0.006017
158 0.005017
160 0.005987
147 0.005996
90 0.00602
40 0.006022
33 0.006032
52 0.005016
83 0.005018
104 0.004987
123 0.005021
127 0.005028
127 0.005021
126 0.005022
128 0.005026
134 0.005022
143 0.005017
148 0.005025
151 0.005017
154 0.004023
156 0.005028
157 0.004995
148 0.005025
95 0.005021
41 0.005037
32 0.005029
50 0.005024
81 0.005023
101 0.005025
117 0.005026
126 0.005024
130 0.004024
128 0.004027
130 0.003992
136 0.004024
143 0.004023
149 0.005023
153 0.00502
155 0.005028
158 0.005018
158 0.00402
159 0.005016
154 0.003988
110 0.004025
36 0.004021
12 0.003987
33 0.004021
60 0.004028
74 0.003989
86 0.004022
97 0.004019
102 0.004033
103 0.004033
106 0.004024
113 0.004043
123 0.004033
134 0.004024
147 0.003989
151 0.004023
157 0.004033
159 0.004024
159 0.004029
154 0.004024
107 0.004024
20 0.005029
9 0.003032
27 0.003991
49 0.002993
66 0.002995
88 0.003995
99 0.004024
103 0.004036
101 0.00402
106 0.004023
112 0.00399
123 0.00399
137 0.004021
145 0.003022
151 0.003038
153 0.003022
157 0.004
158 0.002992
160 0.003034
124 0.004023
58 0.003975
27 0.004026
36 0.003991
59 0.004022
86 0.002992
102 0.003027
115 0.003027
120 0.002992
114 0.002967
114 0.002993
120 0.003022
132 0.002993
141 0.00303
150 0.003054
155 0.002996
158 0.004035
162 0.003024
163 0.003023
161 0.002992
127 0.00302
28 0.002969
25 0.00296
43 0.002992
73 0.002992
90 0.002994
104 0.003025
113 0.002992
115 0.003025
112 0.002018
113 0.002027
120 0.003028
132 0.002994
148 0.003013
155 0.003002
160 0.002988
164 0.002992
165 0.002992
165 0.001995
166 0.003048
162 0.002028
91 0.002992
22 0.001995
3 0.003029
16 0.002035
48 0.001978
61 0.002962
72 0.002992
86 0.003002
94 0.00303
96 0.003024
98 0.001994
107 0.001995
117 0.002027
132 0.002027
143 0.001996
149 0.002025
158 0.002024
160 0.001953
162 0.001995
164 0.00199
164 0.002024
162 0.000999
117 0.002053
43 0.001996
14 0.001969
30 0.001995
53 0.001995
70 0.002028
91 0.001978
101 0.002
105 0.001956
105 0.001995
107 0.000997
114 0.000998
126 0.001001
137 0.000997
147 0.000998
156 0.001995
161 0.002032
164 0.001995
167 0.001988
168 0.001985
170 0.000997
156 0.000999
64 0.001027
17 0.001004
15 0.000997
34 0.000997
55 0.000997
75 0.000997
86 0.000985
100 0.000997
106 0.001954
108 0.002005
112 0.002025
119 0.000997
136 0.000997
146 0.000997
153 0.000998
160 0.002044
164 0.000998
167 0.000997
170 0.001995
172 0.001127
172 0.000994
174 0.001025
159 0.001962
89 0.002022
11 0.000997
9 0.000998
27 0.0
47 0.000856
62 0.0
77 0.000998
91 0.000998
102 0.001004
104 0.000999
108 0.000995
115 0.001001
126 0.001005
142 0.000998
151 0.000997
157 0.0
162 0.0
165 0.0
167 0.0
169 0.0
171 0.0
170 0.0
170 0.0
165 0.0
119 0.000997
44 0.001007
18 0.000998
35 0.0
57 0.0
73 0.0
84 0.0
101 0.0
107 0.0
105 0.0
108 0.0
118 0.000959
127 0.000998
137 0.001002
149 0.0
155 0.0
159 0.0
161 0.0
164 0.0
165 0.001029
166 0.0
161 0.0
122 0.0
56 0.0
28 0.000999
46 0.000994
70 0.002061
87 0.002046
107 0.0
118 0.0
123 0.0
122 0.002042
122 0.0
130 0.001035
141 0.001043
151 0.0
157 0.0
162 0.0
165 0.001029
165 0.000983
169 0.0
169 0.0
168 0.0
169 0.000998
130 0.0
55 0.001998
15 0.002013
26 0.0
49 0.0
67 0.0
77 0.002027
88 0.002028
103 0.0
107 0.0
109 0.0
112 0.001028
125 0.0
137 0.000997
146 0.000984
156 0.0
161 0.0
163 0.000959
166 0.000999
166 0.002017
167 0.000989
166 0.0
166 0.0
143 0.002009
33 0.0
18 0.000998
33 0.000997
64 0.0
78 0.0
89 0.0
101 0.000998
110 0.001995
112 0.0
113 0.000998
117 0.0
126 0.001995
142 0.0
150 0.001997
156 0.001976
159 0.001987
161 0.000992
163 0.001046
164 0.000941
166 0.001051
166 0.002029
164 0.000988
133 0.0
43 0.000998
39 0.001993
58 0.001004
80 0.002991
98 0.001962
117 0.001044
125 0.001007
126 0.000975
122 0.002994
120 0.00202
127 0.000986
135 0.000956
148 0.000976
153 0.000943
157 0.0
160 0.001991
161 0.001987
161 0.002
162 0.0
159 0.001988
121 0.002026
54 0.002992
24 0.000998
41 0.000951
76 0.000984
92 0.00199
105 0.002047
116 0.001995
118 0.002957
116 0.002021
117 0.00102
123 0.001009
130 0.002995
141 0.002989
150 0.000997
153 0.001995
158 0.001994
160 0.001995
161 0.001995
161 0.001993
162 0.003014
142 0.001998
68 0.001994
14 0.002002
10 0.003032
28 0.002992
55 0.001995
67 0.000998
86 0.000991
96 0.001999
100 0.001986
101 0.002996
104 0.002041
115 0.001949
125 0.00202
135 0.002021
145 0.003024
151 0.003046
155 0.002994
159 0.00196
161 0.001995
161 0.000999
161 0.001984
148 0.002991
84 0.003027
15 0.001947
16 0.002016
36 0.001971
57 0.003006
72 0.002968
87 0.002009
98 0.001987
101 0.00302
101 0.002993
104 0.002949
113 0.00203
124 0.00398
134 0.004026
145 0.001984
152 0.003032
155 0.002992
157 0.00402
160 0.003989
162 0.001984
164 0.004027
152 0.002003
94 0.001999
36 0.002114
25 0.005
41 0.004986
72 0.00298
86 0.002998
98 0.003001
110 0.003989
114 0.003989
111 0.002979
113 0.004001
121 0.00203
132 0.001957
141 0.001991
149 0.003962
154 0.003989
159 0.001993
161 0.002994
162 0.002015
164 0.004986
165 0.005021
163 0.00296
165 0.005024
127 0.00298
53 0.002947
14 0.002956
17 0.004987
40 0.004988
66 0.002986
76 0.002982
87 0.003
97 0.003979
101 0.005018
103 0.005011
107 0.003989
120 0.003011
131 0.002971
140 0.002985
148 0.005023
154 0.005019
158 0.002995
161 0.002993
163 0.002994
164 0.005984
165 0.00498
166 0.005021
165 0.00501
129 0.003023
52 0.003146
13 0.003021
17 0.005017
38 0.004987
64 0.003989
75 0.002999
85 0.004026
95 0.005026
101 0.006003
103 0.005029
107 0.005986
119 0.002991
130 0.002961
140 0.002979
149 0.005004
153 0.004986
157 0.003991
160 0.003975
161 0.002974
162 0.005029
164 0.005033
164 0.005023
166 0.00602
160 0.003989
120 0.003983
54 0.003993
28 0.003988
39 0.006014
62 0.006013
86 0.004002
99 0.003975
110 0.003984
117 0.006014
115 0.004023
115 0.005965
119 0.006032
132 0.003995
141 0.00399
148 0.003949
152 0.006978
156 0.006982
159 0.004987
160 0.004953
162 0.005004
163 0.006015
163 0.004975
162 0.006015
145 0.00603
63 0.003947
32 0.005008
40 0.004974
62 0.006981
83 0.006979
100 0.003991
113 0.005038
122 0.005019
122 0.005984
121 0.004956
123 0.006987
130 0.006953
142 0.004996
148 0.004943
152 0.004943
156 0.006981
158 0.006981
159 0.004984
161 0.005986
161 0.005987
162 0.006988
162 0.004988
161 0.006982
141 0.007014
51 0.005018
19 0.00502
28 0.004961
51 0.00701
70 0.007019
84 0.004991
95 0.00599
105 0.004995
109 0.006981
111 0.005985
118 0.007978
126 0.007984
135 0.00497
143 0.006004
149 0.005985
152 0.007016
155 0.007022
157 0.005984
158 0.005049
158 0.005034
159 0.004987
159 0.005994
157 0.00797
119 0.007973
54 0.005981
27 0.005985
36 0.005984
59 0.007979
76 0.007978
93 0.005969
104 0.005971
111 0.005998
114 0.005992
113 0.005994
118 0.006004
125 0.007022
133 0.007973
144 0.006984
149 0.006023
150 0.005988
152 0.007975
156 0.00798
155 0.005998
156 0.00599
157 0.006945
159 0.006
144 0.005985
69 0.006961
37 0.006989
43 0.006973
63 0.006991
84 0.006952
104 0.007978
112 0.007979
123 0.005985
123 0.006017
121 0.006014
122 0.005974
129 0.005974
140 0.006992
145 0.007005
148 0.005999
151 0.006976
153 0.006951
154 0.007014
155 0.00702
157 0.006947
156 0.006976
156 0.006983
136 0.006983
69 0.006025
22 0.007981
25 0.006961
54 0.006975
65 0.00698
79 0.006952
91 0.007014
99 0.007015
103 0.006983
103 0.006967
109 0.006998
118 0.006978
132 0.006983
139 0.007016
144 0.006982
150 0.007018
153 0.006994
153 0.006977
153 0.007017
156 0.007021
156 0.006963
156 0.006975
98 0.006974
39 0.006971
20 0.006976
32 0.005985
54 0.00698
73 0.006985
82 0.006985
94 0.006979
101 0.007014
102 0.006981
100 0.006971
103 0.006978
118 0.006981
128 0.005985
136 0.005986
144 0.005985
148 0.005987
151 0.005986
152 0.006979
155 0.006971
156 0.007045
159 0.006992
128 0.006982
81 0.006974
17 0.006968
32 0.005983
53 0.005987
70 0.005993
82 0.005972
95 0.005993
104 0.005955
104 0.005984
104 0.005973
106 0.006021
114 0.005018
128 0.00602
142 0.006026
150 0.005972
154 0.005984
158 0.005981
160 0.006015
162 0.005988
163 0.005966
163 0.005978
162 0.005976
129 0.006017
53 0.005985
10 0.005946
25 0.004994
50 0.005984
63 0.005981
72 0.005996
84 0.005993
93 0.004986
96 0.00596
97 0.005022
102 0.006023
111 0.005018
123 0.005022
140 0.004995
148 0.005023
157 0.005036
160 0.005022
163 0.004988
164 0.004983
166 0.004971
167 0.005976
166 0.006018
143 0.006023
71 0.005981
17 0.006018
17 0.004993
35 0.005014
56 0.004985
65 0.00499
78 0.004992
90 0.004988
96 0.004982
95 0.004952
100 0.004986
107 0.005017
118 0.004982
129 0.004995
142 0.004933
149 0.004986
156 0.004986
160 0.004985
163 0.004955
167 0.004974
168 0.004985
168 0.004955
139 0.004987
68 0.004987
22 0.004023
20 0.004042
52 0.003988
69 0.003989
84 0.003832
97 0.004992
106 0.004985
109 0.003999
110 0.003974
116 0.004019
125 0.00502
134 0.004022
144 0.004026
153 0.004022
162 0.00398
165 0.003985
167 0.00398
169 0.003991
171 0.003994
173 0.003959
174 0.00399
170 0.004042
107 0.004982
38 0.004022
17 0.003991
28 0.003946
63 0.003988
74 0.003982
83 0.003998
101 0.003988
109 0.003987
111 0.003988
112 0.003985
116 0.00398
126 0.004029
139 0.004045
150 0.003038
159 0.004023
166 0.004012
169 0.003994
170 0.003994
172 0.003994
172 0.003992
172 0.003997
174 0.003991
160 0.003993
64 0.004047
17 0.002992
16 0.002992
32 0.002992
63 0.002992
73 0.003989
85 0.00399
104 0.002983
110 0.003975
112 0.003985
115 0.003991
119 0.002976
132 0.003048
143 0.002998
149 0.002993
159 0.002967
163 0.003007
166 0.002991
169 0.002991
172 0.002983
172 0.002985
173 0.00197
172 0.001962
150 0.002976
59 0.002992
22 0.002992
27 0.002025
63 0.002984
79 0.002992
92 0.003001
107 0.002981
118 0.003022
120 0.002992
121 0.00296
123 0.003005
129 0.00298
142 0.002989
151 0.002992
157 0.002992
164 0.002995
167 0.001992
170 0.002959
170 0.001962
172 0.002953
168 0.002962
127 0.002995
56 0.00299
27 0.002983
43 0.002993
68 0.002992
86 0.002003
109 0.001993
121 0.002001
129 0.001992
129 0.002021
131 0.001978
135 0.001959
142 0.002013
150 0.00296
157 0.002011
164 0.003028
168 0.002979
170 0.001995
171 0.001992
171 0.00198
171 0.001988
171 0.00196
147 0.001982
47 0.001993
13 0.001998
20 0.001945
43 0.001994
65 0.000996
81 0.001043
94 0.000997
113 0.000999
118 0.000991
119 0.001988
123 0.000998
130 0.001004
143 0.000988
152 0.002034
159 0.002038
164 0.001995
168 0.001995
170 0.001998
172 0.001996
172 0.002003
172 0.001015
172 0.000986
147 0.00099
71 0.000999
14 0.001002
22 0.001002
45 0.001002
67 0.000998
79 0.000998
96 0.000997
109 0.000997
121 0.001995
121 0.001993
125 0.002013
132 0.002
140 0.001007
152 0.000994
159 0.001002
163 0.001097
166 0.001994
168 0.000997
169 0.001994
169 0.002017
170 0.002023
169 0.000997
144 0.001962
75 0.0
32 0.001004
40 0.000966
66 0.000998
87 0.000998
101 0.001011
117 0.000998
130 0.0
132 0.000998
132 0.000969
135 0.001
141 0.001009
149 0.0
155 0.0
161 0.0
163 0.0
167 0.0
174 0.0
182 0.001009
187 0.00101
187 0.000992
144 0.000991
76 0.000974
44 0.0
50 0.0
70 0.0
90 0.0
101 0.0
112 0.0
123 0.0
126 0.0
127 0.0
130 0.0
135 0.0
146 0.0
150 0.0
154 0.0
157 0.0
160 0.0
161 0.0
161 0.0
163 0.0
162 0.0
162 0.000866
94 0.000996
29 0.0
12 0.001002
32 0.001
64 0.0
77 0.0
85 0.000966
104 0.002018
113 0.000992
118 0.0
119 0.0
124 0.0
136 0.0
144 0.0
151 0.002045
156 0.002007
159 0.0
161 0.0
163 0.0
163 0.002
162 0.001984
162 0.0
155 0.0
104 0.0
22 0.0
27 0.0
52 0.001999
75 0.002009
92 0.0
107 0.0
118 0.00088
124 0.001999
125 0.001995
125 0.001006
130 0.000977
137 0.000966
148 0.0
152 0.0
156 0.001993
159 0.002997
161 0.0
162 0.000951
163 0.0
160 0.002004
132 0.002009
68 0.000984
31 0.0
44 0.0
82 0.0
99 0.0
116 0.001987
128 0.002026
134 0.0
133 0.00095
130 0.001006
133 0.001979
140 0.001015
147 0.000997
152 0.0
156 0.0
160 0.0
162 0.0
161 0.001983
160 0.001992
161 0.0
138 0.0
66 0.0
18 0.0
17 0.002003
37 0.002988
67 0.0
81 0.001014
102 0.0
112 0.0
114 0.0
114 0.002007
115 0.001995
124 0.0
132 0.001991
141 0.001003
148 0.001985
154 0.001995
157 0.00199
159 0.001996
161 0.001009
162 0.001983
152 0.001989
92 0.00202
25 0.002027
6 0.0
24 0.000978
46 0.0
61 0.001999
73 0.002997
92 0.001991
101 0.002999
103 0.002006
105 0.002001
110 0.001997
120 0.003029
131 0.002958
143 0.001995
150 0.001992
154 0.002049
157 0.002005
160 0.003025
162 0.001031
164 0.003
152 0.000991
92 0.002019
27 0.000972
10 0.002988
22 0.003029
52 0.001983
68 0.001994
81 0.001979
94 0.003023
102 0.003002
102 0.000981
103 0.002963
110 0.001996
120 0.001954
133 0.000998
142 0.003988
148 0.004024
156 0.001983
159 0.001998
161 0.00099
163 0.002992
164 0.002992
165 0.001014
133 0.003989
39 0.001993
13 0.002002
21 0.002028
44 0.004008
64 0.003997
84 0.001948
98 0.001994
107 0.001978
107 0.004022
105 0.003989
108 0.002004
120 0.004021
135 0.002039
145 0.001999
151 0.001993
157 0.001998
162 0.002992
165 0.002992
167 0.001022
168 0.002989
169 0.001986
168 0.003989
140 0.004038
19 0.003986
0 0.004013
18 0.001988
39 0.002037
55 0.001994
67 0.005012
81 0.004991
93 0.001968
98 0.002049
98 0.002968
102 0.005011
111 0.004033
129 0.004021
141 0.00399
151 0.002703
158 0.002989
163 0.002011
166 0.003999
169 0.004984
170 0.002964
170 0.002944
168 0.002948
127 0.005022
48 0.004989
3 0.005016
18 0.005023
46 0.002032
59 0.001997
73 0.001983
88 0.004975
96 0.005022
99 0.001964
100 0.002984
105 0.001993
114 0.005023
126 0.004987
145 0.005018
152 0.004988
161 0.002957
165 0.001994
168 0.002959
170 0.003987
171 0.003996
173 0.00296
170 0.002994
127 0.002942
55 0.005012
22 0.00203
41 0.004989
64 0.004995
86 0.002008
102 0.00204
112 0.003023
116 0.004993
115 0.005999
114 0.002955
120 0.003003
130 0.00296
142 0.006035
157 0.00299
162 0.004987
167 0.005036
171 0.002956
173 0.002987
173 0.003031
174 0.005023
176 0.006017
167 0.001995
112 0.003985
38 0.003027
9 0.006022
31 0.003975
52 0.005985
68 0.006036
85 0.002927
98 0.002952
103 0.003984
105 0.003991
106 0.007015
110 0.004988
124 0.003971
136 0.004002
147 0.003935
161 0.003943
167 0.003977
170 0.006015
173 0.006019
176 0.004958
177 0.003991
177 0.004955
177 0.006056
173 0.006026
95 0.004047
32 0.004988
20 0.00496
57 0.004999
80 0.005007
95 0.00702
108 0.00699
121 0.004941
125 0.00406
123 0.004025
122 0.007024
124 0.007022
134 0.003972
142 0.004009
150 0.004994
160 0.004974
164 0.004003
166 0.006961
167 0.00695
169 0.004846
169 0.004993
170 0.004954
171 0.007015
166 0.007013
92 0.004939
30 0.004984
17 0.005034
50 0.004004
71 0.004023
85 0.007942
98 0.007941
111 0.004943
112 0.004934
110 0.004942
111 0.007061
116 0.006988
130 0.004953
140 0.004953
150 0.004952
159 0.004979
162 0.004976
164 0.006978
166 0.006983
168 0.004956
167 0.004956
170 0.006007
160 0.007976
74 0.007982
22 0.004986
19 0.004988
38 0.004944
74 0.004991
87 0.005986
101 0.007032
114 0.007979
114 0.004957
112 0.005993
115 0.005026
124 0.007978
135 0.007978
146 0.005984
154 0.005995
160 0.00598
166 0.00502
168 0.005019
170 0.007019
171 0.007025
172 0.007962
173 0.005985
173 0.004987
161 0.005985
65 0.007961
11 0.006982
6 0.006938
40 0.007016
58 0.006006
69 0.005983
82 0.005983
94 0.007978
101 0.007974
105 0.005942
107 0.004987
113 0.005949
124 0.007931
139 0.006937
148 0.006929
160 0.006981
164 0.00695
167 0.006928
169 0.005979
170 0.006975
172 0.007982
171 0.006985
171 0.006023
165 0.00599
83 0.00798
22 0.007972
17 0.006964
45 0.006976
67 0.006983
78 0.006019
91 0.005935
107 0.006018
110 0.006981
108 0.00698
110 0.006931
115 0.006017
128 0.007981
140 0.00695
152 0.006977
161 0.007018
164 0.006948
167 0.006946
168 0.006946
170 0.006981
172 0.006978
171 0.006973
144 0.005983
73 0.006973
30 0.006997
31 0.005966
62 0.005979
90 0.00699
109 0.006987
122 0.006992
127 0.006955
125 0.00698
122 0.006975
126 0.006981
132 0.006979
144 0.006958
152 0.005974
160 0.005954
164 0.005974
168 0.006023
168 0.005987
170 0.006016
170 0.005987
171 0.006018
167 0.005991
100 0.005965
31 0.005963
13 0.005945
25 0.007
49 0.006979
67 0.006983
87 0.006014
103 0.005978
106 0.005981
105 0.005983
107 0.005982
111 0.005971
122 0.005983
136 0.005984
146 0.005974
154 0.005981
161 0.005955
164 0.004977
169 0.005026
169 0.005989
171 0.005989
171 0.005979
173 0.005979
160 0.005989
91 0.005993
18 0.005984
18 0.005981
36 0.005019
55 0.005018
70 0.005021
87 0.005032
99 0.004972
104 0.004989
105 0.004966
108 0.005985
113 0.005965
121 0.005969
139 0.005985
148 0.005976
153 0.005979
158 0.004986
164 0.005021
167 0.005041
168 0.004984
171 0.004985
173 0.004969
171 0.004983
144 0.004989
75 0.005986
27 0.005999
35 0.005984
55 0.004969
77 0.004996
106 0.00499
119 0.005023
125 0.005002
122 0.004986
121 0.005026
124 0.004956
133 0.005985
142 0.004996
154 0.004957
157 0.004
163 0.004984
167 0.004995
169 0.005039
170 0.00502
170 0.004965
165 0.004956
123 0.003996
52 0.004984
23 0.004987
33 0.00402
61 0.004025
79 0.003989
94 0.003991
109 0.003991
125 0.004032
125 0.003959
123 0.004989
128 0.004983
137 0.004988
145 0.005021
153 0.00499
162 0.003958
166 0.003989
169 0.003995
172 0.003989
172 0.003991
171 0.004021
170 0.004024
159 0.003976
68 0.004022
17 0.003994
15 0.003971
35 0.004994
56 0.00396
70 0.003946
86 0.003956
99 0.003994
109 0.004011
114 0.004025
116 0.004024
122 0.003961
131 0.002961
143 0.004008
151 0.003996
157 0.003958
161 0.003951
164 0.004001
166 0.003961
167 0.003983
168 0.003035
169 0.002992
162 0.003033
109 0.002958
34 0.003028
9 0.002959
23 0.002994
45 0.002989
59 0.002987
70 0.004014
86 0.004008
95 0.003989
98 0.002993
100 0.004027
106 0.003023
115 0.003003
126 0.002994
139 0.00296
147 0.00299
153 0.002985
158 0.002984
161 0.002978
163 0.003739
166 0.002982
167 0.002994
116 0.002994
45 0.002992
17 0.002996
26 0.002992
58 0.00296
76 0.002985
91 0.002996
104 0.002984
114 0.002991
114 0.002987
114 0.002974
116 0.001976
131 0.002032
143 0.002993
152 0.002038
160 0.002993
165 0.002985
168 0.00301
170 0.002996
171 0.002997
172 0.003021
167 0.002991
117 0.002982
11 0.001995
8 0.001995
26 0.001989
50 0.00196
67 0.001998
81 0.001963
94 0.002022
102 0.001998
105 0.003016
106 0.002982
114 0.002999
123 0.002994
143 0.002
152 0.001988
159 0.001996
166 0.001998
169 0.002001
172 0.002001
173 0.001992
173 0.001999
172 0.002004
139 0.002002
55 0.002007
0 0.00199
8 0.002063
38 0.002042
54 0.00204
68 0.002033
84 0.001043
96 0.000996
105 0.000997
108 0.002042
112 0.001995
121 0.001994
133 0.001985
147 0.00198
160 0.001963
167 0.002
171 0.000997
173 0.001999
174 0.001995
176 0.000994
177 0.001002
165 0.001
101 0.001001
30 0.000998
11 0.000996
31 0.001992
63 0.001031
82 0.002007
95 0.001995
107 0.000995
112 0.002038
111 0.001009
113 0.000988
120 0.001003
132 0.001008
145 0.000999
155 0.001015
164 0.002
169 0.000997
173 0.001997
174 0.000998
174 0.00099
159 0.001996
92 0.001996
24 0.002001
24 0.0
47 0.000997
71 0.000998
89 0.000997
112 0.000997
123 0.000983
121 0.001044
119 0.0
123 0.001
132 0.000998
142 0.0
155 0.0
164 0.0
168 0.0
171 0.001
173 0.001003
176 0.00101
154 0.000997
49 0.000997
8 0.000998
10 0.000997
31 0.000996
54 0.0
77 0.0
91 0.0
104 0.0
109 0.0
110 0.0
113 0.0
123 0.0
138 0.000997
150 0.0
160 0.001027
166 0.0
170 0.0
174 0.0
177 0.0
176 0.0
146 0.0
62 0.0
64 0.0
69 0.0
83 0.000959
91 0.001995
98 0.00098
106 0.000966
113 0.000991
116 0.000998
117 0.001013
119 0.001989
125 0.000961
132 0.001
142 0.0
146 0.0
149 0.0
151 0.00201
153 0.001977
153 0.0
126 0.0
84 0.0
66 0.003036
68 0.001995
83 0.0
94 0.000997
107 0.0
115 0.001004
120 0.0
121 0.001029
121 0.002001
125 0.0
131 0.0
138 0.0
143 0.001993
148 0.001997
152 0.0
155 0.0
156 0.0
141 0.0
101 0.0
75 0.002025
75 0.001995
90 0.0
103 0.001
109 0.000991
122 0.001991
127 0.001988
127 0.0
127 0.0
130 0.0
135 0.0
141 0.0
146 0.001995
150 0.003002
153 0.0
155 0.0
149 0.0
116 0.002991
85 0.002029
81 0.0
92 0.0
114 0.0
124 0.0
131 0.0
134 0.001995
131 0.001995
129 0.0
132 0.0
139 0.0
147 0.00303
153 0.002988
160 0.0
164 0.001014
162 0.000994
119 0.0
65 0.0
47 0.002034
56 0.002024
74 0.00202
98 0.0
112 0.0
123 0.0
127 0.001981
126 0.002007
124 0.001013
130 0.001995
141 0.0
150 0.000968
156 0.001009
161 0.003005
164 0.003054
167 0.0
164 0.0
122 0.0
61 0.003025
36 0.001994
46 0.0
70 0.002033
88 0.001995
100 0.001983
112 0.001995
116 0.001963
117 0.002992
120 0.002005
126 0.002115
134 0.0
144 0.002993
153 0.002988
160 0.001974
165 0.002992
168 0.001995
170 0.001998
170 0.003003
159 0.003038
101 0.003013
41 0.002005
41 0.000969
57 0.000996
75 0.003026
88 0.002948
107 0.002993
116 0.003032
119 0.002045
119 0.002981
122 0.001976
129 0.003992
138 0.00403
149 0.001994
156 0.001991
161 0.002024
165 0.002968
167 0.00299
169 0.002983
161 0.002996
94 0.001999
55 0.001991
54 0.001981
71 0.003998
91 0.00402
110 0.00204
122 0.001949
130 0.002028
131 0.004067
128 0.003979
130 0.003022
137 0.00303
147 0.001994
155 0.001984
161 0.001989
164 0.003995
167 0.003958
169 0.002991
169 0.002979
170 0.002036
167 0.003938
130 0.003969
48 0.004033
46 0.004988
70 0.001998
90 0.002035
102 0.002004
113 0.002998
121 0.003958
125 0.00402
125 0.001992
126 0.002035
130 0.001995
139 0.003997
152 0.001994
158 0.004018
162 0.004022
165 0.000973
166 0.002033
167 0.002032
168 0.005005
169 0.005023
167 0.002961
147 0.003023
85 0.00198
44 0.004025
51 0.001993
70 0.004021
87 0.00502
100 0.002997
111 0.003008
119 0.002014
122 0.003955
123 0.003952
126 0.001986
133 0.002981
141 0.002047
149 0.004019
158 0.001994
161 0.004999
163 0.004939
165 0.002949
166 0.002992
166 0.002025
167 0.005018
167 0.005009
148 0.001995
90 0.003027
52 0.001994
51 0.003987
82 0.002993
98 0.005984
109 0.006004
122 0.002039
128 0.002978
128 0.002026
126 0.004977
127 0.005006
136 0.002048
144 0.00299
150 0.002037
155 0.005024
160 0.002992
161 0.006029
162 0.006029
162 0.003982
163 0.002987
163 0.002989
155 0.005986
110 0.006021
58 0.00294
58 0.003025
77 0.001977
106 0.002
120 0.002945
131 0.004987
135 0.005033
135 0.003005
132 0.002995
134 0.002963
138 0.006016
144 0.006032
151 0.003035
154 0.003985
157 0.003977
159 0.003977
161 0.003998
160 0.005981
160 0.006006
160 0.003995
143 0.003026
87 0.00404
46 0.003986
44 0.006023
60 0.006021
86 0.00399
99 0.00402
115 0.003984
121 0.003947
122 0.003993
123 0.005984
124 0.00598
130 0.003985
138 0.004958
145 0.005092
150 0.006984
155 0.006992
157 0.003993
158 0.004027
159 0.005007
159 0.004014
159 0.004
145 0.006024
90 0.007014
39 0.00399
42 0.004977
60 0.005024
79 0.006983
91 0.007017
106 0.005986
115 0.004013
120 0.004027
120 0.003993
122 0.003991
128 0.007034
136 0.007013
145 0.003983
150 0.004956
153 0.004998
156 0.007018
157 0.007018
158 0.004987
158 0.00495
158 0.004981
135 0.004988
80 0.004991
50 0.006987
53 0.006963
79 0.004956
97 0.004945
109 0.004988
124 0.007978
129 0.007978
128 0.004953
126 0.00497
129 0.004983
135 0.004982
142 0.004993
148 0.006982
152 0.006983
155 0.004991
157 0.004994
157 0.004988
158 0.007988
157 0.007972
138 0.004988
83 0.004956
48 0.004988
62 0.004989
82 0.004986
98 0.007005
115 0.007972
124 0.004984
127 0.005945
124 0.005943
123 0.007976
126 0.007979
133 0.005959
142 0.005987
150 0.005971
154 0.004986
155 0.004986
158 0.007972
158 0.006981
158 0.007016
158 0.004988
143 0.005936
85 0.005956
36 0.007981
40 0.007987
56 0.005952
83 0.007981
93 0.005004
103 0.005956
109 0.00595
111 0.007017
112 0.007015
115 0.005982
121 0.006004
131 0.006061
141 0.006979
148 0.00698
155 0.007993
157 0.006985
158 0.005991
159 0.005983
160 0.005984
149 0.006978
97 0.007017
37 0.006927
36 0.006981
44 0.006953
69 0.006984
81 0.006979
99 0.007019
106 0.006975
110 0.006033
109 0.005982
111 0.006005
118 0.00702
127 0.007013
136 0.006979
143 0.006978
151 0.005984
154 0.007006
156 0.007019
157 0.00703
160 0.006955
156 0.005976
117 0.006028
80 0.006977
45 0.006017
52 0.006017
78 0.006952
94 0.005979
104 0.006987
123 0.00702
130 0.00701
130 0.007006
132 0.006968
141 0.00698
154 0.006005
162 0.006968
169 0.006985
174 0.006041
177 0.005986
178 0.005978
178 0.005982
178 0.006951
182 0.006976
184 0.007013
156 0.007013
138 0.005989
143 0.005983
151 0.005984
156 0.005986
159 0.006008
163 0.006012
158 0.005985
148 0.006941
139 0.005973
136 0.005988
135 0.006027
136 0.00502
136 0.005982
136 0.005989
136 0.006016
137 0.005983
140 0.005867
141 0.005954
147 0.005978
156 0.005983
154 0.005993
118 0.004982
63 0.005016
68 0.006019
82 0.006015
96 0.004986
103 0.005016
113 0.004982
122 0.005017
128 0.004988
130 0.005005
133 0.005997
138 0.005968
144 0.005957
149 0.005943
149 0.006025
151 0.005991
151 0.004975
150 0.00497
150 0.004976
151 0.004979
151 0.00498
150 0.004986
151 0.004982
142 0.004976
97 0.005935
41 0.005974
48 0.006034
64 0.006021
80 0.005026
89 0.004974
100 0.004987
107 0.005029
110 0.004961
110 0.004984
113 0.004993
119 0.004947
129 0.005024
133 0.004987
136 0.004997
139 0.004026
140 0.004987
141 0.005027
143 0.005021
144 0.005019
145 0.004987
147 0.003979
140 0.004971
101 0.004985
52 0.005019
61 0.004984
78 0.003983
93 0.003985
108 0.00402
118 0.004025
122 0.004019
123 0.003956
122 0.004992
124 0.00498
127 0.004968
129 0.004974
133 0.004986
135 0.005003
135 0.004077
136 0.004024
139 0.004023
139 0.003986
140 0.004025
140 0.004024
141 0.003984
138 0.003938
117 0.003994
82 0.003993
78 0.00398
91 0.00399
102 0.004023
108 0.002995
118 0.004066
123 0.003984
126 0.00399
127 0.004001
128 0.003949
131 0.002965
136 0.003937
140 0.003985
143 0.00399
144 0.003989
145 0.002991
146 0.004024
147 0.00399
147 0.002995
148 0.002996
150 0.002991
148 0.002985
150 0.002958
146 0.003989
114 0.004036
55 0.003989
60 0.003958
76 0.004024
90 0.004022
99 0.003026
110 0.002992
118 0.002992
121 0.002992
122 0.003014
123 0.003019
128 0.002976
133 0.003956
139 0.004028
143 0.003989
146 0.003954
147 0.002951
147 0.002993
149 0.002992
150 0.002969
150 0.002986
150 0.002992
151 0.002985
148 0.00299
126 0.00299
68 0.003987
71 0.003028
86 0.00399
101 0.003004
111 0.002992
124 0.003033
130 0.002995
132 0.002992
132 0.002991
132 0.003002
136 0.002939
142 0.002995
148 0.003029
150 0.001995
152 0.002993
153 0.001963
154 0.001995
155 0.001996
154 0.002027
155 0.001995
155 0.002035
143 0.001938
74 0.002006
47 0.001994
67 0.002009
88 0.003015
104 0.003009
116 0.001996
127 0.002027
132 0.001988
133 0.001982
132 0.001995
135 0.002003
139 0.001991
145 0.001997
148 0.001975
152 0.001986
153 0.002031
154 0.002033
154 0.000998
156 0.001996
155 0.002028
155 0.001995
152 0.001982
117 0.001984
55 0.002023
32 0.001006
58 0.002025
76 0.001
92 0.002028
103 0.001992
114 0.002025
121 0.000998
123 0.000995
126 0.002028
130 0.001996
137 0.002009
142 0.002004
146 0.002027
150 0.002025
152 0.000987
152 0.001995
153 0.001951
155 0.002031
155 0.002027
154 0.001986
138 0.001015
81 0.001006
37 0.001005
36 0.002019
56 0.001977
86 0.000998
97 0.001995
111 0.002028
119 0.002039
120 0.001996
120 0.001996
122 0.001028
130 0.000998
137 0.000998
142 0.001009
146 0.001012
149 0.001035
152 0.001995
153 0.000997
154 0.002031
155 0.002046
153 0.001995
131 0.002026
74 0.0
46 0.000998
60 0.0
82 0.001007
101 0.001008
113 0.001017
131 0.000998
133 0.001001
132 0.000997
132 0.000997
135 0.000998
141 0.000997
147 0.0
149 0.0
152 0.0
155 0.0
155 0.0
155 0.0
155 0.0
155 0.000997
141 0.0
79 0.000997
32 0.0
30 0.0
50 0.0
77 0.0
91 0.0
101 0.0
112 0.0
118 0.0
118 0.0
120 0.0
130 0.0
137 0.0
144 0.0
149 0.0
152 0.0
153 0.0
155 0.0
157 0.0
156 0.0
158 0.000996
157 0.0
144 0.0
59 0.000973
24 0.001005
30 0.000995
59 0.0
77 0.0
88 0.0
100 0.003023
110 0.002995
116 0.0
117 0.0
124 0.0
132 0.0
139 0.0
146 0.002042
150 0.002027
154 0.0
155 0.0
156 0.00098
156 0.003026
157 0.001993
158 0.0
158 0.003036
154 0.0
120 0.0
60 0.0
37 0.002939
49 0.001998
78 0.000963
93 0.0
104 0.0
116 0.003053
124 0.002983
125 0.0
125 0.001965
130 0.0
138 0.0
144 0.0
149 0.001995
153 0.001992
163 0.0
171 0.0
174 0.0
179 0.003015
181 0.001996
182 0.001013
172 0.002026
135 0.0
118 0.0
124 0.0
134 0.002026
141 0.003026
147 0.0
151 0.0
155 0.0
158 0.002031
160 0.002
165 0.0
172 0.002027
177 0.000965
178 0.000968
176 0.0
180 0.001938
183 0.002029
186 0.001021
188 0.000983
190 0.0
192 0.003025
192 0.003034
191 0.000996
181 0.001987
167 0.0
167 0.0
170 0.001005
174 0.001989
177 0.002028
176 0.0
176 0.0
176 0.0
175 0.0
174 0.002007
173 0.003009
169 0.00203
168 0.00199
167 0.0
168 0.002032
168 0.0
167 0.002995
167 0.002994
165 0.0
165 0.0
164 0.0
162 0.001998
162 0.002029
136 0.002995
98 0.002025
87 0.0
99 0.001992
112 0.001035
119 0.003027
124 0.003038
130 0.00202
133 0.0
134 0.0
134 0.003006
137 0.003025
143 0.002041
145 0.002029
147 0.003022
147 0.000943
149 0.000999
148 0.002948
149 0.00297
151 0.002991
150 0.002037
151 0.001994
150 0.002978
143 0.003024
99 0.003054
91 0.003043
107 0.00203
117 0.002006
123 0.001995
129 0.002991
132 0.002991
133 0.002042
134 0.001991
136 0.001979
137 0.002994
140 0.00199
142 0.003012
142 0.003022
144 0.002039
144 0.001984
144 0.001995
144 0.002958
145 0.003022
144 0.001993
145 0.001995
142 0.001995
124 0.003959
69 0.002024
71 0.003989
86 0.003989
104 0.001995
111 0.001995
117 0.001994
123 0.003993
125 0.003026
127 0.002012
129 0.001995
131 0.001994
134 0.003988
138 0.002993
139 0.004022
140 0.004021
140 0.002991
141 0.003002
141 0.00299
141 0.001858
141 0.003989
141 0.004023
137 0.001989
108 0.001997
61 0.002992
54 0.001987
71 0.001996
87 0.003989
97 0.004046
107 0.00304
114 0.003006
117 0.002042
118 0.004022
119 0.005023
123 0.002994
126 0.00294
129 0.002987
133 0.002028
135 0.002011
136 0.003973
138 0.004988
142 0.001983
141 0.001995
140 0.001989
142 0.003989
139 0.003989
85 0.00199
34 0.002992
28 0.003036
65 0.002977
83 0.003001
97 0.004987
109 0.005021
117 0.001973
117 0.001942
119 0.002941
122 0.00497
125 0.004987
132 0.002025
136 0.002992
138 0.002992
142 0.003007
142 0.002959
143 0.004984
143 0.004934
145 0.002981
138 0.00202
94 0.00302
33 0.005023
17 0.00502
44 0.002996
68 0.003004
85 0.003004
107 0.002985
115 0.002989
117 0.005942
119 0.005985
121 0.002993
126 0.003456
132 0.002957
136 0.006018
138 0.005984
142 0.002998
143 0.00396
144 0.003947
146 0.003949
147 0.003017
148 0.005027
137 0.005022
49 0.003991
0 0.003993
0 0.003991
25 0.006018
49 0.005987
69 0.003026
82 0.002994
97 0.004003
108 0.002998
111 0.002994
116 0.005981
123 0.006016
132 0.002968
136 0.003989
139 0.00399
141 0.003988
142 0.006015
145 0.006017
145 0.003989
146 0.005988
146 0.00399
127 0.004001
56 0.003989
7 0.00598
11 0.005986
44 0.003986
66 0.003985
81 0.003988
95 0.006981
107 0.007038
113 0.004006
114 0.005989
120 0.002993
127 0.00298
134 0.003022
137 0.007017
141 0.007011
145 0.003972
148 0.003995
149 0.003954
150 0.00702
151 0.007014
141 0.003987
64 0.007021
21 0.00399
37 0.003989
62 0.003992
83 0.007026
102 0.007012
119 0.00402
124 0.004985
125 0.004986
125 0.007011
126 0.006981
135 0.00399
140 0.006981
145 0.003992
146 0.004008
148 0.005003
150 0.007977
149 0.00798
150 0.004986
152 0.004985
142 0.004986
85 0.007013
11 0.007015
63 0.004983
79 0.007984
92 0.004972
99 0.004962
106 0.004988
111 0.007981
115 0.007979
116 0.004992
118 0.004955
122 0.005015
128 0.007973
130 0.007985
132 0.004991
134 0.007015
134 0.005999
135 0.005996
135 0.005986
135 0.007971
135 0.007971
125 0.004971
87 0.005023
58 0.004994
59 0.007955
72 0.007982
86 0.003989
94 0.008032
104 0.004992
109 0.005932
111 0.00502
112 0.005987
117 0.006997
122 0.006981
126 0.005001
131 0.005985
134 0.005986
138 0.007979
140 0.007937
141 0.007978
142 0.007959
141 0.004992
137 0.005011
110 0.005991
62 0.006978
58 0.006966
70 0.005982
84 0.005986
94 0.005986
106 0.006976
115 0.006026
117 0.006966
114 0.007026
115 0.005987
120 0.005985
127 0.005984
134 0.007024
139 0.007017
142 0.00598
145 0.005958
146 0.005952
147 0.005991
147 0.006019
123 0.006973
60 0.006982
33 0.005984
41 0.005953
66 0.006986
81 0.00703
96 0.007021
110 0.006017
119 0.006971
120 0.005981
118 0.00718
122 0.006978
131 0.007015
139 0.006982
144 0.005983
148 0.005963
150 0.006001
153 0.005983
155 0.00602
154 0.006013
156 0.006986
151 0.006971
108 0.006983
28 0.006949
20 0.007019
36 0.006021
58 0.005981
70 0.005976
83 0.006001
95 0.004984
103 0.005984
104 0.005986
107 0.005983
113 0.004984
124 0.006015
139 0.005989
145 0.007025
149 0.006018
154 0.006012
156 0.006016
157 0.005947
158 0.006016
157 0.006015
155 0.006015
126 0.005986
56 0.005987
21 0.005989
35 0.004975
53 0.005978
67 0.00498
77 0.005021
94 0.005998
103 0.00601
106 0.006053
107 0.00602
111 0.006015
122 0.005975
132 0.005966
141 0.005983
149 0.005984
154 0.005976
157 0.005021
158 0.004988
161 0.004987
161 0.004993
155 0.004986
108 0.005019
49 0.005018
35 0.00403
51 0.004989
74 0.004997
98 0.004986
112 0.004987
123 0.004973
125 0.004986
124 0.005005
127 0.004984
133 0.005023
141 0.005029
149 0.005026
154 0.004987
158 0.004992
162 0.004984
163 0.003993
162 0.003993
161 0.004022
131 0.005029
47 0.00499
29 0.004987
41 0.004986
61 0.004987
78 0.004987
93 0.004983
107 0.00504
117 0.005022
120 0.004957
121 0.004985
126 0.00502
135 0.005021
148 0.003991
154 0.004019
157 0.004019
161 0.004021
162 0.003954
164 0.003991
164 0.004987
164 0.004982
124 0.005007
51 0.004062
19 0.004991
26 0.004024
50 0.004029
66 0.003989
77 0.003968
90 0.004034
104 0.004029
114 0.003953
115 0.00398
123 0.003948
131 0.003954
141 0.003959
150 0.00399
156 0.002993
161 0.002944
163 0.004043
163 0.002993
164 0.004043
164 0.004025
164 0.004025
151 0.00399
67 0.003936
26 0.003991
38 0.003957
58 0.003959
75 0.004027
87 0.002992
106 0.003021
116 0.002992
119 0.004026
120 0.004033
123 0.002992
131 0.003991
143 0.003991
153 0.004021
156 0.003032
159 0.002994
160 0.003989
162 0.003004
163 0.003002
163 0.003006
161 0.003028
130 0.002958
68 0.002998
44 0.004012
67 0.001993
95 0.003991
109 0.004036
122 0.002943
133 0.002993
136 0.002993
134 0.003025
136 0.002993
140 0.00194
147 0.002993
153 0.002993
158 0.002996
161 0.002992
163 0.002992
163 0.003032
163 0.002993
162 0.002012
161 0.002993
103 0.002045
48 0.002035
36 0.001039
53 0.001995
75 0.001996
96 0.001958
113 0.001991
127 0.001957
130 0.001942
130 0.003045
132 0.002992
137 0.001994
146 0.002992
152 0.001995
155 0.001995
157 0.002005
159 0.001018
162 0.002052
162 0.002032
162 0.002032
163 0.002049
150 0.001986
89 0.002028
36 0.003034
35 0.003032
55 0.002991
75 0.001995
88 0.001995
99 0.002001
115 0.001997
125 0.002027
127 0.00196
130 0.002025
136 0.001995
143 0.002003
149 0.001996
155 0.001991
156 0.001996
158 0.002028
159 0.002036
159 0.002028
160 0.001995
160 0.000998
158 0.000999
117 0.000997
57 0.001033
36 0.001035
50 0.001964
73 0.002027
95 0.002036
107 0.002044
119 0.001995
126 0.001987
128 0.001001
129 0.001987
132 0.001995
140 0.002033
145 0.001006
149 0.000997
153 0.001995
155 0.000995
156 0.001982
158 0.000998
158 0.001994
158 0.001997
130 0.002012
74 0.002009
50 0.001
66 0.000998
88 0.000997
105 0.001996
120 0.00203
132 0.002002
139 0.002028
139 0.002028
138 0.002027
139 0.002027
146 0.00101
150 0.0
153 0.0
154 0.000997
156 0.000998
157 0.000999
156 0.000998
156 0.000997
157 0.001031
140 0.0
80 0.000998
39 0.0
54 0.000999
77 0.0
94 0.0
109 0.0
121 0.0
128 0.0
129 0.000999
130 0.00097
133 0.000998
138 0.000998
143 0.000997
148 0.0
151 0.0
153 0.0
154 0.0
156 0.0
156 0.0
156 0.0
156 0.0
146 0.0
72 0.0
33 0.000998
36 0.000997
58 0.0
89 0.0
99 0.0
110 0.0
123 0.0
125 0.0
125 0.0
127 0.0
133 0.0
140 0.0
144 0.000998
148 0.0
149 0.0
151 0.0
152 0.000996
153 0.000992
153 0.001036
153 0.001994
151 0.002039
99 0.000949
47 0.000998
38 0.000949
55 0.003039
77 0.002989
97 0.000965
112 0.002986
124 0.000975
126 0.0
124 0.0
125 0.003028
129 0.003043
137 0.0
142 0.0
146 0.0
148 0.001981
149 0.002026
152 0.000964
152 0.002012
154 0.0
154 0.0
135 0.0
80 0.002026
46 0.002042
55 0.001003
78 0.0
98 0.001023
111 0.002025
123 0.003024
133 0.0
132 0.003024
131 0.000997
134 0.000952
139 0.0
144 0.003028
147 0.003025
150 0.000969
152 0.000959
152 0.000993
152 0.003024
153 0.003034
153 0.002981
153 0.002993
119 0.0
56 0.0
30 0.0
40 0.00299
61 0.002996
85 0.0
95 0.0
108 0.000982
116 0.003023
120 0.00204
121 0.002027
125 0.002027
133 0.000996
139 0.0
145 0.000967
147 0.002028
150 0.00299
152 0.0
153 0.0
153 0.0
154 0.002993
154 0.002992
135 0.003014
73 0.002962
26 0.0
36 0.0
58 0.000972
76 0.002993
88 0.002026
104 0.0
114 0.0
119 0.0
119 0.0
120 0.001995
129 0.000997
136 0.002021
141 0.002012
146 0.0
148 0.0
149 0.0
150 0.002992
152 0.002987
151 0.0
152 0.0
151 0.0
126 0.002992
43 0.0
40 0.002887
59 0.002948
86 0.0
99 0.0
111 0.0
122 0.002967
125 0.002997
123 0.0
124 0.0
127 0.0
133 0.002992
142 0.000984
146 0.002988
149 0.002988
150 0.001996
151 0.002994
152 0.002995
154 0.00399
144 0.003023
77 0.002998
47 0.002995
53 0.002998
74 0.002998
104 0.000949
118 0.002984
130 0.002994
133 0.002989
132 0.003007
131 0.002979
134 0.004021
138 0.004002
145 0.00298
148 0.002998
150 0.00299
152 0.003996
153 0.000954
154 0.00396
155 0.00396
149 0.002981
107 0.003006
45 0.001989
25 0.002993
37 0.003989
66 0.002989
80 0.001996
91 0.002007
104 0.00399
116 0.00299
116 0.004011
117 0.003951
123 0.003
132 0.002989
139 0.002994
145 0.003027
149 0.004
152 0.002023
153 0.002027
154 0.002991
155 0.002992
154 0.002982
126 0.003951
58 0.004015
22 0.003052
33 0.003008
52 0.001991
70 0.002997
82 0.005042
93 0.005017
107 0.002983
112 0.002995
112 0.002972
117 0.004062
124 0.003982
134 0.003951
141 0.00402
147 0.001996
150 0.00203
152 0.002026
153 0.004022
153 0.004022
155 0.002
154 0.001998
85 0.003976
39 0.000999
36 0.000988
54 0.004987
75 0.004976
93 0.002993
107 0.002993
118 0.002991
122 0.004987
119 0.005018
120 0.002989
124 0.002984
138 0.002993
146 0.002991
150 0.003022
154 0.005019
155 0.004986
157 0.001996
158 0.001981
158 0.002015
151 0.004987
105 0.004986
38 0.003006
35 0.002992
68 0.002993
85 0.003969
98 0.002013
112 0.005019
120 0.005021
121 0.002992
120 0.002025
122 0.001994
129 0.00497
138 0.005017
147 0.003003
152 0.002977
156 0.002997
159 0.002993
158 0.00303
159 0.006017
159 0.005987
160 0.003002
136 0.003956
66 0.002964
23 0.005042
23 0.005018
47 0.00299
66 0.002986
84 0.002978
97 0.004001
107 0.003008
109 0.005987
111 0.006018
116 0.003994
124 0.004009
135 0.00297
145 0.005979
151 0.006017
155 0.004001
158 0.00299
159 0.004007
160 0.003997
159 0.003013
159 0.005952
137 0.006036
49 0.002988
22 0.002978
30 0.003005
49 0.003028
67 0.007015
79 0.00601
95 0.004025
107 0.007017
110 0.00398
110 0.00399
115 0.003988
124 0.005984
134 0.005982
145 0.003005
150 0.003989
153 0.00399
155 0.005987
157 0.005984
157 0.003986
159 0.006984
144 0.003973
87 0.00402
45 0.003993
43 0.006981
61 0.007016
88 0.004012
103 0.003958
116 0.003991
127 0.006997
129 0.007013
123 0.00795
127 0.007014
137 0.003999
145 0.00499
152 0.004984
157 0.006988
159 0.006983
161 0.003991
161 0.003002
162 0.004009
162 0.006978
147 0.007012
46 0.007015
30 0.008001
48 0.004944
67 0.004976
82 0.004986
97 0.007979
113 0.00798
120 0.004981
119 0.004987
121 0.004987
126 0.006976
134 0.007012
146 0.007944
155 0.007956
158 0.004969
157 0.004989
157 0.004985
160 0.007978
160 0.007978
160 0.004992
154 0.005008
105 0.004972
23 0.007976
11 0.00798
31 0.007944
50 0.007979
67 0.004986
80 0.00502
95 0.004977
103 0.007981
106 0.007979
111 0.004982
120 0.004987
129 0.004985
142 0.007977
146 0.007978
150 0.00699
155 0.006981
157 0.005948
159 0.005992
162 0.005939
165 0.005937
160 0.006978
118 0.006978
54 0.005985
30 0.004923
40 0.004977
67 0.007977
85 0.005922
100 0.007987
113 0.007975
120 0.004986
123 0.005029
124 0.00599
130 0.006982
138 0.006981
147 0.00399
151 0.004991
155 0.004998
160 0.006988
162 0.005024
164 0.007978
164 0.007971
163 0.006965
157 0.005977
111 0.005976
47 0.006978
46 0.006977
65 0.005983
87 0.005994
101 0.005982
119 0.005982
133 0.005953
135 0.005974
133 0.006979
135 0.006951
139 0.006003
149 0.006979
154 0.006994
157 0.00698
159 0.005995
160 0.006017
160 0.005973
161 0.006978
162 0.005983
134 0.006977
70 0.005988
34 0.005948
47 0.005982
70 0.005987
87 0.005974
98 0.006962
111 0.005983
122 0.005988
128 0.006017
129 0.006983
132 0.005994
141 0.006996
147 0.006966
153 0.00603
155 0.00694
157 0.006021
159 0.006017
160 0.006018
161 0.005983
160 0.005992
160 0.00598
93 0.00604
37 0.005979
26 0.005972
41 0.00599
67 0.005978
76 0.006963
90 0.004933
104 0.005019
116 0.005021
121 0.004984
124 0.005984
128 0.005998
140 0.006015
147 0.006013
151 0.005967
154 0.006018
157 0.006015
159 0.005983
159 0.005981
159 0.004981
161 0.00498
161 0.005018
144 0.004988
82 0.004987
34 0.006003
48 0.006014
69 0.004989
86 0.00598
98 0.005983
115 0.004986
123 0.005979
127 0.004955
127 0.00502
128 0.004985
136 0.004987
144 0.004992
151 0.004981
153 0.004985
156 0.004984
157 0.004991
159 0.005004
159 0.004993
160 0.004982
160 0.00502
144 0.005017
87 0.005018
44 0.004981
53 0.004986
89 0.00499
104 0.004982
118 0.004987
130 0.004956
135 0.005017
135 0.003979
135 0.003955
138 0.003918
142 0.004026
148 0.00402
152 0.004994
155 0.003991
157 0.00498
157 0.003979
160 0.004979
160 0.005002
159 0.004974
159 0.003992
133 0.004021
67 0.003978
33 0.004043
41 0.003946
68 0.00395
87 0.003987
105 0.004974
117 0.004999
124 0.004995
126 0.005044
127 0.004994
132 0.005074
138 0.004988
144 0.004986
149 0.004043
