145 0.02596
145 0.005986
149 0.005948
155 0.004986
161 0.005984
166 0.004981
168 0.005153
173 0.00497
177 0.004985
157 0.004985
108 0.004981
75 0.005995
70 0.005954
84 0.005953
94 0.005984
98 0.006032
103 0.005985
105 0.005984
106 0.004893
106 0.005953
108 0.00599
113 0.006016
119 0.005983
126 0.005944
131 0.00598
136 0.005981
143 0.005928
147 0.00698
153 0.00695
157 0.005952
162 0.005984
165 0.006018
169 0.006016
173 0.005982
176 0.005984
164 0.005977
118 0.005984
87 0.005984
85 0.005983
103 0.005985
115 0.006982
119 0.006981
122 0.005973
121 0.005984
120 0.005985
121 0.006982
124 0.006982
131 0.005985
137 0.005983
143 0.006005
147 0.006952
153 0.005987
158 0.00698
162 0.006312
166 0.006017
168 0.006019
171 0.006018
174 0.006973
171 0.006804
122 0.005987
92 0.006973
85 0.006982
94 0.006981
108 0.006019
110 0.007016
112 0.006981
114 0.006016
114 0.006984
114 0.006981
114 0.006981
118 0.006968
122 0.007034
128 0.005971
132 0.005983
138 0.007978
142 0.006982
146 0.007978
149 0.007978
153 0.006981
155 0.006982
158 0.006978
157 0.007979
128 0.007951
81 0.006982
71 0.007012
79 0.006982
90 0.006981
96 0.006981
97 0.006981
100 0.00798
102 0.006979
101 0.006979
101 0.007012
104 0.007987
111 0.007947
116 0.007021
121 0.006984
126 0.007377
130 0.007978
136 0.006982
138 0.006982
141 0.007979
144 0.007976
148 0.007981
128 0.007975
76 0.007011
70 0.006983
79 0.006984
92 0.007018
94 0.007974
97 0.007978
101 0.007979
100 0.007978
100 0.007978
102 0.007979
108 0.006979
113 0.007006
118 0.007017
123 0.006981
127 0.006981
132 0.006978
135 0.00698
138 0.006981
141 0.007979
146 0.007965
148 0.007978
150 0.007979
147 0.006982
112 0.007941
87 0.006996
67 0.006979
73 0.006976
83 0.006981
86 0.006981
86 0.006981
90 0.006981
92 0.006977
92 0.007021
93 0.006967
97 0.007012
101 0.007033
106 0.007028
112 0.006986
116 0.006981
121 0.007978
125 0.006993
128 0.006019
134 0.007036
137 0.007031
140 0.007016
143 0.006981
148 0.007055
152 0.007023
155 0.007015
158 0.005986
159 0.006026
108 0.006008
64 0.00701
61 0.006982
74 0.007017
83 0.007006
83 0.007053
85 0.007002
87 0.006982
88 0.006982
89 0.006011
90 0.005984
93 0.005982
102 0.005983
108 0.005983
118 0.005982
125 0.006009
132 0.006507
137 0.006025
141 0.005959
147 0.005984
152 0.006047
156 0.005989
160 0.005984
164 0.006013
167 0.005985
130 0.005986
74 0.006018
66 0.005017
79 0.005983
89 0.006018
91 0.005962
92 0.005714
97 0.006139
97 0.005672
96 0.005984
97 0.005373
101 0.005337
110 0.006101
118 0.006017
126 0.006018
131 0.006018
135 0.005976
138 0.005923
142 0.004991
148 0.004988
152 0.004991
156 0.004986
160 0.005017
163 0.005992
169 0.005993
146 0.005974
81 0.005668
59 0.004579
61 0.005293
72 0.005565
78 0.006024
76 0.005984
78 0.005984
83 0.00502
87 0.00503
87 0.005019
88 0.004988
92 0.004994
100 0.004987
107 0.004242
113 0.005032
118 0.005063
123 0.005036
128 0.004984
132 0.004941
136 0.004991
140 0.005227
143 0.004529
150 0.005443
158 0.004389
162 0.004987
166 0.004963
168 0.004989
136 0.004988
86 0.004989
59 0.004988
66 0.005029
79 0.005037
84 0.004749
83 0.004034
83 0.004055
89 0.003989
88 0.00399
87 0.004021
91 0.003991
96 0.004023
103 0.003991
112 0.00399
117 0.00399
122 0.003991
127 0.005031
132 0.005022
136 0.003989
142 0.004644
146 0.005224
151 0.004987
155 0.004987
157 0.003991
128 0.00447
73 0.004033
59 0.004982
65 0.003991
76 0.005041
82 0.003974
83 0.003991
87 0.00399
88 0.003991
88 0.00399
90 0.00399
93 0.004059
100 0.00399
107 0.002992
115 0.002992
121 0.003039
126 0.002987
130 0.004022
137 0.002992
140 0.003957
144 0.003991
147 0.002993
150 0.002992
153 0.003991
158 0.00399
161 0.00399
117 0.00399
73 0.00399
52 0.003989
57 0.004333
69 0.002988
67 0.003957
64 0.003992
68 0.003953
73 0.003991
75 0.003991
74 0.002993
76 0.002999
83 0.002993
90 0.002992
97 0.003989
104 0.002992
113 0.002991
117 0.002987
122 0.002992
127 0.004037
131 0.004027
136 0.004036
140 0.002992
145 0.003991
150 0.00399
155 0.00406
143 0.002992
99 0.002992
55 0.003958
61 0.002994
73 0.002959
79 0.004021
78 0.002992
80 0.002992
83 0.002993
86 0.002993
86 0.002999
87 0.002006
93 0.001995
99 0.001995
109 0.002983
114 0.002993
119 0.002993
125 0.001995
129 0.001993
132 0.001995
135 0.002986
137 0.002028
142 0.002992
121 0.002991
80 0.001994
59 0.001995
67 0.001989
73 0.002033
74 0.002992
75 0.001994
80 0.001996
83 0.001998
85 0.001995
87 0.001995
89 0.001996
94 0.001959
101 0.001995
106 0.002992
114 0.003028
119 0.002951
123 0.001995
128 0.001995
131 0.001995
136 0.001994
140 0.001995
143 0.002038
148 0.001995
152 0.001995
153 0.001994
124 0.001996
64 0.001963
60 0.002018
70 0.002026
76 0.001994
73 0.00203
72 0.001996
77 0.001996
81 0.001996
82 0.001997
82 0.001946
84 0.000997
87 0.001994
97 0.001956
102 0.001971
106 0.001995
111 0.00196
115 0.000997
118 0.001994
122 0.001996
125 0.000953
129 0.000966
135 0.000958
138 0.001002
143 0.001008
147 0.001995
152 0.001996
128 0.001997
85 0.001995
62 0.001
71 0.000987
82 0.000998
85 0.000998
83 0.000998
86 0.000998
91 0.000997
92 0.000995
93 0.000998
96 0.000998
91 0.000998
99 0.0
109 0.0
115 0.0
120 0.000998
125 0.000994
131 0.000968
136 0.001011
140 0.000998
148 0.001996
152 0.000993
156 0.0
161 0.0
161 0.0
101 0.000998
57 0.000998
47 0.000995
55 0.000985
62 0.000998
62 0.000998
60 0.000998
70 0.000998
74 0.000994
74 0.000995
74 0.0
78 0.0
85 0.0
93 0.0
100 0.0
106 0.0
110 0.0
115 0.000993
119 0.001016
125 0.000997
128 0.000997
133 0.0
137 0.0
142 0.0
148 0.0
152 0.0
156 0.0
157 0.000997
160 0.0
166 0.0
134 0.0
49 0.0
40 0.0
54 0.0
68 0.0
70 0.0
66 0.0
69 0.000992
74 0.0
76 0.0
75 0.0
75 0.0
82 0.0
92 0.0
101 0.001003
107 0.001013
113 0.0
117 0.0
121 0.0
124 0.000998
128 0.000998
133 0.0
139 0.0
142 0.0
149 0.000997
146 0.0
81 0.000994
48 0.0
51 0.0
67 0.0
73 0.000998
75 0.000998
76 0.0
82 0.0
83 0.0
82 0.000998
81 0.00101
90 0.0
98 0.000997
105 0.000993
110 0.0
118 0.001032
121 0.000999
124 0.001014
129 0.001034
132 0.001032
135 0.001031
139 0.001015
144 0.000998
149 0.000963
112 0.000989
60 0.000972
36 0.000962
44 0.000998
51 0.001033
52 0.001995
49 0.000998
50 0.000998
56 0.000997
59 0.000993
60 0.0
61 0.0
66 0.000981
73 0.001
82 0.0
87 0.001008
93 0.000965
97 0.002026
101 0.001995
105 0.00103
110 0.001049
114 0.001034
120 0.001003
125 0.001003
129 0.001987
110 0.001958
45 0.000987
20 0.000974
26 0.000963
41 0.002
47 0.001995
43 0.000996
45 0.00105
51 0.001983
58 0.000963
57 0.001013
60 0.000998
65 0.002027
74 0.002
84 0.001993
90 0.000998
96 0.002001
100 0.002994
105 0.002013
112 0.002028
115 0.002025
124 0.001029
130 0.002002
139 0.001016
129 0.002987
82 0.002962
44 0.002001
45 0.002038
65 0.00103
72 0.001995
72 0.002026
74 0.001991
78 0.002025
85 0.002018
85 0.000982
88 0.000998
95 0.002031
103 0.002031
114 0.002035
120 0.002013
126 0.002049
131 0.002021
134 0.003024
138 0.001999
142 0.001991
147 0.001994
153 0.001995
157 0.000997
133 0.001994
86 0.002987
60 0.003025
65 0.00199
76 0.002025
76 0.002992
72 0.003038
76 0.002029
85 0.002025
87 0.002001
86 0.001975
87 0.002081
93 0.003988
101 0.003955
108 0.002991
114 0.001994
116 0.003021
123 0.003042
125 0.003028
130 0.002024
135 0.002999
139 0.003028
144 0.003
147 0.002981
151 0.003989
155 0.003018
159 0.001996
161 0.003013
164 0.001976
165 0.003994
129 0.003988
66 0.002992
54 0.002993
72 0.002991
80 0.002992
77 0.002987
74 0.003988
78 0.004046
86 0.003029
88 0.003025
86 0.002993
87 0.004022
94 0.00403
100 0.004036
111 0.003994
118 0.003006
122 0.003016
126 0.002982
131 0.002994
136 0.004022
139 0.004029
145 0.002993
151 0.003023
154 0.003024
158 0.005035
163 0.005022
171 0.004022
159 0.004988
98 0.002983
79 0.00398
75 0.003973
94 0.004023
104 0.003989
102 0.004044
102 0.003989
108 0.003989
113 0.003991
110 0.003989
111 0.003992
116 0.00502
125 0.003985
131 0.002982
134 0.004027
138 0.004987
142 0.004981
145 0.003991
148 0.004
149 0.004028
154 0.004987
157 0.004926
161 0.004018
166 0.004978
169 0.003971
171 0.004022
174 0.003992
176 0.005022
148 0.004987
85 0.004022
68 0.005041
77 0.00402
89 0.00498
93 0.004986
85 0.005067
88 0.005958
93 0.003947
93 0.00399
92 0.003994
93 0.004987
95 0.004986
101 0.003994
107 0.004992
110 0.005018
112 0.006021
116 0.005984
120 0.005025
122 0.005008
124 0.003986
128 0.003975
133 0.003966
136 0.004974
140 0.004987
144 0.005985
149 0.004936
150 0.004981
154 0.004986
159 0.004988
115 0.005092
72 0.005073
57 0.002984
70 0.004026
84 0.003998
89 0.006024
83 0.006028
86 0.005016
89 0.005021
90 0.005032
90 0.00602
91 0.006021
100 0.006028
106 0.006008
112 0.005988
119 0.003989
122 0.004987
126 0.004987
130 0.006982
132 0.007015
136 0.005009
139 0.005014
142 0.004994
147 0.005979
136 0.004998
92 0.005824
59 0.00599
58 0.00502
67 0.005999
72 0.005981
71 0.005983
70 0.005922
74 0.00499
79 0.005026
78 0.005985
76 0.007015
81 0.006011
87 0.007016
92 0.006165
99 0.005984
102 0.005012
105 0.006027
109 0.006017
110 0.006986
113 0.006024
117 0.005955
120 0.005986
127 0.005984
131 0.005983
135 0.006981
138 0.006985
140 0.00698
143 0.006025
134 0.005954
87 0.006982
44 0.006982
35 0.006017
47 0.006019
53 0.005984
45 0.006032
44 0.006017
49 0.006981
53 0.007019
51 0.006998
52 0.007016
55 0.007017
60 0.007979
66 0.007978
74 0.006014
79 0.00598
83 0.006021
89 0.00587
92 0.005948
98 0.007015
103 0.007245
110 0.005716
115 0.006015
119 0.007012
124 0.007978
130 0.007936
134 0.00698
108 0.006982
63 0.006981
37 0.006985
49 0.007012
56 0.007969
53 0.007983
52 0.006643
57 0.006195
63 0.007013
60 0.00796
60 0.007978
63 0.007015
67 0.007979
77 0.007015
87 0.006988
89 0.00698
88 0.007941
95 0.007988
96 0.007974
101 0.006008
113 0.007014
118 0.006981
125 0.007979
136 0.007986
145 0.004967
152 0.006923
161 0.007014
167 0.007022
171 0.007014
166 0.007975
121 0.007988
73 0.006968
69 0.006986
77 0.006981
80 0.006982
76 0.006982
68 0.007014
71 0.006979
82 0.006988
82 0.006981
82 0.006977
84 0.006981
89 0.006999
99 0.00697
104 0.007979
109 0.007014
116 0.007026
121 0.00796
126 0.006979
131 0.006985
139 0.006975
145 0.007982
151 0.006983
156 0.006985
163 0.006978
162 0.006956
122 0.006981
84 0.006984
72 0.006981
80 0.007017
89 0.007056
87 0.00602
88 0.006981
94 0.00698
98 0.007377
99 0.00698
100 0.006981
105 0.006982
112 0.006981
120 0.006969
126 0.006753
131 0.006354
137 0.006761
142 0.00599
150 0.005986
154 0.006983
160 0.006994
165 0.005981
171 0.005992
176 0.005987
180 0.00602
184 0.006024
187 0.00602
190 0.00602
188 0.006015
130 0.005983
87 0.006992
86 0.006997
94 0.007007
94 0.00597
86 0.005975
82 0.005984
91 0.006017
97 0.006019
98 0.006022
97 0.006019
100 0.005984
108 0.006078
117 0.005983
123 0.005983
129 0.004987
134 0.005985
137 0.005983
140 0.004759
147 0.005401
152 0.006345
157 0.006308
163 0.005123
169 0.004948
178 0.004987
182 0.005977
187 0.005968
192 0.006011
195 0.006007
195 0.004987
162 0.004987
107 0.004968
98 0.004987
106 0.006034
112 0.005022
110 0.005021
103 0.005018
108 0.005017
116 0.004986
115 0.004986
115 0.005019
118 0.00502
124 0.004983
130 0.004987
135 0.004894
139 0.00502
142 0.005615
147 0.003989
149 0.004987
154 0.004986
160 0.004987
163 0.004993
168 0.004982
171 0.004987
175 0.004982
180 0.005027
184 0.004987
186 0.004026
189 0.004263
191 0.00399
189 0.003988
147 0.00399
95 0.004022
86 0.004023
94 0.00399
101 0.003999
96 0.003958
86 0.004022
89 0.005023
95 0.004045
98 0.003991
97 0.005007
97 0.00397
102 0.003992
109 0.004989
115 0.003989
120 0.003989
124 0.003989
126 0.003989
133 0.004258
136 0.003989
140 0.00399
145 0.00399
150 0.00399
158 0.003949
162 0.004273
167 0.004261
173 0.003989
175 0.004998
148 0.003971
102 0.003988
77 0.00399
85 0.003014
96 0.00399
98 0.004041
94 0.00399
99 0.00399
104 0.003959
105 0.003998
104 0.003991
108 0.002985
112 0.003984
119 0.003958
127 0.002992
136 0.003025
140 0.002991
144 0.002992
150 0.002994
152 0.00399
156 0.00401
162 0.003991
166 0.004013
139 0.004007
96 0.003986
74 0.002994
77 0.002991
86 0.002992
86 0.003054
80 0.00299
84 0.002995
92 0.004012
95 0.003987
94 0.003973
96 0.004151
101 0.003998
108 0.004014
115 0.003005
120 0.002991
129 0.002992
134 0.002993
137 0.003027
143 0.002971
146 0.003033
150 0.002994
155 0.002989
160 0.002962
165 0.003008
169 0.003956
143 0.003004
97 0.002037
70 0.001952
78 0.00205
86 0.002954
79 0.00199
76 0.002992
82 0.001996
91 0.001995
94 0.001994
94 0.001994
96 0.002992
100 0.002991
107 0.002993
117 0.002992
122 0.00203
126 0.002036
138 0.002002
142 0.001988
147 0.002005
154 0.001999
162 0.002951
169 0.002996
174 0.003002
179 0.002982
185 0.001995
184 0.001995
140 0.001995
90 0.002028
81 0.001995
97 0.001991
102 0.001961
96 0.001963
96 0.001977
104 0.001977
109 0.001962
111 0.000966
112 0.002022
114 0.001995
122 0.001995
132 0.001982
143 0.001995
147 0.001994
151 0.001995
155 0.001961
159 0.001996
164 0.002011
169 0.000997
174 0.000965
178 0.001959
184 0.001968
190 0.001991
193 0.001996
199 0.001995
200 0.001997
201 0.001997
207 0.002031
203 0.001945
132 0.001965
84 0.002001
74 0.002015
85 0.001998
92 0.000998
86 0.000998
75 0.000997
83 0.001023
90 0.000994
92 0.000995
89 0.00101
90 0.001013
97 0.002019
105 0.00197
110 0.000994
116 0.001002
122 0.000999
128 0.000999
133 0.000999
138 0.000998
143 0.000999
149 0.001995
154 0.000969
159 0.00099
166 0.000996
170 0.000958
174 0.000996
178 0.000997
181 0.000995
186 0.000994
189 0.000998
129 0.001003
80 0.000987
68 0.001012
81 0.00101
93 0.0
92 0.001041
84 0.000997
86 0.000994
94 0.000997
98 0.000998
94 0.000998
97 0.0
104 0.001013
112 0.0
118 0.0
122 0.000998
126 0.000987
132 0.000998
134 0.000993
138 0.0
143 0.000998
147 0.0
152 0.0
157 0.0
164 0.0
167 0.0
169 0.0
173 0.000993
177 0.001007
168 0.0
118 0.0
67 0.0
48 0.0
57 0.0
70 0.0
62 0.0
52 0.0
58 0.0
64 0.0
66 0.0
65 0.0
65 0.0
70 0.000998
77 0.0
82 0.0
90 0.0
94 0.0
97 0.0
101 0.0
103 0.001
106 0.0
111 0.0
115 0.0
119 0.0
126 0.000998
130 0.000998
135 0.0
138 0.0
143 0.0
126 0.0
69 0.0
31 0.000998
27 0.000992
43 0.0
50 0.000997
46 0.001001
38 0.00101
42 0.000989
54 0.0
54 0.0
51 0.0
59 0.0
65 0.0
72 0.001008
82 0.001
89 0.0
94 0.0
98 0.000964
101 0.000996
104 0.000987
113 0.0
118 0.0
122 0.0
131 0.0
136 0.0
140 0.000996
105 0.000999
39 0.0
26 0.000963
36 0.0
45 0.00099
42 0.000979
32 0.000998
36 0.000967
46 0.0
52 0.0
51 0.000973
53 0.001045
58 0.002023
68 0.000997
74 0.000987
79 0.000999
85 0.001958
90 0.001995
96 0.000997
100 0.000998
106 0.0
113 0.001006
118 0.001002
122 0.000989
125 0.002005
132 0.001006
136 0.00099
139 0.000996
142 0.001993
148 0.001986
135 0.001
81 0.000999
27 0.000997
36 0.000997
48 0.000997
46 0.001991
38 0.002004
35 0.001
44 0.000986
53 0.001962
55 0.001995
54 0.001996
58 0.000997
66 0.001016
75 0.001993
85 0.001
90 0.000963
95 0.000951
101 0.001995
105 0.002032
110 0.002005
117 0.001
122 0.001
127 0.001994
132 0.001988
139 0.001041
143 0.001998
149 0.002026
155 0.001999
154 0.001952
117 0.001992
67 0.002027
45 0.000964
58 0.000959
70 0.000997
67 0.002992
59 0.002992
63 0.001994
75 0.002992
74 0.001995
73 0.001994
77 0.001994
84 0.002993
91 0.002992
99 0.001992
105 0.00099
108 0.000987
112 0.003004
117 0.002988
122 0.001996
128 0.002995
134 0.001995
140 0.002988
144 0.002029
146 0.003051
150 0.002981
155 0.001999
156 0.001978
160 0.000969
162 0.002981
164 0.002989
109 0.001989
47 0.003198
42 0.000998
56 0.002014
59 0.001978
52 0.00394
42 0.002991
48 0.000998
56 0.001994
60 0.001994
59 0.003024
58 0.002995
65 0.003041
74 0.004001
84 0.001992
89 0.002
92 0.002966
96 0.00402
103 0.003992
107 0.003025
112 0.001992
119 0.002565
124 0.004039
128 0.004043
138 0.001989
144 0.004022
150 0.001995
152 0.001995
158 0.002995
163 0.003995
162 0.003988
98 0.001995
54 0.003023
46 0.003002
59 0.003984
70 0.004006
62 0.004021
57 0.004021
64 0.003991
69 0.001995
69 0.002993
71 0.00399
73 0.003988
79 0.004021
89 0.00299
96 0.002995
100 0.002995
105 0.005022
113 0.004022
117 0.004998
120 0.005012
127 0.00399
135 0.002992
139 0.004024
144 0.004986
148 0.005025
156 0.004023
158 0.004024
161 0.004039
165 0.004987
171 0.003987
136 0.005004
80 0.005
45 0.003967
53 0.003024
64 0.003983
65 0.004995
57 0.004986
51 0.00399
59 0.004021
66 0.003985
69 0.005018
70 0.002992
73 0.004986
78 0.004991
89 0.002991
95 0.002998
98 0.00402
103 0.005022
108 0.004024
113 0.002977
118 0.002995
124 0.004022
129 0.004987
138 0.004028
143 0.005022
149 0.004981
158 0.00399
162 0.003987
167 0.003989
172 0.005974
179 0.005021
149 0.003994
95 0.00399
67 0.00399
71 0.005015
97 0.00399
96 0.005022
90 0.004987
92 0.004029
100 0.003987
104 0.005002
105 0.006016
105 0.006018
112 0.004027
119 0.003989
127 0.003989
133 0.005988
139 0.003988
143 0.003942
147 0.005961
152 0.003065
155 0.005033
160 0.002996
164 0.005967
167 0.006011
174 0.003989
176 0.004989
178 0.004994
182 0.006017
187 0.00395
184 0.005983
144 0.006016
81 0.003987
73 0.004004
86 0.004964
97 0.005085
92 0.007022
83 0.006772
83 0.004989
93 0.004986
98 0.005383
98 0.005017
99 0.004987
102 0.006759
106 0.006988
115 0.005986
118 0.003991
121 0.004987
125 0.005985
128 0.005984
130 0.004987
133 0.004982
137 0.00498
142 0.005033
145 0.004967
148 0.006016
151 0.006041
156 0.004985
157 0.005995
160 0.00497
163 0.006983
166 0.007016
150 0.005972
96 0.00591
52 0.006026
64 0.00497
77 0.005957
80 0.006016
73 0.007017
67 0.005053
77 0.006039
84 0.005982
84 0.007006
83 0.008046
86 0.006125
91 0.005556
103 0.006032
107 0.006019
111 0.005807
114 0.006985
120 0.006981
122 0.006981
126 0.005984
131 0.005983
134 0.007979
137 0.008026
144 0.005959
149 0.00595
148 0.007006
105 0.007022
59 0.005984
46 0.007981
59 0.007958
68 0.005979
66 0.005989
59 0.005984
57 0.006983
65 0.007015
71 0.006986
68 0.006981
70 0.006981
76 0.007327
85 0.006657
90 0.007865
96 0.007978
100 0.006983
103 0.006861
105 0.006939
108 0.007983
114 0.007978
117 0.007021
122 0.007031
129 0.0075
132 0.006982
136 0.006983
139 0.006981
139 0.007978
140 0.007976
144 0.006018
118 0.006008
47 0.006958
22 0.006977
29 0.006985
42 0.006973
37 0.007012
25 0.006977
27 0.006981
36 0.006967
43 0.007997
42 0.007927
40 0.00698
45 0.006981
54 0.006981
59 0.006986
67 0.007011
72 0.006982
77 0.007975
83 0.006985
91 0.00698
96 0.006983
100 0.006988
105 0.007027
113 0.006977
117 0.006982
120 0.006957
128 0.007006
133 0.007022
136 0.006977
145 0.006982
145 0.006977
119 0.006981
53 0.007013
38 0.007295
48 0.006982
65 0.006978
66 0.006985
59 0.007015
56 0.007012
63 0.007007
70 0.006982
70 0.006021
74 0.006039
81 0.006482
87 0.006982
95 0.006982
100 0.006975
106 0.006965
111 0.006981
115 0.006464
121 0.006653
125 0.006961
135 0.00698
139 0.007049
146 0.006983
151 0.006971
155 0.005967
160 0.005979
164 0.006983
168 0.006027
170 0.005984
175 0.005984
173 0.005983
133 0.005986
61 0.007046
61 0.005985
74 0.005976
76 0.005989
68 0.00599
63 0.005986
67 0.005984
77 0.00598
82 0.005983
79 0.005991
80 0.005999
84 0.005988
96 0.005025
104 0.005041
111 0.004997
112 0.00598
114 0.005963
117 0.005984
120 0.006013
122 0.006017
129 0.004986
133 0.004986
138 0.004986
143 0.005984
150 0.00601
155 0.00521
158 0.005014
162 0.005972
167 0.005981
170 0.004991
173 0.005984
140 0.005984
76 0.005981
59 0.005985
73 0.004988
89 0.004987
88 0.006022
79 0.00502
83 0.004991
95 0.004952
97 0.005018
96 0.004596
100 0.003988
104 0.004986
112 0.004174
121 0.003989
127 0.004984
133 0.004981
139 0.005036
141 0.00502
142 0.004988
149 0.004987
152 0.004991
155 0.004991
159 0.005031
165 0.004986
169 0.004987
172 0.00499
176 0.00499
180 0.004988
143 0.005024
89 0.005024
66 0.004955
77 0.004986
85 0.00399
86 0.00199
79 0.00399
75 0.003999
85 0.003987
94 0.004032
96 0.00399
95 0.004988
101 0.004992
108 0.005019
115 0.004985
122 0.003993
130 0.003998
139 0.003964
145 0.00395
153 0.004957
160 0.004993
164 0.004985
170 0.005014
175 0.003988
184 0.00403
189 0.004021
195 0.00396
198 0.003985
201 0.003955
205 0.002986
207 0.003994
209 0.003995
168 0.002983
110 0.00399
81 0.003991
85 0.003954
103 0.00399
100 0.003989
89 0.003991
86 0.002993
93 0.003947
97 0.004888
95 0.002993
94 0.002959
97 0.004561
104 0.004195
112 0.00299
121 0.003989
126 0.003958
128 0.004651
132 0.002993
135 0.003023
141 0.002992
146 0.002993
151 0.002992
155 0.003988
161 0.003954
166 0.003949
171 0.003979
111 0.003961
65 0.003997
55 0.003021
67 0.00298
80 0.002991
78 0.002993
73 0.003002
78 0.002991
86 0.002997
87 0.00299
87 0.002991
92 0.002991
105 0.002995
114 0.002992
123 0.002992
132 0.003999
140 0.002003
145 0.00299
150 0.001949
155 0.003027
160 0.002992
165 0.002993
174 0.002623
180 0.001998
188 0.002992
191 0.002992
169 0.003028
111 0.002992
71 0.002982
67 0.002993
76 0.002998
73 0.003026
66 0.002993
58 0.002001
67 0.002004
76 0.001981
81 0.002029
83 0.001995
87 0.002026
97 0.001999
105 0.002024
116 0.002988
123 0.002944
131 0.001994
135 0.000997
140 0.001996
146 0.001999
151 0.001994
162 0.002994
168 0.00203
175 0.001999
178 0.00203
182 0.002993
187 0.001995
191 0.001978
192 0.002002
195 0.001994
198 0.001983
202 0.001986
204 0.001993
120 0.001996
76 0.002008
67 0.001995
81 0.002003
92 0.000996
87 0.000975
76 0.000959
79 0.001964
88 0.002023
95 0.000991
95 0.001993
98 0.001993
104 0.001
116 0.002034
125 0.002025
129 0.001996
135 0.001995
142 0.001993
146 0.002
151 0.002046
156 0.002003
161 0.000999
166 0.000997
174 0.002022
182 0.002007
144 0.000997
91 0.000998
67 0.000998
74 0.001992
88 0.000999
90 0.001964
84 0.001997
86 0.000991
93 0.000993
97 0.000961
94 0.000988
96 0.001012
105 0.000998
114 0.000997
123 0.001002
129 0.000997
136 0.000997
143 0.000998
146 0.001001
149 0.001015
153 0.001018
159 0.000995
168 0.000997
176 0.000997
147 0.000998
91 0.000999
60 0.0
59 0.0
71 0.0
71 0.0
63 0.0
60 0.0
67 0.001027
76 0.001017
78 0.000998
78 0.000997
85 0.000997
93 0.000997
101 0.000999
108 0.0
114 0.0
120 0.0
123 0.0
128 0.0
132 0.0
138 0.0
147 0.0
153 0.0
159 0.0
164 0.0
166 0.0
171 0.0
175 0.0
178 0.0
181 0.0
186 0.0
188 0.0
126 0.0
52 0.0
40 0.0
53 0.0
56 0.0
43 0.000994
30 0.001003
35 0.001003
45 0.000997
50 0.000996
49 0.0
50 0.0
57 0.0
69 0.0
78 0.000957
83 0.0
87 0.000998
94 0.00104
100 0.000966
105 0.000989
112 0.000992
118 0.0
125 0.000967
133 0.0
139 0.0
150 0.0
155 0.0
159 0.0
165 0.000997
170 0.000972
177 0.000974
162 0.0
106 0.0
58 0.000998
47 0.000999
65 0.000997
72 0.0
59 0.000961
58 0.0
68 0.0
76 0.001995
79 0.000997
79 0.0
84 0.0
92 0.0
101 0.001992
110 0.001992
119 0.000986
124 0.000996
134 0.0
137 0.0
144 0.0
150 0.000998
155 0.00199
163 0.0
169 0.0
172 0.0
177 0.001991
181 0.001995
187 0.0
189 0.0
197 0.0
200 0.0
182 0.000966
121 0.000999
71 0.001964
58 0.0
72 0.000998
77 0.0
68 0.001991
56 0.001995
59 0.000999
72 0.001995
73 0.000995
73 0.000962
75 0.002032
79 0.002028
86 0.001936
95 0.001008
101 0.001007
106 0.000993
111 0.002972
115 0.002955
120 0.000993
127 0.001995
135 0.000973
142 0.000996
147 0.000998
152 0.001995
157 0.001988
164 0.001007
168 0.001991
173 0.000996
178 0.001963
180 0.001994
186 0.001996
172 0.002028
92 0.000939
52 0.001002
49 0.00098
65 0.000998
76 0.001994
74 0.001994
62 0.001994
68 0.001997
75 0.000925
79 0.002985
79 0.002998
84 0.002449
93 0.002007
106 0.000999
114 0.000953
120 0.001004
126 0.002005
130 0.002996
136 0.001995
142 0.001996
147 0.001994
151 0.003021
158 0.002997
167 0.002992
171 0.002992
177 0.002
182 0.002019
185 0.001991
187 0.002942
190 0.002991
186 0.001985
130 0.002004
68 0.001986
42 0.002954
46 0.002987
62 0.002991
57 0.002991
45 0.001995
50 0.001994
58 0.001993
64 0.002994
64 0.003958
66 0.001994
70 0.001995
77 0.00099
87 0.002998
95 0.003009
106 0.00402
111 0.003989
117 0.001579
121 0.002176
126 0.002028
131 0.002988
137 0.003991
145 0.000998
149 0.002993
154 0.001996
159 0.002997
162 0.003993
168 0.00399
170 0.003989
175 0.002003
179 0.002002
171 0.002001
115 0.002978
50 0.002984
15 0.003
24 0.001993
39 0.001987
43 0.002992
33 0.003989
28 0.00399
36 0.003997
42 0.002993
42 0.002993
44 0.002992
49 0.003975
58 0.003997
71 0.002994
81 0.002994
88 0.001992
94 0.004001
103 0.003036
108 0.004022
115 0.003975
123 0.001996
130 0.002987
137 0.00295
146 0.004989
150 0.004985
112 0.004989
33 0.002992
5 0.002996
9 0.002987
31 0.002995
32 0.002991
27 0.005028
31 0.004987
38 0.003012
40 0.002995
41 0.002991
46 0.00403
54 0.004967
70 0.002991
80 0.00399
92 0.003989
105 0.002991
111 0.002953
118 0.004999
124 0.004987
134 0.003975
140 0.003999
147 0.003006
155 0.004031
162 0.003996
108 0.002993
36 0.002996
0 0.002975
1 0.003957
9 0.003989
2 0.005984
0 0.006021
0 0.003979
6 0.004026
12 0.002985
15 0.005017
18 0.005044
27 0.003936
39 0.003999
52 0.003003
71 0.003988
81 0.003988
89 0.005961
97 0.005985
109 0.003992
117 0.004006
126 0.003987
136 0.004987
146 0.005984
157 0.00399
166 0.00399
171 0.00399
182 0.00398
188 0.003995
195 0.005986
192 0.006037
104 0.004986
42 0.005027
22 0.003994
36 0.00602
50 0.005986
44 0.003985
33 0.00399
36 0.004028
58 0.004001
61 0.004038
62 0.006018
68 0.007034
80 0.004997
92 0.005037
105 0.00403
115 0.006027
122 0.006022
134 0.004995
141 0.003996
147 0.004039
159 0.003984
167 0.005019
177 0.006019
186 0.005977
187 0.004987
135 0.004988
73 0.004992
48 0.006981
56 0.006981
68 0.007322
66 0.004879
61 0.003992
74 0.006007
82 0.005016
84 0.004985
85 0.006974
88 0.006983
101 0.005018
111 0.005982
120 0.005983
129 0.00695
137 0.006943
146 0.005023
151 0.004948
160 0.004953
168 0.004977
172 0.004991
179 0.007014
186 0.006022
196 0.004984
200 0.005005
206 0.004996
211 0.005985
215 0.005987
220 0.00501
224 0.007017
232 0.005969
215 0.00598
142 0.004986
72 0.006981
46 0.006982
57 0.005984
64 0.003989
55 0.00595
38 0.006982
37 0.007976
49 0.005167
55 0.006981
54 0.005969
55 0.00599
61 0.005025
70 0.006981
80 0.006981
88 0.005951
94 0.00501
100 0.004984
104 0.007014
111 0.008005
116 0.005955
126 0.007945
132 0.00598
139 0.005972
145 0.005982
152 0.007959
156 0.007013
160 0.005993
167 0.005985
170 0.00599
174 0.007982
177 0.00798
184 0.00698
139 0.007977
63 0.006982
20 0.006981
19 0.006978
38 0.007975
41 0.007978
30 0.005987
21 0.005985
28 0.005992
40 0.006989
43 0.007236
42 0.005988
49 0.007014
60 0.005992
75 0.006939
82 0.006949
90 0.007016
97 0.006986
102 0.006967
108 0.006982
116 0.007027
123 0.007015
129 0.007961
137 0.007014
149 0.007189
156 0.00777
163 0.007007
169 0.006707
174 0.006949
169 0.006978
109 0.007028
44 0.006948
20 0.006981
34 0.00698
45 0.00698
42 0.006983
28 0.006981
37 0.007013
46 0.006976
49 0.006984
50 0.006967
55 0.00703
61 0.006972
76 0.006967
86 0.006979
92 0.006971
101 0.006973
107 0.006973
117 0.006981
122 0.007035
130 0.007016
139 0.006987
145 0.006981
151 0.006009
157 0.006967
164 0.006984
168 0.006978
173 0.006966
178 0.00698
181 0.006965
190 0.007014
167 0.006029
73 0.006014
26 0.007006
19 0.006975
33 0.006896
42 0.00698
31 0.006981
23 0.00698
24 0.005983
36 0.005982
42 0.00595
41 0.005907
43 0.006019
55 0.006326
64 0.006001
73 0.006014
81 0.007032
89 0.006017
95 0.005977
101 0.005983
108 0.005985
114 0.006
125 0.006015
131 0.006026
139 0.006019
149 0.00602
155 0.00602
140 0.005994
78 0.004997
28 0.006018
19 0.005973
36 0.004984
45 0.005021
42 0.00499
37 0.005131
48 0.006022
55 0.006021
56 0.006
58 0.005985
65 0.005985
76 0.005986
85 0.005979
97 0.005985
104 0.005977
111 0.005982
115 0.004973
123 0.005024
130 0.004975
137 0.00504
145 0.005021
152 0.006023
159 0.006016
164 0.005015
168 0.006024
173 0.005007
180 0.005019
185 0.004985
156 0.004997
48 0.005035
28 0.005008
36 0.005035
49 0.005037
46 0.004986
33 0.004988
28 0.005017
37 0.005019
46 0.005025
49 0.004991
49 0.004987
52 0.004984
65 0.004989
75 0.004986
82 0.004986
88 0.004986
96 0.004986
100 0.004987
104 0.004927
110 0.004024
117 0.003956
126 0.00498
133 0.003956
142 0.005016
152 0.005018
159 0.005008
163 0.003983
167 0.003989
177 0.004964
178 0.00399
132 0.003942
65 0.00399
32 0.003985
41 0.00404
58 0.003989
63 0.003993
48 0.003993
52 0.004178
62 0.005019
67 0.004958
67 0.003989
70 0.00399
79 0.00503
88 0.005014
98 0.004985
109 0.004983
115 0.003989
121 0.004987
130 0.004986
135 0.003989
141 0.003985
147 0.004042
156 0.003991
162 0.004018
169 0.003988
174 0.004021
179 0.003984
186 0.003989
191 0.003985
186 0.003987
88 0.003977
44 0.002981
36 0.003956
46 0.00399
55 0.003989
48 0.004027
35 0.00395
39 0.004006
49 0.003956
59 0.003988
58 0.002985
61 0.002995
70 0.003992
79 0.004617
90 0.004159
98 0.004001
103 0.002992
111 0.00399
115 0.004048
121 0.002942
126 0.00299
135 0.002991
142 0.002981
151 0.003025
161 0.004007
168 0.003033
173 0.003029
178 0.003025
184 0.003029
190 0.003049
195 0.002992
202 0.003
169 0.002975
97 0.003957
44 0.00299
52 0.003037
71 0.002997
66 0.002991
54 0.003025
52 0.002872
59 0.002032
68 0.002999
69 0.002025
71 0.001995
76 0.001996
85 0.002954
98 0.002994
108 0.003031
117 0.002037
123 0.002983
129 0.002042
135 0.001996
143 0.002991
152 0.002992
160 0.001996
168 0.001994
173 0.001994
179 0.001996
188 0.002033
174 0.001995
91 0.002992
48 0.001994
41 0.003003
53 0.002992
60 0.002976
49 0.003003
43 0.001996
46 0.001995
55 0.001994
60 0.002008
62 0.00198
67 0.001996
77 0.001995
89 0.002048
98 0.000997
106 0.000998
113 0.003027
123 0.001995
128 0.002029
134 0.002029
140 0.001995
147 0.002034
156 0.001996
167 0.001995
175 0.00205
181 0.001996
187 0.001995
192 0.001996
194 0.001995
202 0.002031
198 0.002046
145 0.000998
77 0.001958
41 0.001996
43 0.001994
56 0.000995
44 0.002016
31 0.000997
31 0.000999
40 0.000997
48 0.00199
49 0.000998
49 0.001996
56 0.001046
66 0.001029
76 0.000999
85 0.000993
98 0.001951
106 0.000993
113 0.001006
118 0.000963
125 0.002056
133 0.000998
141 0.000999
151 0.002037
159 0.002028
165 0.001958
171 0.000997
176 0.0
188 0.000997
186 0.000997
117 0.000998
59 0.000997
39 0.001031
50 0.000997
63 0.001011
61 0.001002
51 0.000997
54 0.001992
62 0.000998
69 0.0
71 0.0
77 0.0
88 0.0
99 0.0
110 0.000998
117 0.000997
125 0.000998
135 0.000997
140 0.000961
146 0.00099
153 0.000997
165 0.000997
174 0.000998
180 0.0
188 0.0
196 0.0
201 0.0
195 0.0
141 0.0
67 0.0
52 0.0
58 0.0
65 0.0
52 0.0
48 0.0
57 0.0
73 0.001009
76 0.0
77 0.0
80 0.0
90 0.0
103 0.0
113 0.0
123 0.0
133 0.0
145 0.0
150 0.0
156 0.0
166 0.0
173 0.000999
184 0.0
190 0.0
197 0.0
201 0.001
207 0.001998
213 0.0
218 0.0
226 0.0
232 0.0
228 0.0
173 0.002029
112 0.001956
87 0.002031
101 0.0
111 0.0
108 0.0
97 0.000998
94 0.000998
108 0.0
116 0.001007
115 0.000963
115 0.0
121 0.0
130 0.000966
140 0.001999
149 0.0
155 0.0
160 0.0
165 0.002029
170 0.002018
177 0.0
183 0.001988
191 0.0
197 0.000966
200 0.001
206 0.002031
213 0.002039
214 0.0
176 0.000965
120 0.0
90 0.00203
93 0.001995
112 0.000994
108 0.001018
98 0.000962
104 0.0
110 0.000993
116 0.001996
113 0.001996
115 0.0
121 0.0
128 0.0
135 0.001955
142 0.001993
148 0.0
154 0.001025
158 0.0
163 0.0
168 0.0
172 0.001027
177 0.001963
183 0.0
188 0.0
191 0.000995
194 0.000999
197 0.000997
201 0.002009
205 0.001995
208 0.0
206 0.0
161 0.0
96 0.001995
64 0.002043
72 0.000966
82 0.000992
78 0.000967
63 0.001995
54 0.001988
67 0.001995
73 0.002028
71 0.00199
72 0.001994
75 0.001919
79 0.001995
87 0.001996
95 0.000996
100 0.001013
106 0.002002
111 0.002009
113 0.001988
121 0.001962
126 0.001995
134 0.00103
139 0.001042
143 0.000967
147 0.002
152 0.00297
158 0.002989
163 0.000998
167 0.001994
171 0.000998
177 0.002992
151 0.000996
89 0.003
52 0.002999
56 0.001997
71 0.002031
76 0.000958
68 0.002952
60 0.00295
69 0.00198
78 0.001023
79 0.002001
78 0.003035
84 0.001995
93 0.002992
102 0.002998
110 0.002026
116 0.001996
121 0.00198
125 0.002992
130 0.003033
138 0.001992
142 0.001987
145 0.001988
151 0.003022
158 0.001993
164 0.00396
169 0.00399
172 0.001995
176 0.001995
178 0.001994
147 0.002989
85 0.002971
44 0.002002
51 0.002001
64 0.000988
66 0.002985
49 0.001993
51 0.003995
61 0.00402
70 0.001991
70 0.002014
69 0.00201
71 0.002985
78 0.003989
89 0.001995
94 0.001995
100 0.001995
105 0.003989
112 0.001995
115 0.003989
118 0.004024
126 0.002011
132 0.002001
134 0.001995
140 0.003984
145 0.004025
150 0.001991
155 0.001991
159 0.001984
162 0.003988
169 0.002992
170 0.003979
129 0.004015
54 0.002012
32 0.002987
43 0.001986
61 0.004023
65 0.00498
52 0.00299
49 0.002989
58 0.001958
65 0.003993
66 0.001981
66 0.004988
72 0.005037
82 0.002025
90 0.002997
98 0.001994
106 0.002993
109 0.003991
113 0.004988
119 0.002992
123 0.003039
131 0.002957
136 0.002001
143 0.002994
150 0.004951
152 0.004987
94 0.002946
44 0.001992
27 0.001994
36 0.004987
48 0.005985
48 0.003989
40 0.001995
48 0.003989
56 0.002962
59 0.002993
60 0.004987
62 0.004988
72 0.00298
82 0.002994
91 0.003023
97 0.005017
105 0.005018
111 0.002952
115 0.002992
123 0.002992
129 0.002992
137 0.002991
142 0.004987
146 0.005986
155 0.003989
159 0.00399
164 0.003991
167 0.006015
172 0.005022
174 0.003027
180 0.003007
161 0.002946
94 0.002968
38 0.003993
21 0.005985
31 0.006017
47 0.003942
41 0.002991
28 0.003033
24 0.004985
34 0.004986
43 0.002996
47 0.003997
49 0.003974
56 0.003985
65 0.003972
74 0.005968
84 0.005984
92 0.003997
100 0.003988
106 0.005002
113 0.006018
117 0.005979
126 0.004989
135 0.004984
147 0.005035
154 0.003989
158 0.00399
165 0.005982
171 0.005984
175 0.004953
180 0.003985
187 0.005004
183 0.00699
127 0.006982
52 0.004987
38 0.004998
64 0.004989
75 0.00398
71 0.003997
65 0.005986
68 0.005984
77 0.004024
81 0.003983
84 0.004989
88 0.007021
94 0.007014
109 0.004019
118 0.003987
129 0.005986
138 0.004976
144 0.004982
150 0.004975
154 0.005987
158 0.005974
168 0.005014
174 0.005982
179 0.00595
186 0.005983
191 0.006981
197 0.005983
203 0.006982
208 0.004986
212 0.004981
178 0.004984
107 0.006982
57 0.007979
49 0.004964
65 0.004987
76 0.005969
72 0.006982
59 0.008026
64 0.006974
71 0.006981
75 0.004973
76 0.00602
79 0.004967
83 0.007015
93 0.007931
106 0.004987
115 0.004982
122 0.005034
128 0.007018
132 0.006964
141 0.007969
145 0.006984
153 0.004986
159 0.005968
163 0.005981
170 0.007956
176 0.007979
180 0.005986
185 0.005985
190 0.004987
196 0.007978
197 0.006981
94 0.007896
58 0.007978
37 0.005984
52 0.005982
69 0.00594
72 0.007979
60 0.007986
64 0.00601
71 0.005042
72 0.00598
74 0.007947
76 0.007951
88 0.006978
98 0.007978
113 0.006994
121 0.006014
128 0.006016
134 0.00798
140 0.007943
146 0.005986
151 0.00599
157 0.006011
166 0.008015
170 0.007979
180 0.007014
186 0.007005
176 0.006981
114 0.006981
49 0.006982
18 0.007979
21 0.007978
33 0.005987
34 0.005982
22 0.006975
23 0.007967
29 0.00797
43 0.007013
44 0.007022
50 0.006979
55 0.006965
67 0.006981
77 0.006978
92 0.007979
99 0.007014
108 0.006952
113 0.006951
120 0.00698
126 0.006986
136 0.00698
145 0.006977
153 0.007016
161 0.006942
167 0.006982
170 0.006069
177 0.007013
183 0.006988
186 0.006977
116 0.006982
64 0.006982
3 0.006035
12 0.007013
25 0.007016
23 0.006981
6 0.006981
5 0.006977
16 0.006982
23 0.007018
25 0.007256
28 0.006977
35 0.00698
45 0.006254
58 0.006987
72 0.006969
85 0.005974
92 0.006031
101 0.006995
105 0.006981
112 0.006929
122 0.007022
131 0.006982
143 0.007029
152 0.006986
159 0.00695
121 0.00703
29 0.006971
0 0.00602
2 0.006017
21 0.005983
20 0.005983
12 0.005986
19 0.006016
28 0.00602
35 0.005966
38 0.00498
43 0.006669
61 0.005979
75 0.005986
85 0.005983
95 0.005986
108 0.005987
116 0.005985
124 0.005828
132 0.006278
141 0.00533
153 0.0059
163 0.005514
170 0.005354
184 0.004981
190 0.005993
196 0.006001
197 0.006021
115 0.005982
40 0.00599
9 0.005977
16 0.006032
29 0.007021
29 0.00502
17 0.004976
16 0.005016
35 0.005005
42 0.005038
45 0.00502
49 0.006034
58 0.005948
72 0.00499
85 0.005813
96 0.004986
107 0.005268
116 0.004983
126 0.004861
133 0.004988
147 0.004987
155 0.004986
166 0.004984
176 0.005069
184 0.005023
193 0.00509
202 0.004976
206 0.004989
163 0.005025
83 0.005025
28 0.00497
34 0.004986
59 0.004952
58 0.00399
52 0.004023
57 0.004024
65 0.005019
72 0.005025
73 0.004995
76 0.004989
86 0.00502
101 0.005023
117 0.003986
129 0.005018
145 0.004951
152 0.004016
159 0.00399
166 0.004178
174 0.004831
184 0.00399
192 0.004032
202 0.003986
200 0.003989
140 0.004986
51 0.003991
32 0.003989
51 0.004991
55 0.005027
45 0.004949
41 0.003991
51 0.003991
65 0.003991
69 0.00399
72 0.003991
79 0.003982
89 0.003991
106 0.005027
118 0.002991
138 0.003958
147 0.003035
150 0.004025
158 0.004815
166 0.002995
175 0.004042
183 0.00433
195 0.004398
201 0.003988
209 0.003984
219 0.00399
227 0.004737
236 0.003954
240 0.00399
245 0.003959
254 0.003958
236 0.003994
125 0.003989
60 0.00399
40 0.003986
51 0.002992
65 0.002991
55 0.00413
38 0.003001
49 0.003959
62 0.002985
70 0.003991
72 0.002992
75 0.00399
82 0.003028
100 0.003989
112 0.003003
121 0.002992
133 0.002991
142 0.002993
153 0.002988
159 0.002961
168 0.002996
178 0.002991
186 0.002996
193 0.002991
203 0.002993
214 0.002995
219 0.002983
225 0.002986
231 0.002993
235 0.002992
192 0.002998
183 0.001985
129 0.003006
98 0.002991
92 0.002992
101 0.002998
110 0.002993
109 0.003033
103 0.002994
106 0.00204
111 0.002991
114 0.001991
115 0.003002
118 0.003027
126 0.003025
133 0.003024
139 0.002993
144 0.002992
149 0.002027
153 0.001995
156 0.001996
160 0.00199
163 0.002031
166 0.001995
173 0.002016
177 0.00304
181 0.002992
184 0.002026
187 0.001996
191 0.001992
187 0.001995
136 0.003032
102 0.002995
90 0.002044
94 0.002034
102 0.001995
101 0.001995
96 0.001994
100 0.001995
105 0.001996
109 0.001992
109 0.001992
111 0.001994
117 0.000998
123 0.00203
129 0.002003
134 0.002042
139 0.001995
144 0.002026
147 0.001992
151 0.001995
154 0.00203
158 0.002037
161 0.001995
165 0.002065
170 0.001
172 0.001992
175 0.002003
177 0.001004
180 0.000998
182 0.000996
185 0.000991
169 0.001006
124 0.002036
88 0.000997
77 0.000998
84 0.000998
94 0.001014
94 0.002013
87 0.000997
87 0.001996
91 0.001995
96 0.000998
95 0.000997
97 0.000994
102 0.001021
107 0.002
114 0.002033
120 0.002032
125 0.001996
129 0.002042
132 0.001031
134 0.001041
138 0.000998
144 0.000999
148 0.000997
152 0.000997
157 0.001996
161 0.000994
153 0.002045
116 0.002024
79 0.00204
64 0.0
73 0.001955
81 0.000998
81 0.000975
78 0.000983
82 0.001
86 0.00098
86 0.001001
87 0.000998
90 0.0
96 0.0
103 0.0
112 0.0
116 0.0
121 0.0
126 0.0
128 0.001026
132 0.0
136 0.0
141 0.000997
146 0.000997
150 0.0
153 0.0
157 0.0
161 0.0
162 0.0
165 0.0
167 0.0
135 0.0
87 0.0
57 0.0
53 0.0
62 0.0
64 0.000997
58 0.000997
51 0.00098
55 0.0
60 0.0
63 0.0
63 0.0
67 0.0
72 0.0
81 0.0
88 0.000998
92 0.000998
96 0.000999
100 0.000997
105 0.0
109 0.001002
114 0.001033
119 0.0
126 0.000964
131 0.0
136 0.000965
140 0.0
144 0.001033
146 0.002028
152 0.0
156 0.0
145 0.0
100 0.001
61 0.00203
46 0.002031
58 0.001989
64 0.001992
58 0.0
56 0.0
60 0.0
64 0.000964
66 0.001022
67 0.0
71 0.0
77 0.0
85 0.001989
92 0.002024
102 0.003033
106 0.001995
111 0.0
116 0.0
120 0.000998
124 0.000996
130 0.000998
135 0.000993
141 0.0
146 0.0
149 0.00197
152 0.001993
159 0.001999
161 0.001994
119 0.0
72 0.000962
48 0.0
47 0.001038
56 0.001035
58 0.0
51 0.0
47 0.0
52 0.002027
59 0.002029
63 0.001996
64 0.001991
70 0.0
77 0.0
85 0.0
92 0.002026
99 0.002027
106 0.0
110 0.000966
114 0.0
118 0.002995
124 0.000998
132 0.001995
137 0.001996
144 0.0
148 0.001994
153 0.0
156 0.002993
160 0.001968
164 0.0
166 0.0
170 0.0
171 0.002027
102 0.0
62 0.002956
48 0.002963
57 0.000966
64 0.000962
60 0.0
51 0.002039
52 0.002017
60 0.000986
63 0.001015
65 0.001996
66 0.001963
76 0.001002
83 0.002993
91 0.001994
99 0.000985
104 0.001027
109 0.000979
112 0.001993
116 0.002028
122 0.001
128 0.000994
133 0.001961
140 0.002993
148 0.001999
152 0.001999
157 0.002984
162 0.002999
142 0.002015
92 0.001986
56 0.001994
47 0.002993
54 0.003024
62 0.003009
60 0.00199
56 0.001985
63 0.001997
67 0.001994
69 0.003038
71 0.003981
76 0.000999
83 0.001992
92 0.001996
100 0.002993
107 0.002992
114 0.001005
119 0.00198
123 0.001996
131 0.001992
136 0.001816
142 0.003
147 0.00303
154 0.000997
158 0.001996
163 0.001988
168 0.002976
171 0.00399
139 0.002993
86 0.000998
51 0.001998
48 0.001991
56 0.001
55 0.002985
46 0.00303
44 0.001995
52 0.002001
59 0.001005
61 0.003955
62 0.003992
67 0.001992
73 0.001999
82 0.002
96 0.002011
102 0.001995
108 0.004029
112 0.004949
118 0.001985
122 0.002944
128 0.002013
133 0.005024
139 0.003958
146 0.001995
152 0.001985
158 0.00299
165 0.001986
169 0.001965
171 0.005
176 0.004968
179 0.001984
143 0.00199
87 0.001993
52 0.003987
47 0.003994
59 0.002003
64 0.001995
59 0.002015
56 0.002957
61 0.002989
64 0.003994
66 0.004966
68 0.001941
73 0.001984
82 0.001994
91 0.004995
99 0.004959
105 0.004956
113 0.00203
117 0.004026
122 0.002962
126 0.002998
131 0.002978
138 0.00502
144 0.004986
152 0.002997
157 0.003035
161 0.002986
164 0.004986
167 0.004029
174 0.002872
140 0.004969
68 0.00204
39 0.00297
36 0.002993
45 0.004987
49 0.004989
39 0.002992
35 0.002991
42 0.003991
49 0.004972
54 0.006016
56 0.003994
61 0.006015
71 0.003001
81 0.002992
90 0.002988
97 0.004996
103 0.005043
111 0.002992
114 0.002992
119 0.002992
126 0.004987
132 0.005983
140 0.003989
149 0.005977
156 0.003982
161 0.003997
166 0.004012
169 0.005993
173 0.006019
177 0.003039
142 0.003004
85 0.003957
47 0.006013
39 0.005984
51 0.004025
56 0.005983
46 0.002992
48 0.001993
55 0.003986
59 0.005988
60 0.005984
63 0.003986
68 0.003966
77 0.002989
87 0.005984
96 0.005989
105 0.00398
111 0.006015
118 0.003021
122 0.003963
126 0.00399
131 0.006014
138 0.006982
147 0.003941
151 0.00498
123 0.003997
72 0.006015
36 0.006031
31 0.003998
42 0.005968
41 0.003969
36 0.003991
41 0.003958
49 0.00595
55 0.005985
58 0.003989
61 0.00402
67 0.004986
76 0.006913
86 0.006981
98 0.004988
108 0.005984
115 0.003988
119 0.004304
124 0.004025
130 0.003963
136 0.00702
142 0.007022
150 0.004024
156 0.004972
160 0.003988
165 0.007013
170 0.006983
174 0.006981
134 0.006982
60 0.005018
35 0.004984
37 0.004989
46 0.007008
46 0.007014
34 0.004988
33 0.004982
43 0.005027
51 0.006948
55 0.004987
57 0.006946
62 0.00702
75 0.005
84 0.003932
92 0.00296
98 0.007914
103 0.006982
109 0.004992
114 0.004985
119 0.004991
126 0.006981
138 0.004989
129 0.007422
86 0.007034
37 0.003981
30 0.005019
37 0.005787
41 0.006977
37 0.006969
37 0.003988
47 0.005983
55 0.00594
57 0.007943
61 0.005938
67 0.00798
77 0.007974
90 0.005931
99 0.005942
106 0.005951
115 0.006985
119 0.006985
125 0.005011
131 0.005986
138 0.005981
144 0.007983
155 0.004945
163 0.007983
169 0.007981
174 0.005023
179 0.005039
184 0.005982
188 0.007979
193 0.007978
199 0.005987
196 0.004963
151 0.005018
81 0.007359
60 0.005994
69 0.007982
68 0.007959
58 0.006022
50 0.005991
56 0.00598
69 0.007976
74 0.006982
75 0.005971
77 0.006029
82 0.005949
95 0.006981
105 0.005981
115 0.007972
121 0.007006
126 0.006976
133 0.006955
137 0.006037
144 0.006963
150 0.007003
156 0.007028
163 0.005956
169 0.00696
176 0.006978
182 0.006648
187 0.005983
192 0.006985
196 0.006979
200 0.006982
208 0.006975
209 0.006981
168 0.007011
113 0.007027
81 0.006984
83 0.006976
91 0.006023
84 0.006948
76 0.00698
80 0.006972
88 0.006997
92 0.006969
92 0.00698
93 0.006982
99 0.006981
107 0.007008
115 0.006969
122 0.006978
128 0.005969
136 0.005963
140 0.005985
145 0.005981
149 0.006981
154 0.006982
162 0.006978
166 0.006975
173 0.006019
178 0.006016
183 0.006981
187 0.006943
190 0.004986
198 0.005878
203 0.005983
194 0.005988
147 0.006014
88 0.005985
74 0.005983
78 0.00597
85 0.00598
81 0.005962
68 0.005979
69 0.005978
82 0.005972
86 0.00599
87 0.005981
89 0.005976
95 0.004967
107 0.004994
114 0.004993
122 0.004952
130 0.006019
137 0.00603
145 0.005985
150 0.005985
160 0.005984
166 0.006072
172 0.00598
178 0.005988
183 0.006011
191 0.005984
196 0.005989
200 0.00503
205 0.005024
208 0.004987
214 0.004987
219 0.004987
176 0.004988
123 0.004988
91 0.005513
87 0.005032
96 0.004988
102 0.005206
93 0.005791
87 0.005174
91 0.004473
97 0.004996
100 0.004944
100 0.005103
103 0.00502
112 0.004954
121 0.005393
128 0.004984
135 0.00499
140 0.003985
146 0.005006
150 0.004978
154 0.004993
159 0.004599
164 0.004791
171 0.00448
178 0.004981
187 0.003987
189 0.003951
160 0.003987
112 0.004024
83 0.005005
83 0.004987
93 0.004987
95 0.004992
90 0.004993
89 0.005015
95 0.005014
100 0.00499
101 0.003991
105 0.003991
111 0.003985
119 0.003983
127 0.003961
136 0.003961
143 0.003989
150 0.003999
156 0.003997
161 0.004955
167 0.004987
175 0.004955
184 0.004947
190 0.003987
196 0.003967
202 0.004031
207 0.00402
214 0.003959
219 0.003991
223 0.003961
223 0.004026
184 0.004039
118 0.004018
96 0.004985
106 0.004014
110 0.003005
104 0.003988
96 0.003987
97 0.00399
105 0.003986
109 0.004718
110 0.004814
112 0.002992
116 0.003986
127 0.003993
137 0.003989
146 0.00396
151 0.003989
155 0.002993
159 0.003948
163 0.003948
168 0.003956
174 0.003943
179 0.002991
184 0.004026
190 0.003042
197 0.004504
203 0.002987
208 0.002992
213 0.002992
203 0.002992
157 0.003985
117 0.002988
104 0.003935
114 0.00399
122 0.003961
121 0.002992
115 0.003029
119 0.002993
124 0.002992
126 0.002994
126 0.002993
131 0.002998
137 0.004029
144 0.003985
151 0.001989
158 0.003033
162 0.002992
166 0.002992
169 0.002028
176 0.003003
179 0.002993
184 0.003
189 0.002989
194 0.00299
198 0.002994
201 0.003939
205 0.00296
195 0.002992
150 0.001995
112 0.001997
100 0.002028
111 0.001978
113 0.001965
106 0.001994
99 0.002005
104 0.001996
109 0.001992
111 0.001993
111 0.001998
114 0.002994
119 0.002992
126 0.002993
132 0.002994
140 0.002992
144 0.001996
147 0.001991
151 0.001995
154 0.002964
158 0.002013
162 0.002
166 0.001995
171 0.002004
176 0.003028
179 0.001996
182 0.001996
186 0.001024
189 0.001051
192 0.002007
196 0.002027
199 0.002008
203 0.001994
199 0.001996
157 0.001983
100 0.002004
87 0.001003
94 0.001995
102 0.000998
99 0.001995
91 0.001962
92 0.002008
99 0.002001
101 0.002
101 0.001991
101 0.001994
104 0.001994
113 0.002992
119 0.000997
124 0.000997
128 0.000997
133 0.000998
136 0.000971
139 0.001995
143 0.001976
147 0.000992
150 0.002032
154 0.001027
159 0.000996
165 0.000998
168 0.001974
143 0.001995
100 0.001995
67 0.002042
74 0.002001
82 0.000984
83 0.000989
76 0.000999
77 0.001011
81 0.00099
84 0.002002
85 0.000997
85 0.002042
90 0.002015
97 0.002071
108 0.002011
113 0.002017
117 0.001996
120 0.0
125 0.001995
128 0.0
131 0.000994
136 0.0
139 0.001001
144 0.001062
149 0.0
156 0.001
158 0.000998
160 0.000996
164 0.000991
168 0.000965
145 0.000997
96 0.0
60 0.000997
50 0.000998
56 0.000994
64 0.0
58 0.0
46 0.0
51 0.0
56 0.0
59 0.0
60 0.0
63 0.0
68 0.0
76 0.0
82 0.0
87 0.000997
94 0.000998
97 0.0
103 0.0
107 0.0
112 0.0
117 0.0
122 0.0
129 0.0
134 0.0
137 0.0
144 0.00099
147 0.000998
142 0.000999
100 0.000997
43 0.002005
41 0.0
54 0.0
56 0.0
50 0.0
48 0.001029
52 0.001995
58 0.000997
60 0.0
60 0.000958
62 0.002032
68 0.00203
82 0.002008
90 0.001988
96 0.0
101 0.0
105 0.0
109 0.001991
113 0.001996
120 0.0
126 0.001028
133 0.001004
125 0.002034
88 0.002995
41 0.0
43 0.002995
53 0.002988
57 0.0
54 0.0
57 0.0
63 0.001998
68 0.001995
69 0.0
71 0.001001
77 0.0
87 0.002008
100 0.0
107 0.002032
112 0.001994
119 0.0
124 0.0
128 0.0
133 0.001961
138 0.001998
145 0.001038
152 0.0
157 0.0
162 0.002026
169 0.0
172 0.002
176 0.002996
182 0.0
162 0.000974
109 0.0
69 0.002019
55 0.001999
63 0.0
68 0.0
62 0.0
52 0.001996
59 0.000999
66 0.002973
71 0.002001
73 0.0
77 0.0
83 0.0
92 0.001995
100 0.001996
110 0.0
117 0.000965
122 0.0
127 0.002062
135 0.000976
141 0.002997
147 0.002976
155 0.0
161 0.0
167 0.0
172 0.001975
176 0.003017
182 0.0
186 0.0
191 0.0
179 0.0
131 0.0
91 0.003023
78 0.002009
91 0.0
99 0.0
97 0.0
91 0.001994
92 0.002993
101 0.0
104 0.0
106 0.0
111 0.0
118 0.001994
127 0.002994
135 0.002982
144 0.001995
148 0.0
153 0.0
156 0.001994
161 0.003017
166 0.0
171 0.001994
177 0.001994
185 0.0
191 0.001984
194 0.003032
198 0.002991
203 0.001984
206 0.001992
209 0.002005
213 0.001982
196 0.002994
148 0.003006
100 0.002003
96 0.00196
111 0.001991
112 0.001996
104 0.001984
100 0.00303
105 0.002992
113 0.000997
115 0.001994
116 0.001996
119 0.002993
123 0.002984
133 0.001991
139 0.001991
149 0.001989
153 0.002006
155 0.00299
159 0.002992
162 0.003992
167 0.002844
172 0.002991
177 0.001994
180 0.00399
184 0.003989
190 0.002006
193 0.002041
198 0.001999
199 0.001988
204 0.002993
204 0.002996
170 0.002992
108 0.001994
87 0.002991
91 0.001998
101 0.00299
106 0.00299
100 0.002013
96 0.001991
102 0.00295
106 0.001994
107 0.0
108 0.003988
111 0.00399
120 0.002003
127 0.001996
134 0.001994
139 0.003993
143 0.00399
147 0.002029
152 0.002992
157 0.001994
161 0.001996
166 0.001992
173 0.004022
170 0.00402
120 0.001971
86 0.001988
73 0.00101
80 0.004991
91 0.003993
94 0.001977
93 0.001994
99 0.001995
101 0.002986
101 0.002947
101 0.004021
104 0.003988
114 0.002011
122 0.001992
129 0.001995
136 0.003952
140 0.003988
145 0.001993
151 0.004987
156 0.001996
159 0.001995
163 0.00299
168 0.004984
173 0.005021
170 0.002019
130 0.002985
85 0.003021
64 0.005983
64 0.00502
73 0.004024
77 0.004986
71 0.004957
75 0.002022
81 0.003028
85 0.001991
86 0.004996
88 0.004978
94 0.002995
102 0.002056
110 0.002977
116 0.005024
123 0.00498
131 0.004983
135 0.004986
139 0.002033
143 0.002993
148 0.002035
153 0.004971
158 0.005022
165 0.002027
169 0.002992
173 0.003988
176 0.004987
179 0.005986
186 0.005946
180 0.005978
117 0.002993
76 0.001995
62 0.002992
68 0.005985
79 0.004981
82 0.002993
75 0.002986
73 0.002981
78 0.005018
83 0.004987
85 0.005984
87 0.004981
94 0.002989
103 0.003656
110 0.002037
116 0.00599
122 0.005984
127 0.004147
130 0.004057
134 0.002992
139 0.004979
144 0.006023
151 0.005986
156 0.005985
163 0.003995
169 0.003018
167 0.003024
131 0.005934
85 0.005984
60 0.002993
68 0.002992
80 0.002994
86 0.006984
84 0.007017
87 0.005969
89 0.005971
90 0.002965
91 0.003017
94 0.002993
101 0.005994
110 0.007025
120 0.002962
126 0.003038
132 0.003992
136 0.005958
139 0.006984
146 0.005797
149 0.00661
156 0.003968
161 0.002999
165 0.003983
170 0.006439
173 0.005695
179 0.003824
180 0.003398
147 0.002992
94 0.006839
61 0.007036
61 0.007028
71 0.007201
72 0.002993
65 0.00299
65 0.003989
70 0.002992
74 0.006983
76 0.006957
78 0.002985
82 0.003994
89 0.003992
97 0.006992
109 0.002954
115 0.007019
119 0.007011
124 0.003969
128 0.003999
132 0.003969
136 0.007007
142 0.007982
149 0.003993
154 0.004988
158 0.003986
165 0.004478
170 0.004986
150 0.007976
115 0.007973
57 0.004469
45 0.004644
52 0.005522
62 0.007562
65 0.006977
56 0.004527
58 0.003942
64 0.003996
69 0.004985
70 0.005985
73 0.006981
80 0.006981
92 0.005984
100 0.005984
107 0.005024
115 0.007973
120 0.008013
124 0.004933
129 0.005182
133 0.005724
142 0.004024
148 0.005037
153 0.007978
162 0.007993
168 0.004031
153 0.004975
105 0.005951
59 0.007355
55 0.007974
69 0.004932
80 0.00594
81 0.005994
83 0.005942
86 0.005944
88 0.007975
89 0.007985
91 0.006005
98 0.005109
108 0.005947
116 0.007941
126 0.00694
133 0.005975
138 0.005981
142 0.005982
150 0.005985
153 0.005984
157 0.007974
165 0.007978
171 0.005937
162 0.005984
119 0.005985
71 0.007828
64 0.006991
72 0.006979
79 0.005965
77 0.00597
73 0.005996
81 0.005033
88 0.007984
90 0.007986
93 0.006323
97 0.006061
104 0.005943
115 0.007979
120 0.007951
128 0.007035
133 0.005984
138 0.005984
146 0.006016
150 0.006028
155 0.005985
161 0.006981
167 0.006981
171 0.006948
177 0.006978
179 0.006977
185 0.006981
188 0.006981
167 0.005983
117 0.005984
71 0.007016
80 0.006017
88 0.005974
85 0.005984
77 0.005982
81 0.005985
86 0.005985
93 0.006985
95 0.005984
96 0.006975
102 0.006975
107 0.006969
121 0.006948
129 0.005983
135 0.00598
139 0.005981
142 0.005987
147 0.005987
150 0.006948
156 0.006973
161 0.006014
166 0.006012
172 0.005976
180 0.005996
180 0.006025
146 0.005982
102 0.005972
82 0.005983
86 0.005992
101 0.005979
102 0.005985
97 0.005984
98 0.006981
105 0.004987
109 0.005985
110 0.005985
114 0.005997
120 0.005993
127 0.005983
135 0.005985
141 0.005977
147 0.005893
150 0.005026
153 0.004967
156 0.004965
160 0.004985
166 0.004974
171 0.005017
178 0.005024
182 0.004989
186 0.005984
188 0.00599
192 0.005999
194 0.005975
198 0.005985
201 0.005973
204 0.005987
191 0.005978
126 0.005974
88 0.005038
94 0.004987
104 0.005983
105 0.005984
97 0.004988
93 0.004987
99 0.004987
104 0.004983
106 0.005032
106 0.004987
107 0.004986
114 0.004987
123 0.004984
129 0.005194
135 0.005084
138 0.004991
141 0.004934
143 0.005334
146 0.00499
150 0.00499
154 0.004986
157 0.004988
162 0.004986
166 0.00402
171 0.00399
174 0.003957
177 0.004993
180 0.004986
182 0.004952
186 0.00497
184 0.005624
130 0.004358
90 0.005632
78 0.00499
86 0.005005
98 0.003952
100 0.00399
95 0.004987
98 0.003989
101 0.004993
101 0.004992
100 0.004988
103 0.004986
110 0.005018
116 0.005018
123 0.003985
128 0.003986
133 0.003981
137 0.004003
139 0.003991
143 0.005822
146 0.003969
149 0.00399
153 0.003991
158 0.003994
163 0.004939
162 0.003948
128 0.003949
85 0.003001
64 0.002981
74 0.003025
83 0.004983
80 0.003978
76 0.003063
79 0.002993
83 0.003959
84 0.00399
83 0.003956
87 0.00399
92 0.003986
99 0.003989
106 0.00399
115 0.003994
119 0.003989
122 0.002988
125 0.003035
128 0.003958
133 0.003995
137 0.003993
143 0.003958
147 0.003954
152 0.002993
155 0.003989
158 0.003026
162 0.003034
166 0.001949
151 0.002988
100 0.002997
60 0.002991
46 0.003007
51 0.003023
62 0.002992
60 0.003028
50 0.002026
48 0.004135
56 0.002992
59 0.003023
59 0.002963
60 0.002989
67 0.003024
74 0.002988
81 0.002987
86 0.002992
92 0.002992
96 0.001994
100 0.001999
103 0.001993
109 0.002046
114 0.001987
118 0.001988
124 0.001964
132 0.003021
136 0.001979
140 0.002031
143 0.001989
147 0.001996
150 0.00196
154 0.001994
160 0.002945
132 0.003019
79 0.002992
47 0.002994
42 0.003008
56 0.001994
63 0.001996
60 0.001992
54 0.001997
56 0.001995
61 0.002
62 0.001965
63 0.002993
69 0.001995
77 0.001996
85 0.002011
92 0.001999
99 0.001999
104 0.001994
108 0.001994
111 0.001996
115 0.001991
120 0.001994
125 0.001981
132 0.001996
137 0.001961
105 0.001967
61 0.001959
37 0.001993
38 0.000994
48 0.00199
50 0.001996
44 0.001015
44 0.000999
54 0.001957
59 0.001985
60 0.001987
65 0.002036
72 0.000998
81 0.002046
90 0.002006
100 0.001999
106 0.001995
111 0.002051
115 0.001992
120 0.001996
127 0.000999
133 0.000993
139 0.001005
148 0.000998
154 0.001995
161 0.000998
165 0.000997
124 0.001996
76 0.002004
52 0.001991
52 0.000995
62 0.000988
66 0.000997
58 0.000996
57 0.000997
70 0.001003
77 0.000994
78 0.0
80 0.001992
86 0.001995
97 0.0
106 0.000965
114 0.0
122 0.000964
127 0.000941
133 0.001009
139 0.001027
147 0.00098
152 0.000966
157 0.0
164 0.001016
170 0.0
176 0.0
180 0.000969
185 0.0
189 0.000997
195 0.0
167 0.0
105 0.0
86 0.0
96 0.0
107 0.0
108 0.0
102 0.0
103 0.0
109 0.0
111 0.0
111 0.0
112 0.0
119 0.000997
129 0.0
138 0.0
143 0.0
148 0.0
151 0.0
154 0.0
158 0.0
162 0.002002
166 0.0
170 0.0
175 0.001007
183 0.0
141 0.000948
103 0.002046
89 0.0
98 0.0
105 0.0
107 0.0
102 0.0
105 0.001998
110 0.000997
111 0.000966
112 0.0
114 0.001995
124 0.0
132 0.001998
139 0.001995
145 0.000955
149 0.000994
153 0.0
155 0.003022
159 0.00396
164 0.0
168 0.000957
173 0.001
177 0.002003
184 0.0
187 0.001996
190 0.003002
195 0.0
175 0.0
128 0.0
95 0.002994
88 0.002992
98 0.0
101 0.0
94 0.0
88 0.001999
96 0.0
103 0.002029
104 0.001996
104 0.001999
108 0.0
113 0.0
120 0.001033
127 0.001961
132 0.001993
138 0.000998
142 0.0
145 0.000996
151 0.0
155 0.000957
159 0.003038
164 0.002993
170 0.000998
174 0.00099
178 0.000962
182 0.001997
185 0.002054
188 0.000991
192 0.0
195 0.001
197 0.0
160 0.0
116 0.002992
97 0.002991
104 0.000996
113 0.000992
115 0.0
108 0.003024
104 0.003002
111 0.0
115 0.0
115 0.0
116 0.0
120 0.0
127 0.002031
133 0.001997
140 0.0
144 0.0
146 0.0
149 0.002991
151 0.002992
156 0.0
158 0.0
164 0.000997
168 0.00101
171 0.000998
174 0.001994
179 0.003046
163 0.0
121 0.001007
91 0.0
87 0.002001
95 0.002949
102 0.0
98 0.001011
94 0.000966
99 0.0
102 0.0
103 0.002984
102 0.002036
106 0.0
111 0.0
117 0.001003
123 0.002996
127 0.002959
131 0.0
133 0.001018
137 0.0
141 0.000961
144 0.000974
148 0.002992
152 0.002992
157 0.0
160 0.0
162 0.0
164 0.00199
168 0.002993
166 0.0
131 0.0
76 0.0
73 0.0
81 0.0
86 0.003038
82 0.003026
74 0.000974
76 0.000961
82 0.001995
84 0.0
85 0.002926
85 0.002959
90 0.002991
97 0.00399
105 0.001996
109 0.00205
113 0.00296
116 0.002993
119 0.002992
123 0.003049
127 0.002984
132 0.001994
136 0.003989
141 0.002991
147 0.003017
152 0.00399
156 0.002992
161 0.0
163 0.002992
142 0.003985
103 0.002993
78 0.003017
85 0.001996
95 0.002008
99 0.003991
94 0.003991
93 0.002029
99 0.002992
100 0.003002
100 0.003001
102 0.003004
107 0.003989
114 0.003991
121 0.001995
126 0.002
130 0.002006
132 0.004019
135 0.003984
139 0.002952
143 0.004021
147 0.001996
151 0.002991
156 0.002976
158 0.003958
137 0.003984
93 0.00102
80 0.003007
83 0.002037
91 0.003992
92 0.003988
85 0.002992
89 0.003991
97 0.002995
98 0.003039
98 0.002008
99 0.004036
102 0.003977
110 0.001997
115 0.002021
120 0.002995
125 0.003985
128 0.003976
133 0.00399
136 0.004045
140 0.003027
144 0.001987
148 0.001995
161 0.004017
166 0.003996
172 0.002991
176 0.002992
181 0.002991
185 0.003996
159 0.003996
74 0.005018
62 0.004024
76 0.003026
83 0.003008
78 0.002954
69 0.004957
71 0.005022
80 0.002969
85 0.002945
87 0.002994
86 0.004986
89 0.004988
101 0.001992
109 0.004987
116 0.004986
123 0.002015
129 0.002049
134 0.002997
138 0.00503
143 0.005154
151 0.002997
156 0.002984
162 0.003979
167 0.004981
175 0.001987
181 0.005018
188 0.005028
159 0.003006
107 0.002976
81 0.002028
84 0.00501
99 0.004999
109 0.002159
104 0.001999
101 0.003985
108 0.004956
113 0.00402
112 0.005984
112 0.005985
119 0.003006
128 0.002978
135 0.002968
141 0.005984
145 0.005985
149 0.00399
150 0.002996
153 0.003974
157 0.005978
166 0.00299
167 0.005019
134 0.006021
85 0.002957
77 0.002017
87 0.003028
96 0.004989
97 0.005946
91 0.002997
97 0.003026
102 0.002965
104 0.004949
103 0.003988
107 0.005995
113 0.005984
122 0.002982
128 0.002948
132 0.002035
136 0.005986
139 0.005966
141 0.003959
144 0.00202
147 0.00299
150 0.005846
156 0.003975
160 0.005976
166 0.005984
155 0.00399
105 0.002993
66 0.003988
59 0.005985
66 0.006984
74 0.00299
69 0.002833
63 0.003265
66 0.005992
78 0.003985
80 0.006981
80 0.006976
82 0.004022
88 0.003985
95 0.003026
100 0.005986
105 0.006983
111 0.003055
113 0.003037
115 0.002959
118 0.007979
123 0.003951
128 0.004987
133 0.007015
138 0.007013
144 0.004984
148 0.003991
152 0.00395
155 0.007019
160 0.006854
150 0.002993
99 0.004024
56 0.00399
67 0.003989
80 0.003988
84 0.006982
77 0.006976
75 0.004985
84 0.003987
90 0.003957
92 0.007941
93 0.007978
96 0.004985
102 0.003989
113 0.004954
119 0.003987
124 0.004992
128 0.007975
131 0.00798
134 0.004986
137 0.004953
141 0.004949
147 0.007992
152 0.007978
157 0.005989
142 0.005952
77 0.004946
69 0.004966
79 0.005955
95 0.007953
96 0.00801
91 0.004985
95 0.004989
101 0.005607
102 0.007978
102 0.007969
104 0.006003
110 0.005979
121 0.003989
126 0.005984
130 0.005986
133 0.007979
138 0.007975
139 0.005996
141 0.004989
147 0.004967
149 0.007027
153 0.008012
157 0.005998
161 0.005989
161 0.005992
120 0.005955
78 0.005044
65 0.006982
74 0.00698
85 0.006008
84 0.004988
79 0.005999
81 0.007975
89 0.007977
92 0.005997
92 0.005999
92 0.005989
96 0.004984
102 0.00497
108 0.007974
113 0.007978
117 0.006979
119 0.005667
121 0.005984
124 0.006982
126 0.006982
132 0.006981
134 0.005984
142 0.005984
148 0.006981
152 0.005993
159 0.006988
144 0.007011
87 0.007012
44 0.005954
43 0.005979
56 0.006012
71 0.006996
66 0.006978
60 0.005981
73 0.006981
81 0.005951
80 0.005983
80 0.005984
85 0.006018
92 0.006011
102 0.005987
109 0.005991
115 0.005954
118 0.005984
121 0.005989
124 0.005954
131 0.006018
135 0.006345
139 0.004976
147 0.005987
153 0.00598
150 0.005986
85 0.005983
47 0.004987
41 0.006982
57 0.006981
69 0.005985
66 0.006017
67 0.006025
74 0.005983
77 0.004986
76 0.005969
76 0.005969
79 0.006015
90 0.006014
98 0.005913
104 0.005953
108 0.005954
113 0.00597
119 0.005987
119 0.005979
123 0.005988
127 0.00599
131 0.005978
134 0.005959
139 0.006012
147 0.004987
132 0.005965
75 0.004983
30 0.006005
19 0.00499
35 0.006009
38 0.00602
28 0.005982
25 0.005985
32 0.005983
38 0.005985
40 0.005985
38 0.005982
41 0.005013
48 0.00526
56 0.00599
62 0.005984
71 0.005098
74 0.004985
80 0.005936
84 0.005278
89 0.00499
95 0.005982
102 0.005041
110 0.004979
116 0.005004
125 0.004986
133 0.004981
120 0.004981
30 0.005042
8 0.005228
22 0.004519
33 0.004955
34 0.003989
27 0.00399
30 0.004958
40 0.004092
47 0.004018
46 0.00502
47 0.004993
53 0.004985
71 0.005006
80 0.004776
88 0.004988
95 0.003991
101 0.003983
104 0.003989
109 0.00399
116 0.004988
127 0.004986
125 0.004987
83 0.004985
40 0.004999
32 0.003986
49 0.00396
55 0.005021
53 0.003992
60 0.003989
69 0.004988
71 0.00399
71 0.003982
75 0.003993
82 0.003985
93 0.004987
105 0.003985
117 0.003959
123 0.003952
126 0.005036
133 0.004994
138 0.003974
144 0.004073
151 0.003989
144 0.003983
80 0.003988
45 0.003988
41 0.003989
51 0.003989
54 0.003988
47 0.00399
50 0.003988
65 0.00399
72 0.002991
72 0.003989
74 0.003948
80 0.004003
91 0.003983
100 0.00399
108 0.003969
115 0.004032
126 0.004958
130 0.003989
136 0.00399
143 0.003009
147 0.002996
152 0.003024
160 0.004028
164 0.00301
169 0.002986
175 0.003979
180 0.003993
141 0.003938
81 0.003023
51 0.003037
57 0.002992
72 0.00399
73 0.00399
65 0.00402
64 0.004023
75 0.002994
89 0.002992
91 0.00299
91 0.002989
100 0.002996
111 0.003026
120 0.002998
130 0.003029
137 0.003029
144 0.003956
149 0.002982
153 0.001995
158 0.003009
167 0.00303
171 0.002985
177 0.004036
190 0.001994
171 0.002029
119 0.001988
85 0.001994
83 0.003
104 0.002982
109 0.002042
105 0.00303
107 0.001996
116 0.001997
122 0.002015
122 0.002997
124 0.002009
133 0.001996
143 0.002995
150 0.003025
157 0.002993
163 0.002027
166 0.002991
169 0.002992
173 0.001995
180 0.001994
187 0.001988
187 0.002003
120 0.001963
90 0.002035
88 0.000996
98 0.002028
104 0.002994
97 0.002005
99 0.001963
108 0.001995
115 0.001994
116 0.001994
114 0.001989
118 0.002008
131 0.001993
137 0.002042
144 0.001986
150 0.002028
156 0.002004
159 0.000999
164 0.002022
170 0.000997
173 0.002011
176 0.001963
184 0.002001
187 0.001997
194 0.002004
196 0.001997
200 0.001995
183 0.001994
125 0.001994
73 0.001996
75 0.001994
85 0.002
88 0.001995
79 0.002004
73 0.001993
81 0.001993
94 0.001991
92 0.001
90 0.002026
95 0.001995
100 0.001045
110 0.002001
116 0.002044
121 0.002031
125 0.001999
128 0.00199
133 0.000998
136 0.001997
143 0.002036
149 0.002041
155 0.002028
160 0.0
165 0.002038
172 0.001996
175 0.002021
177 0.001988
182 0.002001
189 0.00199
158 0.002004
101 0.000994
67 0.000999
83 0.000996
95 0.000998
94 0.000998
87 0.001999
88 0.001012
100 0.000998
104 0.002031
104 0.000996
104 0.000972
108 0.001
121 0.000987
129 0.000999
139 0.0
143 0.0
144 0.001027
149 0.000998
153 0.0
156 0.000997
161 0.0
167 0.0
174 0.0
177 0.0
118 0.000998
80 0.0
75 0.0
87 0.0
98 0.0
97 0.0
94 0.0
105 0.000999
109 0.001007
109 0.0
106 0.000999
108 0.000997
123 0.0
131 0.0
139 0.0
144 0.0
149 0.0
152 0.0
154 0.0
158 0.0
162 0.0
166 0.00101
170 0.0
174 0.001007
181 0.000998
186 0.0
173 0.002026
116 0.0
59 0.0
54 0.001019
67 0.000998
74 0.002992
71 0.0
60 0.0
63 0.0
72 0.001001
75 0.0
75 0.0
78 0.003047
84 0.004025
93 0.0
101 0.0
108 0.000963
112 0.0
116 0.002997
122 0.0
126 0.000997
128 0.00099
136 0.001003
142 0.0
148 0.003021
152 0.003053
158 0.0
162 0.0
165 0.000974
168 0.002027
143 0.003025
66 0.0
35 0.0
37 0.0
56 0.0
54 0.0
46 0.002988
46 0.002972
54 0.002949
64 0.0
64 0.0
64 0.0
69 0.003029
79 0.003033
90 0.0
99 0.000992
110 0.000963
116 0.000963
120 0.0
124 0.003012
131 0.003026
140 0.0
145 0.0
152 0.0
161 0.002992
160 0.002998
100 0.000947
59 0.001008
55 0.0
69 0.0
75 0.000997
74 0.002043
76 0.002043
86 0.0
91 0.000964
91 0.0
93 0.002994
98 0.002992
110 0.0
123 0.003012
132 0.0
137 0.0
142 0.0
147 0.003018
151 0.002977
156 0.0
160 0.0
168 0.0
174 0.003029
165 0.002999
98 0.001005
53 0.002028
59 0.0
66 0.001035
66 0.000997
60 0.001994
60 0.002991
72 0.000997
78 0.0
78 0.0
78 0.003023
83 0.002996
95 0.0
106 0.002996
116 0.0
122 0.0
129 0.0
134 0.002995
137 0.003032
145 0.0
150 0.000967
155 0.0
161 0.001993
167 0.001989
174 0.000999
179 0.003002
120 0.0
66 0.0
43 0.0
49 0.003024
58 0.003025
56 0.001977
48 0.003949
52 0.002026
64 0.003032
73 0.002996
72 0.0
77 0.00399
84 0.002993
99 0.002993
109 0.0
115 0.001994
121 0.002976
129 0.002994
135 0.001987
142 0.0
149 0.00296
157 0.003972
163 0.003961
173 0.002992
182 0.002987
192 0.002993
164 0.001977
108 0.002993
71 0.003121
66 0.002992
82 0.001998
87 0.002996
83 0.003
85 0.003997
91 0.003957
96 0.004018
94 0.003985
100 0.002992
109 0.001996
120 0.002997
132 0.003992
137 0.002984
145 0.002979
151 0.002989
156 0.003034
159 0.00399
165 0.00399
176 0.003989
179 0.003989
121 0.002988
76 0.002991
61 0.002993
68 0.004985
75 0.004001
74 0.001995
73 0.001019
82 0.001948
90 0.003991
92 0.003999
92 0.004025
99 0.004011
113 0.00299
125 0.002955
136 0.002993
143 0.005035
149 0.004988
157 0.001995
162 0.003005
168 0.00203
174 0.004989
181 0.004986
193 0.003992
199 0.00402
206 0.002998
212 0.00299
218 0.00299
208 0.004986
150 0.00403
75 0.001993
61 0.001994
70 0.003989
76 0.004991
64 0.003023
62 0.004987
71 0.004988
87 0.003001
