80 0.021979
82 0.005016
83 0.006981
84 0.006982
87 0.006982
93 0.005984
100 0.005984
105 0.006987
113 0.00599
117 0.006003
122 0.005994
126 0.005984
110 0.005984
76 0.005984
62 0.005984
63 0.005983
70 0.005984
77 0.005984
85 0.006028
88 0.006027
88 0.005984
88 0.006027
90 0.004986
94 0.005021
98 0.004987
103 0.004986
110 0.004984
114 0.004987
119 0.005993
123 0.004983
105 0.004987
54 0.005981
27 0.005985
34 0.00498
44 0.00498
52 0.005028
61 0.005028
66 0.00499
68 0.005028
72 0.004987
76 0.004986
81 0.005023
88 0.005027
103 0.005028
114 0.005016
123 0.005019
130 0.004986
130 0.00502
99 0.00503
58 0.004987
34 0.004987
41 0.004986
51 0.004987
58 0.004983
65 0.004974
74 0.004952
78 0.005019
82 0.004945
87 0.003988
93 0.004994
100 0.003997
108 0.003978
120 0.00399
126 0.003957
133 0.003987
139 0.004982
145 0.004986
119 0.004952
67 0.004988
47 0.004945
53 0.004012
64 0.00399
70 0.004016
74 0.004038
79 0.003989
83 0.004031
86 0.004001
90 0.003989
96 0.00399
105 0.004294
118 0.003986
131 0.003027
139 0.002942
145 0.004035
148 0.004025
153 0.004019
159 0.003987
135 0.003989
94 0.00399
69 0.004032
67 0.004022
78 0.00399
85 0.003006
94 0.002998
99 0.003
101 0.002987
102 0.002993
104 0.003021
108 0.003028
117 0.003023
125 0.002994
132 0.002993
139 0.002994
144 0.002992
154 0.004025
151 0.003997
107 0.002993
74 0.003989
65 0.002992
71 0.003024
80 0.002993
87 0.002993
93 0.002993
97 0.003024
99 0.002992
100 0.003002
106 0.002992
113 0.002993
123 0.002993
130 0.003991
138 0.002982
144 0.003006
150 0.002965
156 0.002994
162 0.002962
152 0.002963
115 0.002989
77 0.002952
60 0.002936
70 0.002027
79 0.001994
82 0.001994
87 0.001961
92 0.00196
96 0.002041
100 0.002957
104 0.001962
111 0.001964
119 0.002958
128 0.002994
137 0.002003
148 0.002025
156 0.001994
160 0.001989
166 0.001987
170 0.002001
147 0.001995
94 0.001996
72 0.002004
71 0.002009
82 0.001996
89 0.001995
98 0.001954
104 0.001995
106 0.001996
108 0.001965
110 0.001957
115 0.002007
122 0.001976
131 0.001006
139 0.001961
146 0.000993
152 0.002016
156 0.001997
163 0.001995
151 0.002012
100 0.002007
71 0.002145
67 0.00197
75 0.001966
84 0.001965
93 0.00198
100 0.001968
104 0.001005
105 0.000977
105 0.000966
107 0.000999
118 0.001169
126 0.001028
135 0.000968
142 0.000967
148 0.000966
152 0.000979
155 0.000964
157 0.000966
129 0.001961
86 0.001009
61 0.000998
57 0.000997
71 0.000962
77 0.000933
83 0.000967
89 0.000997
91 0.000951
93 0.000963
96 0.000958
101 0.000997
106 0.000968
113 0.000965
122 0.0
129 0.000997
141 0.000965
146 0.000998
151 0.000971
155 0.000955
143 0.000998
107 0.001004
70 0.001021
57 0.000997
65 0.0
74 0.0
80 0.0
85 0.0
92 0.0
93 0.0
97 0.0
101 0.0
107 0.0
114 0.0
122 0.0
129 0.0
136 0.000997
142 0.000998
145 0.0
150 0.0
140 0.0
103 0.0
61 0.0
54 0.0
63 0.0
74 0.0
80 0.0
87 0.0
91 0.000998
92 0.0
93 0.000997
97 0.0
107 0.0
115 0.0
122 0.0
130 0.0
134 0.0
139 0.0
144 0.0
121 0.000998
80 0.000998
52 0.000997
50 0.0
59 0.0
71 0.0
76 0.0
82 0.0
85 0.00101
85 0.000997
88 0.0
90 0.000998
95 0.000954
101 0.000936
108 0.000999
117 0.0
123 0.0
133 0.0
135 0.0
109 0.0
66 0.000949
38 0.001005
38 0.0
47 0.0
52 0.000999
56 0.001967
60 0.001971
69 0.000999
72 0.000998
80 0.000963
85 0.000999
91 0.00107
99 0.001965
105 0.001983
114 0.001
119 0.001063
125 0.000998
128 0.001994
134 0.001995
129 0.000957
94 0.000998
42 0.001002
41 0.001051
49 0.001055
57 0.001042
63 0.000993
69 0.000997
75 0.000997
79 0.001052
83 0.002037
88 0.001995
94 0.001996
101 0.000997
115 0.002034
123 0.001996
131 0.001996
138 0.00202
143 0.001813
152 0.00099
153 0.000997
126 0.000997
86 0.001994
59 0.001995
59 0.000998
72 0.001989
82 0.002044
87 0.001994
90 0.001979
92 0.001994
94 0.002969
95 0.003026
101 0.002024
110 0.002014
120 0.001995
128 0.001994
134 0.001995
142 0.000991
152 0.001995
133 0.001038
106 0.003033
69 0.003029
56 0.003025
64 0.003023
75 0.00198
79 0.001994
85 0.002026
91 0.002987
95 0.002983
98 0.001995
104 0.003034
109 0.002025
114 0.002025
125 0.002994
133 0.003026
138 0.002992
142 0.003028
147 0.002997
151 0.002993
128 0.002992
85 0.002992
45 0.002003
48 0.002992
61 0.003039
67 0.003045
72 0.003023
78 0.004039
83 0.003989
89 0.003052
92 0.00299
98 0.00303
106 0.00303
113 0.002992
119 0.003025
130 0.003994
137 0.004023
144 0.003023
149 0.003012
155 0.004023
161 0.004009
128 0.002888
84 0.002993
58 0.002992
55 0.003991
64 0.004055
76 0.00305
84 0.004049
91 0.003026
94 0.003036
96 0.004027
100 0.004991
105 0.004993
115 0.004023
121 0.004023
130 0.004023
140 0.003989
146 0.003989
150 0.004023
160 0.00399
139 0.003031
94 0.003033
61 0.003034
54 0.004021
62 0.005018
72 0.005018
81 0.00403
86 0.004023
91 0.004041
94 0.004039
95 0.004986
102 0.004029
108 0.004019
115 0.005034
124 0.004965
132 0.004978
142 0.004987
145 0.004987
152 0.003976
156 0.004025
141 0.004046
100 0.004986
59 0.004987
45 0.005034
53 0.00498
62 0.004978
66 0.004986
72 0.00502
78 0.004968
81 0.004981
85 0.005019
89 0.005028
93 0.005019
102 0.005003
110 0.005028
123 0.005981
130 0.005027
138 0.004978
141 0.004988
148 0.004984
155 0.005984
142 0.005984
86 0.005019
51 0.005026
40 0.006012
50 0.006011
65 0.00502
77 0.005026
85 0.005024
89 0.006016
91 0.006023
95 0.006016
100 0.006021
105 0.006019
117 0.004998
126 0.005022
136 0.004987
145 0.006024
151 0.007017
157 0.006026
163 0.007044
155 0.006015
115 0.006015
75 0.006014
57 0.00602
60 0.006012
72 0.006016
80 0.005022
85 0.006031
95 0.006981
98 0.006017
98 0.006015
100 0.007017
109 0.006019
118 0.006016
124 0.006014
136 0.006017
142 0.006983
145 0.006021
149 0.00603
153 0.00602
130 0.006024
72 0.006983
47 0.00699
58 0.006976
68 0.007015
75 0.006017
82 0.006018
90 0.006011
93 0.006986
96 0.007026
101 0.006024
107 0.006025
115 0.007021
124 0.00798
138 0.006981
146 0.006981
150 0.006952
153 0.006977
158 0.006966
148 0.006015
106 0.00695
61 0.006981
42 0.006008
50 0.006032
60 0.007033
64 0.007979
74 0.007025
81 0.007948
85 0.007978
89 0.006982
97 0.006982
101 0.006981
105 0.007018
115 0.007977
125 0.00801
127 0.007022
136 0.007021
145 0.007978
148 0.007946
152 0.007939
126 0.007979
67 0.006923
42 0.006983
43 0.007017
54 0.00794
62 0.007983
69 0.006984
75 0.006968
79 0.007018
83 0.007021
94 0.007965
98 0.007936
106 0.007937
121 0.007984
124 0.00798
135 0.00698
139 0.007942
147 0.007021
152 0.006974
155 0.00698
155 0.007022
124 0.007018
56 0.007013
47 0.007022
56 0.006978
68 0.007029
77 0.007023
82 0.007938
88 0.006981
90 0.007046
91 0.007977
92 0.006968
100 0.006986
108 0.006989
122 0.006987
129 0.007029
133 0.00702
138 0.007016
144 0.007022
124 0.007013
80 0.007032
46 0.006025
38 0.00703
52 0.006984
62 0.005985
70 0.006015
83 0.005983
86 0.006982
88 0.007031
91 0.007021
95 0.007031
102 0.00701
111 0.007022
119 0.007024
125 0.00603
135 0.006052
141 0.006981
146 0.007027
92 0.007029
49 0.006017
33 0.006026
38 0.005995
55 0.005984
60 0.006018
63 0.006008
69 0.006029
75 0.007022
82 0.007023
85 0.006015
91 0.006019
102 0.005993
110 0.006016
119 0.005983
128 0.006027
138 0.005982
143 0.006024
150 0.006013
148 0.006013
113 0.005981
51 0.005985
31 0.006009
35 0.006025
54 0.005027
58 0.004977
63 0.004991
68 0.005984
75 0.006026
79 0.006016
83 0.005982
89 0.006021
97 0.00603
108 0.00603
117 0.005953
125 0.004987
137 0.004953
143 0.005008
147 0.004954
151 0.005008
157 0.00504
154 0.004988
116 0.005017
67 0.005022
38 0.005067
35 0.00499
52 0.006054
60 0.006058
69 0.005956
75 0.005024
78 0.005024
81 0.005028
84 0.005035
92 0.004986
100 0.005021
109 0.004977
118 0.004988
126 0.004032
137 0.005047
144 0.004024
152 0.005011
156 0.004021
162 0.004961
153 0.005045
111 0.005036
55 0.00502
42 0.005018
49 0.004026
61 0.005024
70 0.004987
80 0.004015
86 0.004027
91 0.004025
91 0.004021
95 0.004028
102 0.004001
111 0.003994
124 0.004023
133 0.004025
140 0.004026
145 0.005015
150 0.005034
158 0.004021
142 0.004029
65 0.00402
40 0.004023
42 0.004979
54 0.004031
65 0.004016
76 0.004028
83 0.004041
86 0.004037
88 0.00399
90 0.004032
94 0.003991
101 0.003991
116 0.003991
127 0.00399
135 0.004021
140 0.002995
144 0.004033
155 0.004018
154 0.004039
123 0.004028
73 0.00402
36 0.004026
32 0.003982
44 0.002992
57 0.00399
63 0.00399
69 0.004022
72 0.00304
74 0.003044
78 0.003
83 0.002992
91 0.002993
100 0.003016
109 0.002977
121 0.003989
129 0.004032
134 0.002994
140 0.004048
139 0.003036
108 0.002992
60 0.00299
27 0.003022
25 0.002991
38 0.00299
47 0.002993
52 0.002993
59 0.003005
66 0.002992
73 0.002998
77 0.002957
83 0.002992
92 0.002991
101 0.002959
110 0.002992
123 0.003025
132 0.003039
138 0.002988
142 0.003023
146 0.002024
146 0.003732
87 0.002003
33 0.002993
26 0.003019
35 0.003027
46 0.002993
54 0.002993
63 0.002992
68 0.003008
71 0.002994
72 0.003055
76 0.002993
83 0.003024
95 0.002992
109 0.001995
116 0.001996
123 0.002027
129 0.001995
135 0.002027
122 0.002025
74 0.002049
30 0.002037
14 0.001995
22 0.001993
40 0.000997
48 0.002992
57 0.003024
63 0.001996
68 0.001996
72 0.001995
78 0.002043
89 0.002
97 0.002156
109 0.002016
121 0.001995
131 0.001995
140 0.002002
139 0.001013
144 0.000999
117 0.000999
64 0.000998
24 0.000999
17 0.002035
34 0.002065
45 0.00206
51 0.001995
57 0.001028
62 0.000997
69 0.001001
73 0.000997
81 0.000998
89 0.000998
97 0.000998
106 0.0
116 0.001991
126 0.002009
136 0.0
139 0.000997
143 0.001001
151 0.000998
153 0.000997
90 0.000997
44 0.000998
27 0.000979
37 0.001002
50 0.000998
59 0.0
66 0.0
74 0.001995
76 0.001051
79 0.001006
84 0.0
90 0.001006
105 0.001024
114 0.000997
126 0.001026
134 0.001
140 0.000984
148 0.0
157 0.000997
157 0.0
122 0.000994
73 0.0
43 0.0
41 0.0
63 0.0
72 0.0
82 0.0
87 0.0
90 0.000999
91 0.0
94 0.000999
102 0.000997
112 0.0
124 0.0
134 0.0
142 0.0
153 0.0
160 0.0
150 0.0
106 0.0
63 0.0
49 0.0
56 0.0
72 0.000997
80 0.0
87 0.0
95 0.0
98 0.000999
104 0.0
107 0.0
116 0.0
124 0.0
135 0.0
147 0.0
156 0.0
162 0.00103
168 0.000961
173 0.0
150 0.0
102 0.0
56 0.0
63 0.0
79 0.00102
90 0.0
96 0.0
103 0.0
109 0.0
112 0.000999
115 0.001007
120 0.000974
130 0.0
136 0.0
148 0.0
154 0.0
161 0.0
169 0.000998
174 0.001016
181 0.0
183 0.000998
164 0.000999
97 0.0
63 0.000998
59 0.001015
69 0.000998
90 0.001
96 0.0
100 0.0
103 0.001996
106 0.001996
110 0.000999
115 0.0
122 0.0
133 0.001038
141 0.001057
150 0.0
157 0.001043
164 0.001033
169 0.001037
168 0.000986
133 0.001995
84 0.001995
53 0.001029
58 0.000997
74 0.000998
88 0.001995
98 0.001995
111 0.001032
117 0.000998
112 0.0
113 0.0
120 0.0
128 0.00104
135 0.001002
147 0.0
155 0.000963
164 0.000988
170 0.002027
175 0.001994
145 0.001007
93 0.001009
44 0.000955
49 0.001
60 0.00199
67 0.002038
75 0.001996
84 0.000998
90 0.001964
92 0.001995
91 0.002024
94 0.001995
104 0.000999
112 0.000964
127 0.000995
135 0.002037
141 0.001023
146 0.002026
153 0.002029
155 0.001995
124 0.001032
71 0.001
34 0.002994
25 0.001994
39 0.002045
51 0.002027
66 0.002026
75 0.001993
83 0.001977
87 0.001988
89 0.002992
95 0.002992
105 0.002024
115 0.001996
121 0.000997
128 0.002993
137 0.003045
143 0.001996
150 0.003023
155 0.002029
159 0.002026
143 0.002034
95 0.002992
47 0.002992
25 0.002034
32 0.002037
46 0.00303
55 0.004033
61 0.002992
68 0.003026
72 0.002992
78 0.001984
84 0.001985
90 0.002047
97 0.002992
109 0.003991
123 0.002035
132 0.003026
141 0.002989
149 0.003991
155 0.003991
162 0.00302
161 0.00399
111 0.002001
64 0.001996
41 0.000998
44 0.002992
57 0.003989
73 0.002946
84 0.002964
93 0.003031
100 0.00399
102 0.004022
102 0.003034
107 0.004023
118 0.001997
125 0.003025
132 0.003027
139 0.004021
143 0.004015
149 0.003026
153 0.003044
131 0.003
83 0.003989
46 0.004021
44 0.003032
62 0.005016
71 0.003991
75 0.003979
83 0.003965
90 0.004987
92 0.003989
96 0.003987
101 0.004024
112 0.002992
122 0.004021
133 0.003989
144 0.003004
152 0.005001
157 0.004984
129 0.004021
75 0.004021
33 0.004022
25 0.004981
36 0.004987
49 0.004025
55 0.004019
61 0.00399
69 0.004987
76 0.004987
83 0.005039
87 0.004987
96 0.003993
105 0.003997
114 0.003991
123 0.004987
133 0.004986
139 0.00402
143 0.005019
139 0.004015
100 0.005026
46 0.006013
15 0.006016
24 0.006001
37 0.004988
41 0.004999
49 0.005027
62 0.004986
71 0.005021
78 0.004047
83 0.003989
91 0.004032
98 0.004891
106 0.005038
120 0.006024
127 0.006023
135 0.005018
140 0.005021
144 0.005022
149 0.006025
156 0.006015
133 0.005027
78 0.005017
29 0.005025
15 0.005984
24 0.007023
46 0.005016
49 0.007013
56 0.005005
63 0.004991
69 0.004992
74 0.005984
79 0.005992
89 0.004977
99 0.004987
108 0.004981
118 0.006982
127 0.005986
137 0.006977
144 0.006981
148 0.006017
121 0.006016
69 0.006021
31 0.00698
26 0.006982
39 0.006032
54 0.005972
57 0.005003
64 0.006982
75 0.006982
89 0.007021
94 0.006979
97 0.00692
106 0.006015
114 0.007021
124 0.006014
133 0.007033
140 0.007027
151 0.006983
156 0.007009
159 0.006026
163 0.007024
119 0.004986
61 0.006982
22 0.006984
26 0.005985
41 0.005983
49 0.006014
54 0.007978
59 0.007023
72 0.005994
80 0.007017
85 0.007015
90 0.00797
99 0.007019
107 0.007978
117 0.007979
131 0.007017
140 0.007017
147 0.007016
155 0.007986
160 0.007966
164 0.006036
170 0.005978
160 0.005978
111 0.006983
26 0.007031
19 0.007936
38 0.007981
49 0.007013
55 0.007014
62 0.007033
74 0.007986
78 0.00798
83 0.007023
88 0.007026
97 0.007027
116 0.007971
130 0.00697
128 0.007027
132 0.007979
139 0.006981
143 0.007041
146 0.006973
130 0.007979
78 0.007974
16 0.007014
8 0.006972
19 0.006987
32 0.007979
44 0.006969
51 0.007946
60 0.007978
67 0.006995
69 0.008991
75 0.003988
85 0.007019
95 0.006982
108 0.006981
114 0.006981
125 0.007024
132 0.007013
95 0.007014
57 0.006967
10 0.007979
0 0.007013
18 0.007013
33 0.007017
44 0.007016
54 0.007024
62 0.007014
67 0.006994
68 0.007013
73 0.007012
90 0.007016
101 0.005971
112 0.006022
121 0.006022
132 0.007019
118 0.006021
66 0.007038
14 0.007017
0 0.007018
18 0.006984
34 0.007032
44 0.00602
61 0.007014
69 0.006022
75 0.006015
82 0.005983
92 0.006011
101 0.006021
110 0.006027
122 0.005973
132 0.005996
142 0.006024
146 0.006026
111 0.006951
15 0.006037
64 0.005984
70 0.006031
78 0.00603
83 0.006038
87 0.005997
92 0.005975
96 0.005985
100 0.006021
102 0.005992
105 0.00602
109 0.006039
117 0.005968
122 0.006031
127 0.005023
130 0.005985
132 0.005388
123 0.006033
94 0.006024
65 0.005997
57 0.005951
68 0.006033
76 0.006063
80 0.006018
85 0.005985
88 0.005022
90 0.006026
92 0.005985
95 0.006018
100 0.006021
105 0.005026
110 0.004988
114 0.005035
120 0.005034
124 0.004987
126 0.00502
130 0.005024
128 0.005035
104 0.004988
71 0.005021
52 0.004987
55 0.004989
65 0.005978
70 0.004026
73 0.005022
78 0.005046
84 0.005013
87 0.005034
92 0.00503
96 0.00501
101 0.005
107 0.005048
112 0.005023
118 0.00502
121 0.00502
123 0.005022
126 0.005025
122 0.004971
84 0.004015
59 0.004025
58 0.005031
67 0.004024
72 0.003956
75 0.004036
53 0.004036
65 0.004988
68 0.004022
68 0.003988
71 0.003988
78 0.003951
89 0.003967
99 0.003026
113 0.004977
120 0.003948
126 0.004989
130 0.003982
135 0.004995
140 0.004018
145 0.004021
142 0.003954
100 0.003998
47 0.004023
16 0.004071
25 0.004047
47 0.004037
51 0.002992
56 0.003953
63 0.00399
70 0.002992
78 0.004006
83 0.003037
90 0.003033
98 0.004015
106 0.00399
116 0.003985
124 0.004023
137 0.003996
143 0.003038
147 0.003038
152 0.003023
156 0.003036
160 0.002994
166 0.004065
149 0.003028
99 0.00303
51 0.002995
33 0.002961
44 0.002993
61 0.003029
69 0.003029
76 0.003992
83 0.003026
87 0.003042
89 0.002993
93 0.002993
99 0.003038
107 0.00303
115 0.003047
123 0.003028
131 0.003956
140 0.003005
144 0.002993
147 0.002991
152 0.003027
153 0.002039
120 0.001994
56 0.001996
33 0.002027
38 0.002993
54 0.001993
67 0.002041
77 0.002031
87 0.001946
92 0.00304
95 0.003036
98 0.001939
103 0.002986
111 0.002955
122 0.001933
131 0.002028
138 0.002027
145 0.002026
150 0.001995
156 0.002036
150 0.001989
90 0.001996
48 0.001996
37 0.001996
47 0.001045
62 0.002032
73 0.000998
78 0.002057
86 0.001013
92 0.000998
94 0.001995
97 0.002031
105 0.002032
116 0.002034
124 0.002045
133 0.002047
142 0.001996
151 0.001999
157 0.001995
158 0.001965
161 0.001001
159 0.000966
124 0.000968
62 0.000968
44 0.000998
58 0.001996
69 0.000999
74 0.001992
81 0.001964
88 0.002031
94 0.001014
97 0.001026
98 0.000989
101 0.000997
107 0.001
115 0.000997
126 0.001001
132 0.001026
138 0.001022
141 0.001038
144 0.000988
147 0.001996
131 0.0
68 0.0
32 0.000998
26 0.0
37 0.0
52 0.000997
64 0.0
71 0.0
78 0.000997
81 0.00097
83 0.0
86 0.0
93 0.0
104 0.0
114 0.0
121 0.0
127 0.0
134 0.0
137 0.0
105 0.0
44 0.0
27 0.0
35 0.0
51 0.0
63 0.0
72 0.0
82 0.0
91 0.001
97 0.0
103 0.0
112 0.000998
119 0.000998
129 0.000998
136 0.002027
146 0.0
150 0.0
155 0.0
159 0.0
130 0.0
79 0.0
44 0.0
46 0.0
63 0.000999
70 0.0
73 0.001
79 0.000965
89 0.000997
95 0.000998
99 0.000997
103 0.000998
108 0.001029
117 0.0
125 0.0
135 0.0
148 0.0
154 0.0
156 0.001046
157 0.001039
162 0.00103
154 0.000988
93 0.0
51 0.0
39 0.000998
50 0.001953
67 0.000969
70 0.0
77 0.000998
84 0.000997
93 0.0
99 0.001995
103 0.001997
108 0.0
114 0.0
119 0.012003
129 0.001038
135 0.00103
143 0.000997
147 0.000998
153 0.000954
155 0.000997
159 0.000997
164 0.002048
149 0.001995
82 0.00205
42 0.000998
33 0.002026
44 0.001995
57 0.002992
67 0.001027
74 0.000989
83 0.0
85 0.000992
87 0.0
90 0.001995
97 0.003
109 0.000954
118 0.001053
126 0.00101
134 0.001993
141 0.001997
146 0.000993
150 0.001035
156 0.002045
138 0.000991
90 0.000985
51 0.001996
42 0.001995
58 0.000975
71 0.000996
77 0.001003
85 0.00199
94 0.001987
102 0.001002
105 0.000989
112 0.00099
118 0.000993
126 0.000968
136 0.001995
144 0.002992
153 0.001994
159 0.002026
165 0.002033
167 0.002992
171 0.002995
170 0.003
121 0.002039
62 0.002992
51 0.001031
62 0.001999
74 0.000999
80 0.002992
84 0.002992
94 0.001995
101 0.001961
105 0.001961
109 0.002992
112 0.003036
121 0.002044
133 0.002993
143 0.001995
151 0.002993
158 0.003009
163 0.004022
168 0.00403
172 0.003042
176 0.001993
172 0.002027
132 0.004021
83 0.003079
52 0.001955
64 0.002993
82 0.001964
86 0.001991
91 0.001989
97 0.003026
103 0.003036
110 0.002034
114 0.003046
119 0.003027
125 0.00402
133 0.00399
141 0.003023
151 0.004026
157 0.003037
162 0.001991
164 0.002986
166 0.003025
170 0.003978
140 0.002989
87 0.002979
52 0.002943
47 0.00402
59 0.003989
76 0.002992
86 0.003991
96 0.002999
99 0.003029
101 0.003023
102 0.004987
108 0.005004
119 0.004021
132 0.003021
143 0.003024
153 0.004023
158 0.003989
165 0.002997
170 0.00399
136 0.002993
85 0.003993
54 0.004007
52 0.004987
67 0.004986
84 0.004022
90 0.004021
96 0.004046
102 0.005022
105 0.004987
107 0.005019
113 0.003989
120 0.003989
131 0.003974
139 0.003959
146 0.003988
153 0.005018
157 0.004988
162 0.003956
162 0.00402
134 0.004038
84 0.005009
49 0.005019
52 0.005027
66 0.005984
76 0.004029
80 0.00403
87 0.003994
95 0.005022
100 0.004985
106 0.003989
112 0.003994
117 0.003989
124 0.004986
131 0.005018
146 0.005024
153 0.00503
155 0.021903
161 0.00095
165 0.005021
167 0.005984
142 0.005945
75 0.003989
47 0.003996
49 0.003991
62 0.004986
72 0.004995
79 0.004992
86 0.00499
93 0.004985
96 0.004989
99 0.004985
102 0.005989
109 0.005985
119 0.00502
126 0.005024
132 0.004978
138 0.006017
144 0.005988
149 0.006981
150 0.006981
155 0.004956
145 0.004984
101 0.004973
56 0.006016
38 0.005999
49 0.005982
62 0.005024
68 0.006014
72 0.005984
79 0.00598
91 0.006981
95 0.00698
102 0.006019
109 0.005019
117 0.006017
126 0.006018
133 0.006027
142 0.004998
149 0.004988
153 0.004989
156 0.007013
162 0.007013
125 0.00702
75 0.006982
44 0.005984
50 0.006018
65 0.006019
76 0.006024
80 0.007017
87 0.006982
97 0.004981
102 0.006984
105 0.005986
108 0.006019
118 0.005953
128 0.006981
137 0.006981
147 0.005986
155 0.005979
162 0.00599
167 0.007978
171 0.007972
173 0.005997
176 0.006023
178 0.005991
129 0.007958
63 0.006019
47 0.007936
54 0.007949
71 0.005983
77 0.006981
81 0.005993
90 0.007987
93 0.007978
98 0.007014
100 0.007015
105 0.006016
110 0.007971
123 0.007019
130 0.007978
139 0.007994
144 0.006017
148 0.006967
150 0.005997
152 0.007984
157 0.007979
136 0.006978
88 0.006966
122 0.006939
123 0.008011
122 0.006998
122 0.007936
122 0.007947
122 0.007017
122 0.007017
122 0.007012
122 0.007973
122 0.007029
122 0.007023
122 0.006963
122 0.006976
122 0.006982
122 0.006981
126 0.007978
139 0.007011
127 0.006968
51 0.007014
15 0.006975
0 0.007042
11 0.007057
36 0.00698
43 0.007022
52 0.007031
65 0.007026
84 0.007016
90 0.007023
96 0.007014
103 0.005995
117 0.00697
128 0.006979
136 0.006973
153 0.006036
163 0.00602
171 0.007025
177 0.007022
182 0.007018
125 0.007023
57 0.007017
20 0.007019
21 0.007032
48 0.006985
60 0.006002
65 0.006995
72 0.006015
81 0.006017
93 0.005985
99 0.005991
105 0.006024
118 0.005993
126 0.007019
135 0.00702
145 0.006961
158 0.006981
168 0.006955
175 0.007014
177 0.006025
180 0.005974
175 0.006032
162 0.019949
73 0.00402
14 0.006013
28 0.005973
45 0.005995
53 0.006016
63 0.006009
72 0.005021
77 0.005983
80 0.006021
83 0.006144
90 0.006017
99 0.006057
108 0.00604
125 0.006017
134 0.006022
141 0.005985
145 0.006022
151 0.006022
151 0.005986
110 0.00602
43 0.006035
0 0.005016
1 0.00503
23 0.005017
42 0.005022
58 0.005014
70 0.00499
77 0.005027
81 0.00503
88 0.006018
97 0.004989
109 0.006016
122 0.005026
137 0.004986
152 0.006024
159 0.005025
167 0.005026
149 0.005034
84 0.004949
28 0.005018
14 0.005026
30 0.005029
54 0.003992
63 0.005011
71 0.004056
80 0.00494
90 0.003948
98 0.003995
103 0.004027
114 0.005046
123 0.004988
134 0.005022
144 0.005021
156 0.005025
167 0.005017
171 0.005031
177 0.005028
166 0.004998
106 0.005021
21 0.005018
2 0.00502
25 0.004025
36 0.004035
41 0.004023
49 0.004038
60 0.004
74 0.004033
81 0.004005
83 0.003972
89 0.005027
100 0.005033
117 0.003987
129 0.004987
148 0.003958
155 0.004036
161 0.004021
164 0.004041
169 0.00399
140 0.003981
71 0.003992
13 0.004028
63 0.004023
69 0.00399
81 0.004031
83 0.003991
88 0.004995
92 0.005017
96 0.005034
97 0.00304
100 0.002994
106 0.004027
112 0.003991
117 0.003018
122 0.003035
126 0.002992
132 0.004015
136 0.004026
140 0.003985
144 0.002991
138 0.002994
109 0.003032
77 0.002995
62 0.002986
68 0.002992
79 0.003028
87 0.002992
91 0.003014
99 0.004038
104 0.002992
108 0.002988
114 0.003029
120 0.002995
127 0.003027
134 0.002013
140 0.002978
146 0.002992
151 0.004325
155 0.003011
159 0.002992
153 0.002992
113 0.002992
83 0.003024
86 0.003023
96 0.002996
104 0.002028
109 0.002025
115 0.002035
123 0.003004
126 0.002992
130 0.002998
134 0.003042
139 0.002992
138 0.00301
141 0.001958
148 0.002026
150 0.002003
153 0.002043
155 0.00202
157 0.001987
135 0.002026
101 0.001995
77 0.001986
74 0.001991
83 0.001995
80 0.002029
89 0.001996
100 0.001995
106 0.002018
112 0.002048
116 0.001996
121 0.002022
128 0.002032
133 0.001058
140 0.001042
150 0.000998
158 0.000986
168 0.002039
173 0.001995
179 0.002033
175 0.001996
142 0.002049
98 0.002035
75 0.001019
79 0.001035
91 0.000993
101 0.002029
111 0.002026
115 0.013955
120 0.0
123 0.000997
131 0.001038
137 0.001
143 0.002037
150 0.001996
157 0.001996
165 0.000997
171 0.000997
175 0.000998
179 0.000997
182 0.001995
150 0.002041
95 0.000998
80 0.000998
93 0.000999
108 0.000998
117 0.000997
122 0.000998
127 0.002036
134 0.001995
137 0.000997
141 0.000997
146 0.000998
152 0.000998
165 0.0
173 0.000997
183 0.0
188 0.0
192 0.0
189 0.000999
159 0.0
101 0.0
82 0.0
87 0.0
99 0.000997
110 0.000998
117 0.0
123 0.000996
128 0.000998
132 0.0
136 0.0
143 0.0
149 0.0
158 0.0
162 0.0
168 0.0
174 0.0
179 0.0
186 0.0
187 0.0
145 0.0
103 0.0
83 0.0
86 0.000999
99 0.000997
110 0.013964
119 0.0
126 0.0
132 0.0
138 0.0
141 0.0
143 0.000991
148 0.0
156 0.001996
164 0.0
169 0.0
174 0.0
176 0.002045
180 0.002041
181 0.000997
145 0.0
102 0.0
78 0.000967
89 0.0
103 0.002035
111 0.001998
121 0.0
128 0.000982
131 0.000999
137 0.001992
141 0.000998
147 0.000999
153 0.000965
164 0.000992
179 0.0
184 0.0
188 0.000989
194 0.000998
185 0.002007
132 0.0
97 0.0
89 0.0
99 0.001034
114 0.001032
123 0.0
130 0.0
142 0.0
143 0.000955
146 0.000999
149 0.001955
153 0.001042
162 0.000997
171 0.000997
179 0.0
185 0.002029
188 0.002009
193 0.0
198 0.0
159 0.0
105 0.000989
79 0.000988
79 0.001957
91 0.001962
104 0.001006
110 0.001013
115 0.001003
120 0.002026
125 0.001995
129 0.001011
132 0.000968
142 0.001
149 0.001002
154 0.001002
159 0.001962
166 0.001998
172 0.002021
174 0.000996
178 0.002007
180 0.002005
158 0.002031
98 0.001004
73 0.000994
79 0.000978
92 0.000999
100 0.001985
106 0.001995
110 0.001995
112 0.002058
113 0.001018
116 0.000965
120 0.001996
126 0.001958
135 0.002025
141 0.001995
150 0.000996
155 0.001054
158 0.000973
163 0.002994
164 0.003036
130 0.000999
88 0.001004
65 0.000997
66 0.002026
78 0.001995
90 0.00205
102 0.001999
111 0.002993
117 0.001997
119 0.001987
121 0.001999
124 0.002992
131 0.003027
142 0.002014
151 0.002032
157 0.00203
162 0.003022
166 0.003
170 0.000968
132 0.002992
77 0.002079
64 0.001994
72 0.001985
85 0.00399
94 0.00399
101 0.002051
107 0.001965
111 0.001809
114 0.003034
117 0.003023
124 0.002011
131 0.003023
136 0.00195
142 0.002982
149 0.002989
155 0.004026
160 0.00399
167 0.003022
159 0.00202
120 0.00201
76 0.003987
56 0.003967
63 0.003024
82 0.003989
91 0.002977
96 0.002951
100 0.003023
103 0.004976
105 0.003989
111 0.001977
115 0.003021
121 0.002971
131 0.004987
136 0.003989
143 0.002027
149 0.003988
156 0.004026
159 0.003036
135 0.002991
89 0.004957
59 0.004986
57 0.002991
71 0.002993
84 0.002999
92 0.00399
99 0.003989
107 0.002985
111 0.005018
117 0.00299
121 0.003003
128 0.002989
136 0.004987
145 0.004986
154 0.002992
159 0.002971
163 0.004
168 0.003999
161 0.005018
125 0.005018
69 0.005021
68 0.006063
84 0.004082
94 0.004001
99 0.00298
106 0.004987
113 0.005987
120 0.002986
124 0.003988
126 0.003991
130 0.006017
137 0.006015
150 0.006011
158 0.006023
167 0.003992
173 0.003989
177 0.003999
180 0.004987
167 0.005023
112 0.003995
81 0.00399
76 0.003985
87 0.005018
101 0.005017
111 0.004987
117 0.005984
125 0.003954
129 0.003997
131 0.004014
136 0.006016
142 0.004985
150 0.003995
156 0.004004
163 0.003989
169 0.004992
174 0.005981
178 0.006038
180 0.005981
179 0.004978
147 0.004985
105 0.004021
81 0.006014
81 0.006016
98 0.004981
107 0.003988
113 0.003975
119 0.007043
123 0.007013
127 0.006957
129 0.006981
134 0.004985
141 0.004972
148 0.004991
155 0.005984
161 0.007015
168 0.004991
174 0.004985
179 0.004997
165 0.006948
126 0.007011
81 0.005987
83 0.005993
102 0.004988
111 0.005986
119 0.005979
126 0.006979
131 0.006983
133 0.004986
135 0.004991
139 0.004992
146 0.006958
153 0.006982
163 0.006021
170 0.007049
175 0.005992
180 0.005997
184 0.005989
182 0.022906
166 0.0
153 0.022905
109 0.0
87 0.0
117 0.005014
121 0.006982
125 0.007966
128 0.005949
131 0.005987
134 0.005972
141 0.007409
152 0.007976
158 0.005988
163 0.006015
169 0.005969
172 0.007948
173 0.005985
145 0.007979
101 0.007013
71 0.005982
77 0.005949
91 0.005982
101 0.007949
105 0.006979
113 0.006998
118 0.006988
122 0.00698
126 0.007979
131 0.005953
136 0.007979
145 0.00797
150 0.006959
158 0.006973
162 0.006976
166 0.007967
169 0.007977
171 0.006956
162 0.006974
125 0.00694
74 0.008018
64 0.006989
75 0.00798
86 0.00798
93 0.007015
99 0.007028
102 0.006991
104 0.007016
105 0.007978
108 0.005991
112 0.006983
121 0.006981
129 0.007016
140 0.006971
145 0.00702
147 0.007978
154 0.006982
148 0.006996
115 0.006981
76 0.007948
58 0.006981
73 0.007013
86 0.006972
92 0.006981
102 0.007014
112 0.006979
114 0.007028
117 0.006982
120 0.007013
126 0.006973
131 0.006036
141 0.005975
149 0.006982
155 0.006019
160 0.007012
166 0.006996
158 0.006944
105 0.006937
64 0.006976
63 0.00701
75 0.007022
90 0.00698
93 0.006968
101 0.006015
108 0.006011
113 0.006015
117 0.006014
120 0.006017
126 0.006013
138 0.007014
144 0.007021
151 0.007013
159 0.006013
166 0.005996
170 0.006951
173 0.005983
153 0.006018
110 0.006014
68 0.006014
67 0.006015
80 0.006014
96 0.006007
101 0.006015
106 0.005033
112 0.00502
118 0.006014
121 0.006976
123 0.005968
126 0.006014
133 0.006009
142 0.005962
147 0.005981
153 0.006017
161 0.005984
162 0.006035
165 0.005023
162 0.005985
115 0.004974
75 0.005018
59 0.005018
65 0.005017
79 0.00498
90 0.006017
95 0.00603
101 0.006033
106 0.005984
108 0.005992
111 0.005988
117 0.006023
128 0.00502
137 0.00502
145 0.004988
152 0.00502
156 0.00502
162 0.005019
162 0.005019
135 0.005029
73 0.004979
67 0.00502
80 0.006002
95 0.006029
105 0.004987
112 0.005022
120 0.005016
126 0.005022
129 0.005044
132 0.00502
140 0.005018
136 0.005027
145 0.004987
151 0.004988
156 0.004016
158 0.004987
162 0.003991
154 0.004017
116 0.00402
75 0.004022
58 0.004042
66 0.004029
84 0.005033
90 0.005021
100 0.004988
107 0.004989
112 0.004987
116 0.005037
119 0.004014
124 0.004026
130 0.004002
137 0.004029
145 0.004008
152 0.004062
161 0.00399
165 0.002994
167 0.002997
146 0.003992
103 0.00399
67 0.00402
60 0.004029
78 0.004023
90 0.004025
96 0.00403
100 0.003995
105 0.004024
111 0.004021
114 0.004033
119 0.003991
123 0.004025
129 0.003943
136 0.004029
143 0.002993
152 0.002992
158 0.003055
160 0.003299
162 0.003991
166 0.004022
163 0.011968
145 0.000946
86 0.000963
60 0.003992
73 0.003991
84 0.00401
92 0.00496
101 0.00399
104 0.00399
107 0.004024
109 0.004039
111 0.003986
118 0.003944
126 0.00399
138 0.003018
145 0.003029
149 0.002993
153 0.003035
160 0.003027
138 0.002992
95 0.003047
62 0.00305
56 0.002033
68 0.002992
81 0.004034
93 0.003043
105 0.002031
112 0.002024
113 0.002992
115 0.002993
119 0.002993
124 0.002026
136 0.002991
144 0.00297
151 0.002949
157 0.002987
164 0.003032
158 0.003008
103 0.002958
63 0.002978
64 0.002992
77 0.002984
90 0.001978
96 0.001995
106 0.001996
112 0.001995
117 0.002027
120 0.002027
122 0.001995
129 0.002034
139 0.003033
148 0.002949
156 0.003008
163 0.001995
167 0.001995
171 0.001995
149 0.001995
102 0.001995
66 0.001995
60 0.002027
73 0.002029
86 0.001994
90 0.000997
100 0.001997
106 0.001995
110 0.001995
112 0.002026
116 0.002001
123 0.001995
130 0.001995
138 0.001996
145 0.000998
152 0.001003
160 0.000997
163 0.000997
167 0.000998
154 0.0011
110 0.000999
69 0.000997
56 0.000997
71 0.000998
87 0.002035
95 0.000998
99 0.002044
104 0.001995
111 0.002024
115 0.001995
119 0.00202
125 0.000997
131 0.000998
138 0.001001
145 0.001046
153 0.001034
158 0.000999
163 0.000998
167 0.001
168 0.000997
172 0.000997
153 0.002005
107 0.001996
62 0.001042
60 0.000978
73 0.0
86 0.000998
92 0.001001
101 0.001
106 0.001004
108 0.000998
110 0.00103
112 0.000997
119 0.0
126 0.000999
136 0.000967
143 0.0
148 0.0
153 0.0
158 0.0
161 0.0
163 0.0
167 0.0
168 0.0
140 0.000997
67 0.0
54 0.001005
68 0.001004
81 0.0
90 0.0
98 0.0
104 0.0
108 0.0
109 0.0
111 0.0
115 0.0
121 0.0
135 0.0
143 0.0
152 0.0
157 0.002046
161 0.0
164 0.000998
169 0.000998
141 0.002043
94 0.002026
57 0.0
61 0.0
78 0.0
97 0.000953
105 0.0
111 0.002029
115 0.002028
119 0.0
121 0.0
124 0.000986
127 0.000983
149 0.0
157 0.0
165 0.0
171 0.000943
175 0.0
177 0.000998
149 0.000998
88 0.00099
62 0.0
64 0.0
78 0.0
92 0.002027
99 0.002042
109 0.0
114 0.0
118 0.0
119 0.0
122 0.0
127 0.00103
134 0.001993
144 0.0
151 0.000986
158 0.000946
164 0.001041
166 0.001034
171 0.000956
160 0.0
87 0.0
57 0.0
55 0.0
68 0.002043
82 0.002027
91 0.0
97 0.0
102 0.0
106 0.002026
107 0.002022
109 0.0
113 0.0
124 0.0
131 0.0
138 0.0
144 0.002994
149 0.002994
152 0.000954
154 0.000957
146 0.0
106 0.002028
62 0.002993
41 0.00202
50 0.0
72 0.002005
79 0.0
86 0.002008
90 0.001952
93 0.001957
97 0.0
99 0.001015
104 0.002007
113 0.001999
121 0.001995
132 0.001992
141 0.001998
150 0.002002
155 0.001995
143 0.001035
102 0.002995
62 0.003
51 0.000997
65 0.001
81 0.001007
90 0.003008
98 0.003032
108 0.001004
112 0.00199
115 0.001001
117 0.001999
124 0.002013
133 0.003041
142 0.002992
149 0.002992
158 0.001996
161 0.00103
165 0.001027
169 0.002992
155 0.002995
95 0.001004
58 0.002976
65 0.001953
78 0.001966
85 0.001972
88 0.002988
96 0.00399
105 0.00196
110 0.001996
113 0.002001
116 0.003995
121 0.002992
131 0.002011
142 0.003031
151 0.001997
158 0.00301
163 0.002003
165 0.00399
169 0.003989
155 0.001965
112 0.001964
71 0.00197
57 0.003989
67 0.003998
86 0.002017
95 0.004005
104 0.002002
111 0.002978
116 0.002999
120 0.004025
123 0.004031
131 0.002991
139 0.003
147 0.002027
156 0.00402
163 0.004024
170 0.001998
176 0.005017
179 0.001996
183 0.002995
174 0.002999
134 0.004022
90 0.004022
70 0.00299
79 0.003
92 0.003009
100 0.004028
105 0.003989
114 0.002004
122 0.004989
125 0.002036
129 0.002953
136 0.002993
145 0.004987
154 0.005022
159 0.002954
168 0.003009
175 0.002998
181 0.005028
188 0.005026
183 0.003035
130 0.00401
86 0.002988
80 0.004006
89 0.003007
103 0.005023
113 0.004986
121 0.004985
132 0.002998
135 0.002985
135 0.002998
140 0.005022
149 0.006017
162 0.005985
172 0.006022
186 0.003992
194 0.003996
197 0.003988
202 0.005024
205 0.016956
161 0.002992
119 0.003991
91 0.003997
84 0.005019
97 0.005018
109 0.004999
117 0.006005
126 0.004004
131 0.003991
131 0.00399
133 0.005976
136 0.006014
144 0.003986
153 0.00399
161 0.003995
167 0.004978
173 0.005027
180 0.005984
184 0.006018
162 0.003987
119 0.003981
85 0.003987
77 0.005986
87 0.006017
104 0.004001
110 0.003993
118 0.003986
125 0.006982
129 0.006984
135 0.006981
137 0.005985
144 0.00499
151 0.004986
156 0.004983
163 0.005986
171 0.005981
179 0.003989
181 0.004969
184 0.004166
182 0.006982
153 0.006979
90 0.006982
80 0.006978
93 0.004986
106 0.004993
113 0.004987
120 0.00599
126 0.005976
130 0.004977
132 0.004979
136 0.005994
142 0.006951
149 0.006975
163 0.006986
171 0.006989
180 0.004997
184 0.004961
188 0.004988
175 0.004986
139 0.006974
106 0.006982
96 0.004982
99 0.005992
109 0.006013
116 0.007986
123 0.006014
126 0.006981
127 0.006982
127 0.00602
131 0.005024
137 0.004988
146 0.006989
154 0.00698
162 0.005987
168 0.006014
172 0.005974
177 0.007947
152 0.005977
100 0.007974
81 0.007978
83 0.005994
94 0.004977
102 0.00598
105 0.007005
111 0.006986
119 0.005998
124 0.005979
126 0.005975
128 0.00795
135 0.005982
141 0.00797
148 0.007964
159 0.005988
164 0.005984
167 0.005987
171 0.006971
176 0.007943
157 0.00695
117 0.006941
84 0.006985
75 0.00797
89 0.006988
97 0.007979
104 0.007976
110 0.005988
116 0.005992
120 0.00698
122 0.007022
125 0.007013
132 0.006979
136 0.00698
145 0.006961
149 0.007947
158 0.006993
163 0.007979
167 0.007945
174 0.00697
170 0.006952
152 0.006972
97 0.007031
73 0.00698
72 0.006949
85 0.006981
94 0.006981
100 0.007013
109 0.006955
113 0.006986
115 0.005957
117 0.006981
121 0.006981
127 0.007029
134 0.006971
141 0.007005
148 0.007015
154 0.006979
161 0.006968
164 0.006977
150 0.006983
110 0.006972
77 0.007013
69 0.005983
82 0.005982
92 0.005977
100 0.005996
107 0.006998
113 0.007
119 0.006008
121 0.006026
123 0.006014
131 0.005982
133 0.013964
145 0.005995
152 0.005987
160 0.007
164 0.006976
169 0.007004
158 0.007013
121 0.006016
73 0.006021
65 0.005982
73 0.006017
90 0.00598
96 0.005985
104 0.005984
110 0.006016
115 0.005981
116 0.005027
118 0.005984
123 0.006015
129 0.006037
140 0.006031
149 0.005973
156 0.006024
162 0.006012
165 0.006006
167 0.006014
146 0.00598
89 0.005991
63 0.005017
61 0.005984
73 0.005055
84 0.005016
93 0.005013
98 0.005015
105 0.004999
111 0.005019
112 0.006002
115 0.006018
120 0.006017
129 0.006017
136 0.004982
143 0.005986
149 0.005021
155 0.005026
161 0.004987
165 0.004986
153 0.005022
83 0.00502
58 0.005016
57 0.00502
70 0.004984
84 0.005012
91 0.003997
97 0.005034
102 0.004988
106 0.005027
108 0.00502
111 0.005019
116 0.005031
128 0.005032
135 0.005024
141 0.004988
148 0.00502
154 0.004987
158 0.003991
158 0.004059
130 0.004027
85 0.004021
56 0.004022
58 0.00399
72 0.005026
90 0.004994
99 0.005027
106 0.005033
109 0.004021
110 0.005019
111 0.003947
115 0.005019
122 0.004024
130 0.00403
138 0.004022
147 0.003957
154 0.004024
161 0.004025
137 0.004018
90 0.003996
57 0.004019
53 0.00399
73 0.004031
86 0.002993
95 0.003997
104 0.004052
110 0.004039
113 0.00399
115 0.003988
123 0.003999
131 0.003988
138 0.003991
143 0.004035
149 0.004037
157 0.00399
160 0.004182
164 0.003992
155 0.00402
114 0.004028
62 0.002993
55 0.004003
78 0.004025
89 0.004023
95 0.004007
101 0.00399
104 0.00399
106 0.00399
109 0.00399
112 0.003027
116 0.003024
123 0.003029
135 0.003029
143 0.002992
154 0.002992
159 0.003014
166 0.002994
157 0.003044
116 0.002992
65 0.003026
57 0.003982
68 0.00399
85 0.003
98 0.002993
107 0.001987
112 0.00296
115 0.002961
116 0.002995
119 0.002992
126 0.002997
135 0.002956
144 0.00199
155 0.002992
162 0.003026
169 0.002994
172 0.002992
145 0.002025
84 0.001994
61 0.001995
76 0.001995
90 0.002002
100 0.002012
110 0.001995
116 0.001995
119 0.001962
120 0.001998
123 0.001998
129 0.001995
138 0.002038
140 0.002994
143 0.002034
149 0.002023
151 0.001995
153 0.001995
140 0.002028
96 0.001995
41 0.002026
32 0.001995
41 0.002023
55 0.00203
64 0.002033
71 0.002041
80 0.000998
86 0.01196
88 0.00095
93 0.001013
99 0.001995
107 0.001999
119 0.002028
126 0.001994
133 0.001995
139 0.00302
146 0.001996
150 0.001873
103 0.000997
45 0.001007
31 0.001004
40 0.0
54 0.002
66 0.000997
79 0.001985
86 0.00103
92 0.002043
97 0.002021
98 0.002038
103 0.002029
115 0.000999
125 0.000961
132 0.00203
139 0.001043
145 0.000996
149 0.000997
153 0.000997
129 0.000998
81 0.000998
45 0.000995
38 0.001012
50 0.000998
73 0.000997
84 0.000997
95 0.000996
100 0.001008
100 0.0
101 0.0
106 0.0
115 0.0
121 0.0
129 0.0
135 0.000998
141 0.000976
153 0.000997
134 0.0
72 0.00099
42 0.0
40 0.0
53 0.0
67 0.0
82 0.0
91 0.0
98 0.0
103 0.000966
105 0.000998
111 0.001013
116 0.0
127 0.0
136 0.0
143 0.0
152 0.0
157 0.0
148 0.0
103 0.00204
58 0.0
40 0.0
47 0.0
74 0.0
79 0.0
90 0.0
96 0.002031
101 0.0
104 0.0
108 0.001002
116 0.001005
123 0.002038
135 0.000987
144 0.000955
151 0.0
161 0.000961
149 0.0
104 0.001999
61 0.002059
45 0.0
57 0.0
72 0.0
82 0.002041
90 0.002043
102 0.0
108 0.0
110 0.0
112 0.0
117 0.0
127 0.001962
135 0.001996
146 0.0
152 0.0
157 0.0
149 0.000953
107 0.000996
64 0.002021
45 0.0
56 0.001014
79 0.000967
86 0.000994
100 0.000992
105 0.002026
106 0.001029
107 0.000979
110 0.0
116 0.0
124 0.002043
133 0.00199
143 0.0
150 0.000992
125 0.0
79 0.0
47 0.0
43 0.001991
57 0.001999
78 0.001012
92 0.0
103 0.000971
109 0.000995
110 0.001995
110 0.0
113 0.0
126 0.0
135 0.0
144 0.0
153 0.002028
155 0.002027
108 0.000967
64 0.000997
45 0.001992
51 0.002004
66 0.001991
83 0.0
93 0.001043
104 0.002017
106 0.002015
106 0.001987
107 0.002027
114 0.001995
126 0.001995
134 0.001998
140 0.001994
149 0.003029
151 0.002992
105 0.001995
61 0.001992
44 0.002009
58 0.001993
72 0.000961
82 0.002
89 0.002027
97 0.001036
101 0.00099
103 0.002047
106 0.00304
113 0.003023
123 0.00199
132 0.002009
144 0.002003
149 0.002991
155 0.0
112 0.003996
56 0.001995
45 0.001994
55 0.002009
71 0.002033
81 0.00399
89 0.002993
99 0.001987
107 0.003009
110 0.001029
113 0.002006
118 0.001995
124 0.003042
132 0.003024
141 0.002006
149 0.001997
156 0.002008
161 0.004019
167 0.003989
149 0.001972
85 0.004022
53 0.001038
57 0.001995
72 0.000994
86 0.002992
97 0.005017
108 0.001989
113 0.001996
115 0.002964
116 0.003989
119 0.00399
128 0.003019
139 0.004029
150 0.001959
157 0.00198
163 0.001972
168 0.003989
173 0.003988
137 0.00199
90 0.001998
64 0.003008
66 0.003007
81 0.004987
100 0.002992
114 0.005019
123 0.00301
125 0.002991
126 0.002
129 0.004027
135 0.004025
145 0.002008
153 0.002001
162 0.001963
167 0.004987
174 0.005018
177 0.002989
126 0.004983
73 0.002987
67 0.002992
79 0.002994
94 0.005023
106 0.00499
118 0.002992
124 0.001946
127 0.002981
129 0.004983
130 0.004986
135 0.003035
145 0.005019
152 0.005021
162 0.002993
168 0.003013
171 0.002993
176 0.005024
169 0.005026
111 0.003994
72 0.004009
60 0.00399
69 0.006018
84 0.005993
101 0.00502
108 0.005028
115 0.002995
117 0.002987
118 0.003022
121 0.004981
125 0.004979
136 0.003995
145 0.004003
152 0.003988
160 0.00602
165 0.005984
173 0.005985
175 0.006024
128 0.003994
82 0.00298
60 0.003992
61 0.006994
75 0.006015
93 0.003996
104 0.004019
112 0.003991
116 0.005984
116 0.005985
118 0.006021
122 0.005981
133 0.003962
143 0.004959
150 0.003993
155 0.005991
159 0.006986
166 0.003946
152 0.00498
110 0.004976
70 0.006019
55 0.006032
69 0.006023
82 0.005985
94 0.003987
103 0.003995
108 0.004001
109 0.006995
109 0.006976
112 0.004984
117 0.004989
126 0.003998
136 0.00702
144 0.006981
155 0.006985
160 0.006981
165 0.004983
147 0.004021
101 0.003992
61 0.006986
50 0.006979
64 0.004986
77 0.004986
87 0.004986
94 0.006983
101 0.006982
108 0.004987
110 0.007957
113 0.007019
119 0.005002
127 0.005009
136 0.004986
146 0.007973
151 0.006981
158 0.005983
164 0.005999
168 0.005017
167 0.007978
101 0.005979
65 0.007975
56 0.007973
72 0.005986
86 0.005988
98 0.006975
104 0.006985
110 0.007019
114 0.005015
114 0.005981
115 0.005991
120 0.007979
133 0.006007
144 0.008012
147 0.019948
156 0.001036
163 0.004969
168 0.005951
171 0.007951
156 0.007982
97 0.006019
65 0.005971
61 0.005985
79 0.007972
98 0.004986
112 0.007962
119 0.007974
122 0.00598
119 0.005991
118 0.006977
127 0.007019
135 0.00798
146 0.006981
150 0.006071
156 0.006967
164 0.007978
170 0.005966
152 0.00795
106 0.007977
65 0.005996
63 0.005992
76 0.00598
93 0.007014
102 0.00702
113 0.006982
119 0.006978
119 0.006982
119 0.007008
128 0.006979
138 0.00699
146 0.007013
153 0.006981
161 0.006974
166 0.006982
161 0.007013
122 0.006996
69 0.006981
59 0.006979
63 0.006986
80 0.00698
93 0.006935
107 0.00696
114 0.00598
116 0.006014
114 0.006978
116 0.006949
122 0.006979
133 0.007017
138 0.007011
146 0.006022
151 0.006975
155 0.006977
104 0.006013
62 0.005987
46 0.00602
54 0.00599
73 0.005985
78 0.005982
85 0.005984
95 0.005978
101 0.005987
106 0.006987
109 0.006986
114 0.006965
126 0.00598
135 0.00596
145 0.006027
153 0.006017
162 0.005963
166 0.005951
145 0.005983
97 0.006016
59 0.006026
51 0.005977
64 0.005973
76 0.00599
85 0.005985
92 0.005978
99 0.006015
105 0.004985
112 0.004979
116 0.005017
121 0.005026
128 0.005992
136 0.005987
146 0.005985
154 0.005998
162 0.005991
171 0.005984
174 0.006036
181 0.005023
187 0.005017
174 0.005018
126 0.004989
80 0.005018
65 0.00499
72 0.004988
90 0.00601
99 0.005017
107 0.005946
120 0.005031
125 0.004986
129 0.004988
131 0.005017
140 0.005017
147 0.004987
152 0.005031
156 0.005022
161 0.005028
168 0.004982
173 0.003952
179 0.004029
182 0.004022
150 0.004019
106 0.004027
83 0.00502
84 0.00504
101 0.004987
112 0.00502
117 0.004974
123 0.005028
130 0.005024
136 0.004629
137 0.004006
143 0.004008
149 0.003994
155 0.004039
162 0.004021
172 0.004021
181 0.004003
186 0.005029
191 0.004994
196 0.00399
197 0.003991
152 0.003938
109 0.00399
89 0.004024
98 0.00399
108 0.003991
114 0.004035
121 0.004025
131 0.004023
135 0.002994
137 0.004008
139 0.002994
143 0.003988
152 0.004028
160 0.003959
173 0.00396
181 0.003984
188 0.003992
192 0.00399
194 0.00399
190 0.00399
161 0.003991
121 0.004007
100 0.003992
101 0.003021
118 0.003028
128 0.003029
141 0.00399
146 0.002992
150 0.006037
157 0.003017
162 0.002993
166 0.00399
169 0.003034
176 0.003991
186 0.002033
195 0.00299
202 0.002994
209 0.002992
202 0.002992
165 0.003024
129 0.002993
114 0.002991
117 0.003026
132 0.003007
142 0.00305
150 0.003002
158 0.00301
163 0.002041
166 0.003022
167 0.002001
173 0.002002
182 0.001968
190 0.001995
198 0.003006
205 0.002994
211 0.002992
216 0.002966
196 0.003051
159 0.003048
130 0.002005
122 0.002985
133 0.003031
145 0.001995
157 0.002948
164 0.003001
168 0.002963
171 0.002027
172 0.002035
175 0.002025
180 0.002029
187 0.001996
195 0.002042
201 0.001996
210 0.002995
215 0.002036
180 0.002056
144 0.001995
123 0.001045
123 0.001996
133 0.002027
145 0.001996
152 0.002074
158 0.002005
160 0.002028
161 0.002046
163 0.00203
167 0.002029
173 0.001008
180 0.000997
187 0.001996
193 0.001942
197 0.001003
204 0.002027
202 0.00108
175 0.000997
141 0.001971
121 0.002054
121 0.001993
132 0.001991
138 0.001995
143 0.002035
148 0.000997
152 0.002009
155 0.000999
159 0.000997
161 0.001014
166 0.000999
171 0.000997
178 0.002036
185 0.002
190 0.001001
197 0.001
193 0.001962
166 0.002016
133 0.00203
117 0.001988
120 0.003037
128 0.000999
135 0.002038
143 0.001
150 0.000997
153 0.000989
153 0.000998
154 0.000997
159 0.0
165 0.0
173 0.0
180 0.0
186 0.0
190 0.0
194 0.0
191 0.001006
164 0.001006
132 0.0
112 0.000997
117 0.000997
126 0.0
131 0.0
136 0.0
141 0.0
144 0.0
146 0.0
148 0.0
150 0.0
154 0.0
159 0.0
170 0.0
176 0.0
182 0.0
187 0.0
179 0.0
148 0.000998
113 0.001001
95 0.002038
101 0.0
113 0.000988
118 0.0
124 0.0
129 0.0
130 0.0
132 0.002029
134 0.001994
141 0.0
148 0.000989
154 0.001003
159 0.003039
163 0.002049
170 0.000949
175 0.0
179 0.0
151 0.0
116 0.0
92 0.00203
88 0.002028
101 0.00095
110 0.000946
117 0.000976
121 0.002046
123 0.00288
123 0.00096
123 0.0
124 0.0
135 0.0
143 0.0
150 0.002056
156 0.001993
164 0.0
166 0.0
169 0.0
171 0.002025
160 0.002025
117 0.000996
91 0.000998
83 0.000996
96 0.001009
104 0.0
110 0.0
114 0.002035
118 0.002048
119 0.000953
120 0.0
123 0.0
127 0.00204
133 0.002051
141 0.000951
149 0.000997
158 0.001
162 0.000965
166 0.001008
152 0.003038
119 0.003001
83 0.000962
79 0.0
88 0.0
97 0.001995
105 0.002017
115 0.000988
120 0.0
121 0.0
117 0.0
120 0.0
125 0.002012
133 0.002035
141 0.000953
149 0.000954
154 0.000938
155 0.002992
157 0.003
124 0.0
77 0.0
38 0.0
46 0.001992
59 0.001991
68 0.001991
76 0.002954
83 0.0
84 0.002001
92 0.001995
93 0.002995
100 0.003007
109 0.000969
118 0.001994
139 0.001995
145 0.001994
151 0.002029
156 0.00296
162 0.002999
137 0.001994
90 0.001995
50 0.001966
39 0.002998
47 0.00399
65 0.001992
71 0.001989
85 0.001994
92 0.001996
96 0.001997
98 0.003022
105 0.003029
113 0.002003
120 0.001994
127 0.001992
134 0.002993
141 0.004031
150 0.002996
158 0.00102
166 0.003987
130 0.002029
79 0.002006
44 0.001995
41 0.003025
54 0.002992
73 0.001996
85 0.001995
96 0.001964
104 0.00399
107 0.003994
109 0.00196
118 0.004024
125 0.001995
131 0.001994
141 0.002042
147 0.003991
154 0.003989
159 0.002017
164 0.001984
147 0.001996
99 0.003033
55 0.004021
44 0.00198
60 0.004021
77 0.001981
87 0.002951
97 0.001996
103 0.004023
105 0.004988
107 0.002039
111 0.002951
119 0.001992
128 0.005027
140 0.005021
150 0.002952
160 0.004965
166 0.001995
140 0.002021
90 0.001996
52 0.004026
44 0.003989
59 0.001995
70 0.001997
79 0.002004
89 0.004986
98 0.004987
106 0.002978
111 0.005017
115 0.002984
122 0.00295
131 0.002953
141 0.005017
150 0.004987
159 0.001972
166 0.002049
170 0.001999
145 0.005014
93 0.004988
44 0.002997
45 0.004973
64 0.002988
75 0.002989
84 0.002996
92 0.005006
98 0.016015
105 0.002992
107 0.003009
112 0.002983
120 0.004007
129 0.005984
140 0.005984
155 0.005022
163 0.005017
170 0.002982
176 0.002999
175 0.00299
139 0.004994
84 0.004978
41 0.004003
46 0.004009
60 0.003995
74 0.005973
82 0.005975
97 0.005986
104 0.006024
107 0.003995
110 0.003992
115 0.002998
124 0.006984
134 0.004986
147 0.004043
156 0.003988
165 0.003969
171 0.006983
176 0.006016
181 0.006002
170 0.006017
109 0.003997
61 0.00399
44 0.00499
53 0.006982
69 0.006024
88 0.004026
98 0.004023
106 0.004022
110 0.006006
113 0.006016
119 0.005985
126 0.005992
138 0.004014
147 0.003996
156 0.00399
164 0.007016
171 0.006031
178 0.003955
184 0.004992
186 0.004966
153 0.007024
99 0.00702
51 0.007023
60 0.006993
82 0.003978
95 0.004985
107 0.004988
116 0.006012
120 0.006979
121 0.004971
122 0.004973
128 0.004977
139 0.006982
149 0.006981
165 0.006978
173 0.006977
182 0.004996
188 0.004986
180 0.005987
134 0.006982
81 0.006976
55 0.006965
63 0.006004
79 0.005982
93 0.004992
104 0.007972
119 0.004988
123 0.006979
123 0.006981
127 0.00501
133 0.004986
141 0.006011
150 0.006981
159 0.007983
170 0.006005
176 0.005983
180 0.005993
183 0.007979
132 0.006956
62 0.007969
41 0.006981
50 0.005977
68 0.005965
82 0.006033
94 0.00697
102 0.007985
109 0.005952
112 0.005956
114 0.005991
120 0.007974
131 0.005983
142 0.00797
151 0.007973
159 0.005993
165 0.005996
170 0.006953
174 0.007031
163 0.006976
95 0.006978
61 0.005981
37 0.005995
49 0.006988
70 0.005992
81 0.006976
91 0.007024
101 0.006004
106 0.005997
112 0.006017
116 0.007017
120 0.007027
126 0.006001
133 0.006975
142 0.006981
149 0.007023
157 0.005956
161 0.007014
166 0.006979
148 0.006018
75 0.006974
35 0.006025
27 0.006987
41 0.006017
62 0.006015
74 0.005983
82 0.006985
93 0.006991
96 0.006978
97 0.007015
102 0.007006
110 0.006982
123 0.006965
134 0.005975
140 0.006977
150 0.007016
157 0.006018
164 0.005975
138 0.005992
83 0.005994
38 0.009941
27 0.000991
56 0.006025
65 0.005025
75 0.00695
83 0.006968
86 0.006976
91 0.006017
95 0.006027
100 0.005981
108 0.006004
117 0.00599
134 0.005986
143 0.005982
149 0.007025
155 0.005989
162 0.005978
148 0.005977
95 0.005996
40 0.00704
15 0.005032
29 0.005
48 0.004983
59 0.004949
73 0.005989
80 0.005984
85 0.005983
90 0.005954
96 0.005984
101 0.004983
110 0.006032
121 0.005039
131 0.005018
144 0.004926
156 0.004988
162 0.004991
170 0.004989
153 0.004995
100 0.004996
48 0.005993
28 0.005915
44 0.005013
64 0.005988
76 0.005
84 0.005019
95 0.005028
100 0.005026
104 0.005021
109 0.005002
115 0.004991
124 0.005031
133 0.004998
145 0.004996
154 0.003953
161 0.00594
165 0.004988
168 0.004031
175 0.004987
166 0.004029
118 0.005036
34 0.005019
27 0.004988
44 0.005025
61 0.003994
73 0.004987
87 0.004987
94 0.003991
97 0.004991
98 0.00399
99 0.004028
105 0.004035
113 0.004988
129 0.003991
138 0.003991
146 0.004988
152 0.004038
156 0.004991
162 0.004958
161 0.004026
125 0.00403
65 0.004029
22 0.003991
18 0.003997
36 0.00399
62 0.00399
74 0.003961
82 0.004042
85 0.002992
87 0.004021
88 0.002963
94 0.004025
104 0.00404
115 0.003036
125 0.003025
137 0.003026
146 0.003028
159 0.003038
144 0.003027
90 0.002994
38 0.003957
18 0.003991
34 0.003992
54 0.004026
71 0.00296
84 0.002992
94 0.002987
101 0.003032
101 0.003001
106 0.003051
113 0.002959
124 0.002993
134 0.002993
140 0.003028
149 0.002024
156 0.002036
159 0.003038
129 0.002025
67 0.002048
14 0.001976
15 0.003046
45 0.003021
59 0.00304
67 0.003026
75 0.003017
79 0.003036
84 0.003039
88 0.002026
94 0.002977
105 0.002025
117 0.002037
129 0.002025
142 0.002056
152 0.001996
161 0.002054
158 0.002029
111 0.002994
49 0.003038
15 0.002025
22 0.002026
43 0.003019
60 0.001996
71 0.002039
82 0.001995
90 0.002033
94 0.002037
98 0.003991
102 0.003058
111 0.002031
121 0.003029
129 0.002026
141 0.003049
145 0.009933
150 0.001993
160 0.001968
135 0.002994
53 0.00204
7 0.001996
20 0.00204
41 0.002065
56 0.00204
69 0.00204
81 0.003031
88 0.003022
89 0.000995
91 0.002003
97 0.000999
105 0.000998
117 0.001997
130 0.000998
144 0.002003
151 0.00197
148 0.00204
105 0.002018
46 0.000994
7 0.001997
16 0.001029
37 0.001005
54 0.000996
67 0.001996
82 0.001996
84 0.001003
80 0.002047
82 0.000998
88 0.001997
99 0.001002
109 0.002029
120 0.001995
128 0.0
131 0.0
100 0.0
44 0.000997
0 0.000997
1 0.000997
28 0.000965
48 0.000995
67 0.001008
79 0.000998
84 0.000997
86 0.000963
90 0.0
95 0.0
106 0.000999
122 0.0
134 0.0
152 0.0
133 0.0
59 0.0
17 0.0
10 0.0
27 0.0
46 0.0
61 0.0
74 0.0
86 0.000961
92 0.0
96 0.000998
106 0.0
116 0.001014
132 0.0
142 0.0
151 0.0
167 0.000986
157 0.000987
100 0.0
41 0.002032
21 0.0
33 0.0
51 0.0
78 0.0
89 0.001011
98 0.00305
104 0.003043
111 0.0
118 0.0
130 0.000994
143 0.002028
159 0.002031
186 0.0
186 0.001023
193 0.000987
211 0.000983
203 0.000997
152 0.002045
100 0.003017
84 0.0
98 0.0
115 0.0
126 0.00299
136 0.002993
152 0.0
163 0.0
170 0.0
174 0.0
183 0.0
194 0.001986
206 0.002025
220 0.0
232 0.0
241 0.000998
191 0.002025
195 0.002041
202 0.00096
206 0.000986
198 0.0
158 0.001006
146 0.000969
149 0.002025
157 0.002033
161 0.001966
166 0.000944
171 0.0
175 0.001023
179 0.003025
182 0.003048
187 0.0
191 0.0
198 0.0
203 0.0
207 0.0
211 0.002039
214 0.001962
220 0.000961
225 0.000964
226 0.000998
213 0.001996
192 0.001997
177 0.0
179 0.000958
190 0.0
195 0.001048
199 0.001034
200 0.002993
202 0.003022
204 0.0
205 0.00095
207 0.0
211 0.002993
216 0.003043
221 0.001023
225 0.0
229 0.000998
232 0.00101
235 0.0
156 0.001982
212 0.002012
192 0.0
190 0.0
195 0.000981
203 0.001994
207 0.002026
212 0.000949
214 0.002029
214 0.0
213 0.0
214 0.0
217 0.002031
221 0.002993
227 0.0
231 0.003019
234 0.001992
236 0.002994
238 0.002992
255 0.002986
235 0.002975
226 0.002999
234 0.00203
187 0.002996
190 0.00303
194 0.00399
196 0.001992
196 0.00199
192 0.001995
190 0.003988
191 0.002992
194 0.00298
197 0.002002
197 0.001995
198 0.001995
199 0.002997
195 0.002995
183 0.002993
172 0.003989
167 0.002989
169 0.002993
172 0.002025
174 0.00399
176 0.003993
177 0.001996
177 0.003999
175 0.002996
174 0.001997
175 0.001995
175 0.003024
177 0.003023
179 0.002007
180 0.001995
181 0.002987
182 0.004023
176 0.004987
160 0.002991
154 0.004021
159 0.002999
162 0.001963
163 0.001995
164 0.006022
164 0.00499
163 0.001959
162 0.00299
163 0.002995
163 0.003991
164 0.00402
166 0.003024
168 0.004033
170 0.002991
171 0.003008
171 0.001995
168 0.005019
156 0.003952
145 0.002986
144 0.002002
148 0.002008
152 0.0
153 0.004987
154 0.002991
154 0.005012
154 0.002002
155 0.001979
155 0.001986
157 0.00402
195 0.004129
200 0.002991
204 0.001996
206 0.001995
209 0.00503
212 0.004986
208 0.002995
174 0.004993
152 0.002027
154 0.003037
162 0.002036
168 0.004987
171 0.005029
173 0.002997
172 0.001995
170 0.003
169 0.004034
171 0.005032
173 0.002992
176 0.004982
181 0.002961
184 0.002943
186 0.002997
188 0.005004
188 0.004993
189 0.00399
170 0.002007
145 0.002997
131 0.004013
132 0.005984
142 0.005979
152 0.005984
156 0.006018
157 0.003004
156 0.003002
153 0.00396
153 0.004987
153 0.006031
157 0.003005
161 0.003972
164 0.003974
168 0.004986
171 0.005984
175 0.006019
177 0.006016
160 0.003992
132 0.003978
115 0.003998
114 0.006018
121 0.006024
130 0.003038
133 0.003028
136 0.003032
137 0.005964
135 0.006015
134 0.006982
136 0.005984
139 0.003988
143 0.003959
147 0.003986
149 0.005941
151 0.005976
155 0.003994
154 0.003998
122 0.003975
95 0.005984
85 0.005984
99 0.006981
108 0.006981
115 0.003999
119 0.004017
119 0.00402
122 0.006982
118 0.006996
123 0.003989
130 0.004015
136 0.003986
141 0.006946
144 0.006948
148 0.006982
142 0.007025
101 0.005004
74 0.004987
67 0.004989
73 0.007013
82 0.007016
88 0.004997
92 0.00499
94 0.004024
94 0.007952
93 0.006956
91 0.007935
93 0.007967
98 0.004991
103 0.004948
106 0.004987
111 0.004973
114 0.006982
90 0.007015
42 0.00497
25 0.004982
29 0.004952
39 0.006982
45 0.004997
42 0.007016
40 0.007968
42 0.005986
43 0.00502
53 0.004967
60 0.007963
62 0.007979
67 0.004977
75 0.005
76 0.004984
78 0.007979
69 0.004971
38 0.007979
5 0.007978
57 0.005985
61 0.005952
65 0.00599
64 0.007978
63 0.007978
65 0.004943
68 0.004982
68 0.005932
73 0.00798
78 0.005986
80 0.006978
84 0.006979
89 0.005976
94 0.005986
98 0.005985
98 0.00799
100 0.007982
103 0.005973
98 0.005981
81 0.005941
60 0.006981
57 0.005984
63 0.006981
66 0.007028
70 0.00601
78 0.005981
80 0.005947
80 0.006991
80 0.007013
82 0.006976
83 0.006951
87 0.00698
95 0.007007
104 0.006947
111 0.007016
114 0.007019
115 0.006025
119 0.006953
122 0.005983
109 0.006982
88 0.006986
77 0.009974
75 0.00598
80 0.005985
83 0.006018
87 0.006975
90 0.00699
92 0.006968
95 0.006981
98 0.006018
100 0.006981
106 0.005987
111 0.007021
115 0.006158
120 0.005989
125 0.005985
128 0.005987
133 0.005987
134 0.006
131 0.006018
113 0.006015
89 0.005984
55 0.005961
58 0.00699
64 0.00602
70 0.005956
80 0.004985
85 0.006953
90 0.006984
94 0.005963
97 0.006
102 0.006015
108 0.006031
119 0.005988
126 0.005987
133 0.005988
140 0.006019
145 0.005015
151 0.005828
152 0.005984
132 0.004981
84 0.004995
76 0.004994
81 0.004954
91 0.006024
100 0.005974
107 0.00502
112 0.004984
114 0.005021
113 0.006023
116 0.004986
121 0.005022
128 0.00499
141 0.005987
149 0.004988
154 0.004988
160 0.00502
169 0.00496
162 0.004992
132 0.004047
98 0.005022
81 0.00498
83 0.004031
96 0.004984
102 0.004974
111 0.004989
116 0.00499
119 0.004988
121 0.004987
124 0.005018
128 0.004956
134 0.004982
141 0.005037
151 0.005022
158 0.004986
165 0.004958
172 0.004987
138 0.004989
102 0.004872
84 0.003993
84 0.003965
91 0.003987
97 0.005025
101 0.00499
106 0.004999
111 0.003995
115 0.003998
119 0.004021
123 0.003989
133 0.004987
141 0.003961
148 0.004961
154 0.003992
160 0.004994
167 0.004051
170 0.004031
155 0.003976
118 0.004024
82 0.004024
66 0.00399
73 0.003992
88 0.004029
94 0.003992
99 0.003991
103 0.003992
106 0.004015
108 0.004002
111 0.004046
115 0.00402
119 0.002992
126 0.003022
134 0.002997
143 0.002992
155 0.002946
162 0.003957
168 0.00399
153 0.003992
119 0.003024
83 0.004024
80 0.004043
89 0.002991
99 0.002994
105 0.003017
113 0.003032
118 0.003042
123 0.002994
126 0.003018
129 0.00296
136 0.003029
145 0.003032
155 0.002995
162 0.002961
169 0.002984
171 0.002993
172 0.004002
176 0.002992
175 0.002999
124 0.002984
91 0.003049
80 0.002994
84 0.003037
96 0.003029
104 0.003024
110 0.003034
114 0.002983
113 0.001995
115 0.003024
121 0.003026
127 0.002983
143 0.003992
154 0.002026
164 0.002992
174 0.003038
181 0.001996
186 0.00204
191 0.002062
174 0.004048
134 0.002027
99 0.002027
90 0.002027
105 0.00303
123 0.003033
124 0.001996
131 0.003
131 0.002054
130 0.002009
129 0.001996
134 0.003025
142 0.001995
146 0.0
161 0.002004
168 0.002006
173 0.002029
178 0.002042
178 0.001995
152 0.001956
111 0.001992
81 0.002003
76 0.002991
88 0.002992
97 0.002026
105 0.001995
114 0.002036
119 0.000997
123 0.001026
127 0.002032
131 0.000998
134 0.001006
140 0.001039
145 0.000999
149 0.002034
153 0.002974
158 0.002005
156 0.002035
127 0.001993
85 0.002009
55 0.002
58 0.001991
75 0.000997
83 0.001997
93 0.001995
100 0.001992
102 0.001993
101 0.00203
103 0.002039
109 0.001994
118 0.001994
126 0.002035
135 0.002028
144 0.001006
153 0.001005
158 0.000997
146 0.001055
108 0.000997
68 0.002039
47 0.000999
55 0.000997
70 0.001031
82 0.002043
91 0.0
101 0.000988
105 0.0
105 0.000997
107 0.0
110 0.000998
115 0.001026
123 0.000997
130 0.000998
136 0.000997
141 0.000997
146 0.000997
128 0.0
84 0.0
38 0.0
42 0.0
61 0.0
75 0.0
88 0.000998
97 0.0
99 0.000998
99 0.000786
102 0.0
107 0.0
116 0.0
126 0.0
140 0.0
147 0.0
158 0.0
154 0.0
119 0.0
72 0.0
37 0.0
36 0.003001
47 0.00303
56 0.000998
65 0.00101
76 0.0
83 0.000969
87 0.000961
91 0.002992
98 0.002025
108 0.000951
114 0.0
119 0.000954
124 0.003038
126 0.002999
133 0.0
130 0.0
92 0.0
27 0.0
23 0.0
37 0.003025
47 0.003022
54 0.000952
60 0.0
67 0.0
70 0.002029
73 0.002025
78 0.0
86 0.0
94 0.001013
113 0.000952
122 0.0
130 0.003022
134 0.002998
138 0.0
139 0.0
114 0.0
66 0.003024
27 0.002992
19 0.0
32 0.000978
45 0.0
58 0.000956
67 0.0
73 0.0
77 0.00297
81 0.003039
86 0.000962
92 0.0
101 0.0
110 0.001992
118 0.002027
129 0.0
134 0.0
141 0.0
146 0.000952
132 0.0
86 0.002992
41 0.002954
23 0.000964
33 0.0
47 0.000951
57 0.002028
67 0.002028
78 0.0
83 0.0
88 0.0
93 0.000998
101 0.000965
103 0.017917
119 0.00096
130 0.000996
135 0.000952
141 0.0
144 0.002991
148 0.002992
151 0.0
125 0.0
47 0.0
28 0.0
34 0.0
49 0.001993
62 0.002035
73 0.000982
79 0.0
82 0.0
84 0.002025
86 0.003039
95 0.0
104 0.0
114 0.0
131 0.0
139 0.002015
143 0.003011
149 0.003018
138 0.003001
96 0.001994
51 0.003015
32 0.003022
40 0.003997
63 0.002991
76 0.003008
87 0.002058
98 0.003004
98 0.002992
98 0.002985
99 0.002996
106 0.002026
116 0.002003
129 0.001997
139 0.003026
146 0.004024
155 0.002995
161 0.002996
162 0.002993
96 0.002992
47 0.003005
28 0.002994
33 0.003033
48 0.003031
64 0.002998
74 0.002988
84 0.00299
90 0.002989
93 0.003985
95 0.002992
100 0.002986
113 0.002994
120 0.00202
130 0.001996
139 0.004143
146 0.003989
154 0.003003
158 0.001975
131 0.003
78 0.004045
37 0.00403
24 0.00299
38 0.003022
61 0.002985
73 0.002991
85 0.003003
90 0.004023
94 0.004023
96 0.00299
98 0.003023
104 0.002035
113 0.003953
123 0.00399
136 0.002992
146 0.002026
152 0.003018
157 0.002033
150 0.001997
106 0.004987
53 0.004966
22 0.002994
29 0.001968
46 0.002983
61 0.004983
72 0.004985
84 0.001995
87 0.002992
83 0.002989
83 0.002981
87 0.003028
94 0.00499
104 0.004986
115 0.001986
125 0.002002
131 0.002979
138 0.005075
142 0.005022
99 0.002994
46 0.002961
17 0.001994
30 0.002962
48 0.002968
64 0.005984
77 0.005985
90 0.002992
93 0.002993
95 0.002989
97 0.005021
102 0.004987
109 0.005016
120 0.00299
132 0.005978
142 0.003029
151 0.003004
155 0.002994
130 0.005984
78 0.006017
31 0.002992
30 0.002993
46 0.002985
59 0.005994
67 0.005019
81 0.002994
89 0.005984
94 0.003996
96 0.003988
101 0.003984
108 0.005984
117 0.006015
129 0.003014
138 0.005002
145 0.002985
154 0.005984
156 0.005984
110 0.003962
46 0.007031
31 0.003991
45 0.003974
64 0.003987
77 0.007028
88 0.006015
97 0.003985
101 0.003992
104 0.002994
106 0.006958
111 0.005992
120 0.004008
130 0.006982
140 0.003994
147 0.004008
156 0.003993
164 0.006981
160 0.006979
100 0.003942
53 0.002958
36 0.00399
46 0.005983
62 0.005976
80 0.002977
92 0.007026
96 0.003962
97 0.022902
97 0.0
101 0.006982
109 0.006986
122 0.003992
132 0.003995
142 0.003993
154 0.007978
160 0.006986
154 0.004988
93 0.007979
41 0.004956
38 0.004966
55 0.004971
67 0.00698
71 0.006981
87 0.004987
90 0.004985
92 0.003988
93 0.006981
96 0.006982
103 0.007984
114 0.007979
124 0.007978
136 0.004987
143 0.004985
150 0.004985
151 0.007979
99 0.007965
51 0.004994
30 0.004986
36 0.005996
47 0.007942
47 0.007947
64 0.007979
84 0.007978
97 0.00501
98 0.004988
97 0.004966
104 0.007975
111 0.007978
119 0.004985
127 0.004973
137 0.005992
146 0.006974
153 0.00698
123 0.00704
71 0.006979
36 0.005963
30 0.005995
44 0.005986
67 0.006981
78 0.007013
89 0.005947
97 0.005984
101 0.004986
109 0.007969
114 0.007978
128 0.00798
139 0.007978
153 0.006978
160 0.005978
170 0.00598
179 0.006982
185 0.006993
177 0.005984
129 0.005989
76 0.005989
54 0.006983
64 0.006965
87 0.007948
101 0.005983
110 0.006013
113 0.006014
114 0.005987
114 0.005986
113 0.007022
120 0.006979
129 0.006951
140 0.006948
149 0.007036
159 0.006985
168 0.007021
137 0.007018
73 0.005989
54 0.005972
55 0.005981
71 0.006012
85 0.006015
97 0.006016
108 0.005981
111 0.005985
115 0.005982
114 0.005977
124 0.005985
131 0.005946
143 0.006015
161 0.005988
175 0.005976
185 0.005989
187 0.006023
157 0.00602
95 0.005979
71 0.005985
74 0.005989
90 0.006017
112 0.005989
122 0.006017
131 0.005971
138 0.005986
139 0.004984
143 0.004983
147 0.005019
153 0.005992
165 0.005987
172 0.006021
180 0.005988
187 0.006002
176 0.005984
131 0.00598
91 0.006025
80 0.006039
97 0.005976
113 0.005985
124 0.006018
135 0.006014
146 0.005983
147 0.004991
151 0.004978
160 0.004989
162 0.004992
170 0.004989
176 0.004988
187 0.004991
193 0.004987
193 0.005967
160 0.005023
112 0.004988
79 0.005955
83 0.005012
100 0.005008
115 0.005031
138 0.004991
146 0.004988
150 0.004977
150 0.004939
151 0.004972
156 0.004981
166 0.004987
176 0.004956
192 0.004982
199 0.003991
194 0.003988
154 0.004993
84 0.003984
76 0.00399
88 0.00399
104 0.005071
125 0.004987
140 0.004988
148 0.004969
148 0.004006
144 0.004541
144 0.003992
150 0.004018
162 0.003989
182 0.00495
188 0.008003
192 0.001013
184 0.001002
110 0.0
69 0.002992
78 0.004957
95 0.003995
111 0.002992
130 0.003992
139 0.003991
144 0.003956
145 0.003957
149 0.003992
157 0.004036
159 0.003959
169 0.00396
178 0.00394
181 0.00399
150 0.003029
100 0.004032
66 0.003024
71 0.002992
83 0.003027
107 0.00299
120 0.003041
129 0.004022
133 0.003957
135 0.00299
138 0.004031
144 0.003989
152 0.003027
161 0.001993
170 0.004019
179 0.003022
181 0.004047
120 0.001995
76 0.003026
61 0.002983
71 0.003989
96 0.003996
110 0.003958
121 0.003005
129 0.002992
132 0.003025
133 0.003042
138 0.002997
146 0.00302
162 0.002994
171 0.003024
179 0.002992
188 0.002993
169 0.002987
122 0.002992
85 0.002026
76 0.002028
89 0.001996
113 0.001998
128 0.002032
142 0.002051
144 0.003021
142 0.002025
141 0.00298
143 0.002992
147 0.003023
157 0.002028
164 0.001994
171 0.001964
174 0.001995
145 0.002029
83 0.002009
60 0.001992
73 0.002993
91 0.002025
104 0.002042
117 0.001953
125 0.002005
130 0.000974
130 0.002992
132 0.002041
138 0.002031
145 0.002029
158 0.002991
168 0.002037
181 0.002012
168 0.002039
123 0.002025
79 0.002023
64 0.002023
79 0.000997
94 0.000998
109 0.000997
122 0.001019
130 0.002031
128 0.000997
126 0.000998
129 0.002026
135 0.001991
142 0.002006
154 0.002035
166 0.002025
177 0.002027
181 0.001994
160 0.001004
115 0.002025
75 0.002041
64 0.001985
81 0.002045
106 0.000982
116 0.001046
116 0.001027
112 0.000998
107 0.00205
105 0.002026
110 0.002061
118 0.001
128 0.002029
136 0.002042
145 0.0
152 0.0
150 0.0
116 0.000998
71 0.001
49 0.0
52 0.0
70 0.0
85 0.0
98 0.000998
106 0.001004
110 0.000998
114 0.000967
117 0.000956
125 0.000997
137 0.0
146 0.0
154 0.0
161 0.0
168 0.0
166 0.0
130 0.0
86 0.0
61 0.0
62 0.0
79 0.001001
101 0.000998
109 0.0
114 0.0
112 0.0
110 0.0
113 0.0
122 0.0
131 0.0
139 0.0
149 0.0
154 0.0
162 0.0
136 0.000967
94 0.002993
66 0.000949
63 0.000997
81 0.0
98 0.001031
115 0.001994
132 0.002026
139 0.0
137 0.0
137 0.0
142 0.003029
154 0.0
163 0.002992
166 0.016955
175 0.000998
197 0.0
191 0.0
155 0.003017
108 0.003019
80 0.000957
88 0.0
103 0.001016
120 0.002028
141 0.0
147 0.003053
145 0.003002
139 0.0
140 0.0
148 0.0
157 0.002994
165 0.002987
177 0.0
185 0.0
173 0.0
133 0.002961
68 0.0
65 0.003022
81 0.004035
105 0.0
122 0.000971
133 0.0
136 0.002977
134 0.002027
131 0.0
134 0.0
141 0.0
