164 0.024958
161 0.007949
159 0.006982
173 0.006016
177 0.006985
177 0.006982
140 0.00701
67 0.006982
48 0.006949
51 0.006948
63 0.00603
87 0.005985
104 0.006017
114 0.006981
103 0.006982
98 0.005983
91 0.006009
90 0.006948
105 0.006981
117 0.006979
132 0.007979
134 0.007942
146 0.006934
158 0.006982
160 0.006982
156 0.00698
169 0.008017
171 0.00697
169 0.007022
126 0.006984
78 0.007029
53 0.006967
45 0.006982
57 0.006982
76 0.006981
92 0.007948
119 0.00795
116 0.007979
111 0.007979
93 0.007009
96 0.00696
108 0.006982
122 0.006982
131 0.006981
138 0.007978
140 0.006981
148 0.007015
156 0.007979
162 0.007979
165 0.007978
170 0.007979
147 0.007979
64 0.007978
44 0.006981
42 0.006981
62 0.006984
90 0.007968
103 0.007991
111 0.006981
107 0.007007
91 0.006974
82 0.007979
85 0.007979
99 0.007943
104 0.007979
123 0.007978
129 0.007979
140 0.007947
142 0.007978
151 0.007978
152 0.00698
140 0.00698
81 0.007962
51 0.007978
19 0.007978
19 0.007978
41 0.007989
68 0.006943
78 0.006981
85 0.006982
77 0.006981
68 0.006983
74 0.006988
78 0.006981
83 0.007018
100 0.007028
113 0.007974
120 0.007942
130 0.007979
136 0.00698
139 0.003991
145 0.005985
122 0.000994
62 0.005987
11 0.006981
9 0.00698
26 0.006981
47 0.006981
58 0.006981
71 0.007978
73 0.007967
70 0.007979
61 0.007948
72 0.010971
76 0.006978
92 0.006981
98 0.006981
112 0.006983
123 0.006982
132 0.006982
135 0.006986
142 0.006978
149 0.006981
139 0.007979
107 0.007976
24 0.007036
13 0.007016
16 0.007014
30 0.006982
48 0.007017
63 0.007022
61 0.006981
58 0.00702
60 0.006946
57 0.006978
67 0.006983
77 0.006018
92 0.007017
108 0.007092
116 0.006981
119 0.007017
131 0.006981
132 0.006988
129 0.007019
139 0.007015
146 0.006988
150 0.007019
123 0.006982
52 0.006016
30 0.005969
27 0.005984
39 0.005972
49 0.005941
75 0.006019
81 0.005984
86 0.008976
82 0.000996
81 0.006982
86 0.005983
93 0.006981
106 0.006981
116 0.005983
122 0.005985
127 0.005983
139 0.005985
145 0.005984
144 0.005984
154 0.005984
163 0.006038
163 0.00595
169 0.005984
137 0.007014
79 0.007024
47 0.005985
42 0.005978
58 0.006022
74 0.00602
94 0.006031
107 0.006032
112 0.005995
98 0.006029
92 0.005987
99 0.005984
102 0.006986
118 0.005985
125 0.005984
135 0.006016
140 0.006019
153 0.006024
153 0.006018
162 0.006099
172 0.006016
169 0.006014
127 0.005983
60 0.006112
55 0.00598
66 0.006021
81 0.005969
106 0.005984
126 0.005984
127 0.005984
117 0.005986
111 0.004986
102 0.006019
100 0.005023
117 0.005987
133 0.00602
145 0.004942
150 0.005986
162 0.005984
170 0.006034
172 0.005986
162 0.005973
102 0.005984
53 0.006017
41 0.005991
46 0.005984
63 0.00598
92 0.004991
115 0.004986
105 0.005021
98 0.004987
92 0.005987
94 0.005017
92 0.004986
110 0.005985
120 0.006017
123 0.006018
131 0.006019
148 0.004988
156 0.005007
143 0.004894
76 0.004986
42 0.005058
20 0.004986
23 0.004987
40 0.004989
67 0.004992
75 0.004987
83 0.005026
85 0.006019
73 0.00598
71 0.005984
78 0.005984
96 0.004986
103 0.005023
109 0.004987
122 0.004986
125 0.005019
132 0.005023
139 0.004974
123 0.004985
72 0.004986
26 0.004948
22 0.005022
26 0.005021
42 0.005022
58 0.004996
61 0.004987
70 0.005021
76 0.005022
68 0.004953
71 0.00395
83 0.005018
92 0.005052
107 0.004986
110 0.005023
122 0.005031
131 0.00502
130 0.005023
142 0.00503
144 0.004987
109 0.004988
62 0.004987
35 0.00503
31 0.00399
34 0.004023
54 0.004033
63 0.004035
73 0.003989
79 0.004031
74 0.005019
80 0.005021
87 0.005052
91 0.004987
97 0.00502
113 0.004987
120 0.00403
125 0.004024
138 0.003989
144 0.00399
153 0.004023
153 0.003957
158 0.003955
165 0.004989
169 0.00399
169 0.00402
159 0.004986
94 0.005028
53 0.005045
40 0.004987
48 0.005003
63 0.005019
62 0.004023
66 0.003991
81 0.004024
80 0.004021
74 0.004012
76 0.004987
86 0.003993
90 0.004034
103 0.00399
118 0.003991
129 0.003991
134 0.002994
135 0.002992
142 0.004987
147 0.003983
146 0.003991
150 0.004027
159 0.00399
168 0.00399
170 0.004022
180 0.00399
186 0.003943
161 0.00399
109 0.003991
66 0.003991
51 0.003021
58 0.002995
67 0.004025
80 0.00402
91 0.00399
98 0.003986
91 0.004022
91 0.004038
88 0.003948
100 0.003944
102 0.003989
118 0.004022
128 0.002992
129 0.002996
137 0.002968
151 0.002992
150 0.002992
149 0.002992
157 0.002992
161 0.002992
157 0.002992
164 0.002992
178 0.002992
178 0.003989
145 0.00399
82 0.00399
68 0.003992
67 0.002992
77 0.002997
84 0.002994
107 0.002992
114 0.002999
112 0.002993
101 0.003028
98 0.004012
107 0.003991
112 0.002992
126 0.003038
138 0.002997
142 0.003027
146 0.002994
156 0.002992
160 0.002946
158 0.003048
167 0.002992
165 0.002993
179 0.003022
167 0.003022
122 0.002992
86 0.002027
69 0.002996
67 0.003991
84 0.002993
100 0.002994
118 0.002944
116 0.003022
115 0.002992
107 0.003026
101 0.002992
106 0.002956
111 0.002958
124 0.002992
132 0.002993
139 0.001969
148 0.002002
154 0.002999
154 0.002993
161 0.003027
152 0.003024
102 0.002992
67 0.002992
47 0.002992
53 0.002992
71 0.002993
86 0.00203
104 0.001995
118 0.001995
108 0.001995
95 0.001995
98 0.002992
97 0.002992
110 0.003031
113 0.002992
127 0.002993
139 0.002024
144 0.002025
153 0.002992
158 0.003045
161 0.002992
154 0.002991
119 0.003027
61 0.002992
31 0.001987
33 0.001995
55 0.001995
70 0.002024
89 0.002028
94 0.001996
92 0.001995
85 0.001982
80 0.000996
79 0.002992
92 0.001994
108 0.003033
122 0.002992
129 0.001995
139 0.002027
147 0.001994
151 0.001995
150 0.002001
159 0.001994
133 0.001995
73 0.001995
39 0.001994
33 0.001995
35 0.001995
62 0.000998
79 0.001995
95 0.001994
91 0.002031
80 0.001995
79 0.001994
82 0.001995
85 0.001995
99 0.00203
114 0.001995
126 0.001996
133 0.000998
146 0.000997
155 0.001995
156 0.002039
155 0.002049
158 0.001994
171 0.001996
130 0.001995
77 0.002028
42 0.001995
40 0.001996
42 0.001995
66 0.001995
81 0.001029
97 0.000963
96 0.000997
87 0.000998
85 0.001017
94 0.001018
94 0.000997
108 0.000998
122 0.001975
127 0.00199
133 0.001995
141 0.001963
146 0.000998
152 0.001038
150 0.000997
159 0.000984
169 0.000997
173 0.000997
131 0.001008
80 0.000998
51 0.001956
41 0.00196
45 0.002013
73 0.001024
94 0.001002
102 0.001979
102 0.001995
95 0.000998
95 0.001048
91 0.000964
105 0.000998
115 0.001008
126 0.000998
131 0.000997
144 0.000989
153 0.000998
160 0.000998
160 0.000997
162 0.000998
169 0.000998
170 0.000998
170 0.000998
155 0.000998
89 0.000998
52 0.000998
44 0.000998
61 0.000998
89 0.000996
105 0.000998
116 0.000865
118 0.0
107 0.0
95 0.0
95 0.0
103 0.0
114 0.001034
129 0.000998
138 0.000997
152 0.000998
164 0.000996
164 0.000996
164 0.000997
178 0.000998
179 0.0
176 0.0
183 0.0
165 0.0
89 0.0
59 0.001041
63 0.000998
65 0.000996
92 0.001004
113 0.000998
128 0.000997
127 0.000999
110 0.0
104 0.0
107 0.0
113 0.0
125 0.0
135 0.0
141 0.0
148 0.0
155 0.0
159 0.00101
167 0.000997
168 0.000998
155 0.0
109 0.0
67 0.0
52 0.0
65 0.0
77 0.0
98 0.0
114 0.0
124 0.000961
116 0.000999
111 0.0
98 0.000998
106 0.0
121 0.0
128 0.0
135 0.0
155 0.0
160 0.0
156 0.0
163 0.0
171 0.0
134 0.0
70 0.0
41 0.000997
37 0.000998
42 0.0
59 0.0
79 0.0
103 0.0
105 0.0
100 0.0
93 0.0
89 0.0
91 0.0
108 0.0
121 0.000999
129 0.000998
137 0.0
153 0.0
152 0.0
151 0.0
156 0.0
140 0.0
55 0.001018
20 0.0
26 0.0
49 0.0
65 0.000998
81 0.000998
99 0.0
95 0.0
86 0.0
76 0.000998
78 0.002021
93 0.0
104 0.00098
116 0.0
125 0.0
141 0.0
141 0.001012
142 0.000997
153 0.0
158 0.0
142 0.000982
95 0.000998
53 0.000997
22 0.000992
35 0.00203
58 0.0
78 0.0
85 0.0
86 0.001033
86 0.001033
81 0.001004
70 0.0
84 0.000998
96 0.0
106 0.001003
115 0.001996
128 0.001998
132 0.001971
136 0.001013
141 0.0
147 0.0
150 0.000998
158 0.000998
102 0.0
57 0.001
32 0.001028
30 0.000998
38 0.002027
66 0.001993
86 0.001992
94 0.001003
80 0.001006
79 0.001034
83 0.000999
83 0.000997
82 0.001995
111 0.0
117 0.000998
121 0.001995
127 0.001996
140 0.00198
148 0.001994
146 0.000998
153 0.000992
161 0.00103
132 0.002028
80 0.001032
43 0.001089
34 0.0
43 0.001022
64 0.002003
86 0.001995
105 0.001991
102 0.001995
86 0.001
88 0.000997
90 0.000998
97 0.002026
102 0.001996
119 0.0
129 0.000966
138 0.000998
141 0.002032
150 0.001996
156 0.00098
153 0.001003
132 0.001016
84 0.000997
52 0.000998
39 0.001988
53 0.001991
77 0.001014
95 0.001029
109 0.000982
120 0.002
109 0.002028
94 0.001995
90 0.002003
102 0.001995
113 0.001996
126 0.001964
136 0.002031
146 0.001995
151 0.000998
160 0.000994
167 0.001065
165 0.001995
162 0.000978
114 0.001993
64 0.002993
39 0.001996
41 0.001995
60 0.002031
81 0.002027
103 0.002025
112 0.002034
109 0.001029
102 0.001
93 0.002023
101 0.000975
106 0.002983
119 0.002989
132 0.001994
135 0.002042
146 0.002025
157 0.002992
159 0.001995
157 0.002025
169 0.001031
153 0.001028
94 0.001996
36 0.001961
40 0.002985
55 0.002995
71 0.001989
93 0.002052
113 0.002053
107 0.002992
96 0.003037
91 0.001958
88 0.000991
97 0.002026
106 0.001995
124 0.002005
133 0.002996
144 0.002978
147 0.00299
157 0.001994
156 0.002025
161 0.002991
158 0.003018
105 0.002028
58 0.00103
34 0.00103
35 0.002987
56 0.001994
88 0.002968
97 0.002995
103 0.001991
105 0.002012
92 0.002023
78 0.003008
89 0.002992
103 0.001997
106 0.002991
124 0.003029
139 0.002986
140 0.002968
150 0.001985
147 0.002994
153 0.00299
162 0.002
130 0.001994
84 0.001995
45 0.002992
39 0.002992
44 0.003048
69 0.003038
85 0.003024
108 0.002992
113 0.00299
94 0.002992
88 0.003003
87 0.002025
95 0.001996
106 0.002968
124 0.002993
133 0.002992
142 0.003043
148 0.003028
153 0.003022
161 0.003046
157 0.002981
145 0.003
110 0.002981
51 0.001996
42 0.002038
53 0.002031
73 0.003045
84 0.004025
114 0.002975
114 0.003021
105 0.003021
88 0.003023
93 0.002984
102 0.00399
112 0.003955
122 0.003021
137 0.001985
137 0.003025
145 0.00303
149 0.003989
162 0.002992
158 0.002963
154 0.002993
71 0.002992
51 0.002983
47 0.003982
53 0.004041
86 0.003022
102 0.003024
117 0.003026
113 0.004023
107 0.00402
93 0.004025
90 0.003036
104 0.003991
116 0.003009
134 0.002993
139 0.004023
142 0.00401
153 0.002991
157 0.002993
158 0.002993
155 0.004989
118 0.00499
51 0.004032
36 0.004023
45 0.003988
68 0.002993
85 0.002962
96 0.004008
102 0.004007
98 0.002994
82 0.003027
82 0.003026
88 0.00399
104 0.004987
112 0.004021
132 0.003017
145 0.002998
145 0.003026
147 0.002955
148 0.003983
155 0.004036
140 0.003025
84 0.003033
45 0.002979
27 0.004987
29 0.005043
54 0.004021
73 0.003027
97 0.004041
93 0.003982
81 0.002971
79 0.004003
84 0.00401
88 0.004023
101 0.003025
102 0.003991
121 0.004988
128 0.004023
136 0.005051
146 0.003986
152 0.004021
148 0.003976
150 0.004026
120 0.004981
73 0.005028
33 0.004038
40 0.004021
56 0.004028
70 0.004034
84 0.004979
102 0.004987
95 0.004019
94 0.005017
85 0.004025
93 0.004022
103 0.003988
109 0.005023
119 0.005985
139 0.00399
143 0.004009
142 0.003971
151 0.005018
161 0.004987
159 0.00403
152 0.005025
87 0.005021
57 0.00398
44 0.004983
47 0.005015
68 0.005984
99 0.003963
109 0.004002
122 0.005024
115 0.004987
104 0.006021
97 0.004992
106 0.004986
123 0.004017
132 0.004019
137 0.004985
143 0.005981
151 0.005983
150 0.005019
158 0.005022
157 0.004986
131 0.00598
83 0.005997
44 0.005012
40 0.005024
65 0.004011
86 0.004026
99 0.004971
110 0.005988
109 0.006018
89 0.004986
89 0.005023
97 0.005018
99 0.005984
105 0.006017
126 0.006015
133 0.005975
147 0.004027
144 0.005027
157 0.004913
162 0.006016
140 0.006017
68 0.005019
38 0.004955
24 0.00504
28 0.005984
45 0.006031
74 0.004988
82 0.006009
81 0.005984
78 0.006026
74 0.005041
83 0.006022
91 0.005984
107 0.004985
111 0.004986
121 0.00499
124 0.006012
133 0.005998
142 0.006023
151 0.006024
149 0.004994
138 0.004992
90 0.005024
42 0.007023
19 0.007016
31 0.005952
44 0.006015
54 0.006013
75 0.005984
91 0.005984
84 0.005966
78 0.005986
78 0.005997
87 0.00598
95 0.005986
102 0.007027
117 0.006981
127 0.005974
130 0.006015
137 0.005977
147 0.006983
145 0.006984
156 0.007028
159 0.007012
119 0.006022
66 0.006018
29 0.005986
24 0.006018
30 0.00598
53 0.004983
71 0.00598
81 0.00602
92 0.006981
86 0.006982
77 0.007003
76 0.007012
95 0.005017
107 0.004989
110 0.00596
124 0.007021
135 0.007068
138 0.004987
145 0.005018
155 0.00603
151 0.006981
149 0.007016
156 0.006986
127 0.007013
80 0.007042
37 0.005988
40 0.006021
55 0.005994
72 0.007018
87 0.006982
112 0.007014
102 0.006972
93 0.006013
88 0.006982
90 0.005985
100 0.007026
115 0.006975
123 0.006008
138 0.006018
148 0.006016
152 0.006971
145 0.007948
155 0.007012
157 0.007012
155 0.007011
123 0.008013
64 0.005966
43 0.007971
51 0.007972
67 0.005984
91 0.005987
106 0.005992
118 0.006982
114 0.007979
106 0.00702
92 0.007011
96 0.007003
115 0.007978
132 0.005961
138 0.007988
149 0.00798
158 0.005978
155 0.006002
156 0.006014
164 0.006982
167 0.007979
133 0.006985
83 0.006995
54 0.006978
50 0.006979
67 0.006983
86 0.007974
109 0.007981
114 0.005972
107 0.00702
96 0.005981
89 0.007978
88 0.006979
100 0.006981
112 0.007018
124 0.007014
143 0.007015
142 0.006957
155 0.007978
161 0.007975
164 0.007017
156 0.006988
136 0.006022
87 0.007979
48 0.007979
36 0.007015
59 0.006942
75 0.007014
101 0.006978
103 0.007003
105 0.008001
92 0.007984
86 0.006974
95 0.006979
106 0.006968
114 0.007013
132 0.007015
141 0.007017
143 0.007013
147 0.006981
157 0.006977
159 0.007005
166 0.006965
133 0.007967
89 0.007017
53 0.007016
44 0.007017
52 0.007982
84 0.007023
99 0.007021
122 0.007022
125 0.006976
108 0.006984
101 0.006986
95 0.006978
105 0.00697
117 0.007014
133 0.006963
145 0.006976
153 0.007014
165 0.007017
166 0.006987
176 0.007013
172 0.007025
114 0.006984
74 0.006955
50 0.00698
60 0.006976
78 0.00794
97 0.00702
115 0.006979
134 0.00703
121 0.007018
108 0.007018
107 0.007022
108 0.007013
119 0.00697
127 0.006979
140 0.006975
154 0.005992
150 0.006937
164 0.006025
172 0.006015
162 0.006016
113 0.006984
67 0.005979
46 0.007012
46 0.007016
76 0.006999
97 0.006981
117 0.006961
118 0.006999
109 0.00698
100 0.006969
97 0.006982
98 0.006017
105 0.005981
116 0.005986
123 0.006017
132 0.006022
143 0.005996
149 0.005978
147 0.006973
97 0.006985
49 0.00698
37 0.006983
42 0.00698
47 0.006982
67 0.006015
92 0.006016
95 0.006026
90 0.006021
81 0.005983
85 0.00599
87 0.005989
93 0.005984
106 0.006981
124 0.006985
125 0.006944
136 0.007014
149 0.006029
149 0.006017
98 0.00602
43 0.005981
112 0.005982
113 0.005979
113 0.005981
113 0.005985
113 0.005015
113 0.005985
113 0.005977
113 0.006033
113 0.006023
113 0.006003
113 0.006023
113 0.005983
113 0.005967
113 0.005973
113 0.005962
114 0.00605
119 0.005989
103 0.005977
63 0.004995
93 0.006015
113 0.006023
113 0.005026
113 0.005015
113 0.004986
113 0.005997
113 0.005971
113 0.005982
113 0.005965
113 0.005981
113 0.005978
113 0.005976
113 0.006016
113 0.005983
113 0.004984
116 0.005018
120 0.00501
122 0.004988
130 0.006
140 0.005985
141 0.005989
105 0.005984
99 0.005984
113 0.004979
113 0.004978
113 0.00502
113 0.00502
113 0.005022
113 0.004986
113 0.004985
113 0.004987
113 0.005999
113 0.005996
113 0.005978
113 0.005958
113 0.005952
113 0.006022
113 0.006028
121 0.005022
120 0.00504
131 0.004985
140 0.004989
148 0.004953
150 0.004987
138 0.004957
108 0.004975
60 0.004998
110 0.004986
113 0.005018
113 0.005035
113 0.003991
113 0.005016
113 0.004983
113 0.004987
113 0.005074
113 0.004992
113 0.004952
113 0.00499
113 0.004982
113 0.003976
113 0.005023
113 0.005026
112 0.00502
112 0.003987
117 0.003996
128 0.004052
126 0.005017
86 0.004986
54 0.004986
47 0.00497
45 0.004994
55 0.00399
75 0.005019
88 0.00502
87 0.003998
86 0.003991
78 0.00399
86 0.003991
84 0.003991
98 0.003991
114 0.003982
119 0.005006
124 0.004993
133 0.003985
135 0.004983
138 0.00502
139 0.004025
140 0.004007
111 0.003987
72 0.003955
46 0.003987
95 0.00396
113 0.003995
113 0.004906
113 0.004986
113 0.004
113 0.004027
113 0.004028
113 0.004029
113 0.003997
113 0.004025
113 0.003956
113 0.003994
113 0.003984
113 0.003992
113 0.002992
113 0.003987
118 0.003991
119 0.002993
130 0.003022
113 0.004023
44 0.00402
91 0.003957
113 0.003954
113 0.004003
113 0.003988
113 0.003992
113 0.003974
113 0.003983
113 0.003997
113 0.003017
113 0.004023
113 0.00399
113 0.003991
113 0.00396
113 0.003994
113 0.003988
107 0.003991
112 0.003986
116 0.003992
125 0.003951
127 0.003962
134 0.004023
131 0.00399
84 0.004014
35 0.002992
112 0.003959
113 0.003011
113 0.003003
113 0.003958
113 0.003988
113 0.002992
113 0.003981
113 0.003998
113 0.003018
113 0.003043
113 0.003002
113 0.002983
113 0.002995
113 0.00301
113 0.002995
117 0.003957
127 0.003954
129 0.002995
133 0.003959
146 0.002997
150 0.002992
148 0.004023
111 0.003026
46 0.002996
35 0.002993
93 0.003001
113 0.002993
113 0.002998
113 0.00396
113 0.002991
113 0.003964
113 0.003012
113 0.003071
113 0.00296
113 0.002992
113 0.003013
113 0.002966
113 0.002958
113 0.002976
113 0.003
116 0.002994
114 0.002992
116 0.002988
124 0.002977
133 0.002992
140 0.003991
139 0.003029
62 0.001945
32 0.001999
28 0.002002
36 0.002996
65 0.002985
81 0.003
89 0.002991
91 0.00299
92 0.00298
76 0.003026
83 0.003013
93 0.002995
103 0.001996
116 0.001999
120 0.002
132 0.001992
137 0.001997
138 0.001995
145 0.002993
152 0.002975
150 0.002996
144 0.002992
114 0.002992
45 0.001996
32 0.001996
36 0.001995
56 0.002002
79 0.001993
91 0.001998
103 0.003002
104 0.001996
93 0.002994
85 0.002996
96 0.002026
103 0.002135
120 0.001985
123 0.001998
134 0.001993
147 0.001991
155 0.00199
150 0.001967
162 0.001992
169 0.001995
167 0.000967
137 0.000966
76 0.003041
39 0.002042
28 0.001992
45 0.001989
66 0.001996
83 0.001998
92 0.002005
90 0.001958
90 0.002002
82 0.001991
76 0.001998
91 0.000989
106 0.001001
114 0.001003
127 0.002006
141 0.001992
149 0.001995
149 0.001978
148 0.001981
159 0.00196
160 0.001981
163 0.001995
169 0.001964
149 0.001994
73 0.001995
44 0.000998
43 0.001009
63 0.000995
80 0.001001
95 0.000993
100 0.001019
108 0.001989
96 0.002011
93 0.001995
93 0.002016
109 0.001992
117 0.001956
129 0.001041
146 0.000994
152 0.001
158 0.000993
159 0.001002
163 0.000987
169 0.001993
164 0.000999
168 0.001997
182 0.002007
178 0.001994
152 0.001013
102 0.000999
53 0.000991
50 0.000997
59 0.000999
81 0.000994
104 0.001019
114 0.000997
118 0.000986
108 0.00199
95 0.001015
92 0.001025
106 0.001
113 0.000998
131 0.001005
136 0.001004
144 0.001001
149 0.000994
160 0.000985
160 0.000984
164 0.0
167 0.001992
151 0.0
101 0.000946
59 0.0
51 0.0
68 0.000995
85 0.001001
108 0.000999
123 0.000995
117 0.000977
103 0.0
99 0.000994
93 0.000994
103 0.0
115 0.0
125 0.0
146 0.0
147 0.0
153 0.0
160 0.0
158 0.0
141 0.0
99 0.001
45 0.000987
30 0.000992
42 0.0
61 0.0
84 0.000999
111 0.0
110 0.0
97 0.0
90 0.0
90 0.0
91 0.0
102 0.0
117 0.000999
124 0.000996
134 0.0
147 0.0
145 0.0
150 0.0
122 0.0
68 0.0
38 0.0
21 0.0
112 0.0
113 0.0
113 0.0
113 0.0
113 0.0
113 0.0
113 0.0
113 0.0
113 0.0
113 0.0
113 0.0
113 0.0
113 0.0
113 0.0
113 0.001013
117 0.001016
121 0.0
118 0.0
87 0.0
14 0.0
112 0.0
113 0.0
113 0.0
113 0.0
113 0.0
113 0.0
113 0.001003
113 0.001001
113 0.0
113 0.0
113 0.0
113 0.000996
113 0.0
113 0.000996
113 0.000992
114 0.0
122 0.0
124 0.0
134 0.000996
138 0.001959
146 0.0
152 0.0
153 0.00101
87 0.000997
109 0.0
113 0.002003
113 0.001997
113 0.0
113 0.0
113 0.0
113 0.000999
113 0.001003
113 0.0
113 0.0
113 0.0
113 0.0
113 0.000991
113 0.001005
113 0.002009
114 0.000986
121 0.0
122 0.0
121 0.000995
126 0.000994
133 0.0
137 0.0
141 0.0
78 0.0
51 0.000965
43 0.001015
109 0.001001
113 0.000965
113 0.000982
113 0.000983
113 0.001
113 0.001011
113 0.0
113 0.0
113 0.000997
113 0.0
113 0.0
113 0.000996
113 0.000997
113 0.0
113 0.0
111 0.0
114 0.001016
128 0.002003
100 0.0
55 0.000997
21 0.001997
89 0.0
113 0.0
113 0.0
113 0.000979
113 0.000999
113 0.0
113 0.0
113 0.0
113 0.000997
113 0.001956
113 0.000964
113 0.001981
113 0.0
113 0.0
113 0.0
113 0.002
120 0.001998
95 0.0
51 0.000989
17 0.001004
107 0.000989
113 0.002003
113 0.0
113 0.001966
113 0.0
113 0.000978
113 0.00099
113 0.003004
113 0.001028
113 0.001037
113 0.0
113 0.0
113 0.001029
113 0.002008
113 0.000997
117 0.00199
117 0.001015
118 0.000998
85 0.0
96 0.001993
113 0.001991
113 0.000965
113 0.0
113 0.00197
113 0.001992
113 0.00197
113 0.000992
113 0.001048
113 0.0
113 0.000992
113 0.000996
113 0.002001
113 0.002027
113 0.000996
112 0.000994
112 0.000995
121 0.001995
128 0.002008
128 0.000943
127 0.001993
73 0.000985
95 0.000971
113 0.001004
113 0.001996
113 0.001996
113 0.000997
113 0.001977
113 0.001001
113 0.001992
113 0.001989
113 0.001006
113 0.00299
113 0.001992
113 0.000952
113 0.001995
113 0.003002
113 0.002982
112 0.001008
120 0.000999
129 0.000997
134 0.002003
136 0.001991
144 0.000994
146 0.002984
156 0.002
131 0.001036
74 0.00201
113 0.002991
113 0.002977
113 0.000996
113 0.001002
113 0.001005
113 0.002993
113 0.001987
113 0.001001
113 0.003012
113 0.001992
113 0.001993
113 0.001961
113 0.002988
113 0.002992
113 0.001982
125 0.000973
128 0.000982
121 0.002998
129 0.003
136 0.002999
143 0.002976
142 0.001966
153 0.002007
162 0.001961
163 0.002991
120 0.003009
62 0.00298
110 0.00203
113 0.001995
113 0.004022
113 0.003967
113 0.002995
113 0.003987
113 0.002001
113 0.001962
113 0.002017
113 0.003008
113 0.002995
113 0.00201
113 0.002993
113 0.002003
113 0.002997
121 0.003997
123 0.002026
126 0.003989
124 0.003989
134 0.001961
143 0.002006
139 0.001991
139 0.002976
104 0.003025
42 0.002007
30 0.001994
112 0.003011
113 0.00399
113 0.002973
113 0.004
113 0.003994
113 0.002986
113 0.001997
113 0.002007
113 0.003001
113 0.003984
113 0.001979
113 0.002992
113 0.002992
113 0.002988
111 0.002999
117 0.003983
121 0.003991
126 0.002953
108 0.001967
63 0.003003
37 0.003992
89 0.00402
113 0.002955
113 0.002004
113 0.002638
113 0.003983
113 0.003022
113 0.004019
113 0.004043
113 0.00299
113 0.002994
113 0.001974
113 0.002994
113 0.003994
113 0.002993
113 0.002987
104 0.002988
115 0.003995
108 0.002991
69 0.003987
25 0.003998
112 0.002997
113 0.001964
113 0.002992
113 0.005016
113 0.004023
113 0.002965
113 0.002991
113 0.002996
113 0.003999
113 0.00298
113 0.003967
113 0.00399
113 0.003986
113 0.003991
113 0.003962
114 0.005018
119 0.005021
124 0.002993
86 0.002958
45 0.002997
89 0.004008
113 0.002993
113 0.003957
113 0.00406
113 0.004021
113 0.003999
113 0.002995
113 0.004994
113 0.004995
113 0.002975
113 0.002994
113 0.002991
113 0.004985
113 0.002979
113 0.003989
111 0.004027
121 0.002988
119 0.003042
115 0.003987
75 0.005021
39 0.004986
112 0.004018
113 0.003991
113 0.002984
113 0.002994
113 0.003035
113 0.004042
113 0.005005
113 0.004022
113 0.003985
113 0.003988
113 0.004991
113 0.005085
113 0.003987
113 0.003988
113 0.003999
121 0.004027
118 0.002977
123 0.00501
135 0.006019
118 0.00298
78 0.003991
96 0.003993
113 0.005018
113 0.005013
113 0.003979
113 0.00402
113 0.00399
113 0.00496
113 0.00399
113 0.004023
113 0.005025
113 0.005993
113 0.003985
113 0.003987
113 0.003993
113 0.00498
113 0.00502
121 0.002992
118 0.003964
124 0.003991
131 0.004004
139 0.003962
144 0.004997
138 0.004993
100 0.002985
57 0.003007
110 0.004997
113 0.006018
113 0.005019
113 0.004036
113 0.00399
113 0.003968
113 0.004015
113 0.003988
113 0.005974
113 0.006018
113 0.003987
113 0.003987
113 0.00399
113 0.005966
113 0.006016
110 0.004988
120 0.004004
125 0.005019
127 0.004983
136 0.004023
131 0.006023
143 0.007012
127 0.003955
83 0.004007
47 0.005038
94 0.00698
113 0.007011
113 0.004992
113 0.004996
113 0.004945
113 0.004989
113 0.004025
113 0.00602
113 0.00602
113 0.005985
113 0.004024
113 0.00603
113 0.007012
113 0.007015
113 0.00499
113 0.004991
122 0.00499
117 0.004986
125 0.004998
140 0.00599
136 0.006027
87 0.005
56 0.005004
39 0.004953
42 0.005996
52 0.007017
81 0.005019
95 0.004986
98 0.00602
88 0.004985
82 0.004993
89 0.007021
92 0.007032
102 0.00498
112 0.00499
125 0.004993
123 0.007012
130 0.006993
141 0.005993
148 0.007013
145 0.005985
147 0.005017
123 0.005018
77 0.006028
44 0.007014
48 0.005989
57 0.004988
73 0.006002
96 0.00701
114 0.00702
108 0.005985
99 0.007017
90 0.005983
98 0.005987
104 0.005033
113 0.007013
122 0.007019
136 0.004986
138 0.004993
142 0.005991
149 0.007012
158 0.007017
158 0.006017
136 0.006982
73 0.005978
44 0.004985
35 0.004984
44 0.006979
61 0.007014
86 0.005984
98 0.005
103 0.004995
101 0.007019
87 0.007971
87 0.005994
91 0.007978
107 0.007014
120 0.005977
126 0.005988
138 0.004982
151 0.00702
144 0.007995
151 0.004984
160 0.006007
157 0.005985
105 0.007978
68 0.00798
30 0.007979
112 0.007977
113 0.005984
113 0.006993
113 0.005981
113 0.00701
113 0.007971
113 0.006996
113 0.005979
113 0.007012
113 0.007983
113 0.007973
113 0.007979
113 0.007968
113 0.005978
113 0.005979
118 0.004985
120 0.007974
129 0.007982
133 0.00598
108 0.007012
52 0.005017
16 0.007969
112 0.007992
113 0.007978
113 0.007982
113 0.005987
113 0.005022
113 0.003989
113 0.006979
113 0.007985
113 0.006988
113 0.00594
113 0.007025
113 0.007985
113 0.007981
113 0.00797
115 0.007972
120 0.005995
122 0.007012
121 0.005972
138 0.007976
137 0.006985
138 0.006932
124 0.006975
75 0.006974
38 0.007967
108 0.00795
113 0.007946
113 0.007978
113 0.007016
113 0.006984
113 0.006994
113 0.007974
113 0.006979
113 0.006982
113 0.006981
113 0.00698
113 0.006981
113 0.006974
113 0.007978
113 0.007979
116 0.005961
115 0.006984
124 0.006982
131 0.006975
130 0.006979
122 0.006963
73 0.006989
30 0.006978
17 0.006975
112 0.006965
113 0.007985
113 0.00798
113 0.006979
113 0.007002
113 0.005979
113 0.007011
113 0.006971
113 0.006965
113 0.006968
113 0.006978
113 0.006964
113 0.006978
113 0.006985
113 0.007019
113 0.006985
123 0.006989
115 0.006966
85 0.006977
39 0.006981
9 0.006975
18 0.006966
43 0.00698
62 0.006985
96 0.006979
102 0.007018
88 0.006977
76 0.006998
72 0.00698
78 0.006979
86 0.006987
99 0.006998
109 0.006984
122 0.00695
133 0.006983
136 0.00698
146 0.006982
139 0.007014
108 0.007052
43 0.006986
16 0.00602
112 0.00698
113 0.006
113 0.005957
113 0.005992
113 0.005985
113 0.00602
113 0.005976
113 0.007017
113 0.006973
113 0.007016
113 0.007038
113 0.005982
113 0.006016
113 0.006988
113 0.005984
108 0.006013
114 0.00598
93 0.005981
43 0.005982
112 0.006017
113 0.006977
113 0.006983
113 0.006977
113 0.006974
113 0.006975
113 0.005969
113 0.00598
113 0.005985
113 0.005976
113 0.005985
113 0.005991
113 0.005958
113 0.005967
113 0.006016
112 0.006018
125 0.006982
128 0.006982
124 0.005986
130 0.006116
131 0.005987
59 0.005983
92 0.005986
113 0.005979
113 0.006017
113 0.006018
113 0.006023
113 0.006014
113 0.00698
113 0.004989
113 0.00595
113 0.005987
113 0.005985
113 0.005984
113 0.005985
113 0.005981
113 0.006014
119 0.005978
116 0.005984
122 0.006019
122 0.005986
131 0.005014
138 0.00499
145 0.00498
131 0.004983
60 0.005975
112 0.005993
113 0.005968
113 0.006038
113 0.005035
113 0.006022
113 0.005985
113 0.005986
113 0.005977
113 0.005976
113 0.00598
113 0.004976
113 0.004982
113 0.004982
113 0.005021
108 0.005021
118 0.005018
128 0.005022
129 0.005029
134 0.004985
143 0.005963
142 0.005984
142 0.005035
151 0.005955
154 0.004986
108 0.004986
110 0.004962
113 0.004976
113 0.004997
113 0.004996
113 0.004985
113 0.005017
113 0.005018
113 0.005015
113 0.005022
113 0.005017
113 0.004945
113 0.004997
113 0.004032
113 0.004023
113 0.005018
115 0.005014
111 0.005035
127 0.005025
126 0.004989
125 0.004985
133 0.004998
145 0.004966
142 0.004964
152 0.004998
161 0.00502
169 0.005024
157 0.003971
100 0.004023
111 0.004023
113 0.004995
113 0.005001
113 0.004983
113 0.004978
113 0.004984
113 0.004992
113 0.004973
113 0.005021
113 0.004024
113 0.004035
113 0.00398
113 0.003992
113 0.00395
113 0.004981
116 0.004994
125 0.005
127 0.004988
125 0.004955
137 0.004989
134 0.004988
146 0.005024
144 0.004071
152 0.00402
169 0.003992
169 0.003995
105 0.003951
102 0.003938
113 0.003985
113 0.003962
113 0.003957
113 0.003944
113 0.003991
113 0.004986
113 0.00496
113 0.005017
113 0.00399
113 0.003987
113 0.004009
113 0.003953
113 0.003955
113 0.003953
113 0.004021
115 0.003985
128 0.003988
128 0.003992
132 0.002995
139 0.002992
139 0.00399
144 0.003988
151 0.003996
121 0.003989
70 0.004
39 0.003955
112 0.003989
113 0.003937
113 0.004016
113 0.003992
113 0.003982
113 0.004019
113 0.003026
113 0.00396
113 0.002978
113 0.002984
113 0.003958
113 0.003959
113 0.003951
113 0.003992
111 0.00395
123 0.003957
116 0.004023
123 0.00399
126 0.00297
111 0.002983
43 0.003009
17 0.003957
112 0.002991
113 0.003957
113 0.003941
113 0.003989
113 0.003992
113 0.002992
113 0.004046
113 0.004031
113 0.003991
113 0.003988
113 0.003988
113 0.002992
113 0.002991
113 0.002987
113 0.003955
117 0.002992
123 0.003027
105 0.003031
52 0.002994
17 0.00399
112 0.003994
113 0.003995
113 0.002952
113 0.002999
113 0.002985
113 0.002994
113 0.003005
113 0.002992
113 0.003026
113 0.003998
113 0.002992
113 0.002992
113 0.003961
113 0.003953
113 0.002956
117 0.00199
118 0.001999
114 0.003002
86 0.002994
89 0.003026
113 0.002992
113 0.003023
113 0.002986
113 0.002992
113 0.002993
113 0.002993
113 0.002975
113 0.002989
113 0.001993
113 0.001981
113 0.002
113 0.001995
113 0.001981
113 0.001996
118 0.003037
118 0.002992
120 0.002984
129 0.002991
108 0.002991
111 0.002995
113 0.002999
113 0.001992
113 0.001988
113 0.002031
113 0.002031
113 0.002026
113 0.002993
113 0.003027
113 0.002993
113 0.003
113 0.003003
113 0.001998
113 0.002984
113 0.001988
115 0.001993
120 0.002025
119 0.001995
128 0.001995
135 0.002049
137 0.001996
132 0.001995
109 0.002015
113 0.001963
113 0.001991
113 0.00201
113 0.001992
113 0.001993
113 0.002032
113 0.001995
113 0.001995
113 0.001996
113 0.001995
113 0.001992
113 0.001993
113 0.001984
113 0.001993
113 0.001997
113 0.001955
113 0.002003
113 0.001995
113 0.001995
113 0.001995
113 0.001998
113 0.001995
113 0.001995
113 0.002011
113 0.001998
113 0.001962
113 0.001994
113 0.000967
113 0.000998
113 0.001995
113 0.002038
113 0.001995
113 0.001995
113 0.001995
113 0.002021
113 0.002004
113 0.001008
113 0.001997
113 0.000985
113 0.001015
113 0.000997
113 0.000997
113 0.000998
113 0.002011
122 0.001995
123 0.002038
119 0.002041
129 0.002007
137 0.000941
147 0.00101
146 0.001004
113 0.001012
113 0.000997
113 0.000998
113 0.000997
113 0.000997
113 0.001028
113 0.001995
113 0.001997
113 0.001995
113 0.000961
113 0.000997
113 0.001015
113 0.00098
113 0.000998
113 0.000998
113 0.000986
118 0.000996
126 0.002041
121 0.000997
128 0.002
131 0.000993
134 0.000988
134 0.001011
146 0.000979
136 0.000992
104 0.001019
113 0.000997
113 0.000997
113 0.000998
113 0.001997
113 0.001998
113 0.001996
113 0.001006
113 0.001013
113 0.001003
113 0.000987
113 0.000998
113 0.000997
113 0.000997
113 0.00103
113 0.000997
115 0.002025
119 0.002033
128 0.000998
128 0.0
126 0.0
115 0.0
74 0.0
110 0.000984
113 0.000997
113 0.000998
113 0.000997
113 0.000997
113 0.000998
113 0.0
113 0.0
113 0.0
113 0.0
113 0.0
113 0.0
113 0.0
113 0.001034
113 0.000997
117 0.000997
120 0.001028
119 0.0
128 0.001002
107 0.001029
66 0.001011
112 0.0
113 0.0
113 0.0
113 0.0
113 0.0
113 0.0
113 0.0
113 0.0
113 0.0
113 0.0
113 0.0
113 0.001
113 0.001001
113 0.0
113 0.0
118 0.0
133 0.0
132 0.0
131 0.0
142 0.0
151 0.0
114 0.0
107 0.0
113 0.0
113 0.0
113 0.0
113 0.000997
113 0.0
113 0.0
113 0.0
113 0.0
113 0.0
113 0.0
113 0.0
113 0.0
113 0.0
113 0.000997
120 0.000982
126 0.00099
127 0.000997
136 0.0
144 0.0
153 0.000997
152 0.0
162 0.0
170 0.000998
171 0.001029
126 0.0
104 0.0
87 0.000998
89 0.002015
102 0.0
110 0.002025
117 0.002028
123 0.0
129 0.0
123 0.0
127 0.00103
131 0.00103
138 0.0
152 0.0
158 0.0
158 0.002009
171 0.000998
176 0.001034
183 0.001997
179 0.0
185 0.0
192 0.0
192 0.002028
197 0.001991
208 0.0
198 0.0
160 0.0
138 0.001
128 0.0
140 0.001032
151 0.002003
154 0.0
158 0.000998
164 0.0
160 0.002028
153 0.000999
157 0.0
155 0.0
165 0.0
172 0.001998
179 0.0
188 0.002025
187 0.001047
191 0.0
194 0.0
191 0.0
190 0.001031
199 0.002026
200 0.0
199 0.000979
207 0.0
215 0.002001
189 0.0
153 0.002027
136 0.002051
141 0.0
150 0.0
158 0.001033
163 0.001031
171 0.002028
164 0.0
157 0.0
159 0.0
160 0.001997
160 0.0
163 0.002029
167 0.002039
175 0.0
175 0.0
178 0.0
181 0.001031
183 0.00103
187 0.000994
182 0.000997
185 0.000997
190 0.0
199 0.000966
174 0.000966
148 0.002035
139 0.001995
131 0.0
138 0.0
153 0.0
158 0.002043
159 0.002996
168 0.0
158 0.000967
153 0.0
147 0.000966
156 0.0
163 0.002041
165 0.001995
170 0.0
175 0.000995
174 0.000987
172 0.002036
177 0.001991
177 0.0
175 0.001014
179 0.0
182 0.001997
161 0.001991
135 0.002992
124 0.00199
131 0.001996
131 0.0
140 0.001996
148 0.001996
156 0.002036
148 0.000995
142 0.0
135 0.001023
138 0.001999
143 0.002006
147 0.002989
146 0.003026
160 0.001994
158 0.001996
155 0.002003
161 0.002049
168 0.002003
160 0.002007
164 0.0
140 0.001019
106 0.000967
75 0.001008
66 0.002992
78 0.003025
97 0.000997
100 0.001994
118 0.001994
117 0.002993
99 0.002013
80 0.001999
86 0.000998
93 0.000977
91 0.001003
101 0.001003
107 0.003028
110 0.002994
107 0.001997
117 0.001996
118 0.001985
124 0.004026
115 0.002993
58 0.002006
19 0.002018
0 0.001996
0 0.00103
0 0.000989
14 0.003041
33 0.002992
27 0.001027
9 0.000992
3 0.000997
0 0.002992
0 0.002993
16 0.001994
21 0.001988
41 0.001994
41 0.001978
52 0.001994
59 0.002992
61 0.003024
70 0.000997
67 0.000995
7 0.001028
0 0.003056
0 0.002992
0 0.001995
0 0.001994
0 0.001995
0 0.001994
0 0.001996
0 0.002992
0 0.002992
0 0.002003
46 0.001031
55 0.001031
60 0.003046
69 0.002996
77 0.001994
82 0.001965
89 0.001966
90 0.001998
98 0.001996
98 0.004023
102 0.002991
113 0.000999
102 0.002026
72 0.001995
41 0.002992
27 0.003022
22 0.000992
35 0.004025
45 0.003988
53 0.001992
55 0.001992
52 0.001991
51 0.00402
50 0.003999
54 0.001992
62 0.001994
70 0.001024
81 0.002994
88 0.003998
96 0.004024
98 0.003989
106 0.002005
109 0.002029
110 0.002961
114 0.003989
123 0.004027
125 0.002026
123 0.002955
138 0.002989
140 0.00302
136 0.00403
76 0.003022
52 0.004012
41 0.002962
45 0.00299
60 0.002028
72 0.004031
75 0.004037
80 0.00203
82 0.001997
75 0.002006
70 0.002965
76 0.004989
89 0.004025
98 0.004987
106 0.002997
110 0.002991
121 0.002036
121 0.003989
124 0.003989
131 0.001949
129 0.001994
132 0.001995
136 0.003988
138 0.004017
146 0.004973
153 0.004972
155 0.002982
121 0.002987
90 0.002988
64 0.004987
57 0.004966
69 0.002992
82 0.002989
88 0.003
97 0.004019
103 0.004024
98 0.003988
91 0.004023
92 0.002006
100 0.001997
108 0.001996
113 0.005019
123 0.004987
131 0.002999
131 0.002989
135 0.002989
140 0.005028
143 0.004995
148 0.003989
149 0.00399
154 0.002029
159 0.003039
160 0.002986
150 0.004887
113 0.004987
73 0.002961
67 0.001989
72 0.002999
88 0.004985
101 0.004989
116 0.00502
112 0.005016
108 0.002989
101 0.003989
98 0.003995
105 0.004984
113 0.005016
123 0.002993
129 0.002988
139 0.00301
144 0.004997
144 0.005017
145 0.004987
149 0.005021
154 0.003983
152 0.002997
158 0.002995
167 0.004945
168 0.004965
134 0.003046
101 0.002995
75 0.003955
73 0.005048
84 0.004989
105 0.004987
119 0.005984
123 0.003987
122 0.00399
113 0.003994
106 0.006016
109 0.00602
119 0.005012
125 0.00299
132 0.004003
137 0.00504
144 0.003025
148 0.005027
154 0.005005
152 0.003024
154 0.003999
161 0.003988
159 0.00399
122 0.005982
91 0.006015
73 0.003992
72 0.004011
87 0.002992
112 0.002998
127 0.003987
125 0.004986
116 0.005987
109 0.003991
101 0.003991
102 0.003993
110 0.006022
120 0.005984
128 0.003987
134 0.003997
143 0.002966
150 0.00399
147 0.003989
149 0.006003
148 0.005984
115 0.003996
77 0.003996
53 0.003971
50 0.006019
63 0.005984
78 0.003995
91 0.003986
102 0.003994
101 0.003992
94 0.005
86 0.005995
88 0.005984
98 0.003987
105 0.004022
110 0.003987
125 0.005984
128 0.005963
131 0.004
138 0.003994
138 0.003982
143 0.003998
138 0.003991
107 0.006994
73 0.006982
38 0.004987
40 0.004986
54 0.004988
66 0.006018
71 0.006031
87 0.004006
85 0.003992
81 0.00399
72 0.004
82 0.004985
87 0.007019
100 0.006981
108 0.003984
117 0.003985
122 0.003983
127 0.005984
127 0.005984
133 0.003993
135 0.004026
136 0.003987
143 0.004985
122 0.004984
88 0.007013
50 0.006982
96 0.004987
116 0.004985
116 0.005005
116 0.00699
116 0.006015
116 0.00499
116 0.00499
116 0.004023
116 0.005022
116 0.004985
116 0.006979
116 0.006982
116 0.004986
116 0.004999
116 0.005
116 0.006982
117 0.007971
120 0.005987
127 0.004019
132 0.005007
140 0.005952
143 0.005951
147 0.006981
150 0.007011
138 0.005132
90 0.005012
57 0.005996
98 0.006927
116 0.006948
116 0.005987
116 0.005022
116 0.004982
116 0.005019
116 0.00499
116 0.006983
116 0.006982
116 0.005984
116 0.006002
116 0.005985
116 0.007978
116 0.00798
116 0.005988
121 0.004991
123 0.005031
124 0.004988
125 0.005984
130 0.007978
144 0.007987
142 0.005985
149 0.005987
155 0.005982
155 0.007977
143 0.007983
97 0.005995
68 0.004992
60 0.006984
69 0.005017
85 0.005018
92 0.004992
103 0.007978
106 0.007975
100 0.005987
94 0.005988
96 0.004967
108 0.007999
107 0.008011
118 0.005996
132 0.006981
132 0.005986
137 0.005983
143 0.005991
146 0.007979
141 0.007967
151 0.005985
153 0.005962
150 0.005982
160 0.007985
164 0.007979
159 0.005973
106 0.007976
83 0.004967
77 0.00697
81 0.006016
92 0.007972
116 0.007973
121 0.005984
122 0.005987
117 0.005983
110 0.007975
104 0.007974
109 0.006952
119 0.007979
133 0.006981
138 0.006986
142 0.005983
150 0.007988
147 0.007979
150 0.006018
149 0.005994
152 0.005986
152 0.007974
159 0.007979
156 0.005987
107 0.007977
77 0.006978
77 0.006978
75 0.006977
94 0.007996
109 0.007013
118 0.006024
122 0.006991
122 0.006983
108 0.007979
101 0.007974
107 0.005021
120 0.007979
127 0.006933
126 0.00697
138 0.006981
152 0.007011
146 0.007017
153 0.006011
156 0.006964
154 0.006976
148 0.006979
111 0.007985
62 0.006008
38 0.007015
52 0.006981
75 0.006956
87 0.006978
93 0.007022
102 0.007016
97 0.006
78 0.006978
83 0.005984
86 0.006017
92 0.006025
105 0.00695
120 0.007013
132 0.006969
135 0.006975
131 0.006978
137 0.007015
141 0.007013
119 0.005995
80 0.005982
45 0.006964
23 0.007013
23 0.006001
52 0.007013
60 0.00702
79 0.006982
90 0.00697
75 0.006978
71 0.006965
75 0.006968
76 0.006968
77 0.006973
103 0.005978
107 0.006981
114 0.006015
122 0.006017
129 0.006017
137 0.005984
133 0.005952
137 0.005984
118 0.006013
69 0.007025
28 0.006967
111 0.00695
112 0.006969
112 0.007024
112 0.007018
112 0.007013
112 0.006017
112 0.005981
112 0.005989
112 0.00599
112 0.006015
112 0.006021
112 0.006023
112 0.006972
112 0.006973
112 0.006972
113 0.005974
121 0.006023
135 0.006015
134 0.006023
111 0.005985
66 0.00598
93 0.005983
112 0.006021
112 0.006021
112 0.005989
112 0.006964
112 0.006015
112 0.00701
112 0.006977
112 0.006014
112 0.005995
112 0.006025
112 0.005983
112 0.00599
112 0.006014
112 0.006016
107 0.006008
115 0.005984
120 0.005975
121 0.006015
131 0.005979
139 0.00502
125 0.005018
73 0.006024
32 0.006022
111 0.005983
112 0.005998
112 0.006018
112 0.005981
112 0.005983
112 0.004987
112 0.006017
112 0.005016
112 0.00502
112 0.005022
112 0.005029
112 0.005018
112 0.00595
112 0.005986
112 0.006016
110 0.00598
120 0.005982
118 0.00598
120 0.006015
127 0.005019
141 0.004989
147 0.004979
91 0.005021
53 0.005016
37 0.004973
37 0.004985
50 0.006021
77 0.005966
90 0.005979
99 0.005984
99 0.006015
82 0.004989
83 0.005021
88 0.005023
99 0.004978
112 0.004989
116 0.004996
125 0.005012
131 0.00499
141 0.004983
145 0.005954
139 0.005986
150 0.004989
126 0.00502
86 0.00502
50 0.005023
43 0.005024
56 0.005022
72 0.005023
87 0.004987
112 0.004979
113 0.004965
95 0.005018
90 0.004968
92 0.004988
104 0.004987
110 0.004985
117 0.005026
135 0.005018
136 0.005018
136 0.00499
144 0.005051
148 0.005021
137 0.005021
101 0.004973
56 0.004989
111 0.004984
112 0.005017
112 0.005013
112 0.004023
112 0.004986
112 0.003957
112 0.005025
112 0.005032
112 0.004985
112 0.004982
112 0.00502
112 0.005016
112 0.004988
112 0.00502
112 0.00399
113 0.00399
119 0.004033
119 0.004023
98 0.005031
51 0.004987
88 0.004988
112 0.005017
112 0.005017
112 0.00395
112 0.004958
112 0.003957
112 0.003991
112 0.004026
112 0.003989
112 0.003953
112 0.003974
112 0.003989
112 0.004025
112 0.003955
112 0.005002
108 0.00502
115 0.004982
124 0.003991
127 0.003989
124 0.003988
77 0.00399
111 0.003945
112 0.004028
112 0.003957
112 0.003957
112 0.003991
112 0.004023
112 0.003948
112 0.003943
112 0.003989
112 0.00399
112 0.003989
112 0.004989
112 0.004029
112 0.004027
112 0.003991
110 0.00399
121 0.00399
122 0.004024
128 0.003995
135 0.004967
139 0.004022
145 0.004026
148 0.003943
124 0.002992
100 0.002992
112 0.003026
112 0.002989
112 0.003991
112 0.004003
112 0.004036
112 0.004022
112 0.003957
112 0.003989
112 0.003957
112 0.003985
112 0.003999
112 0.00399
112 0.002993
112 0.003
112 0.002992
115 0.002991
123 0.00399
133 0.003954
140 0.003959
140 0.004002
142 0.004
149 0.00399
162 0.004005
164 0.003019
173 0.002994
158 0.003025
95 0.002992
109 0.003029
112 0.00304
112 0.001961
112 0.003989
112 0.00399
112 0.004
112 0.003988
112 0.002963
112 0.003031
112 0.002992
112 0.003026
112 0.002991
112 0.002992
112 0.00399
112 0.002997
114 0.003957
122 0.002978
125 0.002992
137 0.003995
137 0.00399
141 0.002992
148 0.002984
156 0.003001
155 0.002986
161 0.003026
124 0.00298
99 0.00299
112 0.002991
112 0.003991
112 0.003025
112 0.003024
112 0.001995
112 0.002993
112 0.002992
112 0.003025
112 0.002991
112 0.002993
112 0.002992
112 0.002983
112 0.002992
112 0.002993
113 0.001997
114 0.001974
120 0.002026
127 0.001995
124 0.001957
133 0.002999
139 0.003029
149 0.003025
156 0.002992
142 0.002991
75 0.002986
39 0.002003
107 0.001995
112 0.001995
112 0.001993
112 0.001996
112 0.002031
112 0.001996
112 0.002026
112 0.002999
112 0.002988
112 0.002993
112 0.002995
112 0.002033
112 0.002027
112 0.002027
112 0.001995
113 0.002028
120 0.001995
127 0.001997
126 0.001995
133 0.001995
131 0.002026
68 0.002004
31 0.003008
107 0.002992
112 0.001934
112 0.002029
112 0.001995
112 0.002025
112 0.002004
112 0.001998
112 0.001995
112 0.001995
112 0.002002
112 0.001981
112 0.002024
112 0.001
112 0.002043
112 0.001995
111 0.001985
112 0.001995
126 0.001995
118 0.002026
59 0.001984
25 0.001979
12 0.00201
29 0.001998
40 0.00099
72 0.001029
97 0.000994
94 0.001996
79 0.000998
68 0.002029
61 0.002029
66 0.002056
80 0.002052
99 0.001996
115 0.001995
118 0.001996
124 0.00097
138 0.000999
137 0.000999
114 0.000997
60 0.000999
18 0.002028
106 0.002025
112 0.002002
112 0.001986
112 0.002026
112 0.001993
112 0.001994
112 0.001031
112 0.000998
112 0.000995
112 0.001004
112 0.001043
112 0.000997
112 0.000997
112 0.002005
112 0.001001
112 0.001002
115 0.000998
88 0.002012
39 0.002006
106 0.001995
112 0.000997
112 0.000997
112 0.000997
112 0.000993
112 0.001002
112 0.001005
112 0.000998
112 0.000997
112 0.001006
112 0.002011
112 0.000962
112 0.000999
112 0.000963
112 0.000967
112 0.000998
118 0.000997
125 0.001006
122 0.001011
88 0.000998
109 0.000997
112 0.001001
112 0.001023
112 0.001004
112 0.0
112 0.000997
112 0.0
112 0.0
112 0.0
112 0.000988
112 0.0
112 0.0
112 0.000997
112 0.001008
112 0.001015
112 0.000992
118 0.000997
126 0.000998
129 0.000997
133 0.000997
139 0.0
133 0.0
82 0.0
111 0.0
112 0.0
112 0.0
112 0.0
112 0.0
112 0.000998
112 0.001007
112 0.000998
112 0.000997
112 0.000998
112 0.0
112 0.0
112 0.0
112 0.0
118 0.0
121 0.0
122 0.0
128 0.0
133 0.0
132 0.0
145 0.0
157 0.000998
156 0.0
162 0.0
175 0.0
161 0.0
106 0.0
112 0.0
112 0.0
112 0.0
112 0.0
112 0.0
112 0.0
112 0.0
112 0.0
112 0.0
112 0.001001
112 0.000998
112 0.0
112 0.0
112 0.0
105 0.0
117 0.0
123 0.0
123 0.0
129 0.001003
129 0.0
138 0.002026
141 0.002028
154 0.000967
146 0.0
94 0.001003
110 0.0
112 0.0
112 0.0
112 0.002011
112 0.0
112 0.0
112 0.0
112 0.002028
112 0.002028
112 0.001998
112 0.001996
112 0.001001
112 0.000998
112 0.0
112 0.001039
113 0.002032
121 0.0
129 0.0
125 0.0
125 0.002006
134 0.001998
144 0.002032
155 0.001996
134 0.0
92 0.0
98 0.0
112 0.001994
112 0.002028
112 0.0
112 0.000998
112 0.001012
112 0.002025
112 0.002026
112 0.001992
112 0.001985
112 0.0
112 0.0
112 0.00099
112 0.002037
112 0.002034
114 0.0
114 0.0
115 0.0
120 0.002026
128 0.002028
139 0.001994
130 0.002989
76 0.0
96 0.001009
112 0.0
112 0.002032
112 0.002035
112 0.0
112 0.0
112 0.0
112 0.002028
112 0.002026
112 0.002991
112 0.001994
112 0.0
112 0.000992
112 0.001014
112 0.001958
112 0.001954
114 0.0
121 0.001016
128 0.001015
128 0.000997
125 0.003025
52 0.001994
108 0.001993
112 0.0
112 0.0
112 0.0
112 0.002026
112 0.002004
112 0.0
112 0.000964
112 0.000966
112 0.002029
112 0.002027
112 0.0
112 0.002004
112 0.001981
112 0.0
109 0.0
114 0.0
116 0.002046
115 0.002038
112 0.0
66 0.0
109 0.0
112 0.002038
112 0.000986
112 0.002993
112 0.002993
112 0.001002
112 0.0
112 0.0
112 0.002027
112 0.002018
112 0.0
112 0.0
112 0.0
112 0.0
112 0.0
120 0.00302
119 0.002985
128 0.0
136 0.0
125 0.0
86 0.002011
111 0.002028
112 0.0
112 0.0
112 0.0
112 0.000972
112 0.0
112 0.002995
112 0.001995
112 0.000995
112 0.0
112 0.000977
112 0.002992
112 0.00299
112 0.0
112 0.0
123 0.0
130 0.0
127 0.0
130 0.00296
136 0.002963
140 0.0
99 0.0
110 0.000963
112 0.003048
112 0.00302
112 0.001035
112 0.0
112 0.001996
112 0.0
112 0.001988
112 0.002025
112 0.001995
112 0.001994
112 0.001994
112 0.001993
112 0.002993
112 0.003024
109 0.001995
123 0.001998
124 0.001998
128 0.001989
126 0.002002
135 0.002987
148 0.003008
145 0.001993
123 0.001993
106 0.001993
112 0.003048
112 0.002996
112 0.001998
112 0.001995
112 0.001994
112 0.000984
112 0.001995
112 0.002965
112 0.002986
112 0.003011
112 0.002028
112 0.003
112 0.00399
112 0.002993
114 0.001995
113 0.001998
115 0.001995
124 0.00201
126 0.002987
134 0.002989
136 0.004
138 0.001994
103 0.002024
103 0.001992
112 0.004028
112 0.003989
112 0.001995
112 0.0
112 0.000999
112 0.001994
112 0.002
112 0.002996
112 0.004002
112 0.001995
112 0.001987
112 0.002961
112 0.003993
112 0.00399
111 0.002048
117 0.001968
125 0.001999
132 0.001997
128 0.001992
136 0.001996
135 0.004009
108 0.003988
58 0.002
111 0.00201
112 0.00199
112 0.003989
112 0.004025
112 0.003011
112 0.002999
112 0.001942
112 0.003006
112 0.001996
112 0.004025
112 0.004956
112 0.002
112 0.001991
112 0.002025
112 0.004023
105 0.005023
119 0.002
115 0.003976
124 0.002024
119 0.001982
94 0.002042
99 0.005038
112 0.005033
112 0.003005
112 0.001993
112 0.001998
112 0.00399
112 0.004035
112 0.002003
112 0.003979
112 0.001998
112 0.002964
112 0.002001
112 0.005001
112 0.004984
112 0.002988
111 0.002998
112 0.001993
111 0.004986
119 0.004001
121 0.001998
135 0.005027
137 0.003008
129 0.002979
88 0.001993
109 0.004969
112 0.004983
112 0.002026
112 0.002012
112 0.002996
112 0.004988
112 0.00399
112 0.00299
112 0.005017
112 0.002991
112 0.001997
112 0.002992
112 0.004979
112 0.004994
112 0.001996
104 0.002006
116 0.002992
121 0.004987
125 0.005024
128 0.003003
137 0.005004
146 0.002989
146 0.001975
154 0.001996
125 0.00502
73 0.004982
112 0.002998
112 0.002991
112 0.003009
112 0.004979
112 0.004987
112 0.003025
112 0.004983
112 0.003013
112 0.003016
112 0.00296
112 0.005021
112 0.00504
112 0.00299
112 0.003008
112 0.002996
116 0.00502
120 0.004987
133 0.003013
132 0.005014
139 0.002991
140 0.002994
151 0.002967
154 0.004961
157 0.004988
171 0.00396
165 0.003994
112 0.002999
110 0.005017
112 0.006037
112 0.003968
112 0.006007
112 0.00296
112 0.002961
112 0.002988
112 0.00597
112 0.006016
112 0.002995
112 0.002028
112 0.003984
112 0.005985
112 0.006026
112 0.003992
128 0.006027
123 0.003018
129 0.002982
141 0.002035
140 0.003046
137 0.005992
143 0.005014
155 0.002955
154 0.003991
163 0.003987
169 0.006048
96 0.003995
99 0.005987
112 0.00598
112 0.003982
112 0.003949
112 0.003045
112 0.005982
112 0.006019
112 0.003993
112 0.003985
112 0.003986
112 0.005984
112 0.004033
112 0.006981
112 0.006002
112 0.003978
111 0.002987
112 0.003039
113 0.00599
125 0.006019
121 0.002948
126 0.003024
137 0.00399
140 0.007016
100 0.00402
50 0.00702
108 0.006982
112 0.003994
112 0.003992
112 0.004011
112 0.005965
112 0.00609
112 0.003985
112 0.003975
112 0.003992
112 0.007015
112 0.004994
112 0.007012
112 0.007019
112 0.003998
112 0.003986
115 0.00303
118 0.005999
121 0.005984
128 0.003988
129 0.002961
106 0.003996
55 0.006981
107 0.003991
112 0.005983
112 0.00698
112 0.003993
112 0.003979
112 0.003027
112 0.007027
112 0.006971
112 0.004025
112 0.004957
112 0.004987
112 0.007019
112 0.004984
112 0.007021
112 0.006983
110 0.003998
124 0.003023
122 0.003992
118 0.006977
89 0.006981
93 0.004989
112 0.004985
112 0.004027
112 0.007008
112 0.003976
112 0.007998
112 0.006981
112 0.002991
112 0.00399
112 0.003989
112 0.006981
112 0.006982
112 0.004986
112 0.005983
112 0.005985
112 0.006969
118 0.005003
120 0.007952
121 0.007973
126 0.00399
88 0.004985
109 0.004997
112 0.007015
112 0.006983
112 0.004971
112 0.004981
112 0.00498
112 0.007013
112 0.004944
112 0.007075
112 0.00801
112 0.00598
112 0.004982
112 0.004022
112 0.00798
112 0.007978
116 0.004976
121 0.004986
120 0.004989
120 0.006981
126 0.003995
137 0.00797
117 0.007975
111 0.007979
112 0.005985
112 0.004996
112 0.004969
112 0.007988
112 0.007014
112 0.005008
112 0.004981
112 0.00492
112 0.004968
112 0.00498
112 0.007986
112 0.00797
112 0.005986
112 0.005983
112 0.005024
112 0.007993
112 0.007979
112 0.004984
112 0.005985
112 0.005994
112 0.005956
112 0.005979
112 0.007995
112 0.00798
112 0.004986
112 0.005983
112 0.005975
112 0.007979
112 0.007964
112 0.005009
112 0.00598
112 0.006942
112 0.00696
112 0.005986
112 0.006981
112 0.006948
112 0.006006
112 0.005985
112 0.006006
112 0.00798
112 0.007987
112 0.006978
112 0.006979
112 0.00697
116 0.005978
121 0.005988
137 0.006994
140 0.006981
121 0.005952
105 0.005959
112 0.005985
112 0.007978
112 0.008001
112 0.00695
112 0.006966
112 0.005985
112 0.006965
112 0.006005
112 0.006997
112 0.006981
112 0.005962
112 0.006014
112 0.005972
112 0.006979
114 0.006985
131 0.006013
129 0.005999
136 0.005985
135 0.005941
142 0.00694
150 0.005983
153 0.005977
171 0.006971
176 0.006976
151 0.005966
91 0.007016
112 0.007016
112 0.006979
112 0.006033
112 0.005983
112 0.006983
112 0.006014
112 0.006983
112 0.005959
112 0.005994
112 0.005985
112 0.006979
112 0.007024
112 0.007014
112 0.006012
112 0.006973
127 0.006981
124 0.00601
133 0.006983
133 0.006015
141 0.006015
143 0.005982
149 0.006781
139 0.00695
94 0.006981
71 0.007006
68 0.006981
74 0.006981
99 0.005964
119 0.005979
124 0.006023
125 0.005963
119 0.005982
107 0.005984
112 0.005979
123 0.005973
125 0.006017
130 0.007049
144 0.005976
154 0.006972
162 0.006017
159 0.00596
164 0.005986
172 0.005978
172 0.005982
179 0.005991
167 0.00599
125 0.00599
95 0.005986
84 0.006062
91 0.006024
112 0.005015
131 0.006004
143 0.005977
143 0.005985
128 0.006015
118 0.005979
115 0.00598
123 0.005991
132 0.00598
134 0.005978
146 0.006015
157 0.006024
161 0.005983
160 0.005981
162 0.004971
169 0.004981
153 0.005987
106 0.005953
78 0.005983
66 0.006007
72 0.005963
88 0.006016
105 0.005984
118 0.005952
119 0.005956
112 0.005982
104 0.004944
96 0.004975
98 0.004953
105 0.005952
115 0.005984
121 0.004951
132 0.004987
140 0.005961
149 0.005934
150 0.006024
154 0.005973
147 0.005984
106 0.00598
60 0.005975
37 0.004977
34 0.004984
48 0.004979
59 0.004989
71 0.004958
87 0.005004
82 0.005019
73 0.005023
59 0.005991
64 0.00403
75 0.004992
81 0.006011
92 0.005986
104 0.004998
108 0.004972
113 0.004964
120 0.004987
118 0.004992
117 0.004976
123 0.005022
119 0.004975
79 0.004987
25 0.004988
111 0.004975
112 0.003992
112 0.003989
112 0.003958
112 0.005002
112 0.004974
112 0.00499
112 0.005027
112 0.005022
112 0.004985
112 0.004985
112 0.004992
112 0.004986
112 0.004986
112 0.004991
110 0.003976
120 0.004022
125 0.00395
121 0.003988
127 0.005041
138 0.004987
145 0.005032
144 0.00502
89 0.00499
98 0.004959
112 0.004988
112 0.003959
112 0.004954
112 0.00398
112 0.00395
112 0.00396
112 0.004026
112 0.004025
112 0.004966
112 0.004946
112 0.00499
112 0.004983
112 0.004958
112 0.003958
112 0.004956
115 0.003978
123 0.003989
127 0.004007
130 0.004021
137 0.003959
143 0.003973
144 0.004002
156 0.004965
162 0.004956
131 0.00399
83 0.004957
109 0.003977
112 0.003984
112 0.003947
112 0.003991
112 0.004005
112 0.003957
112 0.003941
112 0.003974
112 0.003993
112 0.003959
112 0.00402
112 0.003976
112 0.003974
112 0.00302
112 0.003957
123 0.003957
123 0.003996
124 0.003959
134 0.003948
138 0.003969
148 0.003991
145 0.003987
156 0.005018
162 0.003952
162 0.002981
116 0.002994
101 0.003952
112 0.004029
112 0.004003
112 0.003957
112 0.004013
112 0.003994
112 0.002993
112 0.003997
112 0.003998
112 0.002992
112 0.00299
112 0.002982
112 0.004003
112 0.004022
112 0.003031
114 0.002963
123 0.002991
121 0.003955
121 0.003997
130 0.00297
128 0.002992
129 0.00298
140 0.002993
150 0.003007
124 0.003021
76 0.002992
95 0.003031
112 0.003011
112 0.002989
112 0.004014
112 0.002972
112 0.004006
112 0.00401
112 0.002995
112 0.002993
112 0.002958
112 0.002981
112 0.002993
112 0.002983
112 0.00299
112 0.00296
117 0.002988
124 0.002991
132 0.003957
125 0.002987
136 0.00206
143 0.002994
135 0.003959
76 0.002991
46 0.002992
107 0.003028
112 0.003007
112 0.003
112 0.003013
112 0.002948
112 0.001991
112 0.001995
112 0.002037
112 0.001972
112 0.002028
112 0.001995
112 0.001995
112 0.002992
112 0.002991
112 0.003007
113 0.00301
120 0.002978
124 0.00299
125 0.002989
92 0.001983
42 0.001988
5 0.001997
112 0.002024
112 0.001963
112 0.002027
112 0.001997
112 0.002015
112 0.00298
112 0.002988
112 0.002996
112 0.002001
112 0.001997
112 0.001951
112 0.001976
112 0.001969
112 0.001995
110 0.002006
121 0.001987
128 0.002003
115 0.001988
66 0.001971
89 0.001986
112 0.001995
112 0.00202
112 0.001994
112 0.001993
112 0.00196
112 0.001996
112 0.001964
112 0.001995
112 0.001045
112 0.002037
112 0.002992
112 0.001995
112 0.001995
112 0.002035
112 0.00196
120 0.001996
119 0.001986
126 0.002032
120 0.002049
65 0.001995
111 0.002
112 0.001962
112 0.002952
112 0.000996
112 0.001028
112 0.000977
112 0.001036
112 0.001956
112 0.001003
112 0.001996
112 0.000997
112 0.001996
112 0.001978
112 0.002
112 0.001988
121 0.001971
128 0.001993
138 0.001952
134 0.001991
135 0.00199
138 0.000997
141 0.000998
76 0.000995
112 0.001002
112 0.002002
112 0.001971
112 0.00101
112 0.002
112 0.001992
112 0.002002
112 0.001985
112 0.001969
112 0.000986
112 0.000999
112 0.0
112 0.001995
112 0.000995
112 0.0
115 0.0
118 0.001997
132 0.002001
132 0.002046
124 0.001036
136 0.001992
142 0.001007
146 0.000997
157 0.002016
163 0.001047
165 0.001987
120 0.001998
111 0.000992
112 0.002001
112 0.001992
112 0.001991
112 0.002006
112 0.000996
112 0.001005
112 0.000998
112 0.000985
112 0.002016
112 0.002
112 0.001959
112 0.001027
112 0.001999
112 0.0
114 0.0
118 0.000959
127 0.000991
125 0.001014
133 0.001059
132 0.001048
146 0.000995
150 0.001015
147 0.00099
158 0.001003
171 0.000989
147 0.000999
92 0.001031
111 0.0
112 0.0
112 0.0
112 0.0
112 0.000999
112 0.001047
112 0.001004
112 0.001007
112 0.000989
112 0.000997
112 0.000998
112 0.000994
112 0.0
112 0.0
112 0.0
114 0.0
118 0.0
122 0.0
127 0.0
130 0.0
138 0.0
139 0.000965
146 0.001013
152 0.00102
164 0.0
160 0.0
128 0.0
111 0.0
112 0.0
112 0.0
112 0.0
112 0.0
112 0.0
112 0.0
112 0.0
112 0.001009
112 0.001011
112 0.0
112 0.0
112 0.0
112 0.0
112 0.0
123 0.0
121 0.0
124 0.0
134 0.0
131 0.001003
133 0.0
139 0.000997
143 0.000964
159 0.000963
95 0.000999
99 0.0
112 0.0
112 0.0
112 0.0
112 0.0
112 0.001001
112 0.000984
112 0.000966
112 0.002
112 0.000995
112 0.0
112 0.0
112 0.001001
112 0.0
112 0.002997
106 0.002998
114 0.0
126 0.001003
122 0.0
128 0.001997
136 0.001999
100 0.000988
44 0.000967
112 0.0
112 0.0
112 0.0
112 0.003004
112 0.002988
112 0.000958
112 0.000991
112 0.0
112 0.001999
112 0.001996
112 0.001001
112 0.0
112 0.0
112 0.0
106 0.0
120 0.00298
123 0.00299
122 0.0
130 0.000994
134 0.0
121 0.001996
70 0.001975
111 0.0
112 0.001017
112 0.001012
112 0.0
112 0.001008
112 0.002983
112 0.002985
112 0.0
112 0.0
112 0.0
112 0.003
112 0.003002
112 0.0
112 0.0
110 0.000965
107 0.001013
119 0.001002
131 0.002001
129 0.001995
128 0.0
139 0.0
142 0.0
115 0.003
62 0.003001
112 0.0
112 0.003023
112 0.0
112 0.0
112 0.0
112 0.001992
112 0.002995
112 0.0
112 0.0
112 0.0
112 0.00299
112 0.002991
112 0.0
112 0.003031
119 0.000966
125 0.0
130 0.0
134 0.001984
130 0.002974
139 0.00096
141 0.001006
144 0.001014
154 0.002991
160 0.00299
113 0.002997
112 0.003025
112 0.0
112 0.0
112 0.0
112 0.0
112 0.001996
112 0.001985
112 0.0
112 0.001007
112 0.000953
112 0.002994
112 0.002994
112 0.002041
112 0.002992
114 0.0
119 0.0
128 0.0
132 0.002999
137 0.002993
138 0.0
139 0.0
153 0.0
150 0.002995
156 0.001992
163 0.003042
168 0.003008
113 0.0
111 0.0
112 0.0
112 0.003008
112 0.002998
112 0.0
112 0.0
112 0.0
112 0.002
112 0.00201
112 0.002992
112 0.001999
112 0.001018
112 0.0
112 0.0
112 0.002992
111 0.002984
126 0.0
122 0.0
123 0.0
131 0.001986
135 0.001991
139 0.002997
149 0.002975
153 0.000999
155 0.0
113 0.0
110 0.003008
112 0.00299
112 0.0
112 0.0
112 0.001011
112 0.002029
112 0.002994
112 0.002027
112 0.002946
112 0.0
112 0.0
112 0.002993
112 0.003007
112 0.002964
112 0.0
112 0.0
121 0.001996
132 0.00397
128 0.00298
135 0.00399
134 0.004005
148 0.002998
148 0.002992
127 0.002015
79 0.002998
96 0.002993
112 0.002012
112 0.001991
112 0.002989
112 0.002983
112 0.002029
112 0.004005
112 0.003976
112 0.003019
112 0.000964
112 0.00296
112 0.002993
112 0.00398
112 0.002992
112 0.0
119 0.000992
118 0.003011
127 0.00203
127 0.00399
131 0.00399
85 0.003003
109 0.002998
112 0.001996
112 0.00399
112 0.003998
112 0.002033
112 0.002
112 0.002988
112 0.003009
112 0.002993
112 0.003989
112 0.00397
112 0.001992
112 0.002015
112 0.001992
112 0.003968
109 0.003998
123 0.00199
125 0.00299
126 0.002995
112 0.003955
109 0.002957
112 0.003989
112 0.00399
112 0.002999
112 0.001994
112 0.002991
112 0.002001
112 0.003992
112 0.003991
112 0.001993
112 0.001998
112 0.002982
112 0.002993
112 0.002989
112 0.00402
103 0.003965
118 0.00296
122 0.002992
111 0.003003
74 0.003959
111 0.004018
112 0.002994
112 0.002994
112 0.003
112 0.002002
112 0.002008
112 0.004983
112 0.004019
112 0.002995
112 0.002993
112 0.002994
112 0.004003
112 0.004004
112 0.001993
112 0.002989
112 0.001991
112 0.002993
112 0.00301
112 0.005026
112 0.004055
112 0.002992
112 0.001995
112 0.002995
112 0.004019
112 0.004009
112 0.001994
112 0.002992
112 0.002994
112 0.002994
112 0.00199
112 0.005033
112 0.004983
112 0.002982
112 0.003
112 0.002994
112 0.004969
112 0.004988
112 0.002973
112 0.002992
112 0.00302
112 0.002991
112 0.003004
112 0.005019
112 0.005006
112 0.002987
112 0.001992
112 0.001997
112 0.004995
112 0.004987
112 0.002991
112 0.002991
112 0.002991
112 0.002002
112 0.003001
112 0.005019
112 0.00506
112 0.002996
112 0.00299
112 0.00296
112 0.004981
112 0.005046
112 0.002019
112 0.002988
112 0.002992
112 0.002971
112 0.003956
112 0.005031
112 0.005989
112 0.002999
112 0.00404
112 0.003977
112 0.004994
112 0.004986
112 0.004991
112 0.003007
112 0.003023
112 0.002958
112 0.003014
112 0.004989
112 0.005984
112 0.003026
112 0.002973
112 0.001995
112 0.005981
112 0.004987
112 0.001972
112 0.002028
112 0.003981
112 0.003031
114 0.002009
112 0.005992
118 0.006007
129 0.003009
137 0.003141
142 0.002989
149 0.006006
110 0.005991
112 0.003003
112 0.002008
112 0.002993
112 0.003986
112 0.003994
112 0.00503
112 0.005059
112 0.00402
112 0.004951
112 0.002985
112 0.005982
112 0.005952
112 0.00299
112 0.003006
112 0.002997
112 0.002992
112 0.002986
112 0.005941
112 0.005971
112 0.003962
112 0.003037
112 0.002972
112 0.002984
112 0.006011
112 0.005977
112 0.003288
112 0.005984
112 0.003989
112 0.002988
112 0.00302
112 0.006014
112 0.005987
112 0.003051
112 0.002991
112 0.002992
112 0.006979
112 0.005991
112 0.003998
112 0.006989
112 0.002986
112 0.003984
112 0.003026
112 0.005999
112 0.006016
112 0.00298
108 0.003025
121 0.003029
110 0.00697
74 0.006988
111 0.003991
112 0.007014
112 0.003948
112 0.002941
112 0.003969
112 0.005984
112 0.007022
112 0.002991
112 0.002023
112 0.003967
112 0.006014
112 0.006994
112 0.00301
112 0.007012
112 0.003992
115 0.004022
113 0.003027
120 0.006017
131 0.007033
127 0.003013
104 0.003022
100 0.002975
112 0.006962
112 0.006995
112 0.006989
112 0.007018
112 0.003988
112 0.004022
112 0.003023
112 0.006015
112 0.006948
112 0.003
112 0.002988
112 0.004001
112 0.007017
112 0.007015
112 0.007014
112 0.007001
112 0.003989
112 0.004045
112 0.003978
112 0.005988
112 0.007015
112 0.003998
112 0.003996
112 0.003935
112 0.007985
112 0.007025
112 0.007973
112 0.006974
112 0.003991
112 0.005032
112 0.004984
112 0.006981
112 0.007976
112 0.004018
112 0.003958
112 0.00396
112 0.007963
112 0.007974
112 0.007993
112 0.007979
112 0.004987
112 0.004997
112 0.003958
112 0.007014
113 0.007014
123 0.004962
124 0.005023
137 0.004959
147 0.007984
105 0.007966
109 0.007974
112 0.007971
112 0.00501
112 0.005953
112 0.004989
112 0.007012
112 0.006966
112 0.005998
112 0.004989
112 0.005026
112 0.007977
112 0.00797
112 0.007978
112 0.007937
112 0.004995
114 0.004987
113 0.004967
124 0.004981
125 0.007948
132 0.007949
134 0.005978
146 0.005957
141 0.005974
154 0.006984
152 0.005019
173 0.007982
171 0.007973
136 0.005984
109 0.005951
112 0.006015
112 0.007979
112 0.007969
112 0.005954
112 0.005953
112 0.005954
112 0.006985
112 0.005987
112 0.006977
112 0.007964
112 0.005982
112 0.004995
112 0.004935
112 0.007953
117 0.007973
122 0.005975
128 0.00595
125 0.004981
136 0.006978
137 0.005984
139 0.006982
147 0.007974
149 0.005949
158 0.00596
161 0.00598
147 0.007978
95 0.008012
110 0.005954
112 0.006982
112 0.005992
112 0.006984
112 0.005979
112 0.006985
112 0.006984
112 0.005986
112 0.005981
112 0.005949
112 0.006975
112 0.006984
112 0.005982
112 0.00594
112 0.003953
123 0.00695
125 0.005983
131 0.007014
140 0.007015
139 0.005949
147 0.005983
136 0.005948
146 0.005975
146 0.006982
155 0.005986
121 0.005941
60 0.006032
111 0.005982
112 0.005021
112 0.006014
112 0.006015
112 0.006003
112 0.006012
112 0.005984
112 0.006997
112 0.006018
112 0.006962
112 0.006979
112 0.005986
112 0.005992
112 0.00598
112 0.00598
113 0.006016
113 0.005982
123 0.00598
126 0.005983
125 0.006988
131 0.006981
139 0.005961
113 0.005984
63 0.006005
107 0.006008
112 0.006019
112 0.006018
112 0.006981
112 0.005983
112 0.005952
112 0.006071
112 0.005036
112 0.005983
112 0.005989
112 0.005975
112 0.005952
112 0.005983
112 0.005983
112 0.006016
117 0.006011
123 0.005967
121 0.006024
128 0.004988
125 0.00599
89 0.006002
29 0.005991
111 0.005996
112 0.005978
112 0.006008
112 0.006029
112 0.00599
112 0.006017
112 0.006018
112 0.004985
112 0.006018
112 0.005977
112 0.005974
112 0.005955
112 0.005008
112 0.005974
110 0.005981
110 0.004959
120 0.004987
131 0.004957
103 0.004951
35 0.005988
111 0.005984
112 0.005951
112 0.006012
112 0.005942
112 0.005987
112 0.005985
112 0.00499
112 0.004988
112 0.004973
112 0.005024
112 0.005025
112 0.004835
112 0.004986
112 0.004932
112 0.004986
107 0.005984
112 0.005986
117 0.006017
113 0.004991
74 0.004961
109 0.004984
112 0.005018
112 0.004988
112 0.004987
112 0.004983
112 0.004989
112 0.004986
112 0.004987
112 0.004974
112 0.005993
112 0.003918
112 0.005985
112 0.005994
112 0.005985
112 0.005028
119 0.005988
123 0.004985
130 0.004984
138 0.004982
140 0.005983
142 0.004967
116 0.005019
111 0.004984
112 0.004984
112 0.004957
112 0.004023
112 0.003976
112 0.005016
112 0.004985
112 0.004986
112 0.005029
112 0.004988
112 0.004953
112 0.00503
112 0.004029
112 0.004986
112 0.004988
112 0.005019
112 0.004989
112 0.003982
112 0.003955
112 0.003956
112 0.005017
112 0.004963
112 0.004991
112 0.005019
112 0.004986
112 0.00399
112 0.004988
112 0.004023
112 0.004025
112 0.003976
112 0.004035
112 0.004022
112 0.003995
112 0.003969
112 0.003989
112 0.004023
112 0.004955
112 0.003944
112 0.003995
112 0.003989
112 0.00502
112 0.004955
112 0.004945
112 0.004987
112 0.004991
112 0.003991
118 0.00399
128 0.003945
132 0.003979
140 0.00399
150 0.00399
150 0.003009
133 0.00397
105 0.003991
112 0.004982
112 0.003988
112 0.003993
112 0.004091
112 0.004959
112 0.002992
112 0.00403
112 0.00399
112 0.004011
112 0.004023
112 0.004026
112 0.003986
112 0.004034
112 0.00395
112 0.003981
112 0.003972
112 0.003975
112 0.003024
112 0.002991
112 0.004018
112 0.003985
112 0.003095
112 0.002996
112 0.004021
112 0.003974
112 0.003962
112 0.003981
112 0.003996
112 0.003987
112 0.004028
112 0.00402
112 0.003024
112 0.003024
112 0.001995
112 0.004023
112 0.002992
112 0.003979
112 0.001995
112 0.002993
112 0.003951
112 0.00299
112 0.003996
112 0.004026
112 0.002997
109 0.003025
114 0.002952
116 0.003023
124 0.002993
135 0.002992
108 0.002995
60 0.002994
111 0.003026
112 0.002994
112 0.002975
112 0.003004
112 0.004022
112 0.002993
112 0.004006
112 0.002986
112 0.003028
112 0.002981
112 0.002985
112 0.002989
112 0.002989
112 0.004022
116 0.002993
116 0.003026
116 0.002993
127 0.002026
125 0.003861
127 0.002033
137 0.002994
105 0.002957
102 0.001987
112 0.003022
112 0.002994
112 0.003023
112 0.003027
112 0.003022
112 0.003022
112 0.003022
112 0.003022
112 0.001944
112 0.001995
112 0.001945
112 0.003003
112 0.002996
112 0.00299
116 0.002994
123 0.003033
117 0.002992
128 0.002031
133 0.002008
126 0.001996
98 0.001995
99 0.001997
112 0.001979
112 0.002048
112 0.001994
112 0.002997
112 0.002029
112 0.002992
112 0.002997
112 0.002945
112 0.002992
112 0.002027
112 0.002015
112 0.001961
112 0.001998
112 0.001997
114 0.002015
116 0.002001
123 0.002007
133 0.001993
116 0.003025
110 0.002001
112 0.002964
112 0.002997
112 0.001999
112 0.001992
112 0.001965
112 0.001945
112 0.001994
112 0.001991
112 0.002028
112 0.002024
112 0.002024
112 0.002
112 0.000994
112 0.001046
113 0.001996
115 0.002127
124 0.001957
133 0.001989
129 0.001982
112 0.001981
112 0.002025
112 0.002024
112 0.002032
112 0.000992
112 0.000999
112 0.001031
112 0.001988
112 0.000962
112 0.002005
112 0.00201
112 0.003043
112 0.001963
112 0.001993
112 0.002029
112 0.000998
112 0.000997
112 0.002005
112 0.000978
112 0.001996
112 0.000997
112 0.001994
112 0.002004
112 0.002007
112 0.002026
112 0.002025
112 0.002025
112 0.001027
112 0.001044
112 0.000998
112 0.000984
112 0.000959
112 0.001007
112 0.001991
112 0.002014
112 0.001999
112 0.002025
112 0.001987
112 0.001986
112 0.002041
112 0.002041
112 0.001959
112 0.001969
112 0.00103
112 0.000998
112 0.001006
112 0.001999
112 0.001993
112 0.0
112 0.0
112 0.002026
112 0.002044
112 0.0
112 0.001028
112 0.0
112 0.000999
112 0.001044
112 0.001002
112 0.001009
112 0.002005
112 0.002043
112 0.002026
112 0.001002
112 0.001993
112 0.000998
112 0.002034
112 0.0
112 0.0
112 0.0
112 0.000987
112 0.00101
112 0.001016
112 0.000957
112 0.001001
112 0.000997
112 0.000998
112 0.0
