91 0.019946
91 0.003989
90 0.003988
85 0.004024
86 0.00399
87 0.00399
89 0.004031
91 0.003989
91 0.00399
94 0.00399
95 0.00399
96 0.00399
97 0.003989
100 0.004026
104 0.002897
111 0.002993
117 0.002992
122 0.002959
126 0.002992
133 0.003989
139 0.003995
146 0.00399
152 0.002953
156 0.002985
157 0.003007
137 0.002992
115 0.002992
102 0.003033
101 0.004005
98 0.00399
94 0.00399
85 0.002944
85 0.003992
87 0.002993
88 0.003036
89 0.003018
91 0.002992
94 0.002992
98 0.003025
103 0.00299
107 0.002993
118 0.002993
128 0.002992
137 0.001994
144 0.001986
150 0.002
157 0.001995
168 0.002997
175 0.002992
180 0.00292
185 0.002986
180 0.002995
159 0.002955
152 0.002993
149 0.002992
147 0.001963
146 0.001995
143 0.001995
143 0.001995
143 0.002992
142 0.002941
141 0.001991
139 0.001962
132 0.003048
122 0.002026
125 0.001978
126 0.001994
135 0.001995
142 0.001994
150 0.001995
155 0.001995
159 0.001994
160 0.001995
161 0.001995
163 0.001998
147 0.001995
126 0.001995
117 0.000995
112 0.000998
102 0.001991
95 0.001994
90 0.000999
89 0.000998
92 0.002027
95 0.002009
102 0.001995
109 0.002017
111 0.001995
118 0.002029
122 0.001995
126 0.000998
133 0.000998
140 0.001996
147 0.001995
154 0.000997
160 0.000997
164 0.001006
166 0.001024
169 0.000997
174 0.000998
181 0.000987
163 0.001003
142 0.000986
127 0.000997
125 0.001952
121 0.000997
113 0.001056
108 0.000997
112 0.00103
119 0.000998
117 0.001011
117 0.001019
119 0.001002
121 0.00103
124 0.001003
129 0.001001
131 0.000997
136 0.000997
141 0.000998
150 0.0
154 0.000998
155 0.000997
154 0.000998
155 0.001023
157 0.000997
157 0.000988
129 0.000997
104 0.000963
99 0.000995
94 0.000997
92 0.0
87 0.0
84 0.0
87 0.0
97 0.000998
106 0.000997
114 0.00099
119 0.000998
120 0.000966
124 0.000983
126 0.000997
129 0.0
132 0.0
137 0.0
147 0.0
154 0.0
157 0.0
157 0.0
160 0.0
156 0.0
116 0.001002
84 0.000997
87 0.000997
94 0.0
98 0.0
91 0.0
76 0.0
78 0.0
81 0.0
84 0.0
86 0.0
88 0.0
96 0.0
109 0.000967
114 0.0
115 0.001004
119 0.0
130 0.000118
141 0.0
150 0.0
157 0.0
156 0.0
156 0.0
172 0.0
169 0.000968
129 0.000997
111 0.000951
113 0.000997
123 0.000983
126 0.001008
123 0.000998
123 0.000997
122 0.0
123 0.0
126 0.0
130 0.0
132 0.001039
136 0.000973
140 0.000953
146 0.000964
150 0.00095
156 0.000998
166 0.000998
171 0.000997
178 0.000998
185 0.000997
193 0.000997
205 0.001999
217 0.000994
229 0.000993
236 0.000997
223 0.001032
188 0.000998
165 0.001002
155 0.000998
149 0.000998
147 0.000998
141 0.000997
136 0.000998
136 0.001948
140 0.001994
143 0.001996
149 0.001982
153 0.001994
157 0.000998
159 0.000991
165 0.000997
171 0.000998
176 0.000998
182 0.000997
190 0.000998
201 0.001967
203 0.001967
206 0.001961
210 0.001998
192 0.002046
164 0.001995
139 0.001994
135 0.001995
135 0.002017
134 0.002034
128 0.002
127 0.001995
130 0.001987
132 0.000936
132 0.001998
133 0.001993
134 0.001994
139 0.001987
142 0.001995
145 0.001994
153 0.002004
158 0.001995
164 0.00199
173 0.002028
177 0.001989
180 0.002998
188 0.002994
180 0.002946
151 0.002992
118 0.002001
107 0.002001
105 0.001971
103 0.001994
99 0.001993
93 0.001994
92 0.001993
93 0.001995
95 0.001995
95 0.001994
96 0.002991
100 0.002992
105 0.000997
109 0.000997
114 0.000998
117 0.002992
119 0.002992
124 0.001997
128 0.001993
137 0.001989
143 0.00102
149 0.001029
155 0.002991
162 0.002992
162 0.001004
133 0.000997
110 0.000998
98 0.002992
95 0.001997
91 0.0
85 0.0
76 0.003978
91 0.000969
89 0.0
103 0.001942
106 0.002961
101 0.004031
120 0.002024
115 0.001994
127 0.002051
130 0.003024
136 0.002992
142 0.0
146 0.003994
157 0.000997
159 0.0
165 0.00095
170 0.003989
172 0.002984
151 0.0
120 0.000974
114 0.00105
101 0.003026
103 0.004042
95 0.000975
93 0.00399
90 0.0
92 0.0
95 0.0
93 0.003982
87 0.003989
93 0.0
99 0.0
107 0.001019
112 0.004022
121 0.003977
131 0.000999
139 0.003988
152 0.0
160 0.0
170 0.0
174 0.003992
182 0.004007
160 0.0
125 0.000967
97 0.001963
82 0.005014
72 0.005049
60 0.0
47 0.00494
43 0.0
47 0.000967
49 0.000999
53 0.004052
53 0.00399
58 0.001049
65 0.002026
71 0.002027
77 0.005013
82 0.004987
90 0.004984
94 0.004985
100 0.002025
106 0.001019
110 0.000967
118 0.004987
128 0.004987
141 0.000988
150 0.001005
159 0.000969
168 0.005022
150 0.005022
88 0.004982
71 0.004984
67 0.000991
62 0.001014
50 0.001006
41 0.004987
38 0.004028
48 0.001995
51 0.002002
53 0.001996
57 0.002002
64 0.004967
76 0.001996
87 0.005954
97 0.005011
112 0.001028
120 0.001024
127 0.001995
137 0.006071
147 0.005985
157 0.001961
164 0.001994
170 0.001994
177 0.005984
135 0.001966
101 0.005886
82 0.005016
76 0.001967
73 0.002958
64 0.001995
59 0.006049
60 0.006028
67 0.002025
68 0.002995
69 0.002993
72 0.005985
85 0.001995
94 0.005999
101 0.005997
112 0.002977
118 0.002969
124 0.001996
127 0.007018
133 0.006982
143 0.002992
152 0.002021
159 0.001946
166 0.006018
138 0.003015
100 0.005973
75 0.005981
63 0.001962
57 0.001994
49 0.001995
43 0.006017
41 0.007018
49 0.002999
55 0.001984
59 0.001986
65 0.006974
74 0.003002
86 0.006945
95 0.005967
110 0.002013
118 0.002024
123 0.003029
130 0.007016
134 0.007015
144 0.003019
152 0.002991
157 0.003026
166 0.006976
182 0.002006
193 0.006014
202 0.006977
209 0.002015
175 0.002998
138 0.003006
116 0.006981
110 0.007014
105 0.001989
96 0.001975
86 0.002992
82 0.006981
89 0.002986
93 0.002993
94 0.00698
95 0.006981
99 0.003005
107 0.004023
117 0.003958
128 0.007918
136 0.006981
147 0.003987
152 0.003993
169 0.003995
178 0.002972
186 0.003988
193 0.007973
197 0.00797
205 0.004018
187 0.004022
149 0.003997
126 0.007979
115 0.007979
113 0.003057
107 0.002982
96 0.002986
96 0.002988
100 0.002993
105 0.007973
104 0.007983
112 0.003989
116 0.004003
126 0.000973
136 0.007947
144 0.007949
161 0.004016
168 0.003023
180 0.002991
187 0.002013
199 0.004001
209 0.007978
216 0.007972
224 0.004027
227 0.003024
204 0.003994
153 0.007971
132 0.007944
122 0.00402
118 0.003987
104 0.005
96 0.004995
94 0.005003
96 0.006982
98 0.006981
98 0.004987
105 0.004015
109 0.003989
115 0.007949
122 0.007919
124 0.003974
132 0.003025
133 0.004999
140 0.004983
140 0.003975
148 0.006991
153 0.006953
177 0.005983
192 0.005017
199 0.005014
209 0.006948
216 0.007975
218 0.004987
183 0.00502
132 0.004999
128 0.004956
125 0.003967
121 0.006973
113 0.007017
108 0.006986
110 0.002978
113 0.003995
116 0.003984
115 0.006984
119 0.005978
123 0.004991
140 0.005984
158 0.005018
170 0.005976
177 0.005965
185 0.007022
195 0.006983
204 0.005982
216 0.004989
225 0.005985
231 0.005983
237 0.005982
221 0.005918
174 0.005948
156 0.005008
153 0.005009
154 0.005953
147 0.006023
139 0.005952
137 0.005991
142 0.004998
148 0.006032
151 0.006933
154 0.005984
159 0.004967
171 0.005985
178 0.005952
190 0.006018
197 0.005986
200 0.005984
204 0.005984
214 0.00504
220 0.005976
228 0.005975
238 0.005985
239 0.005023
214 0.006013
176 0.005984
152 0.006014
147 0.005985
144 0.00598
131 0.005982
122 0.005985
114 0.005976
116 0.005972
118 0.005997
120 0.005985
122 0.003989
131 0.005017
139 0.004987
150 0.005946
159 0.005002
166 0.005951
175 0.005997
179 0.006014
186 0.005952
189 0.005974
198 0.004986
203 0.004987
209 0.005018
220 0.005025
226 0.004985
231 0.004956
237 0.004847
225 0.004912
185 0.004953
146 0.00502
132 0.004029
130 0.003989
119 0.004989
113 0.005022
105 0.005031
102 0.004989
103 0.004979
102 0.004986
100 0.004937
101 0.00499
105 0.004922
109 0.005071
114 0.004987
120 0.004989
124 0.004127
137 0.00399
140 0.00399
148 0.003989
154 0.003989
162 0.004986
175 0.004958
181 0.004012
186 0.003988
189 0.003989
197 0.003989
178 0.004026
134 0.004046
114 0.004027
104 0.003989
106 0.003989
101 0.004
99 0.003968
97 0.003989
98 0.004001
99 0.003964
101 0.004975
104 0.00404
113 0.004028
120 0.004004
127 0.004007
135 0.00399
145 0.003978
150 0.004064
159 0.003991
168 0.003958
178 0.003946
185 0.003971
193 0.002986
201 0.00295
207 0.004005
180 0.003041
141 0.002993
111 0.004031
92 0.003999
86 0.00395
69 0.004082
62 0.003986
55 0.00399
63 0.002959
60 0.003022
51 0.002991
56 0.002992
55 0.002993
61 0.003018
69 0.002986
75 0.003023
79 0.003024
83 0.00405
86 0.004031
99 0.00299
108 0.002983
118 0.002992
129 0.003043
144 0.003043
153 0.002979
161 0.002961
168 0.002985
180 0.00303
148 0.002976
107 0.002961
74 0.002994
68 0.002957
66 0.002011
58 0.002992
48 0.002993
39 0.002992
39 0.003044
45 0.002996
48 0.002985
49 0.003028
53 0.002988
59 0.003
68 0.001995
78 0.001994
88 0.001994
93 0.001995
100 0.001995
119 0.002993
135 0.002984
148 0.003032
162 0.001961
170 0.00202
174 0.001994
155 0.001933
118 0.001975
88 0.002029
83 0.001995
83 0.002053
78 0.002001
70 0.002022
65 0.001996
72 0.001995
80 0.002065
83 0.001982
86 0.002036
93 0.001994
101 0.001995
112 0.001994
118 0.001995
128 0.002002
137 0.001995
146 0.001995
155 0.001995
165 0.001998
181 0.001909
192 0.00197
196 0.001937
204 0.001995
208 0.001961
170 0.00199
137 0.001958
117 0.000998
109 0.000997
103 0.001003
90 0.00196
79 0.001006
81 0.002059
85 0.001992
89 0.001996
89 0.00202
89 0.001064
92 0.001047
98 0.000999
103 0.001005
116 0.001007
121 0.001031
129 0.000997
133 0.000997
145 0.000996
158 0.000963
174 0.001058
194 0.001034
209 0.00203
224 0.000997
226 0.000969
235 0.001052
232 0.000998
209 0.000997
181 0.000997
178 0.000998
176 0.000999
170 0.000997
162 0.000997
157 0.000997
160 0.000971
168 0.0
171 0.000999
171 0.0
173 0.000999
175 0.000997
177 0.000998
186 0.000997
194 0.000998
198 0.000988
200 0.001012
203 0.000985
209 0.000964
218 0.0
223 0.0
229 0.0
163 0.0
229 0.0
204 0.0
172 0.000998
165 0.000965
162 0.000998
151 0.0
139 0.0
134 0.0
137 0.0
144 0.0
142 0.0
145 0.0
143 0.0
145 0.0
142 0.000974
146 0.000953
158 0.000964
165 0.00096
170 0.0
176 0.0
182 0.0
189 0.0
196 0.0
199 0.0
206 0.0
215 0.0
229 0.0
234 0.0
242 0.0
238 0.000971
207 0.000942
178 0.000983
168 0.000973
171 0.0
164 0.000998
156 0.0
146 0.0
142 0.001001
143 0.000968
147 0.000962
156 0.001006
158 0.000965
162 0.000964
168 0.001005
173 0.000995
184 0.000966
189 0.000998
191 0.000996
193 0.000956
201 0.001023
213 0.001002
220 0.001053
231 0.000976
234 0.001013
238 0.000999
241 0.000997
244 0.000997
246 0.000951
246 0.000998
192 0.002005
188 0.001998
170 0.001996
147 0.001003
147 0.001011
147 0.001019
145 0.001051
142 0.000997
140 0.001006
141 0.001017
141 0.001032
139 0.001031
136 0.000987
135 0.000998
135 0.001974
137 0.001981
140 0.001977
141 0.001964
144 0.002027
146 0.002012
146 0.000978
150 0.00098
153 0.00102
157 0.001032
162 0.001995
166 0.000961
168 0.000996
170 0.001991
172 0.001998
174 0.001971
162 0.002004
145 0.002004
132 0.001976
132 0.001981
132 0.001995
129 0.001998
123 0.002947
116 0.000983
115 0.000997
117 0.001995
115 0.001987
116 0.001959
115 0.002005
115 0.001985
116 0.002001
117 0.001999
118 0.001959
118 0.002992
119 0.003016
120 0.000939
123 0.000997
127 0.001023
130 0.000997
133 0.000959
136 0.001993
142 0.002014
148 0.001005
152 0.001006
155 0.001971
156 0.001991
150 0.002992
127 0.000833
97 0.002977
94 0.000996
89 0.001996
83 0.002003
72 0.002029
63 0.002975
74 0.001004
75 0.00103
75 0.0
74 0.002992
79 0.002993
86 0.0
95 0.002986
100 0.001082
105 0.000979
112 0.000987
114 0.002996
128 0.002988
141 0.001028
151 0.001004
158 0.000987
165 0.004016
176 0.00298
188 0.002992
195 0.002986
199 0.002997
202 0.000998
171 0.001008
127 0.00101
101 0.002981
92 0.003997
94 0.001016
92 0.0
83 0.0
78 0.004022
79 0.00399
83 0.003987
82 0.003005
87 0.000993
92 0.000999
100 0.001031
109 0.003968
115 0.004039
125 0.0
135 0.001012
141 0.000997
147 0.004022
152 0.003941
162 0.003957
166 0.003991
168 0.000998
175 0.0
181 0.001008
186 0.003957
193 0.003996
194 0.000995
201 0.0
195 0.001032
147 0.004027
104 0.004065
75 0.004014
74 0.004016
67 0.0
60 0.0
46 0.001007
45 0.005006
45 0.005006
46 0.00102
45 0.001019
41 0.001016
47 0.004022
51 0.003993
61 0.003986
68 0.003987
76 0.001005
82 0.0
87 0.000985
93 0.004993
102 0.005006
124 0.001009
134 0.001008
141 0.001002
150 0.005022
158 0.005016
122 0.003986
83 0.003974
56 0.001005
57 0.001003
52 0.002043
42 0.00502
33 0.004988
31 0.000981
32 0.000978
36 0.001074
38 0.005039
39 0.004987
52 0.004981
62 0.005022
68 0.005981
80 0.001973
86 0.002008
95 0.001998
99 0.00496
110 0.005008
123 0.001016
132 0.001993
144 0.0
137 0.005048
85 0.001028
61 0.005002
55 0.006003
53 0.001985
43 0.002018
32 0.001988
26 0.00601
32 0.005935
39 0.002007
44 0.001994
48 0.002011
55 0.000988
60 0.002
65 0.004978
71 0.006019
78 0.002001
86 0.002998
90 0.002004
101 0.005974
112 0.00598
128 0.002002
140 0.002036
147 0.002027
166 0.001997
173 0.002968
186 0.005939
194 0.005958
207 0.00297
213 0.002967
219 0.004009
224 0.00595
228 0.006045
188 0.001974
160 0.001993
152 0.001029
150 0.001999
141 0.002998
124 0.006994
115 0.006972
113 0.001993
118 0.003009
120 0.003
117 0.005973
122 0.005968
125 0.002028
132 0.003026
138 0.003023
153 0.003027
158 0.002993
165 0.006959
168 0.006982
175 0.000957
183 0.002993
190 0.002032
197 0.006992
202 0.006985
209 0.002001
194 0.001994
164 0.002028
143 0.003013
143 0.002999
134 0.006975
121 0.006971
115 0.002989
117 0.002018
123 0.001991
130 0.007019
133 0.007012
134 0.001995
139 0.003988
145 0.00502
153 0.003956
160 0.002939
166 0.002988
169 0.006986
174 0.006997
178 0.002988
183 0.002005
189 0.002991
195 0.006961
200 0.007979
203 0.004059
209 0.00402
208 0.003996
211 0.002985
208 0.00399
216 0.007978
219 0.006952
218 0.002989
229 0.003989
231 0.003974
240 0.007978
246 0.007963
249 0.003989
255 0.005022
255 0.003993
252 0.003024
209 0.004017
174 0.007962
167 0.007962
166 0.003974
153 0.002981
134 0.003005
118 0.00698
115 0.007978
117 0.003978
118 0.005017
113 0.003975
108 0.003981
113 0.003963
113 0.007971
121 0.007985
123 0.003992
129 0.004984
131 0.004972
137 0.006947
145 0.005992
148 0.005045
159 0.007021
164 0.004985
169 0.004986
172 0.004992
178 0.007967
179 0.007933
185 0.003954
189 0.004003
195 0.003981
186 0.007958
146 0.006983
126 0.005009
124 0.006941
116 0.005013
105 0.005029
98 0.005016
92 0.006983
97 0.00696
98 0.004986
97 0.005983
95 0.004986
96 0.007026
99 0.005986
103 0.005001
114 0.006985
119 0.004968
126 0.006006
129 0.005969
139 0.006945
144 0.007022
148 0.004962
156 0.004986
164 0.004979
173 0.005965
181 0.006992
192 0.006
200 0.006001
208 0.006015
214 0.006027
220 0.005976
225 0.005973
232 0.006981
233 0.006986
211 0.005016
169 0.004991
138 0.004987
129 0.007005
124 0.006963
104 0.005997
86 0.005958
79 0.006007
75 0.005983
74 0.004977
74 0.005986
67 0.006978
70 0.006013
70 0.005014
81 0.005962
87 0.005969
97 0.00599
109 0.005988
118 0.006018
125 0.005958
139 0.005978
143 0.005948
153 0.005971
158 0.005981
166 0.005028
172 0.004986
177 0.005019
190 0.006986
194 0.004969
203 0.005987
206 0.006007
174 0.005983
147 0.005976
115 0.005961
107 0.00597
90 0.005994
77 0.00599
64 0.004988
56 0.005013
59 0.004987
60 0.005049
59 0.00502
53 0.005019
61 0.005959
67 0.005984
72 0.00598
80 0.005981
90 0.00603
99 0.004979
108 0.005017
112 0.004987
115 0.005018
123 0.005022
137 0.004995
145 0.005031
154 0.004971
163 0.004979
169 0.004978
177 0.006007
186 0.005998
194 0.005974
200 0.004979
205 0.004981
198 0.004949
155 0.004988
108 0.004988
102 0.004955
94 0.004996
87 0.004984
72 0.004979
59 0.004986
53 0.005024
51 0.004015
47 0.004996
41 0.004974
42 0.004999
45 0.004962
52 0.004992
61 0.004955
64 0.00502
73 0.004982
80 0.003973
89 0.004004
96 0.003991
107 0.003964
120 0.003991
130 0.003987
139 0.003983
159 0.00399
179 0.003959
194 0.004985
200 0.005037
209 0.003995
216 0.005003
227 0.004015
223 0.004024
177 0.004023
138 0.004013
127 0.00399
127 0.004001
122 0.00398
112 0.003987
100 0.004021
103 0.003994
102 0.003981
104 0.002976
102 0.003954
99 0.00403
102 0.004013
104 0.003982
113 0.003988
120 0.00397
135 0.003969
143 0.003989
147 0.004003
154 0.003977
167 0.003987
179 0.002985
194 0.002983
199 0.002989
208 0.003027
219 0.003994
233 0.00402
239 0.003988
221 0.003976
174 0.003996
144 0.003992
134 0.003984
132 0.002974
131 0.003033
121 0.00302
112 0.002991
110 0.003015
113 0.00402
116 0.003954
116 0.004
121 0.003997
127 0.004024
135 0.003988
141 0.003955
151 0.002994
154 0.002993
155 0.002992
156 0.002992
158 0.002993
168 0.002989
175 0.002998
184 0.003062
194 0.002993
206 0.002983
214 0.001979
228 0.001992
229 0.003017
238 0.002976
181 0.003022
158 0.003023
139 0.003018
126 0.002989
121 0.003012
122 0.002995
112 0.002994
106 0.002026
102 0.002026
104 0.001993
103 0.001995
101 0.002967
102 0.002971
102 0.002968
104 0.002989
107 0.003016
113 0.002969
117 0.002993
123 0.002038
127 0.001991
131 0.002021
136 0.002033
141 0.002031
146 0.001995
151 0.001991
155 0.002004
153 0.001957
136 0.00201
114 0.001993
103 0.002032
105 0.002021
98 0.003
94 0.002028
91 0.002028
91 0.001998
96 0.001996
98 0.001996
97 0.001974
100 0.002022
102 0.001985
109 0.001986
109 0.00199
115 0.001948
118 0.000947
121 0.000952
126 0.001987
128 0.002015
136 0.002001
138 0.001986
142 0.00199
147 0.001986
151 0.00199
156 0.001992
159 0.000998
161 0.000998
146 0.000956
121 0.001017
101 0.000996
93 0.000966
87 0.001995
80 0.001972
70 0.002015
63 0.002054
60 0.001994
63 0.001989
64 0.000998
66 0.000965
68 0.000997
71 0.001054
75 0.001005
81 0.001001
87 0.000963
90 0.000988
94 0.00099
97 0.001961
101 0.000999
107 0.000997
114 0.000999
121 0.001042
122 0.000997
124 0.001006
126 0.000964
125 0.000998
108 0.001033
70 0.000998
55 0.000962
41 0.000967
34 0.000946
26 0.000963
15 0.0
17 0.0
25 0.0
29 0.0
31 0.000968
26 0.0
12 0.0
6 0.000968
12 0.001008
23 0.000948
33 0.000997
43 0.000996
58 0.0
65 0.0
75 0.0
80 0.0
86 0.0
93 0.0
100 0.0
110 0.0
117 0.0
122 0.001012
126 0.0
130 0.000952
125 0.0
103 0.0
86 0.0
84 0.0
83 0.0
77 0.0
70 0.0
65 0.0
67 0.0
73 0.0
78 0.0
82 0.001027
88 0.0
94 0.0
101 0.0
106 0.0
110 0.0
113 0.0
116 0.0
122 0.0
128 0.000948
133 0.0
137 0.000998
142 0.001012
144 0.001023
147 0.000995
154 0.002023
158 0.002019
161 0.000973
168 0.000941
175 0.000994
182 0.00099
190 0.000964
196 0.000989
201 0.000963
206 0.00104
209 0.001022
219 0.001004
216 0.001969
192 0.001005
172 0.000988
160 0.001002
161 0.000956
151 0.002005
145 0.001011
139 0.000994
132 0.00098
137 0.00103
136 0.000994
137 0.00099
136 0.00099
139 0.001012
141 0.001001
143 0.000993
148 0.000999
150 0.001003
154 0.001999
155 0.002035
159 0.001994
163 0.000999
168 0.000998
173 0.000985
175 0.001006
179 0.001012
183 0.000996
187 0.000989
190 0.000988
194 0.000996
198 0.001964
200 0.001962
189 0.001948
152 0.001996
140 0.001967
138 0.001993
134 0.001036
126 0.001016
118 0.001019
114 0.001068
117 0.001957
119 0.001991
120 0.001934
120 0.001995
125 0.001992
130 0.002004
135 0.002001
140 0.001993
143 0.001995
149 0.001994
152 0.00199
157 0.002002
161 0.001995
166 0.002002
172 0.003019
174 0.002992
178 0.002011
180 0.002026
182 0.000997
184 0.001997
188 0.002012
191 0.002027
201 0.001995
209 0.001984
211 0.001997
193 0.001992
160 0.002983
148 0.002994
140 0.00102
134 0.002992
126 0.000999
121 0.001007
119 0.000992
120 0.001989
123 0.001999
123 0.001995
122 0.001989
125 0.000968
128 0.00298
132 0.002991
138 0.000996
144 0.002992
148 0.000992
151 0.001021
154 0.002044
157 0.002053
163 0.002989
168 0.003
175 0.000948
181 0.000997
185 0.001992
188 0.003043
211 0.002941
218 0.00293
211 0.003042
168 0.000966
144 0.000992
133 0.001005
132 0.002986
129 0.002997
117 0.0
110 0.002007
107 0.000952
109 0.003993
110 0.0
111 0.003985
114 0.003996
120 0.0
127 0.0
132 0.001025
139 0.003003
144 0.002992
148 0.002992
152 0.000966
156 0.0
161 0.00399
170 0.0
177 0.004025
182 0.003989
190 0.0
198 0.0
204 0.0
209 0.003984
212 0.002986
217 0.0
197 0.0
159 0.001044
131 0.003988
112 0.0
108 0.004048
101 0.004041
89 0.000997
81 0.0
79 0.0
79 0.004937
80 0.003966
80 0.001026
82 0.001001
86 0.0
90 0.003994
101 0.000984
107 0.004036
111 0.00399
116 0.001
120 0.0
126 0.001006
131 0.003988
139 0.005005
147 0.000999
154 0.000989
163 0.000995
170 0.004981
178 0.000997
182 0.005042
187 0.003985
170 0.000987
137 0.001968
116 0.001975
108 0.005
106 0.004979
100 0.00097
93 0.0
88 0.0
90 0.004974
94 0.001031
94 0.00503
98 0.005018
104 0.004983
114 0.001993
121 0.001034
128 0.001026
134 0.005011
139 0.004961
145 0.001003
151 0.000993
156 0.000993
167 0.001007
174 0.001001
181 0.005017
187 0.004985
192 0.000966
198 0.001011
199 0.002001
199 0.006004
166 0.005982
128 0.00099
115 0.00095
105 0.000969
97 0.001025
86 0.001029
81 0.005017
78 0.005066
84 0.000997
85 0.001005
85 0.001933
87 0.005983
89 0.005974
95 0.001994
103 0.002004
110 0.000984
118 0.002006
123 0.000977
127 0.005984
133 0.005946
139 0.001001
142 0.000995
144 0.001994
149 0.00603
153 0.006023
161 0.001995
166 0.001972
174 0.001979
182 0.002016
173 0.002002
141 0.006016
114 0.006024
99 0.001988
94 0.002987
87 0.003014
76 0.006985
66 0.006005
60 0.001991
64 0.003017
71 0.002969
73 0.002996
75 0.002001
81 0.006018
88 0.005992
99 0.001994
106 0.001994
112 0.002992
118 0.006991
123 0.00699
131 0.001976
139 0.001967
147 0.002995
155 0.003015
159 0.002992
168 0.007019
173 0.006013
179 0.002006
182 0.001977
185 0.002994
166 0.006991
135 0.006973
106 0.002967
102 0.002998
95 0.003031
89 0.002992
82 0.002837
81 0.001971
85 0.006981
89 0.006973
85 0.003003
79 0.002991
88 0.00202
99 0.007006
99 0.006987
112 0.003021
116 0.006982
129 0.002988
133 0.003047
140 0.003023
145 0.006964
154 0.00695
161 0.002984
167 0.00398
171 0.003964
179 0.00796
185 0.007979
190 0.002989
196 0.00798
178 0.004029
143 0.003028
116 0.002987
101 0.00695
94 0.006973
83 0.003997
71 0.003998
62 0.002946
60 0.007999
66 0.00799
70 0.003999
73 0.007984
78 0.004026
83 0.003983
91 0.003991
98 0.006945
105 0.00795
110 0.003969
114 0.002975
119 0.004
124 0.007966
131 0.007974
136 0.003997
139 0.007971
145 0.003989
151 0.00402
158 0.004036
164 0.007971
173 0.007966
178 0.003987
183 0.003984
192 0.003994
200 0.007947
200 0.007966
162 0.004029
126 0.00795
123 0.005021
123 0.00399
119 0.004992
109 0.00698
104 0.008009
107 0.004969
114 0.003969
117 0.004023
118 0.006983
122 0.006971
125 0.004025
132 0.007935
138 0.004031
143 0.005015
149 0.005032
153 0.00798
158 0.007007
164 0.003991
170 0.00498
177 0.004995
187 0.007039
194 0.00704
207 0.006983
210 0.006987
214 0.004986
215 0.003988
203 0.004033
173 0.004966
149 0.006982
146 0.006982
148 0.004977
148 0.005016
144 0.005018
143 0.006986
150 0.005021
155 0.007013
156 0.006028
159 0.005985
162 0.005987
169 0.005946
174 0.006004
179 0.005994
182 0.005976
187 0.00399
189 0.004985
194 0.006975
200 0.005019
206 0.006979
210 0.005985
212 0.005951
214 0.005995
219 0.005974
225 0.006
231 0.006003
235 0.005982
237 0.005985
235 0.005976
208 0.006978
170 0.005966
166 0.004973
167 0.006983
162 0.005992
150 0.005973
143 0.00599
139 0.005982
141 0.006007
143 0.005971
143 0.005036
142 0.005983
143 0.005964
147 0.005979
149 0.006012
152 0.005984
155 0.005965
159 0.005018
163 0.005959
166 0.004999
170 0.00596
176 0.005962
180 0.005974
184 0.005955
189 0.005992
197 0.005987
202 0.006008
206 0.005985
208 0.005985
239 0.004985
232 0.004972
194 0.004978
166 0.005023
156 0.005002
156 0.005979
155 0.004978
145 0.005976
136 0.005961
139 0.005036
146 0.005023
147 0.00502
145 0.004989
147 0.004985
152 0.005007
158 0.005011
167 0.00498
172 0.004929
177 0.004976
180 0.00502
188 0.003963
193 0.00597
200 0.004993
206 0.005045
212 0.004986
219 0.004992
225 0.00497
99 0.005022
233 0.004988
238 0.004986
231 0.00499
194 0.004928
157 0.005004
156 0.003994
157 0.004988
151 0.004043
139 0.004021
133 0.003983
129 0.003991
132 0.003995
134 0.003988
133 0.004975
134 0.004987
140 0.004033
144 0.004983
149 0.005009
153 0.004022
157 0.004021
163 0.004019
167 0.004038
172 0.003992
179 0.003994
183 0.00397
188 0.00399
192 0.003986
197 0.00499
199 0.004966
204 0.003993
212 0.004021
217 0.004086
219 0.004035
219 0.003988
211 0.003987
171 0.00399
131 0.003991
107 0.003983
103 0.00399
90 0.003992
76 0.004992
63 0.003983
58 0.003992
61 0.003991
63 0.003991
61 0.003965
60 0.00397
62 0.003991
68 0.003025
77 0.002993
84 0.002976
94 0.003057
99 0.003005
103 0.003023
110 0.002979
116 0.002993
124 0.002992
132 0.002991
138 0.002988
144 0.003942
151 0.004003
162 0.003979
167 0.002946
176 0.002992
181 0.002992
163 0.002961
122 0.003023
95 0.002992
87 0.00299
88 0.002972
85 0.003
75 0.003003
64 0.002985
63 0.002991
65 0.00299
65 0.002992
63 0.002992
65 0.003024
71 0.002984
76 0.002992
84 0.003029
95 0.00297
102 0.003035
109 0.002958
116 0.002963
123 0.001957
131 0.001955
139 0.001995
149 0.001996
156 0.002045
163 0.002994
170 0.002977
176 0.002993
183 0.002994
185 0.003015
170 0.002985
125 0.002986
92 0.002994
75 0.00202
72 0.002027
59 0.001993
47 0.001995
39 0.002031
39 0.002032
45 0.001985
47 0.001966
44 0.001995
46 0.001996
50 0.002004
55 0.000974
66 0.002005
74 0.002026
78 0.001995
81 0.001997
83 0.002002
93 0.001995
97 0.001995
109 0.001945
113 0.001981
118 0.001984
123 0.001989
128 0.000999
148 0.000999
157 0.000972
166 0.000999
169 0.002009
180 0.002012
169 0.002033
125 0.001995
82 0.002129
72 0.001993
71 0.001986
67 0.002022
57 0.00195
42 0.001994
41 0.000998
44 0.001998
42 0.000999
40 0.001997
41 0.002025
47 0.001996
57 0.001007
65 0.000968
73 0.000997
79 0.000996
87 0.000983
96 0.001002
105 0.000999
116 0.000998
126 0.000975
135 0.001009
143 0.000997
153 0.000997
160 0.000998
167 0.000997
174 0.000981
170 0.001983
133 0.001991
82 0.001015
74 0.000998
72 0.000998
66 0.000998
58 0.000997
52 0.000997
53 0.0
57 0.000989
61 0.001993
63 0.000995
66 0.0
73 0.0
87 0.0
95 0.0
102 0.0
113 0.000998
120 0.001041
126 0.000997
135 0.000994
143 0.001002
154 0.000981
162 0.0
167 0.0
173 0.0
183 0.0
190 0.0
195 0.0
201 0.0
204 0.0
204 0.0
171 0.0
129 0.001021
104 0.0
100 0.0
97 0.0
88 0.0
67 0.0
63 0.0
66 0.0
70 0.0
70 0.0
70 0.0
75 0.0
79 0.0
90 0.001001
98 0.001014
106 0.002003
112 0.000997
124 0.0
134 0.001998
144 0.001006
152 0.002022
160 0.001995
169 0.000998
179 0.000999
189 0.001985
201 0.000871
207 0.001953
215 0.001985
210 0.002004
159 0.002028
145 0.001035
143 0.00196
144 0.002033
139 0.002032
129 0.002029
123 0.002036
124 0.001029
131 0.000996
132 0.000997
132 0.000974
134 0.001
140 0.000996
145 0.000998
152 0.000998
160 0.000993
172 0.001024
178 0.000997
186 0.001972
190 0.001994
197 0.001998
204 0.00205
209 0.001992
222 0.001049
155 0.002005
236 0.001024
240 0.000976
244 0.00103
242 0.001055
205 0.001044
173 0.00199
159 0.001002
156 0.000997
150 0.001995
138 0.001995
121 0.002026
119 0.001997
124 0.001964
127 0.00203
127 0.001037
127 0.000995
131 0.000994
136 0.001029
142 0.000993
148 0.000991
156 0.001997
159 0.001983
167 0.001997
171 0.001998
175 0.001996
178 0.002026
182 0.001964
188 0.002003
190 0.002036
194 0.002028
200 0.001965
203 0.001964
211 0.001986
216 0.001995
220 0.002044
228 0.001996
239 0.001974
228 0.001994
175 0.002005
153 0.001995
147 0.002003
147 0.00203
143 0.001997
128 0.001996
119 0.002996
116 0.001949
124 0.001941
123 0.002025
123 0.002009
126 0.001996
132 0.001993
140 0.001963
145 0.001996
153 0.00099
159 0.000985
161 0.002012
167 0.003007
171 0.002994
187 0.003022
194 0.002993
201 0.001964
210 0.00202
221 0.001936
218 0.002993
226 0.003053
232 0.000989
228 0.002048
202 0.00201
164 0.001991
153 0.003048
149 0.000996
148 0.003036
137 0.002972
126 0.001962
128 0.002039
130 0.002079
131 0.00405
129 0.003037
131 0.00101
132 0.001009
140 0.002036
145 0.003017
153 0.000967
156 0.002992
159 0.003024
163 0.000999
166 0.000965
170 0.001032
176 0.00399
182 0.003989
190 0.000996
195 0.000996
199 0.001021
201 0.002972
215 0.000984
216 0.00298
220 0.002987
204 0.000997
160 0.0
127 0.000995
109 0.003991
109 0.003959
98 0.0
88 0.0
73 0.001
67 0.0
70 0.000997
70 0.00402
67 0.003989
66 0.0
67 0.002005
72 0.0
78 0.003989
82 0.003991
88 0.0
92 0.0
94 0.0
102 0.000992
110 0.000998
117 0.003989
126 0.003989
134 0.0
142 0.0
152 0.0
158 0.004063
164 0.004987
171 0.000999
174 0.0
153 0.0
97 0.001031
81 0.001001
80 0.003996
81 0.004021
64 0.000961
59 0.000999
53 0.001994
52 0.004987
62 0.005023
49 0.0
58 0.0
47 0.0
63 0.0
69 0.000998
83 0.004031
80 0.004022
98 0.0
90 0.000961
105 0.0
108 0.005027
114 0.005036
127 0.004987
135 0.0
143 0.0
158 0.00103
159 0.002007
168 0.001994
166 0.004986
133 0.005984
89 0.002054
72 0.001031
70 0.001
63 0.005037
53 0.004988
38 0.001949
34 0.000989
39 0.001987
44 0.001999
43 0.001997
42 0.005986
45 0.005948
58 0.00103
63 0.002
70 0.002036
79 0.005982
85 0.005005
92 0.001989
100 0.000945
109 0.000951
113 0.00104
118 0.001989
123 0.006017
124 0.006015
137 0.001997
144 0.001991
150 0.002021
158 0.006002
161 0.005992
177 0.001055
171 0.001
105 0.001993
91 0.002027
86 0.000995
85 0.005984
76 0.005984
61 0.002003
53 0.001989
54 0.002044
61 0.005984
60 0.005987
61 0.001001
63 0.001973
70 0.001998
81 0.002009
90 0.001
100 0.007031
104 0.007001
112 0.002057
120 0.001972
128 0.002044
143 0.005984
144 0.005984
160 0.002008
168 0.005983
179 0.002027
186 0.002011
193 0.002994
203 0.00698
204 0.006981
173 0.003019
135 0.001963
120 0.001968
121 0.007026
117 0.006988
108 0.00201
99 0.005984
98 0.001987
103 0.003002
101 0.003045
102 0.006981
104 0.007009
108 0.002943
115 0.001975
123 0.003041
132 0.006969
140 0.006991
146 0.006983
154 0.007013
160 0.006983
170 0.003062
177 0.003023
181 0.003026
185 0.006982
194 0.007953
200 0.004021
208 0.003023
216 0.00301
219 0.006965
223 0.006975
215 0.007006
171 0.007019
129 0.002993
115 0.001982
115 0.003048
106 0.006976
94 0.007944
79 0.004004
71 0.003991
73 0.002917
73 0.007954
75 0.007973
75 0.007978
85 0.007958
89 0.002045
97 0.003022
104 0.002987
111 0.007975
117 0.00799
126 0.003046
131 0.003989
140 0.002988
144 0.007955
155 0.007955
171 0.006981
183 0.007979
187 0.004007
192 0.002989
200 0.002992
200 0.007937
158 0.006982
121 0.00502
107 0.003989
103 0.004021
101 0.007929
96 0.007976
78 0.007939
79 0.007945
85 0.002975
85 0.004987
83 0.005024
85 0.00698
91 0.007028
101 0.005984
106 0.003939
113 0.003991
127 0.006963
132 0.006959
144 0.007978
150 0.006987
162 0.003985
176 0.004062
182 0.003021
198 0.007977
201 0.007984
209 0.004013
213 0.002962
179 0.004007
132 0.00705
115 0.00699
112 0.003989
106 0.006971
94 0.006981
84 0.003963
83 0.004012
86 0.003981
94 0.008017
97 0.006998
96 0.005993
101 0.005017
109 0.005095
120 0.006951
132 0.004986
140 0.006996
139 0.00702
152 0.004985
143 0.004986
146 0.004987
159 0.005952
156 0.005986
187 0.004996
181 0.005012
180 0.004987
190 0.003989
201 0.005951
176 0.006034
133 0.007024
112 0.005951
107 0.005961
93 0.005987
87 0.005971
76 0.006054
65 0.005964
67 0.005999
72 0.005979
75 0.005976
78 0.005978
80 0.005997
90 0.005994
106 0.004986
109 0.002991
121 0.004983
128 0.006982
135 0.005985
143 0.005959
149 0.005978
158 0.005958
168 0.005976
182 0.005982
185 0.00601
193 0.00597
195 0.005979
180 0.004997
147 0.005017
125 0.004996
126 0.005025
128 0.004996
129 0.005018
126 0.004995
121 0.004995
129 0.005956
135 0.006016
137 0.006023
139 0.005982
141 0.004964
150 0.004932
155 0.005013
166 0.005016
175 0.005023
181 0.004987
188 0.004989
198 0.004977
203 0.004995
211 0.004964
218 0.003983
228 0.005983
239 0.004986
241 0.005972
246 0.004955
249 0.004994
229 0.005021
182 0.004984
169 0.00501
170 0.004956
168 0.004987
159 0.004957
152 0.005017
149 0.005978
157 0.00499
160 0.003994
159 0.004022
160 0.005031
161 0.005036
164 0.005031
166 0.003977
170 0.00497
169 0.004979
169 0.004981
171 0.004003
175 0.004045
183 0.003993
189 0.004017
194 0.003996
199 0.003999
204 0.005047
214 0.004996
222 0.004983
228 0.005021
233 0.004964
234 0.004027
206 0.003989
172 0.00406
158 0.003991
161 0.003947
163 0.004998
158 0.004987
148 0.004023
147 0.003987
151 0.003977
154 0.002971
152 0.004009
150 0.004954
152 0.004056
157 0.004026
166 0.003988
173 0.003971
178 0.004009
181 0.003994
181 0.00399
186 0.003959
193 0.004025
201 0.003969
205 0.003942
207 0.00396
209 0.003992
209 0.002994
176 0.002992
150 0.003009
140 0.003036
142 0.003019
143 0.00304
136 0.003026
126 0.003989
130 0.003964
135 0.003023
135 0.00397
135 0.003959
135 0.003989
138 0.002963
142 0.003
146 0.003026
151 0.002992
156 0.002997
160 0.003023
165 0.003004
171 0.002982
176 0.003977
181 0.003966
186 0.002994
191 0.002992
198 0.001995
204 0.003047
205 0.002963
208 0.003001
208 0.002992
186 0.002992
123 0.002992
112 0.002997
109 0.003072
102 0.002955
89 0.002994
79 0.001997
73 0.001995
74 0.002034
75 0.002047
74 0.00299
71 0.002989
70 0.002992
72 0.002991
76 0.002025
82 0.00203
94 0.003024
107 0.002021
115 0.001995
121 0.002028
130 0.001995
137 0.002026
144 0.002018
152 0.001
158 0.00098
166 0.00303
169 0.002992
178 0.002969
163 0.003017
124 0.001999
98 0.001995
91 0.001996
89 0.002027
85 0.002011
77 0.001995
70 0.001995
69 0.001995
70 0.001995
68 0.001988
66 0.001965
68 0.000992
74 0.000998
80 0.000972
88 0.001996
97 0.001996
103 0.001999
108 0.001988
115 0.002044
121 0.000998
134 0.000994
141 0.001042
151 0.000999
158 0.000997
166 0.000998
173 0.00103
179 0.000998
185 0.001995
156 0.001995
111 0.001966
83 0.002035
76 0.002037
71 0.001996
63 0.002026
50 0.001021
45 0.001003
47 0.000998
49 0.000998
48 0.001005
47 0.000998
48 0.000997
53 0.000998
58 0.000957
61 0.000997
67 0.001994
70 0.002127
72 0.000992
82 0.000998
90 0.000997
97 0.002005
104 0.000998
107 0.000998
130 0.000959
140 0.000998
150 0.000998
164 0.000993
170 0.0
178 0.0
178 0.001
120 0.0
86 0.000965
71 0.000998
71 0.000997
69 0.000997
62 0.000989
54 0.0
52 0.000951
57 0.000997
58 0.0
60 0.0
64 0.0
70 0.0
79 0.0
86 0.0
94 0.0
101 0.0
113 0.000998
119 0.000997
127 0.00098
140 0.0
151 0.0
160 0.0
167 0.0
175 0.0
183 0.0
182 0.0
144 0.0
109 0.0
92 0.0
94 0.0
95 0.001
88 0.0
87 0.0
92 0.0
95 0.0
97 0.0
98 0.0
102 0.0
108 0.0
116 0.002992
127 0.001023
135 0.002025
142 0.002031
153 0.002027
160 0.002001
167 0.002042
174 0.002029
185 0.002026
193 0.001988
201 0.000998
210 0.000965
217 0.001032
226 0.001029
227 0.002012
187 0.001996
130 0.002017
120 0.002046
120 0.000962
115 0.002026
102 0.001959
91 0.000964
86 0.00199
85 0.002025
84 0.002031
81 0.002039
80 0.001999
81 0.002043
89 0.001058
94 0.00103
100 0.001
106 0.000996
112 0.000994
120 0.001041
127 0.001988
136 0.001987
143 0.002031
149 0.002039
167 0.002038
184 0.002144
197 0.00297
208 0.001958
220 0.003008
225 0.002044
210 0.001994
151 0.001042
129 0.001995
121 0.001995
118 0.001032
113 0.000998
103 0.001998
98 0.002067
104 0.001993
105 0.002027
103 0.002026
100 0.002003
101 0.002002
108 0.002032
115 0.002014
123 0.00098
128 0.000998
136 0.001989
140 0.002065
149 0.001997
160 0.001995
172 0.001981
182 0.001989
192 0.002033
201 0.001995
208 0.002031
202 0.002995
164 0.00203
130 0.002992
111 0.002023
110 0.001999
106 0.001996
96 0.001998
91 0.003025
91 0.001996
94 0.002993
95 0.002992
96 0.002994
96 0.002995
102 0.001999
110 0.001968
115 0.001997
123 0.002046
133 0.001969
141 0.002989
148 0.001992
155 0.001967
161 0.002993
168 0.001991
171 0.002003
176 0.001996
183 0.002069
188 0.001998
203 0.002031
213 0.002993
186 0.00201
145 0.003032
126 0.003
123 0.001987
123 0.002039
119 0.002022
111 0.002004
107 0.002027
108 0.002993
111 0.000949
110 0.00197
108 0.000982
120 0.001993
126 0.002031
133 0.002996
140 0.003024
148 0.001954
152 0.002021
157 0.002993
168 0.004028
174 0.003986
184 0.001996
193 0.003019
198 0.000997
206 0.000992
212 0.000998
213 0.002993
183 0.00399
145 0.002003
138 0.001984
138 0.000997
137 0.003993
130 0.003989
122 0.0
123 0.000997
126 0.000998
126 0.001001
124 0.000962
126 0.005031
131 0.003992
139 0.002005
145 0.002003
153 0.0
159 0.004036
163 0.004017
169 0.0
176 0.000978
181 0.0
187 0.001028
191 0.0
197 0.003989
201 0.003986
207 0.001013
206 0.000998
171 0.0
135 0.005007
114 0.004992
106 0.0
102 0.0
90 0.000993
72 0.0
70 0.0
72 0.004015
72 0.004018
70 0.0
70 0.001002
71 0.000971
75 0.00395
76 0.004975
80 0.000965
84 0.0
100 0.001021
109 0.001017
116 0.0
125 0.004995
131 0.004987
143 0.0
151 0.000995
159 0.001022
166 0.0
174 0.003949
183 0.003989
191 0.001045
153 0.005006
108 0.0
93 0.002044
93 0.001994
94 0.004967
90 0.005034
81 0.000997
77 0.001995
81 0.002002
84 0.004987
73 0.004988
85 0.001972
77 0.004988
93 0.0
94 0.002002
102 0.002004
110 0.004987
112 0.005039
122 0.000993
130 0.001994
140 0.001995
151 0.004987
156 0.005958
168 0.001993
173 0.005971
170 0.001024
139 0.002032
106 0.00203
93 0.00602
85 0.006051
73 0.001961
74 0.002025
62 0.001997
65 0.00605
70 0.006032
67 0.002013
71 0.005984
72 0.002022
83 0.002008
90 0.00199
101 0.006015
110 0.005984
119 0.001981
126 0.000984
129 0.001008
138 0.006016
146 0.005984
157 0.002006
168 0.006989
180 0.00099
183 0.002028
188 0.002029
195 0.006021
196 0.005996
147 0.002001
109 0.002994
93 0.002963
84 0.00697
79 0.007019
64 0.003991
49 0.00697
45 0.002004
45 0.001021
44 0.001982
40 0.006034
39 0.005985
45 0.002022
53 0.000972
67 0.001994
79 0.007044
89 0.006982
102 0.002008
113 0.006981
125 0.001955
132 0.002001
139 0.002001
151 0.002022
162 0.007008
174 0.007017
185 0.001995
192 0.00203
197 0.003011
203 0.006972
173 0.007975
111 0.006949
99 0.006987
99 0.003026
96 0.003035
86 0.002991
77 0.006986
76 0.007014
83 0.003024
86 0.002985
86 0.00299
89 0.007948
93 0.007944
103 0.007971
112 0.007977
124 0.002997
130 0.003035
134 0.003051
141 0.007012
147 0.007013
161 0.003996
173 0.004041
183 0.004039
194 0.007979
205 0.00299
202 0.007963
159 0.007971
113 0.003993
96 0.002996
91 0.004002
85 0.008015
78 0.007993
70 0.003971
67 0.004007
70 0.00401
74 0.007973
77 0.00399
84 0.007979
89 0.007973
101 0.003004
110 0.002997
118 0.001987
130 0.007984
137 0.006982
145 0.002969
152 0.002994
160 0.002978
169 0.007979
182 0.004034
193 0.007952
197 0.007964
204 0.004001
208 0.004022
207 0.00498
151 0.007949
109 0.006944
85 0.004986
75 0.00402
67 0.004028
57 0.006981
43 0.004041
42 0.006014
47 0.006925
50 0.004983
50 0.003961
56 0.005021
65 0.006948
74 0.006986
83 0.006958
92 0.00499
103 0.004981
113 0.004988
127 0.004026
136 0.003984
147 0.006991
157 0.006983
169 0.005046
179 0.005027
187 0.005018
194 0.007016
202 0.006949
197 0.003957
160 0.005021
129 0.003991
116 0.004023
118 0.004013
113 0.006941
101 0.006966
97 0.005969
100 0.004017
104 0.004986
103 0.005997
103 0.005984
107 0.004995
112 0.004956
121 0.004987
134 0.004943
142 0.004999
149 0.00694
153 0.006984
160 0.00503
170 0.005982
179 0.005984
189 0.005994
197 0.006015
205 0.00598
211 0.004974
216 0.004017
179 0.005032
143 0.005021
122 0.005953
113 0.007029
104 0.00501
97 0.005032
86 0.004993
82 0.005929
86 0.005981
90 0.004959
90 0.005025
92 0.004984
99 0.004992
107 0.005013
119 0.005929
127 0.006022
135 0.004988
140 0.004979
149 0.004963
157 0.005023
164 0.004996
173 0.005971
179 0.005977
185 0.004004
190 0.00502
195 0.005014
203 0.005975
206 0.006018
212 0.004984
221 0.00496
214 0.004987
168 0.005021
131 0.005037
114 0.004993
110 0.004988
94 0.004991
81 0.004977
73 0.005953
72 0.005961
77 0.00502
79 0.005045
79 0.004969
81 0.004998
87 0.004991
93 0.005037
102 0.005001
111 0.004973
119 0.004973
125 0.004975
136 0.004975
145 0.003994
152 0.003997
162 0.004022
176 0.004985
183 0.005055
187 0.005028
193 0.005063
198 0.005016
164 0.004985
122 0.004987
108 0.003957
105 0.005005
98 0.003983
87 0.003988
79 0.003991
82 0.004001
86 0.003995
89 0.005003
87 0.004993
90 0.005051
97 0.004988
108 0.004984
119 0.00498
128 0.003987
136 0.004012
142 0.00399
148 0.00399
159 0.003993
166 0.004982
174 0.003973
182 0.005023
192 0.00399
203 0.004981
211 0.003997
221 0.004986
218 0.004957
180 0.003991
138 0.003966
113 0.003964
102 0.003965
96 0.00398
87 0.00397
73 0.003925
67 0.003991
73 0.003959
78 0.003961
80 0.003961
83 0.002949
91 0.00299
99 0.003018
107 0.003019
117 0.002993
123 0.003024
129 0.002984
133 0.003027
137 0.003989
143 0.004008
151 0.003921
160 0.002964
167 0.002992
178 0.00299
187 0.002977
196 0.002992
208 0.003033
216 0.003023
193 0.002994
152 0.003
132 0.00399
127 0.002993
127 0.002991
118 0.002993
108 0.002993
108 0.002992
112 0.002992
117 0.003025
118 0.002992
118 0.002942
123 0.002028
132 0.002023
141 0.002003
156 0.002024
162 0.001965
166 0.001987
171 0.001993
178 0.003018
187 0.003048
200 0.002993
208 0.003036
216 0.003005
222 0.002976
227 0.00299
228 0.002993
173 0.001989
158 0.001994
156 0.002173
158 0.00296
155 0.001994
149 0.001995
147 0.001992
153 0.002992
158 0.002994
158 0.002959
157 0.00296
160 0.002994
168 0.001973
175 0.001954
182 0.001996
190 0.001965
195 0.001958
200 0.002027
207 0.002029
212 0.002022
223 0.001994
123 0.000999
236 0.000997
244 0.000998
253 0.000994
255 0.000976
255 0.002003
252 0.002031
212 0.001993
181 0.001998
172 0.002028
167 0.002028
166 0.002005
157 0.002001
150 0.00103
147 0.001995
153 0.000969
152 0.001013
152 0.000998
150 0.001035
151 0.001001
151 0.001031
155 0.000998
157 0.001961
161 0.002024
169 0.002032
174 0.000986
179 0.002034
187 0.000999
193 0.000974
197 0.000997
207 0.000997
217 0.001989
222 0.000998
226 0.001
232 0.000997
240 0.002018
176 0.002029
156 0.001991
147 0.002022
149 0.000968
150 0.001006
147 0.00104
144 0.001019
141 0.000996
143 0.000998
144 0.001008
142 0.000997
142 0.000998
141 0.0
142 0.002008
145 0.00101
151 0.0
154 0.00101
155 0.0
157 0.001009
161 0.001005
160 0.000998
161 0.000997
164 0.000998
165 0.001026
168 0.001014
167 0.0
151 0.0
125 0.0
119 0.0
119 0.0
117 0.0
111 0.000996
108 0.0
108 0.0
108 0.0
104 0.001047
107 0.000997
106 0.000998
107 0.000965
113 0.0
115 0.0
119 0.0
117 0.0
124 0.0
124 0.0
130 0.0
131 0.0
133 0.0
139 0.0
141 0.001997
148 0.001017
148 0.0
152 0.0
143 0.0
121 0.0
101 0.0
96 0.0
93 0.002004
88 0.0
82 0.001993
75 0.000997
74 0.002028
55 0.001953
52 0.002019
49 0.001995
48 0.002
50 0.001995
53 0.00201
56 0.002029
60 0.001994
69 0.002028
74 0.002032
80 0.002027
86 0.001989
94 0.002
102 0.000996
106 0.001994
111 0.002008
118 0.002011
124 0.001983
130 0.002027
134 0.002029
142 0.002019
132 0.002028
106 0.002042
88 0.003025
90 0.002947
87 0.002002
81 0.002003
75 0.001997
76 0.002017
80 0.00299
82 0.001021
81 0.00201
80 0.002026
83 0.002025
87 0.002025
94 0.002027
101 0.001993
107 0.002078
111 0.002027
116 0.001983
122 0.001989
128 0.001984
138 0.002976
141 0.001995
146 0.00104
149 0.002022
154 0.002017
142 0.001994
113 0.002018
100 0.002011
100 0.002024
97 0.001993
92 0.001992
87 0.001989
87 0.002027
90 0.00204
92 0.001984
92 0.001986
94 0.002035
97 0.001031
104 0.001994
112 0.002016
116 0.001994
122 0.001992
125 0.001991
127 0.00196
134 0.002032
138 0.001995
143 0.002004
148 0.002028
152 0.002026
157 0.002968
160 0.001966
163 0.003014
156 0.002026
128 0.001995
108 0.001994
102 0.001994
100 0.001995
97 0.001994
88 0.002053
83 0.002969
82 0.002954
87 0.003026
88 0.002934
87 0.003005
88 0.003026
92 0.002028
97 0.00298
101 0.002004
105 0.002036
114 0.001983
120 0.00199
127 0.001965
131 0.002051
140 0.001996
146 0.001995
152 0.001997
156 0.003012
159 0.002984
163 0.00199
166 0.002003
148 0.002012
130 0.002993
120 0.00399
117 0.001959
114 0.001993
106 0.001992
105 0.001985
108 0.002014
108 0.003006
108 0.003024
105 0.002004
105 0.003017
108 0.00201
112 0.004056
117 0.003971
123 0.001
127 0.001
132 0.001016
136 0.000981
141 0.001003
148 0.002967
167 0.003033
173 0.001985
180 0.001995
186 0.001979
191 0.002985
191 0.004031
150 0.000973
122 0.001005
108 0.001001
106 0.002006
97 0.002044
87 0.00403
81 0.003978
85 0.001994
88 0.00399
88 0.000968
88 0.004031
90 0.003982
96 0.001005
102 0.001034
111 0.000994
117 0.002015
121 0.001988
125 0.004005
132 0.003999
136 0.001994
139 0.000959
144 0.0
153 0.004927
170 0.00502
186 0.0
187 0.0
201 0.000998
211 0.0
180 0.000999
146 0.003989
139 0.003982
126 0.001992
135 0.001996
120 0.000995
108 0.004981
99 0.004019
118 0.000972
107 0.0
121 0.0
112 0.000994
120 0.001992
123 0.0
129 0.004977
134 0.004997
144 0.001003
153 0.001992
154 0.00202
159 0.004005
167 0.00499
186 0.001989
194 0.005008
200 0.0
200 0.0
217 0.0
214 0.004986
183 0.00499
145 0.0
127 0.0
129 0.001963
117 0.006049
116 0.005984
104 0.001925
107 0.005994
106 0.0
105 0.000995
108 0.000973
104 0.004991
113 0.004996
120 0.000946
129 0.0
134 0.001994
138 0.005948
146 0.005943
153 0.0
161 0.005978
170 0.001963
177 0.0
183 0.002004
186 0.00502
194 0.004947
198 0.001985
196 0.00204
156 0.001058
120 0.005975
102 0.006018
94 0.005988
88 0.005983
74 0.001992
67 0.0
64 0.002015
71 0.005995
67 0.005989
71 0.000986
67 0.002013
75 0.003026
81 0.005985
85 0.005967
94 0.005946
95 0.005942
102 0.003001
107 0.001994
115 0.00197
124 0.00601
137 0.006941
143 0.001954
152 0.002023
164 0.001989
177 0.006975
190 0.007011
214 0.005984
199 0.00598
140 0.001998
116 0.001992
111 0.001996
111 0.006947
108 0.006989
97 0.000984
91 0.001994
92 0.003016
96 0.006991
97 0.007016
98 0.002004
102 0.006995
108 0.007
118 0.00203
125 0.001997
134 0.001981
141 0.006979
146 0.006992
157 0.003055
165 0.001983
175 0.003003
186 0.00698
199 0.002001
206 0.006989
213 0.007976
215 0.002987
174 0.002027
134 0.002028
108 0.007982
105 0.007968
104 0.001993
96 0.001995
92 0.001966
90 0.007029
97 0.002026
95 0.006975
98 0.00699
103 0.002953
110 0.001979
120 0.001996
132 0.007978
139 0.007979
144 0.002958
150 0.001968
157 0.003024
164 0.007931
176 0.001982
182 0.006977
191 0.006965
201 0.002032
209 0.001989
216 0.001973
222 0.007951
200 0.007971
134 0.002992
103 0.003045
88 0.002974
82 0.007985
74 0.002977
64 0.00798
62 0.007938
66 0.003988
67 0.003043
69 0.002989
71 0.007978
76 0.007985
84 0.003005
92 0.002997
102 0.00399
112 0.007979
123 0.003034
130 0.006977
135 0.006991
138 0.003023
142 0.003021
147 0.003048
155 0.006983
164 0.007985
170 0.003937
176 0.003023
182 0.003985
149 0.002972
98 0.002983
68 0.002989
58 0.007022
56 0.007007
49 0.002992
45 0.00303
39 0.003034
40 0.007006
44 0.006992
48 0.003997
48 0.003956
54 0.003023
61 0.00402
72 0.003983
86 0.006995
98 0.006982
106 0.002995
116 0.004016
124 0.00403
135 0.006975
142 0.006979
150 0.004955
158 0.004956
176 0.004941
182 0.00403
186 0.004022
136 0.005984
100 0.006937
85 0.004024
82 0.004996
83 0.004989
77 0.006981
73 0.007018
73 0.002979
78 0.003981
81 0.004037
81 0.00398
85 0.002982
96 0.005955
107 0.005976
114 0.004049
123 0.003044
131 0.003989
140 0.006981
146 0.007011
155 0.005017
163 0.004981
179 0.00501
188 0.003996
195 0.00395
205 0.005987
212 0.005965
206 0.00403
163 0.005003
125 0.003996
104 0.005938
98 0.007058
91 0.005976
83 0.005958
71 0.005031
77 0.004958
77 0.004023
80 0.00597
82 0.005963
84 0.005002
92 0.004995
99 0.00498
110 0.004988
117 0.005028
124 0.004989
130 0.004945
143 0.004994
149 0.005953
152 0.005929
162 0.005986
165 0.005984
176 0.004986
180 0.005951
187 0.005982
197 0.004974
202 0.004975
198 0.005006
140 0.004981
115 0.004978
110 0.004993
112 0.004993
103 0.004975
95 0.00501
94 0.004998
96 0.005033
101 0.004987
105 0.004987
104 0.005026
108 0.004987
113 0.004948
126 0.004956
135 0.004974
141 0.004988
147 0.004993
153 0.005013
160 0.004989
166 0.004987
177 0.004022
184 0.00401
193 0.004027
197 0.004973
208 0.00498
200 0.005014
153 0.004981
133 0.004985
126 0.004984
130 0.005011
124 0.004
114 0.004003
111 0.003986
114 0.003983
117 0.005026
116 0.004031
116 0.003982
118 0.003995
127 0.003962
134 0.003948
142 0.00399
148 0.004993
154 0.003978
163 0.003938
170 0.003983
176 0.004001
185 0.004049
192 0.004987
205 0.003994
213 0.003956
220 0.003989
227 0.003961
224 0.003959
185 0.00399
149 0.002955
131 0.003973
130 0.003992
125 0.00401
114 0.00399
106 0.004026
105 0.00299
108 0.002993
107 0.003983
106 0.003996
108 0.003978
112 0.002958
119 0.003002
125 0.002984
129 0.002949
132 0.002992
133 0.002992
134 0.003043
146 0.00399
151 0.003988
159 0.003957
164 0.003957
171 0.003959
179 0.002979
185 0.002992
191 0.002969
199 0.002997
192 0.002996
150 0.002993
112 0.002994
93 0.003027
92 0.002995
87 0.00302
73 0.003983
69 0.002978
72 0.003003
77 0.002986
78 0.002989
80 0.002997
82 0.002992
88 0.003007
94 0.003026
105 0.002995
111 0.002992
118 0.002998
127 0.001976
132 0.002007
140 0.001995
148 0.001997
159 0.002955
168 0.002965
175 0.00296
180 0.002962
184 0.002993
135 0.002967
100 0.002992
79 0.002028
65 0.001995
56 0.001988
43 0.002
34 0.002009
37 0.001989
44 0.001991
46 0.001998
47 0.00202
51 0.002999
62 0.00301
70 0.001986
74 0.001999
78 0.001995
82 0.002028
83 0.001996
90 0.001995
99 0.001968
112 0.002021
120 0.001968
128 0.001998
139 0.000999
153 0.002001
161 0.001999
168 0.001001
171 0.002026
127 0.002
84 0.002011
63 0.00198
55 0.000964
48 0.000997
38 0.001027
27 0.000981
20 0.00103
24 0.001042
25 0.000999
27 0.000991
41 0.000997
52 0.001002
62 0.00101
74 0.002038
83 0.00199
96 0.001999
104 0.002022
117 0.00199
139 0.001003
149 0.000978
158 0.001005
171 0.001002
177 0.001007
191 0.001021
199 0.001013
208 0.001019
191 0.00199
141 0.002007
103 0.001972
95 0.000999
94 0.000992
88 0.001072
82 0.000998
84 0.001002
88 0.001016
95 0.000985
92 0.002002
93 0.000988
98 0.001
104 0.001994
118 0.001011
126 0.0
141 0.0
147 0.0
151 0.001022
159 0.001004
169 0.001001
185 0.001012
192 0.000991
202 0.001022
212 0.001032
218 0.001005
158 0.0
199 0.000997
120 0.0
99 0.0
85 0.0
81 0.0
75 0.0
65 0.0
63 0.0
67 0.0
72 0.0
73 0.0
76 0.001005
81 0.0
95 0.0
105 0.0
113 0.0
123 0.0
130 0.0
138 0.0
143 0.0
151 0.0
158 0.0
165 0.0
177 0.001027
188 0.000997
202 0.000998
208 0.003003
214 0.001967
214 0.001985
166 0.0
104 0.001973
86 0.003004
79 0.001965
76 0.002986
70 0.001965
57 0.002987
57 0.003008
64 0.002973
69 0.003024
70 0.002999
75 0.002951
80 0.002992
90 0.002991
106 0.001973
115 0.001958
124 0.001993
128 0.002021
134 0.001984
142 0.001999
156 0.001991
172 0.002002
180 0.001987
186 0.002004
192 0.002001
201 0.002988
179 0.003005
133 0.002995
96 0.002987
82 0.002992
78 0.002001
69 0.002015
61 0.002011
66 0.001988
74 0.001988
75 0.002038
79 0.001988
81 0.001993
91 0.001995
99 0.001985
116 0.002943
123 0.00199
132 0.001991
150 0.002976
157 0.001959
168 0.002988
176 0.002007
185 0.002952
192 0.001995
202 0.001993
209 0.002035
215 0.002024
223 0.002009
207 0.002006
154 0.001995
97 0.002993
85 0.002984
79 0.002965
69 0.002989
51 0.002986
49 0.001972
53 0.002993
56 0.002034
57 0.001988
61 0.002998
65 0.002986
74 0.001995
89 0.002971
98 0.002012
112 0.002019
119 0.003026
129 0.003027
141 0.002999
147 0.002996
155 0.002003
164 0.002027
181 0.001972
185 0.001981
189 0.001984
214 0.002993
202 0.002992
140 0.002957
105 0.002993
89 0.002993
89 0.002991
82 0.00297
71 0.002994
63 0.002992
63 0.002985
65 0.002994
62 0.001997
67 0.002026
78 0.001993
96 0.001998
110 0.003029
120 0.003009
131 0.002961
137 0.001992
144 0.002022
151 0.001991
158 0.002986
174 0.001962
184 0.001993
201 0.002997
209 0.00299
215 0.002986
184 0.001994
136 0.003023
90 0.001998
81 0.00204
76 0.001989
65 0.003025
54 0.002999
50 0.002018
56 0.002991
67 0.003988
70 0.003033
73 0.001977
79 0.003979
90 0.003992
102 0.003057
112 0.002991
119 0.00299
130 0.003982
139 0.003993
148 0.002992
156 0.001986
169 0.001959
173 0.002994
183 0.00198
189 0.003967
197 0.00502
207 0.001995
214 0.001994
192 0.001952
137 0.003061
98 0.004034
76 0.002026
66 0.003026
50 0.001975
39 0.000983
38 0.002008
45 0.004006
53 0.004017
57 0.000997
60 0.002001
66 0.001967
75 0.004023
86 0.004024
101 0.002968
113 0.005038
124 0.000998
131 0.000967
141 0.001012
149 0.00402
158 0.003948
172 0.001991
180 0.001992
187 0.002007
195 0.003989
203 0.003966
175 0.002014
108 0.003989
74 0.001962
68 0.001974
63 0.001009
56 0.004957
49 0.005017
51 0.001947
57 0.001963
63 0.001971
67 0.003997
72 0.00399
84 0.001952
99 0.00499
110 0.004946
125 0.001036
137 0.002024
147 0.001002
157 0.004942
166 0.004953
180 0.001976
189 0.000997
197 0.002009
205 0.004979
205 0.00498
220 0.005038
225 0.004986
216 0.000965
156 0.0
102 0.002022
71 0.004973
60 0.004991
53 0.0
42 0.001999
30 0.001031
26 0.00502
30 0.004994
37 0.006011
38 0.00599
43 0.0
52 0.000998
60 0.001006
72 0.004986
86 0.004986
103 0.0
114 0.001934
123 0.000996
132 0.004952
142 0.004988
160 0.005985
172 0.00598
187 0.000999
196 0.001012
203 0.0
212 0.005998
198 0.005981
118 0.0
80 0.002002
71 0.001017
65 0.004993
61 0.005993
50 0.006029
53 0.006007
62 0.0
71 0.0
72 0.000998
76 0.005969
85 0.005973
96 0.0
108 0.000983
120 0.0
129 0.005991
142 0.006008
155 0.006009
166 0.005963
180 0.0
193 0.001994
204 0.002005
213 0.005996
219 0.006046
231 0.003
227 0.002994
174 0.002987
119 0.007049
86 0.00698
66 0.00698
61 0.007007
48 0.002015
45 0.001993
50 0.002987
58 0.006962
64 0.006949
69 0.002959
76 0.004
84 0.000966
95 0.006956
114 0.002026
126 0.003026
138 0.006969
146 0.006949
158 0.003022
168 0.0
176 0.002036
183 0.006963
191 0.006944
204 0.002988
212 0.002034
221 0.001975
233 0.002006
242 0.001975
222 0.006983
152 0.006807
89 0.002
70 0.001974
65 0.003034
62 0.007016
56 0.006985
47 0.002008
51 0.002002
59 0.002016
67 0.001993
69 0.002026
75 0.006964
84 0.006963
102 0.001995
116 0.002989
127 0.002993
135 0.006989
142 0.006967
151 0.003027
159 0.002003
167 0.002024
187 0.00296
198 0.002986
205 0.00796
213 0.007976
226 0.002008
219 0.002986
160 0.002957
107 0.006987
73 0.007975
67 0.00202
66 0.001977
62 0.002981
61 0.001995
69 0.003016
75 0.007035
77 0.007981
80 0.002951
86 0.002017
96 0.002993
111 0.00795
124 0.007947
138 0.003034
148 0.003036
158 0.003037
174 0.003003
186 0.003036
200 0.007977
211 0.007962
221 0.002991
233 0.003024
242 0.002999
193 0.006967
198 0.006985
199 0.002985
173 0.002955
136 0.002927
103 0.002954
98 0.002957
96 0.007963
91 0.006948
86 0.003005
86 0.003985
88 0.004026
91 0.007016
92 0.006981
93 0.006976
96 0.003019
101 0.003037
110 0.002971
117 0.001983
124 0.003025
130 0.007952
135 0.007961
143 0.003958
148 0.004019
154 0.003966
161 0.006995
167 0.006977
173 0.002979
178 0.003035
184 0.003988
188 0.002977
188 0.002992
142 0.005958
111 0.005977
94 0.004048
91 0.004011
91 0.004016
92 0.006987
91 0.006989
93 0.002973
97 0.00698
98 0.003997
99 0.003963
101 0.003988
107 0.005997
113 0.005959
119 0.004041
126 0.002973
132 0.004016
139 0.005997
145 0.006952
151 0.002937
161 0.006981
167 0.003938
172 0.00402
177 0.003991
184 0.005966
180 0.005983
146 0.004991
112 0.004984
93 0.004003
87 0.005985
87 0.005973
86 0.004974
85 0.006952
88 0.004983
92 0.003946
95 0.005016
98 0.005994
101 0.005977
106 0.004993
112 0.004931
119 0.004012
128 0.005971
134 0.005974
139 0.003986
148 0.005041
153 0.003989
158 0.003955
163 0.005022
168 0.005945
172 0.005943
177 0.004022
180 0.004975
184 0.005011
189 0.005966
173 0.005958
129 0.004988
86 0.005983
79 0.002038
78 0.004958
78 0.004983
75 0.004974
76 0.004021
79 0.005976
83 0.004992
84 0.004935
86 0.004982
88 0.005974
93 0.005974
104 0.005039
112 0.005023
119 0.004953
122 0.004952
129 0.00499
133 0.005009
138 0.004984
144 0.004018
151 0.004976
158 0.004947
163 0.005954
168 0.00498
174 0.005014
148 0.005034
102 0.004985
84 0.004983
79 0.004972
79 0.004981
80 0.005025
79 0.005011
81 0.004996
86 0.004986
88 0.003989
89 0.004988
93 0.00501
98 0.004999
104 0.003989
115 0.003989
123 0.004001
129 0.00498
135 0.004985
143 0.004993
148 0.004977
153 0.004983
158 0.003983
163 0.003992
172 0.005018
177 0.004991
184 0.00399
186 0.003997
165 0.004032
122 0.003954
93 0.00397
74 0.005046
68 0.002993
67 0.005006
63 0.005014
61 0.003984
65 0.004003
69 0.004049
72 0.003989
75 0.003991
79 0.003989
84 0.003989
91 0.003955
100 0.003975
107 0.00404
113 0.003988
118 0.002983
127 0.00299
132 0.002992
137 0.004021
143 0.003966
148 0.003983
153 0.00396
158 0.003972
162 0.003992
167 0.004012
158 0.003979
118 0.002991
83 0.002992
61 0.002961
60 0.002992
59 0.002993
54 0.003955
54 0.004035
59 0.004038
63 0.00298
65 0.003017
67 0.00299
72 0.004031
78 0.002984
84 0.002989
96 0.00297
101 0.00296
106 0.002992
111 0.003029
117 0.00295
122 0.002993
128 0.002993
134 0.004003
139 0.003997
146 0.002981
151 0.002999
156 0.002992
120 0.003016
89 0.002996
72 0.002992
68 0.003007
69 0.003009
68 0.001963
66 0.001995
69 0.002985
74 0.001994
77 0.002998
79 0.001995
83 0.003052
92 0.003055
99 0.002996
106 0.003021
113 0.002992
120 0.002993
126 0.002961
131 0.002961
136 0.001998
141 0.001995
148 0.001959
154 0.001994
159 0.001995
167 0.001995
172 0.002993
172 0.002992
142 0.002993
97 0.002993
81 0.001994
77 0.001993
76 0.001951
73 0.001952
68 0.001976
69 0.001995
74 0.001955
81 0.002996
83 0.001995
87 0.001989
92 0.00197
100 0.002022
106 0.001
112 0.000998
116 0.001975
119 0.002003
123 0.001952
128 0.001961
132 0.001996
138 0.001995
142 0.002001
146 0.001995
151 0.002043
157 0.00103
162 0.001992
166 0.001987
170 0.001991
158 0.000967
112 0.000989
91 0.000993
83 0.001015
82 0.000974
78 0.000974
74 0.001978
74 0.002027
79 0.001997
85 0.001986
87 0.001985
89 0.000997
92 0.000997
97 0.001005
105 0.000989
113 0.000997
120 0.000978
125 0.001979
130 0.001983
135 0.002028
140 0.002004
148 0.002052
153 0.000985
158 0.001024
162 0.000975
166 0.000997
166 0.000964
133 0.0
102 0.0
94 0.002026
94 0.001014
94 0.002029
91 0.0
90 0.001013
95 0.000978
100 0.001024
103 0.001043
105 0.001007
110 0.001006
116 0.000982
125 0.000985
131 0.0
137 0.000989
142 0.000998
147 0.0
153 0.0
158 0.0
163 0.0
168 0.0
173 0.0
175 0.0
180 0.001018
186 0.000998
190 0.000983
194 0.000998
194 0.000997
167 0.0
124 0.0
109 0.0
104 0.0
100 0.0
96 0.0
87 0.0
86 0.0
90 0.000997
93 0.001002
96 0.0
99 0.0
102 0.0
109 0.0
113 0.0
119 0.0
124 0.000964
129 0.0
136 0.0
143 0.0
149 0.003007
154 0.003002
158 0.00101
163 0.000998
169 0.001035
176 0.0
180 0.001986
184 0.001977
188 0.001995
189 0.000986
147 0.000985
116 0.001986
108 0.002989
108 0.00203
106 0.00202
102 0.002992
102 0.002984
105 0.002993
109 0.002985
111 0.002986
111 0.002002
114 0.002003
118 0.001994
128 0.002029
134 0.002026
142 0.002986
147 0.001995
151 0.002028
156 0.002963
159 0.002983
162 0.002983
163 0.002989
164 0.002986
169 0.002993
174 0.00299
165 0.00203
125 0.002961
106 0.001
99 0.002024
98 0.002029
99 0.001992
98 0.001965
99 0.001988
104 0.003024
109 0.001996
110 0.001935
112 0.002002
116 0.002972
124 0.002995
131 0.003002
138 0.002993
144 0.002994
150 0.002985
154 0.001996
161 0.00199
166 0.001972
170 0.002
174 0.002004
182 0.001985
185 0.002032
190 0.001987
194 0.00199
198 0.002029
198 0.001987
164 0.003046
139 0.002982
110 0.002986
103 0.002986
102 0.002993
100 0.002016
93 0.002017
94 0.001996
99 0.003022
104 0.002032
106 0.002997
109 0.00296
112 0.002007
117 0.002993
123 0.003024
129 0.003039
134 0.002978
141 0.002983
149 0.002957
153 0.002978
156 0.003036
164 0.001998
171 0.001992
176 0.002021
181 0.002008
186 0.00204
192 0.002967
177 0.002004
145 0.001991
125 0.003016
118 0.003024
119 0.002969
118 0.002989
116 0.002976
118 0.003024
123 0.002962
126 0.00296
128 0.001973
129 0.00197
134 0.002984
139 0.002039
148 0.002961
156 0.002991
164 0.002944
168 0.001988
172 0.001996
177 0.003
182 0.002983
189 0.001993
194 0.001994
195 0.003989
199 0.003016
203 0.003018
208 0.001998
191 0.002993
157 0.001981
144 0.001994
141 0.002029
142 0.002993
142 0.003026
138 0.001992
137 0.001996
139 0.002993
144 0.002026
145 0.003957
147 0.002026
150 0.003994
156 0.001989
159 0.002977
164 0.001998
168 0.003009
170 0.004012
172 0.002964
175 0.002008
177 0.000989
180 0.004001
183 0.003959
187 0.002008
192 0.00399
196 0.001979
203 0.002031
207 0.002027
202 0.003991
177 0.002993
156 0.001974
157 0.00199
158 0.001986
159 0.004005
157 0.003994
154 0.002038
158 0.004021
172 0.002001
175 0.001984
174 0.002063
175 0.004022
176 0.003991
183 0.00198
188 0.001039
192 0.0
196 0.00399
200 0.003953
206 0.003967
208 0.004043
215 0.00198
220 0.002007
223 0.001993
227 0.00397
93 0.004987
228 0.001017
201 0.001995
176 0.002018
168 0.001994
168 0.005001
169 0.0
165 0.005026
162 0.005025
167 0.001055
168 0.000998
168 0.000955
167 0.004921
169 0.003926
173 0.0
176 0.0
181 0.0
184 0.005014
191 0.0
192 0.004991
196 0.00496
201 0.0
204 0.0
208 0.001001
211 0.004988
216 0.005959
221 0.000998
223 0.0
226 0.0
228 0.004987
181 0.002057
157 0.005061
148 0.005022
140 0.003006
136 0.0
128 0.002994
119 0.005985
118 0.004979
120 0.000998
118 0.000997
116 0.000998
115 0.005961
116 0.0
117 0.006021
120 0.005989
123 0.0
124 0.0
127 0.0
128 0.004989
131 0.005021
135 0.001993
137 0.001016
141 0.001996
146 0.005984
159 0.0
164 0.006025
169 0.005986
171 0.001999
175 0.0
161 0.002994
125 0.006018
101 0.006029
90 0.002998
88 0.0
84 0.0
76 0.004981
68 0.002024
70 0.005985
72 0.00598
70 0.001995
67 0.001999
69 0.001995
72 0.006012
78 0.005986
85 0.002031
90 0.002011
94 0.002954
97 0.005947
106 0.002996
110 0.00695
116 0.007941
125 0.003024
129 0.002993
135 0.0
139 0.005984
144 0.006017
142 0.005986
102 0.002967
79 0.000963
69 0.003023
67 0.002079
61 0.002035
56 0.006971
53 0.006982
57 0.002999
60 0.002989
59 0.00303
59 0.006992
61 0.006969
68 0.002996
75 0.001948
86 0.002999
91 0.002021
97 0.002071
102 0.006984
107 0.006968
115 0.002993
122 0.002029
129 0.001994
135 0.006983
140 0.006985
149 0.002991
156 0.003024
164 0.002997
168 0.003992
170 0.001997
139 0.007945
112 0.007948
77 0.002989
69 0.00299
67 0.00299
62 0.006981
53 0.006984
43 0.003026
44 0.003021
49 0.002035
51 0.002989
52 0.002029
56 0.007916
62 0.007955
70 0.003013
76 0.003033
82 0.003045
89 0.007968
97 0.007944
102 0.002035
109 0.001996
119 0.003008
126 0.001994
132 0.003008
141 0.007981
151 0.007982
156 0.003013
163 0.003023
166 0.003003
128 0.007973
98 0.007952
82 0.003026
79 0.00204
77 0.00197
73 0.001987
68 0.004001
72 0.006977
77 0.007977
79 0.003013
80 0.002993
84 0.003045
91 0.007945
98 0.007947
106 0.003959
114 0.002992
126 0.004011
133 0.003024
139 0.003965
149 0.006945
155 0.006935
161 0.002991
168 0.001992
175 0.00302
183 0.003038
192 0.007964
195 0.007955
203 0.003021
194 0.006971
149 0.002001
116 0.002966
100 0.002989
95 0.006947
93 0.006993
89 0.003004
83 0.002984
83 0.003013
89 0.006956
92 0.007971
94 0.002041
98 0.006963
104 0.003984
111 0.003992
119 0.003986
129 0.006989
135 0.006991
142 0.00399
148 0.003997
154 0.00306
162 0.006956
166 0.006977
170 0.003025
177 0.006021
183 0.004987
188 0.00399
193 0.003968
199 0.006966
203 0.006983
206 0.003964
217 0.003019
200 0.003058
134 0.006949
108 0.006962
97 0.006983
98 0.006991
96 0.003982
91 0.004016
88 0.002996
93 0.006022
94 0.006039
94 0.003995
95 0.003999
97 0.003989
106 0.006948
114 0.005988
129 0.006995
136 0.005927
143 0.002992
150 0.004993
158 0.003018
167 0.005972
174 0.005952
180 0.004987
187 0.004998
195 0.004005
204 0.005994
212 0.006952
225 0.006024
136 0.006025
235 0.005007
240 0.005015
241 0.00502
184 0.006018
141 0.005984
119 0.003986
111 0.005019
112 0.005027
112 0.005977
111 0.00498
112 0.005008
113 0.004973
113 0.00598
113 0.005951
116 0.004994
123 0.006019
130 0.006006
138 0.005974
146 0.004996
154 0.004994
162 0.00503
167 0.004963
178 0.004945
184 0.005027
189 0.005035
196 0.005017
200 0.004993
205 0.004992
211 0.006014
217 0.006012
222 0.004986
224 0.003988
228 0.005022
227 0.004987
159 0.004977
107 0.005984
92 0.004964
87 0.005987
86 0.005967
83 0.005003
79 0.005014
80 0.005021
83 0.005985
85 0.003971
85 0.004994
86 0.004985
94 0.004973
101 0.005047
110 0.00501
121 0.003957
128 0.003996
135 0.004987
138 0.003978
146 0.004987
154 0.003988
162 0.003989
168 0.003998
176 0.003989
185 0.005934
190 0.005038
195 0.005003
167 0.004954
118 0.004013
96 0.005985
77 0.005003
76 0.003956
79 0.003976
80 0.002991
79 0.003957
83 0.004002
86 0.005017
83 0.004974
82 0.004953
87 0.004935
94 0.004985
102 0.004996
111 0.004987
119 0.004988
128 0.00399
134 0.003993
139 0.004022
145 0.003983
157 0.003948
163 0.002992
170 0.004024
179 0.003992
186 0.00296
192 0.002969
198 0.003014
199 0.004025
140 0.004004
94 0.003989
64 0.004012
54 0.003039
52 0.003975
48 0.003991
43 0.003023
42 0.002991
43 0.004002
45 0.00399
49 0.002988
52 0.002983
55 0.002992
66 0.003005
72 0.003025
86 0.003989
90 0.003993
95 0.00398
101 0.00399
105 0.004017
114 0.004006
125 0.004007
133 0.002936
141 0.002992
150 0.002992
160 0.003034
167 0.002988
179 0.003005
185 0.002998
191 0.002991
196 0.003169
186 0.002983
113 0.003992
79 0.001964
65 0.002999
64 0.003051
64 0.002049
60 0.00204
56 0.002997
54 0.003006
55 0.001995
55 0.00199
57 0.002027
61 0.002036
71 0.001975
80 0.002026
91 0.002023
99 0.001995
108 0.002028
118 0.002039
125 0.003022
135 0.003007
144 0.002024
151 0.001998
156 0.002993
162 0.003029
167 0.001994
136 0.001977
94 0.002004
65 0.001995
55 0.001996
53 0.001989
50 0.002003
46 0.001972
51 0.001991
58 0.001989
60 0.002999
64 0.001995
68 0.002006
74 0.001991
82 0.001994
91 0.001999
100 0.001996
110 0.002047
118 0.001966
130 0.001986
136 0.001992
144 0.00199
150 0.002993
157 0.000999
160 0.002023
164 0.002016
172 0.001992
179 0.001997
180 0.001946
156 0.002001
99 0.000997
50 0.001004
42 0.001991
40 0.000996
33 0.001005
26 0.002013
24 0.002007
31 0.000997
40 0.001007
43 0.002004
47 0.000962
52 0.002018
61 0.00199
72 0.001996
82 0.001984
90 0.001983
97 0.001987
102 0.001008
108 0.001039
115 0.001023
121 0.002022
126 0.000997
132 0.002031
136 0.001976
149 0.002027
158 0.002005
167 0.001008
173 0.000965
179 0.000965
186 0.000956
193 0.001057
162 0.0
109 0.000983
75 0.002037
62 0.000987
58 0.0
48 0.0
39 0.001039
38 0.0
45 0.001039
52 0.0
53 0.000995
56 0.000997
63 0.000997
69 0.000996
79 0.001
88 0.0
96 0.000999
106 0.0
110 0.0
119 0.0
126 0.0
135 0.0
143 0.0
150 0.0
159 0.000993
165 0.00099
172 0.000943
167 0.000998
126 0.001001
71 0.0
62 0.0
60 0.0
57 0.0
52 0.0
54 0.0
62 0.0
70 0.0
74 0.0
78 0.0
83 0.001017
91 0.000995
106 0.0
116 0.0
127 0.0
134 0.0
140 0.0
148 0.0
155 0.0
165 0.0
170 0.0
174 0.002992
180 0.000997
187 0.000991
197 0.003107
203 0.00095
207 0.0
172 0.003026
124 0.00204
91 0.00296
85 0.000997
82 0.002
72 0.003031
65 0.003023
61 0.002013
67 0.002938
75 0.002964
78 0.002967
80 0.002949
86 0.002988
92 0.003022
100 0.00301
109 0.003035
117 0.003027
127 0.003026
136 0.001984
145 0.002028
153 0.001992
166 0.002039
172 0.002033
182 0.002956
190 0.002992
198 0.00303
207 0.001995
212 0.002968
214 0.002955
220 0.00298
226 0.002979
201 0.002996
171 0.00295
124 0.002982
116 0.001993
118 0.002031
115 0.002033
111 0.002986
112 0.002972
120 0.002943
124 0.002962
123 0.002815
125 0.002998
133 0.002935
144 0.003051
152 0.002994
161 0.003
166 0.003025
170 0.002996
175 0.002998
183 0.002985
187 0.002025
194 0.002982
199 0.002992
205 0.002027
212 0.002002
222 0.001993
228 0.001995
234 0.001991
236 0.003029
203 0.00302
166 0.003013
141 0.003006
136 0.002987
135 0.00297
131 0.003027
125 0.003026
119 0.002971
125 0.003003
129 0.001991
131 0.002985
132 0.002991
136 0.003026
140 0.002959
147 0.003024
151 0.002994
158 0.002993
164 0.003019
167 0.002993
170 0.002995
179 0.002993
184 0.002943
186 0.002959
193 0.002944
196 0.003997
205 0.003
208 0.00297
215 0.002996
218 0.002962
206 0.002986
163 0.003004
134 0.003022
124 0.003018
124 0.00304
