97 0.027925
98 0.002988
99 0.002991
105 0.002993
111 0.001993
118 0.001026
125 0.00201
92 0.001965
45 0.001994
25 0.001961
33 0.001998
54 0.001956
72 0.000964
89 0.000956
102 0.000959
113 0.001015
116 0.000967
121 0.001947
129 0.002963
134 0.002952
142 0.003011
132 0.003027
54 0.002992
40 0.002994
48 0.003951
70 0.003959
82 0.003957
102 0.005978
114 0.006891
120 0.007018
123 0.006981
127 0.006967
132 0.006119
140 0.005984
144 0.006019
98 0.006017
27 0.005984
19 0.004987
29 0.005994
51 0.005024
64 0.005053
80 0.004987
93 0.003983
92 0.003044
91 0.001994
95 0.001995
99 0.001994
110 0.001996
102 0.001994
10 0.002015
0 0.000987
0 0.001042
0 0.001996
15 0.002953
31 0.004985
42 0.004943
34 0.004951
31 0.005022
32 0.004991
41 0.00503
48 0.004986
53 0.005022
15 0.005027
0 0.005983
0 0.006995
0 0.006981
6 0.006857
27 0.006981
39 0.006015
41 0.006016
39 0.005984
38 0.005983
48 0.005984
57 0.005028
74 0.003988
57 0.00399
14 0.002992
53 0.000998
58 0.0
67 0.000998
83 0.000998
112 0.001003
131 0.000873
150 0.001
150 0.030914
160 0.000995
185 0.006039
196 0.007085
197 0.007972
192 0.007979
185 0.007978
142 0.007892
134 0.006981
135 0.006975
148 0.007017
163 0.007015
172 0.004987
177 0.004987
181 0.004002
183 0.00399
188 0.004038
189 0.003989
194 0.00399
185 0.003023
150 0.002977
114 0.002992
100 0.003173
102 0.002992
117 0.003035
132 0.002992
147 0.000997
144 0.001048
142 0.000997
138 0.0
143 0.0
147 0.0
156 0.002992
141 0.003002
105 0.002999
78 0.002992
78 0.002958
87 0.003993
104 0.00399
111 0.00399
114 0.006011
116 0.006021
117 0.00603
127 0.005979
134 0.005996
140 0.005984
145 0.006024
146 0.006017
122 0.006981
90 0.006981
81 0.007028
87 0.007021
91 0.006981
103 0.006981
112 0.007012
115 0.006974
114 0.007089
113 0.005949
113 0.006981
118 0.006981
123 0.006981
129 0.006981
135 0.003991
131 0.003991
94 0.004032
73 0.000997
78 0.001097
98 0.000997
110 0.000965
119 0.000999
121 0.000992
112 0.0
102 0.0
106 0.001141
110 0.0
115 0.0
122 0.0
129 0.001001
96 0.001994
81 0.001996
78 0.001952
86 0.002025
99 0.002031
108 0.001995
111 0.001991
110 0.001994
111 0.001992
114 0.001995
119 0.00303
121 0.003001
129 0.00296
142 0.002959
135 0.00302
69 0.002992
51 0.004018
60 0.003957
82 0.004026
95 0.004996
114 0.005052
120 0.005025
120 0.005972
125 0.006981
133 0.006979
143 0.006981
151 0.007943
163 0.007024
175 0.007948
168 0.006995
131 0.00604
97 0.005028
104 0.003014
122 0.002992
143 0.003007
167 0.003025
172 0.001996
171 0.000954
170 0.0
173 0.0
180 0.0
187 0.0
198 0.0
206 0.0
211 0.000961
179 0.003004
129 0.002993
127 0.001995
143 0.002978
156 0.00303
171 0.002957
183 0.002995
183 0.002993
180 0.002976
181 0.002963
185 0.002993
190 0.012966
193 0.000996
123 0.002042
140 0.004035
160 0.004026
170 0.00598
179 0.006022
173 0.006024
169 0.00602
170 0.006931
174 0.007012
181 0.006982
190 0.006978
192 0.006985
192 0.006981
155 0.007015
106 0.006977
107 0.00689
115 0.006967
125 0.007931
143 0.007015
150 0.007008
151 0.005977
143 0.004019
144 0.003024
150 0.001993
155 0.002028
161 0.000983
166 0.002036
171 0.00103
154 0.000993
94 0.000998
81 0.001032
89 0.001013
98 0.001009
113 0.001033
121 0.0
124 0.000998
121 0.0
120 0.0
123 0.001
130 0.00102
135 0.000816
143 0.000997
151 0.001
155 0.002008
154 0.001991
93 0.002997
68 0.004023
67 0.003992
76 0.004003
97 0.004987
113 0.00593
118 0.006016
114 0.006961
113 0.006981
118 0.004027
123 0.003028
132 0.002977
138 0.002997
148 0.002992
157 0.001994
161 0.002995
110 0.002029
69 0.001998
69 0.002029
83 0.001029
95 0.0
109 0.0
113 0.0
111 0.0
105 0.000998
108 0.001004
111 0.000999
118 0.000998
122 0.000998
129 0.000998
135 0.000987
139 0.001984
102 0.00203
48 0.002958
35 0.00299
40 0.002992
50 0.002992
68 0.002994
79 0.002992
80 0.002844
80 0.00399
83 0.004049
92 0.004021
104 0.00399
108 0.004024
116 0.004
123 0.005036
127 0.005032
134 0.004987
111 0.00792
83 0.007027
37 0.004962
32 0.004986
34 0.004998
45 0.004987
55 0.004978
65 0.004984
66 0.004024
69 0.005021
75 0.003994
86 0.003986
99 0.004024
113 0.003986
124 0.002995
137 0.003021
147 0.003025
153 0.001064
161 0.0
119 0.000998
83 0.000997
68 0.001996
86 0.002992
98 0.004023
117 0.004012
127 0.003998
131 0.00403
132 0.005028
135 0.004987
141 0.005031
152 0.00502
156 0.005031
163 0.006033
167 0.005967
171 0.005845
177 0.006002
180 0.006018
153 0.006029
125 0.0
105 0.006979
124 0.006982
134 0.006982
135 0.00798
131 0.007979
131 0.007979
138 0.006928
149 0.007937
153 0.007037
161 0.007934
165 0.006981
171 0.007978
176 0.007978
179 0.007969
139 0.00798
83 0.006934
75 0.007958
81 0.007007
94 0.006978
107 0.007044
124 0.006984
126 0.005981
124 0.006017
124 0.006022
132 0.006016
141 0.006985
148 0.005971
154 0.006981
162 0.006017
167 0.007103
174 0.005968
181 0.004983
141 0.003986
87 0.002986
80 0.003985
91 0.003023
106 0.002038
117 0.001012
133 0.0
136 0.000969
135 0.001005
136 0.000998
141 0.000998
151 0.000997
163 0.001993
169 0.001976
179 0.002033
184 0.001995
190 0.001995
188 0.001995
142 0.003022
86 0.002954
83 0.002992
95 0.003038
113 0.002993
130 0.003004
137 0.00298
130 0.004023
125 0.004852
126 0.004988
134 0.004986
142 0.007013
146 0.006929
152 0.007979
152 0.007978
157 0.005958
161 0.005029
140 0.002972
61 0.001988
34 0.002029
36 0.001036
46 0.002165
59 0.001032
71 0.002009
72 0.002044
68 0.001995
65 0.001951
68 0.000958
84 0.001071
98 0.0
106 0.001007
117 0.0
126 0.0
131 0.0
105 0.0
57 0.0
20 0.0
23 0.00105
33 0.000997
56 0.001003
76 0.001886
82 0.001994
81 0.001987
81 0.001959
90 0.002026
104 0.001871
113 0.002027
125 0.003005
132 0.002993
142 0.002996
151 0.003001
158 0.002966
129 0.002992
56 0.004938
43 0.005019
56 0.004987
69 0.00605
93 0.007018
111 0.007021
111 0.007018
106 0.006994
108 0.007978
114 0.007012
129 0.007106
137 0.006981
149 0.00702
155 0.00694
160 0.007964
171 0.007978
128 0.007981
79 0.006981
47 0.00698
52 0.006982
73 0.007021
95 0.003999
101 0.004993
98 0.004022
92 0.003981
93 0.00402
102 0.004023
110 0.003034
118 0.004986
124 0.0
146 0.003989
77 0.002991
31 0.003025
24 0.002011
39 0.002992
59 0.002993
72 0.003001
83 0.002992
83 0.002992
82 0.002997
88 0.000998
99 0.0
110 0.0
122 0.0
128 0.0
134 0.0
140 0.0
152 0.001997
125 0.001996
76 0.003008
34 0.00502
43 0.006016
52 0.006022
74 0.005943
104 0.006009
120 0.006047
128 0.005984
132 0.006016
141 0.006016
147 0.007939
153 0.004967
162 0.004026
171 0.00299
177 0.00302
190 0.002991
207 0.002156
219 0.003028
184 0.001036
168 0.0
207 0.0
254 0.000967
254 0.0
254 0.0
254 0.0
254 0.0
254 0.000997
254 0.000998
254 0.000997
254 0.000998
254 0.000997
254 0.000998
254 0.001031
254 0.000998
255 0.00103
255 0.002992
228 0.002994
115 0.00403
88 0.004985
95 0.006021
117 0.006054
130 0.005866
142 0.00698
143 0.004998
137 0.004988
134 0.005032
143 0.004968
145 0.005015
151 0.005208
158 0.004993
160 0.003038
167 0.004021
176 0.002034
180 0.002029
158 0.001008
89 0.000996
13 0.000997
64 0.0
66 0.000997
74 0.000998
84 0.000925
86 0.001012
82 0.0
80 0.001011
80 0.000997
83 0.000998
88 0.000997
97 0.002851
106 0.003993
113 0.003991
125 0.003033
131 0.002992
140 0.002965
137 0.003992
101 0.003019
68 0.002994
67 0.003034
76 0.004024
87 0.002995
98 0.003994
108 0.003999
110 0.005018
107 0.006014
109 0.005941
112 0.005985
119 0.007979
131 0.005992
142 0.003975
147 0.003989
156 0.003981
161 0.00403
148 0.003991
94 0.002029
84 0.002003
87 0.001043
97 0.001039
107 0.0
121 0.0
127 0.0
124 0.0
121 0.001997
123 0.003994
129 0.003992
137 0.00399
146 0.006017
151 0.006015
159 0.005848
162 0.006027
122 0.005969
66 0.006992
59 0.007036
67 0.006994
75 0.007029
92 0.006952
100 0.007012
102 0.005955
99 0.006024
100 0.006019
104 0.005017
112 0.005021
122 0.004028
130 0.003989
142 0.004173
149 0.003028
159 0.002992
102 0.001022
66 0.000997
51 0.0
60 0.0
70 0.0
83 0.000999
96 0.0
97 0.000999
94 0.003955
96 0.003998
101 0.005038
112 0.006993
125 0.007039
133 0.00697
146 0.006989
154 0.006961
165 0.006935
148 0.006978
85 0.006982
61 0.007013
62 0.007025
72 0.007012
90 0.006975
102 0.007945
109 0.007975
103 0.006911
99 0.006945
102 0.004987
112 0.003991
120 0.002994
135 0.002994
143 0.003024
155 0.002017
166 0.00196
147 0.001994
77 0.000998
62 0.0
66 0.0
79 0.000999
96 0.0
102 0.0
100 0.000998
96 0.000998
97 0.002042
103 0.002993
111 0.003026
120 0.003025
131 0.003031
138 0.002994
150 0.002991
150 0.002995
86 0.003951
52 0.004031
52 0.004911
64 0.005983
81 0.006018
88 0.007015
97 0.006028
94 0.00502
93 0.00402
98 0.00096
105 0.001007
112 0.001035
123 0.0
132 0.0
138 0.0
147 0.001957
153 0.001996
121 0.003945
66 0.004022
58 0.003988
64 0.004034
80 0.005016
90 0.003991
103 0.00599
103 0.005984
101 0.006019
104 0.005961
113 0.005983
119 0.00599
131 0.005982
138 0.005984
151 0.005976
161 0.006018
170 0.006021
178 0.006949
141 0.006981
86 0.006956
70 0.007984
76 0.007981
89 0.007979
109 0.004984
118 0.006015
124 0.005024
120 0.006034
119 0.005016
128 0.005025
133 0.0
141 0.016978
175 0.001995
186 0.001994
192 0.00202
201 0.001982
193 0.003025
126 0.002027
91 0.002993
91 0.002
101 0.002045
122 0.001995
138 0.0
148 0.0
144 0.0
137 0.0
139 0.000959
150 0.000983
157 0.000959
170 0.000997
176 0.001003
184 0.002995
192 0.002993
180 0.004052
101 0.004989
75 0.007001
78 0.007043
93 0.006989
108 0.006018
119 0.006021
127 0.006017
123 0.007019
120 0.00502
123 0.006017
130 0.004979
141 0.006022
155 0.005988
163 0.005984
173 0.005984
181 0.004986
166 0.005983
85 0.003028
65 0.00399
66 0.001996
77 0.00203
87 0.002043
109 0.001012
115 0.001107
113 0.0
111 0.00103
115 0.001995
122 0.002003
136 0.001995
148 0.001989
159 0.002994
167 0.002992
176 0.003033
177 0.002997
106 0.002994
76 0.002992
70 0.002992
79 0.002988
99 0.002993
122 0.00296
133 0.002959
140 0.003006
139 0.003942
140 0.005023
148 0.007044
157 0.006983
164 0.00698
174 0.007016
179 0.007013
186 0.00712
169 0.007981
118 0.007013
81 0.007978
78 0.007033
89 0.007978
116 0.007981
129 0.007991
141 0.006979
139 0.005033
135 0.006023
135 0.004023
140 0.004986
150 0.004017
160 0.004023
165 0.004031
172 0.001996
128 0.002029
83 0.002045
58 0.0
64 0.000998
79 0.000997
98 0.001029
112 0.0
119 0.0
113 0.001003
109 0.002992
113 0.003981
121 0.00399
131 0.004024
140 0.004985
153 0.007013
160 0.007022
128 0.006967
68 0.006974
51 0.007015
53 0.005985
62 0.006983
83 0.005018
99 0.005003
103 0.002992
99 0.002996
98 0.00302
101 0.001003
111 0.0
124 0.0
132 0.0
146 0.0
158 0.0
158 0.0
88 0.0
62 0.0
57 0.0
69 0.0
81 0.0
103 0.001001
113 0.000977
118 0.003
112 0.003002
113 0.003032
122 0.003989
135 0.004993
144 0.004988
157 0.005045
168 0.005027
173 0.005019
181 0.006998
161 0.006996
95 0.006131
71 0.006939
73 0.005989
87 0.006981
110 0.006981
122 0.007092
130 0.006982
119 0.00499
116 0.003984
121 0.000982
132 0.0
137 0.0
149 0.0
158 0.000998
164 0.000997
166 0.001013
126 0.00099
67 0.000997
60 0.000997
68 0.000997
87 0.000997
100 0.001025
113 0.000997
108 0.002984
105 0.003023
107 0.004031
115 0.004013
124 0.004038
134 0.005022
147 0.006003
153 0.006983
161 0.007979
167 0.006993
115 0.00798
65 0.007008
53 0.007977
60 0.006985
77 0.005986
89 0.006017
103 0.004987
102 0.004986
100 0.005008
101 0.002992
106 0.003024
118 0.002971
128 0.00303
139 0.002026
149 0.002995
160 0.002998
167 0.001992
175 0.001995
155 0.001047
80 0.000996
64 0.0
70 0.000998
88 0.0
112 0.0
123 0.0
129 0.000997
125 0.0
123 0.0
129 0.000997
136 0.001991
152 0.002847
166 0.002992
173 0.002994
184 0.002992
189 0.003019
198 0.003025
187 0.004012
134 0.003986
86 0.00503
86 0.005019
99 0.005021
117 0.006016
132 0.005986
149 0.006017
148 0.005998
144 0.005989
144 0.006774
153 0.006951
160 0.006981
171 0.007015
180 0.003987
185 0.003993
193 0.003996
195 0.003993
134 0.003024
84 0.002997
76 0.000997
83 0.000997
105 0.001008
119 0.001003
136 0.000998
139 0.001
134 0.000963
132 0.002002
139 0.002001
145 0.001992
153 0.001987
158 0.001992
159 0.001047
164 0.000967
171 0.001998
99 0.001995
61 0.002011
47 0.003036
61 0.002047
73 0.00306
94 0.002991
108 0.003989
109 0.003953
104 0.00502
104 0.00494
113 0.004993
124 0.005987
138 0.005985
150 0.005983
163 0.005986
170 0.005987
177 0.006014
158 0.006026
76 0.007015
59 0.006949
64 0.007035
81 0.006998
94 0.006977
114 0.006973
125 0.004989
123 0.005157
118 0.003989
123 0.003026
130 0.001972
144 0.001035
154 0.001962
164 0.000972
172 0.001001
181 0.0
185 0.000999
150 0.001032
86 0.000988
67 0.000997
73 0.001001
88 0.000996
109 0.001996
132 0.00196
140 0.001992
141 0.001994
140 0.001994
144 0.004021
155 0.004951
165 0.007018
169 0.007014
175 0.007095
182 0.005983
186 0.004991
147 0.005021
87 0.003988
71 0.004983
80 0.005025
90 0.005018
113 0.005141
130 0.003026
132 0.003961
128 0.002998
128 0.00402
135 0.002994
147 0.000996
156 0.001
165 0.0
171 0.0
173 0.0
106 0.0
54 0.001961
51 0.001017
65 0.001035
78 0.002035
101 0.002967
118 0.003996
117 0.003943
110 0.004028
111 0.003986
118 0.00399
127 0.003991
138 0.004739
148 0.006026
160 0.005033
157 0.006031
79 0.006016
44 0.006022
44 0.007978
55 0.006987
68 0.007952
83 0.006982
91 0.006981
88 0.006093
86 0.002985
92 0.003038
99 0.002028
111 0.00196
121 0.00305
130 0.001996
140 0.002992
149 0.001989
115 0.002003
55 0.001958
46 0.001959
54 0.00194
72 0.000997
84 0.001989
98 0.001036
98 0.001016
96 0.0
100 0.0
107 0.0
120 0.000959
129 0.000965
144 0.0
154 0.0
162 0.000962
174 0.000998
168 0.002979
137 0.002991
76 0.003008
78 0.004024
87 0.003996
109 0.003988
121 0.004032
128 0.002994
122 0.003993
120 0.00399
123 0.005043
133 0.006022
141 0.007014
152 0.00697
158 0.007015
168 0.006964
174 0.007017
180 0.005983
155 0.006023
92 0.004988
80 0.004986
85 0.004986
94 0.004983
114 0.004985
124 0.005984
123 0.004998
118 0.003992
119 0.002029
123 0.001026
133 0.0
141 0.0
148 0.000867
155 0.002035
163 0.002055
167 0.002
173 0.002992
121 0.004914
89 0.005985
75 0.005814
86 0.006027
95 0.006016
112 0.007013
117 0.006967
120 0.006015
118 0.007014
119 0.00599
126 0.005986
134 0.00702
142 0.005989
150 0.006975
156 0.004987
161 0.00503
167 0.00398
171 0.003989
179 0.003951
152 0.002992
109 0.003114
78 0.001985
80 0.002974
94 0.001963
112 0.0
122 0.0
129 0.000999
125 0.0
125 0.0
129 0.000997
138 0.001995
145 0.004028
157 0.00399
170 0.006026
176 0.007016
185 0.006984
193 0.007019
197 0.006983
175 0.007947
108 0.00604
95 0.005028
101 0.004982
119 0.002017
132 0.003034
149 0.000988
152 0.0
147 0.0
142 0.000998
148 0.002963
155 0.003009
167 0.005026
177 0.004984
183 0.005003
189 0.004886
193 0.005021
175 0.005989
111 0.005991
89 0.007017
87 0.007983
98 0.007029
110 0.006018
128 0.005993
135 0.003984
130 0.006019
123 0.003993
124 0.003989
131 0.003002
140 0.002994
147 0.002985
156 0.002001
166 0.002035
171 0.002041
143 0.002002
97 0.001
64 0.001031
67 0.001029
78 0.0
93 0.000994
109 0.001045
113 0.001032
110 0.000995
108 0.000965
112 0.0
120 0.0
128 0.0
139 0.000992
148 0.0
157 0.0
167 0.0
173 0.001034
127 0.000997
75 0.0
69 0.000979
81 0.003012
100 0.004
112 0.005009
126 0.004983
125 0.005937
120 0.00597
122 0.006016
123 0.000981
129 0.0
149 0.007003
157 0.006932
166 0.007978
174 0.00702
183 0.007973
173 0.006018
126 0.005985
85 0.00502
89 0.003966
98 0.004951
119 0.003
136 0.001988
138 0.000984
129 0.002034
128 0.0
132 0.0
142 0.0
148 0.0
156 0.0
165 0.0
171 0.0
175 0.0
118 0.000963
86 0.001996
73 0.001996
79 0.002992
96 0.003989
111 0.004034
119 0.00402
118 0.005983
111 0.006949
113 0.006807
120 0.007015
130 0.006986
136 0.006978
146 0.007007
150 0.006982
160 0.006979
166 0.006978
150 0.006011
84 0.006016
66 0.007141
70 0.004997
83 0.006981
98 0.005019
110 0.006015
113 0.005032
110 0.003976
109 0.001995
115 0.000958
121 0.0
130 0.001048
140 0.001995
146 0.001995
155 0.002041
165 0.002992
170 0.00399
159 0.003869
89 0.00402
71 0.004043
74 0.004031
82 0.005026
101 0.004991
118 0.005024
121 0.005024
115 0.004978
113 0.004989
117 0.005021
126 0.004806
135 0.004988
146 0.005002
156 0.005845
165 0.006019
175 0.00798
179 0.008011
185 0.006019
136 0.003988
83 0.001999
78 0.00201
89 0.002009
103 0.001012
125 0.000995
139 0.000997
136 0.002039
126 0.0
125 0.000999
129 0.000999
140 0.002028
152 0.002994
159 0.002992
168 0.002955
173 0.002949
176 0.002992
122 0.002995
76 0.002952
67 0.004025
80 0.004003
91 0.003959
113 0.003946
122 0.004987
122 0.005022
115 0.004985
114 0.004986
122 0.005018
128 0.004988
139 0.007011
153 0.007088
158 0.00699
168 0.006985
174 0.007979
150 0.007012
72 0.007982
55 0.006982
58 0.006982
76 0.007023
97 0.003121
109 0.004987
115 0.001963
111 0.003025
108 0.002992
114 0.002029
120 0.002034
134 0.0
148 0.002036
155 0.000988
166 0.001019
172 0.000977
157 0.000966
90 0.002025
60 0.002083
62 0.002026
72 0.000997
93 0.002028
116 0.002028
125 0.000995
127 0.000998
123 0.001004
125 0.002032
132 0.001964
143 0.002009
153 0.001887
163 0.001998
169 0.001962
178 0.003033
182 0.003982
152 0.004981
80 0.00599
70 0.006983
76 0.006991
98 0.005
124 0.00499
136 0.004049
142 0.003028
137 0.003025
136 0.003024
141 0.002037
152 0.001996
158 0.000998
167 0.002961
173 0.003993
177 0.004031
153 0.003992
79 0.005023
67 0.005976
75 0.005986
87 0.006016
113 0.005984
132 0.005983
135 0.005985
129 0.005979
129 0.005984
134 0.005985
145 0.006978
151 0.007015
158 0.006988
166 0.005978
168 0.004993
98 0.004024
52 0.004984
45 0.004024
54 0.004986
76 0.003991
90 0.003001
101 0.002025
99 0.001984
91 0.001995
93 0.001996
100 0.0
111 0.001996
124 0.001996
136 0.004985
143 0.005984
133 0.005987
81 0.006017
34 0.005994
34 0.005983
43 0.006981
58 0.004982
74 0.00498
81 0.003008
78 0.003024
76 0.002995
79 0.003008
90 0.00301
103 0.002026
110 0.002992
123 0.0
130 0.001985
141 0.0
112 0.000954
67 0.0
36 0.0
42 0.001003
52 0.001996
72 0.002883
88 0.003044
90 0.004986
85 0.00499
86 0.004982
92 0.005013
104 0.005984
113 0.00598
128 0.005985
139 0.005981
148 0.005949
158 0.006023
166 0.005982
150 0.005983
75 0.006017
57 0.005983
62 0.005986
72 0.005985
96 0.007013
112 0.005982
115 0.007016
106 0.005985
105 0.005985
110 0.006015
124 0.004979
138 0.005024
143 0.0
159 0.003027
165 0.002979
176 0.003006
168 0.003988
106 0.002988
72 0.00397
72 0.00399
82 0.003989
105 0.004143
118 0.003984
128 0.002997
119 0.000981
117 0.002027
123 0.0
134 0.000997
144 0.001009
158 0.001024
165 0.001016
175 0.000998
184 0.000998
184 0.000998
112 0.000998
68 0.000998
66 0.002993
80 0.002961
100 0.004001
111 0.004005
115 0.00487
109 0.004996
105 0.004979
109 0.005983
115 0.006985
126 0.007034
139 0.006976
142 0.007005
152 0.006017
162 0.005953
166 0.002984
111 0.002997
60 0.001029
55 0.001028
65 0.000997
74 0.000999
92 0.000999
99 0.001992
98 0.001993
95 0.002025
98 0.002026
105 0.002026
116 0.002008
123 0.001994
134 0.002025
143 0.0
147 0.002021
157 0.0
162 0.001034
142 0.0
87 0.000993
64 0.0
68 0.0
77 0.000967
95 0.000969
108 0.0
109 0.000999
107 0.0
109 0.000997
114 0.000997
124 0.000858
131 0.000998
143 0.001004
154 0.002017
160 0.001991
170 0.001816
175 0.001997
184 0.001985
189 0.001993
147 0.001995
103 0.002993
96 0.003997
102 0.003995
120 0.004
138 0.004994
143 0.004983
137 0.006018
135 0.007013
136 0.006982
145 0.006982
151 0.006975
162 0.005993
171 0.0
176 0.004031
183 0.002036
190 0.002991
195 0.000992
171 0.002057
119 0.002033
111 0.000996
117 0.0
127 0.000995
145 0.0
155 0.0
153 0.000994
147 0.000997
147 0.001852
151 0.002027
159 0.001997
168 0.002993
173 0.003948
180 0.004022
184 0.004023
189 0.003985
192 0.004028
167 0.005019
115 0.00601
104 0.006017
111 0.006995
122 0.007031
135 0.006983
143 0.00699
145 0.007013
143 0.006037
140 0.005028
145 0.003993
150 0.004021
158 0.000967
165 0.0
172 0.002
176 0.002964
181 0.003026
188 0.004986
189 0.004987
139 0.005029
113 0.005028
103 0.005022
115 0.006018
124 0.006027
139 0.006037
145 0.006014
144 0.005955
140 0.006946
141 0.006987
145 0.006979
154 0.007012
158 0.007976
166 0.006981
174 0.004983
179 0.006984
187 0.004985
190 0.005976
194 0.002991
144 0.002989
115 0.002996
106 0.002991
116 0.002007
131 0.000996
155 0.001032
169 0.001983
171 0.0
159 0.0
156 0.0
161 0.0
175 0.001021
182 0.000959
193 0.002994
202 0.003035
209 0.003002
214 0.004992
175 0.005024
123 0.005029
95 0.005023
99 0.005014
120 0.00502
146 0.00599
159 0.005021
165 0.005012
155 0.006978
152 0.006984
153 0.005982
163 0.004984
171 0.004985
181 0.004988
188 0.004984
196 0.004987
199 0.005984
138 0.003985
79 0.006017
65 0.003987
73 0.005983
97 0.006201
112 0.00496
131 0.004985
130 0.002999
124 0.001994
120 0.00102
131 0.0
138 0.0
148 0.002026
161 0.001001
169 0.001018
179 0.001979
170 0.002031
80 0.003012
49 0.004011
53 0.00402
75 0.004031
97 0.003974
116 0.003986
122 0.003991
116 0.004044
110 0.003989
114 0.006018
118 0.006969
134 0.006981
150 0.004992
159 0.006008
172 0.004981
176 0.003997
132 0.003973
58 0.003986
50 0.004024
63 0.002993
93 0.001995
111 0.002012
132 0.002013
133 0.003989
126 0.002007
124 0.002996
132 0.001999
144 0.002992
159 0.002992
168 0.002992
181 0.001995
178 0.000983
109 0.001995
63 0.001995
61 0.003989
74 0.004023
106 0.003974
133 0.005031
139 0.006025
132 0.006944
127 0.006973
130 0.005984
144 0.006974
149 0.006985
164 0.007002
176 0.00698
171 0.006989
80 0.006144
47 0.00602
41 0.00598
61 0.007958
80 0.006013
106 0.007979
109 0.007975
104 0.00698
97 0.007021
100 0.006982
112 0.004971
126 0.004022
136 0.005022
151 0.00299
108 0.000999
53 0.001
19 0.001996
30 0.0
44 0.0
72 0.0
83 0.0
85 0.00097
77 0.000995
78 0.000988
86 0.004033
97 0.004988
109 0.005019
124 0.005029
130 0.004987
91 0.00502
31 0.00502
24 0.005016
41 0.006021
64 0.006979
88 0.007988
102 0.005972
98 0.003998
94 0.003976
96 0.002006
110 0.001029
118 0.000993
133 0.0
147 0.002985
144 0.001988
84 0.001011
45 0.000993
47 0.001005
70 0.001031
89 0.001029
116 0.001994
125 0.0
118 0.000994
115 0.001007
123 0.000947
131 0.003946
147 0.004033
163 0.004988
172 0.005988
187 0.005984
145 0.00698
96 0.005978
72 0.005993
79 0.005024
106 0.004988
135 0.002022
146 0.002987
139 0.002004
131 0.002992
132 0.000994
140 0.003015
153 0.002005
160 0.002031
174 0.001955
185 0.000968
173 0.002005
109 0.001995
77 0.002998
80 0.003026
103 0.004022
130 0.006017
140 0.006021
134 0.006
127 0.005984
127 0.006016
135 0.006982
142 0.00701
152 0.00598
161 0.005985
166 0.005021
175 0.002987
141 0.00399
82 0.001992
60 0.00402
67 0.001993
82 0.003971
107 0.004025
118 0.003989
118 0.00299
111 0.001994
114 0.000996
123 0.0
130 0.001995
140 0.0
152 0.0
156 0.0
166 0.0
173 0.0
143 0.0
76 0.000997
63 0.002043
74 0.004029
95 0.005032
116 0.006046
126 0.006982
123 0.006981
119 0.006981
120 0.006981
128 0.007013
135 0.007019
149 0.007017
161 0.005109
169 0.006021
179 0.003022
188 0.001994
195 0.001992
189 0.001997
102 0.000998
82 0.0
77 0.0
97 0.000972
113 0.00101
139 0.000856
144 0.000998
136 0.004029
131 0.00399
135 0.005985
146 0.005942
159 0.005956
171 0.005987
182 0.006082
195 0.005946
201 0.005985
211 0.006018
215 0.005987
158 0.006982
91 0.00599
83 0.007019
93 0.006971
114 0.006943
138 0.006976
158 0.005974
157 0.005981
144 0.005979
141 0.005991
146 0.004985
158 0.003987
169 0.004987
180 0.004
189 0.003992
197 0.000995
204 0.001995
187 0.001997
123 0.002982
66 0.002042
65 0.0
80 0.00099
102 0.001997
127 0.001995
136 0.002001
131 0.003956
123 0.00399
125 0.003997
136 0.004029
144 0.004024
159 0.004989
173 0.006981
181 0.005977
192 0.006985
197 0.007012
149 0.006977
75 0.007017
54 0.006981
58 0.005984
80 0.004574
109 0.001949
125 0.001029
134 0.0
127 0.0
123 0.0
126 0.0
138 0.0
150 0.002047
166 0.002007
174 0.001987
186 0.002992
195 0.004025
199 0.004019
143 0.003959
64 0.004031
56 0.004022
71 0.004013
89 0.004979
121 0.003944
141 0.005026
148 0.005029
141 0.004994
137 0.004984
142 0.005024
156 0.00499
164 0.005038
176 0.004952
182 0.004984
192 0.00502
187 0.00497
137 0.005954
71 0.006979
58 0.006971
67 0.006985
105 0.00696
128 0.004978
139 0.004991
139 0.00403
132 0.004024
132 0.001993
139 0.002027
152 0.0
160 0.000999
170 0.002992
178 0.004988
173 0.006981
140 0.00798
45 0.007014
29 0.003002
38 0.003989
66 0.002019
95 0.001998
106 0.0
105 0.0
99 0.00103
97 0.000998
105 0.000998
114 0.000997
131 0.000997
147 0.000998
155 0.000997
167 0.000997
155 0.001996
59 0.000998
26 0.002994
32 0.003991
56 0.003991
81 0.004011
102 0.004033
107 0.003961
102 0.003991
95 0.004021
103 0.004023
114 0.004023
133 0.003993
152 0.004028
162 0.003955
175 0.003958
182 0.003788
161 0.004016
63 0.005017
43 0.004994
50 0.004986
68 0.004987
100 0.005025
118 0.004997
119 0.006953
106 0.007013
101 0.007011
108 0.007006
124 0.007977
138 0.004985
147 0.005948
162 0.003989
172 0.005951
180 0.001994
102 0.0
53 0.0
36 0.0
49 0.002035
63 0.000997
94 0.000997
106 0.001
99 0.000998
88 0.001996
89 0.001987
96 0.003038
111 0.00502
124 0.005987
133 0.006984
144 0.00798
160 0.007941
166 0.007978
102 0.00798
38 0.007973
18 0.005986
31 0.002995
46 0.004987
70 0.001997
84 0.001983
84 0.0
79 0.0
83 0.000943
90 0.001971
105 0.00305
122 0.003994
131 0.003996
144 0.005985
158 0.006018
165 0.005979
107 0.006016
47 0.00602
31 0.005984
40 0.006976
62 0.006993
85 0.007028
109 0.007013
112 0.007979
106 0.006981
106 0.004983
110 0.006977
126 0.004952
137 0.007012
156 0.004992
170 0.004975
178 0.004991
192 0.004985
200 0.004951
196 0.00499
99 0.002993
73 0.001987
75 0.002006
96 0.001995
123 0.002025
144 0.0
152 0.0
142 0.0
131 0.000998
133 0.002966
140 0.003984
154 0.003971
168 0.004976
175 0.00698
183 0.006937
192 0.00698
183 0.006968
107 0.006974
86 0.006981
85 0.005978
105 0.004982
121 0.003993
145 0.002988
148 0.003024
143 0.002004
139 0.002983
145 0.002993
150 0.003211
163 0.00203
177 0.0
184 0.001993
193 0.000977
198 0.0
197 0.002001
124 0.001996
97 0.001996
93 0.003984
113 0.003958
127 0.003987
148 0.005019
155 0.00597
150 0.005988
148 0.005832
156 0.005022
160 0.006985
170 0.006976
176 0.006005
184 0.00499
189 0.006035
191 0.004985
196 0.005989
187 0.007018
144 0.006018
99 0.004985
103 0.001992
114 0.001037
133 0.000965
155 0.000983
162 0.000996
156 0.000967
151 0.0
152 0.001006
157 0.000998
163 0.001996
179 0.001001
191 0.001053
197 0.002994
207 0.004021
210 0.004994
212 0.004995
166 0.00502
134 0.005019
124 0.004985
132 0.005987
141 0.006979
163 0.00702
174 0.007946
173 0.005993
163 0.003979
162 0.002993
168 0.002992
179 0.001003
184 0.000956
186 0.0
193 0.0
200 0.0
205 0.0
179 0.0
143 0.0
112 0.000998
112 0.002992
120 0.002992
136 0.002995
144 0.002986
140 0.003009
129 0.005025
124 0.006983
124 0.006978
126 0.007013
134 0.004989
138 0.007013
142 0.002991
150 0.002989
155 0.002002
145 0.001998
85 0.0
73 0.0
71 0.000997
88 0.002985
100 0.002985
124 0.004023
132 0.006017
131 0.005981
128 0.006975
132 0.00797
140 0.00599
151 0.007021
164 0.005989
171 0.004988
182 0.004042
191 0.002963
196 0.001976
155 0.0
119 0.002031
99 0.0
111 0.001014
122 0.000968
138 0.0
154 0.001005
156 0.001994
151 0.002027
151 0.001987
156 0.002007
165 0.002006
169 0.001987
177 0.002031
187 0.002049
191 0.002007
182 0.002997
127 0.005011
99 0.005013
96 0.004993
110 0.007011
122 0.00701
139 0.00798
151 0.003984
150 0.004973
145 0.002995
144 0.004987
149 0.002982
157 0.002994
163 0.002989
172 0.002991
180 0.001021
185 0.001995
191 0.001985
163 0.001006
90 0.001993
73 0.003028
78 0.001994
92 0.001995
111 0.002
128 0.001959
138 0.002043
136 0.002007
132 0.0
137 0.0
143 0.0
154 0.0
162 0.0
171 0.000836
181 0.001995
187 0.002992
191 0.004997
127 0.005022
90 0.005023
79 0.005972
96 0.006022
108 0.006016
131 0.006052
142 0.00697
141 0.006985
133 0.006885
130 0.006974
134 0.006967
144 0.007013
151 0.007017
161 0.006971
170 0.004995
176 0.00599
174 0.003998
92 0.001029
67 0.002002
64 0.001994
75 0.0
99 0.0
123 0.0
132 0.001006
133 0.0
128 0.002032
131 0.0
137 0.0
143 0.0
156 0.00103
174 0.001982
183 0.001958
194 0.001996
192 0.001994
116 0.001985
69 0.001949
62 0.003003
76 0.001996
102 0.001979
119 0.005004
137 0.006019
136 0.005988
131 0.006035
128 0.006017
137 0.005983
146 0.005984
160 0.007005
168 0.007004
178 0.006982
188 0.005987
193 0.004989
160 0.004987
73 0.007978
60 0.004985
69 0.006981
87 0.003982
110 0.005988
136 0.004023
144 0.002993
143 0.001993
137 0.0
141 0.002029
152 0.0
164 0.001
171 0.0
183 0.0
187 0.0
182 0.000959
94 0.001008
67 0.000998
63 0.002963
85 0.002992
101 0.004985
126 0.005018
137 0.004958
131 0.004956
123 0.005018
124 0.005018
131 0.005035
145 0.00502
154 0.005019
167 0.006019
176 0.00619
181 0.007979
130 0.005982
69 0.007969
34 0.005929
45 0.00395
61 0.003986
90 0.004001
111 0.003027
113 0.003006
105 0.003985
101 0.003025
108 0.003005
120 0.004962
132 0.003022
144 0.002992
159 0.002985
168 0.002993
177 0.002993
151 0.002991
55 0.002029
31 0.000967
39 0.001995
64 0.0
94 0.001015
110 0.0
119 0.0
112 0.001006
107 0.0
114 0.0
123 0.0
141 0.000998
157 0.0
165 0.003005
179 0.005021
187 0.00697
175 0.006954
88 0.004987
45 0.005968
42 0.004016
60 0.005984
91 0.006018
107 0.005036
121 0.004024
110 0.002041
105 0.003987
106 0.00198
114 0.003989
129 0.001995
145 0.001994
153 0.000964
167 0.0
173 0.001
140 0.0
48 0.0
28 0.001984
37 0.001996
63 0.003955
91 0.004039
103 0.005016
104 0.005947
98 0.005952
97 0.005983
104 0.00595
116 0.007008
129 0.005894
145 0.006018
155 0.006028
168 0.006986
175 0.005987
122 0.005948
35 0.006986
24 0.006975
31 0.004971
56 0.006065
74 0.003992
94 0.004987
99 0.002992
91 0.001963
89 0.002032
97 0.0
106 0.00096
122 0.0
132 0.0
148 0.003034
160 0.004988
173 0.006018
173 0.006014
84 0.006018
41 0.006009
29 0.007976
43 0.005989
67 0.00797
92 0.005989
110 0.005984
107 0.005984
98 0.005981
98 0.005986
108 0.005984
126 0.00601
137 0.005986
154 0.004994
166 0.005984
177 0.003019
186 0.004983
154 0.002936
88 0.001993
42 0.001985
45 0.002026
68 0.001996
102 0.0
117 0.002028
121 0.0
108 0.0
105 0.001009
111 0.004023
126 0.004022
136 0.004989
151 0.005978
165 0.006993
170 0.006982
178 0.004967
99 0.003989
52 0.002994
33 0.001994
46 0.003033
68 0.001984
94 0.002026
110 0.000967
107 0.002053
98 0.003027
99 0.004956
107 0.005035
121 0.004988
138 0.004973
148 0.004987
162 0.004987
170 0.004989
183 0.00698
150 0.006947
81 0.006983
33 0.005984
33 0.006985
46 0.006014
74 0.005985
92 0.005985
107 0.004952
101 0.006982
95 0.004987
98 0.007015
112 0.007098
123 0.006981
140 0.006977
150 0.006949
165 0.005027
178 0.002017
184 0.002994
195 0.0
161 0.0
91 0.0
40 0.001031
47 0.0
62 0.0
93 0.002026
117 0.00103
122 0.001996
115 0.003957
113 0.00404
119 0.003988
134 0.003998
146 0.003995
164 0.004003
177 0.00399
188 0.003988
197 0.005941
208 0.006984
204 0.005945
107 0.005983
69 0.005997
64 0.00695
89 0.006954
110 0.006984
140 0.00702
151 0.006982
150 0.00692
136 0.004957
135 0.004977
146 0.004984
161 0.003989
170 0.004014
183 0.004977
190 0.004989
198 0.00499
185 0.004961
102 0.002018
56 0.004032
56 0.004981
70 0.004029
100 0.002042
128 0.0
135 0.001985
131 0.000996
123 0.002005
125 0.0
136 0.0
144 0.00203
160 0.002048
174 0.004025
180 0.003992
189 0.005987
115 0.005982
60 0.005984
36 0.005953
53 0.00598
69 0.005979
100 0.005977
113 0.006966
117 0.004959
110 0.007013
104 0.003991
108 0.004984
122 0.00504
132 0.004025
148 0.004029
162 0.00199
171 0.002985
172 0.0
80 0.0
51 0.0
34 0.001005
53 0.003996
72 0.003953
104 0.004027
123 0.003987
122 0.003979
113 0.004019
112 0.005031
122 0.003992
136 0.004039
149 0.003995
162 0.006022
174 0.006026
184 0.00498
171 0.006031
111 0.006021
50 0.005988
54 0.005999
70 0.007035
97 0.003997
118 0.007979
140 0.003982
134 0.004
126 0.003992
126 0.003996
139 0.001994
148 0.001995
163 0.000998
176 0.002033
183 0.0
155 0.0
64 0.0
46 0.0
54 0.0
77 0.000999
102 0.002992
121 0.004013
123 0.006017
114 0.006039
109 0.006017
113 0.005985
126 0.005984
141 0.005863
150 0.006012
165 0.005955
172 0.006981
138 0.004987
50 0.003991
32 0.00402
41 0.002986
66 0.002994
83 0.002993
103 0.001949
100 0.002027
93 0.0
94 0.002024
104 0.002194
112 0.00204
126 0.00204
138 0.0
146 0.003005
157 0.001015
135 0.002038
68 0.000998
36 0.000965
41 0.002993
63 0.002995
93 0.003958
106 0.005022
109 0.004988
102 0.006935
102 0.006939
109 0.002979
123 0.003997
132 0.002992
145 0.002031
156 0.003032
164 0.002992
162 0.003028
84 0.001997
60 0.002994
60 0.001995
73 0.003026
103 0.001993
128 0.001999
129 0.0
118 0.000991
116 0.0
119 0.0
132 0.0
143 0.0
153 0.0
168 0.0
175 0.0
155 0.0
77 0.00203
58 0.003003
65 0.003959
86 0.005022
108 0.00599
124 0.007975
124 0.007021
115 0.007942
114 0.006973
119 0.00702
130 0.006982
143 0.004976
150 0.006931
161 0.004998
167 0.007018
173 0.003997
100 0.003958
61 0.003021
48 0.002991
66 0.00305
81 0.002987
107 0.001997
115 0.001994
112 0.002
108 0.003992
111 0.002011
120 0.002985
133 0.002032
142 0.002025
155 0.000999
162 0.000994
172 0.001994
178 0.000967
116 0.002009
73 0.003986
56 0.00403
64 0.00385
88 0.006008
116 0.005979
126 0.005964
126 0.005986
121 0.005984
122 0.006946
131 0.005988
145 0.005986
154 0.004987
168 0.004989
177 0.004995
192 0.004941
202 0.006981
212 0.002991
184 0.004982
95 0.004032
77 0.003031
87 0.003012
116 0.002031
135 0.002993
159 0.0
160 0.0
152 0.0
145 0.0
149 0.001997
162 0.001019
178 0.000997
187 0.000998
199 0.002006
206 0.000957
218 0.00199
185 0.000998
124 0.000997
85 0.00202
93 0.002992
114 0.002874
140 0.005986
167 0.006021
174 0.006015
166 0.005991
160 0.005983
164 0.005019
176 0.00601
184 0.006024
197 0.005987
207 0.005977
214 0.004989
214 0.004965
164 0.004983
76 0.003994
66 0.004946
77 0.003989
104 0.003999
128 0.004985
144 0.002999
144 0.003989
135 0.002985
134 0.002995
143 0.00203
152 0.001984
168 0.002027
182 0.0
190 0.001986
200 0.0
147 0.0
83 0.000963
49 0.0
54 0.0
77 0.0
101 0.001956
118 0.002012
132 0.00203
126 0.002005
123 0.001995
127 0.002026
134 0.001995
151 0.002003
167 0.002033
176 0.003995
189 0.005984
198 0.006
172 0.007
86 0.007015
51 0.007017
52 0.006995
75 0.006981
94 0.006989
126 0.007146
141 0.004989
140 0.006969
134 0.004942
140 0.005952
147 0.004966
163 0.003978
173 0.003988
186 0.004023
199 0.00299
204 0.001996
186 0.001993
104 0.003027
63 0.002001
64 0.002986
82 0.001997
110 0.002993
140 0.003
151 0.003
150 0.002006
145 0.0
148 0.0
160 0.0
169 0.0
178 0.000997
190 0.001981
196 0.002
181 0.001996
80 0.00396
51 0.003954
52 0.003946
81 0.005048
102 0.00502
128 0.006978
140 0.007028
134 0.006973
123 0.006971
124 0.006981
135 0.007023
149 0.006963
157 0.006963
171 0.007015
178 0.003971
160 0.004992
51 0.001989
16 0.001971
22 0.001997
47 0.001996
67 0.002001
94 0.001991
101 0.0
95 0.000963
91 0.0
98 0.0
106 0.0
124 0.0
135 0.0
150 0.002006
165 0.002998
160 0.001913
60 0.005018
13 0.004995
12 0.003994
27 0.006017
59 0.007018
77 0.006976
93 0.007011
87 0.006983
84 0.007978
86 0.003987
100 0.00399
111 0.003991
130 0.004
141 0.003977
156 0.002993
171 0.001971
170 0.001994
80 0.001995
27 0.002
21 0.0
39 0.0
73 0.001017
93 0.001011
113 0.000997
112 0.000998
104 0.001019
104 0.000999
115 0.001003
129 0.002983
148 0.002995
159 0.004003
173 0.00399
180 0.002992
191 0.005995
142 0.005959
77 0.006048
43 0.006982
53 0.004987
84 0.002985
105 0.001995
128 0.00203
134 0.001962
127 0.002002
120 0.002028
124 0.002028
139 0.001001
152 0.002028
166 0.003996
173 0.004935
185 0.004979
185 0.004989
95 0.006017
42 0.006979
36 0.00702
51 0.006968
84 0.004974
102 0.004991
120 0.004986
112 0.003992
106 0.003989
108 0.004172
117 0.003992
134 0.003986
147 0.005984
159 0.00397
170 0.005977
179 0.003991
159 0.003978
53 0.003989
26 0.004023
29 0.003986
55 0.001995
74 0.002992
100 0.0
105 0.0
101 0.0
97 0.0
104 0.000964
114 0.001963
132 0.002992
151 0.003991
160 0.003939
175 0.003991
182 0.005036
160 0.003989
59 0.00506
35 0.005983
37 0.005981
56 0.006981
82 0.004993
107 0.006976
124 0.006009
123 0.005984
115 0.005977
121 0.001994
128 0.003004
146 0.0
164 0.0
174 0.0
186 0.0
194 0.0
202 0.001991
174 0.001029
106 0.002995
51 0.005025
60 0.005014
77 0.004987
113 0.005021
140 0.005005
147 0.004965
142 0.004983
138 0.004986
141 0.005966
153 0.006982
162 0.00598
176 0.006982
186 0.007995
193 0.007979
202 0.007971
196 0.007973
127 0.006981
62 0.004129
58 0.005982
80 0.002025
115 0.001997
134 0.002043
150 0.0
145 0.003025
138 0.002035
139 0.003005
149 0.002041
157 0.000998
169 0.000997
176 0.0
185 0.002883
177 0.002992
97 0.002994
43 0.004955
38 0.006014
50 0.006013
80 0.005014
110 0.005953
118 0.006033
113 0.004939
106 0.005975
107 0.004989
118 0.004095
128 0.004981
143 0.004987
158 0.004981
167 0.004977
159 0.004019
80 0.006965
33 0.004986
27 0.00698
42 0.004984
67 0.006981
97 0.004987
106 0.004021
103 0.003971
97 0.002004
99 0.00297
113 0.00299
123 0.002989
140 0.001989
155 0.0
164 0.0
169 0.002991
126 0.0
46 0.0
36 0.0
47 0.000964
71 0.0
104 0.000998
115 0.0
116 0.000998
106 0.001011
107 0.003015
119 0.003025
132 0.003969
146 0.003967
158 0.006016
169 0.005966
180 0.007013
153 0.006948
111 0.007948
53 0.006017
57 0.003977
71 0.005021
104 0.003022
129 0.002994
131 0.002987
115 0.002001
112 0.001012
118 0.0
129 0.0
143 0.000996
152 0.001983
167 0.002994
166 0.002983
119 0.002988
57 0.003991
51 0.00399
65 0.00403
88 0.00399
107 0.003957
121 0.004025
112 0.003946
107 0.005006
110 0.005021
118 0.005988
131 0.005979
145 0.005954
148 0.002992
163 0.005974
155 0.00695
122 0.004959
53 0.004987
41 0.004989
51 0.004989
71 0.007056
93 0.004982
107 0.005995
104 0.006018
100 0.005984
101 0.005938
108 0.005984
121 0.005018
135 0.001959
142 0.003978
153 0.002007
164 0.0
168 0.0
125 0.0
59 0.0
49 0.001045
60 0.000967
75 0.0
102 0.0
116 0.0
116 0.001996
110 0.001996
112 0.003993
118 0.003968
132 0.004987
143 0.004034
156 0.005019
165 0.004994
174 0.004987
183 0.00502
194 0.004987
198 0.005984
133 0.006983
73 0.006967
69 0.006978
82 0.004024
110 0.003992
127 0.003986
144 0.00319
141 0.002998
131 0.002978
133 0.002963
140 0.002995
155 0.001997
168 0.004023
178 0.002996
188 0.004024
196 0.002991
204 0.002985
214 0.003034
209 0.003035
121 0.002046
84 0.0
85 0.0
101 0.0
124 0.0
148 0.001996
158 0.004074
145 0.005016
139 0.004988
143 0.004987
150 0.004994
162 0.006966
175 0.006978
183 0.005995
195 0.003989
203 0.005017
210 0.002991
213 0.002992
130 0.002042
85 0.002953
68 0.0
82 0.001051
103 0.001992
127 0.00196
145 0.00104
144 0.003029
134 0.00404
134 0.003992
140 0.004984
151 0.006017
167 0.004947
176 0.00502
189 0.003
200 0.002962
207 0.002992
212 0.003002
160 0.005034
87 0.0
68 0.003021
81 0.002026
96 0.0
128 0.001041
142 0.0
151 0.0
143 0.0
136 0.002981
141 0.001997
153 0.002025
163 0.001996
179 0.001004
187 0.002042
199 0.001964
209 0.001996
214 0.002994
194 0.001995
94 0.003036
71 0.002933
76 0.003011
90 0.00403
123 0.004026
151 0.004002
159 0.004956
154 0.003956
150 0.0
150 0.004951
159 0.007028
167 0.006975
181 0.006145
190 0.007014
196 0.006982
206 0.004977
211 0.003983
193 0.005024
97 0.002949
69 0.002949
77 0.002994
106 0.002
139 0.000951
152 0.001011
157 0.0
152 0.0
146 0.002003
151 0.002992
160 0.000998
169 0.003024
178 0.0
186 0.001979
194 0.0
189 0.0
97 0.00103
51 0.001989
49 0.004023
66 0.004986
98 0.00502
117 0.006032
132 0.005984
129 0.005953
122 0.005985
120 0.004987
130 0.003988
139 0.002992
152 0.000954
163 0.002028
170 0.0
172 0.002039
81 0.003031
37 0.003013
24 0.003026
42 0.003008
67 0.002996
94 0.002866
111 0.003007
110 0.003977
99 0.003028
98 0.003991
107 0.003002
123 0.004028
133 0.00399
148 0.003997
157 0.004023
167 0.006964
126 0.005968
64 0.003981
22 0.003979
33 0.004992
50 0.003992
84 0.003011
105 0.006024
111 0.002963
103 0.005026
98 0.003977
103 0.002992
119 0.00305
129 0.003051
146 0.004024
162 0.0
171 0.002045
168 0.0
120 0.003023
41 0.0
37 0.0
51 0.0
85 0.000998
117 0.001001
124 0.0
117 0.000997
105 0.000998
106 0.000997
120 0.002031
131 0.001989
147 0.004
162 0.003938
171 0.003985
147 0.003992
68 0.004988
33 0.005989
37 0.005976
64 0.006982
85 0.007982
112 0.007981
116 0.007973
107 0.007011
98 0.003986
103 0.004028
116 0.000965
132 0.001001
144 0.0
154 0.000998
166 0.000964
148 0.002006
51 0.002047
19 0.002026
25 0.002006
51 0.002895
81 0.004948
94 0.005983
94 0.005993
86 0.005975
87 0.005982
95 0.005983
107 0.004991
120 0.007978
132 0.005002
141 0.007022
155 0.004985
141 0.003021
83 0.001962
29 0.0
33 0.0
47 0.0
79 0.0
99 0.000963
106 0.000959
97 0.003007
95 0.004998
98 0.004989
114 0.004991
128 0.00499
141 0.005229
155 0.007015
168 0.006947
176 0.006949
183 0.007978
104 0.003026
59 0.00602
44 0.003
54 0.005963
84 0.002998
116 0.00396
127 0.001998
123 0.0
112 0.0
115 0.0
124 0.0
141 0.0
152 0.0
168 0.001005
182 0.002005
190 0.002989
189 0.002872
140 0.002996
65 0.003034
58 0.003025
74 0.002991
101 0.004987
132 0.006991
142 0.007972
138 0.007014
124 0.003989
123 0.00698
134 0.003992
149 0.002997
158 0.001997
172 0.002992
184 0.002989
190 0.00081
146 0.0
73 0.0
51 0.0
57 0.001997
83 0.002005
103 0.001954
125 0.003032
128 0.003956
117 0.005008
114 0.004985
121 0.004956
133 0.004986
148 0.00698
157 0.006984
170 0.00698
180 0.004985
187 0.006981
150 0.00495
89 0.005974
49 0.00399
60 0.00399
73 0.003986
104 0.003955
123 0.004187
123 0.003986
115 0.00598
112 0.00198
118 0.005018
131 0.004987
140 0.004979
155 0.003027
169 0.001978
178 0.003161
190 0.002998
186 0.001998
98 0.0
62 0.000961
59 0.001996
79 0.001996
111 0.003987
129 0.004
141 0.006043
132 0.005954
127 0.005983
131 0.006014
146 0.005985
156 0.005985
171 0.005971
178 0.005976
191 0.005986
199 0.005979
201 0.00598
146 0.007017
84 0.007979
71 0.00798
84 0.007979
108 0.007979
140 0.007963
156 0.005984
153 0.007971
142 0.004958
138 0.007975
144 0.004988
158 0.003003
167 0.001993
179 0.0
193 0.0
199 0.0
171 0.000957
94 0.000997
69 0.001996
70 0.00087
96 0.002
115 0.002993
142 0.003988
148 0.004025
138 0.005985
132 0.005984
136 0.005986
144 0.005983
158 0.007016
170 0.004984
179 0.00797
189 0.004987
195 0.007013
160 0.003993
69 0.002993
52 0.002957
62 0.003
89 0.003993
109 0.003994
133 0.003001
134 0.002002
125 0.000961
121 0.003026
126 0.0
137 0.003007
152 0.001132
161 0.003026
175 0.002027
184 0.0
191 0.001994
167 0.0
86 0.0
54 0.002003
62 0.001963
77 0.001997
110 0.002013
136 0.001995
143 0.001965
135 0.002995
130 0.003979
134 0.004957
147 0.004989
156 0.004983
172 0.004987
182 0.004987
190 0.004982
198 0.004995
185 0.004956
105 0.003991
64 0.007964
64 0.007984
90 0.00798
119 0.005943
143 0.007938
157 0.005981
158 0.007981
151 0.005985
152 0.005969
158 0.004983
170 0.004986
178 0.004989
189 0.004971
200 0.004987
202 0.004994
158 0.004984
87 0.007014
67 0.002987
77 0.00502
102 0.003
129 0.003989
153 0.002992
159 0.002992
153 0.002992
150 0.0
155 0.002987
162 0.003942
172 0.004034
183 0.00499
188 0.005974
171 0.006981
93 0.007011
47 0.006011
52 0.005984
67 0.005992
100 0.004987
126 0.004992
133 0.004988
125 0.003992
117 0.005025
121 0.003
131 0.00401
141 0.002024
152 0.002995
165 0.002019
167 0.003015
92 0.003023
27 0.0
22 0.002995
35 0.0
65 0.001002
84 0.000961
103 0.00096
103 0.000963
92 0.000999
93 0.001003
99 0.002039
114 0.001008
124 0.000995
139 0.002
154 0.000988
154 0.000995
72 0.003011
23 0.002992
24 0.002026
46 0.005038
72 0.004989
97 0.00493
106 0.004988
100 0.004997
94 0.006978
95 0.005991
106 0.006978
122 0.006976
134 0.005982
143 0.005986
158 0.003988
166 0.002998
137 0.003022
49 0.003
32 0.001996
41 0.000953
64 0.001996
92 0.000967
113 0.0
118 0.0
112 0.000996
107 0.002003
114 0.002021
126 0.002001
140 0.003987
155 0.003958
165 0.00399
178 0.003957
181 0.003993
112 0.004027
53 0.004022
51 0.003992
72 0.00399
109 0.004892
127 0.005982
140 0.006022
134 0.004988
126 0.004987
128 0.002991
139 0.004983
150 0.002987
163 0.005115
174 0.002998
184 0.002994
165 0.00299
108 0.003058
58 0.003019
66 0.0
82 0.003003
118 0.0
139 0.000964
144 0.000996
131 0.000965
125 0.000997
128 0.002982
141 0.00299
149 0.003954
163 0.004997
176 0.00403
162 0.005958
86 0.004991
40 0.002991
43 0.004989
61 0.001997
87 0.004021
107 0.002987
111 0.004017
101 0.003988
98 0.003995
104 0.002995
113 0.003027
128 0.002997
141 0.000961
149 0.002026
150 0.0
78 0.0
48 0.0
40 0.0
48 0.0
73 0.0
101 0.0
107 0.0
104 0.0
100 0.0
104 0.0
116 0.0
126 0.0
138 0.000995
146 0.000962
155 0.001997
161 0.001997
137 0.000982
86 0.002045
61 0.003024
66 0.003025
88 0.002978
114 0.003029
123 0.002995
122 0.003989
119 0.004955
122 0.004989
132 0.004962
140 0.005952
150 0.00502
162 0.006014
167 0.005984
174 0.006014
181 0.007977
184 0.005983
147 0.006018
95 0.005172
88 0.003991
102 0.00399
116 0.003989
143 0.003989
153 0.001994
148 0.001977
141 0.000977
146 0.000981
152 0.000967
164 0.000963
171 0.0
180 0.0
185 0.0
190 0.0
196 0.0
178 0.001004
140 0.002004
107 0.001
108 0.002026
125 0.001005
151 0.001995
163 0.001999
162 0.003025
155 0.002026
153 0.002996
158 0.003985
166 0.003948
172 0.003992
179 0.007006
181 0.007013
185 0.008011
192 0.004141
184 0.006984
125 0.003991
96 0.00299
97 0.002988
115 0.002971
140 0.001014
148 0.004014
150 0.0
143 0.002993
142 0.0
148 0.003024
159 0.000963
164 0.001994
173 0.002002
178 0.001998
184 0.002993
153 0.002993
108 0.003991
92 0.006017
101 0.006981
113 0.006981
133 0.005977
150 0.005609
151 0.004027
144 0.006013
144 0.003048
148 0.003023
158 0.002995
166 0.004986
175 0.002992
182 0.006029
180 0.001999
135 0.004984
97 0.005016
96 0.004021
113 0.003968
128 0.00299
152 0.00199
168 0.0
163 0.003025
155 0.0
160 0.0
168 0.0
182 0.0
191 0.0
204 0.0
215 0.000965
215 0.001996
144 0.001028
95 0.003031
96 0.004998
119 0.005954
147 0.005988
168 0.005972
186 0.006
175 0.006987
168 0.00598
170 0.006989
176 0.005985
187 0.007028
201 0.007017
209 0.006946
224 0.004023
214 0.002999
155 0.003034
102 0.0
108 0.0
126 0.0
155 0.0
188 0.0
193 0.000967
181 0.001998
170 0.001995
172 0.001996
184 0.002027
192 0.002993
206 0.003942
220 0.004034
210 0.003988
114 0.003989
82 0.004024
87 0.004045
110 0.003995
140 0.003959
163 0.005033
172 0.006981
164 0.007978
153 0.00802
153 0.004988
159 0.007011
172 0.004996
187 0.004943
196 0.002992
178 0.002992
108 0.002992
46 0.002969
50 0.001994
67 0.001989
104 0.002024
128 0.004988
135 0.003025
124 0.003024
117 0.002029
119 0.003013
132 0.000999
142 0.003016
157 0.0
172 0.0
179 0.0
109 0.0
54 0.0
27 0.0
49 0.0
70 0.0
106 0.000979
122 0.001993
119 0.002032
107 0.003073
108 0.003959
115 0.005023
128 0.005942
145 0.006983
153 0.006979
169 0.007976
178 0.00698
153 0.006981
56 0.005019
31 0.000963
41 0.002991
75 0.0
113 0.001012
123 0.000996
127 0.003007
115 0.004021
112 0.004026
121 0.003989
138 0.004985
149 0.005976
164 0.005976
174 0.006007
190 0.005985
182 0.004986
120 0.004987
49 0.004987
46 0.006987
69 0.002033
101 0.004039
137 0.003973
147 0.003986
134 0.003024
122 0.000959
124 0.003026
138 0.0
151 0.0
162 0.0
176 0.00103
191 0.001997
195 0.00399
115 0.004981
64 0.00499
47 0.004989
72 0.004987
96 0.004986
126 0.006937
141 0.005982
133 0.006151
116 0.004985
118 0.005972
129 0.002995
139 0.005022
154 0.004009
162 0.00503
176 0.003959
175 0.00302
81 0.002991
24 0.0
24 0.001984
49 0.0
88 0.000996
105 0.000962
111 0.0
97 0.001013
93 0.002993
100 0.003002
116 0.003953
127 0.004988
138 0.006939
149 0.006976
159 0.002989
169 0.006022
109 0.006018
50 0.006016
15 0.005964
21 0.003989
53 0.004992
91 0.001989
104 0.003023
104 0.0
93 0.000944
95 0.0
109 0.000971
127 0.0
136 0.0
148 0.0
160 0.002991
166 0.003941
178 0.003984
150 0.005361
107 0.005974
35 0.005978
29 0.006016
50 0.004991
80 0.006013
115 0.00399
124 0.004044
116 0.00399
109 0.005026
112 0.002988
127 0.0
138 0.003039
155 0.001
172 0.0
180 0.0
192 0.0
201 0.000967
211 0.0
137 0.000956
77 0.0
50 0.0
66 0.0
87 0.001045
128 0.000955
144 0.002046
145 0.002028
127 0.001802
126 0.001996
137 0.002963
152 0.00299
166 0.002951
177 0.002998
189 0.002991
199 0.004982
212 0.005995
217 0.007026
168 0.007016
71 0.004024
54 0.006982
70 0.004973
109 0.002996
134 0.002982
158 0.002031
148 0.003002
137 0.003001
135 0.003001
142 0.003001
160 0.002947
173 0.003985
185 0.0
196 0.002025
209 0.0
216 0.002024
154 0.000999
60 0.001976
33 0.001994
42 0.002028
74 0.001997
98 0.003993
129 0.003998
133 0.004794
117 0.005952
111 0.005987
120 0.004988
131 0.002998
150 0.00297
160 0.003023
177 0.003989
189 0.004003
198 0.000965
192 0.003025
71 0.0
21 0.002032
21 0.002995
44 0.005975
84 0.005977
105 0.00598
120 0.006013
115 0.00604
102 0.005975
107 0.005982
117 0.006825
133 0.005989
152 0.00599
163 0.005995
179 0.004986
188 0.005149
197 0.004975
109 0.003933
46 0.00399
18 0.003988
35 0.006979
65 0.004004
97 0.005031
122 0.004971
123 0.005026
107 0.002993
104 0.00298
115 0.002027
134 0.000993
146 0.003013
167 0.0
181 0.0
190 0.001006
203 0.002003
175 0.002029
93 0.001995
27 0.001984
28 0.001992
58 0.002999
102 0.003014
124 0.002997
142 0.002993
136 0.003001
122 0.002992
126 0.002964
136 0.002991
155 0.003977
171 0.004002
185 0.004995
196 0.004987
208 0.004993
193 0.004986
76 0.005994
40 0.006974
42 0.006948
69 0.00497
96 0.007016
135 0.004983
150 0.00398
145 0.003989
132 0.004014
134 0.002996
149 0.002961
167 0.00299
176 0.003036
191 0.001973
202 0.002029
185 0.00299
63 0.002958
19 0.0
26 0.002992
62 0.0
90 0.002993
126 0.0
135 0.00102
127 0.000954
117 0.0
122 0.0
138 0.0
158 0.0
168 0.00096
182 0.001003
183 0.001995
120 0.002945
8 0.00299
0 0.005987
11 0.005998
51 0.005993
84 0.00598
101 0.00598
95 0.006012
84 0.005986
82 0.006981
94 0.006983
106 0.00599
127 0.004988
146 0.002992
158 0.004956
164 0.002002
48 0.002996
0 0.003018
0 0.002997
0 0.002991
28 0.002992
65 0.002992
77 0.002939
68 0.002991
62 0.001974
68 0.0
81 0.003032
98 0.0
115 0.002028
134 0.002992
145 0.002995
163 0.003026
160 0.003033
49 0.002988
56 0.000992
56 0.0
66 0.002036
85 0.001984
96 0.001989
105 0.002008
101 0.00399
99 0.003937
103 0.005008
111 0.006983
118 0.006984
132 0.006017
135 0.005932
145 0.005981
153 0.005979
158 0.005972
160 0.004985
117 0.006924
76 0.003997
68 0.005996
76 0.004996
92 0.005971
113 0.004032
121 0.00399
118 0.003988
112 0.0
112 0.003028
120 0.0
130 0.000961
137 0.002
148 0.002993
156 0.004989
160 0.005978
167 0.005984
160 0.005984
122 0.00598
81 0.005975
80 0.006976
88 0.00598
110 0.006984
123 0.005984
134 0.006952
130 0.006015
125 0.005985
123 0.00609
132 0.002976
138 0.006018
148 0.002993
154 0.005993
162 0.002997
169 0.002994
170 0.002992
124 0.002993
77 0.003021
73 0.0
84 0.0
100 0.000961
113 0.001994
125 0.003993
121 0.004989
117 0.005005
117 0.00499
123 0.00399
132 0.004998
141 0.005987
150 0.007016
155 0.007974
161 0.007971
166 0.007969
148 0.007978
85 0.005018
70 0.007976
76 0.004982
85 0.007979
105 0.004971
119 0.005021
121 0.00399
115 0.001996
114 0.002028
117 0.002992
128 0.002993
136 0.00399
146 0.002996
153 0.003003
161 0.002029
165 0.000951
168 0.001008
142 0.000961
84 0.000998
74 0.000997
81 0.000998
96 0.001938
118 0.000998
127 0.001008
129 0.002042
125 0.002031
122 0.002019
128 0.002027
135 0.002044
151 0.001966
163 0.00396
169 0.003994
179 0.003992
183 0.003949
182 0.003988
108 0.003953
77 0.004992
73 0.004955
84 0.005008
112 0.004019
133 0.004838
145 0.004953
143 0.004991
136 0.004982
134 0.005039
142 0.006973
150 0.00702
159 0.005943
171 0.005957
177 0.004001
186 0.003971
183 0.002987
146 0.003006
80 0.000955
72 0.002987
86 0.0
107 0.002992
134 0.003058
144 0.003001
145 0.0
139 0.0
136 0.0
142 0.002
151 0.001992
161 0.002993
171 0.003013
176 0.00399
184 0.003026
175 0.002987
125 0.003954
64 0.003961
59 0.005041
74 0.005987
101 0.005984
116 0.006949
131 0.006963
131 0.006048
125 0.004998
123 0.002992
130 0.004986
140 0.002995
151 0.003004
163 0.002996
169 0.002994
178 0.003025
178 0.000968
141 0.000975
76 0.0
58 0.0
65 0.001
89 0.000993
106 0.001006
128 0.00104
132 0.001994
128 0.003015
124 0.004987
132 0.004952
137 0.005969
150 0.004984
163 0.005976
170 0.004986
180 0.002996
183 0.003986
146 0.002993
84 0.004985
65 0.002957
74 0.003946
100 0.003032
117 0.003023
139 0.003037
146 0.0
141 0.002976
138 0.0
143 0.0
148 0.000834
159 0.000998
165 0.002046
175 0.0
183 0.00199
183 0.001963
126 0.00103
77 0.001997
75 0.003989
96 0.00384
116 0.00396
143 0.00399
155 0.004987
153 0.005978
146 0.006025
147 0.006982
151 0.007965
160 0.006982
172 0.004003
178 0.006982
189 0.002961
160 0.002946
110 0.002989
79 0.002943
81 0.003023
102 0.002999
132 0.000967
146 0.000952
154 0.001001
147 0.00203
143 0.001004
146 0.002873
157 0.0
165 0.0
177 0.0
181 0.0
128 0.000998
75 0.000997
62 0.001011
72 0.002005
93 0.001987
116 0.001007
133 0.001042
132 0.002994
119 0.002962
119 0.005982
126 0.005983
136 0.006977
152 0.005982
154 0.006003
101 0.005965
45 0.003995
39 0.00399
53 0.003994
74 0.004983
