134 0.024929
117 0.006982
92 0.005983
82 0.005953
86 0.005984
95 0.003989
103 0.002991
103 0.003989
104 0.002986
109 0.000997
114 0.000998
123 0.000997
132 0.000999
133 0.001012
120 0.000997
101 0.0
73 0.000998
74 0.001986
78 0.001995
85 0.001997
86 0.001965
83 0.001994
82 0.002994
85 0.001961
91 0.002008
97 0.002955
104 0.002958
101 0.003994
74 0.004953
58 0.005958
52 0.006981
60 0.006981
65 0.006977
67 0.007035
64 0.00704
63 0.007021
64 0.006991
64 0.006981
68 0.006991
74 0.007978
84 0.007939
76 0.007979
54 0.007979
41 0.006965
47 0.007011
53 0.006982
62 0.006981
64 0.006951
64 0.005984
66 0.004987
71 0.00499
80 0.003989
89 0.002091
89 0.002991
64 0.001943
35 0.00101
27 0.000997
31 0.0
42 0.001004
45 0.000997
43 0.001001
43 0.001037
47 0.001023
52 0.000996
57 0.000998
69 0.000964
71 0.000846
46 0.001493
14 0.001966
7 0.001966
15 0.005039
28 0.005984
32 0.005985
32 0.005985
33 0.006981
35 0.007965
40 0.004986
48 0.004991
54 0.004987
56 0.004949
34 0.004956
0 0.004021
0 0.003991
0 0.00401
0 0.003976
0 0.003988
0 0.002032
0 0.00303
0 0.001116
0 0.001031
0 0.001013
0 0.000968
6 0.000964
0 0.0
0 0.0
0 0.000997
0 0.001004
0 0.00101
0 0.00203
0 0.001
0 0.001996
0 0.00199
0 0.002005
0 0.001997
0 0.004001
0 0.003959
4 0.004998
15 0.006029
0 0.00698
0 0.005028
46 0.006025
54 0.004987
61 0.005991
65 0.005016
68 0.005029
72 0.00399
76 0.003993
83 0.00396
91 0.00105
95 0.001011
101 0.0
107 0.0
107 0.0
82 0.0
53 0.002
55 0.001965
65 0.001995
72 0.001955
79 0.002959
82 0.002993
85 0.002992
91 0.004955
100 0.004958
104 0.00396
112 0.006949
118 0.00695
123 0.006987
128 0.00695
121 0.006951
94 0.006951
80 0.006987
85 0.006982
96 0.006978
102 0.006952
107 0.007978
109 0.006945
112 0.00694
117 0.007014
126 0.005983
129 0.006982
137 0.006023
141 0.006081
146 0.005983
151 0.00695
148 0.005983
122 0.006987
100 0.006028
101 0.00603
110 0.005984
115 0.004985
118 0.004991
121 0.00402
124 0.002992
129 0.003129
140 0.000997
146 0.001039
153 0.001038
157 0.000995
164 0.001021
168 0.000988
160 0.000987
123 0.0
101 0.0
105 0.0
115 0.0
121 0.0
128 0.002003
132 0.001995
135 0.002996
142 0.003991
148 0.004999
155 0.004992
160 0.006955
167 0.006981
172 0.006981
175 0.006983
166 0.007058
124 0.006995
113 0.006981
116 0.006976
126 0.007032
133 0.006972
135 0.006971
137 0.007018
138 0.006981
143 0.004962
149 0.006025
155 0.004983
162 0.005022
166 0.006033
172 0.004037
174 0.004987
154 0.003021
131 0.001955
120 0.001995
124 0.001995
134 0.0
140 0.0
142 0.001
144 0.000998
158 0.002983
164 0.002999
176 0.002992
187 0.002993
193 0.002993
203 0.004987
206 0.004979
192 0.004985
141 0.005979
131 0.005948
138 0.005947
148 0.005953
158 0.006667
158 0.007972
156 0.007963
157 0.006138
165 0.005984
174 0.004022
181 0.004024
193 0.001995
203 0.002009
205 0.000997
190 0.0
163 0.0
140 0.0
146 0.0
152 0.0
162 0.000998
166 0.001997
165 0.001996
169 0.001995
177 0.002961
183 0.002963
192 0.002824
198 0.00296
210 0.002993
209 0.002964
185 0.002963
150 0.002962
143 0.003966
150 0.004954
161 0.005954
165 0.00695
167 0.006978
166 0.006028
168 0.006024
172 0.006028
179 0.006025
185 0.003035
193 0.002981
240 0.000984
232 0.001038
173 0.001026
139 0.001996
141 0.000999
153 0.001996
168 0.001021
174 0.0
174 0.001987
173 0.001995
179 0.002994
189 0.002993
200 0.002993
212 0.004048
225 0.004984
226 0.004988
180 0.004987
134 0.005029
114 0.00595
128 0.006982
139 0.006981
150 0.00702
149 0.006976
150 0.007026
157 0.006989
163 0.006994
169 0.007979
185 0.006978
196 0.007983
201 0.005032
166 0.004031
111 0.002992
71 0.002992
79 0.001995
90 0.003032
103 0.001994
106 0.001032
106 0.0
107 0.0
118 0.001008
126 0.000997
141 0.002028
155 0.003072
160 0.003992
129 0.003985
70 0.004976
18 0.006016
24 0.006985
34 0.007012
49 0.006988
53 0.007025
56 0.006027
59 0.007019
71 0.006981
80 0.007022
95 0.007012
102 0.007025
114 0.007014
124 0.004012
122 0.004021
53 0.003989
0 0.003027
0 0.002023
0 0.000996
0 0.0
0 0.000999
0 0.003043
1 0.003989
10 0.004024
33 0.006972
58 0.006978
62 0.007014
79 0.00703
97 0.004987
108 0.003989
119 0.005022
70 0.004987
0 0.004987
0 0.005018
0 0.002035
0 0.003031
0 0.002036
0 0.001995
0 0.000998
0 0.0
64 0.0
76 0.0
87 0.001006
93 0.001855
100 0.002028
109 0.001995
113 0.002992
120 0.004986
97 0.005984
57 0.006027
30 0.005975
34 0.007031
44 0.007011
59 0.006947
65 0.006935
69 0.006952
75 0.004956
83 0.004987
96 0.00513
110 0.003996
118 0.004018
129 0.003951
135 0.003993
144 0.003991
151 0.004036
146 0.002994
107 0.004026
82 0.003989
80 0.00297
90 0.003989
99 0.003026
104 0.00399
107 0.002992
110 0.001995
118 0.002043
125 0.00204
136 0.0
143 0.0
150 0.0
156 0.0
165 0.0
167 0.0
144 0.0
98 0.00196
92 0.002967
98 0.003014
104 0.003029
113 0.001991
117 0.002994
117 0.00399
122 0.004975
130 0.004976
137 0.004982
146 0.004981
152 0.005019
159 0.004979
165 0.005038
171 0.004986
167 0.004996
125 0.006996
101 0.007001
94 0.006962
98 0.006969
107 0.006966
113 0.007014
114 0.007023
115 0.005943
121 0.00498
125 0.00496
136 0.005031
142 0.004989
152 0.005013
162 0.004989
165 0.005026
174 0.003022
168 0.003023
141 0.002041
116 0.00205
115 0.002171
122 0.001995
132 0.0
136 0.0
137 0.0
140 0.0
144 0.0
153 0.0
160 0.0
166 0.001001
171 0.002028
174 0.001997
182 0.004044
176 0.003953
158 0.00398
127 0.005037
127 0.00702
130 0.00702
139 0.007007
142 0.007947
148 0.005939
148 0.007014
153 0.006009
159 0.006017
171 0.006016
178 0.005985
193 0.005982
203 0.004981
209 0.005984
187 0.005026
151 0.005019
113 0.003022
111 0.002026
120 0.00202
135 0.002001
140 0.002037
141 0.002035
143 0.001044
148 0.001988
155 0.001031
164 0.001995
171 0.00104
183 0.001037
189 0.0
173 0.0
112 0.0
89 0.0
85 0.0
95 0.001953
104 0.002997
107 0.002991
105 0.002942
106 0.002993
112 0.002958
121 0.003991
129 0.004028
141 0.004978
150 0.004993
148 0.004987
106 0.004989
82 0.00697
76 0.007019
91 0.007015
101 0.006982
107 0.007016
108 0.006942
106 0.007919
109 0.007944
116 0.007085
125 0.00702
139 0.005978
146 0.004954
141 0.004021
93 0.00317
66 0.002989
61 0.002033
73 0.001005
78 0.0
87 0.0
87 0.001997
87 0.002963
95 0.002967
101 0.002964
115 0.005018
128 0.004987
130 0.004975
89 0.004987
30 0.005021
25 0.004958
36 0.005015
45 0.005019
58 0.005014
60 0.00498
62 0.007025
69 0.006982
81 0.007014
89 0.007017
103 0.007006
106 0.006878
92 0.007937
8 0.006981
0 0.006992
0 0.006972
16 0.007033
24 0.007023
33 0.005032
37 0.004984
44 0.002991
54 0.002023
67 0.000998
74 0.0
84 0.000997
65 0.000977
0 0.000995
0 0.001988
0 0.003992
0 0.002994
0 0.003025
1 0.002983
6 0.00399
15 0.00599
24 0.005973
40 0.00706
55 0.007034
63 0.006955
79 0.006012
59 0.005027
4 0.003984
36 0.004174
37 0.004036
49 0.002962
59 0.003989
65 0.003037
68 0.002036
73 0.000999
78 0.0
88 0.0
96 0.0
102 0.0
109 0.0
115 0.0
114 0.002031
71 0.002039
43 0.002953
35 0.002982
45 0.004977
52 0.005002
60 0.0049
63 0.005019
66 0.004982
75 0.005027
82 0.005036
92 0.004971
102 0.006018
107 0.006025
116 0.006017
120 0.007026
118 0.007935
69 0.006981
27 0.005984
26 0.005029
35 0.005001
42 0.005148
53 0.004992
57 0.003982
60 0.004985
70 0.003974
83 0.003027
88 0.002041
101 0.0
109 0.000998
114 0.0
122 0.001987
123 0.002037
100 0.001994
37 0.00299
27 0.005024
35 0.00601
46 0.00598
56 0.006025
61 0.006011
64 0.007021
67 0.007937
77 0.006971
89 0.005991
97 0.007114
109 0.005989
114 0.006977
123 0.006014
131 0.005994
136 0.003999
117 0.003986
64 0.002995
56 0.002987
65 0.000975
79 0.001995
89 0.000998
95 0.002039
97 0.0
101 0.0
111 0.0
119 0.0
131 0.001031
139 0.001984
146 0.002962
152 0.002028
160 0.001996
160 0.002993
128 0.002987
101 0.002991
92 0.003023
104 0.003023
113 0.002994
121 0.00303
124 0.005036
124 0.00503
130 0.005985
140 0.007005
146 0.00702
152 0.00697
160 0.004999
165 0.003139
170 0.003971
177 0.003
176 0.003993
137 0.003979
108 0.00398
97 0.002992
107 0.002004
114 0.002011
121 0.000991
125 0.001004
126 0.002027
130 0.001996
138 0.002995
144 0.004021
154 0.004036
159 0.005021
166 0.004029
173 0.003956
177 0.004023
170 0.005023
124 0.007035
103 0.007014
102 0.006983
108 0.007022
117 0.006993
125 0.007013
128 0.004992
128 0.004987
132 0.005001
137 0.004959
146 0.003979
156 0.003988
161 0.001983
169 0.002007
175 0.000976
178 0.000998
183 0.001025
174 0.001085
141 0.0
112 0.0
112 0.0
123 0.000998
133 0.001995
136 0.002029
135 0.002993
134 0.00403
138 0.004068
144 0.005981
153 0.005928
158 0.007015
165 0.007023
166 0.007979
191 0.007015
197 0.004995
166 0.002987
132 0.001009
108 0.001043
120 0.001209
132 0.001008
146 0.001033
147 0.001002
142 0.001047
144 0.001014
148 0.0
160 0.000998
171 0.002045
177 0.001994
186 0.002992
194 0.004022
181 0.004028
147 0.003985
122 0.004987
119 0.006031
133 0.006014
143 0.006024
151 0.006022
147 0.00602
146 0.007007
148 0.007009
152 0.007029
163 0.006876
173 0.007016
180 0.006023
182 0.005993
146 0.005988
117 0.004984
103 0.00603
108 0.005988
121 0.005085
128 0.004985
127 0.003975
122 0.005018
125 0.00204
131 0.000997
140 0.000999
150 0.0
155 0.0
152 0.000964
105 0.000997
73 0.002034
62 0.001003
69 0.000997
85 0.002002
92 0.002006
91 0.002042
90 0.002025
92 0.002043
103 0.002995
116 0.003898
125 0.004022
133 0.003993
107 0.004029
52 0.004045
29 0.00402
38 0.006025
50 0.005985
66 0.005986
71 0.005986
74 0.007979
78 0.006082
84 0.007014
96 0.004023
106 0.004063
116 0.001994
127 0.002032
95 0.001979
44 0.001997
4 0.001995
10 0.001998
27 0.000999
46 0.001021
55 0.0
57 0.000998
62 0.00097
69 0.00206
85 0.003853
96 0.003031
108 0.002993
115 0.004023
126 0.003991
131 0.005033
102 0.007017
24 0.007016
0 0.007985
0 0.006011
10 0.007992
26 0.007017
37 0.005007
37 0.004008
43 0.003979
58 0.003973
69 0.003988
85 0.004132
94 0.003989
105 0.002023
114 0.001995
124 0.000998
129 0.001046
98 0.0
38 0.001048
0 0.0
0 0.0
10 0.000967
26 0.000998
34 0.001996
32 0.002995
37 0.005021
53 0.004987
65 0.005986
84 0.00598
94 0.006016
108 0.006019
119 0.006017
126 0.005979
139 0.00698
139 0.005991
102 0.00502
6 0.00403
65 0.005021
76 0.004029
86 0.005022
94 0.003987
96 0.005029
94 0.005023
96 0.005027
105 0.004033
112 0.00499
121 0.004031
128 0.003018
132 0.001022
137 0.00196
143 0.001009
141 0.00095
102 0.000998
75 0.000999
76 0.000938
88 0.000999
98 0.0
105 0.0
105 0.001001
104 0.000998
110 0.000998
117 0.001005
125 0.001026
132 0.002992
140 0.00402
144 0.005019
149 0.006038
152 0.006018
152 0.007966
123 0.007022
91 0.007981
94 0.007028
109 0.006995
118 0.007024
125 0.006031
124 0.005036
123 0.005024
128 0.005019
133 0.005028
142 0.003998
148 0.003036
153 0.001987
157 0.003018
162 0.003032
165 0.003025
147 0.002992
119 0.00304
96 0.003027
113 0.000996
125 0.001951
138 0.002003
141 0.002993
139 0.001989
142 0.001031
147 0.0
154 0.0
164 0.000998
169 0.002023
176 0.001995
180 0.002034
174 0.001999
122 0.001995
103 0.001996
113 0.004024
131 0.006001
142 0.006952
147 0.007018
146 0.006961
145 0.007026
148 0.007025
156 0.007077
161 0.007015
168 0.006981
176 0.00503
178 0.006029
151 0.003991
117 0.004988
103 0.004028
120 0.003953
131 0.003991
144 0.002944
147 0.002051
146 0.002007
147 0.002992
151 0.002026
159 0.003025
166 0.002992
171 0.002992
176 0.003025
148 0.000989
118 0.0
106 0.0
115 0.0
129 0.0
142 0.0
143 0.0
141 0.0
149 0.000998
153 0.001995
164 0.001995
170 0.001995
179 0.002993
182 0.001995
160 0.002993
79 0.003944
65 0.006958
79 0.006999
101 0.005996
117 0.007028
120 0.005948
116 0.00702
116 0.005032
122 0.005018
137 0.005054
148 0.004023
154 0.004019
161 0.001948
153 0.004023
82 0.0
49 0.000948
61 0.0
89 0.0
106 0.001025
110 0.000998
105 0.000982
107 0.001996
113 0.002994
127 0.002967
134 0.002993
147 0.002946
155 0.003004
139 0.003991
56 0.005975
35 0.006952
52 0.007021
76 0.006969
98 0.00796
102 0.007009
99 0.005983
101 0.004136
110 0.004988
125 0.003958
134 0.005012
147 0.004045
158 0.004026
148 0.004024
57 0.003023
12 0.003017
26 0.003038
55 0.003024
69 0.002016
80 0.0
81 0.001032
84 0.0
95 0.0
114 0.0
124 0.0
137 0.0
147 0.0
155 0.001995
130 0.001995
64 0.001995
0 0.001995
14 0.003985
30 0.003951
53 0.005988
60 0.007016
58 0.005987
63 0.005955
82 0.006013
96 0.006014
116 0.006021
130 0.006026
141 0.003028
152 0.003989
161 0.003022
144 0.000998
29 0.000998
0 0.0
0 0.0
17 0.0
34 0.0
43 0.0
41 0.0
44 0.0
64 0.000989
91 0.002011
106 0.001995
125 0.001994
136 0.002955
150 0.003009
163 0.002989
173 0.003995
181 0.004982
103 0.004988
46 0.004995
37 0.005028
53 0.004988
81 0.005993
94 0.005988
96 0.006976
96 0.006988
105 0.006982
118 0.006982
141 0.007037
160 0.004991
170 0.005147
182 0.00403
188 0.005042
198 0.004021
210 0.000988
209 0.00204
131 0.000995
54 0.001
55 0.0
78 0.0
96 0.0
106 0.0
109 0.0
108 0.0
120 0.000965
141 0.003032
155 0.002995
173 0.002955
186 0.003978
196 0.004884
203 0.004991
213 0.004988
220 0.004987
223 0.004993
190 0.005001
89 0.005962
72 0.006973
80 0.007947
102 0.007013
122 0.005996
127 0.005995
129 0.006044
134 0.005023
147 0.004029
163 0.005011
182 0.002998
190 0.001995
202 0.001995
207 0.001995
216 0.002015
223 0.0
228 0.000997
202 0.002961
111 0.004995
89 0.006024
101 0.005993
120 0.00598
131 0.005982
136 0.006981
133 0.007019
135 0.005971
146 0.005017
163 0.003024
173 0.003022
186 0.002989
194 0.00403
200 0.001977
208 0.003024
215 0.002008
215 0.002988
160 0.001996
122 0.002031
116 0.001128
135 0.0
152 0.0
163 0.0
166 0.0
165 0.0
171 0.001964
185 0.002948
194 0.002996
206 0.002996
213 0.003013
221 0.002993
229 0.003942
233 0.004982
225 0.00502
160 0.004981
126 0.004986
124 0.004986
135 0.004979
151 0.005989
158 0.005983
157 0.005988
153 0.007001
155 0.007976
161 0.007978
178 0.007979
184 0.007979
199 0.007155
207 0.005003
210 0.004996
208 0.003025
155 0.000991
112 0.000997
96 0.0
112 0.0
122 0.0
134 0.0
135 0.0
133 0.0
136 0.000996
141 0.000998
155 0.000969
168 0.000995
175 0.001994
183 0.003
189 0.003989
177 0.003911
113 0.00399
87 0.003993
89 0.004987
106 0.004999
115 0.006016
121 0.005978
121 0.005976
121 0.004987
126 0.003988
137 0.001993
144 0.001997
155 0.001032
163 0.002993
166 0.002003
145 0.003072
98 0.000986
78 0.002997
89 0.002992
100 0.002999
115 0.000994
117 0.0
114 0.0
113 0.0
120 0.001005
127 0.001995
139 0.002936
145 0.003004
154 0.003989
124 0.005
84 0.005021
59 0.004996
75 0.004981
87 0.004995
102 0.004973
103 0.006024
101 0.005861
104 0.006019
110 0.006019
121 0.005981
130 0.006028
140 0.00702
136 0.00794
75 0.006982
31 0.005987
20 0.005048
41 0.00411
54 0.004989
67 0.002986
66 0.001993
67 0.0
73 0.0
89 0.0
99 0.000963
112 0.001002
117 0.002961
88 0.003002
0 0.002991
0 0.003024
0 0.002997
0 0.003985
10 0.004022
14 0.003905
13 0.005016
19 0.006032
28 0.007925
43 0.007098
57 0.006984
72 0.005977
80 0.006016
68 0.005982
0 0.00399
0 0.004005
0 0.000998
0 0.002024
0 0.001992
0 0.0
0 0.000994
0 0.0
0 0.000995
0 0.001998
0 0.002012
17 0.002001
27 0.001993
43 0.002991
60 0.002996
69 0.002988
13 0.002999
9 0.004022
2 0.004025
10 0.006036
21 0.006015
28 0.007017
29 0.007018
29 0.007944
38 0.005984
53 0.005985
63 0.006014
76 0.005163
87 0.002995
93 0.000987
103 0.0
111 0.001964
119 0.0
106 0.002055
43 0.0
23 0.0
30 0.002013
36 0.002036
47 0.003026
52 0.00399
51 0.003988
55 0.004024
69 0.004025
79 0.004026
95 0.005018
108 0.006015
115 0.007012
124 0.005983
134 0.004985
140 0.004056
151 0.002997
162 0.00299
161 0.002994
104 0.001005
58 0.001954
54 0.001991
59 0.001993
63 0.001006
71 0.001999
74 0.000984
74 0.0
83 0.0
95 0.0
107 0.0
117 0.0
128 0.0
137 0.0
146 0.0
151 0.0
161 0.000998
171 0.001996
173 0.003992
131 0.003993
79 0.004988
75 0.006982
82 0.005983
89 0.00598
95 0.005004
99 0.003026
98 0.002986
102 0.002991
115 0.00299
129 0.001009
137 0.001962
147 0.001988
153 0.001963
161 0.001978
168 0.001994
173 0.0
182 0.001035
184 0.0
147 0.0
100 0.000986
89 0.001017
97 0.000997
107 0.000989
112 0.002006
115 0.002992
115 0.003
120 0.003022
134 0.002994
143 0.002846
155 0.004032
162 0.004037
168 0.005021
173 0.006032
180 0.006015
184 0.005986
173 0.007014
131 0.006992
108 0.007946
108 0.003982
115 0.005982
126 0.004981
131 0.003998
131 0.003973
132 0.00401
142 0.003991
149 0.003998
161 0.004023
167 0.002996
174 0.001995
179 0.003026
183 0.002027
188 0.000999
190 0.001093
172 0.000997
117 0.001969
106 0.000996
113 0.00199
121 0.002
128 0.001995
132 0.001965
131 0.00303
133 0.003033
141 0.004988
152 0.00598
158 0.007018
166 0.006941
170 0.005973
174 0.004988
179 0.004983
184 0.00499
179 0.004974
134 0.004997
105 0.004987
106 0.004026
115 0.00502
123 0.002991
130 0.004953
132 0.005028
131 0.004986
137 0.004986
143 0.005012
153 0.003034
162 0.003028
167 0.002999
172 0.001002
177 0.001152
180 0.0
183 0.000976
173 0.002006
126 0.001987
99 0.000997
109 0.0
124 0.000998
141 0.0
144 0.001998
141 0.003993
143 0.003031
152 0.005019
165 0.005029
179 0.006018
186 0.005033
195 0.007978
203 0.004978
207 0.006027
197 0.00503
130 0.002991
103 0.00303
108 0.000937
132 0.0
146 0.000972
155 0.001005
156 0.0
155 0.0
161 0.000998
169 0.001007
181 0.001011
189 0.002992
193 0.002995
201 0.002995
206 0.004035
186 0.005027
136 0.007016
105 0.006981
108 0.006982
121 0.005983
135 0.005025
139 0.006932
137 0.004987
135 0.006013
142 0.00299
154 0.001953
162 0.002988
172 0.002991
182 0.003031
187 0.002946
172 0.002999
135 0.002085
86 0.001995
90 0.00315
106 0.002039
122 0.002024
132 0.002052
132 0.002994
131 0.001997
136 0.002993
146 0.00399
157 0.004023
169 0.006015
174 0.00598
183 0.005951
180 0.006026
125 0.006923
85 0.005983
81 0.007939
99 0.007024
118 0.005984
125 0.006026
124 0.005019
124 0.007014
131 0.004984
141 0.006981
152 0.004991
161 0.006027
172 0.006019
178 0.006029
162 0.005073
96 0.002993
75 0.00399
82 0.0
98 0.0
108 0.0
116 0.0
115 0.001041
115 0.001987
123 0.004049
136 0.005029
144 0.005022
155 0.005025
161 0.005033
162 0.004973
107 0.005022
73 0.004994
67 0.006022
81 0.007015
92 0.00698
104 0.007064
105 0.004926
104 0.005963
108 0.002943
120 0.002008
128 0.001995
139 0.001045
145 0.003045
152 0.002048
118 0.001006
75 0.000996
48 0.0
61 0.0
74 0.0
93 0.000998
97 0.002995
96 0.004034
101 0.003958
110 0.003949
126 0.004988
140 0.003989
147 0.005035
153 0.004986
120 0.006017
71 0.005981
61 0.006001
75 0.005981
94 0.005983
109 0.005981
111 0.005997
109 0.005981
113 0.005977
123 0.007015
138 0.005991
147 0.007028
159 0.00602
157 0.006014
126 0.006014
70 0.004191
73 0.003968
87 0.004003
110 0.00399
117 0.003958
116 0.002977
117 0.003054
122 0.001997
132 0.001995
143 0.000997
152 0.000998
164 0.0
161 0.0
130 0.0
67 0.0
62 0.0
83 0.0
107 0.0
114 0.0
112 0.0
112 0.002964
118 0.002945
132 0.002992
141 0.002993
154 0.002961
165 0.002993
159 0.002992
98 0.002994
72 0.002983
78 0.002958
98 0.005029
117 0.006016
125 0.007974
123 0.007021
125 0.004993
131 0.004988
145 0.00296
157 0.000966
165 0.0
175 0.0
167 0.000966
94 0.0
56 0.000997
66 0.002998
81 0.004008
101 0.005965
106 0.006979
104 0.006975
105 0.005971
114 0.007971
127 0.005953
140 0.006982
151 0.005947
161 0.006016
166 0.004994
139 0.005037
60 0.004026
51 0.001987
65 0.004023
88 0.001992
98 0.002944
102 0.0
102 0.0
105 0.0
119 0.0
137 0.0
147 0.0
160 0.0
171 0.0
178 0.0
154 0.0
103 0.0
52 0.001008
64 0.002993
76 0.003028
95 0.002946
102 0.004038
101 0.005022
104 0.005028
118 0.005989
128 0.006977
146 0.007025
155 0.00698
168 0.006984
175 0.006014
181 0.005984
184 0.005951
123 0.003993
79 0.00399
70 0.00197
88 0.003025
106 0.001004
118 0.001995
120 0.002029
118 0.002029
125 0.002027
134 0.001044
150 0.001039
163 0.0
170 0.0
178 0.0
186 0.001995
191 0.001995
173 0.003994
102 0.003951
83 0.004986
96 0.005021
110 0.005019
131 0.00498
135 0.005018
133 0.005017
134 0.005952
147 0.005994
156 0.005991
170 0.005818
178 0.006979
187 0.006981
194 0.007007
198 0.003972
169 0.00602
109 0.007017
101 0.005985
117 0.006006
140 0.003
149 0.003127
152 0.003001
149 0.0
151 0.001003
161 0.000963
175 0.000998
182 0.000998
193 0.000965
198 0.001992
205 0.002812
176 0.004031
132 0.004023
94 0.003985
106 0.005042
120 0.006004
138 0.006981
143 0.006985
140 0.006978
141 0.006985
147 0.006986
157 0.006979
168 0.006979
175 0.006982
184 0.006985
193 0.004991
194 0.007025
148 0.004988
105 0.006029
84 0.003988
101 0.003988
113 0.004002
129 0.004021
133 0.003028
131 0.002013
135 0.002029
142 0.002001
153 0.002993
166 0.002029
172 0.002028
181 0.0
187 0.000962
172 0.001963
119 0.003039
78 0.003991
81 0.003987
100 0.004989
118 0.005994
124 0.006013
123 0.005999
125 0.006015
127 0.006978
139 0.004003
152 0.003988
159 0.003988
168 0.001994
174 0.003192
171 0.001997
131 0.003024
81 0.001976
70 0.002992
88 0.002989
102 0.002992
115 0.003029
115 0.002992
108 0.001998
111 0.0
118 0.000998
129 0.001003
141 0.001008
148 0.000998
158 0.002992
145 0.003014
112 0.003994
74 0.003989
84 0.005989
97 0.005987
115 0.005977
118 0.005987
113 0.005883
113 0.005972
119 0.005985
131 0.006997
141 0.007015
149 0.007006
156 0.006965
142 0.006986
90 0.007013
55 0.00702
60 0.007015
79 0.007013
91 0.007015
99 0.007013
95 0.005991
94 0.006029
101 0.004991
114 0.004988
122 0.005005
133 0.004983
139 0.004986
121 0.005019
45 0.00199
21 0.002006
29 0.002026
44 0.003992
58 0.001995
63 0.001023
61 0.001033
63 0.0
77 0.001
91 0.002031
100 0.001996
114 0.001991
122 0.001963
124 0.00199
57 0.002954
15 0.004025
5 0.002953
22 0.004025
33 0.00503
45 0.00597
44 0.006976
45 0.006985
55 0.007012
66 0.007012
86 0.005953
100 0.007982
111 0.004986
122 0.00502
134 0.003988
135 0.003993
70 0.003985
11 0.00201
14 0.000972
34 0.0
52 0.0
55 0.0
50 0.000997
49 0.0
61 0.0
81 0.001986
93 0.001988
109 0.002997
121 0.005022
128 0.006014
140 0.007011
142 0.006989
96 0.005019
37 0.003107
27 0.002024
48 0.001995
62 0.001971
75 0.00199
75 0.002002
73 0.0
82 0.0
97 0.000997
114 0.003941
131 0.002992
139 0.004023
149 0.003968
159 0.005986
166 0.007006
169 0.006987
102 0.007136
49 0.006019
31 0.00498
50 0.003992
61 0.003988
71 0.002021
71 0.003991
72 0.001986
81 0.002975
98 0.002004
116 0.00299
136 0.002992
146 0.003033
157 0.002989
168 0.0
176 0.002028
186 0.0
176 0.001959
125 0.001
50 0.00203
47 0.002036
65 0.001992
81 0.002899
89 0.004021
91 0.004956
93 0.006979
102 0.006984
117 0.00399
135 0.005984
151 0.003991
163 0.004001
175 0.002992
180 0.003039
192 0.002992
202 0.000953
191 0.002
106 0.0
66 0.0
73 0.0
94 0.0
105 0.0
113 0.0
107 0.000946
107 0.0
119 0.0
138 0.001983
148 0.001992
164 0.002042
171 0.002992
181 0.003017
191 0.002994
198 0.002993
190 0.002991
132 0.003992
92 0.004982
97 0.007035
117 0.007931
132 0.007978
145 0.006137
142 0.004026
140 0.005984
148 0.003984
158 0.006033
175 0.004022
188 0.003975
195 0.003945
204 0.003987
209 0.003992
215 0.003993
181 0.002995
130 0.003994
92 0.004026
106 0.003031
126 0.000993
142 0.002991
150 0.002006
149 0.002998
147 0.001971
153 0.00198
167 0.002031
182 0.000996
189 0.001993
199 0.001979
204 0.002145
213 0.001001
188 0.0
141 0.0
94 0.0
98 0.0
111 0.0
131 0.0
139 0.0
140 0.000965
138 0.003011
142 0.002034
156 0.002995
170 0.006017
177 0.006988
185 0.00702
194 0.006952
198 0.006947
184 0.006983
142 0.007012
89 0.006981
86 0.005019
100 0.007017
122 0.005021
134 0.00496
133 0.004976
128 0.004046
131 0.003978
144 0.002989
160 0.003001
168 0.002988
179 0.002989
186 0.003983
191 0.002975
168 0.003993
111 0.00195
85 0.004025
100 0.002994
115 0.003027
137 0.002993
143 0.000992
140 0.003027
139 0.002013
145 0.002058
159 0.0
173 0.00094
180 0.0
190 0.0
196 0.0
187 0.0
116 0.000998
80 0.000993
77 0.000998
99 0.001959
112 0.003028
126 0.003035
123 0.002024
122 0.004
130 0.005067
140 0.006016
149 0.005938
160 0.006982
170 0.004977
176 0.005009
167 0.003989
94 0.002014
62 0.004027
64 0.0
86 0.001001
99 0.000996
111 0.0
111 0.000949
109 0.000954
115 0.000997
127 0.000988
138 0.000968
151 0.001955
156 0.003948
164 0.003952
130 0.003989
82 0.003959
43 0.004987
50 0.002979
72 0.003989
87 0.004963
94 0.006978
93 0.005984
93 0.007976
98 0.006962
113 0.006982
129 0.004985
137 0.007014
149 0.004988
155 0.003948
134 0.001994
67 0.001994
51 0.00202
64 0.001952
83 0.00199
96 0.000995
98 0.001971
92 0.002992
93 0.002994
105 0.001995
114 0.0
128 0.0
138 0.000997
146 0.001995
147 0.00399
97 0.004035
61 0.004987
56 0.005975
81 0.006982
97 0.006981
109 0.005965
110 0.006976
109 0.005987
116 0.00602
130 0.004036
139 0.003985
150 0.003988
159 0.004028
164 0.000993
142 0.002965
83 0.001994
54 0.002992
69 0.00399
82 0.002023
102 0.0
107 0.0
104 0.000997
105 0.001968
116 0.002999
125 0.003991
140 0.004989
149 0.006973
158 0.007977
163 0.00602
119 0.003984
70 0.003971
43 0.003982
62 0.002992
75 0.003
91 0.003988
94 0.003022
92 0.004028
96 0.004993
108 0.001998
122 0.005021
134 0.002993
145 0.004129
157 0.004057
162 0.003989
146 0.00303
71 0.000948
48 0.0
56 0.000998
79 0.002045
92 0.001996
103 0.002043
103 0.003991
104 0.004988
116 0.003969
126 0.004036
143 0.005982
152 0.005978
162 0.00797
167 0.004998
172 0.007022
150 0.004972
91 0.006998
62 0.007027
71 0.005984
94 0.006017
110 0.003987
110 0.006004
103 0.003974
104 0.004986
117 0.000963
132 0.00198
141 0.001995
150 0.0
160 0.0
166 0.0
144 0.000998
77 0.00203
65 0.001999
83 0.003973
110 0.00399
121 0.004987
124 0.003994
120 0.007014
123 0.006942
136 0.007015
148 0.006952
159 0.006977
168 0.00698
175 0.007009
181 0.006974
141 0.004996
92 0.007011
64 0.004976
74 0.007015
97 0.003976
115 0.003983
118 0.004024
114 0.003009
119 0.002025
127 0.001992
144 0.002037
152 0.003975
165 0.002012
173 0.002032
175 0.0
138 0.002028
66 0.00205
58 0.000997
78 0.0
102 0.000953
111 0.000997
114 0.003043
111 0.00399
113 0.004028
126 0.003982
136 0.003977
151 0.004049
164 0.005976
170 0.005971
176 0.006987
132 0.005022
81 0.005944
52 0.005985
73 0.004983
88 0.003988
108 0.004032
112 0.005023
109 0.002985
112 0.005048
122 0.002029
136 0.004023
151 0.002992
159 0.003026
170 0.002048
177 0.0
160 0.0
97 0.001996
56 0.001996
64 0.003013
91 0.003961
112 0.003963
114 0.004953
105 0.00599
105 0.006975
114 0.005974
131 0.004957
145 0.007027
156 0.005032
166 0.005985
171 0.00399
141 0.004029
78 0.003986
71 0.004023
94 0.004002
122 0.002013
133 0.002041
134 0.000963
131 0.0
134 0.001007
146 0.002993
161 0.005985
170 0.005984
176 0.004952
178 0.004989
150 0.003989
70 0.002982
61 0.001994
81 0.001995
102 0.001994
115 0.001995
113 0.002011
110 0.000994
116 0.003051
127 0.00499
139 0.005995
151 0.006021
163 0.006821
166 0.007978
130 0.006015
49 0.003982
37 0.00601
56 0.002964
70 0.00503
89 0.001954
92 0.002001
90 0.001972
94 0.0
109 0.0
124 0.0
138 0.002043
151 0.003976
158 0.00399
157 0.004033
80 0.004005
37 0.005969
35 0.00698
50 0.007983
69 0.005963
83 0.007932
85 0.007013
82 0.007033
88 0.007167
107 0.003014
119 0.005017
137 0.003022
146 0.005019
158 0.002995
163 0.002996
133 0.002993
52 0.00298
41 0.003003
64 0.002992
88 0.003992
104 0.002002
104 0.002053
98 0.002041
101 0.002038
119 0.0
133 0.0
148 0.0
159 0.0
170 0.0
179 0.0
159 0.0
114 0.0
75 0.000959
83 0.0
111 0.001014
134 0.000997
137 0.000997
131 0.000997
135 0.002026
144 0.002993
160 0.004004
173 0.003991
181 0.004035
192 0.004041
194 0.00402
157 0.003938
111 0.004002
102 0.003965
121 0.004987
141 0.004987
155 0.006016
156 0.007011
151 0.007017
151 0.007975
159 0.003985
166 0.006975
179 0.005949
190 0.002979
192 0.001971
152 0.00103
97 0.0
94 0.0
112 0.0
131 0.001993
140 0.000991
142 0.00095
140 0.003047
143 0.004027
156 0.004985
166 0.007011
173 0.005987
182 0.007972
144 0.007976
113 0.007993
70 0.007982
77 0.007964
100 0.007987
122 0.005981
127 0.007973
126 0.005942
128 0.007979
137 0.003996
152 0.002001
167 0.002992
176 0.001963
169 0.0
127 0.0
64 0.0
66 0.002038
86 0.0
105 0.002042
118 0.002041
119 0.002043
118 0.001995
122 0.00299
133 0.0
149 0.0
157 0.0
170 0.0
176 0.0
151 0.000997
75 0.001955
59 0.001945
79 0.002992
104 0.003949
116 0.003938
121 0.003881
119 0.005003
123 0.005002
136 0.005018
146 0.004997
160 0.004888
169 0.005018
177 0.004987
184 0.005035
175 0.005018
118 0.005027
67 0.006014
74 0.007976
94 0.007022
117 0.004988
125 0.006063
124 0.003987
122 0.004031
128 0.003987
142 0.001995
157 0.0
165 0.0
176 0.0
180 0.0
188 0.0
174 0.002011
132 0.0
80 0.0
97 0.000999
113 0.002004
136 0.002948
143 0.004035
139 0.005016
137 0.006022
145 0.006019
152 0.005024
166 0.006027
174 0.006017
182 0.007979
189 0.005968
191 0.005985
166 0.004974
93 0.00499
83 0.003994
104 0.002011
129 0.001997
138 0.001996
141 0.002003
136 0.00199
135 0.002002
143 0.003983
154 0.002032
163 0.003993
172 0.002992
177 0.002027
185 0.000995
173 0.001001
117 0.000998
81 0.000964
100 0.002994
116 0.002914
138 0.002968
145 0.004055
141 0.005031
136 0.005027
140 0.005023
151 0.00501
162 0.006981
167 0.006144
176 0.005958
182 0.007964
171 0.004988
127 0.005988
106 0.005028
117 0.003989
142 0.002992
159 0.0
160 0.002028
152 0.001022
149 0.000997
154 0.0
162 0.0
166 0.0
173 0.0
177 0.0
160 0.0
97 0.0
89 0.001021
110 0.001995
134 0.002996
142 0.002974
140 0.002964
130 0.003997
130 0.002992
140 0.00603
150 0.006027
159 0.005979
166 0.007003
159 0.006964
74 0.006939
52 0.006939
70 0.006981
94 0.007589
113 0.005985
113 0.006975
98 0.005985
98 0.001995
105 0.001995
119 0.0
131 0.0
137 0.0
122 0.0
62 0.000956
12 0.0
34 0.001982
60 0.000783
76 0.002042
82 0.0
73 0.0
66 0.000968
72 0.000969
90 0.000997
102 0.000997
113 0.001029
121 0.001023
126 0.001009
77 0.000968
0 0.001015
9 0.001984
45 0.002952
69 0.003988
75 0.003946
70 0.00698
61 0.005982
66 0.005963
85 0.005978
103 0.00599
110 0.005974
119 0.00598
127 0.004986
132 0.003968
98 0.003989
36 0.003033
17 0.003
53 0.002003
70 0.003046
86 0.001031
79 0.0
72 0.0
76 0.0
94 0.0
106 0.0
121 0.0
127 0.0
134 0.0
140 0.000998
144 0.001963
154 0.001962
105 0.002994
36 0.002993
21 0.002994
43 0.002992
69 0.003022
81 0.003031
80 0.002991
72 0.00494
77 0.006041
88 0.007017
108 0.006994
121 0.005996
128 0.006017
136 0.003994
140 0.005951
147 0.00399
158 0.001998
163 0.001993
94 0.001992
20 0.0
33 0.0
67 0.0
83 0.00203
90 0.0
84 0.002054
79 0.0
87 0.002
108 0.001021
120 0.0
135 0.000999
141 0.001019
147 0.000996
152 0.002993
162 0.002992
167 0.004037
114 0.004994
52 0.003981
47 0.005008
83 0.005018
98 0.004927
112 0.003969
104 0.005018
99 0.005018
110 0.006026
122 0.006027
143 0.00599
157 0.006018
163 0.005952
172 0.005953
176 0.006951
185 0.006839
184 0.006981
121 0.004976
52 0.005972
72 0.004989
94 0.006981
121 0.004975
133 0.002984
129 0.002008
121 0.001986
135 0.000998
147 0.000934
168 0.000995
177 0.0
190 0.0
197 0.0
203 0.0
172 0.0
79 0.000947
75 0.000997
110 0.001996
136 0.00301
152 0.003007
153 0.00502
141 0.005984
142 0.007021
158 0.007013
173 0.003994
184 0.006982
198 0.004998
204 0.005983
214 0.00399
215 0.001998
177 0.001992
83 0.001996
95 0.0
118 0.000998
149 0.0
162 0.002001
157 0.000945
147 0.002048
151 0.0
164 0.001994
184 0.003014
194 0.0
208 0.000964
215 0.0
224 0.0
228 0.001995
177 0.003003
120 0.003038
100 0.003039
119 0.005025
151 0.004988
171 0.00502
172 0.006026
163 0.006033
163 0.007032
173 0.006966
187 0.004957
202 0.004987
210 0.003983
220 0.00398
225 0.003991
225 0.003945
184 0.005984
128 0.003982
119 0.006015
144 0.005021
161 0.005022
177 0.003016
176 0.001982
172 0.001996
173 0.0
179 0.001992
191 0.001004
202 0.001008
208 0.001007
217 0.00198
219 0.000998
194 0.002031
121 0.001004
107 0.00196
124 0.001029
150 0.003024
161 0.003991
165 0.005985
161 0.007982
158 0.00502
164 0.007979
176 0.007976
184 0.006964
195 0.007015
204 0.004979
205 0.006981
159 0.00303
117 0.005981
101 0.004978
124 0.003032
139 0.003145
155 0.002034
152 0.001991
148 0.002001
150 0.002026
156 0.001993
168 0.002011
176 0.00399
184 0.0
188 0.003989
148 0.002026
104 0.003018
83 0.003025
93 0.002025
118 0.0
133 0.0
134 0.0
127 0.003035
126 0.002997
131 0.003028
144 0.002997
156 0.003023
163 0.003023
161 0.002992
129 0.002994
66 0.003984
68 0.004944
83 0.004946
107 0.00399
114 0.006001
112 0.00602
106 0.006973
108 0.006013
120 0.005986
134 0.007017
141 0.006979
150 0.007018
131 0.007015
84 0.007017
36 0.005019
55 0.001996
73 0.003037
95 0.001962
94 0.000951
89 0.001971
91 0.0
99 0.0
113 0.000961
127 0.001034
134 0.0
127 0.000997
74 0.0
42 0.000998
46 0.001919
61 0.00203
86 0.003023
90 0.004001
82 0.00396
79 0.006026
89 0.005952
99 0.00602
112 0.006969
123 0.00597
128 0.008012
89 0.00498
20 0.00497
18 0.004989
45 0.004982
63 0.00403
74 0.004966
63 0.003971
60 0.004022
71 0.003943
81 0.003982
96 0.003975
107 0.004987
116 0.003035
105 0.006004
9 0.005048
0 0.005015
0 0.005003
8 0.005014
29 0.004025
30 0.0
24 0.003
28 0.002005
48 0.0
61 0.0
78 0.000962
85 0.0
96 0.0
102 0.00198
84 0.001028
0 0.001038
0 0.000999
0 0.000991
2 0.001
16 0.002991
17 0.002966
15 0.002992
23 0.003042
47 0.003983
65 0.005018
79 0.005024
90 0.004993
99 0.007019
103 0.007963
113 0.007946
123 0.005982
133 0.007977
115 0.003985
0 0.003027
47 0.004968
60 0.003974
65 0.002998
74 0.0
79 0.000997
78 0.000996
81 0.001997
92 0.003977
104 0.003957
110 0.003988
117 0.005951
121 0.005986
125 0.005979
128 0.007976
133 0.007016
137 0.006002
145 0.00602
131 0.002042
91 0.002031
64 0.000939
77 0.0
83 0.001959
92 0.001995
96 0.002849
95 0.002986
99 0.003006
106 0.003007
120 0.002992
132 0.003025
136 0.002993
144 0.002951
147 0.002992
152 0.003949
158 0.005037
165 0.004981
168 0.004991
133 0.00497
108 0.004992
104 0.006017
112 0.00502
117 0.005946
126 0.003972
130 0.003943
130 0.003984
135 0.003939
140 0.00399
151 0.003984
158 0.003968
161 0.003939
165 0.001994
168 0.004046
170 0.002959
174 0.003034
180 0.003024
179 0.001006
144 0.003027
113 0.003955
111 0.005002
118 0.006024
126 0.006988
130 0.006985
131 0.006976
131 0.005952
134 0.007016
141 0.004009
149 0.002962
153 0.002034
158 0.002
161 0.002036
165 0.002018
171 0.002017
175 0.002001
179 0.002961
163 0.002041
126 0.000967
112 0.00203
117 0.000964
125 0.002
134 0.002045
137 0.002043
137 0.003026
139 0.000998
145 0.002011
152 0.002026
160 0.00498
164 0.005953
167 0.005943
171 0.005978
172 0.00597
176 0.006956
166 0.00594
143 0.003999
119 0.003945
121 0.003979
132 0.003005
141 0.002024
143 0.002988
142 0.0
153 0.002032
158 0.0
172 0.0
186 0.0
193 0.001029
201 0.001994
205 0.001962
210 0.004001
193 0.00402
127 0.004
109 0.004997
121 0.005
133 0.004794
151 0.004993
154 0.004984
151 0.005985
149 0.00595
157 0.006931
165 0.005952
178 0.005984
188 0.006982
196 0.003995
202 0.006038
194 0.00298
147 0.002993
110 0.002031
125 0.0
138 0.002003
153 0.000998
160 0.002952
158 0.003004
157 0.004986
165 0.005985
172 0.007015
180 0.005963
190 0.003979
195 0.004025
202 0.002985
180 0.001992
138 0.0
100 0.0
109 0.002029
122 0.001986
140 0.001996
147 0.002997
145 0.002996
144 0.003004
151 0.004024
159 0.00498
169 0.004987
177 0.004978
184 0.005985
191 0.007953
182 0.007977
120 0.007976
90 0.003997
93 0.005986
113 0.004015
130 0.003985
136 0.003022
136 0.003993
136 0.003157
141 0.002992
152 0.001994
158 0.001997
167 0.001969
173 0.002989
180 0.001996
176 0.002009
115 0.002027
84 0.002029
85 0.001996
101 0.002027
115 0.001959
124 0.002007
124 0.004038
123 0.00399
129 0.003987
136 0.005982
149 0.006015
160 0.005942
165 0.006974
172 0.005926
175 0.005009
154 0.004993
88 0.005951
75 0.006027
88 0.002015
105 0.004013
119 0.003024
121 0.002029
117 0.002011
120 0.0
129 0.0
139 0.001995
151 0.002038
157 0.00196
166 0.00199
170 0.001961
163 0.001991
107 0.002006
85 0.00195
91 0.003949
104 0.003996
125 0.004028
130 0.004004
126 0.003987
124 0.00395
132 0.005003
139 0.004999
151 0.005973
159 0.006976
165 0.006001
170 0.006987
155 0.005984
98 0.007011
85 0.006921
93 0.00699
115 0.005016
132 0.002
134 0.001961
129 0.0
130 0.00101
133 0.0
143 0.0
154 0.0
159 0.0
166 0.0
156 0.0
90 0.000965
59 0.000951
68 0.000953
91 0.002028
109 0.003011
112 0.003984
110 0.004019
112 0.00602
120 0.00602
131 0.005973
141 0.005984
151 0.006014
157 0.007977
140 0.00799
82 0.006989
48 0.002994
64 0.0
77 0.0
94 0.0
98 0.0
96 0.000959
98 0.000997
103 0.001996
116 0.000997
129 0.000999
136 0.001958
146 0.001963
111 0.003035
64 0.003955
30 0.00402
38 0.003991
57 0.005019
77 0.006013
83 0.004988
83 0.004983
85 0.005989
94 0.006984
107 0.004993
122 0.003002
130 0.002997
142 0.002992
144 0.003202
112 0.002979
41 0.003002
33 0.002995
51 0.003003
69 0.003986
83 0.002993
87 0.00301
85 0.002986
89 0.002995
103 0.002015
113 0.002037
128 0.001986
139 0.0
145 0.00196
152 0.0
133 0.003013
63 0.0
49 0.0
61 0.0
80 0.000969
96 0.0
96 0.001984
89 0.001965
90 0.002018
101 0.001999
117 0.002012
126 0.001961
139 0.002993
147 0.003986
153 0.003989
142 0.00399
89 0.004019
59 0.005902
69 0.004978
90 0.005981
109 0.006977
117 0.006975
113 0.006981
108 0.006981
117 0.004021
125 0.004987
140 0.001994
152 0.001991
158 0.002014
168 0.0
159 0.001975
119 0.0
61 0.0
64 0.001006
78 0.001979
104 0.003007
115 0.002983
115 0.003989
112 0.004986
115 0.004982
126 0.005024
137 0.006016
147 0.00598
158 0.006016
169 0.006018
171 0.00602
138 0.00698
70 0.004986
61 0.005982
81 0.001994
105 0.001991
115 0.001994
120 0.002983
119 0.002026
123 0.0
133 0.003038
146 0.001996
155 0.002992
167 0.001962
175 0.001987
185 0.001999
180 0.001998
120 0.0
85 0.001
89 0.002036
107 0.003002
127 0.003037
134 0.003014
131 0.003039
129 0.003014
133 0.005019
144 0.005972
158 0.005989
165 0.005985
177 0.003985
186 0.001998
174 0.001995
115 0.001993
92 0.003988
99 0.001994
116 0.004023
132 0.001995
138 0.002989
134 0.001997
133 0.001985
140 0.000999
149 0.000999
159 0.001008
167 0.001039
177 0.000998
181 0.00087
150 0.003047
81 0.004997
68 0.006026
84 0.005981
98 0.006035
115 0.00598
123 0.005981
122 0.004962
122 0.00399
131 0.003005
140 0.002995
153 0.002993
163 0.004001
172 0.001995
172 0.002983
115 0.002988
72 0.002994
60 0.001001
76 0.001996
94 0.002946
106 0.002995
110 0.002027
109 0.003024
114 0.002966
122 0.002954
137 0.003037
151 0.004003
158 0.004996
169 0.005997
153 0.005995
109 0.00599
59 0.006021
62 0.005985
85 0.006952
104 0.005979
112 0.005963
114 0.007959
112 0.007979
116 0.007978
125 0.007016
139 0.00299
147 0.004979
158 0.001997
166 0.0
162 0.0
107 0.001017
68 0.00091
74 0.000997
99 0.000997
114 0.000998
126 0.003029
123 0.00301
123 0.003955
130 0.006009
144 0.006002
151 0.005988
163 0.006002
172 0.00602
173 0.00599
132 0.006023
81 0.005982
70 0.007967
87 0.007958
102 0.007019
122 0.006047
125 0.001993
123 0.005025
125 0.002025
136 0.002989
144 0.002949
156 0.002134
166 0.0
169 0.001009
127 0.000983
84 0.000971
62 0.0
77 0.0
92 0.0
111 0.0
115 0.001887
112 0.001996
115 0.004054
125 0.006017
135 0.006002
146 0.006982
155 0.007974
157 0.007978
118 0.007979
59 0.003997
54 0.006021
74 0.002993
97 0.002
106 0.001999
106 0.002009
105 0.000942
107 0.0
120 0.001988
134 0.003044
143 0.003958
149 0.006025
99 0.005984
64 0.006024
56 0.005985
68 0.005982
92 0.006855
105 0.006017
105 0.006982
101 0.006018
105 0.005988
112 0.006016
127 0.003003
141 0.002977
147 0.001985
109 0.003941
69 0.001994
51 0.003008
72 0.001988
88 0.002039
106 0.003014
106 0.0
101 0.002991
105 0.002967
116 0.000969
127 0.002994
141 0.002042
148 0.001989
131 0.0
75 0.001005
49 0.001049
61 0.001997
89 0.002964
101 0.00296
102 0.003955
95 0.003991
94 0.004988
107 0.006006
115 0.005983
130 0.005981
140 0.005965
143 0.006024
98 0.005025
41 0.003008
42 0.003988
71 0.003006
94 0.005935
103 0.002992
97 0.004042
94 0.003956
101 0.00295
117 0.002042
126 0.002036
141 0.00203
151 0.0
141 0.0
79 0.003992
29 0.004896
38 0.004032
68 0.004034
90 0.005001
92 0.006983
87 0.006978
87 0.006038
96 0.006021
114 0.006979
125 0.006011
140 0.006964
153 0.006016
146 0.006024
62 0.005963
20 0.006976
33 0.005988
60 0.007987
74 0.005985
83 0.006015
79 0.006014
79 0.004988
93 0.004052
113 0.001985
125 0.004023
142 0.0
156 0.000946
163 0.000943
120 0.000993
60 0.0
26 0.001983
52 0.0
67 0.0
84 0.001038
89 0.000997
87 0.002029
92 0.000998
102 0.001996
123 0.002021
139 0.002992
151 0.004027
162 0.006017
170 0.007969
181 0.004973
179 0.005985
97 0.002996
42 0.000999
53 0.0
82 0.0
102 0.000985
104 0.001033
98 0.0
98 0.000998
106 0.001998
124 0.004956
141 0.004981
151 0.00497
163 0.004947
168 0.004959
176 0.005958
184 0.007979
162 0.004023
94 0.005975
64 0.004976
79 0.005024
110 0.006016
131 0.002008
131 0.00515
124 0.003008
130 0.0
141 0.002003
160 0.000957
170 0.000999
183 0.001993
191 0.0
196 0.0
203 0.0
183 0.0
128 0.0
62 0.0
67 0.0
95 0.0
119 0.001009
125 0.00203
121 0.00299
120 0.004985
128 0.005985
143 0.005593
159 0.006023
168 0.005833
180 0.005978
186 0.00599
192 0.007979
192 0.004985
156 0.007022
69 0.004994
64 0.003991
82 0.003985
108 0.003959
123 0.001988
124 0.003007
119 0.00195
124 0.003045
137 0.0
152 0.002994
166 0.000999
177 0.0
189 0.0
200 0.0
203 0.000959
140 0.001996
92 0.001995
80 0.001996
109 0.004003
126 0.004005
143 0.006013
141 0.005979
138 0.006029
141 0.004986
157 0.005021
167 0.004001
181 0.003962
190 0.004052
198 0.003003
206 0.004024
187 0.003
129 0.00402
98 0.003991
108 0.00402
135 0.003991
151 0.005023
160 0.004032
153 0.001998
152 0.004023
161 0.002991
175 0.003004
182 0.001992
194 0.000962
200 0.0
206 0.0
164 0.0
113 0.000962
83 0.001008
99 0.000997
115 0.000997
138 0.002024
143 0.001995
139 0.003992
138 0.005984
146 0.005942
157 0.005988
168 0.005944
179 0.005822
188 0.005982
187 0.006981
153 0.006988
74 0.006975
63 0.005975
76 0.007015
101 0.00399
119 0.002994
121 0.003005
116 0.002031
120 0.002977
127 0.0
143 0.000999
153 0.0
165 0.0
175 0.001995
174 0.00195
106 0.001965
46 0.003936
49 0.003991
77 0.004971
98 0.005987
111 0.005832
111 0.006001
108 0.006986
111 0.007983
123 0.007013
139 0.003989
148 0.006016
160 0.003997
167 0.005985
168 0.004016
99 0.001992
59 0.002996
56 0.002995
79 0.005032
101 0.002981
113 0.003047
110 0.002027
107 0.0
115 0.000969
128 0.002961
141 0.00296
152 0.003005
165 0.003816
172 0.004987
156 0.004986
93 0.006978
58 0.007978
67 0.005968
90 0.007982
111 0.004
120 0.003991
115 0.003991
112 0.003014
123 0.0
136 0.001958
145 0.002993
158 0.004992
171 0.004986
175 0.005984
128 0.005982
60 0.007013
43 0.004957
64 0.007025
87 0.007879
106 0.007977
110 0.006945
107 0.007938
107 0.006036
120 0.002029
130 0.00402
147 0.0
160 0.0
167 0.0
173 0.0
129 0.000961
74 0.001019
39 0.000997
61 0.001998
77 0.002988
96 0.003954
98 0.004005
96 0.003985
100 0.003986
108 0.004942
126 0.005941
139 0.005984
150 0.006014
157 0.007036
169 0.007975
170 0.007013
107 0.006988
43 0.005171
45 0.006951
71 0.003981
87 0.007015
104 0.003992
105 0.003992
104 0.00399
110 0.002987
125 0.001994
134 0.002991
145 0.001995
157 0.0
161 0.0
169 0.001996
166 0.002017
124 0.002033
77 0.002008
72 0.001988
87 0.00201
110 0.001964
120 0.002961
123 0.002999
121 0.004011
124 0.003997
135 0.003984
142 0.003946
153 0.005982
161 0.005979
165 0.005947
169 0.005987
129 0.005993
88 0.00698
67 0.005971
75 0.005988
105 0.006971
117 0.00798
124 0.004985
122 0.007013
123 0.006983
129 0.006982
140 0.005913
152 0.001999
158 0.004019
168 0.002965
176 0.001993
161 0.0
92 0.001026
66 0.0
75 0.001001
98 0.0
110 0.0
117 0.0
115 0.0
115 0.0
123 0.000992
134 0.0
145 0.001995
158 0.002001
165 0.002041
175 0.003004
161 0.004989
103 0.004996
65 0.005987
73 0.006982
86 0.007944
103 0.005983
116 0.002997
116 0.006014
115 0.002963
119 0.004974
130 0.003008
144 0.002993
151 0.002991
162 0.0
171 0.002035
161 0.0
89 0.0
58 0.003025
67 0.0
85 0.002993
98 0.0
111 0.000962
108 0.000883
107 0.000999
116 0.000999
128 0.000998
140 0.002002
152 0.001011
161 0.001994
165 0.00396
117 0.002996
79 0.002985
68 0.002994
88 0.00499
103 0.004979
118 0.006965
116 0.006983
114 0.00698
118 0.005965
126 0.004983
140 0.003962
150 0.006976
159 0.003988
163 0.005986
114 0.004977
66 0.003989
44 0.002991
65 0.002987
78 0.002956
94 0.0
96 0.003012
93 0.0
100 0.0
109 0.0
125 0.0
139 0.0
147 0.0
154 0.000131
143 0.0
67 0.0
34 0.0
42 0.0
61 0.0
79 0.001975
84 0.003022
83 0.004027
87 0.003954
98 0.003952
113 0.005973
130 0.006019
138 0.006026
150 0.005951
156 0.004985
135 0.006984
67 0.004945
32 0.006981
35 0.004987
56 0.001985
68 0.002001
80 0.001977
80 0.002023
82 0.002157
95 0.0
105 0.0
124 0.0
134 0.002989
141 0.0
150 0.001961
160 0.002016
163 0.002001
107 0.002033
47 0.003024
40 0.004954
59 0.006981
80 0.006983
88 0.006991
86 0.006983
84 0.005019
88 0.007015
105 0.004984
116 0.006959
133 0.005002
145 0.004982
151 0.004041
162 0.003986
171 0.005006
156 0.001996
94 0.004994
57 0.00399
67 0.001996
94 0.001989
112 0.0
118 0.000992
113 0.001996
117 0.002002
125 0.004031
143 0.003958
159 0.005944
167 0.006019
175 0.005982
184 0.003987
191 0.002995
194 0.002991
132 0.002987
85 0.003091
72 0.001994
84 0.003069
106 0.002993
120 0.004944
122 0.001984
117 0.00399
123 0.002991
133 0.002995
150 0.001983
160 0.001999
173 0.0
181 0.0
188 0.0
195 0.0
184 0.0
138 0.001996
71 0.003992
76 0.003956
90 0.003991
112 0.003989
123 0.006787
122 0.006968
120 0.00401
131 0.004986
141 0.003986
160 0.004026
168 0.004015
181 0.003992
189 0.006982
194 0.002993
202 0.004987
189 0.00399
142 0.002991
78 0.002026
84 0.0
100 0.002025
124 0.000964
131 0.002993
128 0.0
123 0.0
126 0.0
143 0.0
161 0.00196
170 0.001998
184 0.002001
194 0.002994
199 0.002931
195 0.005945
150 0.006979
112 0.006938
101 0.006949
113 0.005962
137 0.006982
152 0.007978
153 0.006978
145 0.007017
148 0.002989
156 0.004994
171 0.001966
183 0.002961
191 0.002994
201 0.0
198 0.0
164 0.0
112 0.0
99 0.0
116 0.0
143 0.001966
155 0.000992
162 0.0
157 0.002966
158 0.002935
168 0.00498
179 0.006016
189 0.00599
198 0.005983
205 0.007011
192 0.007984
129 0.006981
78 0.002989
82 0.006015
106 0.003021
121 0.005021
137 0.0
136 0.000944
133 0.0
137 0.0
150 0.0
158 0.0
172 0.0
185 0.001971
182 0.002992
116 0.002993
64 0.005901
67 0.004987
92 0.005951
112 0.006032
124 0.006973
125 0.007947
123 0.007977
126 0.007949
137 0.007021
151 0.002999
160 0.004986
173 0.002978
174 0.004011
116 0.0
60 0.002978
60 0.0
83 0.003981
107 0.000979
115 0.000968
112 0.001031
109 0.0
114 0.00101
125 0.002933
138 0.0
150 0.003026
160 0.001001
165 0.003001
115 0.003027
71 0.000998
53 0.001002
70 0.002007
91 0.001966
107 0.001997
111 0.002006
109 0.000996
113 0.003989
121 0.003951
137 0.003992
151 0.003978
159 0.004992
168 0.006984
144 0.006011
100 0.005955
68 0.006976
69 0.005955
91 0.00696
113 0.006983
119 0.003978
116 0.007017
114 0.004989
118 0.005017
133 0.005037
147 0.002992
155 0.005022
167 0.003
172 0.004953
152 0.002995
85 0.0
70 0.0
84 0.001025
110 0.001
122 0.001016
124 0.001003
118 0.001962
119 0.000951
128 0.0
136 0.0
150 0.0
160 0.0
166 0.0
173 0.0
150 0.002041
101 0.003026
81 0.003024
93 0.003021
115 0.002996
135 0.005053
137 0.005027
130 0.004987
130 0.005971
137 0.006969
148 0.004987
160 0.00399
167 0.002992
176 0.002996
168 0.002993
134 0.000946
83 0.002999
85 0.002994
103 0.000997
123 0.002994
133 0.0
130 0.000998
126 0.002026
132 0.002958
142 0.00399
153 0.003957
162 0.004024
169 0.004989
175 0.004025
157 0.004024
90 0.00399
73 0.004987
86 0.006936
107 0.005974
128 0.004945
132 0.003001
127 0.001999
128 0.00499
136 0.002992
147 0.003025
157 0.002987
168 0.00304
179 0.002956
171 0.004031
112 0.003026
82 0.000956
89 0.003029
113 0.00095
128 0.003033
138 0.000951
136 0.0
134 0.00104
141 0.000998
153 0.002039
161 0.002017
174 0.001998
179 0.00399
159 0.002994
103 0.004991
91 0.003989
99 0.004987
122 0.004016
136 0.006055
139 0.00302
135 0.003997
136 0.002993
142 0.003025
154 0.00402
164 0.0
174 0.000997
170 0.001985
116 0.002037
89 0.000998
88 0.001998
101 0.003025
124 0.004004
133 0.005984
132 0.005985
129 0.006015
135 0.004043
145 0.004933
159 0.004988
174 0.003989
176 0.000952
122 0.00401
66 0.003026
57 0.00102
75 0.002025
105 0.003049
114 0.003023
113 0.00301
109 0.000982
115 0.000998
126 0.000998
144 0.002028
154 0.004254
166 0.005991
123 0.005974
76 0.006983
50 0.004986
67 0.004021
87 0.004987
111 0.004029
113 0.00503
107 0.004011
111 0.00396
119 0.003001
135 0.00396
149 0.002954
162 0.000977
156 0.0
90 0.0
60 0.0
65 0.002994
89 0.003034
107 0.002044
119 0.004007
111 0.004987
108 0.005041
117 0.004985
127 0.004975
139 0.005983
155 0.004983
159 0.004978
110 0.004986
49 0.004984
49 0.004987
76 0.004986
102 0.00497
112 0.001993
106 0.004945
102 0.002991
107 0.002988
124 0.003023
143 0.0
153 0.0
160 0.001056
95 0.002045
42 0.002008
25 0.003983
41 0.002983
74 0.004005
90 0.004991
87 0.005003
81 0.005952
89 0.006015
101 0.006012
122 0.005941
142 0.003988
152 0.002992
142 0.003016
62 0.002998
0 0.001014
5 0.003033
34 0.003021
52 0.002984
69 0.002995
68 0.002986
66 0.003035
82 0.0
96 0.002994
119 0.000997
136 0.000998
146 0.001987
160 0.003989
115 0.005985
44 0.006028
0 0.005977
13 0.00302
42 0.00399
57 0.003992
66 0.000994
65 0.003023
69 0.0
85 0.003023
106 0.000968
125 0.0
144 0.000998
153 0.002051
165 0.001991
176 0.003023
181 0.003987
121 0.004989
16 0.004955
8 0.004985
36 0.005033
52 0.005019
73 0.007023
74 0.004991
71 0.003951
77 0.003032
99 0.004021
113 0.002994
136 0.0
150 0.003032
161 0.0
169 0.002988
180 0.000998
189 0.001995
148 0.003988
56 0.002982
23 0.002978
45 0.005011
77 0.005014
92 0.004986
94 0.005016
86 0.005044
90 0.004983
111 0.004992
125 0.005018
147 0.004995
164 0.004992
172 0.005001
183 0.005984
191 0.005993
198 0.005983
132 0.005982
93 0.005954
64 0.005022
90 0.007945
120 0.004986
145 0.007974
145 0.004991
135 0.007982
140 0.007945
151 0.006982
173 0.006016
193 0.002992
202 0.004956
215 0.002996
225 0.0
231 0.0
231 0.001997
151 0.000998
96 0.000997
82 0.002006
113 0.002989
132 0.00295
148 0.004976
143 0.006951
138 0.005991
144 0.003992
158 0.00702
176 0.003988
193 0.004987
209 0.005017
216 0.004987
226 0.002986
235 0.0
226 0.003003
130 0.001001
80 0.0
71 0.001001
99 0.001996
116 0.002002
136 0.00298
133 0.003993
129 0.003999
135 0.003961
154 0.003993
166 0.003933
185 0.004988
199 0.006018
205 0.006015
214 0.004986
219 0.006941
180 0.004993
96 0.006977
64 0.006999
74 0.007014
105 0.002027
121 0.004987
131 0.003039
124 0.0
123 0.0
137 0.0
154 0.0
166 0.0
184 0.000977
198 0.00196
204 0.002995
212 0.003026
186 0.003045
90 0.003017
64 0.002954
78 0.002987
111 0.002992
130 0.003985
134 0.004957
128 0.005694
127 0.006985
135 0.007956
150 0.00598
168 0.004043
178 0.004037
192 0.0
203 0.002992
200 0.0
129 0.0
80 0.0
66 0.0
92 0.002036
124 0.002995
135 0.003001
131 0.003038
125 0.00303
128 0.002991
144 0.004988
155 0.004983
171 0.004987
183 0.005012
193 0.00399
190 0.006968
114 0.006983
69 0.007981
59 0.007947
74 0.007969
114 0.007949
128 0.003041
127 0.004016
116 0.0
121 0.0
132 0.000994
144 0.002
161 0.002008
170 0.001988
183 0.001996
138 0.002013
76 0.001973
32 0.001996
54 0.00399
74 0.003988
99 0.00595
99 0.005815
92 0.005973
92 0.00601
99 0.005972
115 0.007946
134 0.006982
144 0.006982
159 0.007115
126 0.004033
65 0.007036
8 0.003957
15 0.003994
45 0.002983
70 0.001994
73 0.000965
63 0.000997
63 0.003027
73 0.0
90 0.003995
110 0.00203
118 0.0
134 0.001002
127 0.001987
51 0.003021
0 0.002992
0 0.005
10 0.00399
42 0.005022
52 0.004987
48 0.004031
45 0.005042
55 0.004958
78 0.004986
99 0.006011
108 0.00598
119 0.003
131 0.002992
131 0.003038
47 0.002992
0 0.004025
0 0.0
16 0.003024
49 0.002987
56 0.0
46 0.0
41 0.0
54 0.000993
74 0.002
92 0.001996
107 0.001991
121 0.001962
128 0.002058
143 0.004036
105 0.004983
39 0.004003
65 0.003962
75 0.003959
96 0.002993
108 0.00477
106 0.004002
100 0.005983
103 0.004987
109 0.004987
121 0.00399
127 0.005018
135 0.004987
140 0.005987
144 0.00299
148 0.005085
115 0.004983
78 0.00399
66 0.002988
85 0.0
95 0.0
104 0.000998
103 0.001001
100 0.002038
103 0.002036
116 0.001975
123 0.002991
133 0.003026
138 0.002992
144 0.003959
150 0.003988
151 0.003999
106 0.002992
65 0.004975
70 0.006019
84 0.004985
94 0.007979
101 0.006977
102 0.005968
100 0.00299
103 0.003041
115 0.000949
128 0.001016
134 0.00095
142 0.0
146 0.0
151 0.000979
157 0.000997
150 0.000998
91 0.000997
70 0.001992
79 0.002997
94 0.002992
96 0.004991
99 0.004977
95 0.004887
99 0.004963
111 0.006952
122 0.007966
138 0.006984
145 0.006981
154 0.007016
158 0.007011
164 0.006983
174 0.003974
174 0.006981
105 0.004037
58 0.003993
69 0.002994
96 0.002995
109 0.002984
118 0.002942
112 0.001978
111 0.003016
123 0.0
138 0.002994
151 0.0
162 0.003024
170 0.000989
176 0.003041
184 0.003035
189 0.004039
162 0.00304
82 0.000978
71 0.0
89 0.002027
