76 0.009973
41 0.004997
41 0.003977
48 0.004032
67 0.003986
81 0.003989
87 0.003989
80 0.003989
80 0.003989
84 0.002992
90 0.002005
95 0.003035
106 0.001995
92 0.002999
31 0.002034
16 0.002032
24 0.001995
43 0.0
59 0.0
59 0.0
67 0.0
60 0.0
61 0.0
67 0.0
65 0.000976
71 0.002993
84 0.001995
86 0.002994
39 0.00399
4 0.003988
9 0.00403
21 0.004025
36 0.003993
51 0.004781
59 0.005027
57 0.004986
57 0.005017
67 0.007014
73 0.007006
77 0.00698
85 0.006975
83 0.00705
90 0.006982
69 0.007023
14 0.006939
15 0.005982
20 0.005992
48 0.004987
57 0.005028
60 0.005956
57 0.006025
55 0.003989
60 0.003989
69 0.001995
73 0.00198
80 0.001995
90 0.001995
96 0.002005
68 0.002026
19 0.002027
0 0.0
14 0.0
26 0.0
46 0.001995
57 0.002001
50 0.002995
40 0.002942
43 0.002954
59 0.003003
72 0.002993
80 0.002993
88 0.002986
98 0.002997
97 0.002993
51 0.002992
12 0.00285
10 0.006025
19 0.007971
29 0.007978
39 0.007979
44 0.005109
39 0.005945
32 0.004975
36 0.004018
38 0.003956
50 0.002992
58 0.018949
64 0.0
81 0.0
89 0.001009
70 0.0
24 0.0
6 0.000992
18 0.001002
39 0.000997
54 0.000997
69 0.000995
59 0.000957
36 0.000825
21 0.000987
22 0.00295
21 0.004987
28 0.004986
34 0.004983
42 0.007044
43 0.006984
28 0.007979
41 0.007035
21 0.006988
20 0.005979
19 0.005984
16 0.003985
13 0.00399
7 0.003989
0 0.003989
57 0.003155
55 0.001995
55 0.002008
62 0.002029
69 0.001995
74 0.001994
79 0.001994
63 0.0
56 0.00196
54 0.003019
60 0.002999
64 0.002996
71 0.002988
74 0.004981
73 0.005027
73 0.005023
74 0.006024
76 0.006024
79 0.006015
80 0.006007
83 0.005978
88 0.006024
89 0.005991
71 0.005022
64 0.00598
66 0.004987
70 0.005993
74 0.005027
79 0.005984
81 0.00598
81 0.004987
81 0.004028
83 0.004028
87 0.002991
89 0.001995
92 0.002005
96 0.001039
97 0.0
93 0.0
78 0.000998
76 0.002994
80 0.002997
86 0.004991
92 0.004923
95 0.004994
93 0.005019
93 0.005017
94 0.004996
97 0.00503
100 0.006027
60 0.00601
66 0.006024
73 0.007007
65 0.006981
24 0.006978
8 0.006933
8 0.006942
16 0.00714
30 0.007036
41 0.005019
42 0.005955
38 0.004987
42 0.002992
45 0.003007
52 0.001996
56 0.001994
60 0.001038
73 0.001037
79 0.001006
45 0.0
17 0.000958
14 0.000997
24 0.001009
38 0.0
50 0.0
58 0.0
57 0.0
55 0.0
58 0.0
61 0.0
71 0.002004
81 0.001894
84 0.002992
98 0.002019
102 0.00296
67 0.002992
36 0.002995
38 0.002996
47 0.004904
61 0.005027
66 0.00503
70 0.005037
66 0.005008
68 0.010938
69 0.0
93 0.007979
96 0.007932
108 0.007979
115 0.007931
96 0.006027
55 0.005022
50 0.005981
60 0.004972
74 0.004977
82 0.004977
92 0.005029
92 0.005026
86 0.004986
89 0.00504
96 0.005028
107 0.002032
114 0.002977
121 0.001989
128 0.002988
134 0.001986
127 0.001984
85 0.002
74 0.001
82 0.0
92 0.002027
104 0.002959
115 0.003044
116 0.003023
114 0.003041
114 0.004035
118 0.00399
127 0.006018
133 0.007948
137 0.006966
144 0.006941
150 0.005026
156 0.004003
139 0.002999
98 0.002009
92 0.002039
101 0.000998
116 0.0
131 0.000997
134 0.000998
133 0.00096
130 0.000997
134 0.000997
143 0.00101
149 0.001
158 0.000998
166 0.001992
172 0.002882
181 0.004023
184 0.004035
147 0.004031
132 0.003989
140 0.004026
153 0.00603
164 0.007013
168 0.006994
168 0.007
164 0.00698
164 0.00699
168 0.005976
174 0.004976
179 0.002999
186 0.001995
192 0.000998
192 0.000997
160 0.0
135 0.0
126 0.001995
136 0.002026
142 0.003001
153 0.003988
156 0.003991
152 0.003991
149 0.005034
152 0.007035
157 0.007037
164 0.007013
170 0.007013
172 0.006981
178 0.007011
176 0.007014
138 0.007012
112 0.007013
117 0.006981
123 0.007979
126 0.007942
141 0.007979
147 0.007947
141 0.006025
140 0.005027
142 0.00399
145 0.003962
154 0.003987
158 0.003036
162 0.004032
175 0.002003
183 0.003033
187 0.002035
148 0.002038
113 0.002036
104 0.001997
110 0.001006
124 0.000992
138 0.001991
139 0.001032
134 0.002035
131 0.00099
135 0.000995
143 0.000999
149 0.001003
159 0.000951
168 0.0
171 0.001001
180 0.000998
193 0.000998
197 0.000997
186 0.030918
145 0.0
117 0.001995
129 0.002033
138 0.001996
154 0.004027
154 0.003885
151 0.003991
148 0.003955
152 0.003991
160 0.00399
168 0.004988
173 0.00502
181 0.006982
182 0.006944
186 0.006975
193 0.006991
188 0.004984
151 0.005028
109 0.004987
114 0.003032
119 0.002997
132 0.001991
142 0.002995
144 0.002004
139 0.002041
135 0.00204
139 0.002036
145 0.0
153 0.0
158 0.0
163 0.0
168 0.0
177 0.000998
178 0.0
139 0.0
105 0.0
97 0.0
110 0.0
113 0.0
128 0.0
137 0.000968
132 0.000997
130 0.001005
134 0.002026
130 0.003984
140 0.005046
148 0.006015
151 0.006031
158 0.006017
164 0.006017
168 0.006964
175 0.007012
145 0.006015
99 0.00697
95 0.005026
106 0.004033
123 0.003967
134 0.004
143 0.003995
136 0.005033
132 0.00403
138 0.004997
151 0.004984
155 0.005018
163 0.002992
168 0.002033
174 0.001997
181 0.001164
183 0.002035
150 0.00103
107 0.0
103 0.001001
114 0.0
123 0.0
141 0.0
145 0.000973
136 0.001001
132 0.0
136 0.001033
139 0.002994
146 0.004024
152 0.004021
155 0.004023
159 0.003991
166 0.003868
165 0.004988
120 0.006043
82 0.007021
77 0.007023
88 0.005019
91 0.004979
98 0.003787
100 0.002989
97 0.004002
90 0.003024
94 0.003035
96 0.003028
103 0.003039
105 0.002986
113 0.003044
121 0.001994
126 0.001023
133 0.001994
110 0.001998
78 0.002025
58 0.001995
63 0.002037
78 0.002041
91 0.001005
98 0.000987
104 0.0
102 0.0
104 0.0
113 0.0
115 0.0
119 0.0
114 0.0
118 0.000951
129 0.0
121 0.000998
66 0.001944
46 0.002034
53 0.002028
64 0.004037
75 0.00399
76 0.00399
66 0.004033
64 0.003991
66 0.006001
72 0.007934
78 0.006022
81 0.005984
90 0.002992
96 0.003035
102 0.003025
65 0.001998
32 0.003044
15 0.001993
25 0.001974
23 0.002026
32 0.0
36 0.0
32 0.0
34 0.0
40 0.0
48 0.003033
54 0.00502
62 0.005984
69 0.006043
77 0.005991
85 0.005984
90 0.005996
61 0.005918
16 0.006025
10 0.006661
24 0.007961
27 0.007027
42 0.007012
49 0.007017
48 0.006062
48 0.003989
51 0.005003
59 0.00403
70 0.004046
76 0.004038
87 0.003968
91 0.004022
100 0.004036
114 0.003987
112 0.003038
74 0.004029
46 0.004035
52 0.003026
64 0.004026
72 0.002996
85 0.004025
81 0.003033
77 0.002138
75 0.001008
84 0.0
90 0.0
97 0.0
106 0.0
110 0.0
119 0.0
121 0.000942
117 0.0
57 0.000984
40 0.002012
43 0.001995
48 0.001996
54 0.001995
71 0.001994
70 0.001993
65 0.004047
68 0.004022
73 0.004026
80 0.005984
89 0.006995
98 0.007041
104 0.00698
111 0.006969
116 0.006981
124 0.007995
129 0.007941
109 0.00701
51 0.004999
42 0.005984
52 0.004987
53 0.004989
62 0.003001
77 0.003032
74 0.003031
71 0.001974
74 0.003025
76 0.00203
89 0.002136
94 0.001952
100 0.001008
109 0.001039
116 0.0
123 0.000998
127 0.000997
138 0.000998
142 0.001032
102 0.000998
72 0.000997
65 0.000986
72 0.000998
86 0.004018
102 0.005995
107 0.007014
104 0.006977
102 0.006959
108 0.005026
115 0.005031
129 0.003024
133 0.004025
144 0.004022
153 0.00503
158 0.00403
164 0.005026
171 0.00303
168 0.003031
120 0.002002
94 0.0
99 0.001995
107 0.002993
123 0.003923
133 0.004032
135 0.004035
128 0.006973
124 0.008019
130 0.006974
138 0.007012
144 0.005993
150 0.006028
155 0.005983
162 0.006033
170 0.006019
170 0.006031
128 0.006026
94 0.005979
86 0.006025
95 0.005033
103 0.003051
115 0.004024
125 0.004034
124 0.004034
117 0.003989
120 0.000998
128 0.001996
136 0.001994
144 0.00103
147 0.0
155 0.001995
166 0.002993
152 0.005036
97 0.005029
86 0.006965
94 0.007017
103 0.006985
116 0.007117
128 0.005991
129 0.005022
123 0.003989
124 0.002034
123 0.002028
124 0.001996
136 0.002024
146 0.001038
154 0.00105
157 0.001007
124 0.000998
87 0.002038
84 0.003991
96 0.005987
103 0.007026
116 0.007028
120 0.006028
115 0.007209
112 0.00597
113 0.006025
118 0.006024
127 0.006029
136 0.004029
143 0.004043
134 0.003019
105 0.002982
75 0.002993
77 0.001995
93 0.000994
107 0.002024
121 0.001995
120 0.001
115 0.001004
115 0.001036
121 0.00103
129 0.0
137 0.000999
143 0.0
136 0.0
109 0.000997
75 0.001995
80 0.002994
88 0.00399
105 0.00599
116 0.006969
114 0.007025
107 0.006961
106 0.007028
110 0.005027
117 0.004941
122 0.004022
132 0.003021
127 0.002993
72 0.001995
56 0.002057
56 0.001995
59 0.001995
74 0.002043
84 0.0
81 0.001029
66 0.0
67 0.000998
73 0.0
81 0.0
89 0.0
96 0.0
100 0.000998
70 0.0
32 0.0
26 0.000991
35 0.0
48 0.0
58 0.0
64 0.0
59 0.000997
54 0.001996
60 0.002993
66 0.002993
73 0.003031
86 0.002992
97 0.002859
102 0.003989
58 0.005945
35 0.006015
36 0.00599
43 0.005972
59 0.005984
69 0.005984
67 0.007013
65 0.005986
64 0.004032
66 0.003171
74 0.001998
83 0.001995
83 0.0
95 0.0
94 0.0
66 0.0
19 0.0
17 0.0
24 0.000998
34 0.001001
46 0.000997
52 0.000989
44 0.000997
46 0.000997
50 0.001004
55 0.000874
68 0.002994
79 0.003972
82 0.005035
93 0.004884
97 0.004986
84 0.00698
40 0.007007
14 0.007021
23 0.007017
28 0.006974
42 0.007022
50 0.005023
55 0.006015
48 0.005017
52 0.00499
55 0.003031
61 0.003001
73 0.003023
84 0.001997
89 0.002992
97 0.000986
104 0.0
110 0.0
105 0.000997
50 0.003026
35 0.003025
41 0.00297
49 0.002963
65 0.002992
78 0.002975
78 0.004994
73 0.004953
77 0.005909
82 0.006982
92 0.007009
102 0.007978
108 0.007021
120 0.007995
128 0.007015
131 0.007979
147 0.007027
152 0.007018
112 0.007019
81 0.004985
83 0.003989
97 0.000997
113 0.000996
119 0.001042
119 0.000998
112 0.0
113 0.0
117 0.003044
129 0.003989
133 0.004012
141 0.003969
145 0.003991
152 0.005264
161 0.005978
165 0.005985
148 0.007047
103 0.00798
81 0.006949
88 0.007979
96 0.007979
104 0.007979
118 0.006027
118 0.005014
114 0.005017
115 0.005031
117 0.004988
121 0.003994
130 0.003985
134 0.003005
141 0.002032
147 0.00203
149 0.002037
146 0.001041
115 0.000998
78 0.001027
76 0.0
83 0.0
100 0.002029
116 0.004008
123 0.003979
119 0.004022
113 0.005974
117 0.006955
124 0.007978
138 0.004988
144 0.005119
161 0.002014
170 0.002035
177 0.00203
171 0.000996
119 0.0
110 0.0
116 0.0
125 0.001002
134 0.0
147 0.000997
146 0.003182
139 0.00386
138 0.003986
141 0.004023
147 0.004464
154 0.004956
156 0.004985
165 0.007028
168 0.007018
149 0.005013
117 0.004028
88 0.003183
89 0.004019
99 0.002959
113 0.00299
116 0.002966
116 0.003024
104 0.002022
104 0.002022
109 0.002025
114 0.002036
118 0.001996
127 0.002028
134 0.00099
140 0.002036
132 0.001027
91 0.001997
64 0.00104
71 0.000998
86 0.001028
99 0.0
108 0.0
112 0.0
105 0.0
105 0.000997
112 0.0
118 0.000998
130 0.002964
141 0.002994
147 0.004966
156 0.005029
120 0.004979
100 0.00598
99 0.007029
108 0.005984
120 0.004987
140 0.006037
143 0.005984
137 0.004021
132 0.005019
133 0.004022
140 0.00505
147 0.004928
152 0.005024
159 0.004983
162 0.004969
133 0.005029
86 0.004027
82 0.004031
94 0.000955
104 0.0
113 0.0
121 0.0
115 0.0
111 0.0
114 0.0
115 0.0
122 0.000997
129 0.001995
135 0.003998
139 0.003958
95 0.004026
69 0.004031
61 0.005976
72 0.006024
81 0.005987
91 0.005983
99 0.005985
95 0.005985
93 0.007027
96 0.006866
104 0.006991
113 0.007014
120 0.007013
123 0.00602
130 0.007015
140 0.004022
97 0.004033
57 0.001035
56 0.001059
71 0.000998
75 0.000968
89 0.0
88 0.0
84 0.002955
79 0.003997
80 0.003996
84 0.004021
93 0.003989
101 0.00399
110 0.00399
114 0.003979
118 0.003996
127 0.004022
108 0.003996
75 0.003989
51 0.005001
66 0.006017
75 0.007012
93 0.006992
98 0.006994
99 0.007024
96 0.006984
99 0.006995
108 0.006978
119 0.007974
128 0.00698
139 0.007017
149 0.004977
153 0.003987
156 0.002992
117 0.0
90 0.000963
82 0.000998
94 0.000992
105 0.00102
119 0.001958
124 0.002993
118 0.005027
114 0.005963
116 0.005989
124 0.00603
131 0.006997
136 0.006987
144 0.00697
151 0.006985
155 0.007015
138 0.006978
101 0.007985
71 0.00698
74 0.007979
79 0.006983
89 0.006011
102 0.006019
106 0.005017
100 0.003989
92 0.002973
92 0.00399
101 0.002037
106 0.002992
114 0.002002
122 0.002006
126 0.000998
135 0.000995
127 0.000988
91 0.00098
56 0.0
58 0.0
69 0.000987
84 0.001994
94 0.001996
99 0.00199
90 0.00203
89 0.001995
92 0.002992
98 0.003991
106 0.003994
112 0.005023
120 0.005026
131 0.005985
136 0.006013
114 0.005978
76 0.006025
79 0.006986
86 0.007981
99 0.007022
109 0.007939
118 0.006986
113 0.006972
105 0.006951
106 0.007018
114 0.005974
118 0.005992
124 0.004003
133 0.003988
142 0.002004
134 0.002963
92 0.001995
61 0.002992
59 0.002982
64 0.001994
79 0.0
88 0.000997
91 0.000998
86 0.001955
81 0.001995
82 0.001995
90 0.003126
100 0.004024
102 0.00402
112 0.005988
116 0.00603
95 0.004981
43 0.005921
36 0.007017
39 0.006983
45 0.006
58 0.005981
70 0.006017
68 0.005984
64 0.003983
63 0.00402
71 0.002991
73 0.002992
80 0.003113
82 0.001983
91 0.001995
100 0.000964
80 0.001996
27 0.0
17 0.0
21 0.0
35 0.0
44 0.0
56 0.001052
52 0.003989
48 0.006037
50 0.007026
59 0.007015
66 0.00702
76 0.007025
88 0.007019
92 0.006886
96 0.007009
74 0.007939
39 0.005011
30 0.007012
40 0.002997
53 0.004102
69 0.002993
73 0.003992
67 0.003003
64 0.003001
66 0.000976
73 0.001031
82 0.001013
86 0.0
96 0.0
101 0.000967
84 0.001996
33 0.002012
14 0.001977
20 0.001995
31 0.001986
43 0.001988
52 0.002028
45 0.002982
41 0.002994
42 0.002996
46 0.004001
53 0.005034
63 0.004987
67 0.004988
77 0.005033
64 0.006991
29 0.005997
0 0.006954
0 0.006974
0 0.006978
17 0.006955
25 0.006948
27 0.006939
21 0.005979
21 0.004987
22 0.004986
26 0.004987
33 0.004994
40 0.00398
46 0.003024
57 0.003985
61 0.003989
38 0.00399
0 0.002989
0 0.001009
0 0.001031
2 0.0
18 0.000961
22 0.001981
20 0.001872
19 0.002029
23 0.002024
36 0.002993
43 0.002995
56 0.002973
67 0.00402
74 0.005023
80 0.004976
45 0.006011
15 0.006983
5 0.006977
11 0.006974
25 0.006015
37 0.006978
45 0.004984
44 0.006032
37 0.005984
40 0.005983
48 0.00399
57 0.00303
63 0.002992
73 0.001965
83 0.0
92 0.0
86 0.0
28 0.001995
13 0.00202
12 0.001996
16 0.002028
28 0.001986
40 0.001995
41 0.00203
35 0.003999
37 0.00402
41 0.005019
53 0.006986
61 0.007979
72 0.006029
81 0.006956
94 0.004986
99 0.00502
70 0.004985
39 0.005004
22 0.004987
35 0.00399
45 0.003991
62 0.000979
69 0.001008
65 0.000995
66 0.000998
72 0.000998
86 0.001038
96 0.001003
104 0.001001
115 0.000998
123 0.001995
107 0.00103
64 0.001996
47 0.0
50 0.001024
63 0.000998
75 0.000997
85 0.000998
85 0.001029
77 0.001
77 0.000978
84 0.000993
89 0.000998
100 0.000959
107 0.001983
118 0.001995
115 0.002031
62 0.003966
30 0.005332
29 0.006025
36 0.006031
50 0.006024
59 0.005984
62 0.006976
58 0.007024
56 0.005029
60 0.00597
69 0.005984
74 0.005984
81 0.005984
91 0.004986
102 0.004979
67 0.004086
36 0.004987
21 0.003001
26 0.002036
28 0.002034
46 0.001991
49 0.001994
48 0.0
42 0.0
45 0.0
53 0.0
63 0.002991
68 0.00399
79 0.005984
89 0.00604
95 0.006016
93 0.006018
53 0.006007
27 0.00594
26 0.005876
35 0.007979
41 0.007978
60 0.007976
63 0.007979
62 0.007024
59 0.004953
66 0.005984
76 0.002992
85 0.003037
91 0.002983
101 0.001981
115 0.000999
118 0.001001
82 0.0
48 0.0
42 0.000996
46 0.000997
65 0.002007
73 0.002959
80 0.002994
76 0.003002
72 0.00399
75 0.004033
84 0.004118
91 0.004038
99 0.004039
109 0.003992
116 0.007028
125 0.006026
132 0.00599
104 0.003987
52 0.004015
44 0.002036
48 0.001002
58 0.000998
68 0.000998
78 0.00095
75 0.00095
68 0.000992
70 0.001995
77 0.000997
84 0.000998
96 0.0
101 0.0
110 0.0
116 0.0
128 0.0
112 0.000998
68 0.000998
42 0.001986
42 0.002992
49 0.002993
68 0.003929
74 0.002992
74 0.003019
69 0.005021
70 0.004879
78 0.006007
88 0.006026
98 0.006013
109 0.005986
117 0.007041
125 0.006969
139 0.004977
142 0.003991
101 0.005018
71 0.003986
70 0.002979
81 0.003989
99 0.00397
110 0.004001
119 0.003025
115 0.002992
114 0.003034
126 0.001001
142 0.00101
150 0.0
161 0.0
167 0.000988
180 0.0
182 0.0
158 0.000976
122 0.002005
121 0.004026
131 0.004041
149 0.003993
160 0.003999
166 0.005028
160 0.004987
157 0.005031
165 0.005026
170 0.007021
178 0.00698
182 0.007979
196 0.004974
199 0.006009
164 0.004994
144 0.005196
139 0.003978
150 0.004033
155 0.004028
162 0.004029
158 0.003015
151 0.002994
144 0.002025
146 0.002
148 0.002002
148 0.002992
154 0.001988
145 0.002036
85 0.0
63 0.0
58 0.0
66 0.000997
76 0.002003
85 0.001995
84 0.002995
76 0.003038
75 0.002994
80 0.002994
89 0.003025
99 0.003917
103 0.003991
94 0.005017
56 0.005026
14 0.006942
11 0.004991
20 0.004019
28 0.003003
41 0.001998
43 0.000996
38 0.000976
35 0.000998
41 0.001962
47 0.0
57 0.001995
66 0.001995
79 0.004988
69 0.004024
11 0.005029
0 0.007981
0 0.007026
3 0.005987
13 0.00698
30 0.004037
32 0.002026
30 0.001997
31 0.001035
42 0.001006
48 0.0
47 0.0
51 0.000967
62 0.0
77 0.000999
86 0.001179
66 0.000997
13 0.000996
2 0.000965
11 0.00202
22 0.001979
41 0.000997
54 0.00196
55 0.001953
52 0.002024
55 0.003991
63 0.002998
76 0.004032
81 0.004018
94 0.004021
108 0.004034
114 0.003991
125 0.005026
112 0.004029
67 0.005985
64 0.006936
73 0.007004
94 0.006987
109 0.005981
116 0.005979
113 0.006157
110 0.005984
114 0.004032
121 0.004995
130 0.005025
137 0.004987
150 0.004992
158 0.004997
158 0.004029
109 0.002003
89 0.003035
86 0.001004
99 0.000983
110 0.000996
125 0.000998
128 0.0
120 0.001977
123 0.0
127 0.0
139 0.0
147 0.0
156 0.0
168 0.001966
170 0.0
138 0.000998
94 0.001012
89 0.001011
96 0.000999
104 0.000997
123 0.000998
130 0.000997
129 0.002064
124 0.000998
127 0.000997
134 0.000998
144 0.000998
153 0.000999
166 0.001996
178 0.001996
173 0.001962
123 0.002038
104 0.001995
110 0.003997
129 0.003989
144 0.004033
158 0.006015
162 0.006017
158 0.005986
159 0.005972
168 0.006039
174 0.006982
185 0.007024
194 0.006973
204 0.006987
182 0.006962
161 0.006963
135 0.004987
141 0.005026
149 0.003031
167 0.001942
177 0.001015
173 0.000996
168 0.0
171 0.000958
175 0.0
181 0.00099
186 0.0
196 0.000999
200 0.001998
180 0.000998
135 0.00097
127 0.002009
135 0.001995
145 0.002906
158 0.003991
165 0.004041
159 0.004022
155 0.004024
156 0.004023
162 0.005026
166 0.005041
175 0.004987
182 0.005042
179 0.005021
129 0.005016
109 0.005985
113 0.006938
117 0.006968
133 0.006968
143 0.006991
147 0.006979
139 0.007001
137 0.007979
140 0.006991
147 0.007977
151 0.00698
159 0.006024
169 0.005984
166 0.006024
121 0.006017
89 0.003989
87 0.006024
99 0.002005
117 0.001993
124 0.002003
121 0.002004
117 0.002109
119 0.003015
125 0.002002
130 0.001028
140 0.002004
147 0.002035
157 0.0
163 0.00201
138 0.0
103 0.0
91 0.002038
100 0.00204
117 0.001016
132 0.001002
135 0.001999
129 0.000969
127 0.002993
128 0.003991
137 0.00403
143 0.004026
150 0.004001
159 0.003979
164 0.00396
148 0.004022
114 0.00399
86 0.005025
93 0.004948
104 0.004279
124 0.006944
130 0.006932
127 0.006945
123 0.006964
124 0.006982
131 0.006978
139 0.007014
144 0.006976
153 0.00705
159 0.00697
167 0.006981
135 0.007013
101 0.007011
87 0.006966
94 0.00696
104 0.006975
121 0.004984
128 0.004984
132 0.005028
127 0.00503
130 0.004036
137 0.00196
145 0.003989
152 0.003025
155 0.004021
161 0.002036
172 0.004027
172 0.003998
142 0.004031
104 0.002992
105 0.002993
117 0.003035
135 0.000959
148 0.002995
152 0.0
147 0.0
145 0.0
153 0.0
159 0.0
166 0.0
174 0.001
178 0.0
184 0.002027
196 0.004031
190 0.005019
141 0.005031
121 0.004988
125 0.006937
137 0.006978
154 0.006978
164 0.006988
168 0.007979
162 0.006988
159 0.007973
166 0.007968
170 0.007941
176 0.007959
182 0.005021
187 0.005983
196 0.003986
204 0.005983
189 0.00402
139 0.003992
129 0.004144
139 0.003995
150 0.00396
159 0.002992
170 0.002997
171 0.00301
166 0.003023
168 0.004109
172 0.002038
177 0.0
184 0.001996
189 0.002028
193 0.003992
201 0.005049
197 0.005024
159 0.003965
129 0.00505
131 0.005053
140 0.004976
153 0.004973
167 0.004974
166 0.005039
163 0.005021
156 0.004973
159 0.005026
161 0.007041
168 0.005999
176 0.004987
178 0.005027
184 0.004004
188 0.00402
155 0.002979
124 0.003989
126 0.003033
133 0.00403
152 0.003026
164 0.002047
170 0.000997
164 0.0
162 0.001042
160 0.000998
163 0.001994
169 0.000998
174 0.0
183 0.0
189 0.0
159 0.0
130 0.0
118 0.0
123 0.000999
138 0.000998
156 0.003036
161 0.002997
154 0.002992
148 0.002956
150 0.002992
154 0.003002
157 0.002994
164 0.003037
172 0.002995
176 0.00303
155 0.004024
107 0.005977
97 0.005984
104 0.006018
111 0.006018
127 0.007977
135 0.005948
134 0.006044
126 0.003984
126 0.003958
131 0.003992
136 0.003989
141 0.005986
147 0.001994
154 0.002991
149 0.002002
107 0.0
78 0.000997
79 0.001008
87 0.000998
100 0.000997
110 0.000998
113 0.000998
103 0.000998
100 0.003034
104 0.00302
110 0.004973
114 0.006976
118 0.00502
132 0.004975
131 0.004956
90 0.004983
54 0.004986
53 0.003946
62 0.003989
69 0.003982
85 0.001982
87 0.002992
83 0.00203
80 0.003034
83 0.003029
86 0.002994
92 0.003022
94 0.003026
103 0.002032
108 0.001981
90 0.001995
40 0.002046
32 0.0
34 0.0
44 0.001987
60 0.001995
64 0.002998
61 0.001995
59 0.002031
59 0.002993
65 0.002993
72 0.003031
75 0.00298
85 0.00399
93 0.005032
85 0.004981
51 0.005978
16 0.005872
18 0.005976
21 0.005991
36 0.005985
47 0.006027
48 0.006403
42 0.006957
39 0.007978
44 0.007013
49 0.006981
57 0.007988
62 0.004988
71 0.003953
79 0.004002
56 0.004025
22 0.00396
0 0.001996
0 0.00202
5 0.002009
21 0.0
28 0.0
23 0.000997
18 0.000997
20 0.000997
24 0.001955
35 0.001886
42 0.002029
51 0.002026
59 0.001995
64 0.001995
38 0.002025
0 0.004992
0 0.004987
0 0.005101
14 0.006973
30 0.006986
33 0.006987
26 0.006972
24 0.006978
28 0.007002
32 0.006025
40 0.004981
51 0.004976
55 0.004939
54 0.004978
22 0.007013
51 0.003961
48 0.004957
51 0.00298
56 0.005014
65 0.003989
66 0.002992
61 0.00303
60 0.00204
63 0.003055
67 0.000994
73 0.0
76 0.000959
81 0.001996
81 0.002994
67 0.00502
38 0.004988
36 0.006981
38 0.006994
43 0.006979
52 0.006019
54 0.005001
51 0.004992
50 0.004985
51 0.004989
56 0.006019
59 0.005001
64 0.006027
70 0.005142
75 0.004022
67 0.002999
49 0.004021
29 0.001984
31 0.002002
35 0.001991
45 0.002965
51 0.002001
51 0.0
49 0.000998
51 0.001995
54 0.002028
61 0.001995
66 0.002045
71 0.001991
81 0.002031
86 0.002026
74 0.001993
52 0.002998
47 0.002998
50 0.002996
57 0.004
67 0.004988
28 0.006986
29 0.006829
23 0.007978
28 0.004998
33 0.00701
45 0.00501
58 0.004993
67 0.004984
83 0.004959
68 0.003002
35 0.002995
11 0.002992
11 0.003029
23 0.00299
39 0.004029
52 0.000994
54 0.002024
49 0.001985
52 0.001027
58 0.001027
64 0.001028
76 0.001995
92 0.0
101 0.002025
111 0.0
96 0.002037
46 0.0
38 0.0
40 0.000959
57 0.002029
74 0.003008
78 0.003962
73 0.004033
74 0.004287
77 0.00496
86 0.00503
95 0.005832
104 0.006975
112 0.006018
121 0.005018
129 0.002991
124 0.005029
74 0.004983
64 0.004984
72 0.005054
83 0.004032
102 0.004031
116 0.003009
115 0.004021
112 0.003033
117 0.004029
127 0.002001
140 0.001994
148 0.001999
159 0.002002
170 0.0
171 0.0
129 0.0
111 0.0
112 0.0
125 0.001034
137 0.000998
156 0.001985
157 0.0
153 0.0
155 0.001995
157 0.00096
167 0.002002
175 0.002025
183 0.001997
190 0.001971
189 0.00303
160 0.00403
117 0.004995
118 0.005029
123 0.004887
140 0.004985
148 0.005985
156 0.00598
153 0.005973
151 0.006017
152 0.005988
159 0.005987
165 0.006015
173 0.00597
178 0.005985
175 0.005983
150 0.007017
110 0.005989
101 0.005991
113 0.003988
121 0.002992
139 0.002993
143 0.000999
138 0.002992
137 0.000996
141 0.002025
147 0.0
159 0.0
162 0.0
172 0.0
183 0.0
167 0.0
126 0.0
120 0.0
132 0.0
154 0.000967
166 0.000998
170 0.003001
163 0.002987
159 0.002995
158 0.003029
165 0.002992
170 0.002982
179 0.002963
184 0.002956
161 0.003959
128 0.003898
107 0.003995
115 0.005021
123 0.00503
138 0.004986
141 0.005027
137 0.005957
133 0.006978
135 0.006975
141 0.00698
143 0.006976
151 0.007017
160 0.00694
132 0.007111
91 0.003992
81 0.005986
87 0.006017
91 0.006018
106 0.005977
111 0.00601
106 0.005984
104 0.003002
105 0.002986
110 0.001996
116 0.002036
121 0.001021
131 0.000968
110 0.000997
56 0.0
46 0.0
53 0.0
68 0.0
82 0.000997
86 0.001
78 0.000992
77 0.00399
82 0.0
88 0.0
88 0.0
102 0.0
110 0.0
102 0.0
62 0.0
43 0.0
45 0.0
54 0.000997
66 0.00101
77 0.000997
77 0.000998
73 0.002962
78 0.002992
81 0.005028
88 0.004988
103 0.004987
106 0.004988
89 0.005985
61 0.005964
35 0.006981
41 0.004987
55 0.005985
69 0.003989
79 0.005984
78 0.003989
73 0.005978
78 0.00602
84 0.005984
97 0.004985
103 0.004981
117 0.00502
121 0.004002
96 0.004987
62 0.003027
60 0.005029
76 0.002995
95 0.000998
110 0.0
111 0.0
107 0.000997
107 0.0
114 0.001995
122 0.002977
129 0.002938
140 0.002993
139 0.002988
114 0.002988
78 0.00299
76 0.002952
86 0.00296
102 0.002992
112 0.003998
113 0.004025
105 0.005973
107 0.005985
111 0.005992
117 0.006015
127 0.005979
140 0.00599
140 0.006028
98 0.005972
65 0.006974
63 0.006013
73 0.005992
89 0.004989
100 0.004986
103 0.004997
98 0.005022
95 0.003996
100 0.005984
106 0.003988
115 0.003997
128 0.004136
135 0.002996
117 0.002001
83 0.003038
57 0.001964
63 0.002024
71 0.000983
88 0.001003
99 0.0
100 0.0
96 0.0
98 0.000967
107 0.000972
115 0.000964
118 0.000999
128 0.002952
144 0.003991
138 0.00399
84 0.006012
66 0.006016
67 0.005979
77 0.006134
95 0.003987
107 0.003987
110 0.000999
106 0.0
108 0.001007
112 0.002
123 0.002993
135 0.003955
139 0.003985
152 0.003949
158 0.003989
143 0.003981
99 0.006019
95 0.006968
107 0.006962
125 0.006982
132 0.006021
146 0.002986
144 0.004987
140 0.002992
143 0.004991
148 0.003999
154 0.003
161 0.001942
168 0.001995
182 0.001995
176 0.000985
140 0.001987
112 0.0
119 0.0
128 0.0
143 0.0
151 0.0
153 0.0
147 0.000998
144 0.001983
151 0.001991
157 0.001993
162 0.002006
169 0.002036
180 0.001995
181 0.001996
136 0.003842
113 0.004025
110 0.003991
118 0.005033
131 0.006975
147 0.006988
152 0.007013
146 0.00702
144 0.006996
148 0.003988
150 0.004986
157 0.002007
164 0.002008
173 0.001992
177 0.002003
164 0.002001
122 0.001022
105 0.001001
106 0.000998
120 0.000963
138 0.000902
143 0.000997
139 0.000949
133 0.001007
136 0.001
143 0.001961
148 0.002959
154 0.003991
161 0.003987
168 0.004024
164 0.003958
118 0.004879
106 0.005984
108 0.00698
122 0.004018
130 0.005984
147 0.003993
145 0.003986
141 0.00199
141 0.000994
146 0.001031
153 0.000991
160 0.001998
167 0.001163
173 0.0
145 0.001996
110 0.0
101 0.0
105 0.0
117 0.0
133 0.0
135 0.002993
127 0.003005
123 0.00399
127 0.005155
129 0.006974
135 0.007947
143 0.003989
149 0.00596
139 0.001994
84 0.001997
70 0.001995
69 0.001027
73 0.001027
89 0.001031
97 0.000991
97 0.000978
87 0.0
87 0.002026
90 0.002032
99 0.0
102 0.0
111 0.0
117 0.0
103 0.0
59 0.0
38 0.001007
41 0.001995
51 0.002012
60 0.00195
71 0.001997
63 0.003967
58 0.003962
57 0.004988
60 0.006003
69 0.003993
72 0.003995
80 0.003991
84 0.002996
91 0.00202
64 0.001992
22 0.0
11 0.000996
20 0.001032
28 0.001036
44 0.001025
51 0.002992
47 0.002993
41 0.002988
45 0.004046
51 0.005001
60 0.004984
71 0.005023
77 0.005034
91 0.005966
97 0.004986
78 0.006028
33 0.006027
21 0.00602
25 0.006017
34 0.005979
50 0.006953
58 0.005984
53 0.005983
48 0.00599
50 0.008011
56 0.00499
61 0.006971
69 0.00499
74 0.004978
81 0.004986
88 0.004132
97 0.002991
66 0.0
23 0.0
13 0.002049
15 0.002995
28 0.003991
40 0.003997
47 0.00399
43 0.003935
37 0.004988
42 0.004966
48 0.004987
60 0.004997
70 0.005028
77 0.005024
89 0.005984
98 0.004997
100 0.006
69 0.006017
39 0.005018
34 0.005985
42 0.006009
56 0.006025
72 0.00702
74 0.007969
67 0.00794
67 0.005984
71 0.006981
78 0.005979
84 0.006959
93 0.004984
105 0.004948
113 0.003021
122 0.003002
91 0.002
61 0.002024
40 0.001995
43 0.003031
51 0.002009
66 0.0
77 0.0
76 0.0
70 0.0
69 0.0
78 0.0
86 0.0
95 0.0
104 0.002962
116 0.001993
125 0.002999
132 0.001996
111 0.002993
56 0.003989
43 0.003991
44 0.00399
57 0.003965
74 0.005021
80 0.005994
76 0.005969
73 0.005993
77 0.006942
85 0.007014
91 0.006991
101 0.007024
113 0.007018
119 0.007354
131 0.007976
137 0.007966
134 0.007976
85 0.003988
66 0.00598
65 0.003997
80 0.00314
91 0.001988
105 0.001989
104 0.001993
104 0.002024
108 0.001996
112 0.0
122 0.000976
132 0.002004
140 0.0
149 0.001995
159 0.001994
157 0.001996
112 0.0
89 0.001031
86 0.00199
94 0.003025
113 0.006019
120 0.007018
126 0.007012
119 0.005992
118 0.007178
123 0.004001
133 0.003
137 0.002004
147 0.002019
159 0.0
167 0.001014
155 0.001997
99 0.001004
82 0.003027
82 0.004043
92 0.004023
103 0.005012
117 0.006009
113 0.007024
110 0.005986
108 0.006969
111 0.003991
116 0.003032
123 0.00199
133 0.0
139 0.002005
151 0.000999
147 0.001994
94 0.0
66 0.0
69 0.000964
80 0.0
88 0.0
103 0.000967
101 0.0
99 0.0
96 0.0
104 0.0
110 0.0
122 0.0
128 0.0
141 0.0
154 0.0
147 0.0
101 0.001023
84 0.001
86 0.001997
97 0.002038
111 0.003032
122 0.003989
121 0.00504
116 0.004026
114 0.005022
120 0.006986
125 0.007954
135 0.004993
146 0.004998
154 0.004981
157 0.004979
112 0.003992
86 0.002993
78 0.002999
83 0.002026
99 0.003003
111 0.004019
117 0.002043
112 0.003978
107 0.003015
108 0.003013
115 0.003115
120 0.003026
132 0.002992
143 0.001997
152 0.00199
147 0.000998
84 0.000956
71 0.000997
67 0.000998
70 0.0
87 0.003007
98 0.005038
96 0.005038
94 0.005942
92 0.006951
95 0.003015
99 0.002016
108 0.002989
116 0.004004
125 0.001988
134 0.002008
104 0.001963
74 0.001984
53 0.0
53 0.001996
63 0.0
80 0.001
89 0.0
91 0.00103
86 0.0
87 0.0
91 0.0
95 0.0
107 0.000963
117 0.0
126 0.001006
131 0.001443
117 0.001973
71 0.001998
62 0.001
64 0.001996
81 0.003991
94 0.006018
100 0.006031
93 0.006019
89 0.006015
91 0.006017
96 0.005873
102 0.006027
112 0.007965
124 0.005986
133 0.006965
122 0.004998
70 0.004992
53 0.004967
55 0.005025
62 0.004015
79 0.002013
91 0.002985
91 0.001996
87 0.002025
83 0.00403
87 0.002992
96 0.005026
103 0.002028
112 0.003984
129 0.00403
131 0.003026
94 0.003014
55 0.0
39 0.002008
38 0.000998
50 0.000995
64 0.00303
74 0.004021
68 0.002996
69 0.004987
74 0.004982
82 0.005984
89 0.005981
99 0.005974
107 0.005974
120 0.005984
120 0.005984
90 0.003989
47 0.00402
38 0.00499
41 0.003988
59 0.005032
80 0.00204
85 0.014923
77 0.002005
80 0.000959
83 0.002
93 0.0
101 0.0
108 0.000998
123 0.003024
129 0.004027
109 0.00502
59 0.005971
51 0.005985
55 0.005984
70 0.005979
76 0.005991
89 0.005999
85 0.005994
84 0.005004
87 0.005999
92 0.005981
101 0.002986
110 0.005017
118 0.002991
131 0.005183
130 0.004033
101 0.003983
54 0.004024
46 0.001978
50 0.003991
64 0.003012
79 0.004024
86 0.00296
80 0.00201
78 0.002005
84 0.002001
90 0.001998
101 0.002995
111 0.002949
117 0.002958
131 0.002046
133 0.002017
90 0.0
52 0.0
44 0.0
47 0.0
64 0.0
74 0.0
82 0.001871
75 0.002992
74 0.002999
75 0.003027
82 0.002992
94 0.003976
105 0.005028
112 0.006948
120 0.006979
133 0.006245
137 0.005947
100 0.00599
60 0.006
55 0.005975
63 0.00499
81 0.005984
93 0.003993
99 0.00499
96 0.003018
92 0.004987
96 0.003987
104 0.002995
116 0.00399
128 0.000971
136 0.003032
149 0.001947
154 0.001996
123 0.0
80 0.00101
72 0.001007
79 0.000999
97 0.0
108 0.000954
114 0.0
111 0.0
106 0.0
107 0.000997
112 0.003045
125 0.00302
136 0.003932
144 0.003989
154 0.00399
154 0.003948
119 0.004032
79 0.003961
67 0.003992
70 0.005033
83 0.00599
92 0.006013
103 0.007978
102 0.005991
96 0.00702
95 0.004037
104 0.004023
109 0.003998
119 0.00401
126 0.003995
142 0.00399
144 0.00399
115 0.00303
64 0.003004
53 0.002934
56 0.002008
69 0.002028
85 0.00203
92 0.0
86 0.002007
83 0.001995
86 0.002993
95 0.005035
104 0.005955
111 0.006028
122 0.005966
133 0.004991
141 0.006032
107 0.004942
78 0.006011
62 0.003986
68 0.003985
80 0.003989
100 0.00399
106 0.003965
101 0.00399
98 0.003979
100 0.004028
109 0.00299
117 0.005998
125 0.0
138 0.005021
140 0.002969
110 0.00502
69 0.003026
61 0.003023
66 0.003991
84 0.0
92 0.002026
97 0.0
93 0.000997
89 0.000998
92 0.002049
100 0.00295
107 0.004978
117 0.004972
131 0.006008
128 0.005966
75 0.005977
50 0.005984
44 0.006018
46 0.005034
59 0.005019
75 0.004981
74 0.005021
69 0.00299
68 0.005031
70 0.002993
76 0.002998
87 0.002034
97 0.0
107 0.002027
103 0.0
63 0.00101
34 0.000998
21 0.000997
18 0.000997
30 0.002042
48 0.002008
51 0.000998
46 0.000956
43 0.00101
47 0.000998
57 0.001002
65 0.000997
76 0.002783
85 0.002993
95 0.002992
96 0.00296
55 0.00399
20 0.004955
13 0.006035
17 0.006003
36 0.005986
47 0.005977
49 0.006981
45 0.00598
45 0.00599
53 0.005953
64 0.005991
78 0.003016
86 0.002994
99 0.002996
103 0.003156
89 0.001993
45 0.004026
25 0.002
27 0.003996
36 0.002
51 0.004023
64 0.004025
60 0.004035
55 0.003989
60 0.003005
67 0.004027
75 0.000991
88 0.0
92 0.00099
108 0.001995
115 0.001964
103 0.001996
46 0.001844
28 0.002025
27 0.002992
36 0.002992
48 0.002997
64 0.003959
60 0.003981
56 0.003995
59 0.003979
66 0.003992
80 0.004036
89 0.003993
101 0.004
112 0.004053
123 0.003956
129 0.00399
91 0.003985
56 0.004982
38 0.005027
39 0.005018
51 0.006973
67 0.006962
75 0.006982
73 0.005952
69 0.005029
72 0.005023
82 0.004974
90 0.004984
106 0.004972
121 0.004994
128 0.004994
142 0.004987
149 0.007017
151 0.005952
117 0.007019
79 0.00399
75 0.006017
84 0.006025
93 0.006017
115 0.006037
120 0.000956
119 0.006021
116 0.003991
122 0.005984
136 0.002989
148 0.002039
158 0.002001
169 0.002042
182 0.0
189 0.000967
181 0.001
129 0.003959
110 0.004974
112 0.004956
125 0.004995
137 0.004995
149 0.006003
150 0.006041
146 0.006003
147 0.007979
149 0.005981
160 0.007975
170 0.00798
177 0.007979
190 0.005984
202 0.003996
200 0.006029
151 0.003976
122 0.005979
113 0.001961
118 0.0
132 0.0
143 0.001029
150 0.002042
148 0.001995
140 0.001995
140 0.004973
151 0.00597
157 0.005984
163 0.005987
171 0.006944
181 0.00702
190 0.005121
175 0.004986
121 0.005045
107 0.002997
111 0.005017
122 0.002996
142 0.003975
147 0.002998
143 0.002008
143 0.001036
143 0.0
162 0.0
177 0.0
188 0.0
202 0.002005
210 0.002009
204 0.003
158 0.00299
141 0.003001
137 0.004968
145 0.004988
158 0.005021
171 0.004983
168 0.004979
166 0.005021
160 0.004971
164 0.00494
171 0.004992
174 0.004968
184 0.006
197 0.005989
200 0.005824
151 0.005985
112 0.005984
110 0.005984
113 0.005983
125 0.005982
144 0.005969
144 0.00698
139 0.00494
132 0.004984
133 0.007977
137 0.005979
147 0.006981
152 0.005954
163 0.005984
171 0.005019
156 0.005018
101 0.004986
79 0.001994
81 0.00399
90 0.002001
99 0.002992
111 0.0
107 0.0
101 0.0
103 0.000966
111 0.0
117 0.0
128 0.0
139 0.0
146 0.0
157 0.0
144 0.000962
91 0.000904
73 0.001001
76 0.001962
92 0.001918
105 0.00398
116 0.004034
114 0.003941
114 0.00401
116 0.003992
124 0.004006
129 0.00599
142 0.006999
152 0.006982
160 0.006973
156 0.006977
119 0.004986
94 0.004984
89 0.004981
92 0.004976
108 0.005007
127 0.004035
128 0.004021
120 0.001992
121 0.00399
126 0.001994
133 0.002028
140 0.001992
149 0.001987
162 0.00199
168 0.000988
142 0.002023
95 0.004004
80 0.006012
81 0.007019
94 0.007015
113 0.00696
115 0.007013
111 0.006967
103 0.007467
108 0.005939
114 0.00598
118 0.005985
129 0.005976
132 0.005975
145 0.005994
150 0.005987
132 0.005981
77 0.005987
65 0.006981
74 0.003996
82 0.00298
102 0.002028
107 0.002038
104 0.002029
102 0.0
103 0.001021
114 0.0
120 0.0
131 0.001044
143 0.0
150 0.0
163 0.001008
153 0.001951
119 0.003995
88 0.005017
91 0.004978
100 0.005001
117 0.004983
126 0.004988
125 0.004964
117 0.004952
117 0.005939
123 0.006016
129 0.005978
141 0.006015
149 0.006025
154 0.005979
169 0.00598
166 0.005956
133 0.005981
86 0.00596
80 0.007015
84 0.005994
98 0.004986
109 0.004985
119 0.004987
111 0.003989
107 0.002997
111 0.002994
116 0.003009
127 0.0
135 0.003024
144 0.002028
150 0.000998
161 0.002996
166 0.002991
136 0.00299
91 0.002995
70 0.002955
73 0.002989
86 0.005027
97 0.005024
109 0.004957
104 0.004978
100 0.007015
101 0.006961
109 0.005993
116 0.004998
127 0.002967
140 0.0
146 0.001995
158 0.0
166 0.002037
164 0.000955
125 0.002005
94 0.000997
95 0.000986
106 0.001964
119 0.001034
135 0.001961
138 0.002992
132 0.00403
128 0.003989
134 0.004026
139 0.003958
148 0.003997
154 0.004009
163 0.00396
176 0.004026
176 0.004027
139 0.004985
93 0.005985
87 0.005992
91 0.006972
108 0.005005
121 0.004989
129 0.004982
128 0.004983
120 0.004978
119 0.006984
125 0.00499
130 0.00798
140 0.004943
149 0.003988
159 0.003039
165 0.001985
147 0.001992
91 0.0
74 0.002005
73 0.0
86 0.0
99 0.0
110 0.0
110 0.000957
104 0.001
101 0.000954
102 0.000965
113 0.000998
123 0.001965
128 0.002009
138 0.002992
150 0.003986
149 0.011968
92 0.003995
70 0.003997
67 0.003992
76 0.004985
90 0.004984
101 0.007004
107 0.006982
106 0.007989
102 0.007971
108 0.005994
108 0.007969
118 0.005961
125 0.007959
139 0.005977
150 0.00498
148 0.004155
102 0.002993
74 0.004987
71 0.002998
79 0.004979
92 0.002999
105 0.004985
106 0.004988
100 0.004021
93 0.002993
97 0.002986
103 0.002039
112 0.0
119 0.003006
127 0.000998
134 0.001006
118 0.001965
61 0.002959
46 0.004028
47 0.005018
62 0.00602
75 0.00698
80 0.005991
76 0.005986
72 0.003997
72 0.00299
81 0.002992
87 0.004987
95 0.003003
106 0.004984
116 0.003989
105 0.002993
48 0.001997
22 0.0
20 0.00297
29 0.001002
40 0.0
53 0.000988
52 0.001996
45 0.002033
46 0.001949
54 0.001963
61 0.003
72 0.003031
82 0.003028
94 0.002992
98 0.002992
74 0.003019
27 0.004996
21 0.004988
23 0.004983
42 0.004961
55 0.004977
60 0.005017
55 0.006031
54 0.005994
56 0.006982
70 0.007953
75 0.005978
90 0.004986
104 0.002961
111 0.004992
82 0.002001
39 0.001973
32 0.002035
38 0.0
46 0.0
64 0.0
65 0.0
59 0.0
57 0.0
63 0.0
68 0.0
78 0.0
83 0.0
96 0.0
89 0.000973
58 0.001995
12 0.004044
5 0.003999
13 0.003951
24 0.004986
38 0.005958
40 0.006979
33 0.007978
32 0.003982
35 0.006968
46 0.004991
55 0.002991
65 0.001991
77 0.0
62 0.0
25 0.0
0 0.0
0 0.0
0 0.0
3 0.001983
14 0.0
15 0.002028
13 0.0
10 0.001993
19 0.003008
27 0.003
40 0.0
52 0.001046
61 0.006019
73 0.00399
51 0.005984
18 0.006015
0 0.005981
0 0.006944
0 0.007979
19 0.003995
28 0.001998
27 0.001999
25 0.002046
28 0.002165
34 0.002004
50 0.001995
56 0.001995
72 0.003965
87 0.00399
93 0.003991
70 0.003023
19 0.001
8 0.0
11 0.001995
27 0.002996
38 0.003016
49 0.002995
44 0.003959
44 0.00399
48 0.005993
58 0.005981
69 0.00598
83 0.004994
85 0.004995
97 0.004999
109 0.004982
95 0.004951
36 0.004985
12 0.006978
12 0.004009
15 0.006982
28 0.004985
48 0.007016
43 0.006973
36 0.006988
38 0.005981
49 0.007013
63 0.005979
76 0.003003
83 0.00402
100 0.002
120 0.001993
122 0.00302
73 0.001959
47 0.002035
31 0.0
37 0.0
52 0.0
68 0.0
76 0.0
74 0.000998
73 0.001975
84 0.001995
94 0.001996
111 0.002036
122 0.002001
138 0.003022
146 0.004026
156 0.00396
166 0.004946
151 0.005022
120 0.00698
89 0.006985
94 0.005987
103 0.007011
123 0.006982
133 0.006981
134 0.006948
132 0.004989
134 0.004008
142 0.00399
155 0.003969
164 0.003989
179 0.002989
191 0.003986
205 0.0
211 0.002983
174 0.002048
149 0.0
137 0.001872
144 0.000997
158 0.000998
170 0.002048
176 0.001993
171 0.004021
167 0.004026
170 0.005018
178 0.006986
186 0.006971
196 0.007014
206 0.006985
217 0.005989
215 0.005988
170 0.00498
128 0.002964
123 0.00299
129 0.001025
145 0.003029
154 0.000997
163 0.000975
158 0.001998
153 0.000997
155 0.00198
163 0.002006
173 0.003957
180 0.004016
194 0.006022
201 0.007016
185 0.006973
143 0.005143
115 0.007978
113 0.00498
116 0.00698
131 0.013973
139 0.0
151 0.0
142 0.003992
138 0.003982
139 0.00499
151 0.003022
156 0.002029
168 0.001986
182 0.00399
190 0.002014
185 0.002989
144 0.002994
117 0.00311
117 0.001988
126 0.001987
148 0.0
163 0.001998
171 0.001964
170 0.001995
181 0.002011
195 0.002992
218 0.004039
240 0.004041
243 0.00399
253 0.002961
250 0.003981
213 0.004991
188 0.004997
190 0.005987
200 0.005997
218 0.006979
227 0.005975
234 0.007952
137 0.005988
228 0.00798
219 0.007974
219 0.007985
213 0.007982
215 0.005985
215 0.007982
178 0.005988
143 0.007979
111 0.004987
113 0.004987
120 0.004986
140 0.004991
141 0.004986
135 0.004987
130 0.003024
133 0.002959
137 0.002995
144 0.003989
156 0.003015
156 0.003956
118 0.002993
75 0.003974
59 0.003984
65 0.003989
81 0.00295
94 0.0
94 0.003014
86 0.0
86 0.002998
85 0.0
96 0.000953
101 0.0
124 0.0
117 0.0
95 0.000997
51 0.001003
47 0.003025
55 0.003991
68 0.004021
76 0.003991
85 0.004965
81 0.005986
83 0.005983
91 0.006975
100 0.007975
109 0.003977
118 0.005016
132 0.004023
133 0.001992
88 0.002992
54 0.000965
55 0.002992
65 0.000962
86 0.0
98 0.0
99 0.0
99 0.000946
105 0.000954
114 0.0
118 0.0
131 0.0
140 0.0
150 0.0
163 0.001984
158 0.00399
124 0.004976
90 0.005985
90 0.005986
104 0.005956
121 0.006985
135 0.006981
140 0.006982
134 0.006983
136 0.006962
143 0.007979
154 0.003981
162 0.00797
170 0.004975
178 0.008132
189 0.004473
172 0.003045
140 0.003025
110 0.003008
121 0.002996
129 0.002028
149 0.00201
157 0.004986
158 0.003987
151 0.003988
151 0.002992
157 0.003012
166 0.003027
170 0.0
178 0.002045
190 0.002978
190 0.003024
158 0.001996
114 0.002049
103 0.003992
112 0.004988
119 0.006013
139 0.006989
145 0.004979
143 0.002981
140 0.002031
144 0.002995
151 0.003001
158 0.002989
165 0.005025
170 0.001918
180 0.004987
189 0.004034
177 0.003017
118 0.003037
108 0.001012
112 0.000972
122 0.002029
142 0.002993
151 0.002992
148 0.002994
146 0.002993
147 0.003026
153 0.002993
160 0.003051
168 0.002978
174 0.003027
184 0.002992
194 0.003991
195 0.003991
160 0.003991
113 0.006018
112 0.005984
123 0.00395
140 0.005024
153 0.002992
162 0.005017
158 0.003021
158 0.003029
160 0.002044
168 0.0
173 0.0
182 0.0
191 0.0
201 0.002012
208 0.002023
190 0.003033
156 0.003998
138 0.003994
145 0.003991
160 0.003979
180 0.005985
185 0.005975
181 0.00297
173 0.002988
174 0.003002
179 0.002993
184 0.005011
193 0.0
196 0.002035
209 0.001033
212 0.003023
186 0.003991
143 0.004004
130 0.004
135 0.003992
152 0.00402
162 0.003959
177 0.004007
171 0.004003
164 0.004982
164 0.00599
171 0.005977
175 0.005956
180 0.005001
185 0.004991
197 0.004978
191 0.003989
161 0.003997
116 0.004982
114 0.007006
118 0.003023
134 0.005012
146 0.001993
154 0.004998
148 0.004017
148 0.003991
149 0.004032
155 0.0
156 0.002992
162 0.0
173 0.000941
177 0.0
155 0.0
119 0.0
85 0.0
92 0.001982
101 0.000952
119 0.000967
126 0.002027
129 0.002037
120 0.002039
119 0.004989
123 0.004989
125 0.004986
134 0.006976
139 0.005979
147 0.00795
151 0.005989
147 0.005017
94 0.005024
77 0.005024
78 0.00399
96 0.0
108 0.000998
123 0.002006
115 0.000997
111 0.0
113 0.002007
117 0.0
121 0.000948
130 0.002033
138 0.0
143 0.003026
130 0.003036
96 0.003037
64 0.0
68 0.0
78 0.0
91 0.0
104 0.002014
102 0.001996
95 0.002028
92 0.00502
96 0.003999
100 0.005854
103 0.007982
111 0.004021
123 0.002979
124 0.002991
88 0.003005
40 0.002979
34 0.002011
38 0.002002
53 0.002011
63 0.000995
69 0.003213
61 0.0
56 0.002018
55 0.002993
59 0.002027
69 0.002032
75 0.002043
84 0.004987
93 0.000996
94 0.00299
64 0.0
17 0.000997
10 0.002029
22 0.002033
31 0.002043
48 0.001959
51 0.00199
46 0.00288
42 0.004021
51 0.004
57 0.003974
69 0.003993
80 0.004977
84 0.004988
85 0.00599
64 0.005978
17 0.005985
14 0.00682
19 0.003988
29 0.006027
46 0.00599
53 0.005984
45 0.003979
39 0.0
43 0.003023
48 0.001049
58 0.001024
62 0.0
72 0.0
78 0.002015
58 0.002026
2 0.002993
0 0.003975
0 0.004986
0 0.005988
10 0.00698
13 0.004989
14 0.003931
10 0.003989
9 0.004986
14 0.008032
24 0.003984
30 0.007009
40 0.007013
51 0.007022
56 0.007009
34 0.007994
0 0.006986
0 0.003027
0 0.005019
0 0.002992
0 0.003993
0 0.003994
0 0.002976
0 0.000988
0 0.003
60 0.003003
64 0.00099
70 0.003994
74 0.002989
78 0.002011
85 0.003003
84 0.0
61 0.002992
37 0.00399
35 0.003992
38 0.003042
44 0.002988
54 0.002028
56 0.000967
55 0.002001
53 0.0
57 0.0
60 0.000997
68 0.002036
72 0.00203
81 0.00404
88 0.004975
92 0.00598
82 0.005986
59 0.006034
52 0.006976
57 0.004
65 0.004022
77 0.004027
81 0.015908
84 0.000989
84 0.0
86 0.00304
92 0.0
100 0.002992
104 0.004029
111 0.00402
117 0.006017
114 0.005984
89 0.005982
78 0.006013
78 0.006
85 0.00499
90 0.004991
100 0.004995
100 0.004986
99 0.00499
100 0.005122
102 0.004987
107 0.005955
103 0.005967
113 0.002983
121 0.007017
109 0.005984
82 0.005981
50 0.006013
52 0.005098
57 0.004012
76 0.002988
83 0.003025
87 0.002992
83 0.0
85 0.0
90 0.0
96 0.0
101 0.0
112 0.001018
124 0.002993
116 0.003
74 0.002992
59 0.002991
58 0.004005
66 0.004986
79 0.004977
89 0.005988
92 0.007973
90 0.004984
89 0.007982
94 0.006024
98 0.004985
105 0.00502
115 0.001981
124 0.00498
126 0.002026
86 0.0
66 0.0
61 0.0
66 0.0
78 0.000998
94 0.002
99 0.002988
96 0.004031
93 0.004004
97 0.003996
105 0.003984
115 0.004026
119 0.004056
130 0.004001
134 0.003952
119 0.004034
82 0.004997
65 0.004999
71 0.005017
83 0.005015
98 0.005024
112 0.006971
114 0.003994
110 0.006981
112 0.004022
115 0.005985
125 0.001988
136 0.001981
145 0.002016
152 0.003001
117 0.001998
91 0.0
81 0.000998
86 0.001999
101 0.0
116 0.002028
121 0.000956
116 0.003041
113 0.0
114 0.001991
121 0.002057
132 0.001988
138 0.003985
149 0.00502
142 0.004985
113 0.005002
70 0.00502
67 0.00496
72 0.00601
89 0.006002
99 0.005971
104 0.006017
97 0.005952
96 0.004014
99 0.003009
106 0.004035
111 0.003002
121 0.002024
136 0.002924
140 0.001989
98 0.0
63 0.000998
60 0.002014
63 0.000998
75 0.001996
91 0.000996
99 0.002993
97 0.002994
97 0.002992
102 0.002984
106 0.004957
112 0.004954
118 0.004982
128 0.005963
138 0.004965
116 0.004957
85 0.002992
64 0.004027
70 0.005991
83 0.000947
95 0.006983
107 0.002983
106 0.004974
103 0.00502
105 0.00503
114 0.00502
116 0.00502
127 0.004994
139 0.002994
147 0.004988
153 0.002993
140 0.00499
100 0.0
91 0.0
105 0.0
112 0.0
130 0.000998
136 0.002036
132 0.001994
130 0.002028
135 0.001995
143 0.001985
152 0.001998
157 0.004017
170 0.005009
177 0.004986
161 0.004988
118 0.005026
96 0.004989
98 0.005984
110 0.006988
121 0.006962
136 0.007017
135 0.006002
128 0.007963
127 0.003989
132 0.006986
138 0.004008
148 0.004007
152 0.002962
166 0.002988
170 0.002991
148 0.002959
97 0.001001
89 0.003023
88 0.000967
99 0.0
116 0.001995
121 0.002025
114 0.001951
114 0.002992
113 0.00399
119 0.00399
127 0.003992
134 0.00394
145 0.004037
153 0.004025
160 0.005021
127 0.005978
99 0.006978
85 0.006981
91 0.006992
103 0.005982
121 0.003987
130 0.003987
127 0.002002
122 0.002988
125 0.002969
132 0.001994
140 0.003998
145 0.00302
158 0.002992
165 0.002991
159 0.002026
119 0.002994
105 0.002986
107 0.003022
122 0.0
131 0.003001
141 0.0
136 0.000996
132 0.000997
132 0.000994
140 0.003601
144 0.003869
152 0.002991
157 0.003988
164 0.004983
128 0.005967
92 0.005926
77 0.005981
83 0.005985
94 0.00598
109 0.005995
113 0.00598
107 0.005991
99 0.006992
101 0.00701
107 0.007977
113 0.004988
118 0.005017
132 0.003014
133 0.002999
108 0.001998
59 0.002991
51 0.002994
55 0.002004
68 0.002026
77 0.001991
84 0.0
79 0.00299
74 0.0
79 0.003041
84 0.0
87 0.001993
96 0.002041
106 0.002027
114 0.003018
90 0.000997
48 0.001995
37 0.0
36 0.01097
40 0.003026
61 0.005025
71 0.005017
68 0.004987
64 0.005983
67 0.006972
73 0.006017
82 0.005986
90 0.006009
99 0.006007
112 0.004987
114 0.004957
76 0.003984
50 0.002986
40 0.003994
49 0.005986
65 0.00299
79 0.006942
89 0.005074
86 0.00399
88 0.003994
94 0.002987
103 0.003034
113 0.0
119 0.002996
133 0.0
145 0.0
132 0.0
84 0.0
71 0.000997
75 0.002002
86 0.001968
97 0.003027
115 0.003953
117 0.004987
115 0.005985
111 0.006016
121 0.005983
128 0.005983
139 0.005984
151 0.006981
159 0.005955
168 0.008004
156 0.005989
114 0.005985
89 0.005941
93 0.00695
103 0.006018
121 0.002982
130 0.005984
132 0.003026
128 0.006023
127 0.003015
134 0.002994
142 0.003153
149 0.002991
160 0.002991
169 0.003005
176 0.001995
162 0.0
113 0.0
98 0.002031
100 0.0
111 0.00104
128 0.001
136 0.002
132 0.002022
130 0.001964
127 0.001965
135 0.002992
143 0.003972
148 0.006016
158 0.006984
167 0.00599
173 0.006981
158 0.005993
126 0.007973
104 0.006131
107 0.005993
116 0.005984
133 0.005988
144 0.004947
143 0.003
135 0.004983
140 0.002989
143 0.002998
151 0.002026
163 0.000998
168 0.002995
176 0.000998
177 0.001996
146 0.002004
122 0.001961
124 0.001834
136 0.001973
155 0.003995
164 0.003991
164 0.003957
162 0.005023
164 0.004988
171 0.004982
178 0.004978
187 0.005015
206 0.004996
208 0.004
173 0.00599
147 0.00598
144 0.005988
147 0.006971
155 0.004986
163 0.003025
166 0.001988
155 0.000989
147 0.0
145 0.0
146 0.0
151 0.000985
156 0.002
154 0.002998
124 0.003954
79 0.003987
67 0.003956
68 0.004973
85 0.00399
90 0.004012
90 0.005985
83 0.005997
84 0.004946
88 0.005987
91 0.005983
99 0.005978
104 0.006016
107 0.00904
69 0.006985
45 0.006985
35 0.005982
48 0.007979
54 0.006981
64 0.006982
65 0.002979
61 0.003972
39 0.0
38 0.0
48 0.001027
56 0.001962
66 0.002026
60 0.00204
18 0.003044
0 0.003035
0 0.002891
1 0.002993
14 0.004987
20 0.004987
1 0.004987
0 0.004987
0 0.004986
0 0.005987
5 0.005984
7 0.005027
18 0.002959
23 0.002997
5 0.003007
0 0.000954
0 0.0
0 0.00103
0 0.002009
0 0.002989
0 0.002851
0 0.00302
0 0.002995
0 0.002991
0 0.003014
48 0.002954
57 0.003994
63 0.004006
62 0.002951
39 0.003954
33 0.003952
38 0.004987
46 0.006016
56 0.005987
62 0.005977
63 0.007945
63 0.006981
67 0.00698
72 0.002993
78 0.004986
87 0.003
92 0.003965
86 0.002998
63 0.001997
57 0.0
60 0.0
68 0.000959
75 0.0
81 0.0
80 0.000998
80 0.001965
84 0.001989
92 0.00296
97 0.004995
104 0.005989
110 0.005986
111 0.005992
92 0.006016
80 0.00602
82 0.007983
89 0.002995
102 0.002994
109 0.001021
114 0.0
116 0.0
119 0.00203
124 0.000997
131 0.002961
136 0.002962
144 0.001963
146 0.004961
134 0.005956
116 0.005956
116 0.00595
125 0.005986
137 0.005951
145 0.005957
149 0.006015
149 0.004993
149 0.004986
154 0.006981
157 0.006982
163 0.00698
170 0.006937
173 0.007945
159 0.002959
137 0.002
137 0.001978
144 0.00201
150 0.003008
160 0.002991
164 0.003001
163 0.002996
165 0.000978
169 0.002173
171 0.001022
175 0.003002
183 0.00303
187 0.0
174 0.001931
155 0.002896
151 0.00197
156 0.002051
162 0.002995
169 0.00502
176 0.005023
177 0.004988
177 0.005984
179 0.008972
179 0.0
184 0.00301
190 0.001982
195 0.002997
192 0.001995
167 0.002988
161 0.002996
164 0.002992
169 0.002993
177 0.00299
184 0.003012
184 0.0
183 0.0
184 0.0
228 0.0
231 0.0
240 0.0
249 0.000964
250 0.0
224 0.0
191 0.000999
191 0.002043
196 0.001996
212 0.001993
227 0.002026
231 0.002002
224 0.001959
225 0.00202
226 0.000999
228 0.001994
62 0.000997
239 0.002986
246 0.005958
235 0.006
189 0.00597
179 0.006961
182 0.004994
195 0.007014
209 0.00399
216 0.00595
211 0.005992
208 0.00598
207 0.00602
210 0.003959
214 0.005975
222 0.002022
225 0.004982
226 0.003004
188 0.00299
168 0.003012
172 0.001998
186 0.0
199 0.0
213 0.0
212 0.00299
210 0.0
208 0.0
211 0.001003
217 0.001963
224 0.000985
231 0.004018
233 0.003958
200 0.004034
175 0.003979
176 0.003991
191 0.004987
200 0.006017
213 0.007017
214 0.004996
207 0.006997
202 0.002993
205 0.003006
205 0.003022
214 0.003009
214 0.002994
213 0.0
177 0.002042
147 0.000986
148 0.002993
161 0.000996
170 0.0
185 0.0
184 0.0
177 0.0
171 0.000964
177 0.000998
178 0.003001
184 0.002993
190 0.00303
189 0.003028
147 0.002791
123 0.004022
124 0.00498
127 0.005023
141 0.005983
158 0.004945
158 0.003986
152 0.003006
150 0.003006
152 0.003993
156 0.000963
161 0.003025
169 0.001004
172 0.002993
137 0.002995
111 0.002999
102 0.003024
114 0.001968
125 0.003024
140 0.0
143 0.002039
132 0.0
130 0.0
130 0.0
139 0.001031
145 0.000999
147 0.003999
157 0.004957
154 0.004947
126 0.005989
81 0.005978
85 0.005956
92 0.006203
109 0.00698
118 0.006936
122 0.005972
115 0.006981
113 0.003942
114 0.003956
120 0.004948
126 0.004981
133 0.003017
143 0.000961
150 0.002029
139 0.0
96 0.0
83 0.0
90 0.0
101 0.0
120 0.002051
130 0.00202
125 0.001996
119 0.001994
119 0.004953
120 0.003989
127 0.003965
132 0.005996
136 0.004964
147 0.004984
148 0.004986
111 0.005985
76 0.006971
76 0.004965
83 0.005001
104 0.005015
113 0.00399
117 0.003035
107 0.000966
106 0.002028
109 0.0
117 0.000954
118 0.001029
122 0.000963
132 0.000998
139 0.003025
133 0.003017
80 0.003991
65 0.003019
72 0.00399
