78 0.00901
68 0.006995
59 0.006982
56 0.005947
62 0.005983
72 0.005949
79 0.006944
83 0.006971
91 0.005987
100 0.006983
107 0.005984
115 0.006937
122 0.005978
128 0.005952
133 0.00694
139 0.006992
144 0.006949
149 0.007023
155 0.007022
158 0.006982
161 0.005983
167 0.006982
173 0.005986
177 0.005984
179 0.005984
180 0.006983
152 0.007974
116 0.006984
88 0.007021
76 0.006981
62 0.006981
59 0.006981
61 0.006969
75 0.006992
81 0.006981
89 0.007978
92 0.006949
100 0.006989
108 0.007014
114 0.00704
124 0.007975
126 0.007022
134 0.007979
140 0.007983
145 0.006982
151 0.007981
156 0.006979
160 0.005971
161 0.007979
166 0.007981
170 0.007979
176 0.007982
176 0.007978
177 0.006973
153 0.007978
130 0.007979
91 0.00698
70 0.007978
65 0.00703
68 0.006979
75 0.006982
85 0.007977
89 0.007946
93 0.00798
101 0.00796
107 0.007943
112 0.007963
118 0.007931
126 0.007038
134 0.007938
142 0.007966
147 0.007959
150 0.007006
156 0.006992
160 0.007945
164 0.006938
167 0.007014
171 0.007016
176 0.007026
179 0.007013
182 0.007979
183 0.007976
166 0.007968
130 0.007978
80 0.007984
63 0.006981
53 0.006981
50 0.007329
54 0.007025
59 0.007939
73 0.006981
78 0.006982
83 0.006937
95 0.007016
103 0.006979
112 0.007017
118 0.006978
125 0.006982
132 0.007058
137 0.006999
144 0.006982
149 0.007012
153 0.007022
157 0.00697
160 0.006981
167 0.007015
171 0.006026
176 0.00698
180 0.006969
182 0.00599
169 0.005989
135 0.007002
92 0.007019
73 0.007078
61 0.007035
55 0.00704
55 0.006939
69 0.006977
77 0.006981
83 0.006969
89 0.006986
97 0.006017
104 0.005975
110 0.005997
120 0.006982
126 0.005984
132 0.006018
138 0.006029
143 0.006452
151 0.005989
155 0.005999
159 0.005996
163 0.005987
166 0.005986
170 0.005996
174 0.00695
179 0.007015
180 0.007018
181 0.007018
167 0.006018
131 0.006033
85 0.006009
71 0.005985
64 0.006004
65 0.005988
72 0.005959
81 0.005969
86 0.006002
92 0.006019
98 0.006016
105 0.005021
111 0.005021
118 0.006022
128 0.005985
132 0.005984
139 0.005986
143 0.00598
147 0.005992
151 0.005981
155 0.005971
158 0.005023
161 0.005021
166 0.004987
169 0.004988
173 0.00502
178 0.00498
178 0.005019
150 0.005968
112 0.006034
85 0.006031
67 0.006016
56 0.00602
52 0.005023
57 0.00502
66 0.004986
73 0.005022
78 0.005018
87 0.004975
93 0.005011
100 0.004986
109 0.004981
117 0.004986
123 0.005985
128 0.005991
134 0.00502
141 0.004986
146 0.004987
150 0.00498
155 0.005018
161 0.004987
164 0.005018
168 0.004978
173 0.005021
177 0.004965
180 0.004982
181 0.005024
166 0.005033
117 0.004022
86 0.004021
66 0.003989
54 0.004986
47 0.004992
52 0.005061
62 0.005023
73 0.004938
77 0.005018
83 0.004983
91 0.004987
99 0.004986
107 0.004989
115 0.005023
122 0.004963
128 0.00494
137 0.004975
142 0.004986
147 0.004947
153 0.005005
156 0.004976
159 0.004026
163 0.004036
167 0.004017
173 0.003989
177 0.004035
179 0.003995
178 0.00399
135 0.004998
99 0.003989
76 0.003989
59 0.003996
53 0.004986
53 0.00399
62 0.004034
70 0.004023
79 0.00399
85 0.004027
91 0.004033
97 0.00399
109 0.00403
116 0.004018
122 0.003993
129 0.003956
136 0.002997
141 0.002993
146 0.003033
151 0.003041
157 0.004002
159 0.004023
162 0.003954
166 0.004028
172 0.003991
176 0.004039
179 0.004013
181 0.003987
169 0.003999
135 0.002994
101 0.003037
79 0.002993
65 0.002959
61 0.002991
63 0.003011
72 0.002979
82 0.00299
86 0.003979
91 0.00399
96 0.003957
106 0.00302
111 0.002988
117 0.003047
123 0.003024
128 0.002994
134 0.003024
139 0.00304
144 0.003037
151 0.002982
155 0.00303
158 0.00299
161 0.003972
166 0.002989
170 0.003044
174 0.002994
177 0.003051
179 0.002993
157 0.002992
121 0.002993
88 0.002994
56 0.002976
47 0.002954
44 0.002957
48 0.002978
61 0.001995
68 0.001995
72 0.00213
79 0.003045
85 0.001996
95 0.001995
102 0.001995
109 0.002993
120 0.001996
126 0.002961
131 0.001996
138 0.002997
144 0.003016
149 0.002998
155 0.002993
158 0.001997
161 0.002005
167 0.001995
171 0.001995
174 0.001988
180 0.002015
181 0.001993
164 0.00198
127 0.001994
84 0.001995
66 0.001993
54 0.001995
48 0.00203
49 0.001995
61 0.002006
69 0.002042
75 0.002003
84 0.001049
91 0.001001
99 0.001999
106 0.002003
115 0.001995
121 0.00204
127 0.001995
133 0.001992
139 0.001991
145 0.001995
149 0.001995
153 0.002015
159 0.001012
163 0.001997
167 0.000998
170 0.000988
176 0.000998
178 0.000957
179 0.000993
168 0.000941
134 0.001013
100 0.000956
73 0.000996
63 0.000994
59 0.001995
65 0.001998
73 0.001998
79 0.002029
83 0.000997
90 0.001005
96 0.000997
103 0.001002
110 0.000998
116 0.000997
123 0.000997
128 0.000998
136 0.001029
139 0.000997
143 0.000997
147 0.000994
150 0.000993
153 0.000999
157 0.000997
161 0.0
164 0.0
167 0.001012
171 0.000997
169 0.001058
124 0.000999
90 0.000982
69 0.000999
56 0.0
49 0.000981
49 0.0
57 0.000996
65 0.000966
70 0.0
74 0.0
83 0.0
89 0.0
100 0.0
107 0.0
113 0.0
120 0.000995
125 0.0
132 0.000998
137 0.000998
142 0.000998
146 0.000988
150 0.0
154 0.0
157 0.0
164 0.0
168 0.0
171 0.0
173 0.0
166 0.0
122 0.0
88 0.0
64 0.0
50 0.0
41 0.0
40 0.0
48 0.0
62 0.0
68 0.0
73 0.0
79 0.0
87 0.0
97 0.0
103 0.000997
110 0.0
119 0.0
124 0.0
129 0.000998
135 0.000997
143 0.0
147 0.0
150 0.0
153 0.0
157 0.0
162 0.0
166 0.001028
169 0.0
170 0.0
156 0.0
121 0.000997
89 0.000999
59 0.0
51 0.001013
48 0.000991
57 0.0
65 0.0
70 0.0
75 0.0
82 0.000946
90 0.0
94 0.000998
101 0.000998
110 0.000997
117 0.001005
124 0.00103
130 0.001025
135 0.0
139 0.0
143 0.0
147 0.001014
149 0.000997
153 0.000999
158 0.000998
161 0.001034
164 0.001995
166 0.000973
156 0.001987
124 0.001992
82 0.00096
70 0.000999
57 0.001
51 0.001028
52 0.001031
60 0.00101
68 0.001042
73 0.002035
78 0.001004
89 0.0
95 0.00094
103 0.000998
111 0.000955
117 0.000944
123 0.00103
128 0.002028
132 0.001995
139 0.001
144 0.001036
148 0.000998
151 0.001995
156 0.000981
160 0.001048
163 0.00197
168 0.00099
171 0.001048
170 0.000998
144 0.001007
107 0.001987
77 0.001998
53 0.000997
44 0.000963
40 0.001987
49 0.00105
58 0.002049
63 0.002026
71 0.000977
76 0.000998
83 0.001043
91 0.002028
98 0.002028
107 0.001022
113 0.000995
119 0.000998
124 0.002992
133 0.001999
138 0.003001
141 0.003028
147 0.002016
150 0.002027
153 0.002016
159 0.002028
163 0.002028
167 0.002038
167 0.000977
151 0.000953
116 0.002992
71 0.001972
57 0.003026
49 0.003032
48 0.002992
55 0.002026
65 0.002028
71 0.002035
75 0.003025
81 0.002992
91 0.00203
97 0.002028
104 0.002039
114 0.000934
120 0.002995
126 0.00203
131 0.003029
137 0.00202
140 0.003035
146 0.001981
149 0.003025
152 0.002989
158 0.002026
161 0.00204
165 0.002043
169 0.002029
168 0.00196
152 0.002982
117 0.003
81 0.002031
67 0.002019
61 0.001979
58 0.004025
64 0.004021
74 0.003018
78 0.002992
83 0.003034
92 0.002987
96 0.00299
105 0.00402
110 0.003009
118 0.001982
123 0.001992
127 0.002052
132 0.002992
137 0.002992
142 0.001998
146 0.00203
149 0.003022
155 0.003025
158 0.003014
162 0.003983
165 0.004026
168 0.003023
164 0.002993
140 0.002997
104 0.00402
77 0.003025
55 0.002987
48 0.00402
43 0.002973
53 0.002991
60 0.002991
65 0.004021
71 0.003989
79 0.003034
86 0.002985
93 0.003029
100 0.003989
107 0.004027
115 0.004012
120 0.00402
125 0.004021
132 0.004021
138 0.002992
142 0.004023
146 0.004003
150 0.002992
155 0.002997
160 0.002993
163 0.004024
165 0.004986
162 0.004033
135 0.004021
98 0.004023
60 0.004023
48 0.002991
42 0.004021
43 0.005034
51 0.00399
63 0.003027
68 0.002994
74 0.003017
80 0.003989
87 0.005018
97 0.003991
103 0.003979
114 0.003987
120 0.003989
125 0.004022
131 0.005018
135 0.005035
141 0.002984
145 0.004027
147 0.004028
151 0.004987
155 0.003976
160 0.005023
162 0.005022
166 0.004025
154 0.004024
121 0.003988
90 0.004988
70 0.005019
59 0.005013
54 0.004026
58 0.003974
66 0.005023
72 0.00502
78 0.004989
83 0.004952
94 0.004996
100 0.004993
107 0.005024
111 0.005984
117 0.00598
123 0.004953
127 0.005025
130 0.005022
137 0.004987
141 0.005023
145 0.003984
148 0.005034
155 0.004944
158 0.004982
162 0.00502
165 0.005984
164 0.006028
134 0.005043
99 0.005024
75 0.00502
60 0.005985
52 0.006983
49 0.005027
52 0.006016
67 0.004987
71 0.005022
77 0.005019
84 0.006017
90 0.006029
100 0.005022
107 0.005028
113 0.004946
119 0.005984
124 0.007015
130 0.006035
134 0.00602
140 0.006017
143 0.006021
144 0.006015
148 0.006024
150 0.00604
154 0.004994
156 0.005021
158 0.005021
154 0.007013
131 0.006015
85 0.006025
62 0.006019
43 0.006039
38 0.006022
40 0.006016
46 0.006014
53 0.00703
58 0.007019
68 0.006027
76 0.004968
82 0.00602
93 0.006981
100 0.006982
108 0.005983
115 0.007018
123 0.005982
128 0.005982
133 0.006019
138 0.007018
142 0.007008
147 0.006027
151 0.006003
156 0.006007
160 0.007946
164 0.007979
169 0.00702
161 0.007024
132 0.007014
97 0.007007
71 0.006985
51 0.006981
44 0.006981
42 0.005981
51 0.005983
61 0.006963
66 0.007982
71 0.007979
81 0.007015
93 0.007982
100 0.007016
106 0.007031
110 0.007027
119 0.00698
124 0.007011
131 0.005985
137 0.006982
141 0.006986
144 0.007979
147 0.007979
153 0.007015
159 0.008004
164 0.007004
168 0.007013
169 0.006976
152 0.00798
119 0.007979
89 0.007018
71 0.007014
60 0.007014
55 0.007982
57 0.007979
64 0.007979
76 0.007978
82 0.00698
88 0.006982
95 0.007027
101 0.007979
108 0.007979
116 0.006977
121 0.007001
128 0.007009
133 0.00701
139 0.007029
142 0.007941
148 0.006982
152 0.006965
154 0.007979
160 0.006981
163 0.007979
167 0.00798
171 0.006996
170 0.006984
142 0.007016
108 0.007014
82 0.006983
67 0.007016
60 0.00698
62 0.007021
72 0.007021
78 0.007021
80 0.007979
86 0.007978
92 0.007979
101 0.007029
110 0.00701
116 0.006987
122 0.007013
129 0.007012
138 0.006986
143 0.006857
149 0.007011
154 0.006971
157 0.007013
159 0.007014
163 0.006022
169 0.005977
172 0.007021
176 0.006981
178 0.007014
175 0.006982
126 0.006976
95 0.007014
71 0.007027
61 0.006981
56 0.006981
56 0.006985
65 0.006016
75 0.006018
80 0.005978
86 0.005964
93 0.00602
99 0.006015
112 0.006983
117 0.007022
126 0.007012
132 0.007014
137 0.00602
142 0.006016
148 0.00602
153 0.006014
157 0.006046
161 0.006017
164 0.006015
168 0.006021
175 0.005975
179 0.006023
180 0.007026
163 0.007024
130 0.006018
101 0.005984
84 0.005991
71 0.005987
68 0.006018
71 0.006014
79 0.006009
86 0.006024
93 0.006015
100 0.006018
109 0.005021
115 0.005022
122 0.005027
128 0.006017
134 0.006027
141 0.006017
147 0.006039
151 0.006018
155 0.005983
160 0.006017
165 0.005972
169 0.006017
173 0.005019
177 0.005015
181 0.005019
183 0.005023
183 0.005022
161 0.005018
128 0.004995
103 0.005984
90 0.005984
83 0.005018
84 0.005017
92 0.005017
100 0.006025
104 0.006017
108 0.004987
114 0.004986
120 0.005027
126 0.005018
134 0.00502
140 0.005011
145 0.004983
151 0.005023
158 0.005022
163 0.005031
167 0.004022
172 0.004965
175 0.004986
178 0.005021
182 0.00502
187 0.004988
191 0.004983
194 0.004987
192 0.005021
168 0.004992
113 0.004988
92 0.00399
79 0.00399
70 0.004021
70 0.003989
78 0.003987
86 0.003988
91 0.004021
97 0.004027
104 0.003974
110 0.003983
117 0.00502
127 0.005024
133 0.00502
139 0.004026
146 0.005019
151 0.00399
156 0.004026
161 0.004022
164 0.004023
169 0.004023
173 0.004023
178 0.004024
181 0.00399
187 0.004013
187 0.004986
174 0.004025
132 0.004988
105 0.004021
90 0.004021
81 0.004032
77 0.004045
83 0.003992
90 0.004024
95 0.004022
100 0.003993
109 0.004025
116 0.003992
122 0.00399
130 0.00399
137 0.003991
141 0.003991
145 0.002994
150 0.002993
155 0.002993
159 0.004032
163 0.004022
166 0.004021
172 0.004023
177 0.004
180 0.00402
185 0.003019
186 0.00302
179 0.002992
151 0.003049
118 0.002959
90 0.002957
78 0.003024
71 0.003037
71 0.002934
82 0.002992
88 0.00403
91 0.003959
99 0.00399
105 0.003025
111 0.002991
117 0.002961
124 0.003037
129 0.002993
135 0.002993
141 0.002999
145 0.002993
154 0.00299
157 0.002992
160 0.002992
164 0.001994
168 0.002959
172 0.003023
176 0.003023
179 0.002993
180 0.002992
162 0.002959
127 0.002949
97 0.003001
70 0.002989
61 0.002997
57 0.002996
63 0.002992
75 0.003024
80 0.001994
86 0.002026
91 0.002025
98 0.001995
107 0.002994
114 0.002992
120 0.003041
130 0.003006
136 0.002993
142 0.003027
145 0.002992
151 0.002044
156 0.002026
159 0.001995
163 0.001995
167 0.002028
173 0.001995
176 0.001996
179 0.002027
172 0.001995
145 0.002992
112 0.002995
90 0.001995
75 0.002035
68 0.002998
66 0.001995
73 0.001998
81 0.002028
88 0.001995
94 0.001994
101 0.002025
112 0.002032
118 0.001995
124 0.00203
130 0.002022
138 0.00203
144 0.001995
148 0.002042
153 0.001996
157 0.001995
161 0.002005
165 0.000999
170 0.000998
176 0.000997
179 0.000998
181 0.000997
182 0.000997
164 0.001997
132 0.001997
108 0.001995
94 0.001995
87 0.001
83 0.000997
89 0.000997
96 0.000999
102 0.000999
106 0.000998
112 0.000962
118 0.002053
125 0.000998
132 0.000997
137 0.001995
142 0.002003
146 0.001995
150 0.001997
157 0.000998
161 0.000998
165 0.000979
168 0.001008
172 0.000998
176 0.000998
180 0.000997
185 0.00095
187 0.000997
183 0.000997
158 0.000998
125 0.001003
94 0.000998
80 0.000998
67 0.001006
68 0.000998
76 0.000998
83 0.000995
87 0.000997
94 0.000997
100 0.000997
106 0.0
113 0.0
119 0.0
127 0.0
133 0.0
141 0.0
147 0.0
151 0.0
155 0.0
159 0.0
163 0.000967
168 0.000963
172 0.001012
176 0.000998
180 0.0
181 0.0
172 0.0
121 0.0
97 0.0
83 0.0
73 0.0
69 0.0
72 0.0
79 0.0
86 0.0
91 0.000998
98 0.0
104 0.0
110 0.0
121 0.0
126 0.0
131 0.0
137 0.0
143 0.0
148 0.0
153 0.0
158 0.0
160 0.0
164 0.0
168 0.000998
172 0.000999
177 0.000964
179 0.0
177 0.0
153 0.0
121 0.0
99 0.000998
87 0.001042
78 0.0
77 0.0
84 0.0
90 0.000997
94 0.001002
101 0.000997
106 0.001005
111 0.000998
118 0.000993
124 0.0
127 0.0
133 0.0
138 0.000989
144 0.0
148 0.0
153 0.0
155 0.001001
161 0.0
165 0.001002
169 0.000999
173 0.0
175 0.0
177 0.0
171 0.001962
143 0.001995
103 0.000998
83 0.0
70 0.0
62 0.000987
62 0.000992
70 0.00104
75 0.001031
81 0.000996
86 0.000996
92 0.001023
97 0.001995
104 0.001993
112 0.000958
117 0.000998
123 0.000998
128 0.002009
136 0.0
141 0.001015
146 0.00103
150 0.001
154 0.001008
158 0.000995
162 0.002033
166 0.001995
170 0.000959
170 0.000998
156 0.00103
123 0.002005
79 0.000998
64 0.001995
54 0.001996
50 0.001014
56 0.000982
63 0.001048
70 0.002027
75 0.002026
82 0.001006
89 0.001035
97 0.000999
103 0.002026
113 0.000997
119 0.002005
124 0.001995
132 0.000997
137 0.00103
142 0.001996
146 0.002992
149 0.003027
154 0.001034
159 0.001051
163 0.00104
167 0.002032
170 0.000965
163 0.001996
133 0.001996
93 0.002036
75 0.002036
63 0.002019
57 0.003021
56 0.003025
66 0.002042
73 0.002027
78 0.000998
82 0.003026
92 0.000998
99 0.002985
106 0.002021
113 0.001012
119 0.001999
124 0.000985
129 0.001992
134 0.002992
139 0.002991
145 0.001982
148 0.001996
152 0.002027
158 0.002037
163 0.002032
167 0.002998
170 0.002992
173 0.002033
169 0.002032
143 0.002001
111 0.002992
89 0.003989
73 0.00304
68 0.00196
68 0.002011
81 0.001978
86 0.001985
89 0.002992
93 0.002992
101 0.001944
107 0.001994
113 0.001947
119 0.002992
124 0.002994
130 0.002993
135 0.003006
140 0.002008
148 0.003026
152 0.003025
155 0.003987
158 0.004001
163 0.003026
167 0.003013
171 0.002005
174 0.003987
175 0.002987
164 0.002029
132 0.002988
100 0.002992
69 0.002995
58 0.002997
53 0.004021
55 0.004049
67 0.003003
74 0.003019
79 0.00303
84 0.004024
91 0.004026
100 0.003026
106 0.00401
113 0.002962
122 0.003031
127 0.002975
132 0.003989
138 0.003989
144 0.004028
147 0.003022
151 0.003035
154 0.00399
158 0.00404
164 0.004033
169 0.00299
171 0.002997
170 0.004019
147 0.004022
113 0.005023
86 0.005034
64 0.002973
55 0.002993
51 0.002995
55 0.004031
64 0.00399
73 0.002992
78 0.002983
84 0.002992
96 0.002985
103 0.003034
109 0.00299
116 0.00399
121 0.004985
129 0.003976
134 0.003992
138 0.003985
143 0.004985
148 0.004995
152 0.003989
155 0.003988
163 0.004042
167 0.00403
169 0.004034
171 0.006016
172 0.006027
154 0.004033
119 0.003991
92 0.004007
76 0.006016
64 0.004987
58 0.003977
63 0.003943
76 0.003993
80 0.004006
84 0.003972
90 0.004987
97 0.004987
105 0.004022
112 0.004013
118 0.004029
123 0.005025
128 0.005029
136 0.004942
140 0.005029
147 0.005022
150 0.005023
152 0.005032
155 0.005979
160 0.005985
166 0.005019
169 0.004025
173 0.004972
174 0.004979
166 0.004988
123 0.00499
92 0.005005
61 0.004978
50 0.004986
46 0.004992
49 0.006016
57 0.006031
66 0.005001
72 0.004965
77 0.005022
83 0.005984
90 0.007014
100 0.005019
106 0.005022
116 0.005022
122 0.005007
128 0.004987
133 0.005985
138 0.005985
145 0.004987
148 0.005002
151 0.004989
155 0.005969
159 0.00599
164 0.004986
168 0.004989
171 0.005021
158 0.006016
125 0.005985
94 0.007032
71 0.007015
54 0.005025
48 0.004976
48 0.004986
57 0.006032
66 0.006019
73 0.004976
78 0.004986
90 0.005988
97 0.006085
104 0.005985
109 0.00602
116 0.006992
122 0.007013
129 0.006019
134 0.006028
139 0.006019
144 0.006981
148 0.007009
153 0.005994
157 0.007022
163 0.005982
166 0.005968
171 0.005983
174 0.007015
173 0.006981
148 0.005974
114 0.005984
87 0.006009
71 0.007028
61 0.007019
58 0.006019
65 0.007978
75 0.006982
80 0.007018
85 0.005986
92 0.007979
100 0.007983
107 0.005985
113 0.006002
118 0.005983
123 0.007017
129 0.007023
136 0.005985
144 0.007949
148 0.007013
151 0.007019
155 0.00703
158 0.007985
162 0.006983
167 0.005992
170 0.005987
172 0.007009
173 0.007977
160 0.007984
128 0.007013
89 0.007979
69 0.007017
62 0.006991
59 0.007017
65 0.007979
74 0.007043
78 0.005983
81 0.006977
87 0.006983
95 0.007945
99 0.007979
106 0.006983
113 0.007948
120 0.006985
125 0.007016
130 0.007013
135 0.007944
139 0.007947
146 0.007015
150 0.006981
152 0.006977
155 0.00699
159 0.006972
165 0.006973
167 0.007979
165 0.006986
140 0.006978
103 0.007015
67 0.007014
51 0.007019
39 0.007014
37 0.007012
43 0.006952
53 0.00698
59 0.006981
67 0.006967
76 0.007014
83 0.007014
89 0.006976
97 0.006995
106 0.007014
111 0.007013
118 0.006982
126 0.006946
131 0.006956
136 0.006981
141 0.006959
143 0.006982
150 0.006979
154 0.007017
160 0.006018
163 0.006014
165 0.006021
163 0.007018
141 0.005986
94 0.007032
71 0.006983
55 0.006984
45 0.007
41 0.006979
50 0.007015
57 0.007021
65 0.007017
70 0.007016
78 0.006019
85 0.00602
93 0.006036
101 0.006018
107 0.005992
113 0.005991
119 0.005988
123 0.006974
132 0.007031
138 0.006019
144 0.006018
147 0.005431
152 0.005989
157 0.005982
161 0.005988
165 0.007017
167 0.006991
163 0.006998
136 0.006017
104 0.005986
73 0.00598
64 0.006016
59 0.006026
66 0.00599
74 0.005992
79 0.006017
83 0.006016
91 0.005984
97 0.004987
103 0.004987
109 0.005986
115 0.005997
124 0.006021
129 0.006017
136 0.005951
140 0.006018
145 0.006005
149 0.006017
151 0.006015
156 0.00602
161 0.004985
164 0.005987
168 0.005986
170 0.004953
155 0.005024
122 0.00502
84 0.005042
69 0.005018
58 0.005023
51 0.005049
52 0.006029
64 0.006041
70 0.00599
75 0.005005
80 0.004961
87 0.004991
98 0.005019
105 0.005022
111 0.00502
118 0.003989
123 0.00402
129 0.00502
135 0.005015
141 0.004989
147 0.004022
150 0.003974
155 0.005006
160 0.004985
168 0.005018
171 0.004992
173 0.004983
165 0.00502
135 0.005017
102 0.004987
79 0.004985
65 0.004986
52 0.003983
51 0.003987
57 0.003995
64 0.003989
72 0.00399
78 0.004021
86 0.005017
95 0.004982
102 0.004988
109 0.005022
115 0.00502
120 0.00499
128 0.003995
132 0.003993
138 0.00399
143 0.00399
150 0.003991
154 0.004021
158 0.004019
165 0.004989
169 0.005054
173 0.005046
175 0.004023
167 0.003995
129 0.003986
101 0.003989
86 0.003955
77 0.003958
73 0.00402
80 0.00399
86 0.004037
92 0.00402
96 0.004012
102 0.005021
108 0.00399
114 0.003998
123 0.002983
128 0.002995
133 0.003954
139 0.003996
147 0.003991
151 0.004024
155 0.004025
160 0.004003
163 0.003914
168 0.00399
172 0.004021
176 0.004018
180 0.002957
182 0.002963
176 0.003986
150 0.002953
103 0.002993
88 0.003022
79 0.003007
74 0.003033
77 0.002992
84 0.003003
90 0.003936
94 0.003956
101 0.003958
107 0.00396
112 0.00301
119 0.002985
124 0.002991
134 0.002996
140 0.002993
145 0.00299
151 0.002963
156 0.002992
161 0.002992
164 0.002975
167 0.002986
173 0.002946
178 0.002991
182 0.002994
185 0.002993
181 0.002993
155 0.002061
123 0.002994
95 0.003004
83 0.002992
76 0.002993
72 0.002996
76 0.00296
87 0.002988
91 0.002988
96 0.002996
101 0.001978
112 0.002028
118 0.001995
124 0.001996
132 0.002993
138 0.002992
144 0.002999
149 0.002001
154 0.001997
159 0.002997
162 0.002992
166 0.003034
171 0.003008
179 0.003049
183 0.001995
186 0.001996
185 0.002065
166 0.001995
134 0.001845
112 0.002002
99 0.001966
89 0.002009
86 0.002014
92 0.001994
99 0.000973
106 0.000963
109 0.00199
115 0.001996
124 0.002041
131 0.002026
137 0.001999
143 0.00201
148 0.002004
154 0.002038
160 0.001999
164 0.001993
168 0.000995
173 0.001004
176 0.000997
180 0.000998
185 0.001042
189 0.002037
191 0.001983
191 0.001981
173 0.001995
134 0.00201
114 0.002021
102 0.001022
95 0.000992
94 0.001006
101 0.001016
106 0.000998
110 0.000997
114 0.000997
120 0.001029
125 0.001961
131 0.00197
139 0.001966
143 0.002
148 0.002056
153 0.002014
161 0.000998
166 0.000998
169 0.000998
173 0.001001
178 0.000997
181 0.000998
185 0.000959
189 0.000998
193 0.000995
192 0.001003
176 0.000972
143 0.000986
105 0.000998
93 0.000965
84 0.0
80 0.0
88 0.000997
96 0.0
100 0.000994
105 0.001014
111 0.000997
118 0.000976
125 0.001012
131 0.000988
140 0.000997
146 0.000997
150 0.000998
156 0.000997
162 0.0
166 0.0
171 0.0
175 0.0
179 0.0
185 0.0
190 0.0
192 0.0
190 0.000997
167 0.0
136 0.0
114 0.0
97 0.0
91 0.0
89 0.0
94 0.0
102 0.0
108 0.0
112 0.0
117 0.0
127 0.0
132 0.0
138 0.000999
144 0.0
150 0.0
154 0.0
159 0.000997
164 0.0
167 0.0
172 0.0
175 0.000945
179 0.0
186 0.000998
190 0.0
193 0.0
190 0.0
171 0.002034
142 0.002026
116 0.0
107 0.0
103 0.0
103 0.0
109 0.000985
117 0.0
120 0.002045
125 0.0
130 0.0
134 0.0
142 0.001012
146 0.000987
150 0.000984
153 0.000958
158 0.0
161 0.00099
166 0.000964
169 0.0
173 0.000994
178 0.0
182 0.0
186 0.0
190 0.001003
191 0.002023
183 0.001001
146 0.0
118 0.0
100 0.0
90 0.001031
85 0.001993
87 0.001014
93 0.002024
98 0.0
102 0.0
107 0.0
112 0.002025
117 0.001031
124 0.0
129 0.0
136 0.0
141 0.001031
145 0.001035
153 0.000999
157 0.000999
162 0.001008
165 0.0
168 0.000958
172 0.002018
176 0.00103
180 0.001036
182 0.0
173 0.0
142 0.000977
112 0.001028
83 0.002042
74 0.001043
70 0.0
75 0.0
82 0.0
87 0.001995
92 0.002043
98 0.0
104 0.0
111 0.0
118 0.002031
123 0.002028
133 0.001044
138 0.001995
146 0.000998
150 0.000952
154 0.002008
158 0.002027
162 0.001962
167 0.0
171 0.0
175 0.001994
178 0.001996
179 0.001958
158 0.001999
127 0.002025
97 0.001
85 0.00204
79 0.002004
77 0.001965
82 0.002029
92 0.002002
95 0.000949
99 0.000978
104 0.002999
110 0.003025
120 0.002992
126 0.003024
132 0.000976
138 0.00098
142 0.002008
148 0.001996
152 0.002056
159 0.00199
165 0.001084
170 0.002069
176 0.001995
182 0.001995
187 0.002992
188 0.002943
186 0.002011
166 0.001943
134 0.002008
108 0.002993
95 0.003025
85 0.002019
83 0.002033
88 0.002042
94 0.001995
97 0.002998
103 0.001009
109 0.002992
114 0.003024
122 0.001995
126 0.00199
131 0.001997
137 0.002987
142 0.002993
147 0.000994
151 0.002038
155 0.001995
158 0.002983
163 0.002036
167 0.002989
172 0.003025
176 0.00202
178 0.003059
177 0.002031
160 0.00399
126 0.00403
92 0.001961
77 0.001996
67 0.001996
62 0.003027
70 0.001994
77 0.003986
81 0.002992
86 0.002006
92 0.001964
100 0.002994
106 0.002964
112 0.00302
121 0.002989
125 0.00203
130 0.001993
136 0.004028
144 0.001987
148 0.003989
151 0.004033
157 0.002994
162 0.002995
166 0.002005
169 0.002954
172 0.004953
172 0.002945
153 0.002965
119 0.002
92 0.003948
69 0.002974
62 0.004027
61 0.003989
70 0.001973
77 0.002
81 0.001032
85 0.004023
92 0.004032
101 0.002986
107 0.002037
113 0.001995
120 0.003992
129 0.002987
134 0.004026
138 0.003989
145 0.001952
149 0.002943
152 0.003977
156 0.004987
160 0.004989
165 0.002987
169 0.002986
171 0.003008
171 0.004973
140 0.003004
108 0.004986
88 0.004989
74 0.00399
69 0.003955
71 0.003992
77 0.003928
84 0.005026
87 0.005018
92 0.002992
98 0.003045
104 0.003007
113 0.003983
119 0.002994
125 0.004985
130 0.005987
136 0.003988
140 0.00399
145 0.003989
148 0.004988
152 0.004987
158 0.003989
162 0.004987
166 0.003989
171 0.003989
173 0.003988
163 0.005987
131 0.005985
92 0.004004
74 0.004005
61 0.003989
55 0.005985
55 0.006983
65 0.004988
71 0.004988
75 0.004987
85 0.004987
91 0.004987
98 0.005986
104 0.005984
113 0.003989
119 0.003979
124 0.003989
129 0.005985
135 0.00599
141 0.003988
146 0.004987
149 0.004988
156 0.004987
161 0.004986
166 0.005984
169 0.006011
171 0.003989
160 0.004988
128 0.004991
98 0.005985
77 0.005986
59 0.004987
53 0.004032
53 0.00403
65 0.005005
69 0.004986
73 0.006978
79 0.007013
88 0.004992
95 0.004993
102 0.004981
109 0.00602
114 0.007037
123 0.004017
130 0.004983
134 0.00603
141 0.004988
145 0.005022
148 0.007014
153 0.007015
159 0.004991
164 0.005008
168 0.005018
171 0.006025
166 0.005987
129 0.004988
100 0.005987
81 0.005986
65 0.005986
62 0.006021
67 0.006987
76 0.007021
83 0.00603
87 0.005013
93 0.004954
101 0.007982
105 0.007019
111 0.007017
119 0.005997
124 0.005994
132 0.006002
137 0.005991
142 0.005984
146 0.00698
151 0.00698
157 0.005011
160 0.006014
164 0.004994
168 0.007011
172 0.007971
173 0.005988
159 0.005987
106 0.00598
86 0.005981
75 0.005988
68 0.006992
66 0.007015
75 0.005987
82 0.005987
87 0.006978
94 0.007973
100 0.007988
106 0.006994
113 0.005978
123 0.005983
129 0.005987
134 0.005996
141 0.007012
145 0.007984
150 0.00599
153 0.007
158 0.006958
164 0.007992
168 0.007978
172 0.006989
176 0.00699
175 0.007025
157 0.005984
123 0.006
89 0.007982
79 0.00798
67 0.006966
66 0.006964
72 0.006982
82 0.007995
87 0.007978
92 0.006982
97 0.006982
108 0.006992
115 0.007026
121 0.006015
129 0.007941
134 0.006978
139 0.005974
146 0.006982
149 0.006969
154 0.006984
158 0.006979
163 0.006983
167 0.006992
173 0.004956
175 0.006018
176 0.006981
150 0.007977
117 0.007981
94 0.006028
77 0.006977
72 0.006991
72 0.006997
79 0.00698
87 0.006974
91 0.006984
99 0.006982
105 0.006968
112 0.006988
118 0.006982
124 0.007946
132 0.006968
137 0.006974
142 0.006959
146 0.006982
150 0.006982
154 0.006986
160 0.006979
165 0.006981
171 0.007021
175 0.006979
178 0.006978
175 0.005984
151 0.005985
105 0.005986
81 0.005988
65 0.005992
55 0.006977
51 0.00699
59 0.006997
70 0.007015
76 0.006018
82 0.006983
89 0.005989
97 0.00701
105 0.005583
114 0.005993
120 0.006978
126 0.006983
131 0.006992
136 0.006983
143 0.005976
149 0.006024
154 0.006005
158 0.00598
164 0.005982
169 0.005994
171 0.005982
170 0.005975
146 0.006014
110 0.005986
84 0.006034
68 0.006984
55 0.005975
55 0.006018
65 0.005991
73 0.005981
77 0.005993
82 0.005988
89 0.00598
99 0.005984
105 0.005968
112 0.005985
119 0.005984
124 0.005985
132 0.005978
140 0.004988
146 0.005017
148 0.004991
153 0.004985
158 0.004986
162 0.004988
168 0.004992
172 0.004994
172 0.006004
164 0.005988
133 0.005992
94 0.005994
75 0.006026
68 0.005982
70 0.005988
77 0.004966
83 0.004982
88 0.004992
93 0.004985
99 0.005022
106 0.004988
112 0.00499
118 0.005983
126 0.004987
133 0.005029
139 0.005012
144 0.004964
148 0.00502
152 0.004991
156 0.004993
161 0.004987
166 0.004979
170 0.004988
174 0.00596
175 0.004965
159 0.004992
114 0.005016
89 0.004986
68 0.003988
60 0.003959
59 0.003989
64 0.004994
71 0.004981
78 0.004985
83 0.004986
88 0.004983
95 0.004969
102 0.00502
113 0.005017
118 0.003976
125 0.003938
131 0.003992
135 0.003954
139 0.003987
144 0.003989
150 0.005006
154 0.004993
159 0.004979
163 0.004985
168 0.004986
171 0.004988
158 0.003971
113 0.003989
85 0.003987
66 0.004004
55 0.003959
49 0.003969
53 0.004003
63 0.003959
69 0.003975
74 0.00399
80 0.00396
92 0.003958
98 0.004953
107 0.005003
114 0.003958
120 0.003988
125 0.003991
131 0.00399
137 0.003942
141 0.003984
145 0.003958
149 0.003988
154 0.002939
160 0.003027
165 0.002989
167 0.00295
158 0.003003
127 0.002999
96 0.002981
75 0.003958
60 0.003998
55 0.003994
56 0.00396
63 0.004007
70 0.003959
78 0.003957
84 0.003956
92 0.002932
100 0.002982
107 0.002988
113 0.002956
119 0.002993
126 0.002961
132 0.002959
135 0.002985
139 0.002987
143 0.003942
150 0.003026
155 0.003989
160 0.003989
163 0.003996
166 0.002988
165 0.002953
145 0.002963
102 0.003996
81 0.002989
69 0.002989
64 0.002987
65 0.002992
77 0.002947
81 0.00295
84 0.002972
91 0.002027
97 0.002992
103 0.002939
109 0.002962
114 0.002963
121 0.003023
125 0.002957
130 0.002986
135 0.002999
141 0.002994
144 0.003012
148 0.002986
156 0.002948
159 0.003022
164 0.003021
166 0.001998
163 0.001994
129 0.001996
96 0.001954
74 0.002992
59 0.00298
48 0.001991
49 0.002
58 0.002027
67 0.002001
71 0.002031
78 0.001992
85 0.001989
91 0.001996
100 0.001996
107 0.001995
113 0.001983
119 0.001998
129 0.001964
134 0.001966
138 0.002
144 0.001992
149 0.001002
154 0.001994
159 0.001994
164 0.002006
167 0.001995
164 0.002002
138 0.001998
104 0.001992
67 0.00196
54 0.002003
47 0.001994
49 0.001997
59 0.002
67 0.001964
73 0.001992
80 0.001982
91 0.001953
99 0.00101
106 0.002007
114 0.001995
124 0.002025
131 0.000997
137 0.000987
144 0.000954
149 0.000996
153 0.000997
158 0.001005
163 0.001047
169 0.000991
174 0.001004
178 0.000996
179 0.002009
146 0.001963
115 0.002
94 0.000999
79 0.001995
73 0.001007
72 0.002024
79 0.001031
86 0.000981
92 0.000967
97 0.000997
103 0.000996
110 0.000997
120 0.000996
125 0.002005
130 0.00103
136 0.000958
143 0.000967
148 0.000991
153 0.00198
157 0.000997
161 0.001008
167 0.000968
172 0.0
175 0.000998
179 0.000987
177 0.000995
157 0.000987
125 0.000983
96 0.0
86 0.0
81 0.0
80 0.0
87 0.0
94 0.0
97 0.0
101 0.0
111 0.0
119 0.0
125 0.0
131 0.0
137 0.001021
142 0.001031
147 0.001028
152 0.0
155 0.0
161 0.0
165 0.0
169 0.0
176 0.0
180 0.0
183 0.0
182 0.0
157 0.0
124 0.0
101 0.0
85 0.000996
76 0.0
70 0.0
73 0.0
81 0.0
88 0.0
93 0.0
98 0.0
103 0.0
113 0.000999
118 0.0
125 0.0
131 0.0
137 0.0
141 0.002017
147 0.002032
153 0.0
159 0.000995
165 0.0
169 0.0
175 0.0
177 0.000987
178 0.001019
160 0.0
128 0.0
104 0.0
90 0.001972
80 0.002003
73 0.001011
80 0.001987
89 0.001008
92 0.0
95 0.000954
101 0.002042
107 0.00204
114 0.0
119 0.0
125 0.000959
130 0.0
135 0.001016
140 0.00098
148 0.001048
151 0.002006
155 0.000972
162 0.0
167 0.0
171 0.002025
175 0.001
178 0.0
176 0.0
155 0.0
125 0.001996
105 0.002026
90 0.000998
85 0.002027
90 0.0
97 0.0
100 0.0
103 0.002045
106 0.00105
113 0.0
119 0.0
124 0.0
130 0.001999
135 0.001996
142 0.002019
147 0.002046
152 0.0
156 0.0
160 0.0
165 0.00199
170 0.002031
176 0.0
179 0.000946
182 0.000989
181 0.00203
167 0.003034
119 0.001966
101 0.001959
85 0.0
78 0.000966
78 0.0
84 0.002033
89 0.002051
93 0.000955
97 0.0
101 0.00101
109 0.001999
116 0.002056
124 0.00296
129 0.003031
137 0.001997
143 0.0
148 0.001996
151 0.002991
155 0.001996
163 0.002047
168 0.001035
173 0.001009
179 0.002993
183 0.002978
186 0.003025
172 0.003022
132 0.002003
111 0.002002
97 0.001995
86 0.00298
80 0.002991
83 0.000998
90 0.002
95 0.002008
99 0.002961
104 0.001996
115 0.001996
120 0.003054
128 0.001991
134 0.00198
140 0.001022
146 0.003023
151 0.002991
157 0.001031
162 0.001028
167 0.001021
172 0.001029
176 0.003025
183 0.002008
187 0.003002
191 0.003994
190 0.002009
169 0.002001
139 0.001995
118 0.003991
104 0.003003
94 0.000997
91 0.002005
94 0.001034
101 0.002992
109 0.002014
114 0.003027
121 0.00299
130 0.002006
136 0.002009
142 0.002015
148 0.004023
153 0.00399
160 0.002014
164 0.001996
168 0.001997
171 0.002992
176 0.002958
181 0.002987
184 0.004009
189 0.00296
192 0.002003
192 0.002001
189 0.004022
170 0.004015
132 0.001027
112 0.001941
101 0.001996
94 0.00399
93 0.001938
100 0.005023
105 0.004033
110 0.001992
114 0.002966
119 0.002002
125 0.003998
131 0.004025
139 0.001956
145 0.001992
151 0.001995
155 0.004029
162 0.002992
167 0.003992
170 0.005023
176 0.001996
180 0.002958
184 0.001966
187 0.004025
190 0.005007
192 0.001963
191 0.002998
173 0.002029
142 0.003992
106 0.002961
93 0.004984
85 0.00495
83 0.003007
89 0.002968
96 0.003011
101 0.004961
104 0.005041
110 0.001995
116 0.002991
122 0.003001
128 0.004027
137 0.003958
144 0.004988
149 0.004989
155 0.002961
160 0.002958
164 0.002998
168 0.00502
171 0.005028
176 0.00399
180 0.003005
184 0.002993
187 0.002996
189 0.003984
178 0.003996
148 0.00599
120 0.005989
100 0.003974
93 0.003977
88 0.003975
90 0.005024
97 0.005029
102 0.003975
105 0.003
111 0.002977
119 0.003983
124 0.002992
130 0.005991
134 0.005984
141 0.00399
145 0.00399
150 0.003955
155 0.005986
160 0.005992
165 0.004002
168 0.00399
172 0.003989
178 0.004987
181 0.00398
184 0.005984
186 0.005984
183 0.003989
158 0.003989
125 0.00399
99 0.005985
83 0.005984
70 0.00399
65 0.003989
69 0.003988
80 0.004994
84 0.00496
88 0.006016
93 0.006019
101 0.004984
107 0.003983
113 0.00399
118 0.005985
122 0.005984
128 0.003989
133 0.003989
138 0.004993
146 0.004986
150 0.004986
154 0.006982
159 0.006981
164 0.003989
168 0.003989
173 0.004998
175 0.00602
169 0.006018
130 0.003986
102 0.00402
83 0.004994
66 0.004985
63 0.005003
67 0.006977
76 0.006986
84 0.004946
90 0.004965
96 0.005036
104 0.007978
108 0.005985
116 0.005984
122 0.005985
127 0.004977
135 0.004986
140 0.004987
146 0.006982
150 0.006981
154 0.004987
158 0.004987
162 0.004993
165 0.006982
169 0.006981
175 0.007978
178 0.005984
179 0.005984
150 0.005953
117 0.005943
94 0.005953
80 0.00703
73 0.007022
71 0.005029
77 0.005002
84 0.004971
87 0.00798
92 0.007978
98 0.005979
105 0.005974
115 0.005952
121 0.005956
127 0.004951
132 0.006981
137 0.006982
142 0.005985
146 0.005982
151 0.005983
154 0.007978
157 0.00801
161 0.006018
165 0.005962
171 0.005935
174 0.005969
175 0.005976
165 0.007992
136 0.007968
107 0.005977
89 0.005985
79 0.005986
73 0.007978
73 0.007978
82 0.006994
86 0.00698
94 0.006981
99 0.006977
105 0.00596
112 0.007969
117 0.007982
122 0.006017
128 0.005984
133 0.006949
138 0.007017
144 0.007978
148 0.006953
154 0.006976
157 0.006985
161 0.00695
165 0.006962
169 0.006983
173 0.007992
175 0.006949
175 0.00695
160 0.00603
125 0.007978
89 0.007977
73 0.006976
59 0.00698
55 0.006951
64 0.006979
68 0.00698
72 0.007014
76 0.00697
82 0.006975
87 0.00698
93 0.005981
103 0.007991
109 0.007016
118 0.006981
123 0.006979
129 0.006969
136 0.006964
141 0.006982
145 0.006988
149 0.006972
154 0.006977
156 0.006979
161 0.005984
164 0.006036
167 0.006027
163 0.006015
125 0.006945
86 0.006978
63 0.00695
54 0.006963
51 0.006979
54 0.006969
63 0.006986
69 0.006977
76 0.005993
80 0.005987
87 0.006051
93 0.006019
99 0.006022
105 0.005988
111 0.006982
114 0.006975
122 0.005983
128 0.006015
132 0.00702
140 0.005977
148 0.006023
156 0.00598
163 0.006013
169 0.006023
173 0.006016
170 0.005984
154 0.005972
123 0.005017
92 0.005984
71 0.007003
59 0.005982
47 0.005986
44 0.006015
45 0.005979
50 0.005999
54 0.00598
59 0.006013
64 0.005978
70 0.005996
73 0.005985
78 0.00602
84 0.005977
90 0.005976
98 0.005983
105 0.004986
112 0.004959
117 0.005026
122 0.005018
131 0.005022
141 0.005993
153 0.006002
160 0.005983
163 0.005987
160 0.005997
144 0.005987
113 0.005973
102 0.00602
97 0.005999
93 0.005024
91 0.005019
100 0.004987
102 0.004995
100 0.00499
104 0.004988
108 0.004984
111 0.004984
114 0.004951
114 0.004991
110 0.004985
105 0.005953
104 0.005017
107 0.003985
113 0.00502
118 0.004974
121 0.004984
125 0.004994
129 0.005025
133 0.004986
137 0.004987
144 0.004971
148 0.004976
145 0.005021
121 0.00502
92 0.005022
64 0.004984
50 0.00398
44 0.003995
46 0.005006
52 0.004953
58 0.004981
61 0.00502
67 0.005017
70 0.00502
74 0.004986
81 0.004981
90 0.004984
96 0.004024
111 0.004004
118 0.003993
122 0.003998
123 0.004026
123 0.003993
121 0.003967
119 0.004038
118 0.004992
118 0.004982
119 0.005023
120 0.005019
120 0.004024
98 0.003953
67 0.00399
40 0.003989
29 0.003992
24 0.004002
24 0.003947
32 0.004014
47 0.00402
56 0.004023
63 0.003993
72 0.002994
82 0.004023
97 0.003954
105 0.003979
116 0.003953
124 0.003988
131 0.003942
138 0.003942
142 0.00399
148 0.004025
151 0.00402
154 0.003994
156 0.003027
159 0.002993
166 0.002959
170 0.002971
168 0.00298
146 0.00399
114 0.003959
89 0.003957
74 0.003992
66 0.003959
64 0.00402
69 0.003038
78 0.002992
86 0.002938
95 0.002961
102 0.002986
111 0.002995
118 0.003001
126 0.002961
133 0.002959
139 0.002993
148 0.002994
153 0.003026
160 0.002995
166 0.002989
172 0.002992
179 0.00296
185 0.002962
191 0.002987
195 0.002995
199 0.002974
198 0.002991
193 0.002992
153 0.003025
121 0.003027
101 0.002992
88 0.002992
79 0.003024
79 0.003029
87 0.003002
95 0.001954
102 0.002994
107 0.002993
113 0.003024
121 0.002993
127 0.001996
135 0.001995
143 0.001995
149 0.002003
154 0.002035
163 0.001993
169 0.001948
174 0.002991
179 0.001989
183 0.002992
188 0.003005
193 0.001995
197 0.002034
202 0.001991
204 0.001999
190 0.001996
156 0.001995
115 0.002007
104 0.001996
98 0.002028
96 0.001998
103 0.002029
109 0.003
112 0.002037
114 0.002009
121 0.001995
126 0.001995
132 0.001995
138 0.001971
146 0.001994
150 0.001994
153 0.001995
157 0.001001
162 0.000997
166 0.000998
169 0.000997
172 0.000998
176 0.001995
178 0.00201
181 0.001996
184 0.001995
182 0.001995
158 0.001995
126 0.001995
102 0.001995
93 0.000997
87 0.000998
87 0.000997
93 0.000998
100 0.001017
103 0.000997
106 0.001139
111 0.001987
119 0.001996
124 0.001995
130 0.001001
137 0.001994
143 0.000998
150 0.000997
158 0.000997
164 0.000997
168 0.000998
170 0.001006
173 0.001994
174 0.0
178 0.0
181 0.0
183 0.000997
179 0.001013
153 0.00105
123 0.001029
104 0.000998
93 0.000998
86 0.001003
86 0.00098
91 0.000998
98 0.000998
102 0.001026
105 0.0
110 0.0
116 0.0
122 0.0
128 0.0
133 0.000998
139 0.0
144 0.000997
151 0.000998
155 0.000997
159 0.000984
166 0.00103
171 0.0
177 0.0
181 0.0
186 0.0
190 0.0
189 0.0
170 0.0
141 0.0
118 0.0
112 0.001007
110 0.0
115 0.0
123 0.0
129 0.0
131 0.0
134 0.0
139 0.0
144 0.0
150 0.0
155 0.0
162 0.0
167 0.0
171 0.0
178 0.001013
182 0.001019
185 0.000999
190 0.00099
193 0.001063
197 0.000999
203 0.0
206 0.0
208 0.000963
205 0.001044
183 0.002022
153 0.00102
145 0.002026
146 0.0
150 0.0
156 0.0
161 0.002029
162 0.003045
164 0.000958
168 0.0
171 0.0
175 0.001033
180 0.001995
184 0.0
189 0.001993
192 0.0
197 0.0
200 0.0
202 0.002024
205 0.002027
208 0.0
212 0.000997
215 0.000965
218 0.002033
221 0.002027
222 0.0
206 0.002035
175 0.000965
164 0.0
162 0.000996
163 0.002044
166 0.002
174 0.0
177 0.001022
178 0.000974
180 0.000994
183 0.000991
186 0.001023
192 0.002025
195 0.001031
198 0.001003
201 0.0
204 0.001003
207 0.002047
209 0.002005
212 0.0
215 0.0
217 0.0
218 0.002019
220 0.001966
223 0.002038
225 0.002024
217 0.00097
194 0.0
175 0.0
168 0.001991
167 0.001997
171 0.0
176 0.0
205 0.0
207 0.00199
208 0.000998
214 0.002029
218 0.002026
224 0.0
228 0.0
231 0.00098
236 0.001995
238 0.002025
243 0.00103
245 0.0
247 0.002014
250 0.002026
253 0.003038
255 0.003018
255 0.002953
255 0.00095
255 0.0
255 0.001997
239 0.002993
199 0.002057
170 0.003
163 0.000999
162 0.001021
164 0.002058
170 0.001952
179 0.002002
177 0.003005
180 0.003008
183 0.0
185 0.001996
188 0.003028
192 0.002992
195 0.001995
197 0.001995
200 0.001037
203 0.002993
206 0.002993
209 0.002969
210 0.001996
214 0.00203
216 0.002032
220 0.002014
223 0.003027
225 0.002964
217 0.001028
181 0.000985
147 0.001998
133 0.00295
127 0.002991
125 0.002976
131 0.003031
138 0.002005
139 0.002006
141 0.002002
144 0.002992
147 0.002985
154 0.002
160 0.001995
165 0.00199
167 0.00299
170 0.002991
176 0.002028
179 0.004022
180 0.003991
182 0.001995
187 0.000994
190 0.001995
193 0.002992
196 0.002992
200 0.001996
199 0.001992
185 0.001995
148 0.00399
115 0.001995
113 0.00399
112 0.003988
116 0.001995
122 0.001994
124 0.001981
122 0.003996
124 0.002992
129 0.001994
133 0.001996
137 0.001999
142 0.00399
148 0.002992
151 0.003982
154 0.003989
158 0.001995
161 0.001995
163 0.001994
167 0.003991
171 0.003989
175 0.001994
179 0.001995
183 0.001994
184 0.00399
162 0.0
123 0.003989
97 0.003989
82 0.001992
77 0.001976
75 0.001991
78 0.003989
84 0.003981
86 0.003008
87 0.002993
89 0.002977
92 0.004984
99 0.003178
103 0.004031
106 0.004963
111 0.002993
116 0.002993
120 0.002985
125 0.004986
128 0.005018
133 0.002992
137 0.002981
141 0.002
145 0.003989
150 0.002003
153 0.004987
153 0.00499
119 0.002988
84 0.002996
66 0.002992
59 0.005023
55 0.004987
56 0.00299
62 0.003009
67 0.003001
70 0.004987
76 0.003983
82 0.004988
87 0.005022
93 0.003976
98 0.003009
101 0.002992
105 0.004988
108 0.005018
114 0.003003
117 0.003002
121 0.002998
124 0.004992
131 0.003973
137 0.003965
142 0.006024
145 0.00601
149 0.00399
145 0.002997
114 0.003032
79 0.004986
59 0.00502
48 0.002966
44 0.004012
47 0.003975
57 0.002996
57 0.003974
57 0.005014
60 0.004991
66 0.002989
71 0.002967
77 0.002984
82 0.00496
86 0.004987
92 0.003999
98 0.00399
102 0.003983
110 0.003995
113 0.002992
118 0.005985
124 0.006037
130 0.003992
136 0.003046
140 0.0
143 0.006984
144 0.006033
109 0.003986
70 0.00399
47 0.003991
28 0.00396
23 0.003997
23 0.006026
31 0.005984
36 0.00497
36 0.004988
40 0.003992
45 0.006975
50 0.007013
58 0.003993
65 0.004989
70 0.003979
80 0.003995
86 0.00403
92 0.006024
99 0.006013
106 0.003998
111 0.003976
116 0.003991
122 0.006977
128 0.006981
136 0.004986
141 0.00399
144 0.004978
115 0.004994
78 0.004985
54 0.006981
43 0.006019
37 0.004946
35 0.003986
42 0.004985
49 0.007019
53 0.007031
58 0.004983
65 0.004981
72 0.004988
84 0.005988
91 0.004994
97 0.006981
103 0.006948
111 0.005982
117 0.005026
122 0.006015
128 0.007965
133 0.007978
138 0.005949
144 0.005988
151 0.004986
159 0.005023
163 0.004987
164 0.00503
155 0.006982
119 0.007016
78 0.004987
67 0.005989
60 0.005988
57 0.007979
63 0.007963
70 0.005012
71 0.005986
76 0.004989
81 0.00501
87 0.005038
93 0.007014
99 0.007015
107 0.004979
113 0.005992
118 0.005985
126 0.007982
129 0.007932
136 0.005983
143 0.005985
149 0.005985
153 0.006024
158 0.006032
164 0.007968
168 0.007955
172 0.005985
172 0.005019
154 0.005982
100 0.006966
73 0.007977
59 0.005984
47 0.004992
42 0.005984
49 0.005984
56 0.005984
58 0.007982
63 0.00798
70 0.00598
76 0.005989
83 0.00697
91 0.007017
98 0.007017
103 0.006979
110 0.006982
120 0.006986
128 0.006991
134 0.006037
139 0.007973
143 0.007981
151 0.006939
159 0.00698
165 0.006979
169 0.007023
172 0.006982
171 0.00698
141 0.006981
90 0.00698
64 0.006962
55 0.006969
50 0.007015
51 0.006985
59 0.006032
68 0.00698
71 0.005983
76 0.006037
82 0.007036
88 0.006988
98 0.006978
108 0.006979
114 0.00698
123 0.006984
130 0.006983
135 0.006981
140 0.006982
149 0.006016
152 0.006976
156 0.006025
162 0.006014
170 0.006987
174 0.006985
180 0.007014
184 0.006984
180 0.00698
161 0.006983
109 0.007013
85 0.007015
73 0.006974
63 0.005979
64 0.005995
71 0.006015
78 0.006016
82 0.005992
88 0.005972
97 0.005971
103 0.006021
110 0.006992
115 0.007012
121 0.006017
128 0.005985
137 0.005976
143 0.005983
150 0.00602
157 0.005974
163 0.005983
167 0.006013
175 0.005979
180 0.005985
184 0.005989
189 0.005976
192 0.005022
189 0.005997
162 0.005984
123 0.005985
97 0.005984
84 0.006018
78 0.005986
78 0.006016
87 0.005984
87 0.005985
90 0.005979
94 0.005022
99 0.005022
108 0.005002
115 0.004985
119 0.004973
124 0.006034
128 0.005985
136 0.006004
143 0.00599
150 0.005984
156 0.006015
161 0.005025
164 0.005023
168 0.005037
176 0.004987
180 0.005019
183 0.004982
186 0.005023
187 0.005023
166 0.004983
109 0.006032
71 0.006005
55 0.005022
46 0.005007
39 0.005019
43 0.005021
55 0.004989
59 0.004979
62 0.005019
68 0.005022
75 0.005014
84 0.004993
95 0.004003
103 0.004987
111 0.004028
116 0.005041
122 0.00502
127 0.005002
136 0.004979
142 0.00502
147 0.005017
152 0.004987
156 0.004987
163 0.005018
172 0.003988
176 0.00399
180 0.003967
175 0.003989
141 0.003991
99 0.004022
72 0.00402
50 0.004041
40 0.004956
37 0.003988
41 0.005025
48 0.004966
55 0.003963
61 0.004955
70 0.003969
76 0.004041
84 0.004021
92 0.004047
100 0.004032
107 0.004022
114 0.004036
120 0.004045
126 0.004044
131 0.005021
140 0.004014
144 0.004987
151 0.00405
156 0.004053
163 0.004027
169 0.004026
173 0.004025
177 0.003964
171 0.004026
134 0.003989
92 0.004028
65 0.003992
44 0.00399
39 0.002992
43 0.004021
51 0.00299
58 0.003025
64 0.004035
70 0.004033
80 0.004028
87 0.004034
92 0.003977
100 0.003957
107 0.003956
118 0.002977
124 0.002968
135 0.002984
143 0.002992
149 0.002992
152 0.002992
156 0.003007
162 0.003034
166 0.003023
171 0.003019
177 0.002987
180 0.002988
181 0.003989
159 0.00397
103 0.003991
74 0.003962
57 0.00294
48 0.002994
43 0.002992
49 0.003023
56 0.002953
59 0.00405
64 0.003008
69 0.003026
82 0.002992
88 0.002992
98 0.00399
105 0.001996
112 0.003992
118 0.001995
125 0.002993
133 0.002009
140 0.002994
146 0.003036
152 0.002992
156 0.003024
166 0.002993
172 0.001975
178 0.003023
182 0.002992
183 0.003024
178 0.002033
144 0.001995
98 0.001995
59 0.002028
42 0.001996
29 0.002026
23 0.001996
34 0.002028
41 0.003039
46 0.002995
54 0.003004
61 0.001995
69 0.002025
77 0.001995
84 0.002021
95 0.002027
102 0.001995
108 0.001995
115 0.00203
126 0.002037
135 0.002027
140 0.002026
147 0.001006
154 0.001995
160 0.002034
166 0.001995
171 0.002048
178 0.001995
180 0.001946
170 0.001995
131 0.002032
71 0.001029
51 0.000997
38 0.000998
33 0.001995
37 0.000998
46 0.000998
53 0.000998
59 0.002026
69 0.000998
79 0.002032
88 0.001995
96 0.001995
110 0.002019
117 0.00197
124 0.002001
135 0.001052
141 0.002038
149 0.001032
155 0.001983
161 0.002003
166 0.000999
173 0.000998
178 0.001005
184 0.001025
192 0.001016
195 0.001996
193 0.001996
147 0.002027
104 0.001995
78 0.001999
64 0.002029
54 0.000999
52 0.001011
62 0.001001
70 0.001012
74 0.000997
83 0.000997
91 0.000997
101 0.002025
112 0.001996
121 0.002031
128 0.000999
134 0.0
141 0.0
152 0.0
157 0.0
162 0.0
168 0.0
178 0.000985
184 0.000998
190 0.000998
194 0.000998
200 0.000997
204 0.000997
204 0.0
183 0.0
136 0.0
86 0.0
63 0.000988
50 0.0
39 0.0
46 0.0
56 0.0
62 0.0
71 0.000957
78 0.0
86 0.000998
95 0.0
105 0.0
115 0.0
125 0.0
133 0.0
146 0.0
153 0.0
159 0.0
165 0.0
173 0.0
178 0.0
183 0.0
190 0.0
197 0.0
203 0.0
205 0.0
198 0.001028
132 0.000948
88 0.001007
69 0.000972
57 0.0
51 0.001995
54 0.001995
68 0.0
74 0.0
80 0.0
89 0.001995
97 0.001995
108 0.0
120 0.001994
131 0.000997
138 0.0
145 0.000997
152 0.001995
160 0.001995
169 0.0
174 0.0
180 0.000997
185 0.001995
190 0.001996
197 0.0
203 0.002032
211 0.0
212 0.000963
202 0.0
166 0.002027
122 0.003027
85 0.000989
72 0.0
65 0.001005
63 0.002017
70 0.003024
82 0.0
88 0.001995
98 0.0
106 0.0
116 0.0
125 0.002022
133 0.002025
143 0.000965
150 0.0
156 0.001004
163 0.002021
170 0.002028
178 0.0
184 0.002042
190 0.001023
196 0.001024
202 0.0
208 0.0
213 0.001993
216 0.001995
217 0.0
195 0.0
151 0.0
114 0.002029
93 0.002026
77 0.002033
76 0.00204
86 0.0
95 0.0
98 0.0
102 0.002041
110 0.002025
121 0.000988
129 0.001001
137 0.000964
144 0.003021
150 0.002033
160 0.002038
167 0.002036
176 0.0
180 0.0
183 0.001009
187 0.00206
192 0.002024
199 0.0
205 0.001014
210 0.0
213 0.00203
212 0.003029
169 0.003028
124 0.003018
87 0.000965
71 0.0
62 0.0
61 0.002013
69 0.00199
79 0.002012
84 0.0
89 0.001992
96 0.002989
104 0.002992
118 0.002951
127 0.002993
138 0.002975
144 0.001993
150 0.001986
156 0.003027
163 0.002002
170 0.001995
175 0.001982
180 0.001995
185 0.002993
190 0.003024
200 0.002993
204 0.002962
205 0.001973
196 0.001997
157 0.001976
113 0.003008
83 0.003018
60 0.001963
50 0.001996
48 0.002021
56 0.003026
65 0.003023
73 0.003024
80 0.002993
89 0.001993
98 0.001997
108 0.001998
114 0.003023
121 0.002992
132 0.00201
138 0.001997
142 0.001993
149 0.00399
157 0.004027
166 0.001984
171 0.00399
174 0.00402
183 0.002045
188 0.002003
193 0.002
197 0.004026
196 0.003994
158 0.001997
110 0.001989
78 0.001966
56 0.003988
36 0.001996
35 0.004022
43 0.00399
56 0.001975
62 0.002988
69 0.002033
77 0.00402
88 0.004033
98 0.001995
106 0.001985
116 0.002007
123 0.002962
135 0.002001
142 0.00399
150 0.00402
159 0.001988
163 0.001994
170 0.001973
175 0.004022
180 0.003987
188 0.001994
194 0.001995
197 0.002001
193 0.002992
131 0.002026
91 0.003997
65 0.004986
45 0.001986
40 0.002001
42 0.002001
52 0.004011
59 0.003989
68 0.001979
74 0.001999
84 0.001993
93 0.005035
108 0.001987
118 0.004987
126 0.004987
135 0.002047
143 0.001966
151 0.002025
159 0.005019
164 0.00399
172 0.001991
178 0.001997
183 0.002981
191 0.005031
200 0.002993
206 0.005025
208 0.005021
182 0.002992
138 0.003958
100 0.003005
78 0.00497
66 0.005984
62 0.002962
67 0.001998
76 0.002962
82 0.004989
89 0.002995
96 0.004989
103 0.004987
116 0.001975
123 0.002999
129 0.002974
136 0.003976
143 0.004986
150 0.004024
156 0.003001
163 0.00304
167 0.006017
175 0.003006
179 0.005003
184 0.005023
192 0.002995
195 0.001995
198 0.002991
188 0.003009
148 0.004987
101 0.005001
62 0.004009
47 0.00396
38 0.003991
41 0.00299
51 0.002986
57 0.005984
63 0.006029
73 0.002991
82 0.002991
91 0.002992
98 0.005984
106 0.006015
119 0.003989
126 0.003993
131 0.003962
141 0.004002
147 0.003991
153 0.006018
157 0.006001
163 0.002961
170 0.002972
176 0.002989
180 0.007021
184 0.006979
184 0.004011
161 0.003984
115 0.003961
59 0.003937
42 0.003993
33 0.00603
30 0.005984
42 0.003992
51 0.00399
55 0.003995
59 0.006992
67 0.007009
80 0.004005
88 0.003989
97 0.003989
110 0.003975
119 0.004953
125 0.006943
131 0.007017
140 0.003971
145 0.004956
149 0.004957
155 0.006008
162 0.007029
169 0.005011
176 0.003989
183 0.004987
181 0.0049
148 0.004989
98 0.006967
58 0.006982
28 0.003986
14 0.004018
9 0.00498
14 0.00698
26 0.006981
35 0.004987
42 0.004936
50 0.004987
66 0.00499
76 0.004989
83 0.007014
93 0.007013
104 0.00499
110 0.005001
118 0.004985
127 0.007004
133 0.007015
142 0.004986
148 0.004992
154 0.005984
164 0.005024
170 0.005983
174 0.007953
170 0.007948
132 0.007974
83 0.004956
49 0.005014
26 0.004986
12 0.00702
7 0.006982
15 0.004976
25 0.005009
36 0.004986
43 0.004986
53 0.004984
63 0.007031
75 0.007978
85 0.005985
93 0.005986
102 0.00598
112 0.007981
119 0.007973
125 0.005984
133 0.005986
144 0.004987
150 0.004985
157 0.005022
165 0.007946
171 0.00801
173 0.006042
161 0.005952
119 0.005967
65 0.007974
49 0.007987
28 0.005933
22 0.00601
34 0.005937
44 0.005927
50 0.005983
56 0.007977
64 0.007978
75 0.006981
85 0.005984
95 0.005982
106 0.007012
113 0.006992
121 0.005999
128 0.005944
140 0.005989
146 0.005983
151 0.006006
160 0.007948
167 0.007978
172 0.005984
177 0.006981
182 0.006977
182 0.008976
155 0.000968
107 0.008938
64 0.005985
44 0.006017
41 0.005996
47 0.005989
59 0.007973
65 0.007023
69 0.00698
76 0.005982
86 0.006986
97 0.007014
106 0.007012
115 0.006948
123 0.006977
135 0.00698
141 0.006
148 0.005973
156 0.006978
159 0.007008
168 0.005987
174 0.005988
180 0.005964
185 0.005978
188 0.005982
180 0.005978
143 0.006981
86 0.006983
58 0.006962
48 0.006976
45 0.007021
54 0.007015
64 0.00698
66 0.006982
70 0.005987
78 0.005945
86 0.005992
94 0.005976
105 0.005984
114 0.006015
122 0.005989
128 0.005972
135 0.005983
143 0.006982
148 0.006015
153 0.00698
159 0.006982
166 0.006983
173 0.006982
179 0.005958
183 0.005952
165 0.006018
101 0.005986
60 0.005983
34 0.006005
19 0.006017
11 0.006023
15 0.005964
26 0.005982
34 0.005979
39 0.005979
46 0.004982
59 0.00602
72 0.004993
82 0.00502
92 0.005977
101 0.005985
108 0.006017
115 0.006013
125 0.005973
131 0.005979
136 0.005974
143 0.006013
150 0.006021
158 0.004963
167 0.005026
171 0.005001
155 0.004988
109 0.005011
63 0.005017
33 0.006028
13 0.005968
6 0.00596
10 0.00598
20 0.005992
29 0.005985
36 0.006016
48 0.005019
62 0.004985
71 0.005025
80 0.004992
88 0.005022
98 0.005031
109 0.004992
115 0.004975
122 0.004986
129 0.003987
135 0.004001
143 0.004985
152 0.004024
161 0.005032
166 0.005022
169 0.005003
166 0.005031
135 0.005024
73 0.005019
46 0.004977
32 0.004957
25 0.004956
27 0.004988
40 0.003991
49 0.004026
56 0.003991
63 0.003965
73 0.003991
82 0.004026
91 0.004021
101 0.005003
109 0.004975
115 0.005013
122 0.00502
128 0.005032
136 0.004021
142 0.003987
150 0.004032
158 0.003995
165 0.003991
171 0.003988
174 0.005029
170 0.00399
123 0.004987
75 0.004986
44 0.004996
26 0.003945
16 0.003959
20 0.00399
30 0.00399
39 0.004003
45 0.003989
53 0.003986
61 0.003989
71 0.002991
82 0.002991
91 0.00399
100 0.002991
109 0.002992
118 0.003988
129 0.00399
136 0.003989
144 0.00399
150 0.003974
156 0.00399
162 0.003988
169 0.003997
173 0.003989
171 0.002992
141 0.003021
90 0.002992
50 0.002993
13 0.002992
2 0.002992
4 0.00399
16 0.003991
25 0.00399
32 0.003989
38 0.00399
49 0.003987
59 0.002992
70 0.002992
79 0.002963
89 0.004022
102 0.002997
110 0.003951
120 0.003992
126 0.002992
134 0.003025
141 0.003023
147 0.003022
156 0.002991
163 0.003032
168 0.002991
170 0.002977
161 0.004027
89 0.00301
52 0.002993
26 0.002992
16 0.002992
14 0.003005
24 0.003024
36 0.003027
45 0.002995
51 0.003026
60 0.002961
68 0.001994
78 0.00198
93 0.001959
102 0.001946
111 0.002046
119 0.002044
127 0.002027
132 0.001962
138 0.001962
147 0.003025
154 0.003024
159 0.002992
165 0.003021
172 0.002028
177 0.001995
167 0.001997
129 0.001995
74 0.001996
51 0.001995
39 0.001981
36 0.002029
42 0.002032
55 0.002029
60 0.002001
64 0.001996
72 0.00203
85 0.002043
94 0.001995
101 0.001995
113 0.001994
120 0.002025
126 0.001996
133 0.002041
140 0.001985
148 0.002959
153 0.002031
159 0.000973
165 0.000985
175 0.001007
180 0.000998
184 0.002033
172 0.001996
126 0.000998
81 0.002005
51 0.001963
33 0.001998
20 0.002023
22 0.002024
32 0.001989
41 0.000956
51 0.000964
59 0.001968
69 0.000998
81 0.000998
91 0.001992
100 0.000959
109 0.001991
117 0.002025
128 0.00199
135 0.001009
142 0.002023
148 0.000991
159 0.001005
166 0.000998
174 0.001027
181 0.000998
184 0.000998
183 0.000999
154 0.000999
104 0.001015
57 0.002025
37 0.001992
25 0.000977
21 0.002024
36 0.001028
45 0.000998
52 0.000998
62 0.000997
72 0.000997
82 0.000998
91 0.000994
101 0.001005
113 0.000984
120 0.000995
129 0.0
137 0.0
148 0.0
154 0.0
160 0.0
171 0.000997
177 0.0
183 0.0
188 0.000997
190 0.000998
176 0.00101
133 0.0
91 0.000996
69 0.000996
50 0.0
50 0.0
59 0.0
69 0.0
77 0.0
82 0.0
91 0.0
101 0.0
110 0.0
123 0.0
133 0.0
140 0.0
152 0.0
159 0.0
167 0.0
172 0.0
179 0.0
188 0.0
195 0.0
200 0.001047
208 0.0
212 0.002026
208 0.0
174 0.0
107 0.0
88 0.0
78 0.0
74 0.0
82 0.002029
92 0.002027
97 0.001995
103 0.001034
111 0.001
118 0.001998
127 0.001994
139 0.000997
148 0.002989
159 0.0
165 0.0
172 0.0
179 0.003024
185 0.003026
192 0.0
198 0.0
205 0.0
211 0.00199
216 0.001991
221 0.000996
210 0.002029
153 0.0
113 0.000952
89 0.0
75 0.002976
67 0.003005
68 0.0
81 0.0
88 0.0
92 0.002989
98 0.002977
109 0.0
122 0.002027
132 0.0
141 0.000997
149 0.0
155 0.002028
162 0.00203
172 0.000999
177 0.0
182 0.000998
189 0.002992
196 0.002987
204 0.0
213 0.003
218 0.0
216 0.0
187 0.0
141 0.001994
107 0.00303
84 0.001025
75 0.000967
70 0.0
78 0.002993
88 0.00299
93 0.002993
102 0.002992
108 0.002961
123 0.0
132 0.0
139 0.0
148 0.003023
157 0.00299
165 0.001002
173 0.001041
180 0.00102
185 0.001995
191 0.00201
202 0.002028
208 0.002028
216 0.0
222 0.000965
226 0.001001
223 0.002992
192 0.002994
137 0.0
114 0.0
101 0.0
95 0.002133
96 0.001993
110 0.002028
114 0.002029
119 0.0
125 0.000999
133 0.000969
142 0.002952
150 0.002025
161 0.000996
168 0.0
174 0.0
181 0.001993
188 0.002945
197 0.003047
202 0.003055
208 0.0
215 0.0
222 0.0
226 0.003025
229 0.002983
224 0.000967
189 0.0
144 0.0
111 0.002005
91 0.002962
72 0.002995
72 0.00302
83 0.0
90 0.0
94 0.001993
100 0.003012
106 0.004009
118 0.000952
127 0.00102
136 0.0
143 0.004022
151 0.002993
162 0.003025
168 0.002993
176 0.003
180 0.002991
186 0.002989
191 0.003028
198 0.003991
206 0.000962
209 0.003038
211 0.003021
203 0.004026
162 0.003966
97 0.003046
76 0.00303
61 0.003004
57 0.002985
63 0.002966
72 0.002977
78 0.003996
84 0.0
92 0.001
101 0.000973
108 0.003998
116 0.002992
130 0.00399
138 0.00399
145 0.004026
153 0.002016
159 0.002018
165 0.0
170 0.002975
176 0.002961
185 0.0
191 0.002999
196 0.002996
200 0.003972
198 0.001993
166 0.00402
123 0.004
82 0.001995
67 0.001995
58 0.0
56 0.00399
63 0.003989
75 0.002985
81 0.002987
87 0.001995
95 0.003974
110 0.002992
119 0.00399
127 0.00402
137 0.002025
144 0.002033
151 0.000958
157 0.004035
164 0.005028
169 0.002996
174 0.001998
180 0.004036
186 0.004021
196 0.001987
201 0.004018
202 0.00398
184 0.002996
141 0.002984
104 0.001981
81 0.004979
69 0.004989
63 0.00303
69 0.002995
78 0.002974
84 0.004954
91 0.002982
98 0.005005
105 0.004987
117 0.003009
125 0.002005
131 0.003025
139 0.005018
146 0.005013
153 0.003998
160 0.003032
167 0.002024
171 0.005043
180 0.001994
186 0.004992
192 0.006015
199 0.001993
200 0.002999
196 0.003996
164 0.006016
116 0.005061
72 0.002959
53 0.003986
40 0.003973
35 0.006016
49 0.002991
57 0.004985
63 0.006016
72 0.00395
82 0.003026
91 0.002996
100 0.006028
110 0.006019
118 0.005985
130 0.004002
138 0.003975
144 0.001979
155 0.002023
162 0.001992
169 0.006016
174 0.005017
182 0.004015
191 0.002974
197 0.003976
200 0.005973
197 0.00597
148 0.003986
103 0.002938
73 0.003028
46 0.002993
40 0.002994
43 0.005985
53 0.005986
64 0.004005
70 0.003946
77 0.004024
87 0.005956
96 0.006985
109 0.003995
120 0.003991
128 0.003971
143 0.004026
152 0.003027
161 0.006988
168 0.006016
177 0.004007
183 0.003994
189 0.003988
195 0.006982
201 0.006982
206 0.003991
207 0.004988
196 0.003999
126 0.005005
92 0.004987
71 0.005984
60 0.006981
57 0.004035
66 0.00402
75 0.004019
80 0.007013
84 0.006983
94 0.003993
104 0.004981
113 0.004988
127 0.003986
134 0.003986
140 0.006016
146 0.007022
155 0.004983
160 0.004987
166 0.003018
170 0.007015
175 0.007014
183 0.00399
188 0.003009
193 0.004004
194 0.003988
180 0.003991
137 0.007012
94 0.007979
58 0.004955
42 0.004989
35 0.004985
37 0.007015
47 0.006981
59 0.004039
65 0.005966
71 0.003983
85 0.004992
96 0.004986
107 0.007975
116 0.007974
124 0.005002
133 0.004986
140 0.004985
151 0.007973
157 0.007981
162 0.007977
167 0.005994
174 0.004977
185 0.005001
191 0.005994
196 0.006009
196 0.007964
183 0.007977
121 0.004971
80 0.004978
52 0.004961
34 0.007979
21 0.00796
26 0.004997
37 0.005982
51 0.005984
58 0.004977
66 0.006005
75 0.007985
89 0.00798
99 0.005968
108 0.005047
118 0.004984
127 0.007988
136 0.007973
144 0.004982
151 0.004985
160 0.00497
166 0.003989
172 0.005988
181 0.007019
185 0.006981
188 0.005986
190 0.003989
172 0.005982
112 0.007988
78 0.007976
57 0.004978
43 0.004956
37 0.005985
46 0.005017
55 0.005982
62 0.006947
70 0.006985
79 0.005991
89 0.005959
98 0.005953
110 0.00698
119 0.00698
126 0.005951
133 0.00599
146 0.00598
152 0.00598
158 0.005983
165 0.007991
172 0.006971
178 0.006978
184 0.005942
189 0.006982
193 0.006985
187 0.006981
135 0.005983
92 0.005981
57 0.005955
43 0.005989
37 0.005966
44 0.007011
54 0.00597
61 0.005985
66 0.006941
71 0.006947
83 0.006943
92 0.006985
104 0.006015
110 0.006955
124 0.005958
131 0.005986
141 0.005981
148 0.006006
155 0.006018
162 0.006017
167 0.006018
171 0.005978
181 0.006017
186 0.006974
192 0.006951
194 0.006984
149 0.006979
114 0.005021
58 0.006012
33 0.006985
14 0.005955
6 0.005972
14 0.00602
22 0.006947
33 0.005972
39 0.006977
48 0.006986
63 0.005952
77 0.006018
89 0.005989
99 0.005962
108 0.005988
117 0.006004
124 0.005975
136 0.005998
142 0.005988
146 0.00599
153 0.005986
160 0.005938
168 0.005977
177 0.00595
182 0.00607
179 0.005974
146 0.006018
95 0.005951
57 0.004986
27 0.005006
14 0.004973
11 0.003998
21 0.004991
33 0.005019
44 0.004956
52 0.005984
64 0.005025
73 0.005986
83 0.004955
93 0.005979
101 0.004931
112 0.005017
120 0.004951
129 0.004946
137 0.004988
142 0.005005
151 0.004983
159 0.005019
168 0.004973
172 0.005003
176 0.004978
178 0.00403
175 0.004987
122 0.004963
76 0.005022
48 0.004974
31 0.004985
21 0.004985
26 0.004985
39 0.005019
46 0.004987
50 0.004988
59 0.005026
69 0.005025
77 0.004974
89 0.005024
99 0.003961
106 0.003993
113 0.003951
120 0.003991
132 0.004943
141 0.003933
147 0.004954
154 0.005036
161 0.00495
167 0.004979
173 0.005039
180 0.004986
179 0.00506
154 0.005025
102 0.004987
57 0.003995
19 0.003975
0 0.003943
0 0.003952
5 0.003971
15 0.003958
22 0.003958
28 0.003993
38 0.003999
52 0.00396
63 0.004981
73 0.003958
82 0.004989
92 0.003987
105 0.003992
112 0.003989
124 0.003988
131 0.003988
137 0.003989
144 0.00399
153 0.003052
163 0.003957
169 0.00399
175 0.004024
175 0.003989
152 0.003989
69 0.002992
35 0.00296
8 0.003959
0 0.00399
0 0.004025
11 0.003984
21 0.003989
29 0.003988
37 0.00394
47 0.003989
57 0.004031
68 0.002978
83 0.002998
93 0.002984
104 0.00399
112 0.002994
121 0.003958
129 0.003989
134 0.003953
143 0.003998
150 0.003991
157 0.003943
163 0.002994
169 0.003004
175 0.002993
171 0.003014
119 0.003958
73 0.00299
45 0.002992
30 0.001994
22 0.003987
29 0.003981
39 0.003937
43 0.001987
48 0.002964
53 0.00299
69 0.002992
81 0.002997
93 0.003
102 0.002979
110 0.002995
117 0.00304
124 0.003032
135 0.00203
141 0.003033
146 0.002
152 0.00199
159 0.002
170 0.001995
177 0.002992
184 0.002991
186 0.002993
172 0.00296
124 0.00303
76 0.003029
34 0.003024
15 0.001997
5 0.002032
6 0.001994
16 0.001995
30 0.002001
36 0.002031
48 0.001996
57 0.002022
67 0.001991
78 0.001996
88 0.001994
97 0.001981
106 0.002024
112 0.001994
120 0.001999
129 0.00302
141 0.002028
147 0.001958
155 0.001971
165 0.001995
172 0.001998
178 0.001963
183 0.002025
182 0.001997
138 0.002024
87 0.002023
49 0.002032
25 0.002026
7 0.000963
9 0.000999
22 0.001011
34 0.001993
40 0.002009
49 0.002012
58 0.001986
68 0.001993
82 0.001989
91 0.002024
99 0.001009
109 0.001974
123 0.000998
131 0.000998
138 0.002025
145 0.001987
151 0.002991
158 0.001977
165 0.001993
171 0.001041
179 0.00102
183 0.001009
185 0.000962
169 0.001995
92 0.000999
59 0.001048
39 0.001001
28 0.001007
30 0.002012
41 0.002025
48 0.0
53 0.002026
61 0.002026
69 0.001992
78 0.0
88 0.001995
104 0.0
112 0.000966
119 0.000997
131 0.001008
138 0.000999
144 0.000996
150 0.000999
155 0.000997
162 0.0
169 0.000997
177 0.000958
183 0.000961
190 0.0
183 0.0
145 0.0
77 0.0
44 0.0
23 0.0
11 0.0
9 0.0
21 0.0
30 0.000998
37 0.000997
45 0.00103
59 0.0
69 0.0
79 0.0
89 0.0
100 0.0
108 0.0
118 0.0
125 0.0
133 0.0
144 0.0
149 0.0
155 0.0
167 0.0
175 0.0
181 0.0
186 0.0
184 0.0
152 0.0
99 0.0
58 0.0
34 0.0
15 0.0
11 0.0
18 0.0
37 0.003022
45 0.000954
50 0.000962
62 0.0
73 0.002944
83 0.0
95 0.0
104 0.0
112 0.0
120 0.0
128 0.0
138 0.00102
146 0.002994
154 0.0
162 0.0
166 0.000968
176 0.000995
182 0.003025
188 0.0
188 0.0
169 0.000982
119 0.003001
77 0.002997
45 0.001011
30 0.003043
31 0.000968
42 0.000963
51 0.000999
57 0.002017
63 0.003046
77 0.000996
87 0.0
97 0.0
106 0.003
115 0.004005
124 0.0
135 0.002983
145 0.000972
152 0.000982
156 0.000999
161 0.00203
166 0.003045
176 0.001024
181 0.001002
188 0.0
193 0.003034
194 0.002991
162 0.0
98 0.003033
57 0.0
40 0.000997
29 0.0
29 0.003024
40 0.002993
50 0.0
56 0.000997
63 0.0
74 0.0
82 0.003011
91 0.003022
106 0.003036
115 0.003022
126 0.000954
133 0.0
142 0.000949
151 0.002993
157 0.001995
165 0.000969
171 0.0
176 0.001011
182 0.002999
190 0.002029
199 0.001992
200 0.002991
164 0.0
112 0.0
71 0.0
44 0.003001
26 0.002986
15 0.0
19 0.0
32 0.0
42 0.003007
49 0.003012
64 0.002954
74 0.002945
87 0.001994
97 0.0
108 0.000968
116 0.001988
123 0.002004
136 0.000967
144 0.0
150 0.0
157 0.003008
163 0.003024
175 0.002988
182 0.002991
188 0.0
195 0.001009
197 0.001003
187 0.003028
147 0.002962
86 0.000965
57 0.001019
40 0.000988
30 0.002957
28 0.002992
47 0.003955
54 0.003959
64 0.0
72 0.0
83 0.0
93 0.003998
103 0.002936
114 0.000978
124 0.000962
133 0.0
140 0.003988
148 0.003016
159 0.003973
162 0.003956
172 0.000998
178 0.000964
184 0.003986
190 0.003962
196 0.003989
199 0.000958
194 0.0
163 0.0
114 0.002991
77 0.002993
48 0.002986
40 0.003959
47 0.000974
57 0.001021
64 0.000951
71 0.004029
77 0.003947
90 0.0
101 0.000969
109 0.0
116 0.003991
124 0.003954
137 0.0
144 0.003989
151 0.003992
160 0.001004
167 0.0
171 0.000966
177 0.003958
182 0.003988
191 0.0
196 0.0
201 0.0
203 0.004998
168 0.000988
119 0.003958
78 0.00399
46 0.000998
31 0.000998
23 0.001013
28 0.003989
40 0.003989
51 0.0
57 0.002982
66 0.001015
76 0.003989
93 0.002992
103 0.004987
111 0.004986
123 0.000999
131 0.002991
138 0.002992
147 0.004987
156 0.00498
163 0.002992
168 0.002991
174 0.001994
180 0.003989
190 0.002993
194 0.004987
198 0.004987
198 0.003012
171 0.003944
121 0.00295
81 0.00495
57 0.005031
36 0.002977
31 0.00204
36 0.001993
47 0.005019
60 0.002992
67 0.005056
77 0.005024
91 0.003001
101 0.004018
111 0.002984
122 0.00602
130 0.005995
141 0.004
148 0.002984
155 0.00303
163 0.00507
173 0.002991
179 0.005038
186 0.006025
193 0.003026
200 0.002988
207 0.003988
212 0.006018
213 0.005986
187 0.003994
138 0.002981
97 0.002977
71 0.005018
50 0.002998
50 0.005027
59 0.004986
71 0.003033
77 0.002
84 0.002977
92 0.006024
101 0.006038
116 0.003012
125 0.003992
135 0.002975
143 0.005981
159 0.003985
169 0.003974
177 0.006039
184 0.005975
193 0.002026
197 0.003945
200 0.003055
206 0.007014
212 0.005986
219 0.003935
224 0.003012
227 0.003959
195 0.003987
143 0.003995
101 0.006018
75 0.006019
52 0.003972
44 0.004005
50 0.003972
62 0.006983
71 0.006982
79 0.003997
87 0.003989
96 0.004018
110 0.00399
119 0.00399
128 0.006016
137 0.006935
147 0.003989
154 0.003985
161 0.003957
169 0.006949
176 0.007013
183 0.003957
188 0.004008
194 0.004007
204 0.004946
208 0.004019
215 0.007967
214 0.007968
189 0.003974
141 0.00395
98 0.004038
70 0.006982
51 0.006983
42 0.003956
45 0.003959
56 0.003028
68 0.005
76 0.003971
86 0.007023
95 0.007009
108 0.004987
117 0.003989
125 0.004973
134 0.007013
141 0.006991
153 0.003989
160 0.003996
168 0.003993
178 0.004001
182 0.003983
188 0.006962
