64 0.023976
62 0.006975
53 0.007978
55 0.007934
60 0.007953
75 0.006981
81 0.006981
85 0.006982
94 0.006981
102 0.007022
110 0.007013
117 0.007964
121 0.007975
127 0.007978
134 0.007979
143 0.007978
147 0.007968
155 0.006986
161 0.007952
164 0.007982
167 0.007951
173 0.007968
175 0.007941
178 0.007978
181 0.007026
160 0.007021
127 0.006972
106 0.007924
80 0.007945
70 0.007947
61 0.007981
56 0.006944
64 0.006981
73 0.006987
80 0.00702
83 0.006998
87 0.007017
95 0.007024
103 0.006992
110 0.007019
117 0.007024
124 0.007036
134 0.006987
140 0.006981
147 0.006947
152 0.006982
158 0.007015
162 0.006981
166 0.006982
172 0.006981
175 0.007022
178 0.006981
182 0.006997
184 0.006944
153 0.006982
118 0.006943
84 0.006948
70 0.005984
60 0.006025
51 0.00599
46 0.005983
51 0.00698
61 0.006981
70 0.006969
75 0.005981
79 0.007023
90 0.006985
97 0.006945
108 0.006013
115 0.005986
122 0.005982
128 0.006019
133 0.006026
141 0.006023
147 0.005984
153 0.006093
158 0.005984
162 0.006012
169 0.006017
172 0.005987
178 0.005978
181 0.006015
178 0.00598
156 0.005975
123 0.00596
85 0.006101
69 0.00603
59 0.005035
50 0.005016
43 0.005032
47 0.004989
59 0.005984
69 0.005973
73 0.006025
78 0.006015
86 0.006012
93 0.005984
104 0.006025
112 0.005034
118 0.005025
124 0.005033
130 0.005018
139 0.005027
145 0.005027
151 0.004994
157 0.006016
161 0.006027
165 0.006048
168 0.005992
171 0.006029
176 0.005039
177 0.005038
160 0.004981
127 0.005031
80 0.005029
67 0.004986
57 0.004986
48 0.005005
45 0.004987
51 0.004992
60 0.004945
68 0.004945
74 0.004988
77 0.004988
84 0.004987
97 0.004955
106 0.004988
112 0.004951
118 0.004954
127 0.004955
132 0.004953
138 0.00495
144 0.004957
149 0.00399
155 0.003989
160 0.003938
163 0.00399
170 0.005018
174 0.004988
176 0.00492
166 0.003938
126 0.005018
95 0.004038
75 0.004022
64 0.004023
56 0.004025
47 0.004021
47 0.004038
55 0.004033
72 0.004021
77 0.00406
80 0.005
87 0.004987
97 0.004987
105 0.00399
114 0.003983
121 0.003989
127 0.00399
135 0.003989
142 0.004056
147 0.003983
156 0.003943
161 0.003949
166 0.003999
171 0.003991
175 0.00399
180 0.003031
184 0.003029
184 0.002979
165 0.004016
119 0.004025
91 0.004043
71 0.004046
52 0.003989
44 0.00403
40 0.00399
45 0.003989
59 0.003992
69 0.003023
74 0.004021
79 0.002994
85 0.002985
97 0.00399
105 0.002995
114 0.003991
125 0.00399
132 0.00399
139 0.003991
145 0.003962
150 0.00399
159 0.00298
164 0.003031
167 0.002992
172 0.002979
177 0.002992
181 0.002992
184 0.002994
160 0.002992
125 0.00399
93 0.003996
73 0.002991
61 0.002992
50 0.002988
43 0.002992
44 0.002991
53 0.00298
65 0.002994
74 0.002993
78 0.002984
89 0.003957
97 0.001997
105 0.00399
112 0.001983
120 0.002993
128 0.00298
135 0.002993
141 0.002995
147 0.003007
152 0.003027
159 0.002992
163 0.003069
170 0.003001
174 0.002992
177 0.002999
180 0.002992
169 0.002992
126 0.002039
95 0.002038
76 0.001997
66 0.001997
57 0.00205
51 0.002033
52 0.002029
69 0.001996
77 0.001995
82 0.001994
87 0.003056
93 0.002992
105 0.002962
114 0.001999
122 0.003038
129 0.001996
136 0.001995
145 0.001993
152 0.002029
159 0.001996
165 0.001995
170 0.001994
175 0.001996
178 0.001996
185 0.001995
188 0.001996
188 0.001996
172 0.001966
138 0.001953
95 0.001
71 0.000998
55 0.000946
47 0.000998
44 0.00095
48 0.001995
59 0.001997
73 0.001963
78 0.002
83 0.001938
90 0.001995
99 0.001995
109 0.000998
121 0.001956
130 0.000963
137 0.000977
142 0.000964
148 0.000965
154 0.000999
160 0.000996
166 0.001996
171 0.000998
175 0.002028
180 0.001995
183 0.000999
185 0.001955
163 0.001003
116 0.000997
87 0.000999
69 0.000997
57 0.000997
48 0.000997
41 0.000998
45 0.000998
57 0.000997
67 0.000949
73 0.001003
81 0.001003
89 0.001971
101 0.002047
109 0.000965
117 0.00097
125 0.000966
131 0.000997
139 0.000998
146 0.000986
151 0.000996
155 0.001012
160 0.0
168 0.001003
172 0.0
178 0.0
181 0.0
179 0.000959
155 0.0
119 0.000998
82 0.000952
66 0.000955
57 0.000997
49 0.000997
46 0.0
57 0.000995
69 0.0
77 0.0
81 0.0
87 0.0
95 0.0
103 0.0
115 0.000966
122 0.000964
131 0.0
135 0.0
141 0.0
150 0.0
155 0.0
162 0.0
167 0.0
170 0.0
174 0.0
179 0.0
183 0.0
172 0.0
128 0.0
95 0.0
79 0.0
56 0.0
48 0.0
41 0.001051
45 0.000997
61 0.0
72 0.0
75 0.000949
80 0.000953
88 0.000973
97 0.000998
109 0.0
120 0.000997
127 0.0
137 0.0
143 0.000959
149 0.0
154 0.0
160 0.0
167 0.0
171 0.0
175 0.001001
180 0.000999
184 0.0
184 0.000999
151 0.0
113 0.0
83 0.0
63 0.000997
51 0.000998
38 0.0
33 0.000999
37 0.000998
50 0.001002
62 0.001
69 0.001003
78 0.000998
86 0.001034
99 0.000998
107 0.0
116 0.001045
123 0.000997
133 0.0
139 0.000998
146 0.000966
152 0.002035
157 0.001995
164 0.000997
170 0.001995
174 0.001034
180 0.000998
183 0.000999
186 0.001012
175 0.001003
127 0.0
93 0.0
70 0.001006
54 0.001996
43 0.00186
34 0.000996
36 0.002042
53 0.001004
64 0.000997
70 0.000998
76 0.001995
82 0.001996
94 0.000983
104 0.000998
112 0.00101
119 0.001905
127 0.001995
135 0.000994
143 0.002025
150 0.001033
156 0.000996
162 0.001004
166 0.002005
170 0.002041
174 0.001937
177 0.002039
182 0.000997
180 0.001995
155 0.001964
104 0.001032
70 0.001995
53 0.001028
45 0.000998
40 0.001039
42 0.002043
52 0.001995
69 0.001
74 0.000982
77 0.001996
83 0.002992
92 0.003026
103 0.001994
115 0.002995
124 0.001995
131 0.002033
136 0.002026
142 0.00303
148 0.002991
154 0.002996
159 0.001949
164 0.00199
169 0.001994
173 0.002993
176 0.002992
178 0.002038
157 0.002993
108 0.002028
77 0.001972
61 0.002005
50 0.003024
42 0.002992
36 0.002029
43 0.001995
56 0.002026
67 0.003026
72 0.002992
81 0.002992
90 0.002993
102 0.002037
111 0.003028
119 0.003003
127 0.002974
134 0.002984
139 0.003028
146 0.003042
155 0.001999
159 0.002992
167 0.002034
172 0.003033
177 0.002992
182 0.00304
183 0.003025
168 0.003025
131 0.00399
94 0.004026
68 0.003044
53 0.003033
42 0.003043
31 0.003035
32 0.003033
48 0.003034
62 0.003989
70 0.002993
77 0.002978
84 0.003026
93 0.004027
103 0.003992
115 0.004031
123 0.003036
130 0.003022
137 0.004038
145 0.003039
155 0.004021
160 0.004029
168 0.003026
173 0.003023
177 0.00304
182 0.00402
186 0.004021
181 0.003035
152 0.002993
113 0.003998
84 0.004023
57 0.003017
46 0.004987
38 0.005021
38 0.004023
48 0.004021
59 0.004022
72 0.004023
79 0.00399
87 0.002962
93 0.003989
106 0.003016
114 0.004986
128 0.002987
135 0.004971
142 0.00502
148 0.004987
156 0.004018
162 0.004021
169 0.003982
173 0.004987
178 0.004986
184 0.005006
188 0.004986
191 0.004987
175 0.004989
126 0.004022
96 0.005023
78 0.004987
64 0.004009
56 0.00401
53 0.004035
58 0.00502
70 0.006017
84 0.005015
89 0.00502
93 0.004992
103 0.005018
112 0.005021
123 0.004963
130 0.004986
137 0.005027
146 0.003999
151 0.003987
156 0.00495
162 0.004988
169 0.004966
173 0.004957
178 0.004979
185 0.004976
190 0.005021
190 0.005984
172 0.006011
125 0.004994
104 0.004994
85 0.005021
69 0.005017
61 0.005018
56 0.005953
57 0.006055
73 0.005031
88 0.004995
93 0.004987
99 0.005987
106 0.005981
119 0.005016
128 0.00502
135 0.005026
142 0.005984
148 0.006982
155 0.006022
161 0.006017
170 0.00602
178 0.005023
182 0.005017
185 0.006042
190 0.006017
196 0.005021
197 0.005021
184 0.004963
149 0.006015
115 0.006982
86 0.006003
74 0.005987
59 0.006015
55 0.00601
57 0.006008
72 0.006016
84 0.006016
92 0.006022
97 0.004973
105 0.005016
114 0.006022
123 0.007027
135 0.006039
142 0.006063
151 0.006871
160 0.006023
165 0.006015
171 0.00597
177 0.006974
182 0.007015
187 0.006031
190 0.005979
196 0.005978
199 0.006981
202 0.006984
189 0.006989
131 0.007016
95 0.005989
80 0.005989
69 0.006015
59 0.006982
53 0.006988
61 0.005976
74 0.006022
85 0.007013
90 0.007979
95 0.007936
103 0.00704
117 0.006981
126 0.007017
133 0.007016
144 0.005996
150 0.006993
156 0.007015
164 0.005993
169 0.005981
174 0.005954
181 0.007982
185 0.007982
189 0.007014
194 0.007947
199 0.006965
201 0.007029
196 0.007016
155 0.006976
120 0.007011
98 0.007011
81 0.005994
73 0.007024
66 0.007979
65 0.007979
77 0.006946
91 0.007946
99 0.007013
103 0.007018
108 0.007023
117 0.007945
125 0.007972
135 0.006989
141 0.007979
146 0.007946
155 0.00798
162 0.007974
168 0.006938
177 0.007984
181 0.006988
184 0.007023
188 0.007018
194 0.007975
196 0.007945
200 0.006981
183 0.006971
161 0.006975
127 0.007978
104 0.007971
85 0.007962
77 0.007948
71 0.006947
74 0.006978
86 0.00701
99 0.007014
104 0.006981
110 0.006982
116 0.007006
125 0.007005
134 0.007011
142 0.007018
150 0.007021
159 0.00798
163 0.007943
168 0.00795
174 0.007947
182 0.006981
188 0.00702
193 0.007018
198 0.007014
202 0.007014
207 0.006976
209 0.007014
196 0.007021
164 0.00703
134 0.007024
107 0.007014
95 0.006021
86 0.007035
80 0.007015
77 0.007012
87 0.007013
99 0.007011
106 0.007032
110 0.007011
120 0.00703
127 0.00703
136 0.005979
145 0.005983
153 0.006015
160 0.006015
167 0.005989
172 0.006008
180 0.007019
185 0.006981
190 0.007004
194 0.006979
201 0.007008
205 0.006982
209 0.007019
214 0.005984
215 0.006024
202 0.005981
170 0.006014
138 0.006027
112 0.006022
100 0.005975
90 0.006024
83 0.007015
83 0.007039
95 0.006981
104 0.006013
111 0.005968
116 0.006024
121 0.005984
128 0.006014
136 0.005983
146 0.005971
152 0.005984
159 0.005992
165 0.005976
174 0.005984
179 0.005982
183 0.005026
190 0.006028
194 0.006007
198 0.006094
201 0.00603
204 0.006013
209 0.006035
209 0.006032
192 0.006033
161 0.006021
118 0.006017
105 0.006017
96 0.005037
88 0.005031
87 0.005022
92 0.005013
103 0.005024
110 0.005984
114 0.005984
118 0.006036
124 0.006015
131 0.005034
142 0.006017
148 0.004987
154 0.005031
160 0.005028
167 0.004987
172 0.005033
177 0.005017
182 0.005012
186 0.00502
191 0.005018
195 0.003992
197 0.004024
203 0.004987
205 0.004991
194 0.005037
166 0.00502
126 0.004986
108 0.004987
97 0.005033
89 0.005023
82 0.005023
82 0.004993
90 0.004002
100 0.003964
108 0.00402
113 0.004031
118 0.004043
125 0.004992
135 0.005016
142 0.005019
148 0.00502
154 0.004982
160 0.005018
166 0.005035
171 0.004037
180 0.003978
184 0.00399
189 0.004021
192 0.00399
196 0.00399
201 0.004032
204 0.003987
203 0.005009
185 0.004987
152 0.004987
115 0.004031
99 0.003991
82 0.004024
75 0.003991
72 0.003992
76 0.00403
86 0.004024
98 0.003992
102 0.003991
106 0.004024
112 0.002992
120 0.004045
129 0.004029
136 0.00399
148 0.004026
153 0.00399
159 0.003991
163 0.004037
169 0.003981
175 0.003969
179 0.003989
184 0.003988
188 0.003993
191 0.004023
195 0.004051
199 0.004012
191 0.002992
163 0.002986
130 0.004005
106 0.003989
91 0.00404
78 0.003981
70 0.003958
67 0.00399
72 0.004031
82 0.00399
94 0.004013
97 0.002995
105 0.002987
111 0.002992
119 0.004023
127 0.002993
134 0.00399
140 0.00399
147 0.004007
153 0.003992
157 0.004008
162 0.003991
168 0.002992
174 0.003016
179 0.002992
183 0.002992
186 0.003024
190 0.002992
192 0.002992
193 0.003023
170 0.003991
137 0.003042
110 0.00399
93 0.003989
83 0.002028
72 0.003037
68 0.003024
76 0.003
86 0.002992
92 0.002992
96 0.002992
99 0.002992
107 0.003023
114 0.002992
121 0.002992
127 0.001994
134 0.002032
141 0.001995
148 0.001995
154 0.002992
159 0.003034
163 0.002992
167 0.002992
171 0.002992
176 0.003029
178 0.002992
182 0.001995
186 0.002031
183 0.001995
153 0.001996
112 0.002008
90 0.002029
81 0.002028
73 0.001995
69 0.001984
70 0.001969
80 0.00202
89 0.001995
94 0.001995
97 0.001995
102 0.001995
112 0.002036
120 0.002032
130 0.001995
136 0.002029
141 0.001996
147 0.002003
153 0.001992
159 0.001996
164 0.001995
168 0.002008
173 0.001999
175 0.000998
181 0.001046
185 0.000998
189 0.000999
188 0.00101
172 0.00103
142 0.001006
111 0.001995
86 0.002001
76 0.001997
66 0.001995
60 0.001996
59 0.001996
73 0.001995
82 0.000996
87 0.000995
92 0.000997
99 0.000957
105 0.000954
112 0.001005
120 0.000998
129 0.000988
134 0.000998
140 0.000968
146 0.000989
155 0.001015
159 0.000998
164 0.000997
170 0.000997
173 0.002028
176 0.000998
179 0.00097
182 0.000972
185 0.001011
175 0.000992
147 0.000998
115 0.000985
81 0.000997
69 0.000997
60 0.000966
53 0.000997
55 0.000997
64 0.0
74 0.0
81 0.0
85 0.000997
91 0.000997
98 0.000998
106 0.000997
117 0.000997
124 0.000997
130 0.0
138 0.000997
142 0.000997
147 0.0
153 0.0
158 0.0
163 0.0
167 0.0
170 0.0
173 0.0
177 0.0
180 0.000998
176 0.000997
142 0.001004
110 0.0
86 0.000998
73 0.000997
64 0.000998
55 0.0
53 0.0
59 0.0
68 0.0
77 0.0
81 0.0
86 0.0
95 0.0
102 0.0
110 0.0
116 0.0
123 0.0
130 0.00099
135 0.0
139 0.0
145 0.0
153 0.0
158 0.0
161 0.0
165 0.0
169 0.00086
173 0.0
175 0.0
169 0.0
142 0.000999
109 0.000998
84 0.001008
70 0.0
56 0.0
50 0.0
49 0.0
57 0.0
71 0.001005
77 0.001035
83 0.0
87 0.0
95 0.0
102 0.000967
111 0.0
119 0.0
128 0.000979
135 0.0
140 0.0
147 0.0
151 0.000986
155 0.000993
162 0.0
166 0.0
168 0.0
172 0.001997
176 0.001995
181 0.002002
174 0.001995
135 0.0
103 0.0
78 0.0
63 0.001031
53 0.001047
43 0.001032
39 0.001031
45 0.000997
57 0.000997
66 0.001995
74 0.001995
79 0.002031
90 0.000998
98 0.0
106 0.0
113 0.001044
120 0.001045
128 0.0
134 0.000994
140 0.000999
145 0.001995
151 0.001994
159 0.001995
162 0.002026
167 0.001037
171 0.000998
174 0.001004
178 0.001995
181 0.001997
163 0.000997
130 0.0
98 0.002029
74 0.002001
59 0.001995
43 0.002002
38 0.001996
42 0.0
53 0.001056
64 0.001
70 0.001986
73 0.001995
82 0.00103
91 0.000958
98 0.000986
106 0.001995
113 0.001996
124 0.001995
131 0.002009
137 0.000999
143 0.001028
149 0.002034
154 0.001981
158 0.002992
164 0.001996
167 0.001034
170 0.002026
172 0.002989
176 0.003029
176 0.002984
158 0.002992
112 0.002029
84 0.002046
67 0.001987
59 0.002038
47 0.002034
42 0.001995
47 0.001996
57 0.002002
67 0.002024
72 0.003023
79 0.002026
86 0.003024
93 0.003037
105 0.002029
111 0.002044
117 0.002038
123 0.002987
129 0.002992
136 0.002045
141 0.002033
148 0.001996
152 0.002992
159 0.001995
163 0.002994
167 0.002992
172 0.002041
174 0.002034
178 0.002987
173 0.004023
149 0.003034
103 0.002992
78 0.001999
62 0.00303
51 0.004024
39 0.001992
38 0.00399
47 0.003989
62 0.002028
68 0.002991
73 0.001994
79 0.002992
85 0.002992
97 0.001997
105 0.002004
113 0.002
124 0.002982
128 0.002993
135 0.003997
141 0.00399
147 0.003024
153 0.003024
158 0.003032
163 0.003997
166 0.003989
171 0.003019
174 0.003034
177 0.001989
181 0.003001
174 0.00299
146 0.004023
109 0.004022
71 0.002993
54 0.002988
42 0.003023
33 0.003989
27 0.00399
32 0.002989
44 0.003038
54 0.004041
64 0.004023
70 0.00402
79 0.004987
87 0.004987
98 0.004024
106 0.003024
113 0.003025
119 0.003992
126 0.004033
134 0.002993
139 0.002997
146 0.003983
154 0.004018
159 0.003994
164 0.004019
166 0.005025
170 0.004987
175 0.00403
179 0.004032
177 0.00399
157 0.003989
121 0.004035
78 0.003992
58 0.00396
39 0.003997
31 0.003993
27 0.003991
33 0.005018
45 0.004989
58 0.003952
63 0.004028
68 0.004021
76 0.005037
84 0.006034
96 0.003977
104 0.005017
116 0.003985
123 0.004024
128 0.003996
134 0.005031
140 0.004996
146 0.004002
152 0.003993
157 0.004023
160 0.006018
164 0.005984
169 0.005018
172 0.00501
175 0.005021
157 0.004024
121 0.005011
87 0.006023
65 0.005024
47 0.003986
41 0.000998
34 0.00399
34 0.006034
42 0.005986
57 0.003985
62 0.00502
70 0.004985
77 0.005013
85 0.00502
94 0.005989
102 0.005981
111 0.003991
117 0.00502
122 0.003991
127 0.005964
133 0.006024
141 0.004998
146 0.004976
154 0.004989
158 0.004994
163 0.005
166 0.005984
169 0.006018
174 0.005004
168 0.005972
140 0.006019
103 0.007012
73 0.006981
47 0.005982
35 0.004974
22 0.005012
21 0.005006
30 0.004995
41 0.006017
51 0.005983
59 0.005986
64 0.006006
72 0.006021
82 0.005982
91 0.007014
99 0.007014
111 0.007016
116 0.006981
125 0.006024
131 0.005984
136 0.004989
142 0.006021
148 0.007022
154 0.005986
158 0.005982
162 0.005991
165 0.007014
168 0.006995
175 0.006981
170 0.006983
129 0.006027
91 0.007015
64 0.006016
48 0.006983
36 0.007948
26 0.005978
23 0.005987
28 0.005999
40 0.007012
53 0.007011
64 0.006983
70 0.007983
81 0.005993
90 0.006018
100 0.006983
110 0.007979
116 0.007954
124 0.007007
131 0.005971
137 0.006003
146 0.00697
148 0.007014
158 0.007012
163 0.007979
167 0.006001
171 0.00599
176 0.00699
180 0.007938
183 0.007942
170 0.007014
136 0.006967
99 0.006972
74 0.007949
59 0.007976
40 0.007018
35 0.006974
39 0.006018
50 0.007001
61 0.00708
67 0.007963
72 0.007946
80 0.006989
88 0.00698
96 0.006992
108 0.007978
113 0.007948
124 0.007979
132 0.00701
141 0.007009
147 0.007007
152 0.006997
158 0.006983
161 0.007011
166 0.006973
170 0.006982
173 0.00699
177 0.007935
180 0.007949
154 0.007017
118 0.007013
81 0.007018
67 0.00701
58 0.007014
52 0.00702
48 0.007014
52 0.007025
67 0.006982
76 0.006971
81 0.006978
85 0.007015
97 0.007007
106 0.007
113 0.007021
124 0.007013
130 0.007035
136 0.007011
141 0.007011
147 0.007018
155 0.007012
160 0.007013
165 0.006018
170 0.007012
176 0.006021
179 0.006016
182 0.006015
187 0.007041
189 0.007012
183 0.007017
155 0.007012
118 0.00698
81 0.007011
65 0.007017
56 0.007012
44 0.006015
43 0.006015
50 0.006021
61 0.005996
71 0.006013
75 0.006017
81 0.005992
89 0.005987
98 0.007006
108 0.007026
116 0.00699
122 0.006982
133 0.005995
139 0.005958
145 0.006032
151 0.00603
159 0.005954
164 0.005979
169 0.006012
173 0.006027
177 0.006026
182 0.005972
186 0.006024
188 0.005029
163 0.005023
126 0.005001
88 0.005996
72 0.005987
59 0.006016
53 0.006028
50 0.00602
53 0.005976
64 0.006016
76 0.005028
81 0.005019
85 0.005018
96 0.005023
105 0.005016
113 0.006028
120 0.005985
130 0.006033
136 0.006017
141 0.006035
146 0.006033
150 0.006014
157 0.005018
162 0.006019
166 0.005025
172 0.005015
176 0.004948
180 0.005041
183 0.005026
178 0.004988
151 0.005021
116 0.005027
88 0.00503
74 0.004024
65 0.005026
56 0.005882
54 0.005029
66 0.004974
77 0.005038
83 0.004997
85 0.005019
90 0.004987
100 0.005033
108 0.004992
116 0.004991
123 0.004978
129 0.004991
136 0.005029
142 0.004985
151 0.004012
156 0.00398
160 0.00405
165 0.005027
169 0.004987
174 0.004989
178 0.005027
182 0.005025
185 0.005023
187 0.004992
168 0.005027
133 0.004023
86 0.003973
70 0.003991
60 0.003988
53 0.00399
48 0.004016
52 0.003991
64 0.004023
75 0.004995
80 0.005029
83 0.005027
91 0.005017
99 0.00498
113 0.003991
119 0.003956
126 0.004026
133 0.004012
139 0.00399
146 0.003995
152 0.003966
157 0.00399
162 0.004027
166 0.00404
172 0.004024
175 0.002992
182 0.003992
186 0.004023
188 0.004023
177 0.003992
145 0.004021
102 0.004027
80 0.004029
68 0.00403
58 0.00399
52 0.004037
50 0.00399
62 0.00402
74 0.004045
79 0.00296
84 0.003991
90 0.002994
96 0.004021
108 0.002986
115 0.002992
121 0.004027
127 0.00299
134 0.002964
141 0.002987
148 0.002992
154 0.003954
160 0.003038
164 0.002992
168 0.00399
172 0.003992
176 0.003993
180 0.003994
184 0.002993
185 0.002986
170 0.002993
136 0.003048
88 0.002993
73 0.002994
62 0.003027
56 0.002995
54 0.002939
59 0.002992
70 0.002992
80 0.002992
83 0.002002
87 0.001995
94 0.00203
101 0.001996
114 0.003046
121 0.00305
129 0.001995
134 0.002994
140 0.002994
147 0.003025
152 0.002992
158 0.003026
164 0.002992
168 0.00202
171 0.002029
175 0.001995
182 0.001996
186 0.002046
186 0.002026
167 0.002032
134 0.001995
103 0.003034
83 0.002995
75 0.013962
61 0.002025
55 0.002028
56 0.002038
64 0.002028
81 0.001995
86 0.000973
91 0.001973
98 0.001995
105 0.00197
113 0.001994
120 0.001995
130 0.002026
136 0.001019
141 0.001996
147 0.000999
153 0.000998
162 0.001998
167 0.002042
172 0.002006
176 0.001036
180 0.002028
183 0.001995
186 0.001991
190 0.001996
180 0.002026
151 0.00196
118 0.001959
94 0.002032
72 0.001028
65 0.001026
59 0.001001
62 0.000997
72 0.001031
83 0.000998
89 0.000999
94 0.000999
100 0.000968
108 0.000968
116 0.001023
123 0.001025
135 0.001038
141 0.001029
148 0.000998
153 0.000997
158 0.001057
164 0.001002
169 0.001
173 0.000972
177 0.000998
181 0.000998
184 0.001962
190 0.002044
190 0.001
176 0.0
145 0.0
103 0.0
86 0.0
77 0.000997
70 0.001995
65 0.001963
68 0.000999
78 0.0
86 0.0
93 0.000998
98 0.0
105 0.0
112 0.001031
121 0.001031
128 0.001053
134 0.0
139 0.001
144 0.000997
151 0.001011
155 0.000997
160 0.000997
167 0.0
171 0.0
175 0.0
180 0.001996
184 0.0
185 0.0
169 0.0
137 0.0
108 0.0
84 0.0
75 0.0
69 0.0
65 0.0
73 0.000999
87 0.000996
94 0.0
98 0.0
102 0.0
109 0.0
117 0.0
125 0.0
134 0.0
140 0.000999
146 0.0
155 0.0
161 0.0
165 0.000998
170 0.001
176 0.000951
178 0.000997
183 0.000997
188 0.0
191 0.0
191 0.001034
174 0.001029
128 0.0
95 0.000999
77 0.00098
68 0.0
63 0.000998
59 0.000998
65 0.000995
81 0.0
89 0.0
94 0.0
99 0.000949
106 0.000997
116 0.0
127 0.001995
133 0.001042
143 0.0
147 0.000967
152 0.0
158 0.001029
163 0.001029
169 0.0
174 0.0
178 0.000964
181 0.000963
184 0.000998
190 0.000998
191 0.001996
177 0.000969
132 0.0
104 0.000997
87 0.001996
76 0.001994
66 0.0
62 0.0
65 0.0
75 0.001029
85 0.000998
95 0.001033
99 0.001995
107 0.000998
114 0.0
125 0.000962
133 0.001995
139 0.001995
147 0.000985
152 0.00105
158 0.000998
163 0.002027
169 0.002039
175 0.002022
180 0.001995
184 0.0
188 0.000994
192 0.000974
195 0.002038
194 0.001046
169 0.000988
135 0.000952
108 0.000997
94 0.001994
80 0.001999
75 0.002993
75 0.002032
85 0.002044
96 0.001036
101 0.002046
104 0.002993
108 0.001995
117 0.001031
123 0.001045
131 0.000985
138 0.002993
148 0.001994
152 0.002034
157 0.002993
163 0.002007
168 0.000965
172 0.001992
175 0.002034
179 0.001995
183 0.001032
186 0.001963
189 0.002028
193 0.002992
181 0.000964
151 0.003025
122 0.002963
101 0.001028
93 0.000997
87 0.001953
84 0.002993
86 0.001995
97 0.000998
105 0.000984
110 0.001955
113 0.001991
122 0.001961
129 0.001994
136 0.003991
143 0.003031
150 0.003025
156 0.001994
161 0.002004
166 0.002992
171 0.002992
177 0.001
181 0.000996
185 0.002021
191 0.001953
194 0.00199
197 0.003991
200 0.00303
202 0.002
189 0.001997
160 0.001999
131 0.003029
111 0.003027
98 0.002045
91 0.002064
85 0.002031
87 0.003028
97 0.002039
106 0.003991
110 0.004045
115 0.001986
121 0.00195
127 0.001989
134 0.003024
141 0.00302
150 0.00199
155 0.001986
161 0.00105
169 0.002997
174 0.002991
178 0.003995
182 0.004041
188 0.002977
191 0.002955
194 0.002999
197 0.003989
200 0.003989
204 0.002993
201 0.002992
178 0.002992
130 0.00399
112 0.001989
102 0.005039
93 0.004975
87 0.003027
86 0.002945
93 0.002943
103 0.004979
110 0.004987
114 0.002995
118 0.002997
125 0.002993
136 0.002992
142 0.002992
147 0.004976
153 0.004989
159 0.002983
164 0.004007
169 0.00399
174 0.00399
178 0.004947
183 0.003976
187 0.002956
192 0.002999
195 0.003006
197 0.003025
200 0.003989
202 0.004003
183 0.003985
153 0.003991
128 0.004006
110 0.003987
100 0.004985
92 0.004022
88 0.004022
94 0.004031
103 0.004021
108 0.00402
112 0.004986
116 0.005985
121 0.004986
129 0.003978
136 0.003987
142 0.003998
146 0.004986
151 0.005022
158 0.00399
164 0.00502
169 0.004026
174 0.004045
178 0.004023
181 0.006017
183 0.005998
188 0.002997
190 0.004031
193 0.004025
196 0.005032
192 0.005024
160 0.003992
126 0.004988
107 0.003986
99 0.004005
94 0.002045
90 0.005987
93 0.006098
104 0.003977
109 0.005021
112 0.004037
115 0.006012
120 0.006017
127 0.004027
136 0.005984
143 0.003986
148 0.004014
153 0.003979
156 0.005994
160 0.005985
166 0.003947
170 0.005037
174 0.004988
178 0.006014
180 0.006019
184 0.004996
188 0.006014
192 0.004986
186 0.005028
163 0.004022
135 0.006983
113 0.007012
97 0.004995
90 0.004987
85 0.004995
83 0.005989
87 0.005984
100 0.004992
106 0.006011
110 0.005039
115 0.005017
121 0.004984
128 0.006982
135 0.006984
142 0.005038
147 0.005984
151 0.004992
156 0.007014
160 0.007006
166 0.004986
171 0.005984
176 0.004997
179 0.004987
182 0.005989
186 0.007019
189 0.006975
192 0.005988
187 0.00603
164 0.00601
134 0.006981
110 0.006972
92 0.004986
82 0.006981
74 0.005952
74 0.005972
82 0.005981
91 0.006975
97 0.006982
101 0.006982
107 0.006002
112 0.005983
119 0.005998
126 0.007012
133 0.007015
142 0.007022
147 0.006971
153 0.006965
157 0.005977
162 0.005985
166 0.007981
171 0.007965
175 0.005957
178 0.005977
181 0.005985
184 0.006997
189 0.005986
183 0.00798
168 0.007979
130 0.007019
107 0.006983
93 0.00597
84 0.007981
78 0.00798
72 0.006012
76 0.005977
86 0.005985
93 0.007986
99 0.00695
106 0.007995
109 0.007017
118 0.006983
124 0.006949
131 0.006952
138 0.007978
141 0.007994
147 0.007015
152 0.007016
156 0.005983
162 0.007966
167 0.006016
172 0.007023
174 0.006971
178 0.006982
180 0.006951
183 0.006986
185 0.007979
169 0.007979
141 0.006996
114 0.006978
96 0.006983
85 0.007976
76 0.006014
74 0.006997
80 0.007019
89 0.007024
96 0.006961
98 0.006974
102 0.008025
108 0.007979
114 0.006974
120 0.006988
126 0.006983
132 0.007955
141 0.00698
146 0.007013
149 0.007032
156 0.006988
159 0.006956
163 0.006986
166 0.007026
169 0.007019
173 0.006985
176 0.006959
179 0.006982
180 0.00701
152 0.007019
122 0.007011
100 0.007015
87 0.005975
78 0.006967
71 0.006016
69 0.006058
73 0.00593
82 0.006981
91 0.006948
94 0.006942
97 0.00701
107 0.007015
114 0.006985
121 0.007015
127 0.006998
134 0.006983
139 0.006959
144 0.006031
148 0.006019
152 0.005989
158 0.006025
162 0.006013
166 0.006014
171 0.006021
174 0.007017
177 0.007021
179 0.006987
179 0.007019
162 0.00602
132 0.005985
103 0.006001
86 0.005973
71 0.006018
63 0.006016
58 0.005978
63 0.005986
73 0.00597
80 0.006035
84 0.005031
91 0.005973
97 0.006003
104 0.005982
111 0.005988
117 0.00603
125 0.005951
131 0.005953
139 0.005968
144 0.005989
148 0.006025
153 0.006021
157 0.005972
162 0.005987
165 0.005026
168 0.005003
171 0.005005
175 0.005033
179 0.006015
177 0.006032
137 0.006027
107 0.006031
87 0.00596
73 0.004984
65 0.006033
58 0.005027
56 0.004987
63 0.004989
74 0.004997
80 0.005128
86 0.005027
90 0.005025
102 0.004986
108 0.005008
114 0.006024
120 0.006047
126 0.00501
131 0.005996
137 0.005023
141 0.004998
146 0.005021
150 0.00502
156 0.005028
159 0.005028
164 0.005021
166 0.004989
169 0.00399
173 0.005028
174 0.003958
154 0.005016
124 0.005012
97 0.005018
80 0.00503
70 0.00394
64 0.004987
59 0.005024
65 0.005032
77 0.005021
83 0.005004
86 0.005019
90 0.004029
95 0.00399
104 0.00404
111 0.005035
116 0.004044
122 0.004986
128 0.004942
134 0.004986
140 0.004991
145 0.004999
151 0.005016
154 0.003989
156 0.003989
160 0.004013
164 0.004001
166 0.004058
169 0.003967
171 0.003955
159 0.003989
119 0.004033
87 0.004021
71 0.004009
64 0.004047
58 0.003986
57 0.003991
63 0.005042
75 0.004021
82 0.004012
86 0.003964
90 0.00399
96 0.004034
105 0.004004
114 0.004032
123 0.003989
128 0.004049
132 0.004032
137 0.004045
142 0.00399
148 0.004011
152 0.003013
157 0.002977
160 0.003035
163 0.00398
167 0.004012
171 0.003992
174 0.003991
170 0.00403
149 0.004001
117 0.002987
89 0.004022
67 0.002993
57 0.002994
50 0.00293
45 0.003024
46 0.003024
59 0.003954
70 0.002992
75 0.003991
81 0.002987
88 0.002992
95 0.003017
102 0.003023
111 0.003027
117 0.003023
123 0.002993
128 0.002984
133 0.002993
141 0.002995
147 0.002995
152 0.002998
156 0.002011
159 0.001996
162 0.00303
165 0.002994
170 0.002995
170 0.002995
152 0.002995
120 0.002997
91 0.003034
62 0.002995
52 0.002994
45 0.001997
42 0.001995
48 0.00198
57 0.002028
67 0.003018
71 0.002027
78 0.002032
85 0.002992
92 0.002994
100 0.003039
112 0.002995
118 0.001996
123 0.001963
131 0.001953
134 0.000998
140 0.001963
145 0.002016
150 0.001984
154 0.002032
157 0.002056
161 0.002943
164 0.001954
169 0.00296
169 0.002007
154 0.001993
112 0.001996
84 0.00195
67 0.001996
57 0.001963
50 0.001996
46 0.002012
51 0.001954
60 0.002032
69 0.002025
76 0.001998
80 0.002011
87 0.001996
96 0.000996
103 0.001996
110 0.002038
116 0.002025
121 0.000999
128 0.001016
132 0.000986
136 0.000993
141 0.002011
148 0.001001
151 0.000995
155 0.000988
158 0.000998
161 0.000998
164 0.001032
163 0.001033
145 0.001044
103 0.001012
78 0.001003
62 0.000994
54 0.002013
46 0.000991
48 0.000999
56 0.000997
68 0.001042
74 0.001033
77 0.000996
82 0.001007
89 0.001015
99 0.0
105 0.002018
113 0.00102
119 0.001013
128 0.0
134 0.0
138 0.0
143 0.0
150 0.0
153 0.0
157 0.001018
160 0.001041
165 0.001053
168 0.000997
171 0.001007
164 0.002034
115 0.001034
84 0.0
64 0.0
52 0.0
42 0.001046
36 0.000997
38 0.000999
49 0.0
60 0.0
68 0.0
72 0.0
78 0.000997
91 0.0
98 0.0
105 0.0
112 0.000989
119 0.001009
125 0.0
131 0.0
136 0.0
140 0.0
148 0.0
151 0.0
157 0.0
160 0.0
163 0.0
167 0.0
165 0.0
133 0.0
100 0.00104
74 0.0
57 0.0
46 0.0
38 0.0
36 0.000968
48 0.0
60 0.0
66 0.000996
72 0.0
76 0.0
86 0.0
95 0.0
103 0.0
112 0.001003
116 0.000998
124 0.000999
129 0.0
137 0.000999
143 0.000999
149 0.000973
152 0.000999
155 0.000999
161 0.000998
164 0.000998
167 0.000997
171 0.0
159 0.0
129 0.000998
98 0.002032
66 0.001036
58 0.001042
50 0.000953
48 0.0
55 0.0
65 0.001913
72 0.001
79 0.0
83 0.000991
89 0.000984
96 0.002994
104 0.002039
115 0.002038
121 0.002042
128 0.0
133 0.0
138 0.000961
143 0.001028
147 0.001997
151 0.001997
155 0.0
159 0.00097
164 0.0
167 0.002033
169 0.0
149 0.001995
116 0.001999
82 0.0
68 0.0
60 0.0
55 0.001963
52 0.002004
58 0.0
70 0.0
78 0.0
82 0.002037
90 0.0
96 0.001996
104 0.002026
114 0.0
120 0.000966
125 0.00098
133 0.001031
138 0.000999
144 0.0
150 0.0
154 0.0
158 0.001996
164 0.0
167 0.001996
171 0.001991
175 0.0
171 0.0
147 0.00203
114 0.002984
87 0.002048
66 0.001966
56 0.002001
49 0.002009
44 0.002994
54 0.002
66 0.003041
74 0.00203
79 0.002013
84 0.002008
93 0.002962
101 0.003027
107 0.001996
118 0.002009
124 0.001028
129 0.001027
138 0.000992
142 0.00104
149 0.003033
154 0.003037
159 0.001997
163 0.002029
166 0.000993
170 0.002993
173 0.00304
172 0.001962
149 0.001962
115 0.002027
74 0.001993
61 0.001997
52 0.003025
45 0.004049
44 0.001942
52 0.00199
64 0.001996
72 0.002993
77 0.002996
83 0.00202
91 0.001029
99 0.002003
111 0.000984
118 0.002012
124 0.003021
129 0.003044
138 0.001976
142 0.001998
147 0.001987
152 0.001996
156 0.004034
160 0.00404
164 0.000965
169 0.0
174 0.00199
166 0.001979
138 0.001989
104 0.002992
80 0.003027
61 0.001968
53 0.001001
47 0.001995
45 0.004032
51 0.004003
67 0.001977
74 0.001972
80 0.001949
86 0.002003
94 0.00201
102 0.002972
110 0.003028
117 0.001979
123 0.001995
129 0.002006
134 0.00403
139 0.004033
146 0.001987
151 0.001996
158 0.00199
160 0.001967
164 0.001964
168 0.00402
171 0.004024
172 0.001977
156 0.002985
124 0.002988
93 0.004026
75 0.004024
63 0.002946
57 0.002963
55 0.002026
64 0.002029
75 0.001971
80 0.004028
83 0.004027
90 0.002981
97 0.002997
104 0.00295
111 0.00499
117 0.005028
124 0.002985
130 0.002987
138 0.002982
144 0.002002
149 0.002994
153 0.004037
157 0.003991
162 0.003038
165 0.002038
168 0.002021
172 0.004988
175 0.005018
156 0.001994
124 0.002987
82 0.002949
70 0.002986
62 0.00299
55 0.004988
54 0.00405
63 0.00201
73 0.003969
80 0.003978
85 0.004018
89 0.006016
99 0.003947
107 0.003984
120 0.002999
126 0.00399
131 0.003059
137 0.005036
142 0.005214
149 0.003978
155 0.003989
161 0.003004
166 0.005033
169 0.004987
172 0.004999
178 0.004986
182 0.004988
179 0.002987
155 0.002982
121 0.003992
94 0.004989
77 0.004987
63 0.003996
55 0.003021
50 0.004941
52 0.005998
63 0.005984
79 0.004996
84 0.004986
89 0.004013
97 0.003995
106 0.00401
114 0.005984
121 0.006016
131 0.003982
136 0.003992
141 0.004989
147 0.006014
152 0.006017
161 0.005018
166 0.005025
171 0.003958
176 0.004028
179 0.004032
183 0.005994
186 0.006023
175 0.003985
145 0.004005
112 0.004986
89 0.007016
77 0.006983
62 0.005027
57 0.006036
60 0.004989
71 0.004985
81 0.003991
86 0.006028
91 0.006027
99 0.00399
106 0.004991
114 0.003993
122 0.007018
129 0.006982
139 0.007012
144 0.007016
152 0.005
157 0.004992
162 0.004036
167 0.006017
172 0.005994
175 0.005007
179 0.004963
183 0.006017
186 0.007018
189 0.007008
169 0.007012
136 0.006963
101 0.005003
87 0.004989
79 0.004978
72 0.007029
69 0.007019
74 0.005983
85 0.005985
93 0.005976
96 0.00698
99 0.006983
109 0.006982
117 0.007013
125 0.005022
132 0.004987
138 0.004981
144 0.006981
149 0.006982
155 0.005996
161 0.005987
165 0.005962
170 0.006983
174 0.006966
180 0.00598
184 0.007006
187 0.006984
190 0.005029
182 0.005043
153 0.006019
112 0.007965
95 0.007946
85 0.005973
77 0.005992
72 0.005957
71 0.007978
85 0.005979
94 0.007976
98 0.007979
103 0.00601
109 0.006993
116 0.006017
123 0.006982
131 0.00798
139 0.005981
144 0.005984
149 0.005957
158 0.005984
164 0.005983
168 0.007974
174 0.007984
179 0.005954
182 0.006989
184 0.005983
190 0.007031
193 0.00798
194 0.006949
183 0.006999
154 0.006025
105 0.005978
89 0.005986
78 0.00797
69 0.007995
64 0.005997
66 0.005976
76 0.006971
89 0.006987
92 0.007022
97 0.006954
106 0.006958
110 0.006983
123 0.006991
129 0.007003
135 0.007944
141 0.007978
148 0.006977
154 0.007003
158 0.006976
165 0.007025
169 0.00701
174 0.00693
178 0.006982
181 0.006953
186 0.006978
188 0.006973
189 0.007007
170 0.007014
136 0.006034
107 0.006986
85 0.006978
76 0.006989
68 0.006983
63 0.006988
65 0.006972
77 0.006994
91 0.006975
93 0.006972
99 0.00701
105 0.006019
113 0.006982
122 0.005961
129 0.005983
135 0.005996
142 0.006014
147 0.006981
152 0.00702
158 0.006982
166 0.00698
170 0.006987
173 0.006968
177 0.006911
180 0.007017
184 0.006969
187 0.005989
190 0.006001
188 0.005958
165 0.006018
122 0.005982
99 0.005976
81 0.006972
75 0.006991
71 0.006977
73 0.006021
83 0.005998
94 0.005976
98 0.005981
101 0.005978
107 0.006014
113 0.005975
123 0.006018
130 0.005982
139 0.005992
144 0.005994
149 0.005993
154 0.005947
158 0.00602
164 0.005991
168 0.005984
172 0.006019
174 0.006
177 0.006031
181 0.005989
183 0.006019
187 0.006021
179 0.006021
151 0.005987
119 0.004988
97 0.005015
83 0.004987
75 0.004987
71 0.004991
70 0.004978
77 0.005004
91 0.005022
97 0.006026
103 0.006015
109 0.005985
116 0.005987
124 0.006016
130 0.005034
139 0.004972
144 0.005034
149 0.005026
153 0.004976
159 0.005012
164 0.005035
171 0.005018
176 0.005023
180 0.005023
182 0.005019
185 0.005048
188 0.00602
192 0.004994
184 0.004975
157 0.005022
125 0.004948
100 0.004987
81 0.004988
71 0.004987
66 0.006009
66 0.005984
75 0.005028
86 0.003988
93 0.005022
97 0.004975
103 0.005016
111 0.004984
119 0.005056
127 0.005043
134 0.005032
145 0.005029
151 0.005027
157 0.004979
163 0.005021
168 0.003979
174 0.003947
178 0.003952
184 0.004987
187 0.00503
190 0.005042
193 0.003998
196 0.004003
187 0.00498
159 0.005018
118 0.005021
99 0.00402
89 0.00404
81 0.003991
76 0.005066
76 0.00403
84 0.003991
94 0.00399
102 0.004017
107 0.003003
115 0.003991
122 0.003991
132 0.005031
139 0.00503
145 0.004012
150 0.003991
155 0.003991
161 0.002998
165 0.004031
171 0.004024
176 0.003028
181 0.002991
186 0.004036
188 0.00399
193 0.003989
196 0.003019
197 0.003028
192 0.00399
168 0.004032
127 0.00399
106 0.004026
96 0.004031
91 0.003976
87 0.003992
90 0.003027
99 0.003989
109 0.004037
112 0.003991
114 0.003033
120 0.002966
127 0.00399
135 0.003027
142 0.001992
149 0.004032
153 0.002986
157 0.003037
164 0.004028
167 0.003989
172 0.004025
176 0.004025
179 0.003036
183 0.003035
186 0.003001
190 0.001996
193 0.002994
194 0.001996
180 0.001995
150 0.001995
109 0.004012
97 0.003987
89 0.002992
85 0.002992
84 0.002993
92 0.002996
102 0.003032
112 0.003029
116 0.002958
121 0.001951
126 0.001962
137 0.002993
144 0.002992
151 0.001995
155 0.00299
160 0.002992
165 0.003027
168 0.002994
172 0.003005
177 0.002944
182 0.003035
185 0.00196
188 0.001995
193 0.002992
196 0.003023
198 0.003023
186 0.002027
146 0.001995
118 0.003038
100 0.002957
90 0.001995
83 0.000965
78 0.003032
79 0.001037
87 0.002038
103 0.002018
108 0.002033
112 0.002992
117 0.001995
126 0.003022
133 0.001961
138 0.001996
144 0.00202
150 0.002032
155 0.003063
159 0.001027
164 0.001034
171 0.002009
175 0.002045
177 0.000998
181 0.001044
185 0.001051
187 0.001039
190 0.00203
187 0.00206
164 0.001994
123 0.002029
103 0.001031
90 0.000984
79 0.001995
75 0.001998
77 0.002037
85 0.001996
96 0.002017
102 0.001005
106 0.001994
111 0.00103
118 0.002022
128 0.002021
134 0.001993
140 0.001033
150 0.001995
154 0.001995
159 0.001995
164 0.002041
170 0.001998
174 0.001056
178 0.00104
180 0.001033
183 0.001004
188 0.002006
192 0.001039
192 0.0
157 0.000997
131 0.000997
113 0.000999
104 0.002041
97 0.002039
95 0.001006
96 0.001004
104 0.00095
113 0.001013
118 0.000998
120 0.001004
124 0.001048
134 0.000997
141 0.000998
146 0.000997
152 0.002058
157 0.000996
164 0.0
167 0.0
172 0.0
175 0.0
179 0.0
182 0.0
186 0.0
191 0.0
194 0.0
189 0.0
164 0.0
135 0.0
107 0.0
95 0.0
88 0.000998
83 0.0
81 0.0
88 0.0
98 0.0
107 0.0
110 0.0
115 0.0
121 0.0
129 0.0
136 0.0
141 0.0
146 0.0
150 0.0
153 0.0
159 0.0
165 0.0
172 0.0
175 0.0
178 0.0
181 0.0
184 0.0
167 0.0
137 0.000997
109 0.000999
92 0.000998
82 0.001008
74 0.0
71 0.000998
79 0.0
89 0.001045
96 0.001036
100 0.001013
103 0.000951
109 0.00203
116 0.001033
124 0.001006
131 0.000948
137 0.000951
143 0.001014
152 0.0
155 0.0
159 0.002038
165 0.0
168 0.0
172 0.0
175 0.001997
168 0.001995
132 0.0
105 0.000962
87 0.0
76 0.00204
67 0.0
66 0.002041
71 0.002028
84 0.0
92 0.0
96 0.000964
99 0.001014
104 0.00103
114 0.0
121 0.000998
126 0.000965
132 0.001996
140 0.000964
144 0.001015
148 0.002051
152 0.002058
158 0.0
162 0.0
164 0.0
151 0.002032
124 0.002044
90 0.0
76 0.0
69 0.0
62 0.0
65 0.0
72 0.002028
82 0.002044
91 0.0
95 0.0
99 0.00103
105 0.001014
111 0.001995
117 0.001047
125 0.0
131 0.001017
140 0.0
143 0.0
147 0.002027
152 0.002027
158 0.0
162 0.0
164 0.0
151 0.003015
123 0.002
90 0.0
78 0.000966
71 0.0
66 0.0
69 0.0
78 0.001955
88 0.002026
95 0.0
99 0.00104
104 0.000983
111 0.001996
117 0.002051
126 0.000966
133 0.000951
138 0.0
146 0.00097
149 0.001995
153 0.002025
157 0.003034
161 0.00199
165 0.00199
170 0.002012
172 0.002992
169 0.002986
138 0.002006
109 0.001046
83 0.001982
76 0.002031
74 0.002032
74 0.002993
81 0.002993
93 0.00199
98 0.001996
101 0.000996
105 0.002948
110 0.00304
120 0.001028
126 0.001028
136 0.000988
142 0.000992
147 0.000999
151 0.003022
155 0.002992
161 0.001995
164 0.001995
168 0.001996
171 0.003989
175 0.002992
178 0.001995
168 0.001048
132 0.00298
101 0.001029
89 0.001052
81 0.000987
76 0.002991
75 0.003024
83 0.001996
93 0.002003
100 0.002003
104 0.00399
108 0.003989
114 0.001985
123 0.004024
132 0.000999
138 0.000991
142 0.001041
147 0.00399
151 0.003989
157 0.001003
161 0.001979
163 0.001996
167 0.004036
170 0.004022
174 0.001979
178 0.004023
172 0.002974
147 0.002968
117 0.002998
98 0.004023
87 0.003999
78 0.002974
75 0.002975
77 0.00296
84 0.004986
93 0.003992
101 0.002989
105 0.00399
113 0.001962
119 0.002015
126 0.002991
133 0.004021
138 0.004023
144 0.001995
149 0.002979
153 0.002949
157 0.004987
161 0.004991
167 0.002987
171 0.00502
176 0.002016
180 0.002027
183 0.002032
185 0.004022
176 0.004026
139 0.002005
115 0.002995
100 0.003
91 0.004947
87 0.005035
85 0.002974
94 0.005061
104 0.002992
108 0.003002
111 0.002999
114 0.004996
120 0.004986
130 0.00299
136 0.003994
141 0.003991
147 0.006029
153 0.005014
158 0.003002
164 0.005021
169 0.003001
173 0.002998
175 0.002985
178 0.002982
181 0.004996
185 0.004987
187 0.003954
184 0.003985
161 0.003977
132 0.005987
111 0.005985
93 0.005018
87 0.00502
85 0.004016
88 0.002998
96 0.002992
104 0.005984
108 0.005986
111 0.003989
116 0.003988
123 0.003993
129 0.005986
139 0.00401
143 0.006983
148 0.005984
153 0.002991
157 0.002992
162 0.00399
166 0.004987
169 0.004994
173 0.003999
176 0.00399
178 0.003991
180 0.005984
184 0.00399
176 0.006019
151 0.005998
114 0.003027
99 0.003989
90 0.003989
84 0.006017
80 0.006019
84 0.004979
91 0.004014
98 0.004023
102 0.005996
106 0.00399
111 0.005983
119 0.005984
126 0.003989
132 0.003989
137 0.004988
142 0.006982
145 0.006982
151 0.004987
155 0.004987
158 0.004987
162 0.005975
166 0.003989
168 0.005984
169 0.005984
171 0.003986
173 0.003989
172 0.00399
157 0.007015
129 0.006984
100 0.004992
87 0.004985
81 0.004995
78 0.007004
79 0.004951
86 0.006971
93 0.006018
99 0.003988
101 0.003984
105 0.003995
111 0.006983
117 0.007014
124 0.004995
130 0.004989
135 0.005986
139 0.007977
145 0.004957
149 0.006982
152 0.006982
157 0.004988
160 0.005954
162 0.005022
165 0.007013
168 0.007009
171 0.007017
173 0.005014
167 0.006019
142 0.005003
101 0.004989
88 0.004993
82 0.006991
78 0.006981
76 0.005992
82 0.00598
91 0.005017
96 0.007969
98 0.007978
104 0.006982
109 0.005988
114 0.005993
125 0.004985
130 0.004981
136 0.007014
140 0.006981
145 0.004977
149 0.005958
153 0.00602
158 0.007965
162 0.007981
165 0.005991
167 0.005986
169 0.005984
174 0.005984
177 0.005976
171 0.007982
149 0.007976
120 0.005971
99 0.005988
85 0.005985
76 0.007971
72 0.007979
70 0.005992
79 0.006952
89 0.005996
93 0.00599
97 0.005976
102 0.007969
108 0.007007
117 0.006979
123 0.006948
127 0.005988
134 0.007018
139 0.007012
142 0.005984
148 0.005996
154 0.005992
158 0.006966
162 0.006971
166 0.007011
169 0.007017
172 0.006975
174 0.006974
176 0.006972
176 0.007013
160 0.006972
131 0.006974
106 0.006021
82 0.006951
75 0.00698
73 0.005976
73 0.007031
80 0.006939
90 0.006982
92 0.006979
96 0.006977
101 0.006981
106 0.006981
115 0.006981
119 0.00698
129 0.006981
133 0.006981
136 0.00698
142 0.005984
147 0.006981
150 0.006981
153 0.006981
159 0.006981
161 0.006982
164 0.005984
167 0.005983
169 0.005984
173 0.006982
171 0.006981
148 0.005985
119 0.005984
97 0.005984
85 0.005984
77 0.005984
73 0.006982
73 0.006981
80 0.005961
88 0.005938
94 0.005984
98 0.006949
105 0.006025
110 0.006022
116 0.005961
122 0.005987
128 0.005987
134 0.005997
139 0.006014
143 0.006019
147 0.004981
152 0.00496
158 0.004986
162 0.006015
166 0.005983
168 0.005985
171 0.005996
174 0.006024
177 0.006018
174 0.006014
156 0.005972
127 0.005986
102 0.006019
86 0.004952
75 0.004992
67 0.00598
67 0.005018
74 0.005021
84 0.004955
90 0.004956
93 0.005022
99 0.005992
105 0.004988
112 0.005995
117 0.006018
124 0.005009
131 0.004993
138 0.006016
143 0.005972
148 0.005985
153 0.004988
156 0.004981
160 0.005017
165 0.004982
167 0.005021
169 0.004982
172 0.004993
175 0.004936
177 0.004993
158 0.005036
118 0.005999
96 0.005035
81 0.005023
73 0.005021
67 0.005017
64 0.005018
69 0.005017
78 0.00502
86 0.005017
91 0.004988
98 0.003991
104 0.004988
112 0.004957
120 0.003992
125 0.00399
130 0.004958
135 0.004032
140 0.00399
145 0.004987
149 0.004989
154 0.003991
158 0.003995
163 0.005024
166 0.005025
169 0.004988
172 0.003992
174 0.003992
177 0.003992
169 0.003959
145 0.004019
107 0.003992
88 0.005023
78 0.003952
71 0.003952
65 0.004985
68 0.005022
78 0.00402
88 0.00402
92 0.003953
95 0.003959
101 0.003992
107 0.003991
116 0.003954
123 0.003978
128 0.003031
133 0.003958
140 0.004054
145 0.003948
149 0.004021
154 0.004988
158 0.003991
161 0.004
164 0.003997
166 0.003991
170 0.003991
172 0.003993
174 0.004028
172 0.002992
135 0.003982
107 0.003993
87 0.003026
73 0.003989
68 0.00402
64 0.003025
66 0.003001
74 0.002991
85 0.004035
89 0.003991
92 0.004046
97 0.004016
107 0.00399
114 0.003993
120 0.003989
127 0.003991
131 0.003982
135 0.003024
138 0.002992
143 0.002992
148 0.002954
152 0.002994
155 0.002994
158 0.002995
162 0.003037
163 0.002992
166 0.003025
170 0.00399
163 0.003991
138 0.003989
109 0.003997
88 0.002992
72 0.003023
67 0.003027
64 0.003005
64 0.002968
77 0.002986
84 0.002992
88 0.001995
94 0.001997
99 0.002992
106 0.001995
113 0.001997
120 0.002992
127 0.003024
131 0.003031
136 0.002993
140 0.001996
148 0.003025
152 0.002992
156 0.003037
160 0.002992
164 0.003026
166 0.002992
169 0.003024
172 0.001996
174 0.002001
173 0.001995
150 0.002993
118 0.002032
79 0.002038
67 0.003026
60 0.002033
54 0.00203
52 0.002043
60 0.002044
70 0.003043
77 0.002044
81 0.001995
88 0.001994
94 0.001995
106 0.001995
113 0.001994
119 0.001995
124 0.001996
129 0.00199
136 0.002
140 0.002028
145 0.002026
149 0.001038
153 0.000952
158 0.000998
160 0.002024
165 0.00202
169 0.001996
172 0.002021
167 0.001996
144 0.002012
103 0.002044
80 0.002025
66 0.00196
57 0.00099
52 0.001008
49 0.000998
56 0.002027
72 0.002045
79 0.001995
82 0.000997
87 0.002039
94 0.000997
104 0.001963
110 0.001996
116 0.000997
122 0.000998
128 0.000998
134 0.002029
139 0.001036
146 0.002029
150 0.000998
154 0.001994
157 0.000997
161 0.000998
165 0.001996
167 0.001006
170 0.000998
171 0.001027
156 0.001024
116 0.000997
89 0.0
63 0.000998
56 0.002031
50 0.001978
49 0.001002
55 0.002025
68 0.000997
75 0.0
79 0.0
83 0.001006
89 0.000998
96 0.001008
106 0.0
114 0.000996
122 0.000998
127 0.000998
132 0.0
137 0.001002
142 0.0
147 0.0
151 0.0
154 0.0
157 0.0
160 0.0
164 0.00103
169 0.0
169 0.0
155 0.000955
126 0.00096
95 0.0
74 0.0
59 0.0
53 0.0
48 0.0
50 0.0
58 0.0
69 0.0
75 0.0
81 0.0
88 0.0
94 0.0
101 0.0
108 0.0
115 0.000997
120 0.000998
125 0.000997
130 0.0
134 0.000997
140 0.001026
147 0.0
151 0.002042
153 0.002042
158 0.0
161 0.000953
164 0.0
166 0.002024
161 0.002029
126 0.0
95 0.0
75 0.0
58 0.000981
53 0.0
50 0.002026
54 0.003029
67 0.001001
74 0.0
77 0.0
81 0.002049
86 0.002031
96 0.0
103 0.0
110 0.0
119 0.0
124 0.0
129 0.003028
133 0.002025
140 0.0
144 0.0
148 0.000951
153 0.002029
156 0.002029
159 0.0
163 0.0
166 0.000965
170 0.001025
166 0.0
144 0.002027
111 0.002039
82 0.001982
59 0.0
50 0.0
43 0.0
39 0.001994
41 0.001987
55 0.0
62 0.0
70 0.000972
75 0.0
81 0.001012
89 0.002027
98 0.002034
105 0.000971
112 0.000988
117 0.0
122 0.002026
126 0.002034
134 0.0
138 0.0
146 0.0
149 0.0
153 0.0
156 0.002028
159 0.002026
163 0.0
166 0.0
161 0.0
135 0.002031
102 0.002033
69 0.0
54 0.0
40 0.001
36 0.0
39 0.0
48 0.002992
57 0.002996
66 0.0
70 0.0
74 0.0
82 0.002999
90 0.002019
99 0.0
106 0.001997
115 0.0
120 0.00201
125 0.001996
130 0.002026
134 0.003026
141 0.001995
145 0.002006
149 0.001992
152 0.003032
155 0.003023
159 0.001025
163 0.001987
162 0.00103
142 0.001029
108 0.002022
78 0.001987
60 0.003044
48 0.001991
41 0.001996
38 0.001994
43 0.003008
53 0.003051
63 0.002992
68 0.002992
75 0.001995
82 0.001995
88 0.001994
96 0.00298
103 0.002992
110 0.000997
116 0.001995
122 0.002992
126 0.002993
130 0.002992
138 0.001995
142 0.000993
148 0.0
151 0.001995
155 0.002993
158 0.001995
162 0.003989
164 0.003996
147 0.001995
114 0.001995
83 0.001994
61 0.002992
50 0.002992
39 0.002991
38 0.002992
45 0.002017
56 0.003015
65 0.001996
68 0.004021
72 0.00402
82 0.003008
90 0.002994
97 0.002994
104 0.003989
111 0.00399
121 0.002992
125 0.002993
132 0.001995
138 0.001994
142 0.001995
147 0.003991
151 0.003989
156 0.001995
159 0.001997
163 0.002003
166 0.003987
170 0.004021
153 0.005024
119 0.004986
77 0.001998
57 0.002004
45 0.002
37 0.003997
32 0.005019
35 0.001997
45 0.001991
56 0.002032
63 0.004025
66 0.004021
77 0.004026
84 0.00402
95 0.00199
102 0.002996
108 0.002037
114 0.005019
120 0.005021
126 0.002987
132 0.001998
138 0.002002
143 0.004031
147 0.005021
152 0.004021
156 0.003991
161 0.003008
164 0.002987
168 0.003019
162 0.005022
135 0.00502
89 0.002975
65 0.002996
50 0.002994
41 0.004981
35 0.004022
36 0.005017
47 0.005017
60 0.002997
66 0.002993
70 0.002996
77 0.005021
83 0.005023
94 0.002997
102 0.002992
108 0.002999
114 0.004986
119 0.005018
128 0.006015
134 0.00598
139 0.005991
144 0.002993
149 0.002991
152 0.002988
154 0.004979
159 0.005021
164 0.00399
166 0.003
165 0.003007
147 0.005985
91 0.003976
68 0.005985
56 0.006019
49 0.00298
45 0.002991
47 0.002999
56 0.005019
66 0.005013
73 0.002996
77 0.003999
82 0.004006
89 0.006025
101 0.003989
108 0.006017
113 0.006014
121 0.003957
126 0.003991
130 0.004018
136 0.006018
141 0.006024
147 0.002991
151 0.00296
155 0.002998
161 0.004034
164 0.00399
167 0.006015
168 0.006017
143 0.003993
108 0.003992
79 0.00396
62 0.006016
52 0.006017
44 0.003987
42 0.003988
46 0.004011
63 0.004039
69 0.004004
73 0.007014
78 0.006946
87 0.003993
96 0.003013
104 0.00399
111 0.006016
118 0.006014
125 0.003992
131 0.005005
136 0.004957
144 0.004989
149 0.004993
154 0.007012
158 0.006938
163 0.004988
166 0.004988
171 0.004983
174 0.00698
172 0.006969
141 0.004987
106 0.003987
78 0.00398
56 0.005007
49 0.003997
44 0.007007
44 0.007012
55 0.004986
66 0.004985
72 0.005022
76 0.007032
81 0.007006
91 0.004988
99 0.004008
107 0.005953
118 0.005972
125 0.005995
130 0.007981
135 0.007979
143 0.007964
148 0.004994
153 0.00499
158 0.004989
162 0.006985
166 0.007021
170 0.004986
174 0.004984
179 0.005988
170 0.005985
140 0.005953
98 0.007979
78 0.007975
67 0.005983
60 0.004994
56 0.004992
55 0.007981
65 0.007977
76 0.004985
83 0.004008
89 0.005983
95 0.004988
102 0.005987
109 0.007958
119 0.007943
125 0.004988
131 0.005977
137 0.005992
142 0.007974
147 0.00798
154 0.005979
158 0.004987
165 0.006019
168 0.00603
172 0.005947
176 0.006984
179 0.007981
182 0.00599
182 0.005989
163 0.005996
118 0.007972
100 0.007973
80 0.006004
74 0.005984
66 0.006974
68 0.005988
80 0.006956
88 0.007016
92 0.007011
95 0.005988
101 0.005996
109 0.005966
116 0.007019
120 0.007989
129 0.006945
136 0.006969
144 0.006981
149 0.006981
152 0.006981
157 0.006982
162 0.006982
166 0.005983
169 0.005984
171 0.005985
176 0.006981
180 0.006981
182 0.005984
158 0.006982
115 0.00698
93 0.006976
79 0.006983
73 0.007052
68 0.007014
65 0.006978
69 0.006019
78 0.006014
89 0.006983
92 0.006979
96 0.005999
106 0.005973
115 0.005974
122 0.006007
127 0.00695
134 0.007025
139 0.006977
144 0.007004
148 0.006991
153 0.006979
160 0.006975
163 0.006975
167 0.005974
172 0.005985
176 0.006013
180 0.005963
182 0.005985
172 0.005981
143 0.006021
109 0.006017
87 0.006981
74 0.00698
65 0.00698
58 0.006019
56 0.006014
69 0.006021
78 0.005023
83 0.005985
88 0.005982
93 0.005974
100 0.006017
108 0.006016
118 0.005987
123 0.005981
129 0.004974
135 0.005016
141 0.005952
149 0.005985
154 0.005968
160 0.005985
164 0.005986
167 0.005964
171 0.005951
175 0.005984
179 0.006982
177 0.005986
155 0.004986
123 0.005021
96 0.005035
74 0.003994
66 0.004005
61 0.006001
62 0.005947
70 0.005985
81 0.006019
89 0.006015
93 0.005976
98 0.004987
106 0.004978
113 0.005014
120 0.005022
131 0.004988
137 0.004019
144 0.004936
148 0.004973
154 0.004956
159 0.006023
163 0.005982
168 0.00502
172 0.00502
175 0.005022
178 0.004984
181 0.004987
181 0.003952
159 0.003956
116 0.004955
95 0.004955
84 0.004952
78 0.004993
74 0.004025
75 0.005017
83 0.004997
92 0.004994
97 0.00502
99 0.005021
106 0.004013
113 0.003954
122 0.004995
127 0.003952
133 0.003989
138 0.003991
142 0.003947
148 0.003955
152 0.005018
156 0.005031
161 0.005004
165 0.004017
169 0.004003
172 0.004026
174 0.00399
179 0.004995
168 0.00402
139 0.003957
108 0.00399
87 0.004
72 0.004022
67 0.00399
63 0.003989
67 0.002954
78 0.003976
86 0.00198
90 0.005032
95 0.004947
99 0.003997
106 0.004026
114 0.003989
121 0.00399
129 0.00399
134 0.004023
139 0.00402
147 0.002993
151 0.002991
155 0.003001
159 0.003991
164 0.00399
167 0.003027
171 0.003025
175 0.003957
177 0.002945
159 0.003988
126 0.00399
96 0.00399
68 0.002963
59 0.00399
53 0.003048
51 0.004025
57 0.004036
69 0.002987
79 0.002997
83 0.003024
88 0.002992
97 0.003024
104 0.002988
111 0.003025
123 0.003014
129 0.001996
135 0.001966
141 0.003989
147 0.004022
153 0.00399
159 0.003993
163 0.002992
166 0.002987
172 0.00305
176 0.003025
179 0.003026
175 0.001956
149 0.003033
118 0.001963
95 0.002992
78 0.003025
71 0.003025
65 0.002991
63 0.002997
70 0.00203
84 0.003045
91 0.002992
95 0.00299
105 0.001966
113 0.001986
121 0.001966
128 0.002993
138 0.00299
144 0.002999
149 0.00203
155 0.001996
161 0.001989
167 0.001993
173 0.002026
178 0.001996
184 0.001963
189 0.001963
193 0.00295
195 0.002993
193 0.002992
162 0.002993
133 0.002027
111 0.002037
100 0.001995
93 0.001995
86 0.001894
87 0.002033
102 0.001
109 0.000997
113 0.001995
117 0.001996
122 0.00204
130 0.00302
138 0.002006
144 0.002029
151 0.001995
155 0.001995
163 0.001027
167 0.000941
174 0.001957
178 0.001003
182 0.000962
185 0.001043
188 0.002006
192 0.002026
196 0.000998
197 0.000999
189 0.001
162 0.000997
126 0.000997
104 0.000989
95 0.000997
91 0.001032
89 0.001009
96 0.002042
106 0.00204
115 0.002031
118 0.001998
122 0.000999
127 0.000998
134 0.000997
144 0.000957
152 0.002034
158 0.0
163 0.001996
168 0.0
172 0.002041
176 0.002042
183 0.002042
186 0.002021
189 0.000996
192 0.001032
196 0.000999
198 0.000998
182 0.0
143 0.0
121 0.0
107 0.0
98 0.002027
92 0.002025
89 0.002029
94 0.000997
105 0.00103
113 0.0
118 0.0
122 0.001028
131 0.0
140 0.0
146 0.0
152 0.0
156 0.000998
162 0.00099
167 0.000997
172 0.000998
177 0.000997
182 0.000997
185 0.0
188 0.0
193 0.0
197 0.0
200 0.000992
187 0.001994
160 0.0
133 0.000998
113 0.0
98 0.000999
91 0.0
87 0.0
86 0.0
94 0.0
109 0.000983
114 0.001031
119 0.001028
125 0.000997
132 0.0
139 0.0
146 0.0
154 0.0
159 0.0
165 0.0
168 0.000997
173 0.001004
180 0.000998
185 0.000982
189 0.00204
192 0.000997
196 0.0
200 0.0
198 0.0
180 0.002025
151 0.00202
120 0.0
108 0.0
100 0.0
92 0.0
92 0.001034
101 0.003039
111 0.00204
118 0.0
121 0.0
127 0.001013
133 0.002988
139 0.003025
149 0.0
155 0.0
160 0.000954
168 0.0
172 0.000949
177 0.002043
182 0.0
187 0.0
190 0.0
193 0.000952
195 0.001991
199 0.00204
203 0.0
203 0.0
169 0.000951
142 0.001014
124 0.000942
113 0.001995
108 0.002993
103 0.000997
103 0.001996
110 0.0
118 0.002992
123 0.002993
127 0.0
131 0.0
140 0.000998
146 0.000998
152 0.000997
157 0.001995
161 0.001995
165 0.001996
171 0.000987
174 0.000998
179 0.000997
183 0.002992
186 0.002992
189 0.0
192 0.002992
197 0.0
199 0.000997
192 0.0
170 0.001995
143 0.002005
118 0.0
109 0.0
103 0.000998
99 0.001995
99 0.002992
108 0.0
117 0.00297
122 0.0
124 0.0
129 0.0
135 0.002993
141 0.001988
148 0.0
153 0.0
158 0.0
162 0.001995
166 0.002006
172 0.000996
177 0.002043
182 0.0
184 0.0
187 0.001014
190 0.002993
193 0.002993
196 0.001006
196 0.0
178 0.0
149 0.003026
124 0.003024
105 0.0
95 0.002028
87 0.0
87 0.0
94 0.000951
103 0.002993
108 0.002039
112 0.0
116 0.001992
122 0.002007
128 0.002028
134 0.003025
142 0.00299
149 0.003027
155 0.002994
159 0.002025
163 0.0
167 0.003035
170 0.002992
176 0.001992
178 0.002001
181 0.001997
184 0.004038
187 0.002993
190 0.001997
178 0.00402
141 0.002017
118 0.003009
103 0.0
94 0.003996
88 0.003053
84 0.00299
87 0.002006
95 0.002038
102 0.002992
106 0.003025
111 0.000957
117 0.003991
126 0.00101
132 0.001995
137 0.002009
143 0.003025
147 0.003039
152 0.003025
156 0.002993
161 0.003005
165 0.002993
169 0.003989
172 0.003021
176 0.00399
179 0.004005
183 0.003004
185 0.002011
187 0.00199
180 0.003989
155 0.004033
120 0.001995
104 0.002031
95 0.001986
89 0.004028
85 0.002002
90 0.004024
99 0.004959
105 0.001998
107 0.001981
111 0.002956
115 0.003992
120 0.00404
129 0.001993
134 0.001998
138 0.001996
143 0.003978
149 0.002996
153 0.005022
158 0.005021
162 0.003004
166 0.001998
169 0.001995
171 0.004987
173 0.005018
177 0.002001
179 0.001995
178 0.001993
163 0.005019
118 0.001982
100 0.006038
89 0.006026
82 0.002991
77 0.001991
78 0.001996
85 0.004024
94 0.003996
100 0.002984
102 0.002996
106 0.002993
112 0.004992
123 0.002029
128 0.006016
132 0.006015
139 0.001981
143 0.001996
147 0.002002
151 0.004987
156 0.005019
159 0.003003
164 0.003016
167 0.002995
169 0.005026
174 0.003035
176 0.006031
179 0.006016
178 0.002984
160 0.003013
131 0.004
105 0.004987
90 0.005021
77 0.002022
72 0.00299
70 0.002992
72 0.005981
86 0.003989
91 0.006019
95 0.005985
100 0.006015
106 0.003985
113 0.003959
120 0.002988
125 0.006017
130 0.00602
138 0.002978
142 0.002984
146 0.002969
153 0.003986
158 0.003987
162 0.007027
165 0.007016
169 0.003992
172 0.003986
174 0.003
176 0.006033
179 0.006013
169 0.003987
143 0.00399
116 0.003989
87 0.004022
80 0.004028
75 0.00698
72 0.006975
76 0.004021
85 0.004005
93 0.004007
96 0.006989
99 0.006015
106 0.003988
112 0.003983
118 0.002998
128 0.004961
133 0.004988
138 0.005983
141 0.007011
148 0.003948
151 0.00399
154 0.004008
159 0.007013
163 0.006982
166 0.00399
168 0.003991
172 0.004991
176 0.003959
175 0.004954
161 0.006949
133 0.007012
101 0.004028
87 0.004994
81 0.00402
77 0.006978
75 0.006972
81 0.003991
90 0.003991
97 0.004991
100 0.004996
104 0.004978
109 0.006982
115 0.00698
122 0.004986
128 0.004983
132 0.004983
138 0.006991
141 0.006954
147 0.003977
150 0.003989
156 0.004945
159 0.004958
161 0.004959
166 0.00798
168 0.007979
170 0.007972
174 0.001964
174 0.004962
159 0.007022
130 0.00701
97 0.00499
82 0.004979
69 0.005004
65 0.00501
65 0.005955
72 0.005952
82 0.007974
86 0.00798
91 0.005019
94 0.005986
100 0.004973
109 0.007977
115 0.007975
119 0.005002
128 0.006989
133 0.005983
137 0.005998
142 0.005987
146 0.007978
148 0.00798
154 0.004997
158 0.004978
159 0.005987
162 0.007979
166 0.007954
168 0.004986
166 0.00698
144 0.006018
114 0.005995
89 0.005984
69 0.007013
63 0.005984
57 0.006982
54 0.005967
59 0.005983
71 0.00797
77 0.00797
82 0.00498
89 0.006965
96 0.006026
102 0.005951
109 0.005952
118 0.007011
123 0.006029
127 0.005998
132 0.00598
137 0.006028
141 0.007964
145 0.007977
152 0.005984
157 0.007012
160 0.006972
163 0.006971
165 0.006982
169 0.007006
167 0.005984
152 0.005985
122 0.00601
95 0.005985
73 0.006942
65 0.006996
60 0.006016
58 0.005983
65 0.006975
77 0.005965
82 0.006979
86 0.006982
90 0.007013
98 0.005986
103 0.005997
110 0.004986
117 0.006982
124 0.006982
128 0.005983
135 0.005983
141 0.005984
144 0.004995
150 0.005982
153 0.005985
156 0.005984
160 0.005984
161 0.006981
165 0.006981
169 0.005984
170 0.006981
146 0.004986
115 0.005984
84 0.005984
72 0.004987
65 0.004986
62 0.004985
62 0.004987
67 0.004986
76 0.006981
85 0.006981
88 0.006981
91 0.005983
101 0.005983
107 0.004985
113 0.005984
120 0.005984
126 0.005997
130 0.005975
135 0.004976
139 0.004987
145 0.005984
149 0.006021
153 0.005984
155 0.005018
160 0.004946
163 0.005009
166 0.005991
168 0.005982
165 0.004969
144 0.004985
112 0.004982
86 0.005992
68 0.005956
61 0.005982
56 0.005981
54 0.004962
65 0.004939
75 0.004974
80 0.005035
84 0.00502
90 0.003998
97 0.005944
103 0.004989
110 0.004994
117 0.005985
122 0.005984
128 0.005986
133 0.005012
139 0.003994
144 0.004952
149 0.003963
154 0.003981
156 0.004011
159 0.004003
161 0.003987
165 0.003935
168 0.004984
167 0.005992
151 0.005979
120 0.005022
77 0.004984
63 0.004979
55 0.004988
49 0.004948
49 0.004941
56 0.003953
67 0.004986
74 0.003992
79 0.004947
84 0.004987
91 0.005009
98 0.004038
109 0.004989
115 0.002938
120 0.004987
127 0.002994
131 0.003943
136 0.00397
141 0.005016
145 0.003956
151 0.004988
155 0.003982
157 0.004979
160 0.00399
164 0.004025
167 0.002961
168 0.003027
155 0.004024
113 0.003013
85 0.003
68 0.002994
58 0.002955
51 0.003989
48 0.002956
52 0.004026
62 0.002966
74 0.003993
78 0.002954
82 0.002949
88 0.002993
98 0.002965
106 0.002956
113 0.002992
119 0.004029
125 0.003989
132 0.00396
137 0.003986
141 0.003992
149 0.003002
154 0.002992
157 0.002992
160 0.001955
164 0.004036
166 0.002993
169 0.001994
171 0.00195
169 0.004024
138 0.00402
106 0.004032
71 0.002997
61 0.003027
56 0.002964
53 0.001986
54 0.002957
67 0.002998
75 0.003025
79 0.002959
83 0.002955
89 0.003024
97 0.002992
104 0.003031
114 0.001965
120 0.001961
125 0.004042
129 0.003001
134 0.002027
140 0.001989
144 0.002992
148 0.003038
153 0.002993
156 0.00299
159 0.002991
162 0.003027
168 0.001974
169 0.001965
163 0.001959
139 0.001995
106 0.002004
74 0.001987
62 0.001995
56 0.001974
52 0.00203
52 0.002005
62 0.00304
71 0.003002
80 0.001963
84 0.001986
89 0.001995
95 0.001995
103 0.002025
108 0.001982
115 0.002992
120 0.00197
124 0.002027
127 0.002032
132 0.00204
138 0.001982
146 0.002993
151 0.002969
155 0.0
159 0.001998
163 0.001987
166 0.001997
171 0.001999
170 0.00203
151 0.001975
118 0.002002
88 0.001996
64 0.002041
52 0.000999
46 0.00196
47 0.001996
55 0.002
66 0.001031
73 0.001995
79 0.002046
83 0.001
90 0.002021
97 0.000998
105 0.001
114 0.001003
122 0.0
129 0.0
134 0.000999
139 0.0
143 0.00095
148 0.001996
154 0.00106
157 0.000997
160 0.0
164 0.000997
166 0.001004
170 0.002036
171 0.0
146 0.0
111 0.0
82 0.0
63 0.0
53 0.0
44 0.000969
43 0.000965
48 0.001047
58 0.001993
67 0.001128
74 0.000997
80 0.0
89 0.000999
97 0.0
104 0.0
111 0.001995
117 0.0
124 0.000991
129 0.000995
134 0.0
139 0.0
143 0.000998
151 0.0
155 0.000984
159 0.000998
162 0.0
165 0.0
169 0.0
170 0.0
155 0.0
124 0.0
91 0.0
68 0.0
57 0.0
48 0.0
48 0.0
56 0.0
66 0.0
74 0.0
77 0.0
80 0.0
86 0.0
95 0.000978
102 0.000998
109 0.0
114 0.0
123 0.0
128 0.0
132 0.0
138 0.000999
143 0.0
147 0.0
150 0.0
153 0.0
157 0.0
160 0.000999
163 0.001007
164 0.0
128 0.001033
94 0.001036
70 0.001029
54 0.001036
48 0.0
45 0.001042
47 0.000997
55 0.000998
68 0.000999
74 0.001001
78 0.0
84 0.0
93 0.001996
103 0.001008
111 0.0
116 0.00402
121 0.001987
126 0.001028
132 0.002004
137 0.000997
142 0.002999
147 0.003032
151 0.0
155 0.0
160 0.0
164 0.0
166 0.001
164 0.003024
145 0.003022
99 0.0
72 0.000967
59 0.001994
46 0.002991
41 0.002993
37 0.000998
43 0.0
61 0.000959
68 0.0
72 0.0
77 0.002996
84 0.002989
95 0.000958
102 0.0
109 0.000997
116 0.002034
122 0.003022
129 0.0
135 0.000997
143 0.000966
148 0.001061
151 0.0
155 0.002043
159 0.002043
163 0.0
167 0.0
170 0.000953
166 0.002025
142 0.003021
97 0.0
71 0.000969
53 0.002007
44 0.001007
41 0.0
44 0.002029
53 0.002994
64 0.002016
72 0.001001
75 0.000962
80 0.0
86 0.002991
94 0.002028
103 0.001003
112 0.003006
118 0.0
123 0.0
129 0.000943
133 0.003044
137 0.003026
144 0.000964
147 0.0
149 0.000951
153 0.001967
157 0.002028
161 0.002028
158 0.002029
125 0.0
92 0.0
66 0.00097
52 0.003038
44 0.002998
39 0.000962
39 0.0
46 0.0
58 0.002981
65 0.002996
72 0.001985
77 0.003008
87 0.0
95 0.000995
102 0.000981
109 0.002026
115 0.003032
123 0.000945
129 0.0
135 0.0
140 0.003034
144 0.002992
151 0.003025
153 0.003024
158 0.0
162 0.0
164 0.0
165 0.003046
150 0.003023
103 0.001959
74 0.000943
57 0.003004
46 0.002993
39 0.002994
35 0.002994
43 0.002994
58 0.0
65 0.0
70 0.002018
74 0.002953
80 0.003018
91 0.002002
99 0.002037
105 0.001993
112 0.004
118 0.002992
127 0.003991
132 0.004047
139 0.003004
144 0.002985
149 0.002983
152 0.005039
156 0.005029
161 0.002997
165 0.002995
167 0.003
158 0.004027
128 0.002992
75 0.004024
58 0.003992
48 0.003988
39 0.001996
38 0.003013
43 0.002982
54 0.00502
64 0.004028
71 0.002961
75 0.002963
82 0.002991
90 0.00399
104 0.003011
110 0.005023
116 0.003991
125 0.00299
130 0.002037
135 0.003036
141 0.005025
147 0.005032
153 0.001994
157 0.002982
161 0.004033
164 0.00399
171 0.001994
173 0.005035
169 0.00502
134 0.00105
99 0.003014
76 0.002994
62 0.005018
54 0.004042
48 0.003032
49 0.003007
58 0.002039
70 0.00399
80 0.002993
84 0.004984
90 0.004986
101 0.002962
108 0.002953
116 0.002992
124 0.004987
130 0.004987
136 0.002984
143 0.003005
148 0.002994
156 0.002987
160 0.002999
165 0.005027
168 0.00503
172 0.003001
176 0.001993
180 0.002038
182 0.006018
178 0.005978
142 0.003023
109 0.00299
86 0.00198
70 0.002993
65 0.002987
63 0.00598
68 0.006029
81 0.002994
89 0.002989
93 0.002997
96 0.006025
101 0.006984
112 0.002961
119 0.003002
125 0.003993
135 0.002993
140 0.002969
145 0.006021
149 0.005985
155 0.002959
161 0.002957
165 0.003978
167 0.00602
171 0.006022
176 0.002984
178 0.002981
182 0.002971
174 0.002979
146 0.002944
113 0.004989
92 0.004998
82 0.006014
76 0.003963
72 0.002982
75 0.003004
85 0.006015
94 0.007014
99 0.003023
102 0.002973
112 0.003006
119 0.00399
125 0.003023
131 0.007015
137 0.006988
143 0.002992
148 0.00396
152 0.003943
157 0.00602
162 0.007024
167 0.004992
171 0.002965
176 0.003984
179 0.00398
182 0.003991
185 0.007019
175 0.006979
134 0.004003
106 0.004972
90 0.004988
80 0.00699
75 0.006996
70 0.00499
73 0.002959
88 0.003971
94 0.003977
97 0.003958
102 0.007014
107 0.007013
117 0.003974
124 0.003992
130 0.003981
136 0.006983
143 0.007961
148 0.00399
152 0.003998
160 0.004987
164 0.002978
168 0.002993
172 0.007015
176 0.007013
180 0.003959
184 0.003943
183 0.004021
164 0.008033
121 0.007976
96 0.004938
81 0.004974
67 0.002954
62 0.00498
62 0.004974
71 0.00798
81 0.007978
88 0.004968
91 0.005989
95 0.004954
102 0.006979
112 0.007942
119 0.005023
126 0.00501
136 0.004982
142 0.004992
146 0.003983
152 0.007975
158 0.006983
163 0.004944
166 0.005998
169 0.005984
175 0.007978
177 0.007979
182 0.004986
179 0.006981
144 0.004987
112 0.005124
91 0.004986
78 0.007979
69 0.006981
63 0.005984
63 0.005985
70 0.005984
83 0.006981
90 0.006981
94 0.006981
101 0.007979
111 0.007978
118 0.004986
125 0.004988
132 0.004987
140 0.006981
146 0.006981
151 0.00599
157 0.005984
162 0.004988
168 0.006981
173 0.006981
177 0.007975
183 0.006981
186 0.004986
189 0.006981
190 0.004987
163 0.006981
131 0.006969
107 0.004989
93 0.005985
86 0.00603
79 0.006982
77 0.006983
84 0.007978
96 0.006982
101 0.005983
104 0.005968
110 0.005969
116 0.006
124 0.006981
132 0.006947
137 0.006971
141 0.006022
149 0.007973
153 0.006985
160 0.007941
166 0.006981
170 0.005985
174 0.005948
177 0.006019
181 0.007029
185 0.005985
189 0.005986
186 0.005998
163 0.005984
132 0.00598
107 0.005994
89 0.006979
83 0.005986
78 0.006018
81 0.005973
90 0.005984
99 0.005969
102 0.00599
104 0.006985
111 0.006015
117 0.005973
124 0.00698
131 0.00599
141 0.007006
147 0.006981
152 0.005986
158 0.005976
162 0.006023
167 0.004983
171 0.006008
175 0.005034
179 0.005948
181 0.005968
185 0.005955
188 0.006012
171 0.006972
141 0.005983
106 0.005982
91 0.005983
82 0.005986
75 0.006027
70 0.005986
72 0.004956
84 0.004979
92 0.004965
96 0.004973
101 0.004991
110 0.005984
116 0.00499
123 0.004988
133 0.004987
138 0.005974
143 0.005996
148 0.006014
154 0.004988
160 0.005987
164 0.004979
169 0.004981
175 0.005954
179 0.00498
182 0.004963
186 0.004954
184 0.004985
162 0.004982
130 0.003958
105 0.004992
90 0.003988
76 0.005061
70 0.004981
67 0.004986
77 0.005985
87 0.006015
92 0.005016
96 0.004995
103 0.005029
110 0.004988
117 0.004987
125 0.004984
131 0.005018
139 0.00503
145 0.00399
150 0.004987
158 0.005004
162 0.004985
168 0.003958
172 0.004009
176 0.004983
179 0.004978
184 0.004934
187 0.003951
187 0.004991
164 0.00495
132 0.003989
106 0.003987
85 0.004999
