23 0.005985
37 0.005982
50 0.005983
55 0.006021
62 0.005995
73 0.005989
90 0.004987
104 0.005026
115 0.00499
128 0.004978
141 0.004987
156 0.005931
167 0.006026
177 0.006026
197 0.005988
208 0.005024
205 0.004987
167 0.004986
117 0.00501
101 0.004994
102 0.004985
110 0.004986
111 0.004988
119 0.005024
130 0.005045
135 0.004986
139 0.004987
139 0.004993
147 0.005025
154 0.004988
168 0.004987
182 0.00499
194 0.005033
204 0.005015
216 0.005018
228 0.004966
238 0.005033
188 0.005018
196 0.004026
201 0.004942
201 0.004028
190 0.004028
166 0.004024
161 0.00399
163 0.003996
167 0.004987
171 0.005004
178 0.003988
182 0.004986
185 0.004987
188 0.004019
190 0.004013
194 0.004035
197 0.003989
201 0.004018
208 0.00399
211 0.003988
214 0.00399
218 0.00399
221 0.00399
224 0.00399
227 0.003985
232 0.002994
236 0.00302
240 0.003042
183 0.002992
175 0.002978
165 0.00399
163 0.004017
165 0.00399
167 0.00403
170 0.00399
172 0.004037
173 0.002992
175 0.002993
174 0.002977
174 0.002991
174 0.003019
175 0.003037
177 0.002992
179 0.002993
181 0.004024
182 0.003979
183 0.001989
185 0.002983
186 0.003944
187 0.002993
188 0.002987
190 0.002993
190 0.002992
190 0.003023
180 0.002991
172 0.002992
168 0.002987
168 0.002064
170 0.002993
173 0.003003
175 0.003957
177 0.001999
177 0.002024
176 0.001938
176 0.001984
176 0.002993
178 0.001995
179 0.002993
180 0.002996
182 0.002994
182 0.002993
183 0.002952
184 0.002048
184 0.001989
183 0.002019
184 0.001994
185 0.002039
185 0.001997
182 0.001989
170 0.001995
165 0.001996
165 0.002028
167 0.001995
169 0.001994
170 0.001995
172 0.001996
171 0.001997
170 0.001995
168 0.000997
167 0.001994
168 0.000998
255 0.001977
255 0.002009
255 0.001995
226 0.001987
228 0.001029
231 0.001966
232 0.000988
235 0.000991
235 0.000993
236 0.000998
237 0.000988
231 0.000997
200 0.001994
186 0.000996
182 0.000999
185 0.001044
187 0.002003
195 0.000998
194 0.000971
196 0.0
193 0.001016
188 0.000997
189 0.00101
187 0.001028
190 0.0
192 0.000992
193 0.0
196 0.0
196 0.000997
198 0.000972
200 0.0
200 0.0
201 0.000998
203 0.0
203 0.000997
190 0.000933
159 0.0
150 0.000998
147 0.000998
148 0.0
151 0.0
155 0.0
155 0.0
156 0.0
149 0.0
144 0.0
143 0.0
144 0.0
147 0.0
149 0.0
150 0.00101
151 0.0
150 0.0
152 0.0
151 0.0
152 0.0
151 0.0
150 0.0
137 0.0
108 0.0
98 0.0
93 0.000992
92 0.000998
95 0.0
96 0.0
95 0.0
96 0.0
89 0.0
87 0.000997
86 0.0
85 0.000998
88 0.000998
90 0.0
91 0.000999
95 0.001059
95 0.0
95 0.0
99 0.0
101 0.0
104 0.0
99 0.000999
81 0.000989
54 0.0
44 0.000998
42 0.001
43 0.002014
44 0.000997
44 0.000988
44 0.001036
43 0.000997
41 0.001003
39 0.000998
39 0.000998
39 0.000998
46 0.000999
50 0.0
54 0.001025
59 0.000998
60 0.002065
61 0.00102
65 0.000997
67 0.000999
75 0.000999
69 0.0
57 0.001995
30 0.000997
20 0.001996
16 0.000984
17 0.00101
20 0.001995
20 0.001995
21 0.001936
21 0.001989
18 0.002014
16 0.002007
18 0.001995
20 0.002026
26 0.001994
31 0.001995
34 0.002039
41 0.000965
46 0.001994
49 0.001994
52 0.001996
57 0.001995
62 0.001964
24 0.001028
0 0.002021
0 0.000998
0 0.002993
0 0.002994
0 0.001958
0 0.001995
0 0.001995
0 0.002992
0 0.002992
0 0.001995
0 0.002079
0 0.002995
0 0.002994
0 0.002993
9 0.003002
16 0.002992
23 0.00303
30 0.003168
37 0.003034
44 0.002992
51 0.003024
61 0.001998
67 0.002034
47 0.003008
19 0.002994
2 0.002993
0 0.003989
0 0.004029
1 0.002994
4 0.002975
8 0.003033
12 0.003989
13 0.003012
10 0.002991
10 0.002023
14 0.003947
21 0.003952
30 0.002991
36 0.002992
45 0.003953
51 0.00399
54 0.002934
61 0.002978
65 0.003045
72 0.00402
77 0.003994
64 0.00304
28 0.003989
6 0.003041
3 0.003989
8 0.004067
15 0.003999
21 0.004004
27 0.003972
30 0.003981
31 0.00399
30 0.003989
32 0.003989
39 0.003998
51 0.004954
62 0.003957
69 0.00398
77 0.003992
84 0.004987
91 0.004979
103 0.004045
110 0.004022
106 0.004021
79 0.004994
50 0.003981
31 0.004038
25 0.004989
26 0.005036
28 0.004987
32 0.004958
38 0.004987
39 0.005019
40 0.003988
41 0.003973
44 0.003989
52 0.005036
62 0.005036
72 0.003982
85 0.005986
97 0.004989
105 0.00504
110 0.005028
119 0.005045
127 0.004987
134 0.005021
136 0.005985
112 0.005043
71 0.005027
57 0.006015
52 0.005021
58 0.005987
64 0.004988
68 0.005046
74 0.005027
76 0.005004
76 0.005995
79 0.005991
83 0.005041
91 0.005019
102 0.005023
110 0.005985
119 0.005033
134 0.00599
142 0.006013
152 0.005012
158 0.005026
168 0.004987
176 0.006022
174 0.006004
143 0.005028
115 0.005017
98 0.005019
96 0.005984
102 0.006031
110 0.006986
114 0.007001
120 0.006018
120 0.006039
119 0.006025
119 0.006979
122 0.007051
129 0.005984
136 0.005984
146 0.005978
155 0.005984
162 0.006021
171 0.006981
179 0.007017
182 0.005978
163 0.006027
135 0.006015
112 0.006981
106 0.007023
112 0.006015
117 0.006033
120 0.006981
128 0.007979
137 0.007946
138 0.006982
138 0.006982
139 0.007014
148 0.005972
152 0.007038
163 0.006981
173 0.007007
182 0.006032
188 0.005988
194 0.005984
200 0.007013
206 0.007984
167 0.007972
148 0.007979
128 0.007985
122 0.007067
124 0.007008
125 0.005983
126 0.007963
131 0.007979
135 0.007018
135 0.006979
135 0.007009
136 0.007976
141 0.00793
150 0.007979
158 0.007932
166 0.007982
174 0.007971
181 0.006924
187 0.007979
191 0.007978
198 0.007043
206 0.007003
196 0.007013
167 0.007936
124 0.00701
121 0.007014
122 0.007034
124 0.007017
125 0.00703
129 0.007013
132 0.007015
135 0.007978
134 0.007917
136 0.006939
136 0.00698
143 0.007013
155 0.007034
162 0.007011
166 0.007011
174 0.007018
178 0.007026
184 0.006986
190 0.007028
198 0.007027
196 0.007016
174 0.007015
148 0.005984
128 0.006029
123 0.007019
125 0.007019
127 0.007014
131 0.007011
133 0.007014
134 0.007019
129 0.007003
129 0.006033
133 0.006982
143 0.007014
152 0.005986
162 0.00599
176 0.006025
183 0.006019
191 0.006019
201 0.006017
207 0.005989
187 0.006032
149 0.006985
116 0.006021
100 0.006951
105 0.006952
109 0.006981
113 0.006016
126 0.00603
130 0.005972
127 0.006031
121 0.005988
124 0.006029
133 0.00603
141 0.006046
152 0.00598
162 0.00603
177 0.004986
186 0.004987
195 0.005001
178 0.004958
136 0.004984
98 0.005029
78 0.005023
75 0.006027
77 0.005017
81 0.005984
84 0.005974
91 0.005983
96 0.005034
97 0.004985
96 0.005067
105 0.004991
115 0.005004
127 0.005017
138 0.005049
151 0.005041
161 0.004988
171 0.00503
182 0.004987
186 0.005048
141 0.004988
97 0.004036
70 0.004987
59 0.005022
58 0.005031
59 0.00505
62 0.005036
74 0.005033
80 0.004037
84 0.005011
87 0.004002
90 0.005021
102 0.004032
115 0.003999
128 0.003981
151 0.003983
161 0.004035
172 0.004038
180 0.004024
192 0.003995
204 0.004039
214 0.005019
209 0.004031
168 0.003988
120 0.003955
86 0.004057
82 0.004033
85 0.004044
85 0.003991
90 0.002993
101 0.004004
104 0.003026
107 0.003025
110 0.003988
116 0.002993
122 0.003023
137 0.004042
155 0.003991
166 0.002962
185 0.00395
197 0.004007
208 0.004019
216 0.004029
225 0.004035
239 0.004028
249 0.004026
254 0.004041
228 0.004023
181 0.003992
135 0.003029
127 0.002948
134 0.002992
138 0.002993
143 0.002995
150 0.002994
155 0.002994
155 0.003024
153 0.002992
155 0.002995
164 0.00399
176 0.002992
189 0.001995
199 0.002993
216 0.00299
225 0.002993
233 0.002994
242 0.002994
251 0.002993
249 0.002992
212 0.002992
172 0.002994
147 0.002962
140 0.003009
146 0.003005
155 0.001992
167 0.001994
170 0.001994
169 0.001973
164 0.001995
164 0.002993
168 0.001981
178 0.001975
189 0.001928
200 0.001957
210 0.002992
216 0.001966
229 0.001936
242 0.00195
185 0.001993
162 0.001994
137 0.001963
123 0.002035
118 0.001995
120 0.001995
124 0.001994
126 0.001995
129 0.002036
134 0.002
134 0.001985
135 0.000997
136 0.001934
142 0.000998
148 0.001995
154 0.001995
158 0.002025
166 0.001994
170 0.001995
174 0.00201
176 0.001985
160 0.001999
124 0.000998
106 0.000997
103 0.001042
104 0.00106
104 0.001035
107 0.000998
110 0.000997
114 0.001016
113 0.000993
113 0.000998
117 0.000997
121 0.001052
129 0.001032
138 0.0
146 0.000995
151 0.0
157 0.0
163 0.0
167 0.0
166 0.0
144 0.0
116 0.0
99 0.0
92 0.0
92 0.0
96 0.0
100 0.0
105 0.0
108 0.0
109 0.0
110 0.000997
112 0.0
119 0.0
126 0.0
132 0.0
139 0.0
145 0.0
155 0.0
159 0.0
166 0.000999
193 0.000999
205 0.000991
201 0.0
168 0.000997
119 0.000997
100 0.000998
94 0.000997
96 0.0
100 0.0
108 0.0
111 0.0
110 0.000999
108 0.000999
108 0.0
112 0.000998
122 0.000992
132 0.000999
141 0.000998
152 0.0
161 0.0
167 0.0
178 0.0
186 0.0
193 0.001997
195 0.002008
169 0.0
119 0.0
97 0.0
90 0.001028
93 0.001029
104 0.0
110 0.0
114 0.0
113 0.0
111 0.0
109 0.000967
111 0.001032
123 0.0
132 0.0
140 0.00101
147 0.000997
154 0.000997
161 0.000998
172 0.000962
180 0.001037
157 0.000998
117 0.000999
85 0.000999
70 0.001963
68 0.001994
76 0.000998
82 0.000997
87 0.000999
94 0.001994
96 0.002034
92 0.000997
93 0.001034
102 0.001996
114 0.002004
124 0.002022
136 0.001995
147 0.001993
159 0.001996
167 0.002053
177 0.00204
185 0.002033
181 0.002236
134 0.000995
92 0.001012
60 0.002038
57 0.001027
58 0.001028
62 0.001995
67 0.001995
75 0.000981
79 0.001982
80 0.002059
80 0.002992
85 0.00298
98 0.001963
107 0.002028
125 0.002022
137 0.002028
144 0.00206
152 0.003051
161 0.003054
170 0.001996
177 0.002025
182 0.002002
160 0.003995
114 0.003999
68 0.002062
56 0.002024
59 0.002993
63 0.002992
69 0.002992
74 0.004039
81 0.00399
79 0.00297
80 0.002966
82 0.001975
86 0.002092
97 0.003029
106 0.002993
120 0.001997
136 0.004032
149 0.002982
158 0.003017
166 0.003006
177 0.003971
186 0.003989
190 0.003013
160 0.002957
115 0.002936
81 0.003989
67 0.00399
67 0.003045
74 0.004991
83 0.003056
92 0.003005
97 0.002994
93 0.004039
91 0.003989
96 0.003038
103 0.002981
113 0.003043
127 0.004987
138 0.003999
151 0.002992
160 0.004987
175 0.004027
181 0.004072
185 0.004021
174 0.004987
134 0.00403
80 0.003024
64 0.003044
65 0.002979
71 0.004024
80 0.004987
93 0.004029
100 0.004988
97 0.003998
92 0.004014
94 0.004026
100 0.004987
111 0.005
124 0.004022
135 0.004056
145 0.004051
154 0.005034
165 0.004998
175 0.004022
142 0.005984
79 0.005014
43 0.004987
35 0.005008
37 0.005013
44 0.005045
55 0.004008
66 0.004039
72 0.003998
72 0.004987
71 0.006061
73 0.005984
85 0.005991
97 0.005984
114 0.005034
128 0.005008
141 0.004989
152 0.006022
163 0.006035
165 0.005039
129 0.005006
95 0.005033
41 0.005018
28 0.005019
31 0.005984
37 0.006003
48 0.005008
58 0.004977
65 0.005019
65 0.006021
67 0.005988
73 0.005039
81 0.005017
94 0.005007
110 0.006984
124 0.007007
144 0.006982
154 0.00702
171 0.005984
179 0.006009
187 0.006034
163 0.006027
113 0.006019
53 0.00496
38 0.005019
38 0.005982
44 0.00702
50 0.007024
64 0.006985
74 0.006981
76 0.00601
76 0.005971
82 0.005976
90 0.007012
103 0.007014
123 0.005017
138 0.006065
152 0.007011
163 0.006981
172 0.006952
188 0.007981
198 0.007976
210 0.007004
214 0.006983
194 0.007007
142 0.007917
93 0.007971
67 0.007943
68 0.007012
75 0.005975
83 0.005997
94 0.007012
110 0.006926
111 0.007978
108 0.007979
111 0.006975
119 0.006979
131 0.006981
143 0.00798
158 0.007944
173 0.006996
180 0.006983
191 0.007013
200 0.007949
216 0.007013
204 0.007012
161 0.006987
99 0.007963
81 0.006976
74 0.006969
79 0.007946
95 0.007974
108 0.006982
120 0.005976
125 0.007014
121 0.007979
122 0.006996
130 0.007015
143 0.007025
158 0.007013
169 0.006979
180 0.006983
195 0.006975
205 0.007017
213 0.007004
222 0.00696
220 0.007031
179 0.007948
80 0.007013
62 0.007031
63 0.007016
73 0.007016
81 0.007016
89 0.006993
100 0.007018
101 0.007013
102 0.006982
103 0.006021
109 0.006016
119 0.006039
144 0.006015
160 0.006027
170 0.007014
184 0.00707
196 0.007012
205 0.006977
213 0.007028
216 0.006015
186 0.006982
109 0.007027
69 0.006033
54 0.006015
61 0.006029
68 0.006016
75 0.00602
86 0.006018
94 0.006015
92 0.004966
94 0.006033
99 0.006987
108 0.006004
125 0.005986
141 0.006027
155 0.006009
175 0.006016
185 0.006017
195 0.006017
207 0.006015
217 0.006016
218 0.006015
184 0.006016
127 0.005981
80 0.005982
57 0.005031
61 0.004986
69 0.005058
83 0.004988
93 0.004983
99 0.005021
97 0.005021
93 0.006057
98 0.005989
108 0.006019
120 0.006019
132 0.005034
152 0.005985
164 0.004983
174 0.005033
193 0.005035
205 0.004983
212 0.005033
194 0.004977
127 0.004974
84 0.005041
65 0.005012
66 0.004987
76 0.005946
91 0.005016
103 0.005026
109 0.005023
103 0.005025
98 0.004982
102 0.004987
110 0.005035
127 0.005018
141 0.005018
152 0.004976
162 0.004027
174 0.003957
184 0.004048
191 0.003989
174 0.004024
90 0.004022
57 0.004023
47 0.003991
52 0.005027
67 0.004006
84 0.004988
97 0.004051
106 0.004026
105 0.004027
101 0.003993
107 0.003992
118 0.004046
142 0.004022
156 0.003043
169 0.004018
182 0.003991
194 0.003992
207 0.002993
198 0.002992
152 0.003002
97 0.002993
61 0.002957
50 0.00399
56 0.003989
68 0.004018
77 0.003991
87 0.004059
91 0.003989
94 0.003992
94 0.003036
102 0.002993
114 0.002992
127 0.002993
141 0.003028
161 0.003022
172 0.002993
190 0.003029
201 0.003001
209 0.003989
206 0.003989
164 0.004014
96 0.004061
67 0.003994
58 0.003026
61 0.002953
68 0.002993
76 0.00294
86 0.002954
98 0.002991
100 0.002993
103 0.003011
110 0.002992
122 0.002992
142 0.003998
155 0.002992
169 0.002992
178 0.002996
188 0.001995
200 0.002028
209 0.001995
223 0.001995
235 0.003034
242 0.003016
218 0.003022
168 0.002992
124 0.00304
99 0.003025
99 0.001995
106 0.002026
112 0.002025
117 0.001995
127 0.002029
129 0.001988
131 0.001995
134 0.001995
142 0.001995
154 0.001995
165 0.000997
181 0.000997
192 0.002045
203 0.001084
211 0.000998
218 0.001995
229 0.002025
237 0.001996
248 0.001996
251 0.002002
224 0.001994
176 0.001995
138 0.001978
119 0.001979
123 0.000997
132 0.000998
139 0.001021
145 0.000989
152 0.000998
146 0.000998
144 0.000997
147 0.000997
156 0.001995
168 0.001995
178 0.000999
190 0.000997
203 0.000999
208 0.000998
214 0.000997
223 0.000998
235 0.000997
188 0.000998
180 0.000997
157 0.001995
134 0.000998
121 0.001995
118 0.0
122 0.000997
125 0.0
128 0.000998
131 0.0
133 0.000997
131 0.000998
131 0.000999
134 0.000997
140 0.000998
146 0.000997
151 0.000997
156 0.000998
161 0.0
167 0.0
170 0.0
174 0.0
179 0.0
183 0.0
187 0.0
175 0.0
140 0.0
121 0.000996
112 0.0
112 0.000998
115 0.0
118 0.0
120 0.0
124 0.0
124 0.0
122 0.0
123 0.0
125 0.0
133 0.0
139 0.0
145 0.0
152 0.0
156 0.0
162 0.001031
167 0.000999
171 0.0
176 0.0
180 0.0
187 0.0
187 0.0
169 0.000997
140 0.001004
117 0.0
111 0.0
112 0.000998
116 0.000997
119 0.000998
122 0.000998
123 0.00099
123 0.0
121 0.0
122 0.0
125 0.001025
134 0.001032
146 0.0
154 0.0
163 0.0
171 0.000998
176 0.000998
184 0.0
190 0.0
196 0.000998
209 0.000997
210 0.0
191 0.001995
151 0.002026
117 0.001048
99 0.0
100 0.0
105 0.001008
110 0.00105
116 0.001083
121 0.001029
117 0.001045
110 0.000998
112 0.001029
117 0.001035
126 0.002008
135 0.001021
148 0.00101
156 0.001013
162 0.001002
168 0.001984
174 0.001995
181 0.000992
182 0.000993
131 0.000997
94 0.001017
74 0.001028
68 0.002026
71 0.001995
82 0.000973
88 0.001958
96 0.002001
102 0.002993
102 0.002996
99 0.001058
103 0.001001
114 0.001975
126 0.001027
135 0.002026
145 0.002993
154 0.002992
163 0.002026
169 0.001996
177 0.001965
182 0.002992
180 0.00296
132 0.001984
93 0.002002
64 0.001983
63 0.001995
68 0.001994
72 0.003041
76 0.002996
84 0.002069
85 0.002046
82 0.002032
81 0.003022
82 0.003041
92 0.001992
102 0.002044
119 0.001988
129 0.003042
137 0.003027
145 0.003026
156 0.004029
163 0.004053
177 0.001999
184 0.001948
171 0.002992
131 0.00399
93 0.004006
65 0.001993
63 0.002992
69 0.002959
74 0.002992
79 0.002989
82 0.004028
79 0.003989
74 0.002971
74 0.003002
78 0.003056
87 0.004028
98 0.003996
113 0.002978
128 0.004967
139 0.003081
147 0.004021
156 0.004025
163 0.004986
164 0.004974
128 0.002999
86 0.00299
56 0.003
47 0.004014
49 0.004063
55 0.002997
66 0.004037
76 0.003014
78 0.003002
76 0.00397
76 0.004987
81 0.004987
93 0.004024
103 0.004023
116 0.004028
128 0.005022
138 0.004987
147 0.003989
158 0.005003
168 0.003995
173 0.003996
167 0.003958
130 0.005031
83 0.00502
44 0.003955
36 0.00396
39 0.003989
44 0.005019
48 0.005034
58 0.003985
64 0.005036
64 0.005985
67 0.005021
71 0.005038
80 0.004022
92 0.006019
103 0.006018
119 0.003997
130 0.003988
139 0.004002
145 0.006049
155 0.006016
172 0.005984
182 0.005984
178 0.004978
144 0.005018
100 0.005021
72 0.005984
61 0.005987
64 0.005007
68 0.003994
72 0.003985
79 0.005977
86 0.005989
87 0.005975
89 0.006034
95 0.004981
107 0.004987
118 0.004983
130 0.005986
141 0.006016
156 0.004984
164 0.005983
171 0.005967
179 0.007014
188 0.006981
195 0.006982
173 0.007014
119 0.004994
91 0.004953
79 0.005019
80 0.006022
88 0.006022
99 0.005004
107 0.006021
114 0.005987
114 0.007013
111 0.007032
115 0.007013
123 0.006974
139 0.004993
149 0.006035
159 0.006022
167 0.007028
174 0.007533
183 0.00599
191 0.005975
197 0.00602
191 0.007032
141 0.007948
92 0.007009
75 0.007991
75 0.007946
83 0.006961
90 0.00698
98 0.007019
108 0.007963
111 0.006968
111 0.006006
112 0.005986
117 0.005992
125 0.007968
145 0.007042
156 0.007954
167 0.007941
176 0.00695
184 0.006999
190 0.007012
198 0.007945
204 0.007944
203 0.007019
166 0.00702
121 0.00699
86 0.007015
82 0.006972
86 0.00698
90 0.007993
95 0.00696
103 0.006963
106 0.006972
107 0.007957
107 0.007946
110 0.006994
117 0.00699
132 0.007013
142 0.007026
157 0.006933
171 0.007016
181 0.007016
189 0.006962
201 0.006982
208 0.006941
221 0.007016
227 0.007021
224 0.006939
185 0.006986
152 0.006975
106 0.006982
95 0.007012
99 0.007018
103 0.007029
110 0.007016
118 0.007029
121 0.007016
120 0.007012
121 0.00598
128 0.007012
135 0.007013
147 0.006015
159 0.006025
178 0.00603
189 0.006016
198 0.006026
207 0.007029
215 0.007031
223 0.00701
157 0.007025
236 0.007014
222 0.00701
165 0.006969
132 0.006014
118 0.005969
122 0.005984
132 0.006048
139 0.006021
146 0.005993
150 0.006017
145 0.006015
139 0.006014
141 0.005982
145 0.006014
157 0.006014
168 0.005018
178 0.005014
191 0.006031
197 0.005969
205 0.006019
210 0.006045
207 0.005988
171 0.005988
129 0.006016
99 0.006015
92 0.006016
97 0.005976
103 0.005961
111 0.005017
123 0.005027
124 0.005018
120 0.005036
120 0.004996
127 0.00499
136 0.005016
147 0.005018
158 0.004987
168 0.00502
178 0.005018
187 0.00492
195 0.004996
195 0.005048
161 0.005019
116 0.005077
84 0.004988
70 0.00502
73 0.005022
80 0.005021
83 0.005031
89 0.005024
99 0.004011
99 0.004013
98 0.003977
104 0.003958
111 0.004
121 0.005033
134 0.003991
145 0.004037
158 0.004907
167 0.005026
175 0.00502
181 0.005034
191 0.004024
199 0.004014
190 0.004012
116 0.00399
78 0.00399
63 0.003989
60 0.003959
64 0.00399
72 0.004021
77 0.004042
84 0.003993
87 0.002992
87 0.002993
87 0.003989
92 0.004007
108 0.003945
120 0.003947
131 0.004024
143 0.004003
153 0.00399
166 0.004058
172 0.00399
180 0.00399
188 0.00399
199 0.002993
209 0.003013
198 0.003021
120 0.002993
83 0.002993
69 0.002958
71 0.003025
78 0.00303
88 0.004059
95 0.004033
99 0.003991
99 0.003052
93 0.002993
95 0.00296
102 0.002992
116 0.003051
125 0.002992
133 0.002998
144 0.003023
151 0.002992
164 0.003024
174 0.003026
183 0.002996
184 0.002066
159 0.001995
112 0.001966
64 0.003003
50 0.002002
58 0.002038
69 0.002993
79 0.003017
90 0.002995
93 0.002991
90 0.003054
87 0.001995
90 0.00299
98 0.001993
111 0.001995
127 0.00202
142 0.001995
152 0.002993
161 0.002021
167 0.001997
175 0.001985
184 0.001995
183 0.001977
143 0.001999
90 0.001994
55 0.001995
40 0.000971
43 0.001028
52 0.000999
63 0.001
73 0.001004
77 0.000998
76 0.000963
77 0.000997
83 0.000997
94 0.001004
107 0.001997
121 0.002047
135 0.002061
149 0.001027
161 0.001995
173 0.001031
179 0.000998
186 0.000999
195 0.000997
199 0.000997
157 0.000998
101 0.000998
59 0.00103
43 0.000997
41 0.0
51 0.0
61 0.000997
74 0.002005
79 0.000998
77 0.000999
78 0.001007
82 0.000998
93 0.001007
105 0.000997
119 0.000997
131 0.001058
142 0.000952
157 0.0
166 0.001
178 0.000998
186 0.000997
195 0.001012
200 0.0
174 0.0
122 0.0
64 0.0
49 0.0
51 0.0
59 0.000998
68 0.0
84 0.0
90 0.0
84 0.00099
81 0.000997
83 0.0
92 0.0
105 0.0
126 0.0
139 0.0
146 0.0
156 0.0
166 0.001052
181 0.0
187 0.0
157 0.0
104 0.000997
59 0.000998
40 0.000997
42 0.000997
56 0.002043
69 0.002042
84 0.000999
94 0.0
91 0.000974
88 0.0
94 0.0
105 0.001031
118 0.00104
135 0.0
148 0.0
157 0.0
166 0.000999
176 0.001
182 0.000998
148 0.0
110 0.000999
35 0.000997
20 0.0
23 0.000979
34 0.002017
44 0.000997
59 0.0
64 0.0
65 0.002019
62 0.002071
67 0.0
78 0.0
91 0.0
115 0.0
128 0.0
139 0.0
148 0.000966
159 0.001997
171 0.0
170 0.000959
136 0.00101
78 0.000998
29 0.001028
4 0.000959
9 0.001997
22 0.000997
30 0.002005
39 0.001989
48 0.001988
53 0.001995
53 0.001001
61 0.001986
71 0.002008
84 0.002031
100 0.003039
119 0.001045
131 0.000944
147 0.000996
154 0.000995
163 0.000988
172 0.001995
181 0.001998
185 0.000998
149 0.001
90 0.001
43 0.002993
21 0.001998
24 0.000999
34 0.001993
48 0.001998
57 0.002077
64 0.002029
67 0.003028
66 0.002992
72 0.002038
83 0.001032
97 0.001003
111 0.002992
127 0.00305
145 0.001951
155 0.001964
169 0.001949
176 0.001949
187 0.00196
195 0.002992
204 0.002992
210 0.002032
178 0.001021
119 0.001965
75 0.003991
57 0.003998
61 0.001968
71 0.002028
88 0.002027
99 0.002021
103 0.001989
100 0.001978
94 0.004003
97 0.00399
108 0.001976
122 0.002017
135 0.00199
149 0.004016
158 0.003989
170 0.001993
180 0.003027
193 0.001997
200 0.001999
193 0.00303
153 0.003989
100 0.004048
57 0.003026
54 0.002993
63 0.003029
74 0.004029
85 0.004044
101 0.003991
105 0.004036
101 0.002993
101 0.002046
110 0.003073
121 0.00403
137 0.005022
155 0.002992
168 0.003015
177 0.003037
186 0.004987
195 0.005012
208 0.003029
215 0.004989
179 0.002994
121 0.00299
74 0.002994
55 0.004987
53 0.003989
64 0.004009
72 0.004009
82 0.003022
91 0.004987
97 0.004987
99 0.004032
103 0.005021
113 0.002995
126 0.002981
142 0.003023
155 0.005952
165 0.005953
180 0.004019
189 0.003991
196 0.004013
206 0.004987
215 0.004975
222 0.00502
197 0.005004
141 0.005048
78 0.00399
58 0.003989
59 0.004992
67 0.004986
74 0.006015
86 0.003977
96 0.004961
102 0.005031
102 0.005984
105 0.006981
118 0.006017
131 0.006
153 0.00399
167 0.003987
179 0.005032
191 0.00602
202 0.005993
213 0.005032
219 0.005019
229 0.00499
237 0.006985
245 0.007013
248 0.005979
205 0.006987
126 0.005985
92 0.004979
87 0.004977
95 0.007014
105 0.006982
117 0.005015
129 0.005007
134 0.005004
128 0.007014
121 0.005984
123 0.006019
132 0.006031
149 0.005024
163 0.006032
174 0.00602
184 0.007031
190 0.007014
199 0.006029
207 0.00503
215 0.005014
221 0.00798
210 0.00798
104 0.007971
78 0.007017
60 0.004035
67 0.005989
79 0.006017
92 0.007021
105 0.007015
116 0.005972
113 0.006991
109 0.006912
113 0.007964
126 0.007938
148 0.004985
162 0.007948
176 0.007947
192 0.005982
201 0.005928
210 0.005932
220 0.007959
229 0.007979
228 0.005989
184 0.006959
117 0.006948
57 0.007969
46 0.006988
54 0.007947
64 0.007947
76 0.006979
87 0.006979
93 0.007193
94 0.007944
92 0.007984
100 0.007032
111 0.006975
122 0.006978
142 0.007011
165 0.006982
173 0.007971
188 0.007981
198 0.006995
208 0.006959
217 0.006987
215 0.007968
166 0.007029
84 0.006976
49 0.006997
43 0.006995
49 0.007019
63 0.007001
81 0.007015
91 0.007019
95 0.006984
92 0.006983
91 0.006984
95 0.007014
108 0.006985
127 0.006954
143 0.006029
157 0.005984
171 0.005984
186 0.007044
196 0.00697
205 0.00698
217 0.006988
212 0.006986
145 0.006972
82 0.00698
44 0.007013
35 0.006014
47 0.006032
61 0.005952
73 0.006031
91 0.005973
92 0.006031
87 0.006014
87 0.005986
99 0.005978
114 0.006999
129 0.007012
145 0.005035
157 0.006024
173 0.005981
182 0.006047
192 0.006015
207 0.006025
214 0.006015
211 0.006015
166 0.006017
79 0.006022
44 0.006029
38 0.006018
46 0.006014
59 0.006023
74 0.005003
85 0.005021
89 0.005018
86 0.005979
86 0.005977
94 0.006018
104 0.005021
124 0.005019
139 0.004986
151 0.004986
162 0.005038
174 0.006017
187 0.005981
198 0.004985
210 0.005024
220 0.006031
194 0.006016
135 0.006031
88 0.005001
65 0.005017
69 0.00502
81 0.004988
93 0.005028
106 0.005024
119 0.00502
120 0.004022
116 0.003994
120 0.00603
130 0.005015
142 0.005028
154 0.004954
173 0.005018
183 0.00502
192 0.004975
201 0.004986
210 0.005038
216 0.004993
201 0.00502
155 0.003992
94 0.004988
86 0.004987
92 0.004989
104 0.004008
117 0.00399
135 0.003989
143 0.003988
142 0.004011
139 0.003989
142 0.002994
154 0.004979
166 0.004023
188 0.005063
200 0.005025
212 0.004979
221 0.003989
231 0.003964
225 0.003957
185 0.004023
148 0.003998
127 0.004022
121 0.003997
130 0.00399
141 0.003977
157 0.003966
159 0.003977
154 0.004022
149 0.004019
149 0.002993
159 0.00399
171 0.003019
183 0.003039
194 0.002995
206 0.002993
222 0.003991
231 0.002942
242 0.004021
237 0.004016
198 0.003992
156 0.003993
134 0.002993
133 0.002992
141 0.003023
150 0.002996
160 0.003019
166 0.002994
166 0.003028
162 0.001996
159 0.002992
168 0.003024
178 0.002978
188 0.004026
199 0.004024
212 0.004021
218 0.001966
226 0.001995
234 0.002059
242 0.002994
237 0.003028
202 0.002994
151 0.002955
135 0.002993
139 0.002992
147 0.002983
156 0.002992
165 0.001024
167 0.002995
164 0.001997
158 0.001993
157 0.002029
163 0.001995
176 0.001987
187 0.002993
199 0.001995
206 0.002028
214 0.002031
222 0.001995
226 0.001996
200 0.002035
159 0.001996
131 0.002
121 0.000975
122 0.000957
131 0.000996
142 0.001996
152 0.00103
156 0.001
153 0.00094
153 0.000993
155 0.00098
165 0.000998
175 0.002038
185 0.002034
192 0.000988
200 0.000999
211 0.000987
221 0.001989
222 0.00201
196 0.001045
159 0.000993
133 0.001003
125 0.001031
131 0.000998
137 0.000998
140 0.001009
146 0.002027
150 0.0
149 0.000998
148 0.002048
154 0.001977
161 0.000999
169 0.000999
178 0.000997
187 0.000997
198 0.001017
204 0.000997
211 0.000998
216 0.0
224 0.0
229 0.0
205 0.0
159 0.000998
137 0.0
134 0.0
138 0.0
147 0.0
153 0.0
157 0.0
159 0.0
158 0.0
154 0.0
153 0.0
162 0.000997
170 0.000998
181 0.0
187 0.0
195 0.0
203 0.0
208 0.0
215 0.0
223 0.0
228 0.0
235 0.000988
232 0.000988
182 0.0
153 0.0
144 0.000998
150 0.000997
156 0.000997
162 0.000996
165 0.0
168 0.0
163 0.000997
156 0.000961
153 0.00099
157 0.000997
166 0.0
171 0.000948
176 0.000998
180 0.000998
186 0.000998
190 0.0
196 0.0
203 0.002046
203 0.002048
168 0.001007
137 0.0
122 0.0
123 0.0
130 0.0
137 0.002036
143 0.002033
145 0.0
139 0.0
134 0.001041
129 0.002049
131 0.001033
139 0.0
145 0.0
151 0.0
162 0.000916
168 0.000962
172 0.000998
182 0.001032
182 0.00194
144 0.000993
106 0.0
83 0.0
75 0.002014
75 0.002029
80 0.0
83 0.0
87 0.001
85 0.0
78 0.0
74 0.002039
72 0.002993
82 0.00097
89 0.002
96 0.001963
106 0.001996
114 0.002046
122 0.002013
128 0.0
140 0.002037
142 0.001013
117 0.001036
76 0.001961
45 0.002998
28 0.000992
27 0.002031
32 0.000947
35 0.00305
37 0.002989
40 0.001989
39 0.000986
35 0.000962
37 0.000994
43 0.000963
54 0.002007
63 0.002966
76 0.002031
88 0.002006
96 0.001949
105 0.003049
114 0.002992
125 0.002035
134 0.001044
139 0.001044
108 0.000996
69 0.000966
40 0.002992
30 0.002992
33 0.002002
41 0.001008
48 0.002003
57 0.003991
62 0.002993
64 0.001965
61 0.001968
67 0.001993
76 0.00201
86 0.001997
99 0.003011
109 0.00299
122 0.001965
131 0.001987
136 0.001988
142 0.001993
151 0.004004
159 0.00402
167 0.003029
154 0.003989
106 0.002043
84 0.002005
78 0.001953
83 0.004989
92 0.005019
104 0.003002
111 0.001033
115 0.003002
111 0.00403
108 0.004031
110 0.001982
119 0.00399
131 0.003013
140 0.002995
150 0.002991
156 0.004035
163 0.004014
174 0.002005
180 0.003044
182 0.002034
161 0.005025
124 0.005017
94 0.003035
90 0.003988
100 0.002949
106 0.002992
111 0.003027
118 0.004998
120 0.004987
114 0.002989
114 0.003024
117 0.00395
123 0.004035
133 0.004036
148 0.003993
158 0.004024
168 0.003002
176 0.004019
184 0.004015
189 0.005017
190 0.005015
152 0.002972
115 0.003024
92 0.003033
87 0.004986
87 0.005954
92 0.004006
94 0.005033
98 0.003961
98 0.00396
97 0.003957
97 0.004994
99 0.005027
108 0.004008
119 0.003983
129 0.004958
137 0.004985
147 0.005984
155 0.00602
166 0.005019
172 0.005019
184 0.005023
190 0.003957
190 0.00401
165 0.006015
126 0.005984
89 0.003984
82 0.004938
84 0.004943
88 0.007008
91 0.007026
100 0.005021
103 0.005017
101 0.005019
99 0.005004
100 0.005023
106 0.006023
115 0.005984
129 0.005037
139 0.004064
147 0.004961
156 0.007015
162 0.007022
171 0.006015
179 0.007041
189 0.004991
195 0.004986
191 0.004961
159 0.006982
119 0.007057
89 0.005998
87 0.004961
92 0.00595
97 0.007035
100 0.007013
108 0.007003
106 0.006981
97 0.005971
95 0.005
99 0.005041
106 0.006981
117 0.00799
128 0.005007
138 0.004984
145 0.00598
156 0.007959
165 0.007975
173 0.007036
169 0.007016
123 0.005999
88 0.005021
68 0.005044
66 0.007021
71 0.006981
79 0.006012
85 0.005985
92 0.00601
92 0.006053
89 0.007961
90 0.006
97 0.007967
106 0.007978
118 0.005994
131 0.005972
142 0.005986
149 0.006971
161 0.007976
169 0.00698
177 0.00703
182 0.006997
153 0.007974
93 0.006987
55 0.007952
49 0.007976
53 0.006068
57 0.006029
62 0.006971
72 0.007019
77 0.00701
76 0.00698
76 0.00694
76 0.006968
85 0.007015
102 0.006981
118 0.006978
124 0.007976
139 0.006954
149 0.006986
156 0.006929
164 0.006984
172 0.006981
182 0.007021
178 0.006978
146 0.007039
100 0.007016
56 0.006972
48 0.007013
55 0.00701
63 0.006934
71 0.005985
77 0.00698
80 0.00599
77 0.006035
76 0.006975
80 0.005985
87 0.006973
100 0.007013
120 0.006985
135 0.006996
145 0.006028
157 0.006945
166 0.005986
174 0.006995
181 0.006006
191 0.005992
199 0.005972
188 0.005965
140 0.005966
95 0.005973
64 0.007009
66 0.006962
74 0.005978
82 0.006001
95 0.005955
98 0.006033
95 0.005986
90 0.006017
90 0.005989
97 0.006039
108 0.005978
119 0.005991
136 0.006017
147 0.006035
153 0.00501
163 0.006032
173 0.004948
179 0.005021
170 0.004989
131 0.005033
89 0.006035
60 0.006023
61 0.005049
71 0.006018
90 0.006016
100 0.006017
108 0.004953
107 0.005017
103 0.006014
105 0.005011
114 0.004975
124 0.004988
137 0.004987
153 0.005025
164 0.005006
173 0.004954
185 0.00502
196 0.00498
206 0.004005
201 0.005019
147 0.005002
100 0.004984
73 0.004973
65 0.005041
70 0.005013
83 0.005031
91 0.005003
101 0.005022
107 0.004981
105 0.005019
106 0.004023
110 0.004003
123 0.00401
136 0.004
147 0.004028
157 0.004022
167 0.00492
178 0.005018
185 0.005057
192 0.005032
205 0.00501
211 0.00502
200 0.004021
155 0.004048
107 0.003979
72 0.004027
69 0.003008
75 0.003968
84 0.003987
90 0.00399
100 0.003055
105 0.004022
102 0.00403
103 0.004971
109 0.005013
118 0.003951
130 0.004036
146 0.003958
158 0.004029
169 0.004021
179 0.004029
185 0.003965
195 0.004034
202 0.003951
215 0.004019
219 0.002953
192 0.002962
143 0.002978
101 0.002951
78 0.00302
82 0.003001
91 0.00296
99 0.003005
106 0.002991
114 0.002978
109 0.004039
101 0.003989
102 0.002961
110 0.002988
122 0.002994
132 0.003039
145 0.003031
155 0.003021
161 0.002998
167 0.003027
176 0.003057
186 0.002993
187 0.001949
129 0.004002
86 0.002981
60 0.001943
56 0.002021
63 0.001998
78 0.002958
88 0.001949
96 0.00194
99 0.001996
95 0.002993
92 0.00302
94 0.001993
108 0.002992
124 0.003034
138 0.002966
149 0.002001
157 0.001954
166 0.001954
178 0.001945
185 0.001988
191 0.002051
181 0.001995
133 0.002007
65 0.001995
35 0.001996
38 0.001971
44 0.001052
51 0.001035
59 0.002057
68 0.000958
69 0.000958
68 0.00093
70 0.001995
75 0.001916
86 0.001984
106 0.001997
122 0.001995
137 0.001982
146 0.000998
156 0.00101
163 0.000967
171 0.001029
182 0.001995
190 0.00202
199 0.000999
197 0.002005
160 0.000996
80 0.0
35 0.000997
30 0.002059
35 0.000965
43 0.001013
51 0.001022
58 0.001062
62 0.001996
61 0.000997
61 0.001032
65 0.0
76 0.000999
93 0.001011
113 0.001026
129 0.000995
141 0.000998
153 0.0
162 0.0
170 0.0
182 0.001015
189 0.0
197 0.001003
207 0.000964
217 0.001034
226 0.000999
198 0.000998
132 0.0
66 0.0
48 0.0
50 0.0
59 0.0
68 0.0
80 0.0
86 0.0
86 0.0
82 0.0
80 0.0
92 0.000997
104 0.001016
124 0.0
139 0.0
149 0.0
159 0.0
167 0.0
176 0.0
184 0.0
193 0.0
197 0.000966
181 0.0
94 0.000998
58 0.0
49 0.001
57 0.0
71 0.000999
85 0.0
99 0.000997
103 0.000998
99 0.002042
95 0.001052
98 0.000998
106 0.000999
136 0.000963
146 0.001065
162 0.00205
174 0.002035
186 0.000937
193 0.001023
202 0.000968
210 0.002034
219 0.002021
210 0.001025
155 0.000954
91 0.000997
37 0.000996
38 0.000966
47 0.002046
57 0.001046
70 0.0
78 0.0
80 0.0
78 0.001054
76 0.002007
83 0.0
96 0.000996
112 0.0
137 0.000971
149 0.0
161 0.0
172 0.002027
179 0.001041
191 0.001031
201 0.000995
207 0.000943
201 0.001073
152 0.001995
67 0.0
30 0.0
24 0.0
35 0.0
43 0.000953
53 0.002024
64 0.002025
67 0.001008
66 0.0
67 0.001
73 0.003
85 0.002994
106 0.0
123 0.000997
148 0.000994
159 0.00198
170 0.002006
177 0.001997
186 0.001957
201 0.00104
210 0.001045
203 0.001044
156 0.002054
92 0.003021
38 0.002016
33 0.001996
48 0.001996
58 0.00201
69 0.001048
77 0.003046
79 0.003021
74 0.002043
73 0.002014
80 0.001993
94 0.003029
109 0.004028
128 0.000998
141 0.002009
158 0.002004
166 0.001984
173 0.001988
180 0.002994
188 0.003018
178 0.001047
128 0.001029
66 0.001061
32 0.00403
24 0.00403
32 0.00405
50 0.002028
68 0.003989
79 0.002002
74 0.002002
69 0.001994
68 0.003994
74 0.003028
92 0.001993
108 0.002002
121 0.00198
134 0.004015
145 0.00399
159 0.002043
171 0.003989
178 0.001985
157 0.00298
98 0.001991
39 0.004988
7 0.005027
5 0.002022
15 0.001996
23 0.002991
34 0.00498
47 0.004983
52 0.002989
54 0.005019
57 0.003036
68 0.002961
84 0.002999
100 0.004988
115 0.005033
135 0.003039
145 0.003025
153 0.003033
163 0.004987
173 0.004987
184 0.003034
180 0.004978
110 0.004025
49 0.003988
13 0.003022
5 0.00504
12 0.004988
24 0.002961
31 0.003039
43 0.003003
54 0.005021
57 0.00606
59 0.002993
70 0.005953
89 0.00399
104 0.003956
120 0.004001
134 0.005988
146 0.00597
161 0.004014
171 0.004014
181 0.003998
190 0.003969
198 0.004987
205 0.005022
225 0.005987
235 0.006035
218 0.003053
156 0.004036
94 0.004025
61 0.006039
52 0.006022
61 0.003935
70 0.003985
77 0.003993
88 0.006983
96 0.00602
98 0.006981
101 0.005945
112 0.004934
127 0.004953
144 0.004964
159 0.005939
172 0.005992
188 0.004994
194 0.004994
201 0.00498
210 0.005984
217 0.005984
233 0.005984
233 0.006983
183 0.004029
135 0.004991
105 0.004991
100 0.006982
107 0.007031
121 0.004954
133 0.004988
144 0.004993
148 0.007997
145 0.00699
142 0.00704
148 0.005982
165 0.005983
179 0.005007
192 0.005986
203 0.006959
212 0.006985
222 0.004984
186 0.005016
238 0.004995
249 0.00794
252 0.006982
215 0.005941
150 0.007974
124 0.005991
118 0.005961
123 0.005979
133 0.00798
140 0.007982
149 0.005982
157 0.005007
158 0.005972
156 0.005992
158 0.007009
172 0.005946
183 0.00798
196 0.007994
211 0.005974
222 0.005955
186 0.005998
239 0.007977
245 0.007978
255 0.005952
255 0.006021
255 0.005993
235 0.007005
162 0.005914
140 0.007958
138 0.008011
143 0.005968
147 0.006952
152 0.005976
160 0.007966
162 0.007979
163 0.00698
162 0.006002
165 0.005999
174 0.007979
192 0.006989
207 0.006981
215 0.007
225 0.006949
232 0.006949
239 0.006956
190 0.008005
194 0.007029
200 0.00699
203 0.006993
205 0.006993
187 0.007962
158 0.006949
144 0.006973
143 0.006983
147 0.006958
149 0.006982
152 0.006981
157 0.006031
158 0.006013
155 0.005948
155 0.006964
156 0.006985
160 0.006958
168 0.006035
174 0.007043
178 0.007025
183 0.006981
186 0.007012
190 0.007029
193 0.006019
196 0.006027
191 0.005988
173 0.006013
155 0.006982
147 0.006971
145 0.006014
149 0.005954
153 0.006014
156 0.005918
159 0.005983
157 0.005983
154 0.005991
154 0.006025
156 0.005989
162 0.005997
166 0.006016
172 0.006967
177 0.005987
181 0.005984
184 0.006013
187 0.006028
190 0.005983
177 0.005035
157 0.005031
142 0.004981
137 0.005
138 0.005025
141 0.005979
143 0.005027
146 0.005983
147 0.005981
146 0.005984
145 0.005984
146 0.004993
148 0.005051
153 0.006028
158 0.004957
163 0.004986
200 0.004987
206 0.005973
212 0.006032
224 0.005025
227 0.005005
208 0.005023
171 0.004988
135 0.005021
125 0.004988
127 0.004952
131 0.003953
134 0.004004
138 0.005027
143 0.004988
143 0.005035
141 0.004959
141 0.003956
147 0.005018
154 0.004988
163 0.004993
171 0.004996
178 0.005026
183 0.003987
188 0.004019
197 0.004977
204 0.005001
209 0.00503
179 0.003988
143 0.004022
119 0.003972
113 0.003987
113 0.003989
121 0.003991
123 0.004987
128 0.003992
130 0.003972
130 0.005026
125 0.004957
125 0.004987
134 0.003991
143 0.00399
153 0.003989
160 0.003991
166 0.00399
174 0.003939
179 0.002992
184 0.003005
191 0.003022
196 0.00399
181 0.003991
144 0.004036
101 0.003991
99 0.003956
101 0.003996
107 0.00399
111 0.004015
117 0.004077
115 0.003966
109 0.002954
104 0.00298
103 0.003995
109 0.004021
118 0.002997
132 0.002994
139 0.002978
145 0.003991
150 0.002995
157 0.002991
165 0.003989
164 0.001997
136 0.003016
101 0.002994
73 0.003991
62 0.003991
67 0.002013
77 0.002992
82 0.003011
85 0.003047
85 0.003009
82 0.00302
79 0.002983
83 0.003041
89 0.002959
99 0.002007
107 0.002982
119 0.002991
126 0.002987
136 0.001995
145 0.001996
153 0.001965
150 0.002036
119 0.002059
78 0.002041
45 0.002952
40 0.001037
43 0.002028
47 0.002032
49 0.001995
57 0.002966
61 0.000998
57 0.001999
58 0.000962
63 0.001969
70 0.001957
79 0.001949
94 0.001995
105 0.002043
112 0.000999
120 0.001995
128 0.001994
137 0.001989
149 0.000993
155 0.002031
139 0.002028
99 0.001997
61 0.001962
44 0.000959
41 0.002011
45 0.000959
51 0.0
57 0.002058
63 0.000997
64 0.000968
64 0.001025
68 0.002021
74 0.0
84 0.0
95 0.0
107 0.0
119 0.002009
129 0.001012
137 0.000997
146 0.000998
156 0.00103
168 0.000994
167 0.001027
124 0.000997
89 0.0
70 0.000996
71 0.0
79 0.0
88 0.0
98 0.0
107 0.000986
105 0.000989
99 0.0
97 0.0
104 0.001052
114 0.001041
127 0.000964
138 0.0
147 0.0
155 0.0
163 0.00106
174 0.0
180 0.000997
175 0.000968
145 0.000967
106 0.0
79 0.0
82 0.001001
94 0.000998
104 0.000999
113 0.0
119 0.0
117 0.000998
113 0.001037
115 0.0
120 0.0
131 0.000998
145 0.0
159 0.0
165 0.0
177 0.0
185 0.001994
190 0.000966
174 0.000961
133 0.000935
93 0.002047
73 0.000997
70 0.001011
76 0.000969
81 0.0
90 0.000968
94 0.000998
95 0.001029
93 0.002027
95 0.0
102 0.000949
110 0.0
120 0.00303
132 0.00203
145 0.0
152 0.0
160 0.000982
173 0.000997
181 0.0
178 0.002027
146 0.002029
101 0.002006
62 0.0
54 0.001001
57 0.0
63 0.002021
67 0.001984
76 0.0
83 0.0
84 0.0
86 0.0
89 0.0
98 0.002021
111 0.002027
127 0.000965
138 0.000991
149 0.000965
159 0.002047
166 0.002029
177 0.000989
187 0.000967
198 0.0
189 0.0
150 0.0
111 0.001997
89 0.002026
84 0.000953
90 0.0
98 0.000976
103 0.002027
109 0.002026
115 0.0
113 0.0
115 0.0
122 0.000965
132 0.0
144 0.001996
155 0.002978
169 0.0
178 0.001993
185 0.001994
192 0.001987
197 0.002029
210 0.00198
217 0.001955
197 0.00299
158 0.002971
126 0.002001
115 0.003013
116 0.004053
127 0.001994
136 0.00201
144 0.002027
149 0.002969
147 0.002994
141 0.001994
139 0.002014
149 0.002009
160 0.001041
169 0.001996
176 0.003024
181 0.002987
188 0.002992
198 0.001998
204 0.001992
209 0.001037
192 0.003037
153 0.00399
109 0.002001
96 0.00399
106 0.001981
113 0.001998
120 0.001997
127 0.004989
131 0.005006
127 0.001963
124 0.001967
127 0.001975
136 0.00304
145 0.003024
158 0.001953
168 0.004024
177 0.003038
184 0.002036
190 0.002015
197 0.004058
200 0.004043
161 0.003001
119 0.002003
91 0.001983
78 0.003976
79 0.004986
88 0.002966
93 0.004941
101 0.002949
103 0.002961
103 0.002031
104 0.004027
106 0.00399
117 0.002022
127 0.001987
137 0.001992
147 0.004023
155 0.004987
165 0.00296
176 0.004986
186 0.00296
190 0.003022
171 0.003001
131 0.005032
98 0.006016
81 0.002023
84 0.002041
91 0.002009
95 0.004035
102 0.004994
111 0.002956
113 0.00499
110 0.003039
113 0.003021
122 0.003988
132 0.005986
143 0.006054
157 0.004
165 0.002974
171 0.004003
179 0.003993
187 0.00602
194 0.006015
200 0.006014
176 0.005989
124 0.003996
99 0.004003
93 0.003984
98 0.006026
105 0.006087
114 0.004015
123 0.003953
124 0.002992
120 0.006033
116 0.005986
120 0.005986
126 0.005984
141 0.003995
151 0.004989
158 0.004
165 0.006017
172 0.006011
181 0.003016
186 0.002995
188 0.003029
165 0.00602
123 0.006016
79 0.006023
76 0.006028
84 0.005004
88 0.00496
93 0.004989
102 0.00701
103 0.006032
100 0.003988
100 0.003988
103 0.004998
108 0.007027
117 0.006979
133 0.006982
143 0.007979
154 0.004987
160 0.004967
167 0.004999
175 0.006982
182 0.005984
183 0.004036
157 0.004994
115 0.005006
84 0.006978
72 0.007034
75 0.007039
80 0.007015
84 0.005978
91 0.005985
94 0.005955
93 0.007991
91 0.006981
96 0.006001
104 0.005991
113 0.005012
124 0.006992
134 0.007031
147 0.005989
157 0.007964
164 0.007974
172 0.006001
176 0.004984
182 0.005989
190 0.007095
199 0.006981
201 0.006006
182 0.006023
143 0.005986
97 0.007993
88 0.005987
93 0.006962
98 0.006939
101 0.006975
104 0.006979
107 0.006987
108 0.00701
108 0.007978
111 0.005979
116 0.005986
127 0.005981
137 0.007978
153 0.005987
163 0.006982
169 0.006969
175 0.006977
179 0.005975
189 0.007021
197 0.008014
204 0.00797
200 0.006956
159 0.006966
132 0.006975
120 0.007015
120 0.00698
127 0.006047
130 0.005998
135 0.005986
138 0.00696
134 0.005973
131 0.006017
131 0.008004
139 0.005964
145 0.006965
154 0.006975
163 0.006983
175 0.006981
187 0.00599
193 0.00599
203 0.006972
215 0.005987
222 0.005968
228 0.006964
239 0.007012
238 0.007003
198 0.005978
173 0.005981
165 0.005984
171 0.005976
178 0.005004
183 0.005989
188 0.004999
190 0.006043
187 0.006003
184 0.006963
184 0.006985
188 0.006026
196 0.005982
203 0.005986
210 0.005972
219 0.004973
227 0.005983
234 0.004953
241 0.004992
247 0.004984
252 0.005971
244 0.006007
215 0.005026
192 0.005004
188 0.005982
195 0.004953
203 0.006019
212 0.006012
217 0.004982
215 0.005019
211 0.006018
207 0.004977
211 0.005967
216 0.005022
223 0.005018
233 0.004982
240 0.005018
186 0.005016
189 0.005014
192 0.003989
188 0.003979
174 0.004031
163 0.004016
160 0.004984
162 0.006016
166 0.00499
169 0.004985
171 0.005023
174 0.00502
172 0.004982
169 0.005
170 0.003964
173 0.003986
177 0.00399
181 0.003955
184 0.003957
188 0.003992
190 0.003992
192 0.004023
192 0.003989
179 0.004033
161 0.004995
158 0.005022
162 0.00396
165 0.003993
168 0.004005
170 0.003957
171 0.003991
170 0.003992
169 0.004031
169 0.003992
170 0.004016
173 0.004021
177 0.003991
179 0.004027
183 0.002962
185 0.003013
186 0.003961
184 0.00399
172 0.003986
155 0.00399
152 0.003994
154 0.004025
157 0.004066
160 0.003958
163 0.003993
164 0.004021
162 0.002957
161 0.003023
161 0.003017
163 0.002993
166 0.003026
170 0.002992
172 0.004044
174 0.002955
174 0.004032
177 0.004056
180 0.003991
181 0.00396
249 0.002987
208 0.002994
192 0.002995
195 0.002994
204 0.003014
220 0.003057
223 0.003026
225 0.003025
40 0.002992
227 0.003027
219 0.003029
224 0.003022
234 0.003048
241 0.002028
187 0.001995
190 0.001981
191 0.002005
193 0.002035
197 0.002992
199 0.003031
201 0.003031
192 0.002991
170 0.00299
151 0.002965
153 0.002018
161 0.001991
166 0.001995
169 0.001011
171 0.001959
171 0.001969
164 0.002026
163 0.001991
166 0.002018
168 0.002024
172 0.002043
177 0.001947
180 0.00205
182 0.000986
183 0.00203
187 0.002052
189 0.001995
182 0.001994
152 0.001995
139 0.001996
138 0.002042
142 0.002029
146 0.002033
151 0.000981
153 0.001993
153 0.001997
150 0.002029
148 0.0
149 0.000997
151 0.000998
156 0.00202
159 0.002033
163 0.001998
164 0.001995
166 0.000998
169 0.000997
172 0.000997
172 0.000997
158 0.002042
136 0.0
120 0.000997
119 0.002004
124 0.001995
128 0.002006
131 0.002042
133 0.002043
136 0.001976
135 0.000963
133 0.0
134 0.001026
137 0.0
140 0.001002
142 0.000998
156 0.001008
161 0.001003
165 0.000997
168 0.000993
170 0.000996
175 0.000997
179 0.0
187 0.0
178 0.000996
133 0.001018
108 0.001048
99 0.0
104 0.0
111 0.0
116 0.0
120 0.000997
123 0.0
122 0.000998
116 0.0
111 0.0
114 0.0
121 0.0
126 0.0
132 0.0
136 0.0
136 0.001012
137 0.002029
141 0.000997
146 0.000991
149 0.000998
144 0.00095
102 0.0
76 0.001067
67 0.000989
72 0.00198
79 0.0
86 0.0
90 0.0
91 0.002025
85 0.001998
78 0.0
77 0.0
80 0.0
92 0.0
97 0.000983
104 0.002999
108 0.002993
111 0.0
116 0.0
123 0.001021
126 0.001994
127 0.002032
101 0.000956
63 0.0
39 0.0
30 0.0
34 0.000964
36 0.000972
37 0.002028
38 0.002026
40 0.0
38 0.0
32 0.0
29 0.001985
32 0.002039
39 0.000993
46 0.0
56 0.000965
62 0.0
67 0.001003
72 0.002061
78 0.001999
86 0.0
86 0.0
72 0.000957
39 0.00203
7 0.002029
0 0.0
0 0.000947
1 0.001003
4 0.000954
6 0.000967
10 0.002032
6 0.002026
4 0.001003
6 0.0
10 0.0
18 0.003044
26 0.00202
37 0.0
47 0.0
58 0.0
65 0.000992
72 0.0
79 0.001971
86 0.001966
77 0.001995
44 0.001966
12 0.001005
0 0.002995
0 0.002992
2 0.001995
10 0.001994
17 0.002003
18 0.001953
11 0.0
6 0.003022
2 0.002992
5 0.001989
14 0.001989
21 0.002003
27 0.003025
34 0.002998
41 0.002008
46 0.002002
56 0.003986
62 0.001979
47 0.001995
14 0.001994
56 0.002995
49 0.003047
50 0.002002
53 0.001995
56 0.001995
59 0.002994
62 0.003024
61 0.00201
59 0.003992
60 0.002004
63 0.001956
69 0.001999
73 0.004021
77 0.00399
84 0.002014
87 0.002027
92 0.00201
96 0.003991
96 0.00399
75 0.001984
55 0.003947
48 0.00198
49 0.002021
51 0.001992
52 0.004022
55 0.003987
59 0.002005
60 0.001979
59 0.001027
59 0.004986
63 0.004981
70 0.003019
78 0.005029
85 0.002031
90 0.002932
95 0.002991
99 0.004987
105 0.005021
109 0.003007
102 0.001981
86 0.003012
70 0.003989
62 0.004052
62 0.001999
64 0.005041
69 0.003023
71 0.002984
74 0.003003
75 0.004988
76 0.005034
77 0.002992
81 0.002992
86 0.002992
91 0.004986
96 0.004987
103 0.003032
108 0.006039
112 0.006025
117 0.003021
124 0.001997
126 0.002947
119 0.005006
101 0.00502
53 0.002989
49 0.003994
51 0.003007
56 0.004986
63 0.00502
72 0.006015
74 0.005985
71 0.003028
72 0.002981
76 0.003994
85 0.006019
93 0.006015
104 0.002997
114 0.003007
122 0.002961
132 0.005973
138 0.00601
151 0.005999
157 0.005967
158 0.003987
137 0.003957
103 0.003985
79 0.005992
70 0.006016
72 0.003999
76 0.003985
79 0.00399
85 0.006015
89 0.006016
91 0.006983
90 0.006984
94 0.003965
101 0.003997
108 0.003985
118 0.006017
127 0.006008
136 0.004016
143 0.003999
150 0.004002
159 0.006028
165 0.005984
177 0.006983
184 0.007043
188 0.004964
166 0.00497
130 0.004956
105 0.006981
97 0.006976
96 0.003963
99 0.003986
102 0.004011
104 0.006989
107 0.006972
106 0.00798
106 0.007949
107 0.007979
114 0.004987
124 0.004993
133 0.004991
140 0.007014
149 0.007031
157 0.005007
161 0.005001
168 0.005016
173 0.006975
182 0.005988
186 0.007979
170 0.007976
138 0.005986
104 0.006972
99 0.005022
101 0.007979
106 0.007004
111 0.005033
116 0.004988
120 0.005021
120 0.007936
116 0.005998
119 0.007979
124 0.007978
135 0.005955
146 0.005986
154 0.005951
163 0.007961
169 0.007977
176 0.005989
182 0.005955
189 0.005949
191 0.007965
162 0.005975
112 0.007031
92 0.006979
88 0.005979
90 0.005923
93 0.006001
96 0.007964
103 0.00797
105 0.005993
105 0.005993
103 0.005983
103 0.007017
114 0.006976
127 0.006982
138 0.006986
146 0.006983
152 0.005978
157 0.006017
166 0.006965
173 0.006982
181 0.005996
189 0.006003
190 0.006006
151 0.006031
94 0.006807
82 0.007009
81 0.007015
85 0.007015
87 0.006962
93 0.006972
99 0.006975
99 0.007013
97 0.007023
96 0.005954
100 0.005979
109 0.005977
127 0.005988
138 0.00599
147 0.005977
155 0.005988
163 0.006987
171 0.006958
177 0.006983
187 0.006984
186 0.007016
143 0.005958
105 0.005986
82 0.006036
77 0.005951
83 0.005977
89 0.006018
98 0.006021
105 0.005969
103 0.005978
99 0.005985
97 0.006017
101 0.005021
111 0.005983
120 0.006001
131 0.005994
147 0.006027
155 0.005948
163 0.006013
173 0.006013
181 0.005993
170 0.005028
131 0.00597
90 0.005018
64 0.005033
58 0.004939
63 0.004987
71 0.004989
84 0.003966
88 0.004987
89 0.006015
89 0.005045
88 0.00502
93 0.005007
104 0.004942
114 0.004971
126 0.00502
143 0.005014
151 0.004986
158 0.004982
173 0.003981
179 0.005036
164 0.005017
121 0.005019
80 0.004982
54 0.004991
52 0.004042
58 0.003991
65 0.004998
72 0.003954
82 0.00503
86 0.005029
83 0.00398
87 0.005026
94 0.004986
106 0.004976
118 0.004022
135 0.004037
147 0.004029
155 0.003967
165 0.004029
174 0.003989
183 0.003988
175 0.003921
106 0.003986
70 0.003949
51 0.004987
51 0.005022
59 0.003989
72 0.003934
81 0.004045
89 0.004039
90 0.004019
85 0.003989
85 0.00403
92 0.003988
110 0.003998
124 0.003988
134 0.003988
145 0.002992
155 0.00399
168 0.003989
177 0.003988
175 0.003946
142 0.004
93 0.003999
51 0.00399
42 0.00395
52 0.003992
60 0.003908
70 0.002991
80 0.003022
84 0.002996
82 0.003024
84 0.003023
90 0.00296
100 0.003026
111 0.002992
130 0.00303
144 0.003983
163 0.003954
173 0.003959
185 0.003992
192 0.003011
178 0.002994
112 0.002976
70 0.003041
48 0.003028
45 0.002989
53 0.00299
61 0.002992
73 0.002992
84 0.003018
82 0.00399
81 0.001973
83 0.002948
91 0.002032
102 0.001995
120 0.001992
132 0.002026
144 0.001994
153 0.002994
164 0.003024
175 0.003026
178 0.002035
136 0.002992
89 0.002992
58 0.001995
49 0.002027
55 0.001941
70 0.001995
80 0.002027
92 0.001995
100 0.002016
100 0.001996
100 0.001945
107 0.002005
125 0.002036
137 0.002029
150 0.002041
162 0.001995
173 0.000983
184 0.000997
193 0.000998
204 0.002043
211 0.001007
209 0.001995
163 0.001994
107 0.002041
89 0.00206
92 0.001998
101 0.002034
107 0.000998
116 0.000999
126 0.001002
128 0.000997
128 0.000998
130 0.001003
135 0.000994
150 0.001999
165 0.001992
179 0.002026
186 0.002037
195 0.002026
204 0.001995
211 0.001046
221 0.000997
219 0.001006
190 0.000997
152 0.000997
129 0.000998
122 0.000991
133 0.002047
140 0.000997
151 0.001964
162 0.0
164 0.0
163 0.0
164 0.0
171 0.0
181 0.0
193 0.000997
204 0.0
212 0.0
226 0.0
233 0.0
238 0.0
219 0.0
187 0.000998
163 0.0
158 0.0
166 0.0
179 0.0
189 0.0
200 0.0
205 0.0
206 0.0
206 0.0
217 0.0
226 0.0
234 0.0
245 0.0
253 0.000963
255 0.000965
255 0.002023
255 0.0
255 0.001001
255 0.0
255 0.0
173 0.0
212 0.00199
209 0.002028
217 0.0
223 0.0
228 0.0
234 0.002028
237 0.002027
231 0.0
173 0.001005
234 0.001
242 0.000955
249 0.00097
255 0.00296
255 0.003018
255 0.0
255 0.0
255 0.0
255 0.003014
255 0.002028
255 0.0
255 0.0
181 0.0
175 0.0
178 0.000966
181 0.000979
184 0.002023
188 0.002026
189 0.000967
188 0.0
187 0.0
186 0.003024
186 0.003044
190 0.0
193 0.0
198 0.0
200 0.0
202 0.000964
205 0.002049
207 0.001995
210 0.0
211 0.0
200 0.0
185 0.002032
177 0.002026
178 0.000963
182 0.0
189 0.0
192 0.0
194 0.001
193 0.002026
189 0.001992
188 0.0
189 0.000965
192 0.0
195 0.001998
198 0.002003
200 0.001042
203 0.000996
206 0.0
208 0.0
206 0.0
193 0.003053
179 0.003026
175 0.0
178 0.0
182 0.0
186 0.002035
190 0.002036
192 0.001992
191 0.000966
185 0.001995
185 0.002
186 0.0
187 0.002994
189 0.003028
192 0.00299
194 0.002031
196 0.002021
195 0.002997
182 0.003025
166 0.001999
162 0.001991
164 0.003003
169 0.002007
236 0.001998
240 0.002001
241 0.003028
185 0.002999
180 0.002005
179 0.001994
182 0.001996
184 0.003027
187 0.003008
191 0.002988
193 0.003026
180 0.002996
158 0.002989
145 0.002147
144 0.003039
147 0.00404
151 0.002995
155 0.00299
156 0.001985
156 0.00403
155 0.003948
153 0.002029
153 0.00399
156 0.001995
159 0.001988
162 0.002046
164 0.002992
168 0.004023
158 0.001966
137 0.001997
121 0.001998
116 0.004025
117 0.00402
121 0.001981
124 0.00403
127 0.00199
128 0.001998
126 0.002999
124 0.00402
123 0.004001
126 0.002994
130 0.002026
133 0.002032
136 0.005039
139 0.004992
141 0.002009
145 0.005022
137 0.002
116 0.00199
97 0.001993
89 0.004978
91 0.005018
94 0.00296
95 0.003012
97 0.002993
99 0.005018
100 0.00502
98 0.002992
96 0.005019
97 0.004988
101 0.001994
103 0.002993
108 0.002993
112 0.006016
116 0.005018
121 0.003997
126 0.003999
129 0.003018
132 0.005044
134 0.005055
140 0.005034
145 0.006083
136 0.002998
112 0.003
94 0.002995
91 0.006026
93 0.00602
98 0.002985
102 0.003029
104 0.001992
106 0.005004
107 0.007027
103 0.005021
103 0.005018
105 0.002961
108 0.003996
112 0.003975
115 0.006019
119 0.006038
125 0.003943
129 0.004005
132 0.003983
136 0.006034
137 0.006992
143 0.006015
147 0.006999
147 0.004013
132 0.003996
112 0.003992
104 0.006979
103 0.007014
109 0.003971
113 0.003986
115 0.003983
118 0.007038
120 0.006981
117 0.007045
116 0.007003
118 0.003985
122 0.004976
126 0.003982
130 0.006978
134 0.006984
139 0.003986
141 0.003999
144 0.003955
147 0.007951
149 0.008014
153 0.00499
156 0.007012
159 0.007002
154 0.004995
133 0.004949
118 0.004986
112 0.006974
113 0.007013
111 0.003996
118 0.004988
122 0.005034
125 0.007966
121 0.004985
117 0.007973
115 0.007978
119 0.004969
126 0.00499
133 0.00499
139 0.007017
145 0.007982
153 0.004986
156 0.004952
162 0.005962
169 0.007972
171 0.005986
178 0.007969
185 0.00797
187 0.005984
171 0.004983
133 0.005025
98 0.007964
91 0.007977
94 0.004961
101 0.004982
106 0.006013
113 0.006944
112 0.006006
107 0.007962
101 0.007958
100 0.005992
103 0.005995
108 0.00599
114 0.007965
123 0.007965
128 0.006009
133 0.006029
141 0.005984
145 0.007022
151 0.005963
156 0.007012
163 0.006979
163 0.005984
137 0.005985
88 0.005983
72 0.007979
61 0.007973
65 0.006953
70 0.00698
76 0.00698
80 0.006024
81 0.006979
72 0.006968
66 0.006974
68 0.006986
71 0.006968
77 0.005984
85 0.005945
94 0.005949
100 0.006015
108 0.005997
112 0.005932
118 0.005978
128 0.005974
131 0.005998
122 0.007014
86 0.007018
48 0.006972
30 0.006013
26 0.006949
30 0.006073
37 0.00601
43 0.005895
45 0.005984
41 0.005984
28 0.005937
27 0.006217
29 0.005951
35 0.006017
48 0.005985
53 0.005985
59 0.005982
68 0.006021
76 0.00604
83 0.004989
84 0.004985
62 0.004974
2 0.005956
0 0.005984
0 0.006019
0 0.006018
0 0.005026
3 0.005953
8 0.004983
6 0.004991
1 0.006016
0 0.004944
1 0.004941
9 0.003997
23 0.004999
33 0.004985
40 0.005013
50 0.004987
61 0.004986
65 0.00499
50 0.005994
13 0.00399
0 0.004991
0 0.004928
0 0.005021
0 0.004979
0 0.00503
0 0.00499
0 0.004978
0 0.004947
0 0.00502
0 0.004984
0 0.003992
52 0.003977
59 0.003991
65 0.004986
72 0.003993
76 0.003939
83 0.005019
86 0.005023
76 0.004943
58 0.004989
42 0.005019
34 0.004031
33 0.00399
37 0.004025
40 0.004022
45 0.002969
49 0.003992
50 0.003061
50 0.004032
52 0.00402
57 0.004024
63 0.004008
69 0.004009
78 0.003991
83 0.003031
88 0.004013
93 0.003994
98 0.003033
104 0.002951
111 0.002959
108 0.00399
91 0.003956
73 0.003952
63 0.003989
61 0.003008
64 0.003047
66 0.003018
69 0.003021
73 0.002991
75 0.001993
76 0.001958
77 0.002952
83 0.003952
88 0.003991
94 0.004023
100 0.002994
105 0.002993
112 0.003024
117 0.003039
121 0.003024
126 0.003025
130 0.001994
134 0.001995
142 0.002003
147 0.003024
135 0.003026
115 0.002992
100 0.001995
94 0.002026
94 0.001995
97 0.002969
99 0.001973
102 0.002029
104 0.002991
105 0.001973
103 0.001966
105 0.003
109 0.002987
116 0.002043
121 0.002
126 0.001994
129 0.001959
134 0.001995
137 0.001992
141 0.001884
145 0.001996
147 0.00105
138 0.001995
117 0.002032
104 0.000998
102 0.002997
105 0.003017
108 0.003004
113 0.002032
118 0.001996
119 0.001995
117 0.001998
117 0.002028
120 0.001995
126 0.000969
134 0.002044
140 0.001996
145 0.001986
150 0.000993
153 0.000994
157 0.001005
162 0.001019
165 0.002071
170 0.00203
174 0.000975
173 0.001019
150 0.001025
124 0.000998
114 0.001996
113 0.001996
114 0.000982
115 0.001029
115 0.001003
119 0.000998
120 0.000997
120 0.00104
120 0.001044
123 0.0
128 0.0
135 0.002043
140 0.002027
146 0.002023
151 0.000998
155 0.002011
160 0.0
163 0.0
166 0.0
170 0.0
173 0.0
212 0.000991
220 0.0
203 0.0
166 0.0
123 0.0
110 0.0
109 0.0
111 0.001001
112 0.000975
118 0.000998
122 0.0
121 0.0
119 0.000953
118 0.0
125 0.0
136 0.0
149 0.0
158 0.0
167 0.0
173 0.0
178 0.0
186 0.0
192 0.000966
199 0.000998
205 0.001045
202 0.001038
151 0.0
120 0.0
105 0.0
108 0.002035
114 0.0
119 0.0
126 0.0
129 0.002043
124 0.000999
119 0.000999
118 0.000997
123 0.001026
138 0.001017
147 0.0
157 0.003008
164 0.002994
172 0.0
181 0.000967
188 0.0
193 0.003019
192 0.003027
154 0.000974
118 0.0
98 0.000978
94 0.000963
103 0.000998
108 0.0
115 0.00294
122 0.001988
122 0.0
119 0.0
119 0.0
124 0.003025
133 0.002024
146 0.000994
151 0.002
171 0.0
176 0.0
183 0.0
189 0.003022
195 0.00303
194 0.000981
165 0.0
124 0.0
95 0.002035
82 0.002946
82 0.001025
88 0.0
94 0.001
101 0.0
103 0.0
104 0.002992
104 0.003027
108 0.0
115 0.0
127 0.0
139 0.002993
149 0.001995
162 0.00097
169 0.001003
184 0.0
190 0.0
197 0.000993
187 0.001998
152 0.002046
104 0.00101
88 0.000996
85 0.0
89 0.002993
94 0.003025
101 0.0
108 0.0
111 0.0
111 0.0
112 0.0
119 0.002991
128 0.003007
144 0.0
155 0.0
163 0.0
170 0.003989
179 0.003039
190 0.000959
196 0.0
191 0.002994
146 0.003002
115 0.003045
99 0.001988
98 0.002992
107 0.003077
118 0.001993
125 0.003009
132 0.002994
134 0.002993
130 0.004023
130 0.002987
139 0.003959
151 0.002992
161 0.002018
170 0.002026
178 0.004008
186 0.002998
196 0.003013
204 0.002038
206 0.00203
188 0.00405
153 0.004004
117 0.002992
109 0.004023
116 0.001984
123 0.001994
129 0.001999
137 0.004037
141 0.004038
140 0.002999
140 0.00299
146 0.002995
152 0.006047
160 0.005028
175 0.002992
186 0.00398
195 0.002994
200 0.001985
208 0.002027
215 0.003995
220 0.004017
196 0.003032
159 0.002019
131 0.003001
118 0.005017
118 0.006026
123 0.00201
126 0.005015
135 0.001996
140 0.001991
140 0.002
140 0.004984
144 0.00502
153 0.00199
160 0.002993
170 0.002978
178 0.004987
187 0.004987
195 0.002987
203 0.004988
212 0.002996
219 0.002989
216 0.002026
188 0.00299
155 0.005037
136 0.004982
130 0.001998
133 0.002962
138 0.002961
144 0.005995
149 0.005991
153 0.005977
150 0.005982
152 0.002995
156 0.002991
163 0.002991
172 0.005978
181 0.004956
191 0.003939
199 0.003992
204 0.004027
208 0.005987
214 0.005978
212 0.006017
187 0.006043
151 0.002964
139 0.002994
139 0.002987
144 0.005985
150 0.007024
157 0.002958
162 0.003934
163 0.003964
159 0.007032
156 0.006946
163 0.006969
171 0.006948
184 0.00199
190 0.004042
197 0.00399
203 0.00598
207 0.007012
215 0.004986
217 0.004994
196 0.004987
162 0.006988
139 0.007015
128 0.006965
131 0.007014
134 0.003994
139 0.003991
144 0.00398
145 0.007036
143 0.007979
142 0.004988
143 0.005048
147 0.004975
156 0.007029
163 0.007982
178 0.006981
186 0.006947
191 0.006953
197 0.004993
203 0.004988
209 0.004979
207 0.006949
170 0.007978
139 0.005986
120 0.004987
116 0.005008
118 0.007014
121 0.004982
125 0.00797
127 0.00795
132 0.004959
129 0.004947
129 0.004978
136 0.006974
142 0.006969
150 0.005985
158 0.004969
166 0.005001
175 0.007996
184 0.005
192 0.007945
197 0.007972
206 0.004015
211 0.004043
204 0.004981
164 0.007018
138 0.00702
129 0.005017
131 0.005977
137 0.005954
142 0.007001
148 0.005954
150 0.00699
151 0.007978
149 0.005942
150 0.005987
156 0.006007
166 0.006986
170 0.007979
179 0.006015
187 0.005976
192 0.005966
200 0.006966
207 0.005002
214 0.007964
214 0.007575
194 0.006046
165 0.004983
146 0.005984
140 0.006981
148 0.007017
156 0.006964
163 0.006954
166 0.00604
169 0.006965
162 0.005986
162 0.006982
165 0.006983
173 0.005996
181 0.005997
187 0.005986
196 0.005981
201 0.005976
206 0.005978
211 0.005948
218 0.006014
213 0.006013
169 0.005974
154 0.00604
141 0.006976
146 0.006955
153 0.005985
158 0.005985
166 0.005984
168 0.005983
166 0.005984
160 0.005984
162 0.005948
166 0.006948
179 0.005986
188 0.006984
199 0.006004
207 0.007025
211 0.00598
219 0.005952
228 0.005969
233 0.005987
220 0.00602
165 0.005971
134 0.004905
120 0.004993
122 0.005984
127 0.005984
130 0.005957
133 0.005984
135 0.005984
131 0.004987
127 0.004999
126 0.004951
131 0.004987
142 0.004986
152 0.004951
162 0.005984
173 0.005982
182 0.006019
187 0.005954
196 0.005997
208 0.006004
213 0.004985
203 0.004977
166 0.005023
123 0.004959
95 0.005005
93 0.004941
97 0.003962
105 0.004971
108 0.004991
112 0.004994
108 0.004983
105 0.004961
110 0.003993
118 0.003995
132 0.004016
142 0.00399
148 0.004044
154 0.005025
159 0.003987
168 0.004954
172 0.004954
177 0.005042
186 0.004989
196 0.005047
198 0.003958
173 0.003962
130 0.003934
97 0.003992
84 0.003991
90 0.003982
96 0.003997
105 0.004979
108 0.003988
109 0.004987
104 0.004022
100 0.003023
101 0.00396
110 0.003967
120 0.003959
131 0.003983
138 0.003963
149 0.00399
156 0.003019
168 0.003936
175 0.003939
178 0.004038
157 0.00402
115 0.00396
77 0.002993
73 0.001994
80 0.002991
88 0.003001
98 0.002992
111 0.003004
110 0.001962
99 0.004024
98 0.003027
103 0.004023
110 0.003991
120 0.003985
135 0.002989
143 0.00301
150 0.002936
161 0.00295
171 0.002955
170 0.002956
134 0.002
66 0.003034
51 0.003028
49 0.003001
55 0.002988
62 0.002992
70 0.00299
75 0.003012
74 0.002987
68 0.002047
68 0.002992
68 0.001996
80 0.002015
93 0.002956
109 0.002988
119 0.003026
126 0.003029
138 0.001957
149 0.001995
143 0.001968
101 0.001964
57 0.001973
28 0.001962
18 0.001999
22 0.001995
28 0.003024
35 0.002026
39 0.002025
42 0.001955
39 0.002027
38 0.001996
45 0.002034
55 0.000996
66 0.000994
78 0.001995
90 0.001055
107 0.001978
120 0.001999
133 0.001961
146 0.002006
156 0.002006
164 0.000998
155 0.000997
94 0.002991
49 0.001994
25 0.000996
17 0.001996
20 0.000966
25 0.00202
35 0.002034
39 0.00202
38 0.00103
38 0.001033
40 0.002049
46 0.001937
62 0.001062
74 0.001035
84 0.0
98 0.0
109 0.0
122 0.0
138 0.002038
152 0.002034
163 0.002022
173 0.002006
180 0.000954
160 0.001009
92 0.001009
57 0.001016
46 0.0
48 0.0
56 0.0
65 0.000961
79 0.001002
81 0.001992
77 0.001035
74 0.000998
77 0.0
87 0.0
100 0.0
118 0.0
131 0.000999
144 0.001051
154 0.0
163 0.0
179 0.000998
190 0.000997
198 0.000968
175 0.000957
126 0.0
89 0.000998
74 0.001011
80 0.0
91 0.0
100 0.0
110 0.0
118 0.0
108 0.0
104 0.0
107 0.0
118 0.0
133 0.0
144 0.000997
155 0.000995
170 0.000997
178 0.00101
189 0.000991
192 0.002041
174 0.002003
85 0.000993
64 0.0
63 0.002029
70 0.002026
85 0.00096
97 0.0
103 0.001054
106 0.000966
100 0.003987
100 0.00099
105 0.001962
114 0.001
134 0.0
146 0.0
158 0.003007
171 0.002963
183 0.000995
178 0.0
137 0.0
86 0.0
50 0.003026
40 0.00399
45 0.000967
53 0.001
68 0.0
76 0.000996
79 0.0
74 0.00203
73 0.003023
81 0.000993
91 0.001949
105 0.0
120 0.003024
131 0.003031
147 0.002997
160 0.0
168 0.000987
142 0.0
90 0.0
52 0.003992
33 0.002033
35 0.000954
43 0.000956
52 0.000996
61 0.002992
72 0.002026
74 0.001009
72 0.0
80 0.0
91 0.001019
105 0.001018
118 0.003026
132 0.003029
150 0.0
159 0.000998
172 0.0
184 0.003024
190 0.003028
162 0.000955
113 0.0
63 0.0
61 0.000964
67 0.0
78 0.003086
89 0.001987
100 0.000985
103 0.0
100 0.000972
98 0.002994
102 0.003069
117 0.0
132 0.0
149 0.0
158 0.0
169 0.0
179 0.003026
191 0.003029
202 0.0
189 0.0
147 0.0
104 0.0
81 0.002994
79 0.003025
92 0.0
110 0.002987
124 0.0
125 0.0
119 0.002049
113 0.003021
113 0.003042
127 0.001007
138 0.000956
149 0.000944
160 0.003024
170 0.003967
182 0.002025
197 0.004021
204 0.002024
175 0.003
125 0.003005
87 0.003995
71 0.004038
75 0.003007
84 0.002
94 0.003026
105 0.003989
112 0.004989
107 0.002987
105 0.00399
112 0.002996
123 0.000997
136 0.002037
147 0.005016
160 0.004991
173 0.00304
180 0.002
190 0.002985
201 0.004988
201 0.004963
156 0.002988
91 0.003934
67 0.002992
67 0.00299
71 0.003004
77 0.006044
83 0.004949
90 0.002029
91 0.003048
89 0.002995
88 0.004017
91 0.005027
106 0.001972
122 0.003972
141 0.001996
152 0.003021
164 0.003991
173 0.004988
181 0.004989
190 0.004988
200 0.003033
179 0.003024
132 0.003017
82 0.006033
59 0.005977
57 0.004983
67 0.004958
74 0.003007
82 0.003033
89 0.002993
86 0.005986
82 0.005985
86 0.002984
93 0.002971
107 0.002035
121 0.006025
139 0.006018
159 0.005986
169 0.004986
182 0.003005
192 0.003958
199 0.002993
207 0.006023
219 0.005985
234 0.002977
236 0.002961
213 0.002983
154 0.007032
107 0.006983
84 0.006016
89 0.005985
99 0.002988
105 0.00303
111 0.002962
111 0.00695
106 0.006013
99 0.003961
102 0.003958
111 0.003019
124 0.007015
137 0.006017
155 0.006012
164 0.005984
175 0.003946
183 0.004937
191 0.003938
201 0.007026
189 0.006984
126 0.00499
85 0.003029
69 0.00301
70 0.007969
75 0.006982
94 0.006992
108 0.006984
111 0.004976
104 0.004961
103 0.00496
109 0.007977
117 0.007967
132 0.007978
147 0.004977
159 0.004985
171 0.004958
179 0.006983
196 0.003989
206 0.007011
213 0.007975
190 0.00501
135 0.004996
87 0.004951
60 0.007985
61 0.006978
69 0.005988
76 0.00599
81 0.004967
92 0.007969
92 0.004969
91 0.00698
93 0.007985
101 0.004954
115 0.005011
128 0.005051
147 0.007973
155 0.007992
169 0.005994
179 0.004977
193 0.005991
205 0.006981
176 0.004995
126 0.007966
78 0.006971
67 0.00598
69 0.005997
76 0.004945
90 0.005948
99 0.006981
104 0.005952
104 0.006972
102 0.006012
103 0.006987
117 0.004941
137 0.006975
152 0.006983
163 0.006014
175 0.005988
182 0.005992
195 0.006012
205 0.005961
218 0.005976
204 0.005974
155 0.005862
112 0.006011
90 0.005983
96 0.005953
105 0.006951
113 0.006981
123 0.006038
130 0.006945
125 0.007014
117 0.00599
117 0.006039
127 0.005985
138 0.005964
148 0.005985
164 0.005998
175 0.005996
184 0.005952
191 0.005921
200 0.005995
179 0.006
131 0.004991
91 0.006028
73 0.004966
71 0.006951
79 0.006071
95 0.005987
108 0.005987
113 0.005984
107 0.005987
105 0.006014
110 0.006939
122 0.006974
135 0.006026
150 0.004999
159 0.004973
174 0.00491
183 0.00499
192 0.004986
202 0.005987
185 0.004989
137 0.006014
87 0.005863
54 0.006
53 0.006025
58 0.004946
63 0.004957
69 0.004988
79 0.004974
84 0.004985
81 0.006957
81 0.005994
86 0.00495
98 0.005033
114 0.005039
132 0.004978
147 0.005012
159 0.00498
168 0.003965
179 0.003945
191 0.004946
187 0.004971
149 0.005012
73 0.005991
57 0.004952
56 0.003981
58 0.004927
65 0.005008
74 0.003993
79 0.00396
76 0.003951
70 0.003957
68 0.004001
77 0.004987
89 0.004956
109 0.004946
119 0.002991
130 0.003987
140 0.004981
148 0.003991
162 0.003957
171 0.004988
176 0.002955
160 0.003001
112 0.003958
52 0.003989
35 0.00396
43 0.004941
55 0.003959
64 0.003956
74 0.003993
82 0.00403
83 0.002958
83 0.002983
89 0.002958
101 0.004006
114 0.003961
136 0.002955
152 0.003067
171 0.00399
181 0.002962
189 0.002952
198 0.002987
206 0.002959
214 0.002961
211 0.00194
178 0.003004
141 0.002993
126 0.001994
137 0.003979
