143 0.010967
155 0.004986
163 0.005031
168 0.004986
175 0.004987
182 0.004035
186 0.003035
192 0.002995
165 0.003036
74 0.001996
64 0.00304
72 0.002004
79 0.003005
82 0.001995
88 0.001005
98 0.0
100 0.000983
103 0.0
110 0.000982
118 0.000998
128 0.00101
138 0.000998
142 0.002993
150 0.003006
159 0.00399
164 0.004985
173 0.006012
131 0.007046
80 0.007029
50 0.007014
51 0.007011
60 0.007873
61 0.007939
66 0.006023
75 0.005973
83 0.006118
85 0.005984
91 0.006036
102 0.004032
110 0.005002
122 0.004139
128 0.003989
137 0.003981
146 0.004019
153 0.004036
162 0.003028
168 0.004009
177 0.001995
183 0.0
124 0.000998
74 0.002994
52 0.002006
62 0.002898
67 0.004024
72 0.004987
77 0.003989
87 0.004942
90 0.004994
92 0.004987
99 0.004984
108 0.004989
118 0.004959
128 0.004969
133 0.004955
141 0.004981
150 0.004953
155 0.004989
165 0.004957
171 0.004955
178 0.005985
177 0.005984
150 0.005994
63 0.004977
57 0.005945
64 0.005935
76 0.004041
82 0.003989
89 0.002991
97 0.001995
98 0.001994
99 0.002114
110 0.001995
117 0.001994
128 0.000996
136 0.000964
140 0.000999
145 0.000998
152 0.000998
157 0.000999
166 0.001002
171 0.0
181 0.002959
160 0.004954
76 0.005999
57 0.006987
63 0.006973
71 0.007039
80 0.00698
88 0.006987
93 0.006937
95 0.006947
95 0.006982
100 0.006982
112 0.008029
121 0.007978
132 0.007949
140 0.007936
145 0.007983
150 0.006962
155 0.007979
163 0.007012
172 0.006983
178 0.006965
185 0.006981
165 0.00706
79 0.006976
58 0.00701
62 0.006003
74 0.007023
81 0.007978
86 0.007022
92 0.00721
91 0.004988
92 0.006023
100 0.005984
108 0.005984
121 0.004978
128 0.003989
133 0.003023
138 0.001034
143 0.0
148 0.000998
156 0.000997
165 0.000998
171 0.000997
131 0.000998
76 0.002009
46 0.003036
60 0.002992
72 0.002995
89 0.002994
104 0.002993
107 0.002993
106 0.028922
105 0.0
109 0.0
133 0.003996
145 0.003956
152 0.003994
156 0.003989
162 0.004869
169 0.004956
172 0.004959
182 0.004957
173 0.004959
120 0.004958
64 0.004957
60 0.00601
71 0.006977
82 0.006982
88 0.007021
98 0.006981
98 0.007022
97 0.007979
101 0.007959
111 0.007949
122 0.007964
135 0.007979
142 0.006942
148 0.006949
152 0.007792
160 0.006984
167 0.007076
173 0.007023
181 0.006024
146 0.006033
88 0.005984
50 0.006034
50 0.006027
62 0.00503
69 0.004027
75 0.002993
84 0.001
87 0.0
87 0.0
94 0.0
107 0.0
114 0.0
127 0.0
134 0.0
143 0.0
149 0.0
156 0.0
163 0.0
172 0.000998
178 0.001995
180 0.003048
94 0.00402
59 0.006023
52 0.005956
60 0.005016
69 0.005984
76 0.005985
82 0.006032
87 0.006016
88 0.006981
92 0.007973
99 0.006034
113 0.006014
121 0.006026
132 0.006016
137 0.006149
146 0.005986
155 0.005028
161 0.006025
169 0.004996
176 0.005987
186 0.005018
192 0.003022
164 0.002992
74 0.003028
53 0.003035
62 0.00204
73 0.003024
79 0.002027
89 0.002027
93 0.003026
94 0.002042
96 0.002992
106 0.003023
114 0.003027
126 0.002055
132 0.001994
141 0.001995
147 0.00098
152 0.002034
160 0.001003
165 0.001995
175 0.001044
184 0.001038
190 0.001036
163 0.0
78 0.0
48 0.0
48 0.0
58 0.0
71 0.001018
81 0.000998
86 0.000997
86 0.001006
86 0.001996
93 0.002993
106 0.002952
119 0.002953
130 0.003052
141 0.003013
145 0.002973
154 0.003031
165 0.003963
172 0.004022
184 0.004981
175 0.006024
138 0.00701
73 0.00698
59 0.006014
74 0.004022
81 0.0
136 0.003989
147 0.00294
162 0.002992
168 0.002027
177 0.001994
184 0.002038
189 0.002025
197 0.002026
210 0.001
216 0.000998
173 0.000998
106 0.001031
59 0.001047
66 0.001027
74 0.001
82 0.001004
87 0.001055
98 0.001028
100 0.001995
100 0.000998
107 0.001031
115 0.001035
131 0.001031
145 0.00103
152 0.001031
160 0.001032
169 0.0
173 0.000998
182 0.0
189 0.0
200 0.0
208 0.000965
191 0.000999
80 0.00196
43 0.000998
47 0.000997
61 0.001984
66 0.002001
75 0.001996
85 0.002964
87 0.003996
88 0.004987
94 0.005028
107 0.004985
121 0.006024
135 0.007024
142 0.006981
150 0.006996
154 0.007979
163 0.006979
173 0.006015
178 0.006137
187 0.005981
178 0.006015
114 0.005981
43 0.006025
37 0.005025
53 0.00498
63 0.005027
70 0.004022
80 0.004023
80 0.003008
80 0.00203
86 0.002978
97 0.001963
111 0.000989
125 0.0
132 0.0
139 0.0
145 0.0
151 0.0
160 0.0
171 0.0
168 0.0
77 0.0
45 0.0
43 0.0
64 0.0
74 0.0
91 0.003003
97 0.003983
94 0.003986
94 0.004035
101 0.004035
118 0.003977
135 0.005022
145 0.005984
153 0.006028
161 0.004981
167 0.006027
177 0.005984
184 0.006014
126 0.007023
59 0.006924
52 0.007016
63 0.007041
71 0.006969
76 0.006976
88 0.006971
95 0.005983
95 0.005981
100 0.005975
109 0.005971
125 0.006017
134 0.006031
145 0.005986
151 0.006981
158 0.005967
165 0.006981
177 0.005967
173 0.005981
91 0.006038
57 0.005984
48 0.005996
55 0.006032
61 0.005984
70 0.005015
78 0.00599
83 0.004993
86 0.004993
91 0.004988
105 0.003986
121 0.004033
129 0.003034
137 0.002993
142 0.002988
151 0.002991
162 0.002998
165 0.018949
170 0.0
77 0.0
52 0.000998
52 0.0
58 0.000957
65 0.0
76 0.0
84 0.0
89 0.0
91 0.001005
97 0.000998
112 0.001
122 0.001006
135 0.000998
144 0.001992
149 0.002016
157 0.001984
168 0.00298
174 0.002991
183 0.004024
143 0.006019
79 0.007017
62 0.007979
71 0.007978
76 0.00794
82 0.007074
88 0.00794
97 0.006972
98 0.006989
99 0.006941
105 0.00702
115 0.007024
127 0.005951
138 0.006024
142 0.004034
147 0.003974
155 0.003995
161 0.003999
171 0.003999
176 0.00404
125 0.004003
72 0.004125
62 0.00403
74 0.003997
88 0.003022
94 0.003032
106 0.003003
109 0.002993
106 0.002996
115 0.002038
124 0.00204
140 0.002006
148 0.002025
159 0.002027
165 0.001981
168 0.002009
178 0.002002
158 0.001
113 0.0
84 0.0
92 0.0
111 0.0
127 0.0
139 0.0
146 0.0
142 0.002061
145 0.00285
154 0.001957
167 0.001996
179 0.003025
188 0.002997
191 0.002994
196 0.002992
202 0.003989
198 0.00399
125 0.004026
98 0.004027
98 0.004098
107 0.003995
110 0.003973
115 0.003959
121 0.004018
127 0.003953
129 0.003998
131 0.004039
141 0.004027
149 0.004989
154 0.006024
158 0.005984
164 0.007979
168 0.006981
178 0.005023
136 0.004031
91 0.004986
73 0.004038
80 0.005019
90 0.004154
96 0.00404
102 0.001994
110 0.002024
112 0.002992
115 0.002034
123 0.003034
132 0.00205
144 0.003038
154 0.002992
158 0.002992
165 0.002033
170 0.002027
179 0.001995
190 0.001033
169 0.002022
89 0.0
73 0.0
77 0.000998
88 0.001997
98 0.002992
104 0.00399
114 0.005952
113 0.006982
115 0.007025
123 0.006953
132 0.007012
140 0.007015
152 0.00695
157 0.006985
163 0.007011
169 0.00798
176 0.00704
184 0.007978
188 0.007012
112 0.007953
70 0.005975
67 0.005026
73 0.000966
95 0.004002
102 0.005019
112 0.004045
115 0.00095
115 0.0
121 0.0
132 0.0
141 0.0
155 0.0
161 0.0
168 0.0
176 0.001006
181 0.0
189 0.000998
139 0.001996
83 0.003024
74 0.004022
90 0.005043
98 0.005028
111 0.005025
119 0.005022
119 0.004983
114 0.004996
117 0.005028
130 0.005028
138 0.005017
151 0.005019
159 0.004977
162 0.005028
168 0.004986
174 0.004987
181 0.006019
186 0.00599
143 0.005987
61 0.006016
53 0.007967
63 0.007025
84 0.007978
99 0.007979
108 0.007978
107 0.007983
104 0.007973
107 0.004986
118 0.005191
132 0.005023
148 0.004028
160 0.003955
166 0.004034
173 0.004023
177 0.003985
186 0.003043
136 0.001995
83 0.0
60 0.0
73 0.000997
85 0.0
104 0.002993
117 0.002953
117 0.003951
110 0.005834
113 0.005975
124 0.005986
137 0.006026
151 0.005982
158 0.005937
165 0.005987
168 0.005991
175 0.005984
184 0.005982
188 0.005976
119 0.006032
68 0.005984
48 0.005983
62 0.005969
72 0.005984
83 0.006025
89 0.00601
93 0.005979
91 0.007022
90 0.007014
100 0.004987
115 0.004276
130 0.000985
137 0.000998
146 0.0
150 0.001041
157 0.0
166 0.0
170 0.0
182 0.0
132 0.0
69 0.0
35 0.0
41 0.0
53 0.000998
65 0.000998
71 0.000998
79 0.002029
80 0.001995
81 0.001994
91 0.002004
99 0.001995
115 0.002005
126 0.003989
135 0.003964
143 0.003976
150 0.004024
156 0.004029
166 0.005967
175 0.006981
183 0.007028
161 0.00698
91 0.007986
36 0.007983
39 0.006986
50 0.006978
64 0.005974
73 0.006024
81 0.003992
81 0.004988
81 0.004988
83 0.001035
100 0.003997
112 0.002005
126 0.000998
138 0.0
143 0.000998
151 0.0
159 0.0
166 0.0
174 0.0
187 0.000998
189 0.001995
96 0.001965
51 0.000994
39 0.000998
57 0.000951
67 0.000951
79 0.002913
85 0.003049
86 0.00296
85 0.002967
90 0.002944
105 0.002993
119 0.00284
130 0.003977
140 0.005023
146 0.004987
153 0.005002
160 0.004977
167 0.004991
177 0.005027
188 0.004994
194 0.004941
133 0.007978
56 0.007009
35 0.007978
48 0.004003
61 0.004031
72 0.001995
82 0.001017
82 0.001998
79 0.0
83 0.000998
91 0.000997
107 0.000956
122 0.0
129 0.000998
137 0.000967
143 0.00097
150 0.0
158 0.0
165 0.0
177 0.0
179 0.0
119 0.0
36 0.0
28 0.0
45 0.0
66 0.0
75 0.0
88 0.0
86 0.0
82 0.0
93 0.000988
106 0.000983
127 0.003002
140 0.002952
149 0.002961
156 0.002997
163 0.00295
170 0.002993
183 0.005029
182 0.004995
93 0.005029
46 0.005001
49 0.006981
66 0.006982
83 0.007074
96 0.007976
102 0.007952
98 0.006981
95 0.00598
107 0.004008
118 0.003026
137 0.002991
148 0.001039
157 0.0
160 0.0
168 0.0
175 0.0
187 0.000998
195 0.0
163 0.0
61 0.000997
37 0.000998
40 0.000987
53 0.001012
56 0.001021
67 0.001
75 0.001983
75 0.002993
80 0.002993
87 0.002991
105 0.002958
121 0.003023
128 0.002964
138 0.002991
145 0.003978
153 0.00399
163 0.004031
173 0.004032
183 0.003984
150 0.005028
84 0.006023
32 0.005984
37 0.005959
44 0.006015
51 0.006026
58 0.006015
69 0.005993
72 0.007945
73 0.005987
83 0.006025
101 0.005981
113 0.005992
127 0.004977
136 0.004022
145 0.002026
153 0.003001
161 0.001976
172 0.002992
183 0.002991
191 0.002982
199 0.003031
109 0.000994
59 0.002035
40 0.001012
48 0.0
59 0.0
66 0.0
72 0.000991
81 0.000998
82 0.002024
86 0.00289
100 0.002991
120 0.002991
129 0.002991
140 0.002995
145 0.003953
152 0.00399
159 0.003941
168 0.003995
179 0.004028
188 0.00399
198 0.00402
155 0.003977
86 0.003973
35 0.004001
42 0.00503
54 0.006017
64 0.006022
72 0.006015
80 0.006023
79 0.007013
80 0.006974
91 0.005964
110 0.006009
120 0.006014
136 0.005
142 0.006016
148 0.004986
154 0.005995
162 0.004991
174 0.00598
188 0.005984
194 0.005989
127 0.005984
70 0.006025
46 0.005984
65 0.004994
79 0.004984
93 0.005029
107 0.004974
106 0.003995
103 0.003999
109 0.003987
129 0.004031
150 0.002999
159 0.001982
170 0.002038
175 0.00204
183 0.002006
191 0.003038
199 0.002009
212 0.002027
190 0.000991
120 0.002008
54 0.000999
50 0.001995
65 0.000998
75 0.000997
80 0.000989
91 0.001073
94 0.000999
94 0.0
106 0.000998
118 0.000998
138 0.0
147 0.0
159 0.0
165 0.001038
171 0.000998
181 0.00101
194 0.0
202 0.0
214 0.0
190 0.0
80 0.000997
47 0.000999
54 0.003025
67 0.00399
75 0.003028
80 0.003001
92 0.004025
95 0.00302
98 0.003002
110 0.003991
119 0.002998
138 0.004053
151 0.00402
157 0.004035
166 0.003992
172 0.003992
182 0.003989
192 0.004013
199 0.00399
211 0.004021
200 0.00403
87 0.003962
45 0.003991
44 0.003995
60 0.003849
69 0.004019
78 0.00399
88 0.004099
89 0.005037
89 0.005846
99 0.005973
109 0.005885
127 0.005992
136 0.006933
147 0.006949
154 0.006981
159 0.006976
170 0.007076
178 0.007944
191 0.00695
176 0.00795
112 0.006979
54 0.007946
58 0.006169
72 0.006036
93 0.003989
111 0.002033
116 0.004022
112 0.002022
113 0.001004
122 0.00103
141 0.000999
153 0.0
169 0.001045
178 0.0
179 0.0
186 0.000998
198 0.001005
204 0.000972
216 0.001004
167 0.001995
96 0.002993
52 0.002993
58 0.004036
70 0.004974
79 0.007022
89 0.006857
94 0.006969
95 0.007028
95 0.007979
102 0.007978
119 0.007021
133 0.007978
144 0.006963
151 0.006988
159 0.005971
168 0.007031
174 0.006995
185 0.006018
192 0.005983
202 0.006074
144 0.006982
64 0.004974
39 0.005033
51 0.004987
61 0.003989
70 0.002027
82 0.0
87 0.0
88 0.0
93 0.0
100 0.0
118 0.0
128 0.0
142 0.000998
152 0.001994
157 0.003036
165 0.003047
176 0.002988
183 0.002994
196 0.003012
192 0.003902
129 0.005029
46 0.004983
39 0.007013
48 0.007027
63 0.007025
72 0.006981
81 0.006036
87 0.005034
85 0.005026
87 0.002997
100 0.000953
114 0.0
124 0.0
136 0.002028
144 0.003049
148 0.002993
156 0.002998
163 0.002993
176 0.00295
184 0.003024
139 0.003039
50 0.003056
39 0.003043
56 0.003029
75 0.004984
90 0.004976
105 0.004993
104 0.006981
100 0.007019
105 0.006974
123 0.007011
135 0.007022
153 0.006971
160 0.006989
169 0.006979
176 0.00698
184 0.00698
192 0.006992
199 0.006994
132 0.006978
57 0.005983
51 0.005994
67 0.005997
80 0.006982
91 0.005984
102 0.006984
104 0.004997
102 0.006028
107 0.005985
116 0.006019
135 0.005019
151 0.003994
157 0.004988
166 0.004031
171 0.004989
179 0.004032
191 0.004021
200 0.00298
174 0.001931
71 0.002037
45 0.001994
48 0.002043
57 0.002055
68 0.002034
76 0.003036
82 0.003037
87 0.002029
88 0.003023
95 0.001995
111 0.000998
122 0.003036
137 0.00103
144 0.002029
154 0.001011
162 0.001005
167 0.000995
178 0.0
189 0.0
197 0.0
166 0.0
95 0.0
38 0.001981
44 0.001995
56 0.001992
66 0.003029
78 0.002979
83 0.003031
85 0.002932
86 0.003043
96 0.002992
110 0.003025
124 0.003026
136 0.002962
148 0.003975
154 0.003981
162 0.004025
168 0.004021
180 0.003992
192 0.004025
201 0.00399
187 0.003981
117 0.003982
46 0.003998
48 0.004021
59 0.004025
72 0.003987
84 0.005029
90 0.006015
91 0.007025
91 0.006976
97 0.005989
111 0.007005
125 0.005978
139 0.007175
151 0.006029
156 0.006978
163 0.005989
169 0.00698
179 0.005978
191 0.006016
200 0.006017
210 0.006016
125 0.004986
68 0.004987
42 0.002026
55 0.001991
71 0.0
82 0.001038
95 0.001008
95 0.000997
92 0.000998
94 0.0
108 0.000997
124 0.001017
138 0.001016
147 0.000997
157 0.000995
162 0.003004
170 0.004026
180 0.007034
184 0.007966
195 0.006985
206 0.006982
179 0.006976
64 0.005977
36 0.005974
39 0.005983
63 0.006029
73 0.006027
88 0.005979
91 0.006985
84 0.004995
86 0.006981
97 0.005019
112 0.005978
132 0.005984
141 0.006024
152 0.005984
156 0.005984
164 0.005983
176 0.004977
183 0.00602
198 0.004997
183 0.00399
76 0.005025
41 0.004988
48 0.003958
76 0.005037
94 0.005969
111 0.003004
110 0.002997
103 0.001997
102 0.002992
118 0.002997
132 0.002988
153 0.002992
167 0.001995
173 0.002993
179 0.001991
184 0.002998
193 0.002033
206 0.001007
213 0.001005
128 0.000986
62 0.001
30 0.000997
46 0.001093
58 0.00099
67 0.0
79 0.0
82 0.0
79 0.000998
84 0.001989
94 0.001981
114 0.001995
124 0.001996
138 0.002857
147 0.002959
153 0.001994
160 0.001996
170 0.002993
179 0.00294
192 0.002994
162 0.002992
51 0.00502
19 0.004987
26 0.00502
45 0.005015
51 0.005021
63 0.005023
70 0.005019
68 0.005873
73 0.006982
86 0.007009
97 0.006961
116 0.006981
129 0.007015
138 0.00702
146 0.007013
150 0.007935
162 0.007979
174 0.007005
182 0.007938
196 0.007015
186 0.007974
76 0.006019
33 0.007012
37 0.007013
56 0.007011
63 0.007019
74 0.006989
83 0.007011
82 0.007023
83 0.004991
92 0.005984
106 0.004993
119 0.005963
130 0.003991
137 0.003982
144 0.00403
149 0.003989
158 0.003995
169 0.002034
175 0.001995
186 0.0
182 0.0
120 0.0
45 0.0
41 0.0
61 0.000995
78 0.001959
86 0.003064
99 0.002972
98 0.002996
99 0.002991
110 0.003056
120 0.003035
139 0.002992
150 0.002993
159 0.003001
164 0.005026
170 0.00503
176 0.005027
185 0.006016
197 0.006979
187 0.007972
109 0.004981
60 0.002991
64 0.00297
84 0.002993
91 0.001988
103 0.00199
111 0.0
109 0.0
109 0.001995
116 0.00303
131 0.00399
141 0.004989
153 0.006029
160 0.006022
166 0.006031
171 0.007969
177 0.006982
182 0.006017
192 0.004019
202 0.001997
208 0.002024
161 0.0
66 0.0
52 0.000998
65 0.001995
79 0.001996
83 0.002075
91 0.002007
97 0.004029
97 0.004023
99 0.003994
106 0.003992
121 0.004078
134 0.003991
141 0.00405
149 0.004023
153 0.005021
162 0.005025
168 0.005039
176 0.005027
183 0.005026
195 0.007017
196 0.007066
101 0.006985
59 0.006968
51 0.006984
65 0.005983
76 0.005988
84 0.006023
94 0.004985
97 0.004035
96 0.00403
100 0.004986
110 0.004029
123 0.005009
135 0.003996
144 0.005026
152 0.005032
156 0.004987
164 0.002989
173 0.002038
178 0.002993
189 0.000962
196 0.003028
193 0.002026
89 0.0
54 0.0
53 0.001
78 0.0
86 0.0
96 0.000965
100 0.0
99 0.0
96 0.000998
98 0.002029
111 0.000997
126 0.002037
133 0.001995
142 0.002028
146 0.002043
153 0.001995
158 0.001848
166 0.002032
175 0.00204
184 0.001995
195 0.001995
153 0.001995
80 0.002998
37 0.002961
52 0.004024
67 0.004989
83 0.004983
92 0.005036
98 0.003992
93 0.00502
94 0.004037
106 0.004983
116 0.004992
134 0.005992
146 0.006976
153 0.007025
158 0.005018
166 0.005036
176 0.002994
184 0.003018
169 0.001995
109 0.003026
55 0.000989
65 0.001022
79 0.0
97 0.0
109 0.0
113 0.0
108 0.001996
108 0.001995
114 0.002993
133 0.003055
143 0.002955
155 0.002993
162 0.002981
164 0.003032
172 0.003002
178 0.004026
185 0.00402
195 0.004031
183 0.003973
94 0.004023
43 0.004979
45 0.006942
62 0.007027
71 0.007051
75 0.007962
83 0.006019
85 0.004994
84 0.006027
90 0.004988
98 0.004988
114 0.005136
125 0.005022
135 0.002991
141 0.004029
148 0.004987
153 0.005026
163 0.00502
169 0.005019
180 0.004027
139 0.002999
75 0.005038
33 0.002977
38 0.003989
56 0.000989
64 0.00196
71 0.000955
79 0.0
79 0.0
81 0.0
88 0.0
101 0.000991
111 0.001007
121 0.003025
131 0.004986
136 0.00599
144 0.006975
152 0.006988
158 0.00706
167 0.007039
159 0.007025
99 0.007014
34 0.007026
32 0.007014
48 0.007011
62 0.004983
67 0.005017
77 0.004004
77 0.003986
77 0.003988
86 0.003986
96 0.002996
113 0.001999
125 0.001996
132 0.0
137 0.000997
145 0.00203
156 0.003007
165 0.003983
131 0.004028
79 0.004034
48 0.003947
62 0.003949
76 0.004002
92 0.003991
101 0.004004
107 0.00391
102 0.004028
103 0.004023
117 0.003992
136 0.004027
146 0.004023
157 0.004991
161 0.004996
167 0.004985
176 0.005021
182 0.00502
174 0.004961
118 0.004992
58 0.005048
59 0.004995
73 0.004993
81 0.004986
90 0.006984
97 0.007004
100 0.00697
100 0.006975
103 0.007979
115 0.006983
125 0.006012
140 0.00499
149 0.005023
154 0.004019
162 0.003023
170 0.003021
177 0.000999
168 0.002022
94 0.001993
53 0.0
54 0.002035
65 0.0
71 0.00103
79 0.0
88 0.0
93 0.001995
94 0.001992
99 0.001988
110 0.002026
122 0.002036
134 0.001966
144 0.001998
149 0.001998
157 0.001995
161 0.002004
170 0.002983
179 0.004023
147 0.004022
57 0.004979
42 0.005033
49 0.004835
65 0.004978
70 0.004984
82 0.004991
88 0.004987
86 0.005017
88 0.004983
101 0.005018
111 0.005021
127 0.005986
134 0.006986
142 0.007017
150 0.006977
154 0.007001
163 0.005955
176 0.004987
151 0.003983
64 0.003994
49 0.003988
60 0.003991
81 0.003988
91 0.00398
105 0.004075
107 0.004986
104 0.002986
107 0.005028
118 0.003033
135 0.004977
151 0.002992
158 0.001989
167 0.001997
175 0.001996
180 0.00196
191 0.000968
194 0.002034
110 0.000984
57 0.002027
58 0.001994
76 0.000985
89 0.001043
96 0.001031
107 0.0
109 0.0
108 0.0
117 0.000997
127 0.0
144 0.000835
156 0.000998
164 0.000993
172 0.002
177 0.003005
184 0.002995
195 0.003025
204 0.003022
173 0.003025
72 0.002992
53 0.003027
61 0.00299
72 0.002991
82 0.003991
94 0.00402
99 0.003042
99 0.005017
100 0.00499
111 0.00503
128 0.004903
140 0.004989
154 0.004988
163 0.003995
170 0.00499
177 0.005028
186 0.004998
196 0.005021
193 0.005023
129 0.00499
48 0.00602
43 0.006967
54 0.007937
73 0.006964
83 0.007966
92 0.006984
96 0.006981
95 0.006984
101 0.006988
109 0.00599
128 0.007013
146 0.00598
155 0.005986
165 0.006
170 0.005987
179 0.005982
188 0.00697
196 0.006985
162 0.005023
54 0.003994
35 0.004981
48 0.003981
64 0.004987
86 0.004111
104 0.003996
104 0.003991
96 0.003992
103 0.001991
115 0.001997
139 0.002037
155 0.002007
168 0.000999
179 0.0
190 0.0
197 0.0
198 0.001002
137 0.001003
53 0.001005
49 0.001043
70 0.000988
93 0.00099
113 0.000998
126 0.000997
120 0.001019
115 0.001
125 0.000999
139 0.000998
164 0.00196
182 0.000998
189 0.001961
199 0.002991
209 0.003992
216 0.003976
168 0.003997
90 0.004036
38 0.00402
49 0.004029
63 0.00392
79 0.002995
91 0.003991
97 0.006029
96 0.007973
97 0.005973
104 0.005987
124 0.005989
144 0.004005
155 0.004987
168 0.00398
174 0.005
185 0.003995
197 0.004075
165 0.003936
52 0.004005
28 0.003993
36 0.000983
54 0.002026
70 0.000959
80 0.001996
89 0.0
87 0.001051
89 0.000964
100 0.002033
118 0.002015
136 0.002026
153 0.004022
161 0.002993
173 0.00399
180 0.004039
195 0.004023
175 0.005025
98 0.006034
30 0.00602
34 0.006023
49 0.005984
70 0.006021
81 0.005873
89 0.006979
86 0.005984
87 0.006025
99 0.003989
116 0.005999
134 0.003986
149 0.006025
161 0.00599
167 0.004991
176 0.004987
182 0.004991
195 0.004023
187 0.00299
114 0.005029
30 0.003036
29 0.002993
42 0.003
63 0.003005
75 0.002954
83 0.002991
77 0.002981
76 0.003006
89 0.003
106 0.001972
119 0.001989
137 0.000999
146 0.001996
153 0.002038
160 0.002036
169 0.001996
181 0.002033
171 0.002002
98 0.002022
25 0.002006
29 0.004029
46 0.00503
72 0.004041
88 0.003995
94 0.004017
84 0.005027
86 0.005026
105 0.004989
131 0.005986
145 0.006995
158 0.006969
167 0.006981
174 0.005029
183 0.005033
193 0.004031
152 0.00403
54 0.004035
35 0.004027
49 0.00303
74 0.002019
86 0.004029
104 0.000998
103 0.002995
95 0.001991
106 0.001948
119 0.001993
144 0.002005
163 0.0
169 0.000986
177 0.001981
183 0.000977
195 0.001027
205 0.002049
144 0.000979
51 0.001995
21 0.0
28 0.0
49 0.0
56 0.001996
68 0.002051
78 0.001997
77 0.003001
82 0.004019
100 0.003992
115 0.003992
137 0.005964
152 0.006992
156 0.005966
168 0.005984
181 0.00399
190 0.004022
197 0.005019
114 0.005022
42 0.003988
27 0.004024
47 0.001995
58 0.001996
72 0.002032
81 0.001997
88 0.001028
86 0.0
91 0.002043
109 0.0
127 0.0
140 0.000845
153 0.00303
163 0.003951
169 0.004999
180 0.005038
193 0.005978
202 0.005969
162 0.005973
83 0.005839
29 0.005978
42 0.005984
56 0.006945
71 0.006984
84 0.007014
90 0.005982
86 0.007023
86 0.005978
96 0.007014
117 0.00702
131 0.007024
147 0.007014
154 0.007007
164 0.007013
174 0.005004
183 0.00499
183 0.004988
84 0.005012
51 0.004991
56 0.004958
71 0.004944
94 0.004988
111 0.006019
116 0.004933
110 0.005985
109 0.005014
119 0.006035
142 0.006
155 0.005989
171 0.004034
181 0.001995
185 0.00399
194 0.000997
201 0.002993
200 0.0
93 0.0
53 0.0
50 0.0
68 0.000968
72 0.000998
82 0.000998
93 0.001015
94 0.001954
93 0.00301
104 0.003997
115 0.004985
134 0.004989
143 0.004986
155 0.004977
161 0.00499
167 0.004987
176 0.004984
188 0.005986
193 0.005979
100 0.006016
49 0.006024
34 0.007987
48 0.004991
57 0.00602
66 0.002986
78 0.002037
82 0.001986
82 0.001997
91 0.002006
101 0.001989
117 0.00399
132 0.002005
144 0.00312
154 0.001033
159 0.001032
168 0.002054
181 0.000966
190 0.000998
191 0.0
130 0.002031
42 0.0
40 0.0
52 0.0
68 0.0
80 0.0
87 0.0
88 0.000984
87 0.001874
92 0.001995
108 0.002027
119 0.001997
134 0.001955
147 0.002956
151 0.001956
158 0.001996
164 0.001992
176 0.002993
187 0.002999
185 0.002819
99 0.002959
36 0.002959
29 0.004971
51 0.005984
63 0.005982
79 0.005988
87 0.006014
84 0.005979
83 0.006015
97 0.006978
105 0.005975
126 0.005983
137 0.00599
151 0.005968
161 0.006006
166 0.005989
178 0.004998
190 0.006019
163 0.004986
78 0.004024
47 0.002997
58 0.003991
83 0.003169
95 0.004022
114 0.000997
115 0.000999
109 0.000997
114 0.001998
124 0.00099
145 0.0
164 0.0
172 0.0
181 0.000992
188 0.001028
195 0.000973
206 0.0
209 0.001004
148 0.000998
52 0.002961
43 0.003982
57 0.003956
73 0.00399
83 0.003997
93 0.00399
97 0.004986
95 0.007007
101 0.007015
117 0.006976
130 0.007014
148 0.006978
157 0.006979
168 0.006958
178 0.00697
182 0.006979
194 0.006972
203 0.006982
112 0.006977
35 0.006978
30 0.006979
47 0.00699
64 0.007938
76 0.006981
88 0.00598
93 0.004988
91 0.003983
99 0.003989
108 0.004024
128 0.003989
147 0.001994
156 0.003989
168 0.002142
177 0.001995
183 0.0
194 0.0
206 0.001997
182 0.001015
57 0.002029
23 0.003807
32 0.00495
56 0.00698
66 0.007942
81 0.005985
87 0.006983
80 0.005978
79 0.004979
92 0.003991
113 0.001995
126 0.003989
143 0.002004
151 0.003994
161 0.002003
169 0.0
184 0.000999
187 0.000998
91 0.000999
44 0.001
36 0.000998
63 0.001012
78 0.001008
101 0.000999
107 0.001006
98 0.001996
97 0.003954
107 0.004043
130 0.003981
149 0.003989
162 0.003981
172 0.004021
179 0.003992
186 0.003957
199 0.004024
201 0.004045
98 0.005019
36 0.005023
38 0.005021
61 0.006982
75 0.005984
84 0.004986
100 0.004986
101 0.004989
98 0.003992
106 0.00399
119 0.002996
137 0.003995
155 0.003995
162 0.003994
171 0.003995
176 0.003997
188 0.003991
203 0.002008
184 0.003994
74 0.00198
48 0.001988
57 0.001997
77 0.002
84 0.002003
97 0.0
103 0.000966
103 0.00099
105 0.0
118 0.001023
128 0.000998
145 0.001
158 0.002017
165 0.002814
173 0.002998
180 0.005041
188 0.006975
198 0.006982
164 0.007051
93 0.008016
50 0.007931
51 0.007948
72 0.007938
89 0.005976
98 0.007948
108 0.005979
104 0.00797
105 0.005989
116 0.005988
127 0.005986
146 0.00499
160 0.003989
167 0.00399
175 0.002004
182 0.002989
192 0.001993
204 0.002998
191 0.003041
92 0.00196
67 0.0
78 0.001031
100 0.000986
118 0.000869
129 0.000999
132 0.002995
125 0.002994
129 0.002994
144 0.002029
155 0.003026
173 0.003035
183 0.002994
188 0.004985
195 0.006034
204 0.005995
211 0.006959
213 0.005971
136 0.006025
76 0.004004
73 0.005984
91 0.005968
100 0.005987
109 0.00503
117 0.006025
120 0.00621
119 0.002968
123 0.006031
138 0.002997
155 0.002996
163 0.002009
172 0.001997
177 0.0
185 0.0
195 0.0
203 0.0
187 0.001033
106 0.000998
70 0.0
74 0.002022
88 0.0
99 0.002034
110 0.00203
117 0.001994
119 0.00399
118 0.006028
124 0.006025
136 0.006017
153 0.005937
161 0.00589
169 0.007013
177 0.005983
182 0.005984
191 0.005992
197 0.005983
208 0.005996
170 0.005981
103 0.005022
62 0.006004
72 0.007025
86 0.003986
94 0.006021
104 0.003038
109 0.004994
107 0.005032
107 0.005028
116 0.004038
131 0.002006
141 0.004031
155 0.002035
159 0.004031
167 0.001993
193 0.002006
208 0.001996
229 0.002002
204 0.001982
107 0.001988
81 0.001014
89 0.001009
102 0.00095
109 0.003037
119 0.0
116 0.0
112 0.001997
117 0.001985
134 0.001999
150 0.002992
164 0.004018
173 0.004024
179 0.003962
186 0.004027
197 0.00399
204 0.003955
141 0.00495
69 0.005941
65 0.007005
84 0.006983
96 0.006995
110 0.006983
122 0.006972
120 0.006971
114 0.006995
118 0.006989
128 0.006002
148 0.007978
157 0.005991
166 0.007979
175 0.007968
179 0.007976
187 0.007021
197 0.005989
161 0.005046
65 0.003028
50 0.005023
62 0.003974
80 0.002991
87 0.001994
98 0.001962
100 0.002011
99 0.002004
105 0.000966
117 0.003011
132 0.000968
146 0.002024
153 0.0
163 0.002998
173 0.003986
181 0.004033
158 0.003985
79 0.00402
48 0.004981
56 0.005984
77 0.005992
86 0.005991
100 0.005983
103 0.006978
101 0.007978
102 0.005988
114 0.007976
129 0.005988
146 0.005024
154 0.00502
165 0.00599
174 0.003991
180 0.002942
167 0.004987
88 0.003005
48 0.00404
56 0.004024
70 0.004022
88 0.002025
100 0.0
102 0.0
96 0.0
98 0.000998
106 0.003027
123 0.003959
139 0.004983
146 0.005984
155 0.004984
164 0.006004
170 0.006983
163 0.006973
71 0.006009
45 0.006982
57 0.003993
81 0.006021
98 0.003986
114 0.006025
115 0.003995
107 0.006017
110 0.007018
120 0.00602
142 0.006019
153 0.005023
170 0.003989
177 0.00399
182 0.00399
188 0.002028
121 0.0
80 0.0
72 0.0
89 0.0
101 0.0
115 0.0
123 0.0
123 0.002031
120 0.001976
125 0.001997
140 0.002026
157 0.002946
164 0.003991
172 0.004998
178 0.004986
182 0.005983
189 0.007981
138 0.004988
84 0.006019
62 0.002007
79 0.001966
87 0.001993
97 0.0
107 0.0
108 0.0
106 0.0
111 0.0
122 0.0
133 0.002029
145 0.0
153 0.000997
161 0.0
167 0.0
176 0.0
178 0.001991
113 0.003954
59 0.003986
60 0.005987
72 0.005984
87 0.007005
96 0.005
103 0.007015
105 0.003982
105 0.001996
109 0.001998
122 0.001997
136 0.001012
143 0.000993
149 0.000995
156 0.001
160 0.001002
168 0.001996
174 0.001995
155 0.001993
60 0.001995
42 0.001995
55 0.002018
72 0.001954
82 0.002993
91 0.002994
95 0.00399
90 0.004987
93 0.006981
101 0.006932
113 0.006988
130 0.004984
137 0.005983
147 0.004995
156 0.005966
161 0.004986
173 0.004981
150 0.004984
67 0.004988
55 0.006971
71 0.004986
92 0.004022
113 0.003975
121 0.001997
117 0.001996
112 0.0
119 0.001995
138 0.00101
152 0.001974
169 0.0
177 0.0
179 0.0
185 0.0
196 0.0
198 0.0
110 0.0
61 0.002999
65 0.002962
85 0.003987
92 0.003984
106 0.003954
113 0.004987
112 0.005986
111 0.005016
118 0.006015
131 0.005984
145 0.006017
154 0.005985
161 0.005981
170 0.007015
175 0.006006
187 0.007017
182 0.006978
103 0.00702
51 0.006982
54 0.007024
69 0.006978
82 0.006941
88 0.006939
98 0.003988
99 0.005984
97 0.003986
103 0.005989
113 0.00399
128 0.005986
147 0.005984
157 0.005983
168 0.005985
175 0.005981
187 0.005982
192 0.002989
142 0.002985
58 0.001994
57 0.001995
69 0.0
87 0.0
99 0.0
104 0.0
101 0.001012
97 0.000991
103 0.001992
119 0.002989
138 0.00299
148 0.002952
161 0.002992
167 0.004986
175 0.006977
186 0.007014
175 0.004979
115 0.00399
59 0.003992
72 0.000996
88 0.003018
111 0.002
123 0.003024
127 0.001995
117 0.001995
118 0.001996
133 0.002021
153 0.0
161 0.0
174 0.0
181 0.002042
186 0.001919
193 0.001992
200 0.001998
159 0.002
73 0.001995
49 0.002022
60 0.003022
83 0.003989
91 0.003989
106 0.004027
111 0.003902
107 0.003989
110 0.005025
117 0.00502
136 0.006946
154 0.00698
159 0.006979
169 0.005957
173 0.006981
182 0.00597
193 0.003991
177 0.00399
73 0.003998
49 0.005984
60 0.00296
77 0.003989
92 0.00399
100 0.003989
106 0.004157
105 0.003034
105 0.003987
116 0.000966
126 0.002028
144 0.0
154 0.000995
160 0.000993
167 0.0
175 0.000997
181 0.002026
183 0.001995
76 0.004042
39 0.004004
40 0.005983
66 0.005947
77 0.005966
90 0.005981
97 0.006981
93 0.004005
90 0.003984
100 0.004131
111 0.004021
133 0.001986
143 0.004022
156 0.001993
164 0.001994
169 0.002002
182 0.001996
166 0.0
100 0.0
51 0.000965
56 0.0
84 0.0
105 0.0
118 0.001046
124 0.001995
116 0.001019
113 0.001997
126 0.0
138 0.001
159 0.001982
170 0.003045
178 0.004041
182 0.004034
189 0.004024
196 0.003956
180 0.004026
110 0.004035
53 0.005024
64 0.005009
76 0.005017
92 0.004988
105 0.005031
108 0.004945
103 0.004987
103 0.004881
115 0.004987
133 0.005985
143 0.005944
156 0.005984
161 0.005975
171 0.005985
178 0.00598
188 0.005943
169 0.00602
85 0.005972
50 0.008009
57 0.007949
70 0.006989
87 0.006024
100 0.002085
105 0.0
102 0.000962
103 0.0
114 0.0
124 0.000997
142 0.001005
150 0.001034
161 0.001036
170 0.002047
176 0.003024
187 0.003026
190 0.00502
122 0.005019
66 0.006021
61 0.007979
72 0.007131
92 0.005018
106 0.003978
113 0.006017
113 0.00299
111 0.003031
116 0.003992
132 0.003978
143 0.003974
157 0.002
168 0.003986
173 0.002948
180 0.003991
186 0.002944
196 0.002021
207 0.004035
189 0.001981
95 0.004026
56 0.003025
64 0.002044
90 0.002032
101 0.00203
115 0.001996
114 0.0
108 0.002046
110 0.001024
122 0.001948
134 0.002992
150 0.002993
163 0.004001
169 0.003992
178 0.002948
186 0.004956
193 0.004987
193 0.004944
139 0.005995
71 0.005949
72 0.006988
86 0.005955
112 0.007984
133 0.00799
138 0.007978
127 0.007953
124 0.007954
132 0.007963
149 0.005982
162 0.007938
179 0.005984
188 0.00784
194 0.005993
201 0.005993
207 0.005989
210 0.005989
109 0.005987
70 0.005985
65 0.005885
78 0.004989
98 0.004026
111 0.005028
120 0.002995
119 0.005021
118 0.004031
123 0.002963
139 0.002988
156 0.000998
165 0.002965
178 0.0
182 0.002027
190 0.0
200 0.001003
204 0.0
143 0.0
60 0.000998
51 0.001996
66 0.001995
77 0.001996
89 0.001999
101 0.002993
102 0.003982
100 0.003987
108 0.003991
119 0.003951
135 0.006951
148 0.002991
162 0.003991
170 0.005988
175 0.006981
184 0.007983
193 0.004986
194 0.007014
97 0.004991
37 0.004994
38 0.004999
58 0.004985
70 0.004946
85 0.004978
92 0.003985
89 0.004015
87 0.00299
98 0.004988
112 0.002998
129 0.005019
143 0.003019
153 0.004023
162 0.004988
167 0.005011
178 0.004029
187 0.004026
151 0.004023
52 0.001999
37 0.002033
57 0.0
82 0.0
96 0.0
111 0.001012
105 0.0
102 0.0
108 0.000999
129 0.000997
143 0.002035
161 0.002
170 0.001864
179 0.001964
188 0.001963
195 0.001976
176 0.001993
93 0.004026
54 0.00598
59 0.005979
78 0.005987
94 0.006006
113 0.006025
116 0.006021
109 0.005977
109 0.006962
116 0.006963
140 0.006997
153 0.006976
165 0.006978
177 0.006981
182 0.006985
188 0.006957
194 0.00697
198 0.006982
98 0.007014
53 0.006941
43 0.006964
54 0.005982
67 0.007981
79 0.007964
85 0.007971
88 0.007978
87 0.006949
95 0.007798
109 0.005981
120 0.007975
138 0.005983
151 0.005993
158 0.005974
167 0.004989
177 0.003989
184 0.003006
164 0.001963
95 0.001991
32 0.001991
34 0.002045
48 0.000991
59 0.002034
73 0.001995
80 0.002025
82 0.0
83 0.001996
92 0.001995
107 0.001994
128 0.00203
139 0.001994
150 0.00199
154 0.00196
164 0.001956
177 0.002036
184 0.002993
178 0.003036
110 0.002999
31 0.003027
31 0.003003
43 0.003009
60 0.002995
69 0.003008
81 0.003034
78 0.003012
77 0.002995
84 0.003027
103 0.003022
116 0.002962
134 0.00297
142 0.003011
151 0.00497
159 0.005997
165 0.006979
178 0.004928
148 0.004024
78 0.004002
27 0.003942
42 0.00199
59 0.001036
85 0.001987
102 0.002992
98 0.000998
87 0.0
91 0.001995
102 0.000997
128 0.001995
147 0.003989
160 0.00399
169 0.003985
179 0.005023
186 0.006014
162 0.005986
91 0.006016
34 0.006021
48 0.004986
67 0.004984
98 0.005882
123 0.006011
119 0.00598
102 0.006986
98 0.006989
113 0.004983
136 0.005028
156 0.003025
172 0.004992
184 0.005021
190 0.005099
193 0.004985
82 0.001996
37 0.003022
32 0.001995
49 0.003027
79 0.002009
112 0.001976
121 0.001042
109 0.001993
99 0.0
104 0.0
128 0.0
144 0.0
163 0.0
178 0.001996
186 0.001995
172 0.001996
59 0.002009
26 0.001996
31 0.001963
45 0.001959
65 0.003006
82 0.004024
95 0.004032
94 0.003964
90 0.004023
97 0.006016
121 0.007014
147 0.006964
158 0.007015
168 0.006984
176 0.007012
146 0.00697
38 0.00698
18 0.006977
18 0.006938
30 0.005986
35 0.00402
50 0.002963
65 0.004994
72 0.001997
74 0.001994
86 0.00203
99 0.0
120 0.001983
135 0.002025
146 0.001996
162 0.002036
170 0.002037
106 0.001964
28 0.002033
20 0.002845
33 0.004018
43 0.004025
50 0.004023
70 0.004988
80 0.005022
81 0.004957
90 0.006951
100 0.006976
117 0.006989
140 0.007974
151 0.005979
165 0.007962
176 0.00796
183 0.006978
195 0.005984
123 0.002953
61 0.004984
35 0.002991
44 0.004989
60 0.003004
72 0.003004
82 0.002041
94 0.003002
95 0.002999
102 0.00299
118 0.002992
128 0.00299
147 0.002992
156 0.002991
168 0.002001
177 0.005019
185 0.002054
192 0.00398
205 0.002992
211 0.001997
118 0.001996
60 0.0
56 0.001989
72 0.001001
89 0.002991
96 0.003992
109 0.005025
111 0.006945
111 0.007017
118 0.004982
134 0.004988
145 0.005003
162 0.004988
169 0.005
179 0.00499
186 0.003989
196 0.002002
202 0.003986
123 0.00406
78 0.003979
71 0.004022
96 0.0
108 0.002017
129 0.0
136 0.002042
134 0.000966
128 0.001007
132 0.000999
147 0.000997
166 0.000859
176 0.001059
189 0.000998
194 0.000997
204 0.001006
213 0.002042
190 0.000998
91 0.000965
74 0.002027
88 0.000966
118 0.0
134 0.000997
153 0.000968
145 0.000997
134 0.003991
136 0.004988
152 0.006023
165 0.005987
185 0.006017
197 0.005972
202 0.007979
210 0.005032
215 0.007978
225 0.005974
162 0.004965
94 0.003997
68 0.005974
95 0.003035
117 0.003025
149 0.00302
159 0.003002
151 0.002993
133 0.002963
132 0.003024
147 0.00203
170 0.000936
181 0.00201
196 0.00095
205 0.0
209 0.0
214 0.000999
220 0.0
128 0.0
57 0.0
49 0.0
74 0.0
97 0.0
132 0.000998
144 0.000997
132 0.0
113 0.0
120 0.0
131 0.0
155 0.002029
168 0.002043
185 0.001998
196 0.002029
204 0.005021
210 0.004027
124 0.005028
66 0.004985
53 0.004988
71 0.004996
113 0.004989
154 0.004973
162 0.004983
139 0.004985
123 0.004992
128 0.00502
151 0.004981
166 0.004977
187 0.005018
203 0.00498
209 0.004975
218 0.006979
173 0.00698
88 0.005977
40 0.008009
49 0.006006
82 0.007988
115 0.007975
126 0.007017
129 0.005
109 0.003975
105 0.003032
118 0.00396
132 0.003957
155 0.00399
172 0.002991
180 0.002928
189 0.003012
194 0.002996
108 0.00403
37 0.005964
30 0.002989
50 0.006019
76 0.002996
97 0.004999
108 0.005019
102 0.005018
90 0.005101
97 0.001989
108 0.004019
129 0.003971
141 0.00402
155 0.002004
164 0.001997
171 0.000989
148 0.000955
56 0.0
23 0.000998
28 0.00302
57 0.004985
72 0.004982
90 0.005985
88 0.005969
81 0.006007
78 0.005985
93 0.00798
106 0.005983
124 0.007978
136 0.006976
144 0.006944
152 0.005016
161 0.003024
158 0.004021
58 0.0
21 0.002028
22 0.0
44 0.0
58 0.0
78 0.001842
80 0.003006
69 0.004972
69 0.004987
83 0.00698
100 0.006979
111 0.006935
126 0.007019
133 0.005984
140 0.006984
148 0.006971
155 0.006979
134 0.006982
33 0.003991
12 0.006009
22 0.003976
38 0.006027
60 0.00399
73 0.003987
70 0.003986
59 0.004979
61 0.004
77 0.003986
98 0.003991
109 0.004062
123 0.003998
131 0.003038
140 0.001995
147 0.004021
157 0.002993
123 0.004037
31 0.004023
17 0.003989
36 0.00399
54 0.003977
81 0.004037
94 0.002998
89 0.003989
79 0.003002
84 0.00399
104 0.002992
127 0.0
142 0.0
151 0.001993
161 0.002992
169 0.002992
177 0.002988
164 0.005018
75 0.006977
35 0.006934
33 0.006981
47 0.006122
66 0.005982
86 0.007036
93 0.006031
88 0.006016
86 0.00198
94 0.004025
115 0.001982
136 0.001996
147 0.0
161 0.0
170 0.0
175 0.0
184 0.001012
197 0.002959
164 0.003961
53 0.004955
31 0.00499
41 0.005934
61 0.006936
75 0.007975
87 0.004986
90 0.00799
88 0.006981
89 0.006982
109 0.007958
118 0.006978
140 0.00698
157 0.001994
165 0.003996
175 0.001995
186 0.001991
194 0.001995
208 0.001995
179 0.001994
65 0.0
38 0.0
44 0.0
68 0.001996
87 0.001997
98 0.001963
102 0.001995
97 0.001999
101 0.002992
119 0.002992
134 0.002992
155 0.002999
168 0.003011
178 0.003027
185 0.002992
196 0.003991
204 0.004986
213 0.004987
162 0.005016
60 0.005025
48 0.00499
62 0.004984
87 0.004986
108 0.005977
112 0.00596
109 0.005977
106 0.007017
113 0.003955
129 0.00698
148 0.003991
165 0.005022
180 0.003992
187 0.004026
195 0.003991
205 0.001996
214 0.003989
210 0.001988
138 0.003993
52 0.000973
48 0.001995
62 0.001995
92 0.0
108 0.0
113 0.0
103 0.0
102 0.0
110 0.000998
132 0.001017
147 0.001957
166 0.002993
177 0.004023
183 0.004024
191 0.004953
200 0.005014
211 0.005974
166 0.006942
54 0.006985
34 0.006952
44 0.007979
75 0.004993
91 0.005993
112 0.003986
109 0.005983
97 0.003998
103 0.003988
118 0.003984
145 0.003982
164 0.005024
177 0.001993
186 0.00399
194 0.001997
203 0.004042
201 0.003122
135 0.002992
51 0.002045
51 0.00102
68 0.0
91 0.0
116 0.0
123 0.0
114 0.0
110 0.000964
122 0.002003
147 0.001963
163 0.001995
182 0.001996
193 0.002
199 0.003022
209 0.004019
218 0.00396
186 0.003991
66 0.006022
38 0.005934
46 0.005985
64 0.00794
74 0.005025
86 0.007972
97 0.006981
96 0.007017
97 0.006982
105 0.006942
126 0.004986
150 0.001976
161 0.003989
174 0.002003
185 0.001995
192 0.001996
207 0.001993
211 0.001999
110 0.001989
38 0.001993
36 0.002005
57 0.001972
71 0.003989
84 0.003002
95 0.003992
96 0.004026
95 0.003986
107 0.002041
120 0.003027
145 0.000959
164 0.0
172 0.000982
183 0.0
189 0.000997
202 0.000951
217 0.0
215 0.000962
103 0.0
55 0.0
45 0.0
64 0.002986
79 0.0
91 0.002042
102 0.0
101 0.001984
100 0.0
107 0.0
128 0.0
145 0.0
162 0.0
171 0.0
179 0.000944
185 0.001951
196 0.001996
204 0.002044
216 0.001995
121 0.001989
59 0.002024
38 0.001996
50 0.001897
77 0.001993
97 0.001996
105 0.001996
99 0.001961
96 0.00199
106 0.002006
130 0.002992
144 0.003003
164 0.003989
175 0.00399
182 0.00387
190 0.006035
205 0.007968
212 0.00797
155 0.00698
63 0.003042
51 0.002978
74 0.002988
92 0.00204
119 0.002156
134 0.003003
128 0.001996
120 0.001991
130 0.004022
149 0.00201
171 0.003985
189 0.001986
200 0.003989
209 0.004196
215 0.002983
226 0.00399
234 0.003989
163 0.002003
58 0.001045
45 0.002045
62 0.0
84 0.000962
94 0.001014
109 0.00095
111 0.0
107 0.001963
117 0.0
129 0.000941
154 0.00098
167 0.000949
184 0.000967
192 0.003046
198 0.000997
209 0.001998
224 0.000998
221 0.000998
97 0.001962
48 0.001032
39 0.002027
57 0.00399
77 0.005048
88 0.005
102 0.004984
102 0.006981
101 0.006982
111 0.005026
123 0.007014
148 0.003991
169 0.003972
179 0.003984
189 0.002948
195 0.002941
206 0.003989
216 0.00598
229 0.002037
203 0.004032
66 0.003989
30 0.00399
34 0.003989
60 0.0
72 0.003041
89 0.000969
92 0.002994
85 0.001983
92 0.001963
106 0.000942
133 0.0
150 0.0
172 0.0
186 0.0
193 0.000956
207 0.000985
219 0.0
229 0.0
233 0.0
161 0.0
50 0.0
42 0.001001
59 0.002034
86 0.003016
104 0.003988
112 0.003992
101 0.003992
96 0.003992
106 0.003991
135 0.004037
152 0.003991
176 0.004005
198 0.005017
208 0.005026
221 0.005032
229 0.005972
239 0.006033
198 0.004987
106 0.005985
46 0.005992
66 0.004972
90 0.004987
128 0.003957
151 0.006025
150 0.005024
129 0.002988
130 0.001009
141 0.002029
163 0.000965
180 0.0
192 0.000997
205 0.001966
211 0.000997
216 0.000998
122 0.001992
54 0.002037
26 0.00101
52 0.002036
71 0.002024
101 0.001993
113 0.001001
105 0.002992
98 0.003988
104 0.002951
124 0.003992
143 0.003933
162 0.003994
178 0.005989
192 0.007984
200 0.007975
127 0.007977
31 0.003987
6 0.00499
18 0.002959
41 0.001996
52 0.001997
69 0.002016
73 0.002042
68 0.000988
75 0.00199
87 0.0
110 0.0
128 0.002032
144 0.000975
155 0.002993
167 0.001023
157 0.002035
40 0.002026
5 0.001997
11 0.002035
28 0.002041
52 0.003008
73 0.000955
81 0.000997
80 0.001014
84 0.0
94 0.002043
118 0.001949
142 0.002992
153 0.003988
169 0.005981
183 0.005975
178 0.00596
77 0.006067
38 0.005854
34 0.006973
55 0.006981
66 0.006934
83 0.006942
95 0.00698
96 0.006964
96 0.007016
103 0.007013
121 0.007011
139 0.00597
152 0.006981
163 0.005996
172 0.006979
182 0.004971
190 0.003985
144 0.003993
51 0.002953
43 0.001993
54 0.001994
70 0.00201
77 0.001981
93 0.002946
96 0.002028
95 0.0
101 0.002031
115 0.001988
127 0.002999
143 0.002043
155 0.000997
161 0.0
169 0.0
177 0.001993
186 0.001995
189 0.00202
130 0.00201
43 0.002037
42 0.002991
55 0.003014
70 0.004007
84 0.003998
90 0.004023
90 0.004987
89 0.005979
96 0.005983
107 0.006982
125 0.005983
135 0.004981
148 0.005036
153 0.004999
162 0.004022
173 0.002121
181 0.003987
195 0.00197
160 0.002994
91 0.0
49 0.000965
59 0.0
84 0.0
101 0.001003
110 0.0
113 0.000964
109 0.002989
111 0.0
123 0.003022
138 0.0
153 8.6e-05
167 0.000997
172 0.00199
179 0.002
185 0.00203
193 0.003947
203 0.00399
210 0.005995
162 0.005996
64 0.006025
58 0.006012
72 0.006009
88 0.00599
98 0.007977
109 0.00494
112 0.004942
110 0.004963
112 0.004988
124 0.005998
134 0.004972
150 0.004987
156 0.00499
166 0.006002
172 0.006958
179 0.007962
186 0.006982
191 0.006976
203 0.006981
120 0.001994
57 0.00399
36 0.0
54 0.000946
78 0.002008
89 0.001001
103 0.003025
102 0.005036
100 0.005991
105 0.004999
125 0.005949
138 0.006016
155 0.005956
165 0.004986
176 0.004971
183 0.006014
192 0.004
200 0.003991
215 0.004023
197 0.003989
81 0.003989
58 0.0
71 0.00198
99 0.0
111 0.002025
128 0.0
127 0.0
122 0.0
120 0.0
134 0.0
147 0.0
168 0.0
179 0.0
191 0.0
199 0.0
203 0.0
211 0.001003
221 0.002002
195 0.004026
66 0.005016
39 0.005017
52 0.004993
76 0.004985
92 0.004985
106 0.007026
113 0.007978
107 0.003996
104 0.001989
112 0.001995
123 0.001995
144 0.002157
162 0.001994
171 0.003
182 0.001051
189 0.002028
198 0.0
210 0.002993
203 0.003032
115 0.0
29 0.002025
32 0.001983
57 0.002992
82 0.004028
100 0.003026
112 0.003986
104 0.005022
98 0.005022
107 0.005988
130 0.006003
145 0.006026
164 0.00499
172 0.004987
181 0.00594
192 0.005983
203 0.005982
203 0.005931
76 0.005978
38 0.005972
41 0.005992
58 0.005968
79 0.005984
98 0.006991
105 0.003995
104 0.006017
98 0.005981
102 0.005983
120 0.004019
146 0.002994
159 0.004142
177 0.0
185 0.0
190 0.0
196 0.0
201 0.0
167 0.0
53 0.0
50 0.002026
64 0.002051
92 0.002991
89 0.002998
82 0.002985
78 0.002992
73 0.003028
75 0.002841
87 0.003019
105 0.004023
128 0.004988
139 0.006982
152 0.006982
160 0.004949
164 0.007979
179 0.004985
178 0.003989
108 0.003988
28 0.004939
27 0.003977
52 0.003002
78 0.003003
91 0.000989
110 0.001002
116 0.00191
117 0.003022
128 0.00305
152 0.002995
163 0.002992
179 0.00399
192 0.001999
199 0.00197
206 0.003963
216 0.003989
224 0.004988
203 0.005038
126 0.004988
68 0.007991
76 0.00303
100 0.002995
113 0.002999
128 0.0
126 0.0
116 0.0
114 0.0
127 0.000998
140 0.002032
161 0.009945
181 0.002047
192 0.000997
209 0.002946
226 0.001978
243 0.002994
176 0.003033
115 0.005025
92 0.005014
111 0.004993
126 0.00502
137 0.0048
142 0.005017
137 0.004998
130 0.005991
132 0.005984
150 0.005971
174 0.005972
187 0.005973
201 0.00597
207 0.005991
215 0.00499
224 0.005964
232 0.002977
167 0.005984
63 0.006016
55 0.005984
74 0.004019
95 0.000997
104 0.004023
116 0.0
114 0.000968
115 0.000992
125 0.000948
134 0.0
155 0.000998
175 0.00303
183 0.004026
194 0.002984
204 0.00402
209 0.004986
220 0.004977
172 0.004997
93 0.004993
48 0.006005
55 0.005986
80 0.004988
93 0.006985
106 0.006982
114 0.006982
110 0.00697
108 0.005982
116 0.003995
135 0.002047
144 0.000998
165 0.0
178 0.0
187 0.002992
192 0.003991
202 0.003988
210 0.004987
213 0.005877
110 0.005969
48 0.005968
36 0.00698
60 0.006973
75 0.004969
96 0.008017
103 0.005983
99 0.007988
94 0.006983
103 0.006833
124 0.006996
144 0.003984
161 0.006986
172 0.005969
181 0.007021
190 0.003958
203 0.00503
208 0.004998
105 0.003
35 0.003002
36 0.002975
66 0.001991
95 0.00405
118 0.0
125 0.002986
111 0.000871
110 0.0
128 0.001002
144 0.0
172 0.000997
187 0.000998
200 0.000998
208 0.000998
217 0.000998
223 0.003004
122 0.004019
59 0.003024
36 0.00302
59 0.002949
73 0.003968
92 0.003958
105 0.003991
102 0.003966
97 0.005983
107 0.006982
119 0.004987
139 0.005018
162 0.005017
172 0.003027
185 0.004021
195 0.001007
204 0.002032
173 0.0
83 0.001985
16 0.0
24 0.000965
40 0.0
59 0.0
78 0.000955
83 0.000998
81 0.0
82 0.0
101 0.0
121 0.0
135 0.000997
157 0.001985
171 0.00199
180 0.002998
192 0.003863
200 0.003954
200 0.00399
91 0.003995
19 0.00399
11 0.003991
38 0.003791
53 0.003991
73 0.004947
84 0.00598
82 0.006014
77 0.005976
84 0.005981
101 0.004983
127 0.005006
142 0.004984
160 0.004991
172 0.003987
178 0.002999
190 0.002996
199 0.003001
193 0.002993
76 0.003991
11 0.003955
9 0.004024
42 0.004023
62 0.005062
89 0.001995
99 0.005022
90 0.001992
87 0.003014
97 0.000977
119 0.000997
149 0.000998
163 0.002041
180 0.002008
193 0.001957
199 0.001966
213 0.000962
213 0.001842
86 0.001992
24 0.001995
30 0.003027
62 0.002999
86 0.00299
108 0.003959
114 0.004926
104 0.004985
100 0.004981
115 0.005019
132 0.005018
160 0.004967
181 0.005003
189 0.004983
200 0.004994
206 0.00502
216 0.005993
228 0.004965
223 0.005986
74 0.005955
12 0.004987
18 0.004989
48 0.003025
68 0.004024
86 0.002989
94 0.004024
89 0.002016
86 0.004022
101 0.003988
116 0.003987
144 0.003042
162 0.0
177 0.000998
187 0.000999
197 0.000997
203 0.000997
216 0.00103
225 0.000924
176 0.002994
26 0.004985
2 0.005984
12 0.005031
45 0.004956
67 0.006976
85 0.003997
88 0.006984
78 0.004001
79 0.007992
94 0.005976
110 0.005986
138 0.006028
153 0.006047
171 0.005019
182 0.002995
188 0.004021
198 0.002027
212 0.001989
216 0.002995
75 0.001996
10 0.001996
0 0.002989
38 0.003
62 0.002997
94 0.0
103 0.002011
93 0.0
80 0.00103
95 0.000987
113 0.000997
146 0.000998
167 0.003002
182 0.004989
192 0.00499
201 0.004984
208 0.004985
222 0.007023
214 0.008012
57 0.007973
0 0.005954
2 0.007986
31 0.003989
65 0.003952
81 0.00298
92 0.002979
76 0.001995
73 0.003989
90 0.001987
107 0.001993
132 0.003994
158 0.003974
170 0.003953
181 0.001982
191 0.001873
198 0.001992
212 0.001008
189 0.002025
28 0.0
54 0.001027
59 0.0
76 0.00102
88 0.002004
96 0.002011
99 0.001965
91 0.001997
91 0.001987
101 0.002013
110 0.001996
127 0.002996
139 0.004025
144 0.004055
150 0.003951
155 0.003937
161 0.004985
166 0.005022
122 0.004983
64 0.005019
54 0.005018
63 0.006013
85 0.006988
101 0.003994
110 0.006982
107 0.003985
98 0.003002
101 0.003015
114 0.002992
125 0.003017
141 0.002992
152 0.002986
157 0.002993
163 0.004044
168 0.004005
144 0.001997
79 0.003988
56 0.0
61 0.00303
80 0.0
90 0.0
103 0.0
107 0.0
102 0.0
99 0.000998
110 0.001994
120 0.002984
136 0.002961
143 0.002967
152 0.003989
159 0.004952
163 0.004947
169 0.004957
109 0.004985
69 0.004994
53 0.004988
62 0.006981
72 0.00594
83 0.006981
90 0.005999
94 0.007973
91 0.007973
93 0.007978
101 0.005986
116 0.002995
124 0.005982
136 0.003026
142 0.005984
149 0.002988
155 0.002602
160 0.002991
158 0.001993
83 0.00204
59 0.001997
58 0.0
69 0.002944
79 0.000994
89 0.002032
95 0.00396
93 0.002955
93 0.003958
99 0.003961
110 0.004983
123 0.005984
133 0.006986
140 0.005986
146 0.005984
152 0.002977
157 0.005984
165 0.003983
171 0.005987
121 0.002982
62 0.003145
57 0.001995
68 0.001996
80 0.004015
90 0.002998
97 0.00399
97 0.002984
94 0.002974
99 0.002958
106 0.002993
121 0.002971
130 0.002985
140 0.003017
148 0.002025
151 0.002992
156 0.0
164 0.0
170 0.0
154 0.001009
77 0.000985
61 0.002048
68 0.002994
81 0.001994
100 0.001964
114 0.003009
113 0.001954
105 0.002964
109 0.001994
118 0.001954
136 0.002993
145 0.001994
157 0.003955
163 0.003991
167 0.004987
173 0.006987
180 0.006983
157 0.007951
83 0.007996
68 0.004984
72 0.005993
90 0.003992
99 0.005984
112 0.002959
113 0.002985
109 0.002961
110 0.00301
124 0.003021
134 0.002989
150 0.002983
158 0.0
166 0.002994
171 0.002941
175 0.002957
184 0.003025
178 0.003027
125 0.003024
68 0.000964
67 0.0
74 0.000998
89 0.001998
100 0.003026
106 0.003959
105 0.005983
104 0.005993
106 0.005012
118 0.002986
135 0.002954
144 0.002007
155 0.003018
160 0.003987
166 0.002031
172 0.003995
179 0.002995
179 0.003985
101 0.003684
68 0.003988
51 0.00398
57 0.003988
79 0.003979
98 0.003002
105 0.002991
104 0.000953
105 0.001017
111 0.001008
120 0.0
129 0.0
137 0.0
152 0.0
160 0.000998
169 0.002025
177 0.001033
182 0.003028
149 0.004036
66 0.004028
53 0.003072
72 0.00402
89 0.003999
105 0.005989
119 0.006014
124 0.006015
121 0.00598
124 0.005972
131 0.006975
144 0.004988
160 0.003966
167 0.003034
175 0.003022
178 0.00302
182 0.003038
188 0.002991
179 0.002964
102 0.002984
79 0.004024
84 0.000962
96 0.004027
109 0.004024
120 0.001029
127 0.002002
120 0.0
118 0.002026
126 0.001893
136 0.002027
146 0.002025
154 0.002025
159 0.002032
167 0.002026
175 0.003
166 0.003993
95 0.003985
75 0.004001
79 0.005947
102 0.005985
112 0.005979
137 0.005996
134 0.005976
127 0.005976
127 0.005979
135 0.005983
151 0.00686
163 0.006979
169 0.006077
177 0.006987
184 0.006981
181 0.006998
110 0.006985
82 0.006991
77 0.006986
90 0.004936
103 0.00698
115 0.005969
122 0.006985
120 0.003991
118 0.002996
122 0.002983
134 0.0
145 0.00304
156 0.000998
165 0.002994
173 0.003023
177 0.002987
149 0.003023
84 0.000969
74 0.0
80 0.0
92 0.0
101 0.0
111 0.001995
114 0.001996
110 0.002022
111 0.001997
117 0.002026
130 0.001994
137 0.002028
148 0.001991
156 0.002999
160 0.003972
167 0.003995
125 0.003998
87 0.00398
73 0.003994
80 0.003995
96 0.003954
107 0.005006
114 0.006943
118 0.005988
113 0.006014
115 0.006014
123 0.005981
132 0.006001
145 0.006987
153 0.005985
159 0.007977
164 0.003024
170 0.002999
169 0.002999
106 0.005007
77 0.000964
80 0.00101
91 0.001996
103 0.001995
111 0.002018
117 0.002996
113 0.003977
113 0.00396
117 0.004008
130 0.00399
138 0.003988
148 0.003993
153 0.004008
159 0.003994
164 0.004989
168 0.005984
165 0.005987
98 0.005984
79 0.005988
81 0.004997
95 0.004981
102 0.004025
113 0.004983
116 0.00414
114 0.003971
112 0.006989
117 0.004001
126 0.007014
136 0.003991
145 0.007012
154 0.006997
158 0.005985
163 0.00399
169 0.000962
174 0.002992
178 0.0
125 0.002028
90 0.003004
79 0.002993
93 0.002996
102 0.003015
113 0.003008
117 0.003006
114 0.002991
110 0.00396
113 0.004984
124 0.004983
137 0.004992
144 0.004999
152 0.004983
156 0.004982
160 0.00599
165 0.006993
170 0.007011
175 0.005982
140 0.006019
79 0.002969
73 0.003022
85 0.0
103 0.0
112 0.0
121 0.0
118 0.001997
111 0.001015
115 0.002991
125 0.0
137 0.002993
147 0.0
155 0.003029
163 0.003033
165 0.0
172 0.001009
172 0.001004
119 0.000806
82 0.002972
81 0.002993
92 0.003
110 0.002996
120 0.002995
127 0.002995
118 0.002868
115 0.003963
122 0.004994
136 0.005031
145 0.004988
156 0.004991
161 0.004985
165 0.005987
171 0.005975
174 0.005985
164 0.005017
99 0.006016
71 0.003991
72 0.005988
86 0.005021
94 0.004023
105 0.003023
109 0.0
106 0.002992
105 0.0
109 0.002994
121 0.0
134 0.001014
138 0.0
147 0.0
154 0.001005
157 0.00097
164 0.00299
