132 0.019999
135 0.003938
140 0.00399
148 0.003951
155 0.004
159 0.004
163 0.00399
163 0.003958
115 0.003914
72 0.004023
55 0.003991
60 0.003989
73 0.003957
100 0.003991
113 0.003957
119 0.004001
118 0.003957
115 0.003952
117 0.003959
121 0.002991
129 0.002991
137 0.004035
144 0.003985
150 0.004
156 0.003999
161 0.003989
135 0.003962
71 0.004003
49 0.003943
52 0.003953
65 0.003025
81 0.003003
101 0.002995
112 0.002992
115 0.002992
114 0.002988
112 0.003004
116 0.002949
123 0.00399
133 0.004046
141 0.002993
149 0.00399
156 0.002992
161 0.002993
152 0.003059
106 0.003004
64 0.002993
49 0.002992
57 0.002992
82 0.003989
97 0.002006
113 0.002944
117 0.002965
116 0.002971
114 0.002964
115 0.002962
121 0.002949
127 0.002992
135 0.002958
144 0.002997
152 0.001968
166 0.001935
170 0.001951
129 0.00196
90 0.002035
76 0.001994
82 0.001951
96 0.001994
116 0.001989
130 0.001996
138 0.002027
136 0.00204
129 0.002025
116 0.002025
115 0.002011
120 0.001995
126 0.001993
134 0.001998
142 0.001994
149 0.002992
149 0.001994
101 0.001994
61 0.001995
45 0.001994
51 0.001994
76 0.001995
94 0.001995
107 0.001995
110 0.001995
107 0.001995
105 0.001995
106 0.00195
110 0.002029
120 0.001995
128 0.001982
135 0.001011
141 0.000999
133 0.000997
89 0.001
49 0.001005
35 0.000998
48 0.001006
64 0.001995
82 0.001995
96 0.001996
105 0.001956
104 0.001995
101 0.000997
103 0.000999
110 0.000997
118 0.000997
126 0.000999
137 0.001026
143 0.000997
135 0.000998
93 0.000997
49 0.000997
32 0.000996
41 0.000997
57 0.000998
85 0.000998
98 0.000998
103 0.000997
103 0.000998
102 0.000997
105 0.000998
110 0.000998
118 0.0
128 0.000998
138 0.0
145 0.0
146 0.0
82 0.000997
50 0.0
44 0.000982
56 0.001
78 0.000997
95 0.00098
110 0.001007
117 0.001001
118 0.000998
115 0.0
118 0.0
123 0.0
137 0.0
146 0.0
155 0.0
161 0.0
167 0.0
148 0.0
103 0.0
72 0.0
67 0.000997
79 0.0
101 0.0
116 0.0
133 0.0
134 0.0
133 0.0
134 0.0
138 0.0
145 0.0
154 0.0
162 0.0
169 0.0
176 0.0
182 0.0
179 0.000997
117 0.000997
89 0.000998
91 0.0
100 0.0
115 0.0
135 0.0
145 0.0
148 0.0
147 0.0
145 0.0
147 0.001
152 0.001055
163 0.000999
171 0.001
180 0.0
184 0.0
188 0.0
181 0.001006
146 0.000992
100 0.0
93 0.000997
99 0.000998
118 0.000947
132 0.000997
150 0.000995
151 0.000997
147 0.000999
144 0.0
147 0.0
152 0.000998
157 0.001024
166 0.00103
172 0.000997
177 0.001026
181 0.002043
184 0.002029
143 0.001995
101 0.001994
81 0.000998
90 0.000999
104 0.000992
117 0.001042
130 0.00103
138 0.000998
140 0.001997
135 0.0
135 0.001049
140 0.001036
146 0.002005
153 0.001985
162 0.001032
167 0.000998
171 0.000989
173 0.000993
160 0.002043
118 0.002032
75 0.000997
71 0.001048
83 0.001012
100 0.000991
114 0.001995
126 0.001947
128 0.002028
126 0.001995
124 0.000997
125 0.001995
132 0.002025
138 0.001995
147 0.000998
154 0.001029
159 0.00203
165 0.002061
154 0.002027
113 0.003044
76 0.002992
65 0.002025
73 0.001994
87 0.002027
107 0.002037
119 0.001995
125 0.002043
125 0.002026
123 0.002993
125 0.002027
131 0.002031
137 0.003029
145 0.003024
153 0.002042
160 0.002028
165 0.002033
168 0.002992
153 0.002992
98 0.002039
74 0.002008
74 0.002994
92 0.003041
106 0.003023
125 0.003008
131 0.003045
132 0.003026
130 0.002031
130 0.00203
133 0.002992
139 0.002992
148 0.002036
155 0.002039
162 0.002034
170 0.003007
173 0.003032
163 0.00399
125 0.003989
87 0.003009
84 0.002991
92 0.00305
110 0.003037
124 0.003023
136 0.002996
142 0.003033
141 0.002992
138 0.002986
141 0.002992
146 0.004023
151 0.003989
160 0.003013
166 0.003045
172 0.003017
176 0.003009
178 0.00399
159 0.004021
107 0.003027
89 0.004022
100 0.002992
113 0.004022
122 0.00399
138 0.00399
145 0.00399
144 0.004021
140 0.00302
140 0.003029
142 0.00396
147 0.004038
155 0.003034
160 0.004026
169 0.003974
174 0.00301
175 0.003989
152 0.004987
114 0.005031
87 0.00399
91 0.003989
104 0.004026
117 0.005021
130 0.004987
140 0.004024
140 0.003989
136 0.004031
134 0.003989
135 0.005036
143 0.004951
149 0.005032
157 0.004024
162 0.003974
166 0.003992
166 0.004986
144 0.005025
92 0.00402
74 0.00502
85 0.003992
99 0.00503
113 0.004987
124 0.004987
128 0.004986
128 0.004969
124 0.004986
123 0.004984
125 0.004995
131 0.005023
139 0.004017
148 0.004982
155 0.003952
157 0.005028
134 0.005025
91 0.005984
64 0.006021
62 0.005023
74 0.005021
89 0.005019
103 0.005022
113 0.005027
116 0.005021
108 0.005985
102 0.003999
101 0.00502
106 0.005043
112 0.005031
118 0.006017
124 0.006017
132 0.005024
133 0.004982
106 0.006015
65 0.006016
44 0.005984
55 0.00599
68 0.00598
85 0.005018
95 0.005014
98 0.006021
96 0.006016
92 0.005934
91 0.006018
93 0.006016
100 0.005984
111 0.005952
120 0.006016
131 0.006026
135 0.005978
113 0.005025
73 0.006024
46 0.005985
44 0.006982
56 0.006981
78 0.005985
87 0.00603
101 0.006982
105 0.005984
102 0.005984
96 0.005987
99 0.005969
107 0.006041
113 0.005984
121 0.005984
128 0.006982
132 0.006981
130 0.006015
96 0.005984
55 0.005984
38 0.007022
43 0.007027
67 0.007021
84 0.00702
96 0.00703
102 0.007021
101 0.006981
96 0.007016
96 0.006982
103 0.006003
109 0.006027
117 0.006018
125 0.007017
132 0.007021
134 0.007949
104 0.007938
49 0.006037
32 0.006959
39 0.007016
55 0.007979
71 0.007979
89 0.006973
97 0.007016
96 0.007004
94 0.006991
92 0.007011
94 0.007017
99 0.007026
106 0.007022
116 0.006982
122 0.006981
127 0.007979
124 0.007979
73 0.00702
38 0.006997
29 0.006981
41 0.007979
57 0.007984
84 0.007019
97 0.007978
101 0.007982
99 0.006978
98 0.007937
100 0.007938
105 0.007979
112 0.007979
119 0.007979
131 0.007008
139 0.00794
143 0.006975
129 0.006938
86 0.007948
42 0.007936
40 0.007026
54 0.006981
71 0.007026
92 0.008005
104 0.00698
108 0.007979
105 0.007031
104 0.006982
109 0.007023
116 0.007022
123 0.007948
129 0.007979
136 0.007979
142 0.007978
148 0.007987
138 0.007043
113 0.007979
57 0.006958
43 0.007021
56 0.00698
83 0.006987
100 0.007026
111 0.006982
113 0.007013
109 0.007013
108 0.007045
111 0.007016
117 0.006982
124 0.006981
135 0.006941
142 0.006031
148 0.00599
147 0.007037
112 0.006981
70 0.007011
51 0.007017
59 0.007014
76 0.007016
95 0.006982
111 0.007017
121 0.006983
125 0.007026
123 0.006024
123 0.006003
133 0.006026
143 0.006026
153 0.006015
162 0.006015
172 0.006014
177 0.006039
155 0.006023
106 0.006035
66 0.006017
58 0.005983
69 0.005945
86 0.006951
114 0.005983
123 0.006014
126 0.005984
125 0.005998
125 0.005995
130 0.005985
137 0.006019
142 0.00598
148 0.005987
153 0.006014
146 0.005999
109 0.005984
57 0.006025
59 0.006041
73 0.005989
90 0.005984
109 0.006021
125 0.006044
125 0.005991
121 0.005021
119 0.004987
121 0.005018
129 0.004981
138 0.004983
151 0.004987
156 0.006022
148 0.006024
108 0.006021
68 0.006022
53 0.005984
66 0.006014
84 0.006033
102 0.005021
117 0.005984
128 0.005032
127 0.004986
123 0.005027
126 0.004987
134 0.005036
143 0.005018
153 0.005023
163 0.005019
166 0.004987
145 0.003992
102 0.003991
73 0.003989
76 0.003957
98 0.00503
122 0.004019
137 0.00399
143 0.003979
144 0.004032
141 0.00399
141 0.005027
146 0.003994
154 0.003989
162 0.004986
170 0.004021
179 0.005047
182 0.005036
138 0.005026
98 0.005015
81 0.005026
89 0.004987
105 0.004956
129 0.003989
145 0.004039
153 0.00399
152 0.003958
150 0.00399
149 0.004039
156 0.004016
166 0.003992
173 0.00403
181 0.003993
187 0.003989
192 0.003988
193 0.004036
153 0.003983
112 0.00399
94 0.004024
100 0.002997
116 0.002957
144 0.00304
156 0.002936
162 0.00399
158 0.004031
156 0.004048
157 0.003997
162 0.00399
170 0.00399
177 0.004021
184 0.00399
190 0.003028
195 0.002983
195 0.002984
167 0.002992
114 0.002992
100 0.002992
108 0.003031
124 0.002993
140 0.003991
157 0.00399
164 0.00399
163 0.00305
159 0.003989
157 0.002998
162 0.002999
168 0.002992
177 0.003019
183 0.003024
189 0.003009
194 0.003025
196 0.002979
175 0.003968
133 0.00399
103 0.004045
99 0.003022
112 0.002981
137 0.003998
150 0.002993
158 0.002029
157 0.003034
153 0.00298
151 0.002992
153 0.002992
160 0.002992
166 0.002987
173 0.002992
179 0.002992
184 0.003027
188 0.002992
176 0.003022
122 0.002974
95 0.001978
93 0.00303
106 0.001995
120 0.001995
139 0.001963
150 0.001995
151 0.002028
147 0.002031
143 0.001995
145 0.002992
150 0.002994
157 0.003029
164 0.001994
169 0.001995
173 0.001995
177 0.001994
176 0.001995
133 0.00199
92 0.002027
75 0.001996
80 0.002027
105 0.001965
119 0.001961
131 0.001995
136 0.001995
132 0.001952
128 0.000998
128 0.002026
132 0.002027
140 0.002003
147 0.001981
153 0.002
161 0.002026
164 0.001995
152 0.002027
110 0.001992
67 0.001995
63 0.001995
74 0.001
91 0.000992
106 0.001007
122 0.000998
126 0.000997
123 0.000966
117 0.000997
119 0.000993
124 0.000998
131 0.000997
140 0.001994
147 0.002002
153 0.000998
156 0.000997
147 0.000997
92 0.000998
59 0.000997
52 0.0
74 0.001021
91 0.000997
107 0.000998
117 0.0
116 0.0
112 0.0
108 0.0
110 0.0
114 0.0
124 0.001017
132 0.000997
138 0.000997
147 0.001001
140 0.000997
100 0.001
58 0.000933
40 0.000997
51 0.000998
68 0.0
85 0.0
101 0.0
112 0.0
109 0.0
104 0.0
104 0.0
109 0.0
116 0.0
123 0.000997
133 0.000997
139 0.0
141 0.0
116 0.0
69 0.0
32 0.0
36 0.0
52 0.0
82 0.0
97 0.0
104 0.0
103 0.0
99 0.0
97 0.000997
100 0.000997
107 0.0
115 0.0
123 0.0
134 0.0
139 0.0
107 0.001041
59 0.000966
28 0.0
34 0.0
50 0.0
68 0.001013
86 0.000989
101 0.0
102 0.0
97 0.0
94 0.00099
95 0.000998
105 0.000995
112 0.0
121 0.0
130 0.0
133 0.0
122 0.000998
78 0.001031
29 0.0
24 0.0
39 0.0
57 0.000999
76 0.000999
99 0.000997
99 0.000997
91 0.0
89 0.0
92 0.001044
99 0.000998
107 0.001998
118 0.000998
123 0.000995
129 0.00104
131 0.001023
63 0.0
23 0.001032
126 0.001034
124 0.000962
124 0.0
124 0.000989
124 0.001995
124 0.001995
124 0.001
124 0.0
124 0.000998
124 0.001996
124 0.000967
124 0.001035
124 0.001058
124 0.001019
124 0.000968
89 0.001013
22 0.002027
0 0.002014
0 0.000995
5 0.000998
29 0.000997
54 0.001996
78 0.001012
79 0.002018
74 0.00203
74 0.001031
78 0.000997
92 0.000977
105 0.000996
118 0.002024
130 0.002026
142 0.001002
148 0.000986
126 0.001018
20 0.001002
0 0.001028
1 0.002989
26 0.002004
61 0.002002
86 0.002026
101 0.002027
102 0.002992
98 0.002992
93 0.002031
99 0.000953
112 0.001047
134 0.001987
147 0.001014
159 0.00299
168 0.002999
165 0.002021
114 0.002029
49 0.002023
12 0.002983
10 0.003027
35 0.002022
62 0.001989
86 0.002006
99 0.002005
96 0.002001
83 0.001993
79 0.003006
83 0.002002
93 0.001998
103 0.001977
111 0.002992
118 0.003023
124 0.001989
101 0.001999
34 0.002034
47 0.002005
50 0.001996
61 0.002992
74 0.003995
91 0.002964
99 0.002997
100 0.003025
97 0.00303
94 0.003025
97 0.002042
103 0.002039
109 0.002002
120 0.002007
126 0.002985
130 0.003991
125 0.004004
82 0.002978
55 0.002983
49 0.002992
57 0.003992
69 0.003958
85 0.004017
95 0.003036
101 0.003023
101 0.001995
102 0.002034
104 0.004004
109 0.003982
116 0.004059
126 0.003026
132 0.002992
138 0.002986
141 0.003989
136 0.003989
96 0.003023
72 0.003031
73 0.002979
84 0.00299
96 0.002991
107 0.005003
116 0.004971
120 0.003975
120 0.004021
122 0.003024
126 0.004025
131 0.00399
139 0.003022
147 0.003984
156 0.002991
162 0.003981
166 0.003984
169 0.004978
164 0.00498
127 0.003977
105 0.003991
102 0.003998
109 0.004987
119 0.004987
133 0.004029
145 0.003976
148 0.003026
148 0.003993
148 0.002979
151 0.003963
156 0.005003
161 0.004987
167 0.003942
172 0.003993
176 0.005017
180 0.004987
185 0.003996
187 0.004986
170 0.003983
144 0.003978
129 0.004987
130 0.004976
137 0.006002
149 0.005019
159 0.004992
163 0.005027
166 0.004986
165 0.004987
165 0.004002
170 0.004969
175 0.003983
180 0.003986
185 0.004994
188 0.005998
191 0.005983
195 0.004982
198 0.005021
199 0.005022
200 0.005052
190 0.005984
156 0.005026
140 0.005976
145 0.004983
154 0.004999
160 0.004948
167 0.005953
171 0.005983
172 0.00499
171 0.005025
171 0.00502
173 0.006022
177 0.005984
180 0.006025
186 0.006014
189 0.005974
193 0.004995
196 0.005024
197 0.00599
199 0.005986
192 0.006007
161 0.004979
146 0.006015
145 0.005017
151 0.006014
159 0.006017
169 0.006016
173 0.005967
174 0.004986
172 0.004989
203 0.004986
205 0.005982
209 0.006974
216 0.006015
221 0.006024
226 0.005979
229 0.007012
232 0.006982
235 0.006988
233 0.007004
195 0.004981
158 0.004988
145 0.005985
152 0.006986
165 0.006967
181 0.005983
191 0.006015
196 0.005982
194 0.006982
190 0.006981
186 0.006986
190 0.006977
194 0.005995
199 0.005999
205 0.006984
211 0.007958
214 0.007967
218 0.007012
219 0.007016
199 0.005981
157 0.006992
123 0.005991
131 0.006991
144 0.007022
158 0.006985
168 0.005984
173 0.005988
171 0.007979
167 0.007946
165 0.006979
167 0.00697
171 0.007011
178 0.007979
190 0.00698
195 0.007979
198 0.007977
200 0.005983
187 0.007004
135 0.006974
114 0.007951
116 0.007942
132 0.006964
144 0.006979
154 0.007006
161 0.007979
158 0.006981
151 0.007038
145 0.007003
145 0.007978
149 0.00698
156 0.007012
160 0.006985
164 0.006997
165 0.007979
160 0.007979
110 0.007949
87 0.007013
74 0.006988
86 0.006978
100 0.007977
112 0.007967
124 0.006967
124 0.007014
117 0.007026
114 0.007014
116 0.006974
123 0.006985
129 0.007023
136 0.007012
143 0.006983
149 0.006979
141 0.007971
99 0.007982
52 0.007022
45 0.007013
54 0.006983
69 0.00713
82 0.006996
96 0.007011
101 0.007047
100 0.006973
96 0.006986
97 0.006974
102 0.007024
110 0.007072
117 0.00698
125 0.006961
131 0.00697
130 0.006025
101 0.006009
42 0.006023
20 0.006982
22 0.007042
43 0.007033
56 0.007014
68 0.007022
74 0.007022
74 0.007015
74 0.006982
77 0.006975
84 0.007022
94 0.006019
106 0.005985
116 0.006021
124 0.00602
131 0.006018
105 0.006024
62 0.006024
39 0.006014
43 0.006023
59 0.006027
74 0.005997
87 0.006018
96 0.005985
95 0.006039
89 0.006043
85 0.006018
90 0.006027
96 0.006032
104 0.006024
111 0.005951
117 0.006017
124 0.006023
120 0.006018
83 0.005031
43 0.006017
31 0.005018
45 0.006018
62 0.005028
88 0.005027
99 0.005019
102 0.005025
99 0.006016
96 0.006027
100 0.006013
107 0.006016
114 0.004992
122 0.006023
130 0.006014
136 0.005021
139 0.005025
98 0.005027
52 0.004996
30 0.005032
35 0.005016
50 0.004988
70 0.004986
84 0.004987
94 0.005017
98 0.006017
96 0.005975
94 0.004975
100 0.004993
110 0.005026
119 0.005017
126 0.005025
133 0.005001
139 0.004983
129 0.005025
87 0.005026
47 0.004953
35 0.004988
43 0.003989
66 0.005025
85 0.005023
100 0.005023
103 0.00499
101 0.005018
100 0.005006
102 0.00503
109 0.00502
116 0.004991
124 0.004027
132 0.004032
137 0.004023
145 0.003955
146 0.003993
99 0.003959
52 0.003988
33 0.003988
42 0.003989
59 0.004996
81 0.003991
96 0.003991
105 0.003992
105 0.004016
103 0.004025
103 0.004033
109 0.00399
118 0.003978
127 0.004027
136 0.003991
144 0.004042
150 0.003991
156 0.003991
155 0.002992
130 0.003989
80 0.00399
47 0.004022
45 0.004034
71 0.004006
87 0.003957
106 0.003989
112 0.003993
107 0.004019
102 0.003941
102 0.004024
108 0.002993
115 0.002991
123 0.002995
132 0.003035
139 0.002992
149 0.003022
153 0.00402
140 0.003025
91 0.003991
50 0.004025
39 0.00296
51 0.003033
74 0.004023
90 0.003023
106 0.003989
113 0.002026
114 0.003031
109 0.002992
111 0.002992
119 0.00399
128 0.002979
136 0.00303
145 0.003028
152 0.003024
158 0.003022
161 0.003024
147 0.002992
98 0.003016
54 0.002997
47 0.003025
65 0.002986
88 0.001995
104 0.002028
116 0.001995
121 0.001996
118 0.002028
117 0.002027
120 0.001996
126 0.001963
133 0.00296
146 0.002992
153 0.003023
160 0.001995
166 0.00203
170 0.002026
163 0.002027
119 0.002027
68 0.001995
46 0.001996
58 0.001996
77 0.002025
94 0.002026
119 0.001996
125 0.002005
126 0.001995
122 0.001995
123 0.001
129 0.002044
136 0.002032
144 0.002046
156 0.002052
164 0.001995
170 0.002026
175 0.002024
172 0.001996
133 0.001995
85 0.001963
62 0.000988
73 0.001997
92 0.001963
110 0.000997
128 0.000998
137 0.000997
133 0.000996
125 0.000991
122 0.000998
127 0.000997
134 0.000996
143 0.002027
150 0.001955
159 0.002002
164 0.001996
167 0.002025
151 0.000957
102 0.000998
53 0.000998
52 0.000997
69 0.001029
102 0.000998
119 0.001003
131 0.000997
133 0.000998
127 0.000997
125 0.0
128 0.000961
136 0.000996
144 0.000998
155 0.000997
165 0.001023
171 0.001006
172 0.001011
134 0.001
82 0.001031
53 0.000998
59 0.000995
78 0.00099
97 0.0
114 0.0
125 0.00096
129 0.000972
125 0.0
122 0.000997
126 0.000997
134 0.000997
143 0.000998
153 0.000984
164 0.000997
171 0.0
169 0.0
129 0.0
77 0.0
50 0.0
59 0.0
76 0.0
107 0.0
121 0.0
129 0.000997
126 0.000997
123 0.0
124 0.0
130 0.0
137 0.0
146 0.0
157 0.0
163 0.0
168 0.0
156 0.0
103 0.0
57 0.0
46 0.001007
59 0.000998
88 0.000997
108 0.0
125 0.0
134 0.0
128 0.000947
122 0.001038
122 0.000998
129 0.001004
137 0.000994
148 0.0
156 0.0
161 0.0
164 0.001032
153 0.000995
88 0.0
51 0.0
46 0.0
61 0.000965
97 0.0
117 0.001007
128 0.002028
127 0.000997
120 0.0
118 0.000981
121 0.00199
130 0.00103
142 0.0
151 0.0
160 0.0
166 0.001028
168 0.0
131 0.001028
74 0.001035
39 0.0
47 0.0
65 0.0
85 0.000997
105 0.001016
120 0.001002
121 0.001001
118 0.0
116 0.002039
121 0.001032
129 0.001203
140 0.001032
153 0.000965
161 0.0
168 0.000969
169 0.001997
140 0.001998
67 0.001047
41 0.000994
45 0.000987
64 0.001966
96 0.000969
114 0.002026
123 0.001965
122 0.0
119 0.000999
121 0.000995
127 0.002028
134 0.001996
147 0.00101
157 0.001012
166 0.000998
173 0.001995
181 0.001038
167 0.002003
113 0.002003
61 0.002999
44 0.000998
60 0.001001
81 0.001007
100 0.002998
119 0.002996
131 0.000982
129 0.001
125 0.000992
129 0.001004
136 0.001017
144 0.001995
153 0.001993
164 0.002028
171 0.00201
178 0.002007
183 0.002999
186 0.002991
167 0.00205
110 0.001024
61 0.001008
53 0.000987
73 0.00101
93 0.001988
113 0.001984
132 0.001994
132 0.00199
126 0.001966
122 0.002988
124 0.00297
132 0.002026
141 0.002005
151 0.002025
165 0.001989
172 0.001992
177 0.002993
180 0.002995
170 0.002988
119 0.001029
67 0.002976
47 0.003028
55 0.003987
83 0.001991
106 0.001994
126 0.001991
138 0.001996
133 0.002005
129 0.002989
130 0.002991
138 0.001998
147 0.003007
157 0.002997
167 0.003997
175 0.003992
185 0.001976
189 0.002984
175 0.001988
119 0.002991
62 0.002003
41 0.00399
51 0.002992
80 0.002995
102 0.002994
123 0.002991
136 0.003995
138 0.003985
133 0.002984
132 0.002982
140 0.002989
149 0.002994
160 0.003953
170 0.004953
179 0.004005
186 0.004982
192 0.002966
184 0.002962
135 0.00299
72 0.003982
40 0.003977
48 0.00299
79 0.00399
108 0.002994
128 0.003991
136 0.002993
134 0.00399
128 0.004981
127 0.003989
131 0.003988
140 0.003995
150 0.004984
161 0.004999
173 0.002979
183 0.004986
186 0.003
160 0.00398
94 0.003988
42 0.004981
30 0.004986
54 0.003988
77 0.004027
101 0.003975
122 0.004993
133 0.005018
130 0.003995
123 0.004986
128 0.004983
134 0.002978
144 0.003997
155 0.004994
167 0.004962
177 0.003991
184 0.003987
187 0.00399
165 0.004985
100 0.004997
33 0.005002
32 0.005974
62 0.004976
87 0.004952
111 0.004995
126 0.005987
126 0.005971
116 0.00397
112 0.004002
115 0.00395
122 0.004995
132 0.004988
148 0.00399
161 0.005975
171 0.00498
171 0.004947
136 0.004987
68 0.005984
19 0.005983
14 0.00502
36 0.004034
61 0.004977
86 0.005983
109 0.006966
116 0.004019
109 0.004992
103 0.004988
107 0.004963
116 0.004991
128 0.005977
139 0.005985
154 0.004999
162 0.004986
165 0.004009
138 0.006006
65 0.006967
9 0.006976
2 0.006971
24 0.006981
59 0.004983
84 0.004984
100 0.004989
102 0.005986
97 0.006029
91 0.004996
93 0.004984
101 0.004973
114 0.006985
127 0.006951
145 0.007001
153 0.006935
150 0.00598
94 0.005985
23 0.005984
0 0.006988
0 0.006988
19 0.004967
46 0.005979
73 0.005979
90 0.006959
92 0.005984
85 0.006975
83 0.006969
91 0.005989
101 0.005978
114 0.005985
127 0.006981
139 0.006985
150 0.006983
153 0.006973
118 0.00499
21 0.007978
54 0.006018
60 0.006975
72 0.007014
90 0.005981
103 0.005986
110 0.005983
111 0.007007
108 0.007017
107 0.005973
110 0.005985
114 0.005987
123 0.007946
131 0.007025
137 0.007977
141 0.007967
143 0.007016
126 0.005967
89 0.005996
58 0.007984
56 0.007018
70 0.005998
84 0.005983
97 0.005987
110 0.007945
114 0.006981
109 0.008015
107 0.007979
109 0.007004
114 0.007013
120 0.006986
126 0.007978
132 0.007977
139 0.007015
142 0.00698
133 0.006995
99 0.007015
59 0.00698
61 0.006982
74 0.007976
88 0.00798
104 0.006999
115 0.006983
118 0.00702
114 0.007978
112 0.007979
111 0.00703
115 0.005984
121 0.006975
134 0.006983
140 0.006972
144 0.007026
148 0.007026
143 0.006028
110 0.006021
73 0.006979
54 0.007158
61 0.007012
75 0.005992
89 0.006978
102 0.006976
114 0.007025
111 0.006966
108 0.006952
101 0.007024
109 0.006991
117 0.006947
127 0.006995
136 0.007023
144 0.007012
152 0.006984
146 0.006982
105 0.006974
33 0.00698
27 0.006025
41 0.006017
60 0.007015
86 0.007001
103 0.006984
109 0.00698
107 0.006975
103 0.007011
103 0.006988
108 0.006949
117 0.005991
132 0.005998
140 0.006001
149 0.006026
153 0.006017
150 0.006017
107 0.005984
54 0.006014
28 0.006018
31 0.006016
53 0.006981
73 0.006016
94 0.006016
110 0.007034
108 0.006983
103 0.007
102 0.005968
107 0.006027
115 0.006018
124 0.006013
133 0.005985
141 0.006025
150 0.006025
154 0.006025
126 0.006016
71 0.006041
33 0.005978
26 0.006025
39 0.006024
65 0.004978
85 0.005995
103 0.006018
110 0.006032
107 0.006025
102 0.00599
102 0.006003
108 0.006021
120 0.006017
129 0.005975
139 0.005982
147 0.00598
152 0.005022
146 0.005021
101 0.005019
48 0.005001
21 0.005986
22 0.005022
43 0.006029
70 0.006015
90 0.006022
94 0.005976
91 0.006031
86 0.004918
84 0.005016
91 0.005013
98 0.004993
107 0.005026
117 0.005017
126 0.005019
136 0.004987
125 0.005019
64 0.004986
31 0.005027
26 0.005021
42 0.004986
67 0.005001
101 0.004023
119 0.004988
126 0.005042
123 0.004994
119 0.004975
120 0.004982
133 0.004994
150 0.005026
164 0.004984
174 0.004989
178 0.004947
171 0.004036
106 0.003946
57 0.003953
38 0.003986
44 0.00399
62 0.00402
93 0.004985
117 0.005019
117 0.005025
105 0.005034
96 0.004983
94 0.005033
100 0.004946
111 0.004044
122 0.004034
133 0.003996
138 0.004041
111 0.003992
43 0.003991
15 0.003992
29 0.003992
49 0.003967
72 0.003028
93 0.002989
104 0.003001
100 0.004026
96 0.00399
96 0.003963
103 0.003965
112 0.00402
127 0.004022
139 0.00399
143 0.00399
94 0.003947
43 0.003992
19 0.003978
23 0.002992
39 0.003948
66 0.002983
87 0.00304
101 0.003024
104 0.003023
101 0.002993
100 0.003989
104 0.00399
117 0.003955
128 0.004005
138 0.003959
144 0.003968
134 0.003028
68 0.003023
31 0.003029
24 0.003026
38 0.003025
70 0.003032
90 0.002993
105 0.00403
109 0.002973
106 0.002985
105 0.002993
108 0.002992
115 0.00399
129 0.00399
139 0.002992
148 0.00203
155 0.002993
121 0.002992
68 0.002989
35 0.002995
38 0.002954
56 0.002992
76 0.003027
96 0.00299
112 0.002983
117 0.003023
114 0.003024
112 0.002031
114 0.002031
127 0.002031
136 0.002031
147 0.001995
158 0.002031
164 0.001989
165 0.001995
134 0.001995
79 0.001997
42 0.003035
48 0.002992
66 0.002027
86 0.002029
118 0.001995
126 0.002027
125 0.002028
119 0.002035
120 0.001995
125 0.002027
133 0.002036
142 0.002007
153 0.001
161 0.000974
168 0.001036
173 0.001053
173 0.000997
134 0.001044
78 0.001996
48 0.002005
53 0.001996
73 0.001994
93 0.001995
113 0.001995
127 0.001995
128 0.001996
121 0.002036
118 0.000963
124 0.002023
132 0.001028
141 0.001022
149 0.001037
160 0.001
167 0.000997
171 0.000997
171 0.000998
144 0.000938
77 0.000973
54 0.001996
58 0.002046
91 0.002035
112 0.000998
132 0.000998
140 0.000997
136 0.000997
129 0.000997
128 0.001005
132 0.000997
140 0.000998
150 0.001028
159 0.000997
167 0.000997
177 0.000997
180 0.001995
165 0.000997
112 0.001046
56 0.000998
50 0.0
64 0.000997
85 0.000997
106 0.000998
131 0.000997
138 0.000998
135 0.0
126 0.000997
128 0.000998
133 0.000997
141 0.000997
153 0.000997
163 0.0
170 0.0
176 0.0
177 0.0
128 0.0
75 0.0
52 0.0
68 0.0
89 0.0
111 0.0
131 0.0
142 0.000997
138 0.000998
132 0.0
130 0.0
132 0.0
142 0.0
151 0.0
165 0.0
172 0.0
178 0.0
176 0.0
137 0.0
70 0.0
54 0.0
62 0.00101
81 0.000998
89 0.030882
111 0.000997
142 0.001013
140 0.0
132 0.001046
130 0.001045
136 0.0
144 0.0
154 0.0
162 0.000998
170 0.00199
177 0.000986
174 0.000963
118 0.0
73 0.002028
61 0.0
78 0.001984
99 0.001027
128 0.0
143 0.0
145 0.0
140 0.000991
133 0.00103
133 0.0
139 0.0
147 0.0
156 0.000999
167 0.000962
177 0.000969
176 0.001004
122 0.0
87 0.000957
58 0.000957
62 0.00103
80 0.001029
108 0.0
127 0.0
138 0.0
138 0.000999
129 0.0
128 0.001043
131 0.001995
143 0.002042
152 0.000999
160 0.0
168 0.001996
173 0.001992
149 0.001007
99 0.000981
64 0.000991
58 0.001029
84 0.000958
104 0.002001
124 0.001997
140 0.001002
139 0.000993
133 0.0
130 0.00197
133 0.001992
142 0.001002
153 0.001028
162 0.0
171 0.002013
180 0.000995
170 0.002028
127 0.00202
79 0.000974
76 0.000996
90 0.001007
110 0.001996
129 0.001994
150 0.000999
154 0.000993
149 0.001028
143 0.001025
144 0.000953
151 0.000995
160 0.001966
169 0.002031
179 0.001972
185 0.000992
185 0.000998
157 0.002994
109 0.002991
77 0.001011
82 0.001
99 0.000989
130 0.000981
144 0.001987
149 0.002999
144 0.003036
137 0.002003
138 0.002004
143 0.002007
150 0.002993
159 0.002998
169 0.001023
175 0.001982
170 0.002025
128 0.000994
84 0.000994
66 0.004021
71 0.004048
94 0.001957
110 0.002019
125 0.001963
134 0.002988
135 0.00296
130 0.001959
131 0.001997
138 0.002002
147 0.002001
156 0.000998
164 0.002992
171 0.002992
174 0.002963
153 0.003
104 0.002969
67 0.003982
60 0.003981
77 0.001994
93 0.001992
118 0.001997
127 0.001982
129 0.001983
127 0.002992
127 0.004004
131 0.002989
137 0.002993
145 0.00299
154 0.003986
161 0.003951
170 0.002989
175 0.001987
165 0.003021
120 0.002038
76 0.001987
62 0.004022
72 0.00399
93 0.003001
108 0.003001
123 0.00299
131 0.003989
132 0.00398
130 0.003
130 0.002994
137 0.004031
147 0.002984
156 0.002983
163 0.002984
168 0.004031
173 0.004985
180 0.002992
184 0.002996
186 0.002988
179 0.00499
140 0.005
81 0.003004
73 0.004018
94 0.002984
110 0.002994
124 0.002008
136 0.005019
140 0.00497
137 0.004014
135 0.003993
137 0.003984
143 0.004983
151 0.004989
161 0.003995
169 0.005022
175 0.002989
180 0.003007
184 0.003025
187 0.004986
190 0.004974
183 0.002986
142 0.003956
100 0.003991
83 0.00599
90 0.005968
113 0.003991
134 0.004989
150 0.003988
151 0.003981
145 0.003982
140 0.004953
140 0.005988
145 0.003993
152 0.00399
159 0.004014
165 0.005955
170 0.005947
176 0.004962
180 0.004987
182 0.004992
172 0.004987
131 0.005028
89 0.005984
74 0.005973
86 0.003975
103 0.003981
120 0.003987
135 0.005983
144 0.005989
142 0.003986
136 0.005984
138 0.003993
143 0.004955
150 0.004973
158 0.005984
165 0.005979
173 0.004979
178 0.004998
182 0.00499
180 0.006012
150 0.006033
75 0.004997
64 0.005984
74 0.006981
97 0.004988
113 0.004988
128 0.004992
136 0.005983
136 0.005995
132 0.004983
131 0.004989
134 0.004989
140 0.005972
152 0.005973
162 0.006981
168 0.006981
175 0.006014
177 0.004992
155 0.005017
104 0.006954
67 0.006988
63 0.004975
78 0.004997
96 0.004951
113 0.005975
136 0.005977
137 0.007022
133 0.007017
130 0.005017
132 0.005976
137 0.005019
145 0.006974
154 0.00699
163 0.004987
171 0.004989
176 0.005015
177 0.00698
122 0.004996
76 0.006981
59 0.007979
73 0.006
92 0.00597
111 0.005971
128 0.006996
140 0.007007
140 0.005993
135 0.005991
133 0.005983
134 0.006971
144 0.005988
152 0.006975
163 0.007956
169 0.007015
173 0.006017
175 0.005941
150 0.007967
86 0.007979
64 0.00603
69 0.005983
86 0.006017
105 0.007044
136 0.005989
145 0.007987
142 0.006941
134 0.005986
132 0.006982
135 0.006982
142 0.007975
150 0.007978
160 0.006977
167 0.006981
172 0.005982
171 0.007985
111 0.006013
59 0.007979
55 0.007978
76 0.006971
89 0.00698
108 0.006967
130 0.007017
137 0.007986
134 0.007977
128 0.005983
124 0.006037
127 0.00598
139 0.006977
149 0.006979
159 0.007013
165 0.007028
164 0.006991
127 0.006976
76 0.006979
49 0.007014
51 0.007013
68 0.006027
94 0.006979
107 0.006024
130 0.00698
128 0.006944
123 0.007011
121 0.007016
125 0.006992
132 0.006992
142 0.006984
150 0.007019
157 0.006881
163 0.006946
161 0.006983
70 0.006951
50 0.006979
49 0.006015
67 0.00689
85 0.006944
111 0.006974
125 0.006984
127 0.006983
122 0.007014
118 0.007014
118 0.006982
124 0.006964
136 0.006953
145 0.006977
156 0.006009
161 0.006015
157 0.006018
99 0.005988
56 0.006016
44 0.005957
54 0.006035
74 0.006015
101 0.006981
119 0.007005
125 0.007016
118 0.006979
112 0.006992
111 0.007039
115 0.006011
126 0.006022
135 0.006026
143 0.006017
149 0.005978
152 0.005969
118 0.005981
68 0.005988
36 0.006017
50 0.006016
70 0.005983
90 0.00598
109 0.007036
120 0.005986
115 0.005949
109 0.005976
108 0.006037
112 0.005984
122 0.005984
131 0.005984
146 0.005964
151 0.006016
154 0.006015
132 0.006016
77 0.00598
36 0.00502
30 0.005021
48 0.005033
67 0.004998
86 0.005
102 0.005026
110 0.004981
105 0.005018
103 0.006016
106 0.005976
114 0.004977
124 0.006026
133 0.006015
145 0.00502
151 0.005029
152 0.005031
127 0.005027
73 0.004981
29 0.004987
38 0.00502
63 0.005018
82 0.004988
100 0.00502
110 0.005017
110 0.005021
106 0.004991
106 0.005033
110 0.004972
117 0.005023
126 0.004944
139 0.003957
150 0.003992
157 0.003968
159 0.004033
129 0.004024
72 0.00398
35 0.005005
36 0.004005
55 0.004955
74 0.004987
93 0.005027
109 0.005058
114 0.004968
108 0.005022
107 0.005027
111 0.005002
118 0.005026
128 0.00399
137 0.00399
149 0.003959
155 0.004039
160 0.00399
162 0.004025
139 0.003962
68 0.003867
36 0.003993
53 0.003021
73 0.003992
93 0.003992
113 0.005024
124 0.00399
121 0.002994
116 0.004026
116 0.004051
120 0.003998
128 0.003992
143 0.003984
152 0.003991
162 0.004007
167 0.004024
171 0.003992
169 0.005022
133 0.002989
73 0.00298
35 0.002994
42 0.003033
61 0.003022
80 0.003989
110 0.003024
119 0.004047
118 0.003991
111 0.004021
111 0.00399
116 0.004034
123 0.003989
132 0.001995
145 0.002981
153 0.003977
160 0.003034
165 0.002992
153 0.003025
100 0.002977
51 0.003022
36 0.002992
51 0.002992
71 0.00296
90 0.002992
109 0.00298
122 0.003024
120 0.00301
115 0.003023
115 0.003022
123 0.002992
132 0.001986
142 0.002027
154 0.002027
162 0.002029
169 0.001995
172 0.001995
166 0.00203
101 0.001996
53 0.003016
38 0.001996
49 0.002971
84 0.001995
104 0.00302
121 0.002994
127 0.002992
122 0.002993
117 0.002992
118 0.002017
123 0.001995
134 0.001997
144 0.002025
154 0.001993
162 0.002028
171 0.001989
170 0.001995
138 0.00204
65 0.002992
40 0.001994
45 0.002036
65 0.001996
86 0.001996
115 0.001995
129 0.002027
129 0.002031
122 0.001995
117 0.001995
121 0.001995
129 0.001995
141 0.002007
149 0.002039
156 0.000998
163 0.00202
167 0.000998
141 0.000999
83 0.000998
40 0.000999
30 0.000999
59 0.000998
80 0.000999
103 0.000997
118 0.001007
121 0.001032
116 0.00103
112 0.002044
113 0.000997
119 0.000994
132 0.001029
142 0.001988
152 0.000997
164 0.002033
168 0.001995
147 0.002035
88 0.001986
33 0.001
31 0.000997
48 0.000997
69 0.000998
91 0.001009
116 0.000997
121 0.001043
113 0.000998
111 0.000997
113 0.001002
120 0.000991
129 0.002054
143 0.002029
153 0.001031
160 0.000997
166 0.001003
160 0.000998
91 0.000997
43 0.001005
36 0.000997
56 0.000998
78 0.000997
101 0.000997
120 0.000998
125 0.0
118 0.0
114 0.0
114 0.0
120 0.0
133 0.0
144 0.0
159 0.0
166 0.0
170 0.0
153 0.0
96 0.000957
37 0.000997
32 0.0
48 0.0
71 0.0
94 0.0
120 0.0
123 0.0
110 0.0
106 0.0
108 0.0
116 0.0
126 0.0
139 0.0
148 0.0
156 0.0
159 0.0
141 0.0
62 0.0
23 0.0
28 0.0
48 0.002042
78 0.0
99 0.0
108 0.0
106 0.0
100 0.002027
97 0.00204
101 0.0
110 0.0
120 0.0
131 0.001028
145 0.0
150 0.001042
143 0.001029
69 0.0
20 0.0
7 0.001008
18 0.002038
38 0.002038
66 0.0
85 0.0
94 0.0
94 0.00196
88 0.0
90 0.002029
98 0.002041
110 0.0
121 0.0
132 0.0
140 0.002031
146 0.002029
147 0.0
126 0.001004
45 0.0
10 0.001036
21 0.000957
42 0.001053
63 0.000994
89 0.0
100 0.0
100 0.0
96 0.002028
96 0.001999
103 0.0
111 0.0
122 0.0
133 0.000982
149 0.0
156 0.001008
160 0.000951
155 0.0
107 0.0
50 0.000998
24 0.001966
29 0.001995
56 0.001983
79 0.001032
103 0.0
117 0.002018
114 0.001
108 0.002028
106 0.002036
112 0.001001
120 0.00101
130 0.000986
140 0.001995
149 0.001995
158 0.001992
162 0.002959
160 0.001027
81 0.000986
34 0.001015
21 0.002009
33 0.002031
62 0.001997
85 0.002015
107 0.000953
115 0.002992
111 0.003024
103 0.002962
103 0.00099
108 0.002008
124 0.000988
134 0.001997
145 0.00103
153 0.00204
160 0.001995
162 0.001998
130 0.001981
65 0.001982
22 0.002989
15 0.002992
37 0.002
58 0.000988
93 0.001003
106 0.000987
108 0.000954
104 0.002992
101 0.00299
106 0.000967
114 0.001984
125 0.001995
135 0.002994
146 0.00298
158 0.001995
164 0.000996
141 0.000999
78 0.001
30 0.001004
17 0.002962
30 0.002993
59 0.001999
80 0.001951
101 0.00196
113 0.003991
114 0.00399
109 0.00103
109 0.002031
119 0.001996
129 0.002025
140 0.001999
150 0.002992
160 0.002992
171 0.000998
175 0.002952
169 0.002994
116 0.00399
57 0.003977
29 0.001993
43 0.001964
80 0.001977
103 0.001977
123 0.001983
130 0.002984
128 0.002988
121 0.002991
121 0.00299
126 0.002992
136 0.003987
146 0.003989
161 0.002039
171 0.002003
183 0.001998
185 0.001991
162 0.001999
102 0.004987
58 0.003989
50 0.003004
68 0.002991
92 0.002951
116 0.003989
138 0.003989
146 0.002037
137 0.002998
128 0.004017
129 0.001994
137 0.002996
148 0.00197
158 0.005038
168 0.005037
179 0.002993
184 0.002982
176 0.002993
125 0.005028
72 0.004987
51 0.002991
71 0.003989
101 0.003005
125 0.002036
144 0.002019
148 0.004986
142 0.004987
135 0.002974
135 0.002984
140 0.002993
149 0.004987
160 0.005026
177 0.004986
184 0.004986
184 0.002983
143 0.003027
83 0.003978
51 0.005987
53 0.005986
77 0.004002
99 0.003979
122 0.003989
139 0.005988
145 0.005984
137 0.004991
134 0.004975
139 0.003988
146 0.004005
156 0.003996
167 0.004987
177 0.005984
185 0.004024
184 0.003947
143 0.003992
87 0.005984
59 0.005982
72 0.006016
92 0.005984
122 0.003995
141 0.003986
148 0.004971
146 0.005983
141 0.006982
138 0.004992
143 0.004987
152 0.004978
162 0.006018
172 0.006017
186 0.005984
191 0.006015
167 0.00403
112 0.004021
75 0.00399
69 0.007018
85 0.006009
105 0.006025
135 0.004978
153 0.004971
158 0.004975
152 0.007027
142 0.004979
143 0.006982
149 0.006982
161 0.004986
171 0.004987
178 0.004991
185 0.006987
188 0.007001
162 0.004991
109 0.005952
74 0.005021
70 0.007015
99 0.004976
121 0.007024
142 0.007014
154 0.004989
151 0.004987
143 0.005
140 0.006975
143 0.007939
153 0.005985
162 0.005995
171 0.00598
179 0.006981
188 0.005969
181 0.006981
135 0.007023
74 0.005996
63 0.005983
74 0.005979
92 0.006981
111 0.007022
135 0.004988
142 0.006025
142 0.005959
134 0.007978
135 0.00598
140 0.007978
149 0.007979
162 0.005974
170 0.005988
177 0.005987
181 0.007979
174 0.007021
112 0.005981
71 0.006025
61 0.005969
79 0.007975
105 0.005975
123 0.00798
141 0.00798
142 0.006967
138 0.006008
135 0.005984
138 0.007993
142 0.007979
153 0.005967
163 0.00599
171 0.005986
181 0.007007
186 0.006018
179 0.007979
135 0.007979
75 0.005984
66 0.006991
79 0.005994
99 0.007979
125 0.007946
141 0.005988
146 0.006981
141 0.00697
131 0.006969
132 0.006981
141 0.006975
149 0.006988
158 0.007979
166 0.006961
173 0.006971
178 0.005985
178 0.008014
145 0.006995
81 0.006979
65 0.006993
78 0.006004
97 0.006981
123 0.006991
139 0.007025
145 0.007013
141 0.00698
137 0.00696
139 0.00698
144 0.007017
152 0.006982
160 0.006949
171 0.006967
180 0.006979
186 0.00698
187 0.006968
165 0.005988
111 0.005992
67 0.005945
70 0.005977
87 0.006983
105 0.005985
121 0.006982
141 0.006982
145 0.006991
140 0.006999
139 0.006986
143 0.006995
150 0.007024
157 0.007015
169 0.006012
176 0.005983
183 0.005985
188 0.006022
191 0.006017
181 0.005982
134 0.005967
73 0.005985
77 0.00597
95 0.006982
112 0.007029
129 0.006979
148 0.005976
152 0.005988
150 0.005986
146 0.006033
146 0.005999
153 0.005978
161 0.005983
175 0.006013
182 0.006897
189 0.005985
195 0.005951
199 0.006019
202 0.005985
191 0.006977
142 0.005984
97 0.006024
84 0.005022
102 0.006017
121 0.004987
151 0.005979
165 0.006018
167 0.006016
162 0.006017
158 0.006015
158 0.006016
165 0.00597
173 0.004988
183 0.005018
192 0.004987
199 0.004023
208 0.005022
213 0.005018
213 0.005007
183 0.005021
132 0.005017
102 0.004987
102 0.006011
123 0.005022
144 0.005032
165 0.004997
180 0.004956
184 0.00502
176 0.005022
167 0.005016
169 0.005014
175 0.004976
184 0.005019
193 0.005022
201 0.005035
208 0.004987
211 0.00403
208 0.004034
173 0.004026
121 0.004021
89 0.004004
99 0.004038
121 0.004022
142 0.004023
160 0.004021
169 0.004034
167 0.004039
157 0.00402
151 0.005043
150 0.003956
154 0.004021
163 0.004052
185 0.004988
198 0.005033
202 0.004948
170 0.004948
109 0.004956
69 0.003985
61 0.003948
79 0.003956
100 0.003955
121 0.003957
139 0.004021
145 0.003989
132 0.004032
125 0.004022
128 0.003941
137 0.002994
148 0.003028
158 0.004029
167 0.003991
174 0.004003
150 0.00399
95 0.003993
58 0.004004
51 0.003984
77 0.003993
98 0.004025
128 0.003991
140 0.003989
141 0.002994
137 0.002989
131 0.003026
132 0.002992
137 0.00399
145 0.003958
154 0.003989
163 0.003989
171 0.00399
138 0.003993
88 0.004024
61 0.003025
71 0.002989
91 0.002992
114 0.002992
135 0.003023
154 0.002993
158 0.003033
155 0.002992
151 0.002993
154 0.002992
161 0.002992
170 0.001995
180 0.003027
187 0.002992
191 0.002992
163 0.001995
113 0.002033
83 0.002992
92 0.001995
113 0.003025
135 0.003039
167 0.00303
177 0.003025
177 0.001995
171 0.001995
171 0.001993
175 0.002992
182 0.003026
192 0.00294
204 0.002972
212 0.002942
217 0.002992
202 0.002992
136 0.003005
124 0.002027
135 0.001995
159 0.001995
177 0.002139
193 0.002028
201 0.002035
202 0.001005
197 0.001995
195 0.001995
198 0.002025
205 0.002
217 0.001971
224 0.001993
229 0.001995
226 0.002037
191 0.002992
160 0.002025
153 0.001995
164 0.001995
185 0.001967
201 0.001995
214 0.001995
219 0.001962
213 0.002027
209 0.002
209 0.002005
214 0.001994
220 0.001995
226 0.00203
231 0.00099
236 0.000999
224 0.000997
190 0.001001
167 0.000998
174 0.00103
189 0.000993
202 0.001007
215 0.001997
222 0.001995
219 0.002041
214 0.001995
211 0.001016
212 0.001033
215 0.000997
222 0.000999
228 0.000954
233 0.001025
229 0.00101
201 0.000998
173 0.000997
166 0.001995
180 0.001983
194 0.002029
206 0.002039
215 0.001955
218 0.000997
212 0.000997
206 0.002027
205 0.001004
209 0.002025
213 0.0
218 0.001028
222 0.000998
224 0.001004
209 0.000997
177 0.001016
158 0.0
160 0.000997
176 0.001008
188 0.000998
203 0.000998
204 0.000997
200 0.001002
194 0.000998
191 0.0
193 0.0
233 0.0
240 0.0
247 0.0
252 0.0
250 0.0
212 0.0
154 0.000949
158 0.000997
176 0.000998
195 0.0
212 0.0
225 0.0
222 0.0
215 0.0
207 0.0
205 0.0
210 0.0
216 0.0
226 0.0
83 0.0
232 0.000999
219 0.0
170 0.0
127 0.0
132 0.0
149 0.0
172 0.000972
186 0.001008
194 0.002028
190 0.001995
176 0.0
173 0.001992
176 0.0
180 0.0
186 0.0
192 0.0
197 0.002026
200 0.002026
187 0.0
137 0.0
97 0.0
89 0.001025
113 0.0
129 0.002026
143 0.002047
149 0.0
140 0.0
129 0.0
121 0.002039
118 0.002026
122 0.0
129 0.0
136 0.0
141 0.002009
147 0.0
137 0.001991
92 0.001993
44 0.0
43 0.0
58 0.0
75 0.002001
90 0.00103
104 0.0
101 0.0
94 0.000991
87 0.000959
88 0.0
93 0.001028
102 0.00104
111 0.000967
115 0.000993
122 0.000968
119 0.002028
84 0.001996
31 0.0
20 0.0
32 0.0
63 0.0
81 0.0
96 0.002009
100 0.002003
100 0.0
105 0.0
111 0.001014
119 0.001994
130 0.001995
141 0.000986
146 0.0
151 0.0
146 0.0
109 0.0
62 0.001996
39 0.002026
48 0.001998
65 0.001993
81 0.000959
98 0.003034
103 0.002992
97 0.001994
90 0.001996
87 0.002006
94 0.001996
103 0.001015
113 0.002007
121 0.002025
130 0.001
126 0.001
84 0.001001
34 0.001987
13 0.002992
20 0.002993
45 0.001998
64 0.001993
87 0.002027
88 0.002
81 0.001969
77 0.003993
79 0.002993
87 0.001023
97 0.003993
108 0.000963
117 0.002992
124 0.002993
124 0.001997
83 0.001981
7 0.000983
5 0.001996
22 0.001994
43 0.003045
60 0.002993
80 0.002036
87 0.002007
84 0.001992
82 0.002993
83 0.004018
93 0.001006
102 0.001994
117 0.001018
126 0.002022
133 0.001995
139 0.003004
144 0.002991
128 0.001993
69 0.001021
19 0.001995
8 0.00399
24 0.003989
50 0.001993
66 0.002006
88 0.001996
90 0.000979
88 0.002001
84 0.003989
83 0.003989
92 0.001991
101 0.002993
109 0.002995
118 0.004017
125 0.004048
132 0.00297
138 0.002029
145 0.002003
150 0.003006
154 0.001992
158 0.00399
163 0.004028
170 0.002999
175 0.002989
181 0.003
185 0.004987
177 0.005023
92 0.00299
44 0.002997
54 0.002005
80 0.002001
101 0.001981
118 0.004031
129 0.004034
126 0.003003
120 0.002015
120 0.001996
124 0.00399
130 0.004987
140 0.003998
155 0.004954
162 0.004989
169 0.002988
172 0.002986
175 0.002994
180 0.004976
184 0.004957
188 0.003
186 0.002998
158 0.002959
109 0.005033
82 0.005984
99 0.004998
120 0.004975
145 0.00299
160 0.002988
165 0.003022
159 0.005018
152 0.004987
150 0.002989
154 0.003013
163 0.002812
170 0.005028
178 0.005984
187 0.005981
192 0.005984
196 0.003986
200 0.002961
202 0.003989
194 0.005018
153 0.004987
93 0.001979
84 0.003031
99 0.003033
124 0.005031
145 0.00598
170 0.005995
174 0.006
163 0.003987
155 0.003978
151 0.00399
152 0.005985
156 0.005984
168 0.004009
176 0.003994
183 0.003996
190 0.004987
195 0.006981
183 0.005929
132 0.005977
77 0.003991
78 0.003974
99 0.003961
122 0.005984
142 0.00598
162 0.004
161 0.003955
149 0.003999
137 0.006981
131 0.006017
136 0.006973
143 0.005976
157 0.00402
166 0.004988
172 0.004983
176 0.006981
157 0.005989
81 0.004019
50 0.004045
52 0.003992
72 0.005987
94 0.005989
128 0.004973
138 0.006979
136 0.006975
123 0.00499
118 0.004995
121 0.004984
130 0.006981
140 0.00698
152 0.004992
160 0.004994
165 0.005974
160 0.006982
61 0.005003
20 0.006965
19 0.007001
45 0.004988
67 0.004983
87 0.004994
103 0.007016
107 0.007022
101 0.004993
96 0.004998
95 0.005984
104 0.007934
118 0.004988
128 0.00701
137 0.00796
148 0.005975
151 0.00499
118 0.004994
48 0.007016
1 0.007979
0 0.004979
21 0.00599
44 0.005993
63 0.007978
85 0.005985
84 0.007975
80 0.00797
79 0.005988
84 0.005979
92 0.005977
102 0.007016
112 0.007007
125 0.005981
134 0.006035
141 0.005985
135 0.00598
78 0.006017
19 0.007995
0 0.007939
22 0.004987
46 0.005985
67 0.005985
87 0.007978
103 0.006983
106 0.00697
107 0.005959
111 0.005966
127 0.005982
142 0.005999
158 0.007973
179 0.007978
190 0.005992
196 0.005985
200 0.006951
203 0.007022
203 0.00702
189 0.006982
127 0.006029
81 0.00695
43 0.006016
59 0.006009
86 0.007966
103 0.006984
116 0.007956
123 0.006969
118 0.005985
111 0.005981
113 0.007017
122 0.007015
132 0.006973
144 0.006975
154 0.005966
160 0.006017
165 0.005977
171 0.006989
175 0.006972
174 0.005979
137 0.005976
83 0.005964
58 0.007012
63 0.007028
82 0.006964
97 0.00601
121 0.006967
132 0.006974
133 0.006962
129 0.006979
131 0.006945
140 0.006968
150 0.006941
160 0.005981
169 0.006026
176 0.006018
182 0.005951
186 0.005992
192 0.005986
196 0.005986
198 0.006966
203 0.006978
202 0.006982
139 0.006951
106 0.006979
84 0.006014
97 0.006026
113 0.006024
130 0.005983
140 0.00601
152 0.006003
151 0.005984
152 0.005987
156 0.006025
162 0.006018
173 0.005983
181 0.006966
187 0.006969
193 0.005985
197 0.005996
201 0.005958
204 0.005024
210 0.005953
213 0.005991
216 0.005983
217 0.005952
187 0.006027
125 0.006951
109 0.005018
119 0.00595
135 0.005029
147 0.005016
159 0.006056
166 0.005021
163 0.004981
159 0.004984
160 0.005984
164 0.00495
170 0.005018
177 0.005035
185 0.004987
189 0.004966
194 0.005975
197 0.006011
199 0.005979
204 0.005022
208 0.004986
211 0.004966
209 0.004994
177 0.004983
134 0.004988
117 0.004982
130 0.005018
147 0.005026
157 0.004986
165 0.004992
172 0.005027
172 0.004997
168 0.004985
170 0.003981
174 0.003996
179 0.004983
185 0.005009
189 0.003984
194 0.00498
196 0.004985
200 0.004987
202 0.005012
204 0.004924
207 0.004986
203 0.004956
155 0.004988
126 0.004987
124 0.005001
138 0.004986
152 0.004024
164 0.004027
173 0.004022
176 0.004023
174 0.00402
170 0.004001
168 0.003984
173 0.003983
177 0.003975
182 0.003983
187 0.004034
189 0.00499
192 0.00399
196 0.004023
198 0.00403
198 0.004004
196 0.00403
168 0.003976
115 0.004061
118 0.004036
135 0.004002
148 0.003985
155 0.003964
163 0.004046
164 0.003986
159 0.003002
155 0.003029
154 0.003029
157 0.003991
161 0.002993
171 0.003986
179 0.00399
192 0.003988
201 0.003967
208 0.003999
215 0.003957
221 0.003967
206 0.003028
159 0.003041
132 0.002987
128 0.002988
135 0.003024
149 0.002993
159 0.003025
166 0.003034
162 0.002987
154 0.002973
149 0.003977
148 0.002992
150 0.002029
154 0.003028
158 0.003024
163 0.002992
166 0.003033
170 0.002988
165 0.003027
128 0.002997
86 0.002891
82 0.002998
91 0.002993
103 0.002992
111 0.001994
123 0.00203
126 0.002032
120 0.001986
114 0.001996
111 0.001993
113 0.00203
118 0.003021
122 0.002973
127 0.002992
132 0.003004
136 0.002028
136 0.002992
91 0.001995
51 0.001996
38 0.002022
44 0.001995
64 0.00203
74 0.002032
84 0.002028
90 0.002005
88 0.002011
84 0.00199
83 0.001995
86 0.001997
94 0.002993
100 0.002026
108 0.000996
118 0.002045
118 0.00198
88 0.001993
44 0.002021
22 0.002029
29 0.002039
45 0.001994
58 0.001993
70 0.00204
82 0.002043
84 0.002019
81 0.001996
79 0.001946
84 0.001995
91 0.000998
98 0.000998
109 0.000963
115 0.000997
117 0.000997
92 0.000997
48 0.002043
22 0.001029
30 0.002045
46 0.000998
70 0.002026
83 0.001028
91 0.000998
92 0.000997
90 0.000999
89 0.000997
95 0.001035
102 0.000969
112 0.000997
121 0.000997
131 0.001996
134 0.000997
72 0.001997
44 0.002
41 0.0
56 0.002027
72 0.001028
93 0.000998
106 0.000999
110 0.000997
108 0.000998
103 0.000998
104 0.001004
109 0.000997
122 0.000998
129 0.000997
136 0.000998
138 0.000967
112 0.0
59 0.0
48 0.0
57 0.0
75 0.0
92 0.0
112 0.0
119 0.0
115 0.000925
112 0.0
114 0.0
119 0.001001
127 0.001004
138 0.0
145 0.0
150 0.0
127 0.0
86 0.0
62 0.0
72 0.0
101 0.0
118 0.0
132 0.0
136 0.0
132 0.0
128 0.001006
130 0.000997
134 0.000998
142 0.0
153 0.0
159 0.00204
164 0.00204
125 0.002025
87 0.00203
74 0.0
89 0.001008
101 0.000998
123 0.002025
137 0.001996
145 0.001978
143 0.0
139 0.0
140 0.001043
145 0.001028
158 0.002025
165 0.002005
173 0.0
179 0.0
164 0.0
123 0.0
94 0.001999
92 0.002026
112 0.0
128 0.0
144 0.0
159 0.0
158 0.0
154 0.002027
152 0.002025
156 0.000996
162 0.0
169 0.000976
175 0.001987
181 0.002037
186 0.000961
169 0.0
127 0.0
99 0.0
110 0.0
126 0.001991
142 0.001992
160 0.001003
165 0.0
163 0.001024
160 0.00199
159 0.002026
162 0.0
168 0.0
176 0.0
188 0.001016
193 0.001001
195 0.002993
172 0.002992
116 0.0
103 0.0
113 0.000965
129 0.002001
145 0.002038
164 0.0
172 0.0
170 0.0
163 0.0
163 0.0
166 0.002002
172 0.00201
180 0.000965
186 0.0
191 0.001006
194 0.002994
185 0.002998
129 0.0
100 0.0
99 0.0
124 0.0
138 0.0
152 0.001997
159 0.001998
156 0.0
153 0.0
151 0.000954
151 0.002998
156 0.002992
165 0.002004
170 0.001019
176 0.000999
182 0.0
178 0.001993
138 0.00198
97 0.001994
86 0.000965
99 0.000992
114 0.001996
128 0.002001
140 0.003023
147 0.003024
144 0.001994
140 0.002987
140 0.0
145 0.001992
150 0.001993
156 0.004001
163 0.002979
170 0.001984
174 0.002004
175 0.002025
147 0.003024
99 0.002993
71 0.001998
81 0.001995
107 0.001993
120 0.001997
132 0.001999
137 0.002983
135 0.003994
129 0.001995
130 0.001984
134 0.001995
139 0.004023
146 0.00402
155 0.001994
160 0.001988
168 0.001999
171 0.001996
164 0.001996
121 0.003959
79 0.003993
67 0.002991
81 0.001988
97 0.002011
112 0.004023
125 0.004024
134 0.002
131 0.002004
125 0.002987
127 0.001974
132 0.001999
139 0.003033
145 0.002975
154 0.001958
160 0.001995
165 0.001994
169 0.003989
163 0.004023
106 0.002039
66 0.003992
72 0.002003
90 0.001998
107 0.001968
121 0.004002
132 0.003974
136 0.001973
131 0.001989
128 0.002995
130 0.004989
135 0.004989
143 0.002056
154 0.00399
161 0.001994
168 0.001993
173 0.002005
175 0.003991
154 0.004006
89 0.002006
63 0.002955
67 0.003039
83 0.005037
101 0.004988
116 0.00503
135 0.004989
135 0.004989
130 0.001995
128 0.001985
131 0.002989
137 0.004994
145 0.004988
154 0.002008
156 0.009961
172 0.000961
179 0.00594
124 0.004985
80 0.005018
66 0.002967
80 0.002989
99 0.00296
117 0.004994
134 0.004988
144 0.003009
141 0.003028
135 0.002998
131 0.005984
133 0.005984
143 0.005975
151 0.005965
159 0.002994
166 0.002988
172 0.002994
176 0.004959
166 0.004989
101 0.002962
64 0.00299
57 0.003981
71 0.005984
91 0.006018
121 0.005987
135 0.005985
134 0.002993
128 0.002985
124 0.002993
124 0.005011
129 0.005959
140 0.002993
148 0.003981
155 0.003986
162 0.006005
168 0.006016
169 0.006019
125 0.005983
57 0.004003
42 0.003996
53 0.002973
72 0.005983
91 0.005985
114 0.003978
125 0.003007
125 0.005003
119 0.007013
116 0.006948
119 0.006982
127 0.006984
138 0.003991
145 0.003989
151 0.004
157 0.005978
162 0.005984
157 0.003991
110 0.003989
54 0.004006
29 0.006998
34 0.006981
67 0.007013
86 0.007949
105 0.006983
117 0.003952
115 0.003977
110 0.003991
109 0.006978
112 0.007979
122 0.004019
132 0.003951
139 0.003992
152 0.003987
158 0.004987
165 0.007015
169 0.007011
154 0.004025
97 0.004983
46 0.003995
31 0.006995
43 0.006987
72 0.004005
91 0.004999
108 0.004987
122 0.005004
118 0.004972
113 0.006964
113 0.006999
120 0.004983
128 0.004996
138 0.004986
146 0.006976
153 0.006981
162 0.004997
167 0.005983
170 0.005953
130 0.004988
72 0.004979
38 0.007995
42 0.007974
68 0.004988
90 0.004987
110 0.004986
126 0.008021
132 0.006982
126 0.005949
121 0.00602
123 0.005988
134 0.005957
144 0.005976
155 0.007944
160 0.007976
170 0.005974
176 0.006001
181 0.005987
185 0.007978
183 0.006975
137 0.004988
73 0.00502
40 0.004984
54 0.005971
77 0.005982
105 0.006985
124 0.006983
133 0.004974
132 0.005984
125 0.004974
121 0.007979
125 0.007977
133 0.005983
142 0.005979
152 0.005979
164 0.006028
170 0.005984
177 0.006995
181 0.006983
178 0.00698
157 0.005971
96 0.006013
46 0.006174
35 0.007011
53 0.006981
75 0.006936
95 0.006003
121 0.005967
123 0.005985
118 0.005985
113 0.006982
115 0.006989
125 0.006982
134 0.006979
141 0.00599
150 0.006985
157 0.006977
164 0.006978
169 0.006976
172 0.005975
165 0.004983
118 0.006013
41 0.006016
23 0.006014
37 0.00597
68 0.005989
93 0.006003
118 0.006974
136 0.006975
144 0.006991
142 0.006974
138 0.006035
141 0.006003
145 0.005971
150 0.005984
155 0.006042
162 0.006003
168 0.005989
170 0.006022
173 0.006018
170 0.005999
118 0.006002
63 0.00695
38 0.005969
52 0.005982
72 0.004996
94 0.005983
113 0.006
120 0.00498
114 0.00502
108 0.006022
105 0.006078
108 0.005984
120 0.006054
132 0.005975
145 0.005988
154 0.005975
163 0.005975
169 0.005987
166 0.005963
100 0.005023
46 0.005974
25 0.004983
35 0.005024
55 0.005985
84 0.005006
110 0.004987
121 0.004987
118 0.004976
112 0.004986
112 0.005995
115 0.005979
122 0.005008
135 0.004985
144 0.00496
151 0.005018
159 0.004985
166 0.005024
146 0.00498
83 0.004987
20 0.005016
18 0.004974
36 0.005003
57 0.004984
78 0.004967
103 0.004987
112 0.003943
112 0.003967
108 0.003989
105 0.003994
111 0.003995
119 0.003948
133 0.004981
142 0.004968
150 0.004989
158 0.004982
162 0.004986
136 0.004988
71 0.00399
19 0.004996
6 0.004973
21 0.00399
59 0.003989
80 0.003957
104 0.00395
109 0.003987
105 0.003956
100 0.003953
101 0.003956
108 0.00399
117 0.003952
127 0.004997
138 0.004996
146 0.00402
156 0.003977
161 0.003959
125 0.003955
55 0.003957
9 0.003951
6 0.004103
25 0.004
57 0.004983
81 0.003994
100 0.003986
107 0.004019
103 0.003032
93 0.003991
96 0.003989
105 0.003986
116 0.003956
127 0.003987
137 0.004034
145 0.004019
155 0.003991
157 0.003958
126 0.003982
56 0.003994
7 0.002992
5 0.002967
27 0.002992
55 0.003953
77 0.002994
92 0.002991
93 0.002937
85 0.002994
81 0.003954
86 0.001998
94 0.004005
101 0.004007
110 0.003025
119 0.002997
125 0.003032
132 0.003023
138 0.002995
122 0.002991
56 0.002984
0 0.003036
0 0.003024
0 0.002991
18 0.002976
45 0.001997
67 0.001995
82 0.002961
77 0.00203
73 0.002028
80 0.002952
90 0.002008
101 0.00299
113 0.003038
125 0.003026
139 0.002953
147 0.001982
156 0.002998
146 0.002994
81 0.002987
18 0.001975
64 0.001995
73 0.001985
86 0.001986
99 0.001981
111 0.001966
118 0.001995
117 0.002976
114 0.002007
113 0.002981
117 0.002956
122 0.001987
128 0.00203
135 0.002029
142 0.001989
148 0.001994
152 0.001986
156 0.002028
141 0.001964
93 0.001982
74 0.001974
77 0.001997
98 0.001992
112 0.001992
125 0.000997
135 0.001996
136 0.001992
131 0.000937
127 0.000954
124 0.002022
123 0.001995
125 0.001963
128 0.001992
130 0.002025
133 0.001981
133 0.001976
121 0.001985
94 0.000998
71 0.00103
71 0.000996
80 0.000993
92 0.000964
106 0.000967
116 0.000997
116 0.00104
113 0.000997
111 0.001014
114 0.001028
118 0.001028
122 0.001982
126 0.002004
132 0.001993
136 0.001996
139 0.001943
133 0.001011
106 0.000997
75 0.001041
73 0.000998
90 0.000997
101 0.001849
112 0.000982
119 0.002028
121 0.000997
120 0.001005
116 0.000999
120 0.001147
127 0.0
133 0.0
142 0.0
148 0.0
157 0.001004
162 0.0
166 0.0
168 0.0
159 0.0
105 0.000997
79 0.001048
78 0.000997
89 0.0
100 0.0
115 0.000997
126 0.0
133 0.000998
130 0.000998
128 0.001029
130 0.0
136 0.0
145 0.0
151 0.0
156 0.0
160 0.0
164 0.0
170 0.0
173 0.0
177 0.0
164 0.0
129 0.0
106 0.000997
103 0.000999
116 0.001002
127 0.001
139 0.0
145 0.000998
150 0.001008
149 0.002993
148 0.0
150 0.001999
155 0.002028
162 0.0
167 0.0
171 0.001014
175 0.002028
177 0.002028
181 0.001017
184 0.0
187 0.0
186 0.002992
146 0.0
125 0.003029
124 0.003
133 0.002999
146 0.0
153 0.0
160 0.0
163 0.002026
161 0.002027
158 0.000972
158 0.000983
161 0.001012
168 0.0
173 0.000998
177 0.001993
181 0.00203
186 0.000975
189 0.000995
192 0.0
193 0.002984
192 0.002982
168 0.0
143 0.000962
134 0.0
147 0.0
158 0.0
165 0.001999
172 0.001998
175 0.0
171 0.0
168 0.001018
167 0.002033
170 0.002995
174 0.0
178 0.0
183 0.0
190 0.0
194 0.0
196 0.002977
199 0.002993
198 0.0
178 0.0
152 0.0
143 0.001996
148 0.001993
162 0.000971
170 0.000994
175 0.0
180 0.0
177 0.0
172 0.00203
171 0.002994
172 0.0
175 0.000997
178 0.001006
182 0.003019
185 0.00302
188 0.000957
189 0.0
191 0.0
173 0.0
145 0.0
132 0.002001
135 0.001988
146 0.001008
154 0.000962
161 0.002983
165 0.002996
166 0.002994
162 0.002034
184 0.0
182 0.0
189 0.0
196 0.0
204 0.002988
210 0.001997
216 0.001989
223 0.000961
222 0.002
186 0.003001
132 0.003
106 0.003004
113 0.0
133 0.003011
158 0.002006
171 0.001999
176 0.001994
172 0.002994
162 0.003995
156 0.002167
159 0.002987
163 0.0
172 0.003991
181 0.004
188 0.001999
193 0.002987
190 0.002992
142 0.002999
88 0.0
70 0.003954
79 0.003992
103 0.001994
117 0.002994
131 0.000945
139 0.004021
135 0.003977
123 0.001999
117 0.003026
123 0.002996
129 0.002984
134 0.003011
143 0.003998
151 0.003987
156 0.002997
149 0.002998
97 0.001999
41 0.003991
21 0.003995
34 0.002028
56 0.004032
78 0.002013
88 0.001995
91 0.001996
86 0.005001
82 0.004159
82 0.002991
89 0.001996
99 0.002988
108 0.004002
116 0.003988
128 0.002982
136 0.003989
102 0.001984
36 0.002994
0 0.002012
0 0.00499
13 0.004987
39 0.001995
57 0.002999
70 0.001998
73 0.005016
68 0.004986
60 0.001994
62 0.00398
72 0.001989
83 0.002962
94 0.00201
102 0.004975
110 0.004992
115 0.004983
87 0.001995
24 0.001978
0 0.001994
0 0.004985
5 0.004984
42 0.004987
68 0.005984
60 0.003002
5 0.002977
0 0.002994
0 0.004987
0 0.004989
27 0.003004
34 0.002977
37 0.002996
46 0.004978
39 0.00498
49 0.00602
62 0.005018
13 0.00236
41 0.002994
29 0.00302
39 0.004979
55 0.004981
73 0.002988
84 0.003961
92 0.00296
94 0.005976
94 0.00598
96 0.006015
100 0.005984
109 0.003001
117 0.002993
124 0.002995
133 0.005984
140 0.005973
148 0.002991
151 0.003986
143 0.003988
109 0.005988
76 0.005993
67 0.005985
78 0.005979
92 0.003988
103 0.003028
111 0.004007
113 0.005982
109 0.005965
104 0.002988
104 0.002992
108 0.003989
113 0.006966
120 0.006982
129 0.005983
134 0.006015
137 0.004004
139 0.003993
131 0.003986
99 0.006982
70 0.006984
63 0.004997
73 0.003968
85 0.00394
96 0.007
111 0.004021
112 0.006981
109 0.00702
106 0.003987
109 0.003982
113 0.003969
119 0.003989
125 0.006985
130 0.007015
137 0.004991
141 0.004981
144 0.004987
133 0.00499
97 0.004972
70 0.006997
65 0.007011
78 0.003981
90 0.003987
101 0.004
112 0.007974
119 0.007956
120 0.00501
120 0.004989
122 0.004965
130 0.003991
136 0.004985
143 0.007021
149 0.006978
156 0.003975
160 0.003991
163 0.004987
158 0.007979
112 0.007962
82 0.004988
76 0.005984
85 0.004986
106 0.005017
116 0.004987
126 0.007978
131 0.007979
130 0.004987
128 0.004009
129 0.003991
134 0.007977
141 0.007974
147 0.004983
154 0.00499
158 0.004988
164 0.005014
164 0.004986
131 0.007961
97 0.007972
84 0.005036
90 0.003988
103 0.004019
117 0.006981
135 0.006968
145 0.005986
147 0.005968
145 0.005024
144 0.005982
148 0.006016
154 0.007979
163 0.007972
170 0.006037
176 0.004973
181 0.004988
182 0.007978
161 0.006975
124 0.005986
102 0.005977
102 0.005987
123 0.005968
137 0.00599
153 0.006978
160 0.006998
164 0.005989
166 0.005989
169 0.004986
177 0.007981
185 0.006974
191 0.007001
196 0.005037
198 0.006949
191 0.006991
178 0.006978
130 0.006968
106 0.006972
104 0.006962
113 0.004007
125 0.005981
138 0.006027
149 0.006983
150 0.006982
144 0.005975
138 0.005962
136 0.00695
141 0.005984
147 0.00698
154 0.006977
159 0.006981
163 0.006963
162 0.006002
139 0.006016
93 0.005981
81 0.006979
87 0.006019
104 0.005963
126 0.00598
135 0.005984
137 0.005988
133 0.005984
127 0.005989
127 0.006009
131 0.005981
137 0.005977
144 0.005996
150 0.005969
155 0.004985
148 0.006996
98 0.005977
75 0.005951
73 0.005982
84 0.005974
98 0.006015
116 0.005982
127 0.005975
131 0.005986
129 0.005978
126 0.005984
124 0.005957
130 0.006022
140 0.004983
146 0.004962
152 0.004978
157 0.005984
158 0.005019
120 0.005985
83 0.005985
70 0.004987
78 0.005948
92 0.005973
111 0.005981
128 0.006018
136 0.005942
135 0.005954
132 0.004995
131 0.005027
134 0.004989
141 0.004985
148 0.004985
155 0.004985
160 0.004988
164 0.004971
156 0.005977
107 0.005015
80 0.004956
85 0.004987
99 0.004989
114 0.005002
129 0.004947
139 0.003983
143 0.005019
141 0.004987
139 0.004985
138 0.004985
142 0.004983
151 0.005019
158 0.005036
165 0.004983
169 0.004948
171 0.004025
157 0.003919
119 0.003951
88 0.003996
90 0.004014
103 0.003991
118 0.004975
132 0.00399
147 0.005017
147 0.00499
142 0.004985
140 0.004986
142 0.004989
146 0.003986
152 0.003994
161 0.003974
165 0.003983
170 0.00399
173 0.003989
170 0.003967
115 0.004057
92 0.005019
96 0.005001
110 0.004979
124 0.003984
136 0.003971
146 0.003989
147 0.003981
143 0.003991
140 0.00399
141 0.003986
144 0.003986
154 0.004025
159 0.004007
167 0.00399
171 0.003022
173 0.002994
170 0.003957
143 0.004002
100 0.003959
92 0.004007
101 0.003984
114 0.003991
128 0.003988
145 0.004031
148 0.004022
142 0.003025
138 0.003026
140 0.003953
145 0.003024
151 0.002997
160 0.002989
167 0.002981
173 0.002071
178 0.004015
180 0.003981
159 0.003989
123 0.003018
97 0.003005
102 0.002992
115 0.00299
131 0.002993
144 0.00299
153 0.002996
157 0.002975
154 0.002991
145 0.002991
144 0.002992
148 0.002964
153 0.003028
157 0.003037
160 0.002992
161 0.002989
159 0.003006
139 0.003053
108 0.003026
89 0.002982
94 0.002864
106 0.002998
127 0.002027
134 0.002028
134 0.002011
126 0.002031
118 0.002053
116 0.00099
119 0.001998
124 0.002047
131 0.003035
142 0.00299
148 0.00301
145 0.002992
76 0.002993
39 0.003027
27 0.001995
30 0.001994
46 0.001995
74 0.001985
103 0.001965
129 0.001977
129 0.001995
106 0.001966
100 0.001991
109 0.001959
132 0.001994
137 0.001993
145 0.002022
153 0.00204
154 0.001994
118 0.001997
75 0.000974
60 0.002028
72 0.001994
102 0.000996
121 0.001984
137 0.001012
146 0.000997
138 0.001995
135 0.001995
138 0.002009
140 0.001994
145 0.002032
151 0.002015
159 0.001988
172 0.001024
184 0.000998
186 0.001038
161 0.000998
101 0.000998
95 0.001028
98 0.002026
108 0.001996
135 0.002029
143 0.001994
144 0.001995
142 0.001989
135 0.001996
130 0.000998
133 0.000957
139 0.000999
145 0.001004
155 0.0
165 0.000984
170 0.000997
175 0.0
163 0.001028
122 0.002023
93 0.0
88 0.0
96 0.0
101 0.0
111 0.0
130 0.0
125 0.0
115 0.0
112 0.0
113 0.0
114 0.000997
118 0.000997
127 0.000998
134 0.000997
136 0.0
134 0.0
131 0.0
84 0.0
64 0.0
63 0.0
67 0.0
78 0.0
95 0.0
102 0.0
92 0.0
68 0.001001
42 0.000973
13 0.0
13 0.0
43 0.0
64 0.0
67 0.0
57 0.0
66 0.000952
67 0.0
49 0.0
42 0.0
42 0.0
38 0.0
70 0.0
88 0.0
95 0.003029
106 0.003025
111 0.000982
97 0.000984
98 0.0
114 0.0
121 0.002028
120 0.000961
116 0.000975
119 0.001
123 0.002032
95 0.0
56 0.002003
25 0.002981
28 0.0
40 0.0
54 0.0
59 0.002992
61 0.00299
66 0.0
66 0.0
69 0.000997
74 0.0
87 0.000963
100 0.0
112 0.002025
119 0.001995
120 0.000963
118 0.0
97 0.001013
71 0.002993
61 0.002984
80 0.0
97 0.0
111 0.0
125 0.0
134 0.0
131 0.002991
123 0.002026
126 0.0
139 0.0
144 0.000991
145 0.001989
149 0.001991
158 0.000999
156 0.0
137 0.0
103 0.0
105 0.0
118 0.003024
138 0.003024
157 0.0
164 0.0
166 0.000967
164 0.002992
163 0.002975
164 0.001998
167 0.001991
173 0.000971
175 0.0
176 0.000968
175 0.002025
168 0.003031
139 0.001
133 0.000952
141 0.0
157 0.002995
172 0.002992
183 0.0
187 0.0
184 0.0
176 0.0
172 0.0
174 0.002026
179 0.002021
186 0.000964
188 0.001002
189 0.000999
190 0.002995
173 0.002986
142 0.0
144 0.0
155 0.0
172 0.0
182 0.0
187 0.00306
187 0.003057
181 0.000997
178 0.0
178 0.0
180 0.002993
183 0.002997
188 0.0
192 0.002989
191 0.001995
163 0.003
139 0.003002
137 0.003006
147 0.002992
156 0.002993
166 0.002042
174 0.0
177 0.001996
174 0.003019
169 0.002984
166 0.002964
169 0.004023
174 0.002971
179 0.001997
183 0.001995
187 0.00399
182 0.002981
147 0.002996
137 0.002995
145 0.003
157 0.003004
171 0.002994
182 0.001997
195 0.00399
198 0.002036
196 0.001994
196 0.002993
198 0.003991
199 0.00399
204 0.001989
205 0.001997
204 0.00298
203 0.003987
179 0.003989
153 0.002992
156 0.002992
169 0.002995
179 0.002991
187 0.003028
193 0.003989
192 0.003993
185 0.001002
183 0.0
185 0.002001
187 0.003986
192 0.003993
196 0.002997
198 0.003974
221 0.002999
158 0.003018
130 0.003007
135 0.004015
151 0.003983
173 0.002993
189 0.002995
199 0.002004
197 0.00402
188 0.003989
179 0.001996
180 0.004987
189 0.001999
195 0.002002
200 0.001998
204 0.005024
180 0.004986
98 0.002004
74 0.002997
82 0.002992
101 0.003999
119 0.003958
140 0.00198
142 0.005018
131 0.002991
121 0.002001
121 0.002004
127 0.00203
133 0.004995
140 0.004987
152 0.001995
151 0.002004
108 0.003
52 0.004972
32 0.005984
56 0.006014
80 0.005984
110 0.002981
121 0.002991
119 0.002993
112 0.004987
106 0.005032
109 0.001979
120 0.002991
127 0.003007
136 0.004968
144 0.005983
118 0.006019
53 0.005984
10 0.002028
19 0.003002
41 0.003025
59 0.006017
79 0.006032
93 0.002993
91 0.002992
86 0.002995
82 0.004974
86 0.004982
102 0.006021
115 0.005984
136 0.003023
139 0.002994
103 0.002963
39 0.007012
6 0.006016
15 0.002999
40 0.003987
62 0.003961
82 0.006971
96 0.004001
90 0.006018
85 0.005984
86 0.003996
92 0.004012
103 0.004988
117 0.006026
131 0.006022
144 0.003991
144 0.00396
90 0.003984
26 0.006999
7 0.00399
23 0.006982
42 0.007012
70 0.003989
86 0.003994
90 0.003973
87 0.005984
85 0.005976
93 0.003983
106 0.003985
116 0.002984
128 0.007012
146 0.003974
157 0.006981
164 0.007015
112 0.004019
44 0.003989
14 0.00399
19 0.00703
41 0.006981
70 0.002999
88 0.002977
100 0.00399
105 0.003991
102 0.005006
106 0.004994
116 0.006982
128 0.006983
147 0.00499
158 0.004023
171 0.003989
180 0.006977
193 0.00797
198 0.002995
182 0.003991
114 0.004984
30 0.004985
37 0.004985
66 0.007977
85 0.00798
106 0.004986
120 0.004988
125 0.004027
124 0.006989
123 0.007008
130 0.003988
144 0.003998
157 0.004981
178 0.005017
189 0.00499
199 0.007983
203 0.007954
213 0.004986
219 0.004989
224 0.004993
175 0.00798
94 0.007979
50 0.003989
53 0.003991
72 0.003939
107 0.005033
128 0.005944
145 0.007969
144 0.007979
136 0.004987
138 0.005006
146 0.00497
160 0.007007
174 0.007975
186 0.00396
197 0.003949
204 0.004985
216 0.005986
223 0.006007
195 0.007979
204 0.00798
129 0.005987
71 0.005986
56 0.006971
70 0.007979
92 0.007976
120 0.004985
137 0.005064
148 0.004997
143 0.005986
141 0.00602
150 0.006976
160 0.006962
172 0.005986
186 0.005984
197 0.005992
218 0.00602
244 0.00598
255 0.005024
255 0.005978
255 0.005983
234 0.006968
178 0.005987
119 0.007015
120 0.007032
138 0.00703
159 0.005985
187 0.005979
195 0.005987
186 0.00599
161 0.005982
136 0.005969
122 0.006993
124 0.005921
130 0.005999
136 0.005968
146 0.006985
155 0.007
156 0.005995
121 0.005985
46 0.005986
0 0.006982
0 0.006981
9 0.005983
42 0.00602
66 0.006017
82 0.005981
82 0.005984
77 0.007027
75 0.006938
80 0.006935
91 0.005983
108 0.005969
120 0.00599
134 0.006021
148 0.00501
164 0.007015
116 0.006972
8 0.005967
51 0.005984
54 0.005935
67 0.005998
88 0.006021
101 0.006003
111 0.005985
115 0.005966
112 0.005988
109 0.005967
112 0.006978
117 0.006977
124 0.006979
134 0.005992
140 0.004997
145 0.005022
150 0.005026
123 0.004987
80 0.005984
56 0.005985
58 0.005984
76 0.005984
95 0.00602
113 0.005988
122 0.005985
124 0.005954
121 0.004992
120 0.00502
124 0.004955
128 0.004989
136 0.004954
144 0.004957
150 0.005027
158 0.004987
157 0.005121
107 0.004992
72 0.005993
65 0.004996
76 0.005027
93 0.005022
113 0.005953
128 0.004986
137 0.004987
139 0.003982
136 0.003947
133 0.003992
137 0.004026
144 0.004997
155 0.005029
163 0.004986
169 0.00402
175 0.005018
173 0.005017
127 0.004987
91 0.004024
81 0.003974
88 0.003982
103 0.00399
129 0.004024
143 0.003983
151 0.003991
149 0.004982
146 0.00501
146 0.005003
149 0.004954
158 0.004974
166 0.004989
172 0.003996
180 0.003993
186 0.003958
155 0.003995
114 0.003991
97 0.004005
107 0.003999
121 0.004008
136 0.003992
153 0.004999
166 0.004999
167 0.003956
164 0.003956
162 0.004021
164 0.004005
170 0.004024
178 0.00402
187 0.003023
193 0.004001
195 0.003991
170 0.003989
127 0.004004
100 0.003979
105 0.004038
120 0.003995
137 0.00299
163 0.003027
170 0.00396
169 0.002993
166 0.00399
165 0.004032
166 0.003987
172 0.00402
179 0.005002
188 0.003988
195 0.003994
195 0.002932
164 0.003015
114 0.002993
112 0.002048
124 0.002992
147 0.003022
162 0.00303
175 0.00199
179 0.003024
178 0.002993
173 0.002993
173 0.002997
175 0.001999
180 0.00298
192 0.002992
198 0.002992
199 0.002985
171 0.002989
121 0.002992
110 0.003024
118 0.002988
132 0.002999
148 0.001995
171 0.001995
179 0.00298
180 0.001995
170 0.002057
168 0.002026
169 0.001996
172 0.00204
177 0.002989
181 0.003037
183 0.003025
166 0.003022
125 0.003025
94 0.002024
97 0.00301
113 0.001996
142 0.002022
159 0.00203
