58 0.02198
69 0.007012
82 0.007011
100 0.006976
111 0.006991
127 0.00699
140 0.007978
145 0.007943
155 0.007953
132 0.007974
62 0.006976
37 0.005984
53 0.005984
78 0.005983
99 0.006016
110 0.005979
126 0.003989
138 0.004984
148 0.003989
163 0.003991
168 0.003941
116 0.003982
46 0.003993
44 0.00399
66 0.003031
79 0.002955
99 0.001998
116 0.002006
127 0.001994
142 0.001995
157 0.000976
164 0.000965
163 0.000949
96 0.000966
37 0.000967
51 0.000998
65 0.000981
86 0.0
104 0.0
113 0.0
126 0.0
134 0.000968
148 0.000966
156 0.000968
132 0.002991
38 0.004991
18 0.005983
33 0.005973
56 0.006997
72 0.006984
88 0.00797
104 0.006969
125 0.006961
133 0.006951
150 0.007009
157 0.006982
146 0.006952
34 0.006926
19 0.00694
40 0.007949
54 0.006982
78 0.006951
99 0.00698
116 0.006019
129 0.006984
143 0.006003
158 0.007006
171 0.006953
166 0.005954
57 0.005963
27 0.005982
42 0.005951
63 0.005974
80 0.005985
101 0.00502
120 0.004983
130 0.00483
144 0.004021
155 0.003024
164 0.003005
177 0.002991
148 0.001993
27 0.001046
32 0.001994
46 0.000962
66 0.000976
86 0.001032
96 0.001054
115 0.001001
125 0.001004
141 0.000964
161 0.0
169 0.0
178 0.0
124 0.001
50 0.002009
24 0.001991
39 0.001966
59 0.001996
69 0.002976
79 0.002992
99 0.002991
113 0.00296
123 0.002956
136 0.002908
144 0.003003
154 0.004026
153 0.004001
68 0.005008
4 0.004982
6 0.00502
26 0.005994
48 0.006998
59 0.006985
79 0.006981
97 0.006985
109 0.006936
126 0.006982
138 0.00694
154 0.007963
162 0.007942
165 0.007974
116 0.006984
30 0.005981
29 0.005
45 0.004981
59 0.004985
74 0.003988
97 0.004986
134 0.004162
164 0.003982
255 0.00299
255 0.001948
255 0.001995
255 0.000952
255 0.000972
183 0.0
175 0.000996
180 0.0
183 0.0
182 0.0
181 0.0
179 0.0
179 0.0
179 0.0
178 0.0
177 0.0
175 0.0
172 0.0
159 0.0
151 0.0
146 0.0
144 0.0
144 0.0
144 0.0
145 0.0
146 0.000995
146 0.000973
147 0.000996
147 0.001009
147 0.00199
146 0.002025
132 0.002026
126 0.00299
124 0.003947
124 0.004947
125 0.004976
128 0.004957
130 0.004985
131 0.004996
134 0.004991
135 0.007024
135 0.007946
136 0.007951
131 0.00795
117 0.007008
109 0.006984
110 0.006985
111 0.007006
115 0.00598
117 0.006981
120 0.004986
121 0.00595
124 0.004975
127 0.003013
128 0.002948
130 0.001993
117 0.002996
82 0.002028
71 0.001999
75 0.000998
82 0.0
88 0.00096
97 0.0
103 0.000998
110 0.000973
113 0.000997
117 0.000996
118 0.000997
123 0.000997
124 0.0
95 0.0
55 0.0
44 0.0
49 0.0
60 0.001962
71 0.002959
76 0.002964
86 0.002994
91 0.003051
99 0.003993
108 0.004007
113 0.004984
121 0.006951
124 0.007928
128 0.007979
93 0.007973
58 0.007009
45 0.005987
51 0.007009
61 0.005035
71 0.005986
82 0.006013
88 0.006001
96 0.00598
105 0.004986
110 0.004986
119 0.004994
124 0.005174
130 0.004994
136 0.00402
136 0.002996
85 0.003027
62 0.003036
60 0.002992
67 0.003385
75 0.001948
66 0.002992
78 0.002994
85 0.002965
96 0.002991
102 0.002996
112 0.003035
122 0.00199
128 0.00199
135 0.000998
140 0.002002
115 0.001995
47 0.001991
38 0.001046
49 0.0
63 0.0
70 0.0
80 0.0
85 0.000998
97 0.0
106 0.0
112 0.000997
123 0.001994
132 0.002001
137 0.001995
113 0.001996
67 0.001995
37 0.001996
44 0.003989
55 0.002992
70 0.002992
83 0.002993
91 0.002993
102 0.003989
106 0.004025
117 0.004985
128 0.003989
134 0.004985
143 0.004977
142 0.004998
72 0.004983
35 0.004948
38 0.004958
53 0.005952
69 0.005967
78 0.005955
90 0.006981
97 0.006956
105 0.00702
116 0.007975
121 0.006987
131 0.006973
142 0.006982
145 0.005989
115 0.004988
41 0.003989
32 0.004348
40 0.003989
54 0.003991
72 0.001993
88 0.001995
96 0.001992
107 0.00202
120 0.00199
127 0.002
137 0.003013
143 0.001987
152 0.000993
160 0.0
156 0.0
74 0.0
45 0.0
45 0.0
59 0.0
73 0.0
83 0.000997
96 0.000966
104 0.000998
114 0.000997
125 0.002981
132 0.002939
143 0.002956
148 0.002953
158 0.002948
168 0.00399
166 0.003993
103 0.003996
64 0.004996
70 0.004992
82 0.005975
91 0.004983
104 0.006893
111 0.006983
119 0.006978
123 0.007962
133 0.007962
142 0.007016
152 0.007014
161 0.003973
167 0.004993
174 0.004027
168 0.004988
114 0.003975
98 0.003976
102 0.003992
112 0.003038
123 0.001977
130 0.001946
137 0.001976
141 0.002036
149 0.00095
155 0.001989
161 0.001039
164 0.001948
170 0.000995
171 0.000997
133 0.0
106 0.0
102 0.0
105 0.0
111 0.0
122 0.0
127 0.0
133 0.000997
140 0.001983
143 0.001995
152 0.001995
160 0.001995
163 0.001994
165 0.002954
141 0.002991
86 0.002962
85 0.002955
92 0.002956
102 0.003005
111 0.002958
117 0.002977
125 0.003958
131 0.003944
137 0.004994
145 0.004961
150 0.004989
156 0.004992
140 0.004956
95 0.006952
63 0.005989
71 0.00502
77 0.006014
89 0.006027
94 0.006033
102 0.004988
108 0.005019
113 0.005032
122 0.004982
127 0.004979
135 0.003989
141 0.00497
120 0.003992
60 0.003989
44 0.002996
50 0.002995
66 0.002966
81 0.000959
89 0.001997
100 0.0
106 0.001003
114 0.0
122 0.0
128 0.0
137 0.0
140 0.0
121 0.001011
60 0.000998
53 0.001036
63 0.00097
76 0.000958
84 0.001004
95 0.001021
103 0.001972
109 0.001986
116 0.001989
113 0.001996
118 0.002945
123 0.001969
122 0.002969
81 0.004956
39 0.004978
41 0.004988
52 0.005
59 0.004956
72 0.004816
81 0.005001
86 0.004992
92 0.004994
96 0.004951
104 0.005035
110 0.005962
106 0.004954
74 0.006982
18 0.006979
15 0.00701
24 0.006979
31 0.007012
47 0.00697
60 0.007848
63 0.007943
73 0.007975
82 0.006017
88 0.006943
99 0.005983
104 0.005984
103 0.005994
17 0.004939
5 0.004967
12 0.003957
31 0.003983
38 0.003955
55 0.003994
65 0.003013
75 0.002997
87 0.003958
96 0.003021
106 0.003961
115 0.002925
111 0.004001
26 0.00399
5 0.003989
6 0.003989
26 0.002035
40 0.00296
56 0.002028
72 0.00198
87 0.00099
101 0.000994
109 0.000998
125 0.000996
135 0.001292
148 0.0
116 0.0
55 0.000994
26 0.000971
34 0.000968
48 0.000984
73 0.001029
87 0.000998
109 0.001014
128 0.001995
139 0.001995
156 0.002005
168 0.001994
180 0.001995
194 0.002025
204 0.002992
196 0.002993
99 0.00295
79 0.002993
78 0.002963
90 0.002992
113 0.002992
133 0.002955
142 0.004023
156 0.004953
167 0.004986
174 0.004986
185 0.005015
191 0.004986
199 0.004988
208 0.005984
214 0.005984
216 0.005984
167 0.005984
107 0.005984
97 0.007978
110 0.007016
118 0.006011
132 0.004986
143 0.005984
154 0.004987
164 0.004987
171 0.004987
181 0.004984
187 0.00499
198 0.003037
209 0.003023
214 0.002995
218 0.002986
185 0.003043
140 0.002047
132 0.002992
141 0.001162
148 0.0
159 0.0
166 0.0
173 0.0
179 0.0
185 0.0
189 0.0
197 0.0
199 0.0
201 0.0
194 0.0
127 0.0
67 0.001021
62 0.000969
68 0.001995
79 0.001996
92 0.001959
103 0.002993
112 0.002961
121 0.002961
129 0.002963
134 0.002962
146 0.003
150 0.003035
156 0.002843
134 0.003959
68 0.00396
50 0.003956
60 0.004952
68 0.004986
82 0.005026
89 0.004988
98 0.004987
107 0.004987
113 0.005984
123 0.005984
129 0.005984
140 0.00603
152 0.006981
152 0.006982
89 0.007048
56 0.006982
65 0.006981
83 0.006981
92 0.007014
104 0.007088
109 0.007019
111 0.006981
115 0.007984
118 0.007139
124 0.00797
130 0.00798
136 0.00798
143 0.007021
143 0.006984
100 0.005985
59 0.005979
62 0.005984
77 0.005951
77 0.005018
75 0.005039
88 0.004987
97 0.004987
108 0.004036
116 0.004987
126 0.003989
134 0.003982
139 0.003989
139 0.003989
116 0.003989
94 0.002992
92 0.002992
97 0.002046
98 0.00201
104 0.001053
111 0.000997
115 0.000998
120 0.000997
123 0.0
128 0.0
136 0.001018
138 0.001965
138 0.001995
99 0.001995
79 0.001996
79 0.001995
84 0.003002
88 0.002955
100 0.00299
108 0.004034
116 0.003955
124 0.005032
130 0.004986
136 0.006023
143 0.006982
146 0.006973
130 0.007024
54 0.007015
24 0.007945
30 0.006019
39 0.007031
54 0.005963
68 0.00603
78 0.005027
88 0.004035
100 0.004035
104 0.004043
123 0.003025
130 0.003034
138 0.002015
87 0.002992
24 0.001992
1 0.001995
19 0.001008
33 0.000967
55 0.000997
68 0.001995
81 0.001965
92 0.001952
105 0.001965
118 0.001995
135 0.001995
144 0.001993
148 0.001853
71 0.002026
22 0.001994
18 0.002992
30 0.002961
52 0.002989
71 0.004987
82 0.004987
99 0.004998
109 0.005001
119 0.005
128 0.004986
141 0.005959
148 0.006018
151 0.006981
123 0.006985
33 0.007029
21 0.007978
35 0.007979
55 0.006975
67 0.007979
83 0.006981
94 0.005983
98 0.005985
105 0.005952
118 0.006017
129 0.005983
144 0.006017
151 0.006025
110 0.006015
32 0.006984
16 0.004986
21 0.004987
31 0.005014
46 0.004988
61 0.004986
69 0.004987
82 0.004986
96 0.004033
106 0.004986
123 0.00399
131 0.00498
142 0.001995
71 0.000998
11 0.000966
61 0.0
73 0.0
80 0.0
92 0.0
98 0.0
108 0.0
116 0.000997
120 0.0
130 0.0
139 0.0
142 0.0
149 0.0
145 0.000998
86 0.000967
67 0.0
69 0.001002
79 0.000998
91 0.000998
103 0.000998
115 0.00199
121 0.001995
130 0.00201
138 0.001995
143 0.001995
150 0.003018
154 0.003993
160 0.002993
163 0.004013
145 0.003024
84 0.003001
75 0.003989
78 0.004012
88 0.004023
99 0.005021
109 0.004986
120 0.004987
125 0.007023
134 0.007016
140 0.007007
146 0.007961
152 0.006986
156 0.007978
161 0.006975
168 0.005974
170 0.006023
132 0.005984
89 0.005029
87 0.005006
95 0.005004
103 0.005025
114 0.004989
121 0.005996
128 0.004975
133 0.005973
137 0.00503
144 0.005984
151 0.004987
155 0.004985
162 0.004987
167 0.003028
169 0.003989
174 0.002993
175 0.003989
135 0.002993
100 0.002992
100 0.002992
108 0.002992
114 0.003025
122 0.003026
130 0.001986
132 0.001994
137 0.00299
144 0.001996
149 0.001029
154 0.001992
160 0.001027
164 0.001997
168 0.002028
171 0.002027
174 0.002098
169 0.002001
131 0.000982
119 0.000997
121 0.000997
125 0.0
131 0.000998
135 0.000998
138 0.000997
140 0.000998
144 0.001957
149 0.001994
152 0.002024
157 0.001948
162 0.001994
164 0.002028
168 0.001994
166 0.002972
139 0.002938
124 0.002025
123 0.002986
128 0.002993
134 0.002992
141 0.001996
147 0.002991
147 0.00399
152 0.004985
157 0.004987
162 0.004987
168 0.005008
173 0.004986
180 0.005951
167 0.00695
135 0.006952
114 0.006987
117 0.006982
120 0.007023
130 0.007038
135 0.007024
140 0.006981
144 0.007013
150 0.007014
155 0.007012
159 0.006977
168 0.007995
173 0.006957
174 0.007984
141 0.007024
95 0.004985
93 0.004986
100 0.003994
108 0.003994
113 0.003993
119 0.002982
123 0.004035
130 0.004029
138 0.002995
145 0.00299
153 0.000972
159 0.003025
159 0.001989
114 0.003023
56 0.00101
39 0.00107
49 0.001188
59 0.000998
75 0.000991
85 0.001121
94 0.002992
104 0.002962
115 0.003056
122 0.002975
133 0.002991
139 0.003032
149 0.002966
119 0.00304
60 0.003991
12 0.004004
12 0.00399
31 0.00399
56 0.005985
70 0.005984
88 0.005986
100 0.007035
112 0.00698
123 0.007028
133 0.006985
140 0.006984
148 0.006981
150 0.006981
116 0.007023
46 0.00601
23 0.006981
34 0.005985
52 0.004988
64 0.00502
83 0.005011
94 0.004036
108 0.003997
120 0.004112
130 0.003028
141 0.001996
147 0.003019
156 0.000983
158 0.003027
118 0.000997
57 0.001994
47 0.001995
57 0.001058
77 0.000998
92 0.000982
104 0.000987
115 0.0
122 0.0
131 0.0
148 0.000996
157 0.001008
170 0.001965
178 0.001032
168 0.001996
83 0.002002
53 0.001993
57 0.001995
77 0.001998
88 0.002006
106 0.002965
118 0.00399
126 0.003957
137 0.005957
145 0.005983
156 0.006946
163 0.007048
170 0.00698
179 0.007008
144 0.007988
100 0.007951
41 0.007024
39 0.006025
48 0.007018
72 0.006025
87 0.007014
107 0.005019
125 0.004053
134 0.00399
147 0.003998
157 0.004029
169 0.004058
180 0.00503
201 0.004034
213 0.005022
219 0.005021
189 0.004988
104 0.004023
92 0.003998
102 0.003994
123 0.000953
137 0.002994
153 0.001995
165 0.001995
171 0.002044
178 0.001994
175 0.000996
185 0.000999
190 0.0
195 0.0
201 0.0
204 0.0
208 0.000965
183 0.000967
135 0.000968
90 0.000981
93 0.000963
98 0.001961
109 0.00198
116 0.0
124 0.0
132 0.001966
140 0.001995
149 0.001965
163 0.002009
179 0.001945
209 0.002004
227 0.001963
254 0.003958
255 0.003874
245 0.003993
181 0.004955
163 0.004958
158 0.004994
152 0.004955
150 0.004987
148 0.004958
150 0.004959
152 0.004984
156 0.004955
161 0.004955
170 0.005029
172 0.00504
178 0.005023
185 0.004945
188 0.004987
163 0.005021
104 0.00495
96 0.005984
99 0.006973
109 0.006981
116 0.007012
126 0.006942
131 0.006982
136 0.007018
143 0.007017
149 0.007011
155 0.007022
166 0.007021
170 0.007016
179 0.005025
184 0.006026
188 0.005008
152 0.005984
121 0.005984
108 0.005984
110 0.005984
117 0.004986
129 0.004025
134 0.006024
146 0.003015
154 0.001997
159 0.000997
164 0.000997
171 0.001008
174 0.000969
180 0.0
182 0.000998
185 0.0
176 0.000998
133 0.0
114 0.001002
111 0.000997
112 0.000998
118 0.0
124 0.0
129 0.0
135 0.0
140 0.000997
145 0.000997
154 0.000998
161 0.000997
169 0.000997
174 0.001865
180 0.001995
155 0.003045
130 0.00403
118 0.004033
120 0.004987
122 0.004987
131 0.004987
138 0.004954
145 0.005984
153 0.005978
162 0.005947
175 0.005988
182 0.00698
189 0.006036
196 0.006981
199 0.006002
156 0.006982
102 0.007013
96 0.006991
97 0.007013
105 0.00503
110 0.006019
114 0.005035
117 0.006029
121 0.003989
125 0.004987
130 0.00399
141 0.003989
149 0.004988
152 0.00399
93 0.00203
45 0.002025
27 0.003035
33 0.003024
45 0.001991
58 0.002992
68 0.001996
76 0.003043
87 0.002991
93 0.002992
113 0.002992
125 0.002992
141 0.002992
152 0.002029
148 0.00203
62 0.001996
17 0.001996
17 0.002032
28 0.002003
36 0.002046
53 0.001043
68 0.002992
76 0.001014
92 0.001035
106 0.0
119 0.000998
133 0.0
144 0.000998
151 0.000997
148 0.000965
97 0.000997
32 0.001995
18 0.001995
25 0.001995
40 0.001995
50 0.004001
69 0.004026
82 0.00399
88 0.003989
101 0.003991
112 0.004986
115 0.005019
127 0.00498
132 0.004986
146 0.004975
129 0.004986
76 0.004986
37 0.004979
38 0.005003
53 0.005998
65 0.00698
80 0.007079
90 0.006985
105 0.006982
111 0.006859
120 0.007014
126 0.006984
136 0.006979
149 0.007014
158 0.008002
157 0.00702
95 0.005045
58 0.005032
50 0.003954
60 0.003954
76 0.004023
93 0.003989
100 0.003035
111 0.003121
119 0.00399
127 0.003037
142 0.002029
155 0.000998
164 0.000968
177 0.0
185 0.0
175 0.0
103 0.0
59 0.000998
53 0.000997
63 0.000998
71 0.001017
88 0.001995
99 0.001995
111 0.001995
124 0.001995
133 0.001994
187 0.00199
218 0.002992
153 0.002958
240 0.004039
242 0.004987
229 0.005014
170 0.004987
105 0.004978
84 0.004999
80 0.00598
80 0.005947
81 0.005963
87 0.004984
95 0.005996
104 0.005984
112 0.006019
127 0.006022
137 0.005984
155 0.005984
176 0.007023
186 0.007003
199 0.006885
199 0.007025
160 0.006981
90 0.006995
79 0.007034
79 0.007024
84 0.007979
94 0.006017
100 0.00699
109 0.005984
113 0.005984
127 0.005985
140 0.005985
163 0.003978
179 0.003002
184 0.002992
187 0.001991
190 0.0
188 0.001008
143 0.001988
113 0.001999
107 0.001992
105 0.002993
109 0.002957
114 0.002993
115 0.002993
119 0.003024
125 0.002992
135 0.003992
141 0.00496
150 0.005019
160 0.005989
165 0.005994
167 0.006019
139 0.005945
103 0.006006
93 0.005961
94 0.005983
97 0.006982
106 0.006976
109 0.007978
111 0.006967
114 0.006988
124 0.007033
142 0.007015
153 0.006943
171 0.007
176 0.007025
189 0.005988
173 0.00698
135 0.004983
118 0.006017
113 0.005986
112 0.004991
116 0.004986
114 0.005018
117 0.004982
116 0.004037
122 0.004954
130 0.00421
141 0.003978
150 0.002981
157 0.003046
161 0.002977
143 0.001998
101 0.001983
90 0.002025
88 0.001986
91 0.002
97 0.00203
103 0.002992
110 0.002033
113 0.002987
123 0.002991
128 0.002957
140 0.002993
149 0.002993
159 0.003005
155 0.002103
131 0.003014
95 0.001001
89 0.002011
86 0.0
91 0.0
94 0.0
99 0.0
100 0.0
107 0.0
121 0.001021
133 0.000992
148 0.000998
158 0.001995
162 0.003028
159 0.003018
126 0.002995
102 0.004022
92 0.004028
93 0.003948
91 0.003889
94 0.00399
104 0.004931
107 0.005025
98 0.006025
107 0.005985
135 0.007019
156 0.007011
163 0.007015
172 0.007026
169 0.007013
169 0.007014
121 0.007011
82 0.006981
60 0.00698
66 0.006978
75 0.006968
89 0.007014
89 0.006977
98 0.007944
103 0.006982
107 0.007979
118 0.007978
124 0.006981
139 0.006977
157 0.00603
170 0.007019
176 0.006017
155 0.00596
109 0.004025
94 0.004002
94 0.00299
103 0.002996
119 0.003036
126 0.003002
133 0.002998
139 0.003027
151 0.003038
157 0.004025
168 0.002945
180 0.002991
188 0.003024
186 0.003025
140 0.002997
110 0.002983
88 0.00199
93 0.000995
100 0.002029
114 0.0
121 0.001033
132 0.0
143 0.0
149 0.0
160 0.000996
177 0.000994
189 0.000998
197 0.001047
187 0.000998
130 0.001005
86 0.000997
79 0.001995
80 0.001996
85 0.002026
87 0.002002
90 0.001981
96 0.001995
107 0.00198
117 0.003
133 0.002995
140 0.003991
155 0.002991
168 0.002028
145 0.004036
97 0.004032
60 0.003829
57 0.004986
59 0.004987
66 0.006032
73 0.007003
78 0.006939
83 0.006939
89 0.006937
108 0.006974
120 0.007979
129 0.006997
148 0.007847
151 0.005995
136 0.006006
74 0.005983
42 0.005984
22 0.006018
19 0.004984
23 0.00598
33 0.005026
37 0.001996
42 0.002026
48 0.00303
59 0.003036
74 0.002
93 0.002032
104 0.001
114 0.000994
106 0.002033
73 0.0
36 0.0
25 0.0
27 0.0
38 0.000997
47 0.000997
55 0.000996
64 0.000993
69 0.000996
83 0.000996
96 0.000998
111 0.002042
133 0.00399
138 0.00404
118 0.004035
55 0.004029
29 0.004024
17 0.00502
21 0.005025
27 0.006022
39 0.005983
42 0.006968
49 0.006978
63 0.005991
80 0.005973
101 0.005989
123 0.006989
163 0.005016
197 0.005976
184 0.004995
151 0.005984
101 0.005959
101 0.005016
107 0.00399
115 0.002033
125 0.003034
134 0.002031
146 0.001028
154 0.001028
169 0.001955
179 0.0
195 0.0
214 0.0
221 0.0
190 0.0
154 0.0
124 0.0
105 0.0
100 0.0
99 0.000998
152 0.001009
253 0.001954
255 0.000997
255 0.003052
255 0.002992
255 0.005985
255 0.006026
255 0.006982
255 0.007019
255 0.007018
255 0.00699
255 0.006933
255 0.006981
255 0.006978
255 0.007015
255 0.005985
255 0.007016
255 0.00603
255 0.005989
255 0.007979
255 0.005993
255 0.006975
255 0.004987
255 0.004987
255 0.004991
255 0.005023
255 0.004984
255 0.003008
189 0.004989
182 0.002992
179 0.004022
175 0.003002
173 0.002006
170 0.003013
165 0.003017
163 0.002993
162 0.00203
161 0.000979
162 0.001959
163 0.002037
163 0.002991
161 0.001035
151 0.003021
137 0.000999
129 0.001959
126 0.002031
125 0.000999
124 0.000986
124 0.001035
123 0.001029
123 0.0
124 0.001024
125 0.000996
128 0.001964
130 0.001956
135 0.002011
138 0.001962
137 0.001962
126 0.002956
119 0.002955
114 0.002959
114 0.003963
117 0.003957
120 0.00399
121 0.003961
123 0.00397
128 0.003959
134 0.005953
138 0.005985
148 0.005984
154 0.006016
164 0.006981
169 0.006989
166 0.006947
150 0.00702
141 0.007012
133 0.006815
132 0.007021
132 0.004937
134 0.006024
95 0.004986
73 0.005197
70 0.00502
68 0.004988
70 0.004036
70 0.006018
65 0.003987
54 0.003022
35 0.002994
18 0.002993
57 0.002993
54 0.00203
55 0.002992
58 0.0
59 0.00203
58 0.0
58 0.0
61 0.0
65 0.0
70 0.0
73 0.0
76 0.002043
78 0.001995
78 0.002002
69 0.001997
64 0.002992
61 0.002994
62 0.002993
65 0.002993
70 0.003026
70 0.003007
70 0.002975
71 0.003025
73 0.002995
78 0.003009
81 0.003996
85 0.004025
88 0.003983
86 0.005088
74 0.004987
64 0.005018
63 0.004987
64 0.004984
66 0.005021
70 0.004987
71 0.004983
71 0.00502
72 0.005024
74 0.005984
77 0.005988
82 0.005972
84 0.006978
87 0.007028
80 0.007944
73 0.00602
66 0.007979
62 0.005022
62 0.007018
65 0.005004
67 0.007016
0 0.004985
0 0.00495
0 0.004997
39 0.004976
43 0.00503
49 0.004953
50 0.005014
45 0.003993
42 0.005985
27 0.005017
13 0.002995
12 0.004987
17 0.002947
20 0.003991
29 0.004017
36 0.003989
47 0.004988
54 0.003991
63 0.005021
70 0.003031
72 0.003989
81 0.001992
83 0.001005
71 0.00101
51 0.001012
54 0.0
64 0.0
76 0.000964
82 0.0
82 0.0
80 0.000998
80 0.0
79 0.0
82 0.0
85 0.000997
91 0.000998
94 0.000998
90 0.000998
70 0.000998
53 0.000997
50 0.001858
51 0.002008
56 0.002981
58 0.002991
59 0.002993
59 0.003005
61 0.002984
64 0.002992
67 0.002993
67 0.004028
69 0.004989
65 0.005984
53 0.006056
0 0.00598
0 0.006935
40 0.006948
39 0.007013
42 0.007021
48 0.005989
51 0.006981
57 0.006028
60 0.007017
65 0.005036
69 0.005017
74 0.005018
80 0.002009
81 0.001991
71 0.001101
60 0.000983
48 0.0
46 0.0
47 0.0
49 0.0
53 0.0
55 0.0
59 0.0
60 0.0
68 0.0
76 0.000997
81 0.000998
88 0.000997
94 0.000997
93 0.001995
77 0.002042
61 0.002027
53 0.001945
51 0.001995
54 0.001963
59 0.003065
66 0.004029
68 0.003951
77 0.004038
83 0.00399
94 0.004998
111 0.00603
126 0.006002
157 0.006017
192 0.005989
211 0.005988
206 0.005984
192 0.005962
178 0.005981
172 0.006019
167 0.00602
166 0.005984
166 0.006002
174 0.005982
187 0.007018
201 0.006981
220 0.007981
238 0.00702
248 0.007978
255 0.00698
255 0.007929
255 0.007017
255 0.007029
255 0.005955
255 0.006985
255 0.006018
255 0.005989
255 0.005948
255 0.005986
255 0.005978
255 0.005985
255 0.005986
255 0.007978
255 0.005964
255 0.006981
255 0.007964
255 0.006982
255 0.006971
255 0.006993
255 0.005984
255 0.00398
255 0.005984
221 0.003985
223 0.002978
223 0.002991
224 0.002993
220 0.002993
220 0.002993
222 0.003983
222 0.003037
222 0.003989
222 0.002995
220 0.002992
211 0.00299
203 0.003015
192 0.002992
188 0.002004
186 0.001995
185 0.001029
185 0.001996
184 0.0
184 0.0
185 0.0
186 0.0
186 0.0
187 0.0
188 0.0
189 0.0
186 0.0
171 0.0
159 0.0
124 0.0
104 0.0
84 0.000961
72 0.000998
67 0.001995
62 0.003949
60 0.004028
59 0.004098
62 0.00399
66 0.00399
68 0.004061
72 0.003989
75 0.004024
75 0.003958
63 0.004023
57 0.00402
54 0.003989
54 0.003991
57 0.004009
61 0.005019
63 0.005058
66 0.004988
68 0.004994
70 0.005987
77 0.006988
80 0.005985
88 0.00695
93 0.007024
96 0.006977
95 0.00798
89 0.007011
83 0.00795
83 0.007981
84 0.007964
88 0.007061
93 0.004985
95 0.00603
99 0.003945
102 0.004987
106 0.00393
110 0.003998
113 0.003002
117 0.003022
118 0.003989
114 0.003006
105 0.003986
102 0.003005
104 0.003987
108 0.004039
111 0.00399
114 0.004002
114 0.003987
116 0.004035
119 0.001999
123 0.00399
128 0.002032
131 0.003986
135 0.001993
133 0.002006
125 0.001964
116 0.00196
113 0.002005
113 0.002077
114 0.002001
116 0.001995
118 0.002006
120 0.002992
122 0.001996
124 0.002984
126 0.002009
132 0.002995
139 0.00302
141 0.002992
127 0.002989
115 0.003027
107 0.00299
108 0.00103
111 0.001995
116 0.0
119 0.0
122 0.0
124 0.0
123 0.000968
126 0.0
136 0.0
140 0.0
143 0.0
134 0.0
115 0.0
113 0.0
115 0.0
139 0.0
165 0.001002
175 0.001005
192 0.001032
199 0.000997
202 0.000998
200 0.0
203 0.001031
199 0.001995
188 0.002983
172 0.002992
154 0.003991
147 0.003009
145 0.002992
149 0.003023
151 0.003991
151 0.005018
152 0.005036
156 0.004005
161 0.005033
165 0.00502
172 0.004989
173 0.005979
164 0.006981
145 0.007017
134 0.006981
129 0.006981
126 0.007011
128 0.006976
128 0.004956
126 0.002987
129 0.003983
130 0.002982
135 0.002022
139 0.002002
148 0.002
149 0.002005
136 0.001998
101 0.002
88 0.001976
74 0.000997
71 0.0
72 0.000997
74 0.001999
72 0.001005
72 0.000998
79 0.003001
84 0.004034
92 0.00399
98 0.004019
97 0.004031
88 0.003991
41 0.003989
10 0.005021
0 0.004952
0 0.005027
0 0.004974
0 0.004942
0 0.004901
0 0.004973
1 0.005022
18 0.005017
44 0.005025
58 0.005023
81 0.006009
97 0.006525
102 0.007978
84 0.006948
57 0.007015
48 0.006973
50 0.007979
54 0.006013
63 0.007942
70 0.007978
70 0.008119
84 0.007948
94 0.004993
102 0.007003
115 0.004978
124 0.006981
133 0.003992
133 0.004996
112 0.004984
80 0.003993
71 0.003989
66 0.004993
69 0.004989
74 0.003987
77 0.005031
80 0.005022
85 0.004987
94 0.00402
105 0.004984
117 0.004987
129 0.002992
138 0.004997
144 0.002996
129 0.004029
90 0.001995
70 0.00103
65 0.001991
71 0.00203
80 0.00198
84 0.001992
89 0.0
93 0.0
101 0.00095
111 0.002028
121 0.0
132 0.00203
145 0.002034
153 0.002059
155 0.000997
134 0.001011
99 0.000974
83 0.002029
77 0.002034
78 0.001995
83 0.001949
88 0.001994
95 0.002993
100 0.002992
107 0.002999
121 0.004025
129 0.00402
142 0.005022
165 0.003963
175 0.004021
181 0.005022
168 0.005039
120 0.006016
94 0.006019
89 0.005973
95 0.005984
109 0.006981
121 0.006972
124 0.00705
132 0.006982
146 0.007012
163 0.006847
174 0.007086
181 0.007978
191 0.007979
209 0.007946
216 0.006981
222 0.007979
192 0.006993
148 0.005002
136 0.004002
133 0.004
134 0.004001
144 0.003036
150 0.004
155 0.003993
162 0.003001
171 0.005032
185 0.003021
192 0.005136
201 0.003024
212 0.004021
222 0.004987
221 0.004986
181 0.002029
159 0.004035
142 0.003001
143 0.002994
145 0.003003
154 0.001998
162 0.002032
163 0.001996
174 0.001978
182 0.001021
199 0.002169
205 0.003028
216 0.0
225 0.002026
224 0.0
200 0.00203
155 0.002027
138 0.0
133 0.0
138 0.0
133 0.000824
130 0.0
121 0.0
118 0.000998
121 0.001957
129 0.002004
140 0.000998
151 0.001994
165 0.001996
177 0.000997
162 0.001996
106 0.00203
73 0.002956
64 0.00199
59 0.002993
57 0.002992
52 0.003033
34 0.003036
24 0.004021
23 0.003988
29 0.004021
44 0.003959
53 0.00399
59 0.004992
68 0.004988
66 0.004942
39 0.004982
0 0.005009
0 0.005984
0 0.005969
0 0.00599
0 0.00696
8 0.006987
21 0.005972
44 0.00693
75 0.006978
103 0.00598
124 0.005986
150 0.006022
154 0.005983
168 0.006024
167 0.007942
148 0.005974
110 0.007978
87 0.00598
85 0.007939
89 0.005983
94 0.006981
105 0.005012
111 0.007028
119 0.005022
128 0.004033
138 0.004023
155 0.002982
171 0.002989
181 0.002988
187 0.001968
181 0.002034
135 0.002981
110 0.005039
104 0.001995
107 0.004989
116 0.003028
120 0.002992
121 0.002994
125 0.004
135 0.003027
152 0.001972
164 0.003028
181 0.001996
197 0.000961
203 0.0
192 0.0
159 0.001994
119 0.0
107 0.0
109 0.0
116 0.0
123 0.001014
130 0.0
126 0.003029
131 0.001002
140 0.000998
155 0.000998
163 0.000998
169 0.000998
177 0.001001
186 0.000997
178 0.000871
131 0.000992
96 0.002029
68 0.002992
59 0.002993
58 0.002983
62 0.002958
61 0.004025
59 0.004998
52 0.004987
25 0.005021
22 0.005867
20 0.005977
18 0.005987
23 0.00599
28 0.005987
21 0.005978
0 0.005982
0 0.005988
0 0.007014
0 0.005988
0 0.006014
0 0.004988
0 0.005984
0 0.006019
0 0.004989
0 0.004986
6 0.003023
18 0.002952
60 0.00202
113 0.000958
140 0.002
161 0.001998
156 0.002023
135 0.001003
123 0.001996
117 0.00103
125 0.002029
129 0.0
133 0.002031
134 0.001036
133 0.000998
143 0.001032
164 0.0
179 0.002016
201 0.0
216 0.002029
227 0.0
221 0.0
211 0.0
158 0.0
134 0.0
124 0.0
133 0.002024
142 0.001995
143 0.001995
145 0.001995
149 0.002992
161 0.002956
176 0.003989
184 0.004024
193 0.004996
196 0.004955
200 0.004986
193 0.004979
157 0.00499
130 0.005991
123 0.006958
126 0.006989
132 0.007989
137 0.007983
138 0.007978
143 0.004986
144 0.005985
154 0.003998
171 0.00399
182 0.004022
199 0.003957
211 0.003953
208 0.003991
166 0.003993
143 0.00399
124 0.003993
127 0.005988
134 0.004022
145 0.004987
144 0.003994
147 0.003999
159 0.002992
165 0.002993
177 0.002035
192 0.0
204 0.002034
213 0.000998
206 0.000997
178 0.000997
135 0.000997
123 0.000998
116 0.000803
120 0.000998
127 0.001
134 0.001993
142 0.002993
148 0.002996
161 0.003038
174 0.00399
189 0.003991
202 0.004987
222 0.00502
234 0.004946
226 0.005875
194 0.005984
155 0.006009
148 0.005991
147 0.00598
149 0.005977
149 0.006016
150 0.006948
153 0.005984
158 0.005984
168 0.005945
180 0.004951
199 0.004986
211 0.004987
214 0.003996
223 0.003992
233 0.004961
227 0.003001
179 0.004987
141 0.002987
121 0.004987
114 0.005988
116 0.004979
123 0.004987
128 0.003989
120 0.001995
123 0.0
128 0.001029
146 0.0
164 0.000998
175 0.0
193 0.0
201 0.0
210 0.0
222 0.0
220 0.0
179 0.0
143 0.001995
134 0.001995
132 0.001964
137 0.001995
144 0.001995
155 0.001995
159 0.001964
167 0.002994
180 0.002992
192 0.002992
205 0.00396
217 0.003989
223 0.003989
236 0.004988
241 0.006983
246 0.006028
227 0.006966
191 0.006819
167 0.006969
164 0.006977
173 0.006951
186 0.006977
194 0.00695
200 0.005983
208 0.006984
214 0.005988
124 0.006982
247 0.006982
253 0.006987
255 0.005984
255 0.004987
255 0.00399
255 0.001981
255 0.003989
217 0.001988
197 0.001997
198 0.001995
203 0.001994
208 0.001025
205 0.0
206 0.0
208 0.000967
215 0.0
229 0.001989
242 0.0
193 0.002023
199 0.0
203 0.001942
207 0.0
201 0.0
177 0.0
168 0.000997
164 0.000997
162 0.000998
163 0.000997
164 0.000964
162 0.001013
163 0.000994
162 0.000964
164 0.000995
166 0.001994
172 0.00301
173 0.002994
178 0.002988
181 0.002981
175 0.003946
152 0.004006
142 0.004043
135 0.004023
136 0.003954
138 0.003983
142 0.004986
146 0.004988
147 0.005993
152 0.006019
155 0.005964
160 0.006017
165 0.006022
170 0.006027
178 0.007973
184 0.005986
180 0.00698
160 0.004982
147 0.006985
134 0.00399
120 0.002988
109 0.002978
101 0.003107
97 0.004987
93 0.002983
85 0.00499
78 0.00299
75 0.003993
68 0.002992
65 0.002992
62 0.002015
56 0.00105
47 0.002055
17 0.0
0 0.0
0 0.0
0 0.0
0 0.0
0 0.0
0 0.0
0 0.0
0 0.001006
12 0.001995
21 0.001994
36 0.001997
45 0.001994
64 0.001992
75 0.001963
77 0.002007
62 0.001988
56 0.001831
54 0.002992
55 0.003015
62 0.003015
67 0.002029
68 0.002961
70 0.002961
72 0.002993
76 0.004021
82 0.005035
88 0.005016
91 0.003959
97 0.004987
100 0.004009
95 0.004987
73 0.004988
69 0.006041
68 0.005985
73 0.006949
75 0.006951
77 0.006952
76 0.006976
81 0.006984
84 0.006929
88 0.006979
96 0.007013
105 0.007017
109 0.008017
117 0.007937
119 0.007977
110 0.007979
90 0.005982
85 0.007962
85 0.004991
87 0.003988
91 0.00399
95 0.003992
96 0.004129
96 0.003993
96 0.005022
100 0.002953
107 0.003989
116 0.002993
123 0.00299
132 0.002981
132 0.002992
113 0.003
96 0.002002
92 0.003024
91 0.001993
93 0.002992
99 0.000999
100 0.0
99 0.0
102 0.0
108 0.0
94 0.0
104 0.0
111 0.000984
113 0.001959
107 0.000998
96 0.001998
38 0.001992
44 0.002025
28 0.000997
15 0.002001
15 0.001995
22 0.002039
27 0.002012
34 0.001995
44 0.002984
58 0.003991
68 0.004989
81 0.006015
90 0.006951
100 0.006983
113 0.006991
114 0.007957
98 0.006016
85 0.005985
82 0.004954
84 0.004986
93 0.004953
98 0.004989
104 0.004991
109 0.004124
118 0.003989
127 0.004017
138 0.001999
145 0.00399
156 0.004025
161 0.00399
163 0.004027
156 0.004023
129 0.004023
107 0.001978
100 0.003026
96 0.001998
94 0.004117
93 0.001995
94 0.001995
95 0.001988
100 0.001996
103 0.002004
107 0.000988
116 0.000952
119 0.0
126 0.0
134 0.0
137 0.0
127 0.001994
103 0.001996
87 0.001995
81 0.001992
78 0.001995
76 0.001995
75 0.00399
75 0.003992
74 0.005029
78 0.006032
82 0.006025
87 0.006982
92 0.005999
94 0.005969
99 0.005981
106 0.005975
110 0.005986
107 0.005978
91 0.004974
73 0.004009
68 0.005982
67 0.003987
71 0.005032
78 0.005024
80 0.005044
83 0.005028
87 0.004005
92 0.00399
102 0.002002
107 0.002991
114 0.002945
123 0.002004
127 0.001998
132 0.002995
124 0.002031
105 0.001995
105 0.0
108 0.001998
116 0.0
125 0.000937
135 0.0
136 0.002038
141 0.000944
142 0.002031
147 0.001985
151 0.002025
157 0.0
161 0.0
170 0.002
172 0.002035
163 0.001996
147 0.0
136 0.000998
135 0.001023
140 0.001996
144 0.001995
153 0.002027
159 0.002035
166 0.001969
196 0.002994
228 0.002878
248 0.002992
255 0.002993
255 0.00399
255 0.005022
255 0.005055
255 0.005024
255 0.00502
255 0.005034
245 0.004988
243 0.004987
243 0.004987
236 0.006044
229 0.005993
224 0.005975
213 0.005978
211 0.006948
208 0.00697
205 0.006025
205 0.005986
200 0.005971
194 0.005018
185 0.005019
152 0.005984
128 0.005969
106 0.005941
98 0.007893
97 0.005989
97 0.007945
99 0.006058
102 0.006068
105 0.007022
109 0.006982
119 0.007015
127 0.004004
133 0.005029
140 0.002996
143 0.005
147 0.001995
130 0.003073
115 0.002978
106 0.002986
107 0.002007
108 0.001996
112 0.001991
113 0.002045
111 0.002009
111 0.003993
116 0.001001
120 0.004043
124 0.001182
131 0.00399
139 0.00303
143 0.002036
135 0.002031
111 0.0
102 0.00203
99 0.000975
99 0.002022
99 0.0
97 0.0
98 0.000998
98 0.002005
100 0.000999
104 0.002049
116 0.000997
120 0.00298
130 0.002946
137 0.002998
138 0.003039
117 0.00299
94 0.003037
88 0.002995
42 0.002992
44 0.003027
51 0.00399
52 0.002993
52 0.003035
52 0.003028
57 0.002998
71 0.004043
90 0.004035
96 0.004034
111 0.003988
121 0.005032
115 0.005019
64 0.005964
38 0.005992
13 0.00699
7 0.005984
57 0.005982
41 0.006988
25 0.006941
9 0.006034
64 0.006936
63 0.00698
65 0.006982
67 0.007979
71 0.005985
81 0.007016
88 0.002992
89 0.00402
80 0.002014
74 0.00502
69 0.001998
70 0.00203
74 0.001985
82 0.001028
91 0.0
97 0.0
106 0.0
114 0.000998
117 0.00102
123 0.000881
126 0.001004
131 0.001995
133 0.002028
129 0.00303
116 0.003043
111 0.004025
111 0.004979
114 0.005027
118 0.004995
119 0.00499
119 0.005017
118 0.005025
119 0.004974
122 0.005995
124 0.006066
127 0.005984
128 0.006979
130 0.00603
123 0.005009
114 0.005022
103 0.00399
102 0.003982
102 0.003989
105 0.003943
105 0.006017
106 0.003946
107 0.005015
108 0.002993
110 0.00502
114 0.004015
116 0.004027
109 0.00399
109 0.00195
100 0.002971
71 0.0
62 0.0
57 0.001991
58 0.0
59 0.0
62 0.0
64 0.002027
67 0.0
74 0.0
79 0.0
88 0.0
95 0.0
100 0.0
106 0.0
96 0.000845
70 0.001952
55 0.001996
53 0.001996
53 0.001961
56 0.001995
59 0.001995
63 0.001995
64 0.002028
65 0.001995
64 0.002992
65 0.003
69 0.003966
78 0.004023
85 0.004024
90 0.003986
74 0.005978
49 0.005953
29 0.005941
27 0.005984
32 0.006981
39 0.007978
48 0.006008
57 0.007969
64 0.007976
68 0.007977
78 0.00698
86 0.006949
103 0.006983
114 0.004023
122 0.006985
136 0.003993
143 0.005961
149 0.0
95 0.0
103 0.002947
111 0.003002
114 0.003018
118 0.001995
125 0.002973
130 0.002991
137 0.002
143 0.001995
148 0.001993
155 0.002015
159 0.001993
166 0.002001
163 0.000992
149 0.0
120 0.0
111 0.0
112 0.0
117 0.0
122 0.0
126 0.000997
129 0.002017
131 0.001991
136 0.001994
143 0.002988
147 0.002978
153 0.004963
159 0.006976
166 0.00698
170 0.005979
176 0.005951
171 0.004987
136 0.003958
110 0.00199
105 0.002957
106 0.0
110 0.0
112 0.0
117 0.000965
119 0.000969
122 0.000994
130 0.002002
136 0.001994
149 0.001958
175 0.00199
185 0.001995
194 0.002954
203 0.002959
206 0.003991
216 0.00399
214 0.003989
172 0.003962
127 0.003989
108 0.00597
100 0.006012
98 0.005974
101 0.005926
111 0.005941
115 0.005987
121 0.00598
133 0.005984
141 0.00695
153 0.006938
166 0.004986
173 0.004033
184 0.004027
194 0.002956
197 0.002993
206 0.001992
212 0.00204
218 0.0
207 0.002008
168 0.0
135 0.001994
117 0.001963
112 0.002006
111 0.0
114 0.001962
117 0.001972
114 0.001995
116 0.002829
121 0.002949
129 0.004021
138 0.004997
144 0.004961
154 0.004986
159 0.005952
166 0.004975
177 0.004983
186 0.005017
198 0.005998
202 0.006987
185 0.004942
151 0.006981
133 0.004973
127 0.006948
123 0.005978
123 0.006117
130 0.005984
133 0.002992
133 0.004986
141 0.001994
153 0.002004
163 0.001994
176 0.001995
184 0.002993
192 0.000997
197 0.0
196 0.000997
199 0.0
188 0.0
166 0.0
138 0.0
130 0.000997
137 0.000997
144 0.001994
148 0.001995
153 0.001995
158 0.002992
165 0.002992
171 0.00399
182 0.004005
193 0.003989
232 0.003989
254 0.004987
255 0.004985
255 0.004956
255 0.004948
255 0.004816
245 0.004984
195 0.005992
163 0.005987
158 0.005966
152 0.005995
149 0.005958
147 0.005942
146 0.004997
151 0.005944
154 0.003988
160 0.004986
173 0.002993
181 0.004988
189 0.004988
194 0.005139
204 0.00399
212 0.001991
211 0.002995
182 0.001995
157 0.002993
135 0.001963
126 0.002024
127 0.0
133 0.0
138 0.0
140 0.0
148 0.0
152 0.0
164 0.0
171 0.00196
179 0.001009
185 0.001954
184 0.001985
181 0.001992
174 0.000952
148 0.00085
120 0.001853
99 0.002013
95 0.001994
98 0.001955
100 0.001953
105 0.001996
110 0.001994
114 0.001824
121 0.003957
131 0.004942
137 0.004972
148 0.004952
158 0.005838
161 0.005973
161 0.005976
145 0.005983
109 0.005943
94 0.005984
93 0.006978
96 0.005983
104 0.00702
106 0.006969
112 0.006948
115 0.005984
120 0.004987
128 0.002961
136 0.004956
146 0.001994
156 0.003148
162 0.00302
151 0.002962
130 0.002025
94 0.002996
82 0.001996
80 0.001959
88 0.001993
92 0.001992
96 0.001996
101 0.003987
111 0.002025
117 0.002997
135 0.001994
147 0.001995
164 0.001995
168 0.000998
157 0.002962
110 0.0
88 0.0
75 0.0
64 0.0
60 0.0
61 0.0
59 0.0
58 0.0
60 0.0
66 0.001991
81 0.00199
95 0.001997
105 0.001995
115 0.003989
87 0.00494
52 0.004982
13 0.005985
0 0.005991
55 0.005979
52 0.005986
53 0.005984
56 0.005984
59 0.006981
62 0.006981
66 0.004994
73 0.003989
77 0.003988
87 0.002989
90 0.00302
95 0.002959
81 0.002991
64 0.002992
47 0.002974
42 0.003988
45 0.002019
47 0.00399
56 0.001997
64 0.003989
74 0.003022
82 0.003957
96 0.002989
106 0.002991
119 0.001965
129 0.0
139 0.002957
144 0.003989
148 0.00399
124 0.004988
107 0.004004
92 0.003837
86 0.004963
79 0.005955
74 0.006948
75 0.006951
75 0.00695
78 0.006958
80 0.006952
89 0.006981
94 0.00698
104 0.005984
113 0.006956
118 0.006012
128 0.007974
131 0.006014
134 0.007948
111 0.007882
98 0.00798
89 0.005981
90 0.003989
92 0.005986
100 0.003988
106 0.005997
111 0.002989
116 0.002983
119 0.001996
128 0.001998
137 0.002024
143 0.002024
150 0.0
160 0.001974
165 0.0
158 0.001999
138 0.0
123 0.001963
114 0.002026
114 0.001996
115 0.003035
119 0.002017
123 0.0
125 0.0
128 0.0
134 0.0
140 0.0
145 0.0
152 0.0
154 0.0
162 0.0
169 0.0
170 0.000959
149 0.000997
131 0.002989
122 0.003994
116 0.002992
115 0.003985
118 0.00396
125 0.002955
128 0.003955
128 0.003863
134 0.004991
138 0.004959
145 0.004986
146 0.005969
148 0.007938
154 0.005987
155 0.007979
159 0.005979
186 0.005984
186 0.00502
155 0.006011
124 0.004992
100 0.004991
87 0.004027
87 0.003978
94 0.003036
100 0.004963
107 0.003102
114 0.004957
124 0.002991
139 0.00399
160 0.003998
169 0.003768
183 0.002992
190 0.0
192 0.002988
199 0.001949
209 0.0
217 0.0
194 0.0
163 0.0
114 0.000994
101 0.001991
101 0.00297
104 0.003991
114 0.00296
116 0.005
105 0.003789
100 0.004988
103 0.003981
114 0.004978
126 0.004934
146 0.00598
158 0.005987
172 0.00599
181 0.005953
184 0.006955
167 0.007163
135 0.006028
120 0.00798
115 0.004989
121 0.005984
126 0.005988
137 0.003987
144 0.001994
151 0.001993
165 0.0
179 0.002992
192 0.0
206 0.001997
213 0.000997
223 0.002003
238 0.001991
242 0.002016
134 0.002995
177 0.001005
156 0.0
144 0.0
138 0.0
133 0.0
133 0.0
131 0.0
128 0.0
131 0.001994
138 0.001993
150 0.00203
156 0.002992
166 0.003036
173 0.002993
179 0.003034
186 0.004022
168 0.003988
141 0.003991
104 0.003994
96 0.004022
95 0.00503
97 0.006022
103 0.005985
105 0.006978
112 0.007991
117 0.00794
126 0.007014
144 0.004982
152 0.00702
161 0.003998
168 0.005971
173 0.003001
169 0.002989
146 0.002028
115 0.004986
92 0.001978
94 0.002001
102 0.0
108 0.002026
110 0.001005
108 0.002013
111 0.0
118 0.002
130 0.001009
140 0.001001
152 0.002039
162 0.001995
170 0.001997
160 0.002999
119 0.004012
101 0.005041
93 0.005035
95 0.005033
103 0.004987
105 0.005041
101 0.004993
93 0.00595
95 0.005985
97 0.005963
102 0.006978
107 0.006981
115 0.005984
119 0.0
115 0.000998
79 0.001995
57 0.001994
31 0.000997
9 0.015956
9 0.001997
12 0.0
26 0.002992
30 0.005984
38 0.00399
50 0.002992
58 0.001995
75 0.001995
87 0.002994
106 0.002991
119 0.00083
116 0.0
76 0.001969
48 0.002031
40 0.0
47 0.000959
58 0.001995
67 0.001995
77 0.002002
86 0.003955
97 0.004019
110 0.003973
116 0.003995
119 0.004024
124 0.003951
129 0.005981
137 0.007985
122 0.005953
97 0.007024
75 0.003956
71 0.003976
76 0.003006
96 0.000998
100 0.000997
103 0.006987
113 0.013963
116 0.0
139 0.000998
160 0.002992
173 0.000998
185 0.002993
174 0.000999
138 0.00299
106 0.003035
100 0.0
104 0.002044
106 0.001961
97 0.002961
89 0.002959
86 0.002961
84 0.003991
83 0.004987
89 0.005021
90 0.005984
83 0.006974
64 0.004983
10 0.005008
0 0.004984
0 0.007023
0 0.007194
0 0.005985
0 0.004991
0 0.003973
0 0.007018
0 0.007024
0 0.003985
0 0.00298
4 0.002995
12 0.006022
0 0.004029
0 0.00199
0 0.002991
0 0.001985
0 0.003024
0 0.003014
0 0.000964
0 0.0
0 0.000998
67 0.001837
77 0.002031
84 0.001995
94 0.00199
100 0.001996
101 0.00201
84 0.002033
71 0.002034
67 0.002003
67 0.002018
70 0.002965
74 0.002994
74 0.002993
77 0.003988
84 0.00598
90 0.00698
96 0.006946
101 0.006981
108 0.006981
114 0.005998
111 0.005984
94 0.005992
90 0.007979
90 0.007981
93 0.005986
98 0.005011
100 0.005046
103 0.007978
108 0.007981
115 0.004983
121 0.004985
126 0.003978
130 0.004987
137 0.002995
139 0.002983
123 0.000964
104 0.00299
93 0.002042
92 0.0
95 0.0
101 0.001994
107 0.000997
115 0.002999
122 0.002992
129 0.004023
137 0.003956
145 0.004019
149 0.003993
155 0.003959
159 0.003955
143 0.003975
105 0.004011
92 0.00396
97 0.005019
104 0.006934
115 0.006969
118 0.005985
121 0.006002
125 0.007016
135 0.006948
143 0.003988
152 0.003989
164 0.003993
170 0.005984
172 0.004978
141 0.002987
108 0.00404
93 0.002991
95 0.00601
98 0.004969
98 0.002962
81 0.003002
83 0.003009
92 0.006024
104 0.005017
129 0.001986
171 0.002991
220 0.002008
234 0.003997
214 0.00399
196 0.003
192 0.0
191 0.0
190 0.0
188 0.0
191 0.0
196 0.000998
210 0.000998
224 0.00187
237 0.002956
249 0.003955
255 0.003981
221 0.004981
183 0.004985
173 0.00499
168 0.005017
170 0.004988
174 0.004982
175 0.005018
175 0.004973
185 0.005984
200 0.006944
225 0.006983
227 0.006975
227 0.00699
218 0.007015
184 0.00695
148 0.006982
140 0.006104
145 0.00698
163 0.006985
178 0.005984
188 0.005951
199 0.005983
213 0.006979
229 0.007969
238 0.00595
190 0.004989
200 0.004986
206 0.007013
194 0.006981
179 0.003973
173 0.003987
177 0.002983
182 0.006006
187 0.004982
189 0.002993
192 0.001998
199 0.001992
206 0.003988
212 0.003989
217 0.001998
222 0.001941
218 0.002007
202 0.003987
184 0.003989
178 0.001993
182 0.001999
183 0.002996
183 0.002984
183 0.00202
184 0.0
188 0.0
190 0.0
192 0.001993
195 0.002003
197 0.0
184 0.0
162 0.000998
151 0.0
150 0.000962
153 0.000962
156 0.001011
155 0.000998
156 0.000996
159 0.002007
163 0.003009
166 0.002991
170 0.00303
173 0.003982
176 0.004023
191 0.003968
153 0.003958
131 0.004949
129 0.005991
133 0.007976
138 0.006986
140 0.00598
141 0.005965
147 0.004978
153 0.007979
164 0.007979
168 0.005028
167 0.004987
153 0.004988
105 0.00598
0 0.00599
18 0.003993
0 0.003979
58 0.004
55 0.005988
53 0.005987
53 0.002991
55 0.002995
58 0.002958
60 0.003985
64 0.002992
68 0.0
72 0.0
73 0.0
65 0.003001
62 0.002998
63 0.002992
66 0.003958
69 0.002959
70 0.004031
72 0.003019
75 0.005043
79 0.004003
83 0.004995
88 0.003988
91 0.005985
93 0.006018
88 0.006983
84 0.004988
83 0.004013
86 0.003996
89 0.004997
92 0.002997
96 0.00299
100 0.0
105 0.0
111 0.0
117 0.0
120 0.0
123 0.001999
118 0.000998
111 0.002992
109 0.002992
109 0.004021
111 0.002972
113 0.000997
114 0.0
105 0.003992
109 0.004987
118 0.003989
124 0.005984
130 0.005984
132 0.005985
121 0.005985
110 0.005984
105 0.006011
106 0.004987
108 0.005984
111 0.004983
112 0.002994
113 0.001995
117 0.0
122 0.003114
127 0.002996
131 0.0
136 0.000977
131 0.000965
113 0.001991
104 0.001963
104 0.002039
107 0.001996
111 0.001996
113 0.001032
116 0.003989
120 0.00399
126 0.002974
131 0.004006
137 0.003989
141 0.005983
144 0.005984
134 0.006985
123 0.00598
119 0.004989
120 0.004987
124 0.007951
128 0.006981
131 0.002985
132 0.002997
133 0.002968
136 0.004992
140 0.004989
176 0.001993
189 0.002003
204 0.001998
183 0.003962
137 0.003008
113 0.0
118 0.0
128 0.003995
133 0.003012
138 0.001036
143 0.0
131 0.0
120 0.003028
125 0.003024
141 0.000965
153 0.000997
166 0.001007
161 0.001
112 0.001007
74 0.003042
45 0.002992
39 0.003978
49 0.003983
55 0.004031
57 0.005987
72 0.006017
94 0.005981
122 0.005984
142 0.006911
155 0.007959
171 0.007978
161 0.003953
117 0.003965
98 0.003975
99 0.00697
112 0.005984
126 0.003022
132 0.004138
150 0.002984
169 0.006023
197 0.004014
221 0.0
227 0.001004
222 0.0
215 0.003039
168 0.002978
121 0.0
97 0.001032
99 0.001002
113 0.0
128 0.000959
129 0.000993
134 0.001024
150 0.002017
170 0.003982
187 0.002015
195 0.000946
207 0.00285
211 0.003028
167 0.003002
115 0.002967
98 0.002988
95 0.002983
102 0.00296
108 0.002972
109 0.004989
119 0.004956
131 0.005984
150 0.005985
166 0.006014
176 0.006984
189 0.006976
199 0.005987
189 0.004972
143 0.005989
107 0.006948
95 0.007018
101 0.005019
112 0.004029
119 0.005017
122 0.007012
134 0.006982
148 0.002992
163 0.001994
172 0.002038
181 0.004958
181 0.00399
154 0.0
84 0.002024
2 0.001028
0 0.003996
0 0.003989
0 0.003023
0 0.0
0 0.0
0 0.002976
7 0.004031
30 0.002999
47 0.003032
69 0.0
82 0.003004
92 0.002962
70 0.0
43 0.0
32 0.00102
33 0.003
48 0.003962
58 0.004986
63 0.00503
73 0.004987
90 0.004849
121 0.004987
154 0.004945
187 0.006979
205 0.006022
190 0.00502
146 0.005933
125 0.007979
125 0.007937
132 0.005974
135 0.005019
127 0.007947
127 0.007978
131 0.004978
137 0.004986
142 0.004974
149 0.007025
160 0.006026
142 0.003984
87 0.00402
60 0.004137
54 0.006029
58 0.005954
64 0.001995
69 0.000997
74 0.001951
85 0.002993
99 0.003034
118 0.0
139 0.000998
158 0.000998
168 0.002041
137 0.002012
94 0.0
81 0.0
83 0.000951
86 0.003037
92 0.003028
94 0.0
97 0.000951
106 0.0
127 0.0
144 0.0
156 0.0
175 0.001994
188 0.001992
177 0.00196
124 0.001996
103 0.001952
110 0.002946
145 0.002961
173 0.002948
184 0.002993
186 0.002959
192 0.002988
202 0.003995
209 0.00399
219 0.00399
226 0.003989
232 0.003998
239 0.004954
243 0.00499
212 0.004986
156 0.004995
118 0.004956
104 0.004986
104 0.005947
114 0.00599
121 0.005992
128 0.005987
138 0.005989
155 0.005968
170 0.006952
181 0.007978
196 0.004985
212 0.003991
227 0.002961
245 0.003959
243 0.00396
192 0.003001
155 0.0
143 0.0
145 0.002991
150 0.001996
156 0.000952
157 0.0
166 0.0
177 0.0
190 0.001977
198 0.001964
211 0.001965
222 0.002984
234 0.00299
184 0.003958
167 0.003989
139 0.003958
129 0.003991
129 0.003951
134 0.00399
136 0.003962
136 0.004985
141 0.004983
148 0.006817
154 0.006982
161 0.007018
168 0.006984
175 0.006014
180 0.005991
170 0.006021
149 0.007979
130 0.006978
125 0.002946
127 0.002996
132 0.0
132 0.004963
134 0.004989
140 0.002987
149 0.003008
157 0.0
164 0.002991
174 0.002996
183 0.0
183 0.0
158 0.0
139 0.002991
130 0.002992
127 0.0
131 0.0
137 0.0
143 0.000993
150 0.000997
156 0.000994
169 0.000998
184 0.00096
196 0.003029
207 0.003029
220 0.002993
227 0.003023
212 0.002991
188 0.002994
180 0.00299
181 0.004987
184 0.004987
188 0.006012
189 0.005986
191 0.006
197 0.006017
205 0.005983
209 0.00599
212 0.005871
218 0.008003
222 0.007972
224 0.005968
229 0.004987
211 0.004023
189 0.006981
173 0.00502
170 0.00296
171 0.001984
173 0.001993
173 0.00399
174 0.00399
174 0.002948
179 0.002991
183 0.002992
185 0.002028
187 0.0
188 0.000996
189 0.000999
173 0.000998
148 0.001995
137 0.00399
138 0.00399
142 0.00399
141 0.003958
139 0.005003
131 0.005029
128 0.005023
130 0.005974
129 0.005995
125 0.00497
121 0.003984
120 0.006982
101 0.006982
71 0.00399
55 0.004972
56 0.003991
59 0.005964
57 0.005951
48 0.00399
44 0.003023
49 0.001995
55 0.003989
63 0.0
70 0.0
75 0.0
64 0.003024
31 0.007976
22 0.000998
19 0.002992
33 0.00698
37 0.0
39 0.002991
42 0.002993
49 0.004986
55 0.005984
62 0.005984
68 0.005965
55 0.006015
30 0.005987
11 0.00597
7 0.00398
10 0.007013
17 0.005984
20 0.00305
25 0.002941
33 0.00198
42 0.004986
55 0.00512
67 0.002979
75 0.002982
59 0.0
39 0.003024
28 0.002019
28 0.000998
36 0.001993
45 0.001994
53 0.002992
63 0.002992
76 0.003991
91 0.00395
107 0.003988
123 0.003991
134 0.003991
133 0.00399
108 0.00603
92 0.005988
90 0.005949
94 0.006013
99 0.006015
104 0.004992
109 0.005872
114 0.005987
123 0.005955
130 0.007938
138 0.007017
146 0.003975
153 0.003971
141 0.003988
116 0.004988
102 0.004023
99 0.002994
104 0.002031
108 0.003988
109 0.003025
114 0.0
120 0.0
128 0.0
136 0.00299
143 0.003042
149 0.001004
154 0.0
142 0.000995
119 0.002028
103 0.002989
102 0.0
106 0.0
110 0.000999
111 0.00203
113 0.002968
118 0.002992
123 0.002973
127 0.003989
132 0.005955
136 0.005978
138 0.006016
118 0.00599
91 0.005974
71 0.006016
69 0.005984
74 0.005945
76 0.006981
79 0.005944
83 0.004944
94 0.004954
101 0.007932
106 0.007978
114 0.005012
122 0.004984
122 0.004989
102 0.006967
79 0.006982
73 0.003993
77 0.002995
85 0.003025
89 0.00598
93 0.006014
99 0.002992
108 0.002991
118 0.002991
124 0.003977
133 0.002992
141 0.0
133 0.0
108 0.003034
60 0.00304
58 0.001994
68 0.002009
82 0.000998
96 0.002021
105 0.003028
116 0.003026
136 0.003023
153 0.002947
172 0.002994
191 0.002992
203 0.00196
203 0.003047
156 0.003985
120 0.004974
115 0.003952
115 0.004987
123 0.004989
127 0.005978
136 0.005981
147 0.004995
158 0.005941
173 0.007934
183 0.004952
194 0.004938
206 0.004955
213 0.006978
170 0.006018
122 0.002994
104 0.00398
105 0.002994
114 0.006982
125 0.006016
134 0.002985
148 0.0
163 0.00095
172 0.002046
186 0.002995
197 0.000974
209 0.00096
194 0.000958
155 0.0
124 0.0
127 0.000998
138 0.002027
152 0.000971
151 0.002993
150 0.002993
154 0.003052
168 0.005023
180 0.003953
192 0.004842
205 0.003958
204 0.005021
158 0.005019
123 0.004989
121 0.004986
130 0.005994
143 0.005983
147 0.007979
149 0.004028
160 0.003997
177 0.004974
188 0.006417
202 0.005988
211 0.002992
217 0.002033
191 0.00399
125 0.00399
94 0.000936
89 0.002996
96 0.002014
105 0.003019
113 0.002638
125 0.000987
136 0.00095
143 0.000963
152 0.002994
164 0.003003
181 0.000951
182 0.000998
133 0.001032
97 0.001997
94 0.001979
102 0.001002
114 0.002946
122 0.002994
128 0.002991
143 0.002956
156 0.003991
170 0.003993
184 0.003947
200 0.003954
215 0.00399
199 0.006018
150 0.006936
135 0.005035
140 0.005979
156 0.004015
172 0.008
177 0.00797
183 0.003979
175 0.002969
184 0.003027
198 0.006018
211 0.00598
220 0.002991
213 0.002989
164 0.002991
135 0.002972
134 0.003028
148 0.0
163 0.0
167 0.0
166 0.00396
177 0.002985
189 0.0
203 0.0
215 0.000981
225 0.003023
221 0.003027
179 0.001036
137 0.000997
133 0.002994
147 0.004008
158 0.003991
158 0.003988
163 0.003992
169 0.006006
181 0.005035
192 0.006018
204 0.005976
217 0.005979
216 0.005016
169 0.006983
127 0.007932
119 0.007982
123 0.005022
137 0.003974
143 0.004988
146 0.006985
153 0.007015
166 0.002978
178 0.003984
190 0.002993
200 0.007031
203 0.007011
159 0.002992
119 0.002981
116 0.0
123 0.003991
139 0.003976
146 0.002991
151 0.003024
160 0.001004
171 0.002992
183 0.002981
195 0.0
207 0.000963
190 0.0
152 0.00401
125 0.003025
129 0.0
138 0.0
151 0.0
156 0.0
158 0.0
165 0.0
179 0.0
191 0.001049
203 0.0
205 0.0
175 0.001997
133 0.002001
124 0.003001
138 0.003985
151 0.005987
154 0.004989
155 0.004987
162 0.004988
173 0.004979
188 0.005768
195 0.005962
200 0.006017
166 0.005969
126 0.006022
120 0.005981
130 0.005996
144 0.007027
149 0.005965
150 0.005967
156 0.00398
163 0.007013
175 0.003011
187 0.003024
190 0.003938
160 0.005988
117 0.005987
106 0.004025
116 0.003001
128 0.001037
134 0.004982
138 0.004032
143 0.00297
156 0.0
169 0.00096
177 0.002992
178 0.0
146 0.0
101 0.002039
83 0.003982
76 0.004023
79 0.004
49 0.004986
0 0.005056
0 0.005015
0 0.004993
0 0.005047
0 0.00698
0 0.007018
0 0.004001
0 0.003995
0 0.003994
0 0.006981
0 0.006998
0 0.003988
0 0.005018
0 0.003986
0 0.007011
0 0.007012
23 0.001971
54 0.003033
57 0.001994
26 0.004023
6 0.002982
22 0.000964
55 0.0
91 0.001002
109 0.0
129 0.0
154 0.000997
187 0.002009
220 0.003028
195 0.003009
208 0.003044
205 0.003022
176 0.002998
162 0.003991
165 0.00402
174 0.003989
180 0.004015
181 0.004034
181 0.004039
186 0.004984
189 0.004994
195 0.004987
