58 0.011008
65 0.005014
80 0.004978
94 0.004017
104 0.00498
115 0.004986
122 0.005952
131 0.00595
141 0.004954
150 0.004931
155 0.004928
147 0.004958
62 0.004991
33 0.004958
41 0.004987
62 0.003989
78 0.005031
90 0.005014
101 0.005949
113 0.005952
126 0.004969
133 0.004964
144 0.004956
153 0.006021
163 0.004957
167 0.004985
116 0.005981
53 0.005955
40 0.005954
51 0.005954
66 0.004988
79 0.005947
93 0.00598
106 0.004985
116 0.004968
127 0.004958
142 0.004987
149 0.005956
158 0.006949
166 0.006952
163 0.005935
96 0.005952
47 0.005955
41 0.005952
51 0.005989
65 0.006956
79 0.006016
104 0.00502
111 0.006019
117 0.005953
126 0.006949
134 0.00698
143 0.00595
155 0.005946
158 0.005944
132 0.006003
54 0.005955
18 0.00598
18 0.005951
42 0.005979
56 0.006935
72 0.005984
84 0.006977
97 0.006947
112 0.005976
125 0.005963
133 0.005996
145 0.00698
151 0.006979
161 0.00598
146 0.005989
34 0.006926
19 0.00694
28 0.006939
50 0.00695
64 0.006937
78 0.006951
93 0.006952
108 0.006984
116 0.006988
129 0.006984
143 0.006003
152 0.006941
166 0.00693
172 0.006949
150 0.006939
57 0.006928
28 0.006946
33 0.006949
48 0.006976
63 0.006992
80 0.006982
92 0.006947
108 0.006981
120 0.006978
134 0.007021
144 0.006982
154 0.007022
162 0.007012
170 0.00695
177 0.006982
148 0.006949
68 0.006949
24 0.006942
32 0.007292
46 0.007945
57 0.006952
77 0.006979
90 0.007956
107 0.00796
120 0.007972
127 0.007937
138 0.006985
148 0.007011
161 0.007023
170 0.007935
178 0.007943
168 0.007982
67 0.006986
27 0.007984
24 0.007946
46 0.007978
51 0.007979
64 0.007943
69 0.007968
79 0.007945
96 0.006982
105 0.006974
117 0.007951
128 0.007013
136 0.007011
145 0.00698
154 0.00702
159 0.007966
122 0.007978
68 0.007967
4 0.007958
6 0.00797
11 0.007945
34 0.007965
41 0.007979
59 0.006985
76 0.006989
89 0.006985
107 0.007014
116 0.006949
126 0.006982
138 0.00694
148 0.006957
159 0.006985
165 0.006982
165 0.007012
116 0.007028
49 0.007019
27 0.006982
35 0.006978
49 0.006992
59 0.007012
67 0.006983
83 0.006954
108 0.006988
141 0.005987
164 0.00597
239 0.006956
255 0.006982
255 0.00695
255 0.006981
255 0.006998
255 0.007015
255 0.006969
179 0.007012
176 0.006947
179 0.00698
183 0.005982
183 0.005995
182 0.005983
181 0.006978
180 0.005984
179 0.006981
179 0.00698
178 0.006982
177 0.006981
177 0.00698
176 0.006981
174 0.006986
170 0.006981
159 0.006981
151 0.005984
147 0.005983
145 0.005984
144 0.005984
144 0.005995
144 0.005984
145 0.005978
145 0.005986
146 0.005969
146 0.006956
147 0.005983
147 0.005959
147 0.005996
147 0.005983
146 0.005996
132 0.006016
126 0.005951
124 0.005973
124 0.006016
124 0.005969
125 0.005982
127 0.005999
128 0.005984
130 0.004985
131 0.004996
134 0.004963
135 0.00502
135 0.004984
136 0.005964
136 0.005981
131 0.005953
117 0.005954
110 0.005989
109 0.005027
111 0.004989
111 0.005989
113 0.006024
116 0.00499
118 0.004991
120 0.004985
122 0.006034
124 0.004987
126 0.005995
127 0.005987
130 0.005989
131 0.00598
129 0.006018
98 0.004993
77 0.005017
70 0.004986
72 0.004991
80 0.004986
86 0.004982
91 0.004988
98 0.005019
103 0.004982
108 0.004986
111 0.004975
113 0.004988
117 0.00494
118 0.003988
121 0.003988
124 0.004942
116 0.004988
83 0.004992
55 0.004993
44 0.004966
47 0.004987
54 0.004991
60 0.004948
66 0.004988
74 0.004955
80 0.004955
86 0.004952
91 0.005047
99 0.004977
105 0.003953
110 0.003966
116 0.003962
121 0.00399
124 0.004997
126 0.004935
127 0.00494
93 0.005016
58 0.004953
46 0.004988
47 0.004024
59 0.003944
65 0.003957
72 0.003993
82 0.003957
88 0.003961
92 0.003964
98 0.003988
104 0.00403
110 0.004985
117 0.003988
121 0.00399
129 0.003979
132 0.003988
135 0.003943
136 0.003939
121 0.003957
74 0.003943
58 0.003945
58 0.003959
64 0.003999
69 0.003946
78 0.003989
66 0.003988
78 0.003978
85 0.004008
90 0.003989
98 0.003986
105 0.003959
112 0.002991
118 0.002962
125 0.00396
130 0.003956
133 0.003946
140 0.003952
128 0.003997
56 0.004058
37 0.003968
40 0.004034
47 0.00399
55 0.00399
66 0.004004
74 0.002992
79 0.002991
85 0.002992
91 0.002992
99 0.003989
106 0.002992
116 0.002992
123 0.003989
128 0.00399
134 0.003974
138 0.003986
113 0.002993
67 0.002992
40 0.002992
37 0.002992
44 0.003989
55 0.001994
66 0.002992
79 0.003992
88 0.00399
96 0.003026
102 0.001994
106 0.002998
116 0.003953
121 0.001995
128 0.001957
134 0.002991
141 0.002941
143 0.002972
122 0.002997
47 0.002958
35 0.002993
38 0.002991
47 0.002981
56 0.002998
69 0.003028
78 0.002962
86 0.002787
92 0.001946
100 0.001994
108 0.001994
114 0.001994
124 0.002993
131 0.003033
137 0.002996
142 0.002993
145 0.002993
115 0.002992
61 0.001961
36 0.001998
33 0.003022
40 0.002971
54 0.001986
65 0.001997
83 0.001976
90 0.001995
98 0.001995
105 0.001996
113 0.001989
121 0.001976
130 0.00199
137 0.001973
143 0.003003
148 0.002006
154 0.000975
160 0.00197
146 0.001995
74 0.001994
47 0.001957
42 0.00199
49 0.001984
59 0.002
73 0.002002
80 0.002013
90 0.000963
96 0.000966
104 0.000998
114 0.000997
122 0.001006
129 0.001007
137 0.001985
143 0.001964
148 0.001956
154 0.001996
162 0.001995
168 0.00103
166 0.002029
138 0.000942
90 0.000965
66 0.00102
73 0.000998
82 0.001988
91 0.000991
98 0.001991
105 0.001985
111 0.001997
119 0.00199
123 0.001043
130 0.000952
137 0.000976
144 0.000993
154 0.000996
160 0.001025
167 0.00099
172 0.001016
173 0.001002
159 0.001
124 0.001001
98 0.001966
100 0.00101
104 0.000965
111 0.000956
117 0.000954
128 0.000999
132 0.000998
138 0.000998
142 0.000992
146 0.000988
151 0.000994
157 0.001
161 0.002024
164 0.0
168 0.000953
170 0.000968
168 0.000957
121 0.001017
103 0.000994
102 0.000985
103 0.000997
109 0.001002
114 0.001006
122 0.0
127 0.000999
132 0.0
136 0.0
140 0.0
143 0.0
152 0.0
156 0.0
162 0.000998
165 0.0
165 0.000946
141 0.0
101 0.0
82 0.0
85 0.0
92 0.0
97 0.0
104 0.0
114 0.0
120 0.0
125 0.0
131 0.0
138 0.0
141 0.0
145 0.0
150 0.0
155 0.000998
157 0.001009
126 0.0
95 0.000997
63 0.000965
69 0.0
77 0.0
89 0.0
93 0.0
99 0.0
102 0.0
104 0.0
108 0.000997
115 0.000997
122 0.0
127 0.0
135 0.0
140 0.0
139 0.0
106 0.000971
60 0.000997
43 0.0
46 0.0
55 0.000964
66 0.00096
75 0.000967
86 0.0
93 0.0
103 0.0
109 0.0
114 0.0
118 0.000977
123 0.000972
132 0.0
138 0.000977
140 0.0
132 0.001966
93 0.000984
55 0.0
57 0.000965
67 0.0
74 0.0
82 0.0
88 0.000967
95 0.000967
102 0.001014
106 0.000997
111 0.000996
116 0.001965
113 0.00196
115 0.000997
121 0.001962
124 0.000997
107 0.000998
81 0.000999
40 0.000966
39 0.000965
47 0.000997
55 0.0
64 0.000997
71 0.00196
77 0.002031
84 0.000998
87 0.001978
92 0.000997
96 0.000999
101 0.000997
107 0.001998
110 0.00102
105 0.000997
97 0.00199
58 0.00196
18 0.001961
15 0.002033
24 0.000997
34 0.002034
47 0.000988
55 0.001006
61 0.001028
67 0.000985
71 0.001996
77 0.002021
87 0.001993
94 0.001992
99 0.002035
104 0.001993
106 0.001961
44 0.002967
10 0.00296
4 0.001997
12 0.001995
22 0.001982
34 0.001962
45 0.001992
55 0.002011
65 0.001018
71 0.002934
78 0.001963
87 0.002999
99 0.00296
106 0.002961
115 0.001963
117 0.001982
82 0.002026
26 0.002992
5 0.002992
4 0.00199
12 0.001996
26 0.002993
40 0.00296
52 0.002978
72 0.002947
81 0.002962
94 0.001994
101 0.001991
109 0.001996
119 0.002993
129 0.002992
141 0.001994
148 0.001964
135 0.001937
72 0.002992
36 0.002996
27 0.002989
34 0.003022
53 0.001996
68 0.002035
81 0.002038
96 0.003025
109 0.004008
124 0.002978
131 0.002988
142 0.003028
156 0.003017
164 0.003026
180 0.002992
191 0.002991
202 0.002043
206 0.00199
180 0.001993
116 0.003961
84 0.003989
75 0.002992
83 0.002929
95 0.002993
107 0.003962
128 0.003033
139 0.003994
148 0.004011
156 0.003048
162 0.00299
169 0.002992
178 0.003004
185 0.003961
193 0.002993
198 0.002992
202 0.002993
208 0.00399
216 0.002992
216 0.003989
187 0.003989
115 0.002992
100 0.002983
100 0.002992
110 0.003024
118 0.003984
127 0.00398
139 0.002989
147 0.002992
154 0.002991
164 0.003002
171 0.003004
176 0.003989
182 0.003989
191 0.00299
198 0.003037
204 0.002992
211 0.004025
217 0.004987
218 0.003984
199 0.004029
158 0.004023
133 0.003989
136 0.004026
141 0.004026
148 0.004026
157 0.003039
163 0.002992
168 0.00305
173 0.003989
178 0.00399
182 0.00396
187 0.003963
190 0.00399
197 0.003988
198 0.003939
199 0.004956
197 0.004987
166 0.003977
107 0.002999
71 0.003001
64 0.004945
64 0.004976
72 0.003993
83 0.003975
91 0.003961
100 0.003989
108 0.003989
115 0.00499
121 0.004991
127 0.004028
132 0.003983
139 0.004031
146 0.004979
150 0.005014
158 0.005027
153 0.004987
134 0.004988
59 0.004949
50 0.004015
57 0.005019
66 0.004994
77 0.004018
87 0.00396
92 0.003989
96 0.004986
101 0.004987
108 0.004987
113 0.004987
120 0.004987
130 0.005022
138 0.005028
146 0.004987
152 0.004987
152 0.004986
108 0.00399
66 0.003958
56 0.004986
65 0.00502
79 0.004995
88 0.004987
96 0.005022
107 0.005021
111 0.00502
111 0.005984
113 0.006017
118 0.00502
121 0.004987
125 0.005041
130 0.005985
136 0.005984
140 0.006037
143 0.006017
143 0.005984
75 0.005018
59 0.004979
62 0.004987
72 0.005939
77 0.005984
77 0.005018
75 0.006031
84 0.00503
90 0.006981
97 0.006982
108 0.006011
116 0.006989
126 0.005984
131 0.005984
136 0.004976
139 0.005984
139 0.005984
125 0.004987
100 0.004986
91 0.005032
92 0.006023
94 0.005985
98 0.005987
103 0.007021
107 0.006018
111 0.006019
115 0.006024
119 0.007014
120 0.006981
125 0.005023
131 0.005024
135 0.005985
137 0.006014
139 0.005984
138 0.00699
99 0.007027
76 0.005985
78 0.005984
81 0.006017
84 0.006976
88 0.006981
99 0.006017
106 0.006028
113 0.006018
116 0.006981
122 0.006981
128 0.007031
136 0.007979
140 0.007015
143 0.006969
147 0.005995
139 0.006982
91 0.006981
31 0.00597
24 0.006059
30 0.006983
39 0.007979
49 0.006981
60 0.006985
71 0.007934
80 0.007022
88 0.006984
95 0.007016
100 0.007985
110 0.006987
123 0.006015
130 0.006017
139 0.005968
136 0.006996
62 0.007984
5 0.007952
1 0.007022
17 0.007015
28 0.006935
41 0.007042
55 0.007012
65 0.007979
81 0.007978
87 0.007021
96 0.006958
105 0.007979
115 0.007978
129 0.007923
139 0.007979
147 0.007978
142 0.006981
92 0.007014
33 0.006982
15 0.007979
22 0.007014
35 0.007974
50 0.006981
61 0.007978
71 0.007933
82 0.007978
99 0.007925
108 0.007974
114 0.007027
127 0.006981
132 0.007024
142 0.006981
148 0.007004
152 0.006981
138 0.007023
82 0.007013
33 0.007029
20 0.006981
35 0.007979
50 0.007978
61 0.006981
74 0.006981
84 0.00698
92 0.006981
98 0.006981
102 0.007044
107 0.007025
116 0.006981
126 0.006981
142 0.006981
149 0.006981
150 0.007022
89 0.00602
32 0.006981
16 0.007027
18 0.00801
24 0.006982
36 0.006981
46 0.007015
55 0.006981
63 0.006983
77 0.006981
84 0.006981
93 0.006981
106 0.006982
118 0.006982
127 0.006981
136 0.005975
142 0.005981
119 0.006013
47 0.005988
2 0.006982
59 0.006987
69 0.007032
77 0.006967
85 0.006983
94 0.006955
99 0.006977
107 0.007017
112 0.005984
116 0.006983
125 0.005978
130 0.00602
135 0.005984
140 0.006126
147 0.005983
150 0.005977
138 0.006081
86 0.006936
69 0.006013
66 0.006982
70 0.006127
79 0.006982
91 0.006982
100 0.00599
108 0.006018
115 0.005985
124 0.006021
130 0.006016
135 0.005984
139 0.005984
146 0.005984
150 0.00601
154 0.007017
157 0.005984
161 0.005981
163 0.006007
145 0.005019
105 0.004987
75 0.005984
75 0.00603
80 0.005984
88 0.006018
99 0.006018
106 0.005984
114 0.005984
120 0.004987
125 0.004988
131 0.004987
137 0.004987
142 0.004986
149 0.005016
152 0.00499
157 0.004986
161 0.005981
166 0.005991
170 0.004986
169 0.006046
146 0.005984
108 0.005983
88 0.004986
88 0.004987
94 0.004987
104 0.00502
111 0.004987
117 0.004974
123 0.005019
129 0.004987
133 0.005031
137 0.004987
141 0.004988
144 0.004987
151 0.004987
155 0.005023
158 0.005042
164 0.004987
168 0.004955
171 0.004987
174 0.004987
175 0.004944
158 0.004945
125 0.005018
102 0.004994
98 0.00399
104 0.00399
109 0.003953
115 0.004003
124 0.003958
128 0.004986
131 0.004953
135 0.00499
139 0.005008
144 0.005021
147 0.00502
152 0.004987
155 0.004988
161 0.004021
164 0.004022
168 0.00399
171 0.003989
174 0.003989
173 0.00399
162 0.003989
131 0.004009
120 0.00399
119 0.00399
122 0.00399
125 0.00399
129 0.004987
134 0.004002
137 0.00399
140 0.003957
143 0.003952
144 0.003958
148 0.003991
151 0.003953
153 0.003998
157 0.00395
161 0.003963
162 0.003997
165 0.00397
168 0.00396
163 0.002958
139 0.003951
127 0.003004
123 0.00399
125 0.004002
128 0.003991
134 0.00399
140 0.00399
144 0.004001
147 0.003989
147 0.002991
152 0.002992
156 0.002992
160 0.002993
164 0.002992
168 0.003013
173 0.002991
176 0.003956
178 0.003954
167 0.003989
135 0.003986
116 0.003993
113 0.003989
117 0.002992
123 0.002992
130 0.003015
135 0.003002
139 0.00295
142 0.002992
144 0.003023
150 0.002991
154 0.003989
157 0.003963
162 0.002992
168 0.003972
172 0.002992
174 0.002992
141 0.002992
107 0.002992
94 0.002992
93 0.002958
96 0.002992
105 0.003026
108 0.00296
114 0.002952
117 0.002992
123 0.002992
128 0.002035
134 0.002001
142 0.002993
146 0.002993
151 0.001995
155 0.002031
160 0.001994
155 0.002025
114 0.001995
67 0.002978
43 0.003005
40 0.002992
49 0.002992
61 0.002992
75 0.001995
82 0.001996
89 0.002967
97 0.001987
104 0.001945
111 0.002009
119 0.001995
127 0.002007
133 0.001993
139 0.001055
149 0.002006
144 0.001964
81 0.002992
30 0.000998
12 0.002008
12 0.001995
24 0.001996
36 0.001995
56 0.001996
70 0.001994
82 0.001995
90 0.001994
106 0.002026
115 0.001995
123 0.002041
130 0.00099
138 0.000998
144 0.000988
148 0.000997
150 0.000997
133 0.001995
79 0.001965
33 0.001969
22 0.00196
37 0.001994
49 0.001963
61 0.001982
77 0.00101
88 0.00103
98 0.000998
105 0.001005
112 0.000998
123 0.000998
129 0.000998
136 0.000998
144 0.000997
154 0.001995
159 0.000997
155 0.001995
101 0.001995
57 0.001995
44 0.000997
49 0.000997
61 0.00094
77 0.000971
87 0.000989
99 0.001045
108 0.001018
120 0.001993
123 0.001
131 0.001
146 0.000993
155 0.0
162 0.0
170 0.000972
178 0.000943
174 0.00096
137 0.000959
83 0.001018
53 0.000997
57 0.000997
68 0.001002
80 0.0
96 0.001
106 0.0
114 0.0
122 0.0
130 0.000965
137 0.001004
145 0.000993
151 0.000998
157 0.000997
167 0.0
174 0.000998
179 0.0
160 0.0
100 0.0
53 0.0
40 0.0
37 0.0
48 0.0
63 0.0
77 0.0
90 0.0
109 0.000996
121 0.0
132 0.001001
141 0.0
151 0.0
161 0.0
167 0.0
174 0.0
183 0.0
205 0.0
213 0.0
220 0.0
189 0.0
115 0.0
98 0.0
91 0.0
102 0.000996
113 0.000998
127 0.0
139 0.0
153 0.0
159 0.000968
167 0.000988
175 0.0
174 0.000997
178 0.000965
184 0.0
187 0.0
193 0.001006
195 0.000998
201 0.0
204 0.0
207 0.0
205 0.000979
183 0.000967
135 0.000968
90 0.001973
90 0.0
96 0.0
103 0.0
109 0.00198
116 0.001971
124 0.0
129 0.0
133 0.0
140 0.000996
147 0.000969
160 0.000997
174 0.000998
199 0.0
209 0.000959
233 0.0
249 0.000961
255 0.000959
255 0.0
228 0.001002
189 0.0
171 0.000998
163 0.001035
155 0.000998
152 0.000998
151 0.000998
149 0.0
149 0.0
150 0.000997
152 0.001966
154 0.000997
158 0.000997
164 0.000997
170 0.001985
172 0.001997
178 0.001984
182 0.002029
190 0.000998
184 0.001013
147 0.000965
111 0.001995
99 0.002007
97 0.0
101 0.000945
109 0.000997
114 0.001037
121 0.001995
128 0.001996
134 0.002035
140 0.000997
143 0.000994
149 0.000985
155 0.002033
157 0.001992
166 0.000995
170 0.000998
176 0.000994
180 0.001996
185 0.001995
184 0.002991
152 0.001995
121 0.001995
107 0.001051
108 0.000998
113 0.000997
117 0.001994
123 0.002995
133 0.00203
141 0.000997
146 0.001034
152 0.001992
159 0.001991
164 0.002035
167 0.001996
171 0.001993
174 0.002007
177 0.000996
180 0.002039
182 0.002992
185 0.001995
180 0.001994
155 0.001996
127 0.002992
112 0.001033
111 0.00303
112 0.002032
119 0.001029
124 0.000988
126 0.000998
129 0.003029
134 0.002992
138 0.002026
143 0.001994
148 0.002001
154 0.003025
163 0.001035
168 0.002993
171 0.002992
177 0.002002
178 0.00201
163 0.001979
136 0.003023
123 0.002992
118 0.00198
120 0.002021
123 0.002025
124 0.002992
137 0.002005
139 0.002992
145 0.002992
151 0.003022
157 0.003017
166 0.003028
175 0.003983
181 0.004021
189 0.002029
197 0.001962
198 0.001994
173 0.002
125 0.003025
102 0.003022
96 0.002992
93 0.003019
98 0.003042
105 0.003027
110 0.004028
112 0.00399
118 0.003027
119 0.003028
121 0.001995
125 0.002994
130 0.002993
137 0.003991
145 0.002992
152 0.002992
152 0.002993
130 0.003029
73 0.003989
36 0.003989
27 0.003035
31 0.002025
38 0.002022
54 0.003
61 0.002992
71 0.002992
76 0.004052
84 0.003023
94 0.003025
102 0.002992
113 0.003989
125 0.003989
138 0.002986
145 0.003038
152 0.004022
120 0.00399
62 0.004028
23 0.00399
14 0.004986
19 0.004987
28 0.004027
36 0.00399
46 0.00402
57 0.005026
68 0.004987
76 0.003008
90 0.002989
106 0.003028
115 0.002992
127 0.004027
133 0.004024
144 0.005028
150 0.004023
150 0.004027
143 0.003989
97 0.005026
43 0.004987
19 0.004029
20 0.00303
35 0.003037
42 0.002991
53 0.002999
65 0.003988
75 0.004995
82 0.00399
91 0.00399
99 0.00399
106 0.004988
112 0.004987
119 0.003992
124 0.003992
137 0.003988
143 0.004025
147 0.004023
129 0.005019
76 0.005989
39 0.004017
38 0.003984
45 0.004015
53 0.004963
60 0.004987
78 0.004049
85 0.003992
97 0.004
107 0.003991
113 0.003985
120 0.005032
125 0.00502
133 0.005025
140 0.004974
147 0.005022
154 0.005984
161 0.005984
147 0.005001
95 0.004044
50 0.004003
50 0.003954
60 0.004951
69 0.005984
78 0.00602
93 0.004994
100 0.004987
106 0.005038
113 0.006014
119 0.00602
127 0.005028
139 0.005029
152 0.005016
161 0.005015
171 0.005021
177 0.006021
185 0.006021
182 0.00502
141 0.004037
86 0.004028
59 0.005019
54 0.004987
59 0.004979
70 0.005984
78 0.005985
91 0.005026
100 0.005028
106 0.004985
115 0.005984
124 0.006035
140 0.003966
176 0.005004
205 0.006012
218 0.007012
153 0.007017
240 0.006957
242 0.006022
236 0.005019
207 0.004997
148 0.005035
105 0.005982
88 0.006981
82 0.005981
82 0.00499
80 0.006022
80 0.007012
84 0.006982
91 0.006982
96 0.00702
106 0.006017
114 0.004981
124 0.005984
135 0.006972
145 0.007979
162 0.004978
175 0.004985
183 0.005984
191 0.006981
199 0.006981
194 0.007019
142 0.006984
90 0.006016
79 0.006021
78 0.00603
80 0.00698
84 0.006982
94 0.006017
99 0.005009
102 0.00598
109 0.007979
113 0.007978
127 0.00798
140 0.006982
158 0.006011
172 0.006021
179 0.005951
184 0.006982
188 0.006981
189 0.006017
190 0.007015
183 0.007027
156 0.007979
117 0.007978
112 0.007979
107 0.007942
108 0.005972
108 0.006014
113 0.006
115 0.007013
115 0.007014
118 0.005943
122 0.006981
126 0.006979
135 0.007974
143 0.007951
150 0.007946
155 0.007979
166 0.007015
169 0.007015
160 0.006974
128 0.007948
111 0.007978
95 0.007019
93 0.005984
95 0.006971
97 0.007012
104 0.007978
109 0.007978
112 0.007979
114 0.007969
115 0.006979
127 0.007022
135 0.007024
145 0.007944
155 0.007929
171 0.007015
179 0.006996
185 0.00698
186 0.007011
145 0.006986
122 0.007028
118 0.00798
112 0.00698
112 0.006986
114 0.006993
116 0.007012
117 0.007974
117 0.007018
117 0.006981
119 0.006982
129 0.00703
132 0.007023
139 0.007023
145 0.007015
153 0.006984
157 0.006974
162 0.006981
151 0.007015
134 0.007979
101 0.006968
90 0.006989
89 0.007018
92 0.006928
95 0.006987
99 0.006991
104 0.006982
109 0.006981
113 0.007013
118 0.007017
126 0.007015
130 0.006946
140 0.006987
149 0.007009
154 0.006981
161 0.005987
147 0.005982
121 0.00599
101 0.005996
89 0.006018
87 0.00701
88 0.006982
91 0.006981
94 0.007161
102 0.006983
100 0.006941
100 0.006981
109 0.006006
121 0.006038
133 0.00602
143 0.006029
151 0.005998
158 0.005984
162 0.00602
162 0.005984
155 0.005979
126 0.006019
102 0.006016
93 0.006022
91 0.005983
92 0.004986
91 0.005014
94 0.005965
104 0.005984
108 0.006015
108 0.006031
98 0.006025
107 0.005985
126 0.005984
144 0.006016
156 0.006014
166 0.006016
172 0.006026
169 0.006015
169 0.006019
165 0.006032
121 0.004988
82 0.005029
63 0.004987
65 0.00502
67 0.00503
75 0.004988
89 0.005984
95 0.00596
98 0.005986
101 0.005972
103 0.005984
109 0.00502
114 0.004986
124 0.004987
134 0.004987
148 0.004944
155 0.004987
170 0.004987
176 0.005021
155 0.004989
127 0.004987
99 0.004975
95 0.005984
99 0.00502
97 0.005022
109 0.005983
121 0.004987
125 0.004986
126 0.004987
137 0.004951
139 0.004986
152 0.005018
157 0.004988
166 0.00502
176 0.004986
183 0.004972
188 0.00399
186 0.003989
157 0.003991
125 0.00399
103 0.004987
88 0.005025
87 0.005037
100 0.004988
112 0.004987
121 0.00502
125 0.004986
131 0.00494
142 0.00494
148 0.004987
156 0.004988
160 0.003996
173 0.003986
185 0.004023
197 0.003963
189 0.003975
164 0.003959
130 0.003997
93 0.005018
79 0.004987
79 0.004952
80 0.003991
79 0.004987
87 0.004045
92 0.00399
90 0.004006
94 0.003991
107 0.003991
116 0.003989
121 0.00399
131 0.004029
140 0.004988
155 0.004959
163 0.003989
165 0.00399
145 0.004036
97 0.004032
63 0.00399
57 0.003992
61 0.003999
63 0.004041
66 0.004036
70 0.00399
75 0.003024
81 0.003023
83 0.003949
89 0.003983
103 0.002993
110 0.002992
116 0.00399
134 0.004025
148 0.003991
151 0.004022
136 0.003951
105 0.003993
64 0.003998
35 0.004042
22 0.00399
26 0.003992
20 0.004036
19 0.003958
25 0.002956
34 0.002959
40 0.003026
41 0.002992
52 0.002988
68 0.002994
73 0.003025
85 0.003026
102 0.003978
106 0.003991
111 0.003989
114 0.002975
99 0.003997
50 0.003032
33 0.003041
27 0.002966
27 0.002996
32 0.002992
40 0.00303
44 0.00299
55 0.002984
62 0.002992
65 0.002993
72 0.002992
83 0.003023
103 0.001961
111 0.003007
129 0.003031
140 0.003059
139 0.002992
118 0.003037
83 0.003044
39 0.002981
20 0.002992
17 0.003025
21 0.00303
23 0.002992
31 0.001948
37 0.002027
46 0.002002
49 0.002025
58 0.002032
73 0.00304
85 0.003015
102 0.002958
123 0.002985
158 0.002992
175 0.002993
198 0.003
165 0.001995
141 0.001999
101 0.002062
101 0.001996
107 0.001995
108 0.001997
116 0.001995
125 0.001994
131 0.001995
138 0.001999
144 0.001997
155 0.001995
162 0.001989
174 0.001035
189 0.001995
195 0.001995
211 0.001995
222 0.002076
219 0.002005
179 0.002034
148 0.002023
124 0.001995
110 0.001995
100 0.002031
101 0.002033
109 0.001995
152 0.002037
253 0.001954
255 0.00205
255 0.002032
255 0.001024
255 0.000997
255 0.001995
255 0.001995
255 0.002036
255 0.002026
255 0.002001
255 0.002032
255 0.000997
255 0.001013
255 0.000965
255 0.000997
255 0.001018
255 0.001004
255 0.000968
255 0.000998
255 0.000998
255 0.000998
255 0.000998
255 0.001998
255 0.00201
255 0.001994
255 0.002031
255 0.000997
255 0.000998
255 0.000998
255 0.000969
255 0.000997
255 0.001031
255 0.001996
255 0.002026
187 0.000958
182 0.0
179 0.000935
176 0.000997
174 0.001008
173 0.000997
172 0.000997
168 0.000998
165 0.000997
165 0.00099
162 0.0
160 0.00103
160 0.000996
161 0.000998
162 0.0
163 0.0
162 0.0
158 0.0
148 0.0
134 0.0
129 0.0
126 0.0
125 0.000992
124 0.0
124 0.0
124 0.000998
123 0.0
123 0.0
125 0.0
124 0.0
125 0.0
129 0.0
130 0.0
131 0.0
136 0.000991
138 0.000998
137 0.000996
132 0.0
120 0.000997
116 0.0
113 0.000998
114 0.0
115 0.0
118 0.000943
120 0.0
122 0.0
123 0.0
127 0.000992
131 0.0
135 0.0
141 0.0
147 0.002045
152 0.002035
160 0.0
164 0.0
170 0.0
167 0.000998
160 0.00103
143 0.001022
137 0.000997
133 0.000997
132 0.0
131 0.000999
131 0.000999
133 0.001003
111 0.000998
73 0.000963
71 0.000998
70 0.000952
70 0.0
73 0.002026
70 0.002027
65 0.0
57 0.0
49 0.0
35 0.001032
18 0.001037
60 0.0
53 0.0
54 0.0
55 0.000998
58 0.0
59 0.00203
58 0.001996
58 0.0
58 0.0
61 0.0
63 0.001032
66 0.001988
70 0.001028
74 0.000999
76 0.0
78 0.000998
80 0.0
76 0.000998
69 0.002028
63 0.001009
61 0.00097
61 0.0
62 0.002042
65 0.001994
68 0.0
70 0.001032
70 0.001038
70 0.001982
72 0.0
73 0.003017
77 0.002008
80 0.0
83 0.0
86 0.0
89 0.001996
88 0.001995
80 0.0
73 0.002003
66 0.000997
63 0.001995
64 0.001995
65 0.002008
66 0.002993
70 0.001994
70 0.00099
70 0.002033
72 0.003004
72 0.002977
75 0.0
77 0.000992
80 0.000998
82 0.001994
84 0.001002
87 0.001993
84 0.001997
73 0.001034
67 0.001047
64 0.00194
62 0.000997
62 0.002994
65 0.003045
67 0.000991
68 0.001015
0 0.000992
0 0.000961
0 0.000959
34 0.002031
39 0.002032
47 0.002041
49 0.000964
51 0.002042
48 0.003028
47 0.003044
42 0.002026
30 0.001002
19 0.00104
12 0.000959
15 0.001005
18 0.003025
20 0.003029
28 0.001956
34 0.001994
40 0.002031
47 0.002992
54 0.003028
59 0.00199
64 0.002027
70 0.002045
78 0.002031
81 0.001992
83 0.004026
81 0.003027
63 0.002003
51 0.001994
54 0.001994
61 0.00399
66 0.003025
76 0.000996
82 0.001962
81 0.002
80 0.002005
80 0.002005
77 0.003024
79 0.004003
80 0.003033
84 0.003028
88 0.002031
91 0.004031
94 0.00399
94 0.00301
79 0.001989
58 0.002014
49 0.001967
51 0.00206
51 0.003013
56 0.002994
59 0.002993
59 0.002991
60 0.002993
60 0.004021
59 0.00402
63 0.003042
64 0.001992
66 0.002004
67 0.002009
68 0.002009
71 0.004021
65 0.003989
49 0.003001
0 0.002955
0 0.002955
0 0.004023
40 0.004021
39 0.003022
42 0.003037
48 0.002991
51 0.003028
55 0.003048
58 0.004003
60 0.00399
64 0.003026
69 0.003004
69 0.002954
74 0.005018
77 0.005018
81 0.004989
79 0.002988
67 0.003996
53 0.003009
48 0.003988
46 0.003969
46 0.004022
46 0.005043
50 0.003018
51 0.004024
54 0.00296
56 0.004987
59 0.005025
62 0.002994
68 0.005039
76 0.002972
79 0.003054
84 0.003022
88 0.005023
93 0.00502
93 0.004031
87 0.004031
74 0.002981
61 0.004992
55 0.005034
52 0.003017
52 0.005018
56 0.003041
59 0.002992
63 0.002993
68 0.00502
73 0.006022
79 0.003989
86 0.003026
93 0.003988
101 0.00502
111 0.004972
132 0.003984
157 0.005008
184 0.003987
205 0.003989
212 0.004037
206 0.004993
192 0.004946
179 0.005018
175 0.004047
171 0.003999
167 0.005984
166 0.005984
166 0.003981
171 0.005985
180 0.003987
192 0.003985
207 0.003964
218 0.004987
228 0.005026
247 0.00402
255 0.004978
255 0.004985
255 0.005984
255 0.005984
255 0.005005
255 0.006026
255 0.00499
255 0.004986
255 0.00403
255 0.005984
255 0.00602
255 0.003954
255 0.003959
255 0.004976
255 0.006033
255 0.005986
255 0.005985
255 0.006982
255 0.004961
255 0.004989
255 0.004986
255 0.005984
255 0.005985
255 0.004989
255 0.005019
255 0.005013
255 0.005984
255 0.005985
255 0.006983
220 0.006982
221 0.006982
223 0.004939
223 0.00496
226 0.004992
223 0.006019
219 0.006015
220 0.004991
222 0.005027
222 0.006018
221 0.006986
222 0.006017
222 0.005927
220 0.007029
213 0.005985
205 0.00602
197 0.006021
192 0.007017
188 0.006982
187 0.006019
186 0.004987
185 0.005021
185 0.006981
184 0.005003
184 0.006999
185 0.007018
185 0.005994
186 0.005978
187 0.005989
187 0.007015
187 0.006982
189 0.005022
189 0.004988
187 0.006044
181 0.006981
163 0.005018
144 0.007018
124 0.00708
99 0.004954
88 0.005039
78 0.005999
70 0.007987
67 0.007987
63 0.005992
61 0.005982
60 0.005983
59 0.006986
63 0.00599
66 0.007013
68 0.006982
71 0.005979
74 0.007012
75 0.005992
75 0.006982
71 0.007979
61 0.006989
56 0.006986
54 0.005972
54 0.007944
57 0.00602
59 0.007979
61 0.007979
64 0.006002
65 0.006982
67 0.005948
68 0.007979
70 0.007976
74 0.006983
79 0.006979
83 0.007032
88 0.007979
94 0.006968
96 0.007936
95 0.00798
89 0.007011
84 0.007026
83 0.006001
83 0.007028
84 0.006988
88 0.006984
91 0.006978
93 0.006953
96 0.007015
99 0.006939
104 0.007014
105 0.007979
107 0.007978
111 0.007016
113 0.006975
116 0.006988
118 0.007981
118 0.007979
114 0.006965
107 0.006995
102 0.007028
104 0.007046
105 0.006984
109 0.007979
111 0.006991
114 0.007
114 0.006968
116 0.006986
117 0.006994
119 0.007017
123 0.006982
126 0.00697
131 0.00698
134 0.006975
135 0.006978
133 0.007012
128 0.00706
118 0.006946
116 0.00695
113 0.00697
114 0.006022
114 0.007015
115 0.006978
117 0.006981
120 0.005975
120 0.006981
121 0.005999
123 0.00603
126 0.00698
126 0.006988
132 0.006983
137 0.006978
140 0.005983
139 0.006983
127 0.007022
115 0.005989
107 0.006018
107 0.005993
110 0.005969
113 0.005989
116 0.00602
119 0.005981
121 0.005985
123 0.006968
124 0.007015
123 0.006749
123 0.006016
127 0.005994
136 0.005971
141 0.006011
143 0.006025
139 0.006016
125 0.006017
114 0.005994
113 0.005991
115 0.006015
126 0.006
145 0.006024
165 0.006987
175 0.006975
192 0.006054
199 0.005982
203 0.005982
203 0.005974
200 0.006032
203 0.005989
200 0.006005
195 0.005985
188 0.006016
172 0.005985
155 0.005996
149 0.005019
144 0.005021
147 0.004971
149 0.005019
151 0.004988
150 0.005038
152 0.005984
152 0.006033
156 0.006044
159 0.006017
162 0.006016
167 0.004999
172 0.005986
173 0.005012
164 0.004987
149 0.005039
136 0.004989
132 0.004987
130 0.005035
126 0.004989
128 0.00499
130 0.004972
128 0.004945
125 0.005017
129 0.005976
129 0.004987
132 0.005025
134 0.004996
140 0.004976
147 0.004975
150 0.004975
147 0.004984
131 0.00502
109 0.005022
92 0.005017
81 0.004988
74 0.004945
72 0.004934
71 0.004983
74 0.006019
73 0.005034
72 0.003955
72 0.003957
79 0.004998
83 0.004989
90 0.004993
93 0.004989
98 0.005019
97 0.005023
88 0.004988
50 0.004989
19 0.003992
0 0.00395
0 0.003991
0 0.004022
0 0.003959
0 0.004987
0 0.00394
0 0.004027
0 0.004029
0 0.004029
6 0.003994
28 0.003998
44 0.004027
58 0.003966
72 0.003991
84 0.004015
97 0.004527
101 0.004986
89 0.00399
70 0.003996
57 0.003989
48 0.004027
51 0.003993
58 0.003992
63 0.004034
67 0.003977
69 0.00402
73 0.004942
81 0.00402
89 0.004021
97 0.003043
106 0.003989
113 0.004023
127 0.003997
131 0.004021
136 0.00399
126 0.003996
102 0.003989
84 0.003989
73 0.004023
66 0.004019
67 0.00398
70 0.004044
72 0.002992
76 0.004026
77 0.002992
81 0.003027
88 0.002992
94 0.003991
105 0.002987
114 0.003036
120 0.003957
127 0.003989
138 0.003026
143 0.003989
142 0.004006
119 0.003993
83 0.003958
72 0.00303
68 0.003
69 0.003023
73 0.002986
79 0.003031
83 0.003026
86 0.003022
90 0.003996
94 0.003004
97 0.002993
106 0.002992
121 0.003991
128 0.001996
136 0.00295
145 0.002005
153 0.003008
156 0.003011
149 0.001963
125 0.002991
99 0.003004
85 0.003003
79 0.003
78 0.003031
80 0.002992
83 0.002992
88 0.002982
94 0.00303
98 0.001997
102 0.002025
107 0.002045
115 0.001995
126 0.002024
135 0.002041
142 0.003027
158 0.001996
175 0.001994
180 0.003031
178 0.002987
148 0.002937
120 0.002025
100 0.003013
92 0.001996
92 0.001984
95 0.001951
106 0.001997
117 0.002035
122 0.002035
130 0.001995
135 0.002027
146 0.00199
160 0.003025
168 0.002026
177 0.000995
188 0.002958
194 0.002008
205 0.001995
213 0.002
219 0.002031
209 0.001995
178 0.001994
152 0.002037
139 0.001995
131 0.002078
132 0.001994
137 0.000957
145 0.001995
150 0.00101
155 0.001994
157 0.001995
161 0.002062
171 0.001995
180 0.002028
188 0.001995
196 0.001962
204 0.001019
212 0.001996
220 0.000998
222 0.002057
214 0.000998
191 0.000997
159 0.001995
143 0.002033
139 0.00201
143 0.001995
151 0.002033
153 0.001027
157 0.000998
163 0.000939
165 0.000951
171 0.000997
178 0.000997
188 0.000997
198 0.001041
205 0.000996
217 0.001001
225 0.001009
227 0.001037
217 0.001977
189 0.001056
155 0.0
138 0.002027
134 0.000998
134 0.002029
138 0.000997
133 0.001172
133 0.000997
121 0.001997
121 0.000993
120 0.000993
121 0.001957
129 0.002004
139 0.0
141 0.000998
151 0.000997
165 0.000998
173 0.0
169 0.000989
143 0.001006
92 0.0
73 0.000998
64 0.0
66 0.0
60 0.000998
54 0.000998
52 0.0
43 0.001
30 0.0
21 0.0
23 0.0
28 0.0
44 0.000997
50 0.000998
56 0.0
62 0.0
68 0.0
67 0.0
51 0.0
15 0.0
0 0.0
0 0.0
0 0.000997
0 0.001006
0 0.0
0 0.0
8 0.0
21 0.0
33 0.0
52 0.0
75 0.0
96 0.0
115 0.0
138 0.000997
151 0.001994
155 0.0
168 0.0
169 0.0
148 0.0
114 0.0
97 0.0
87 0.001993
84 0.002026
87 0.002044
94 0.000966
101 0.000963
107 0.000998
113 0.000968
119 0.000997
126 0.000998
132 0.002028
141 0.000996
155 0.0
162 0.0
173 0.002029
181 0.002035
187 0.001027
181 0.000969
156 0.0
111 0.0
106 0.0
106 0.002024
107 0.003026
116 0.000997
119 0.001032
124 0.0
121 0.000999
125 0.000997
130 0.0
139 0.0
152 0.0
169 0.0
181 0.000997
192 0.002026
197 0.002032
207 0.0
192 0.0
159 0.000997
132 0.002035
117 0.003026
107 0.0
109 0.0
115 0.0
123 0.001014
126 0.0
125 0.001029
126 0.003029
133 0.0
136 0.0
147 0.0
155 0.002031
163 0.002051
166 0.000998
175 0.000955
183 0.0
186 0.0
168 0.0
131 0.002025
102 0.002026
77 0.0
64 0.0
60 0.0
61 0.002993
61 0.002993
64 0.001987
62 0.0
59 0.000959
45 0.002004
26 0.001997
21 0.001996
22 0.002033
17 0.0
18 0.0
22 0.000954
26 0.001982
27 0.00299
21 0.001016
0 0.000962
0 0.000999
0 0.001985
0 0.002001
0 0.001987
0 0.003012
0 0.002029
0 0.002029
0 0.001031
0 0.002031
0 0.003027
0 0.001031
0 0.002021
6 0.002
30 0.001992
60 0.00202
95 0.000958
123 0.004023
144 0.003036
161 0.001998
156 0.002991
145 0.002048
131 0.003046
123 0.003025
117 0.002031
123 0.001993
129 0.002004
134 0.002006
137 0.001998
134 0.001996
133 0.002994
139 0.001988
151 0.002027
164 0.000998
179 0.002993
191 0.003025
210 0.001965
224 0.00196
227 0.000987
221 0.002017
201 0.001988
167 0.004023
141 0.004026
123 0.002001
125 0.001989
131 0.001993
142 0.002987
144 0.002998
146 0.001986
145 0.003033
151 0.000993
159 0.00103
166 0.000994
176 0.004038
184 0.003956
189 0.001974
194 0.001992
199 0.001992
200 0.004028
197 0.004034
171 0.002969
135 0.003989
122 0.000996
122 0.001995
126 0.002045
131 0.00398
137 0.004042
139 0.003044
141 0.002028
143 0.001994
144 0.003989
149 0.004027
161 0.003007
175 0.004029
187 0.001975
199 0.002005
211 0.00199
213 0.004014
201 0.005028
166 0.00301
143 0.002957
127 0.002956
124 0.004024
127 0.004024
134 0.003038
145 0.003997
144 0.001991
147 0.001957
155 0.001995
159 0.004987
165 0.005038
175 0.002953
184 0.002974
192 0.00296
204 0.004987
212 0.00502
216 0.004025
191 0.003989
155 0.00399
133 0.002004
120 0.001012
115 0.003031
117 0.005037
120 0.00503
126 0.00298
132 0.002968
137 0.002014
142 0.00502
148 0.005015
161 0.004975
174 0.005033
187 0.00299
196 0.003004
206 0.003983
222 0.004992
235 0.004987
237 0.002993
217 0.002953
184 0.003012
159 0.005022
147 0.005021
142 0.005043
147 0.004987
148 0.003009
148 0.002992
150 0.00399
154 0.005978
154 0.006021
158 0.004017
168 0.003981
180 0.003985
191 0.004988
202 0.004973
213 0.005029
218 0.005026
223 0.004955
232 0.004023
235 0.004026
218 0.006018
179 0.005984
141 0.003987
125 0.003953
117 0.003961
114 0.005988
116 0.005977
123 0.006982
128 0.005985
120 0.003992
119 0.004018
123 0.003993
128 0.005985
137 0.005985
154 0.004007
167 0.003939
175 0.003972
188 0.005984
199 0.00399
210 0.006017
217 0.006026
224 0.003995
218 0.003987
190 0.004984
160 0.006982
143 0.00602
132 0.004986
128 0.004997
132 0.004025
137 0.00602
149 0.004039
155 0.006024
159 0.006032
166 0.003992
173 0.003989
181 0.005012
192 0.007017
201 0.007023
212 0.004991
219 0.004991
228 0.004986
234 0.004982
243 0.004998
246 0.005993
239 0.006023
218 0.005984
182 0.003984
167 0.004986
162 0.007014
167 0.00698
173 0.007027
184 0.004983
194 0.004998
196 0.004991
202 0.005
207 0.004999
217 0.005982
124 0.005984
239 0.00498
251 0.004988
255 0.004987
255 0.006983
255 0.007978
255 0.005036
255 0.004972
255 0.004974
239 0.004962
217 0.004992
205 0.006981
198 0.007017
197 0.005993
203 0.005956
204 0.005978
207 0.007004
203 0.006982
206 0.00599
208 0.005017
211 0.004988
224 0.004964
235 0.004987
189 0.007011
193 0.007013
199 0.005001
203 0.006018
207 0.005928
207 0.007978
198 0.007948
183 0.005959
170 0.005972
167 0.004983
163 0.006017
164 0.004984
163 0.007024
164 0.00702
164 0.006017
162 0.004941
161 0.005985
161 0.007026
164 0.007979
164 0.005971
167 0.005985
172 0.005969
175 0.006002
178 0.005987
180 0.007982
181 0.007978
171 0.006951
156 0.006987
144 0.006983
137 0.007979
133 0.007974
134 0.00702
137 0.006018
141 0.006016
144 0.005973
146 0.005985
149 0.006982
152 0.007976
154 0.005981
159 0.006961
161 0.006982
165 0.00702
170 0.007026
176 0.006984
181 0.007023
183 0.007016
174 0.005987
156 0.006977
145 0.007013
137 0.007946
128 0.007014
116 0.006963
109 0.006971
102 0.006967
99 0.007
97 0.007014
93 0.006964
83 0.00596
77 0.006971
75 0.006977
71 0.006978
66 0.007977
65 0.006976
62 0.006964
57 0.006986
54 0.006949
44 0.006982
25 0.006985
0 0.006981
0 0.007016
0 0.006979
0 0.006976
0 0.006982
0 0.007021
0 0.005985
0 0.006982
0 0.006981
0 0.006994
6 0.007029
15 0.006992
29 0.006966
39 0.007011
54 0.006978
64 0.00698
70 0.006978
77 0.006016
77 0.006017
62 0.005993
56 0.005951
54 0.005982
54 0.005982
55 0.007016
62 0.006997
67 0.007017
69 0.006982
68 0.006979
69 0.006979
72 0.005986
76 0.006016
81 0.005976
85 0.005981
88 0.005978
91 0.005985
96 0.006017
100 0.005993
101 0.006016
85 0.005951
73 0.005953
69 0.006041
65 0.007021
67 0.006017
73 0.005947
75 0.005953
76 0.005976
77 0.006002
77 0.005978
80 0.004971
84 0.006019
88 0.00502
95 0.005984
100 0.005019
105 0.004987
109 0.005988
117 0.006026
119 0.005983
116 0.006015
105 0.006016
94 0.005987
85 0.005975
85 0.005984
85 0.005986
89 0.005984
92 0.005955
94 0.005019
95 0.00502
96 0.004989
95 0.004952
96 0.004987
99 0.006012
104 0.006014
107 0.005971
117 0.005983
124 0.00502
132 0.005023
132 0.005016
124 0.00502
108 0.004974
99 0.005021
92 0.00495
91 0.003993
92 0.004957
93 0.004955
96 0.004988
99 0.005984
99 0.004996
100 0.004986
104 0.004984
108 0.005019
94 0.005023
100 0.005019
107 0.004973
111 0.005019
113 0.005972
109 0.005022
96 0.005987
71 0.003989
25 0.004024
44 0.00502
28 0.003989
18 0.005026
14 0.004988
14 0.00503
22 0.005062
26 0.004988
29 0.004975
36 0.004006
49 0.004987
58 0.003991
68 0.003991
78 0.004024
85 0.003989
90 0.003989
100 0.003991
108 0.004985
114 0.005009
105 0.004972
94 0.003987
87 0.00402
82 0.003984
84 0.003989
89 0.004012
96 0.003958
100 0.003959
103 0.003989
106 0.003991
111 0.004006
119 0.004953
127 0.00399
135 0.004014
141 0.004024
153 0.003991
158 0.00396
161 0.00394
163 0.003989
156 0.00399
142 0.00399
123 0.003944
109 0.004021
100 0.004987
97 0.003026
96 0.003029
94 0.002983
93 0.003028
93 0.00399
94 0.003989
97 0.00399
100 0.003995
102 0.003999
106 0.00399
111 0.004037
117 0.004021
122 0.003984
126 0.004009
131 0.004023
137 0.002955
135 0.002992
121 0.002992
103 0.002993
87 0.002992
82 0.002993
79 0.002992
78 0.002991
76 0.002992
77 0.001995
76 0.001998
74 0.003043
75 0.003001
78 0.003039
82 0.003032
85 0.003041
92 0.003023
94 0.002997
95 0.002994
98 0.003031
101 0.003007
108 0.002968
110 0.002935
108 0.002031
85 0.002995
75 0.003991
69 0.001994
68 0.002962
70 0.00304
71 0.002992
75 0.002992
78 0.002938
80 0.002816
83 0.00296
87 0.003028
90 0.003024
97 0.002992
105 0.002044
109 0.001995
112 0.001995
120 0.00203
124 0.002041
129 0.002039
132 0.001995
129 0.001955
111 0.002027
104 0.00198
105 0.001954
110 0.003027
114 0.002992
122 0.003002
130 0.002031
136 0.00203
136 0.001995
139 0.001996
142 0.002041
144 0.002029
147 0.002032
151 0.002003
157 0.001995
161 0.001995
166 0.001997
170 0.002026
172 0.003033
163 0.001996
150 0.000999
140 0.000997
136 0.001995
135 0.001023
139 0.001963
144 0.002026
152 0.002005
157 0.001982
159 0.002035
166 0.000998
182 0.001995
208 0.001996
228 0.00102
248 0.000997
255 0.000998
255 0.000966
255 0.002002
255 0.001971
255 0.002062
255 0.001995
255 0.001996
255 0.002001
252 0.001994
245 0.000949
245 0.001998
243 0.001996
242 0.001033
236 0.001014
231 0.001005
225 0.002003
218 0.000998
211 0.001995
209 0.000997
208 0.000984
206 0.000998
204 0.0
202 0.001001
199 0.001958
195 0.000997
188 0.001003
176 0.000999
143 0.001951
116 0.000998
104 0.000998
101 0.000998
98 0.001991
97 0.001996
97 0.000964
100 0.001994
102 0.001961
105 0.0
107 0.0
111 0.0
119 0.0
126 0.0
133 0.000998
137 0.001007
140 0.000998
144 0.000957
147 0.001001
139 0.000998
124 0.000997
112 0.000966
108 0.0
107 0.0
108 0.0
108 0.0
112 0.0
112 0.0
110 0.0
110 0.0
113 0.0
117 0.0
120 0.0
123 0.0
127 0.0
132 0.000984
139 0.000983
143 0.000998
135 0.0
118 0.0
107 0.0
102 0.0
99 0.0
99 0.0
101 0.0
100 0.0
97 0.0
98 0.0
98 0.0
99 0.000998
101 0.000997
107 0.000998
117 0.000999
120 0.0
128 0.001006
132 0.002027
137 0.0
138 0.0
123 0.001006
106 0.0
90 0.0
87 0.0
42 0.000999
44 0.002008
47 0.0
52 0.0
53 0.0
52 0.001996
52 0.002027
54 0.002044
62 0.001015
75 0.0
91 0.000995
96 0.000999
107 0.0
117 0.002028
121 0.001979
110 0.0
79 0.0
46 0.0
24 0.002043
13 0.001992
7 0.000967
0 0.0
44 0.0
29 0.000958
16 0.0
6 0.000987
0 0.002029
63 0.000964
63 0.0
64 0.0
67 0.001995
71 0.000997
79 0.0
84 0.0
88 0.0
87 0.0
80 0.0
74 0.002031
69 0.002027
69 0.0
70 0.000971
74 0.001026
77 0.002026
84 0.002036
91 0.00109
97 0.001028
108 0.000992
113 0.0
115 0.0
119 0.002032
123 0.003019
127 0.0
129 0.0
132 0.0
133 0.001998
129 0.002984
118 0.000998
113 0.001002
111 0.0
112 0.0
114 0.000992
117 0.001036
119 0.001965
119 0.0
118 0.0
119 0.0
119 0.002025
121 0.002043
124 0.0
125 0.0
127 0.0
128 0.002003
130 0.0
128 0.001995
120 0.001975
108 0.0
103 0.0
102 0.0
102 0.002031
102 0.002994
105 0.001999
105 0.001996
106 0.002004
106 0.001997
107 0.002007
109 0.003024
110 0.002992
113 0.002011
116 0.00201
108 0.001038
109 0.002993
111 0.004026
108 0.003991
89 0.001954
66 0.00204
58 0.001008
57 0.001991
58 0.002008
57 0.002993
59 0.002027
62 0.001994
63 0.002016
66 0.002005
70 0.002997
74 0.002994
80 0.0
88 0.003034
94 0.001967
100 0.001033
104 0.00199
106 0.003991
100 0.002992
76 0.001958
60 0.001992
54 0.00203
53 0.003036
53 0.003026
55 0.003027
57 0.003027
62 0.002008
62 0.001964
63 0.001014
65 0.003022
66 0.002995
64 0.001993
66 0.001996
70 0.002001
73 0.004034
78 0.003957
87 0.004039
90 0.002989
81 0.001997
57 0.001033
36 0.001991
29 0.003989
27 0.003989
32 0.001998
38 0.001929
44 0.001995
50 0.003986
57 0.003977
64 0.004013
68 0.004027
75 0.002
82 0.001981
94 0.0
103 0.004986
110 0.003991
120 0.001999
128 0.002
136 0.002013
143 0.003969
151 0.0
106 0.0
99 0.003988
103 0.004
111 0.002007
114 0.002003
115 0.002992
119 0.004987
125 0.004962
133 0.004948
137 0.003989
142 0.002037
147 0.001995
151 0.001999
155 0.004011
159 0.003993
165 0.00199
168 0.002947
163 0.001996
149 0.004978
127 0.004956
112 0.004958
112 0.004995
115 0.002001
118 0.00199
123 0.001997
124 0.001994
125 0.004991
129 0.004961
131 0.001995
134 0.002992
139 0.003995
143 0.003994
150 0.003023
153 0.003985
157 0.003994
164 0.002
168 0.002999
172 0.002884
176 0.004959
171 0.004987
144 0.003022
121 0.002992
110 0.003985
105 0.004953
105 0.003944
109 0.005984
111 0.005014
114 0.003023
117 0.001994
119 0.002953
121 0.004988
126 0.004956
133 0.002992
139 0.002982
147 0.003946
166 0.004948
181 0.002992
188 0.004987
194 0.004991
201 0.002991
205 0.003948
212 0.003952
216 0.005981
214 0.005955
186 0.003955
147 0.003945
119 0.00399
103 0.002993
100 0.003942
99 0.005015
100 0.005984
108 0.003986
114 0.004025
116 0.00395
119 0.005963
126 0.005986
136 0.003943
143 0.00394
153 0.003947
166 0.003988
173 0.004033
180 0.006
185 0.005974
194 0.003954
197 0.00399
201 0.003946
207 0.005952
212 0.005981
218 0.00393
213 0.003947
189 0.003966
141 0.002986
126 0.003993
117 0.006954
112 0.006954
112 0.00494
113 0.003995
115 0.003988
117 0.005976
115 0.005953
115 0.003986
118 0.003987
124 0.004941
131 0.003986
136 0.003983
141 0.006985
146 0.006985
155 0.004943
159 0.004955
166 0.003978
174 0.003987
179 0.006947
189 0.005983
198 0.003993
204 0.004986
185 0.004942
159 0.004943
141 0.005019
131 0.006985
127 0.007948
123 0.003989
122 0.004992
128 0.004987
130 0.006982
130 0.006982
133 0.004986
136 0.004986
146 0.004986
153 0.004986
163 0.004986
172 0.006981
179 0.006981
188 0.003989
192 0.004986
194 0.004986
196 0.007978
196 0.006982
199 0.004987
191 0.004986
157 0.004986
141 0.004992
133 0.004986
131 0.006972
137 0.007979
143 0.003989
148 0.005983
149 0.004984
155 0.007977
156 0.007979
162 0.004987
168 0.004987
180 0.004986
188 0.004986
199 0.004986
222 0.006981
247 0.007979
255 0.005983
255 0.005955
255 0.005952
255 0.007979
255 0.007948
255 0.005996
236 0.005954
188 0.005014
170 0.005015
158 0.004967
154 0.00797
150 0.00795
149 0.005958
147 0.005942
148 0.005952
149 0.007945
151 0.007939
154 0.005951
159 0.005943
173 0.00698
179 0.005985
183 0.004986
192 0.006983
195 0.006984
199 0.005983
206 0.005984
212 0.005981
211 0.007977
198 0.007977
166 0.002996
140 0.007966
131 0.006014
126 0.005985
127 0.005984
130 0.007934
135 0.007975
138 0.005922
140 0.006935
145 0.005986
150 0.007979
157 0.006982
164 0.006982
172 0.007012
179 0.005929
182 0.005988
184 0.006027
185 0.005983
179 0.007971
174 0.007946
158 0.00598
133 0.006978
112 0.006972
99 0.006985
95 0.006981
98 0.006982
100 0.00698
105 0.006979
106 0.006012
109 0.006008
114 0.006953
119 0.006993
123 0.006947
131 0.006977
137 0.006978
143 0.00698
148 0.006985
158 0.007022
161 0.007013
163 0.006978
152 0.006964
123 0.006949
106 0.006949
94 0.005984
92 0.005988
97 0.006027
100 0.005988
104 0.006971
106 0.006171
113 0.006983
116 0.006985
120 0.006981
124 0.00698
128 0.006956
139 0.007008
144 0.006986
150 0.006978
158 0.005987
161 0.006014
154 0.005988
139 0.006014
99 0.006016
89 0.006017
82 0.006953
80 0.006949
86 0.006978
92 0.006983
93 0.006017
97 0.005988
101 0.006016
106 0.006015
112 0.006017
123 0.006017
141 0.00598
151 0.005984
164 0.005984
169 0.005984
167 0.005945
147 0.004987
117 0.005986
88 0.006006
75 0.006036
69 0.006066
64 0.005991
60 0.005988
61 0.006012
59 0.005938
61 0.005979
59 0.005979
60 0.005984
66 0.004986
74 0.004987
85 0.004987
95 0.004987
105 0.004988
113 0.004987
113 0.005989
76 0.005984
41 0.005979
13 0.00499
0 0.004993
57 0.004987
54 0.004987
52 0.004986
53 0.004985
56 0.004986
58 0.004986
60 0.004986
64 0.004987
66 0.005983
71 0.005952
77 0.005984
82 0.005983
88 0.005021
92 0.00502
95 0.005016
95 0.005016
76 0.005019
59 0.005016
49 0.004993
42 0.004988
43 0.004987
45 0.00498
49 0.003989
57 0.004021
64 0.00399
70 0.003991
76 0.004997
83 0.004986
96 0.00502
106 0.005018
114 0.004975
126 0.004987
132 0.004987
139 0.005971
144 0.003989
148 0.003991
142 0.004023
124 0.004988
107 0.004004
97 0.004008
88 0.004984
82 0.004982
79 0.004953
74 0.003958
75 0.003994
74 0.00402
74 0.003987
78 0.003996
80 0.00399
85 0.003991
91 0.003991
96 0.003991
105 0.003989
111 0.003997
117 0.00396
126 0.004948
130 0.004956
135 0.004021
134 0.003991
117 0.00402
101 0.003991
92 0.004016
89 0.003991
91 0.003981
92 0.003954
95 0.003959
103 0.003986
109 0.003989
111 0.003019
114 0.00399
117 0.003026
124 0.00399
129 0.00399
135 0.003991
142 0.003981
146 0.003961
153 0.003998
160 0.004027
164 0.00404
158 0.004004
143 0.004024
131 0.002991
121 0.003025
114 0.00399
114 0.003981
115 0.003965
116 0.003953
119 0.003945
121 0.004008
123 0.003035
125 0.003027
131 0.003025
135 0.002992
140 0.002992
145 0.003034
149 0.003023
153 0.002973
157 0.00299
162 0.002991
165 0.003149
170 0.002999
166 0.003954
149 0.002993
131 0.002989
122 0.003028
119 0.002992
116 0.002985
112 0.002994
118 0.001994
124 0.002993
126 0.002998
127 0.003025
128 0.002037
131 0.002034
136 0.001994
143 0.001995
147 0.002993
148 0.002992
148 0.002993
151 0.002963
155 0.002994
156 0.002995
160 0.002992
184 0.001995
189 0.001995
176 0.001994
134 0.001962
110 0.001988
97 0.001995
89 0.001951
84 0.001987
87 0.002988
94 0.002975
100 0.002998
105 0.002963
112 0.002029
117 0.002013
128 0.001991
142 0.001964
160 0.002028
169 0.002025
176 0.002046
184 0.001994
190 0.002008
192 0.001996
199 0.001961
202 0.000997
209 0.001962
217 0.001994
206 0.002006
163 0.002038
120 0.001995
105 0.002034
101 0.000997
101 0.001958
101 0.001951
107 0.001997
114 0.000988
116 0.002042
110 0.000997
102 0.000965
100 0.002028
105 0.001995
114 0.002028
126 0.001995
138 0.000994
150 0.001991
158 0.002027
172 0.001998
179 0.002034
187 0.001999
184 0.000998
167 0.000997
144 0.001999
119 0.001991
115 0.001009
118 0.001998
124 0.000998
129 0.000997
134 0.001002
139 0.000998
146 0.001994
152 0.001994
160 0.000997
172 0.000997
182 0.000997
199 0.002006
207 0.001001
217 0.001994
223 0.001028
231 0.001033
238 0.000967
243 0.000997
134 0.000966
201 0.001027
170 0.001
153 0.000987
144 0.000996
135 0.0
133 0.0
135 0.0
132 0.0
127 0.0
128 0.0
131 0.0
134 0.000996
141 0.0
150 0.000987
156 0.000997
161 0.000998
168 0.0
174 0.0
183 0.0
186 0.0
182 0.0
162 0.0
132 0.0
104 0.0
96 0.0
93 0.0
93 0.0
97 0.0
104 0.000952
105 0.000973
110 0.0
114 0.0
122 0.0
130 0.0
142 0.0
152 0.0
157 0.0
161 0.0
169 0.0
173 0.000998
169 0.000986
158 0.000998
120 0.003011
102 0.002006
92 0.0
94 0.0
99 0.0
106 0.00203
108 0.002026
110 0.001005
109 0.0
113 0.001959
117 0.000966
120 0.0
130 0.003037
140 0.002026
147 0.0
158 0.0
166 0.00095
170 0.0
163 0.002028
145 0.002029
111 0.0
95 0.002005
92 0.000964
96 0.0
103 0.0
106 0.003046
105 0.002942
101 0.0
95 0.0
92 0.0
95 0.001992
99 0.001989
102 0.00097
109 0.001995
115 0.000998
119 0.002992
119 0.000998
110 0.0
79 0.007976
68 0.000998
31 0.000997
19 0.000997
9 0.028924
9 0.000993
6 0.0
21 0.00399
26 0.001996
35 0.000998
38 0.0
44 0.001995
52 0.002992
65 0.0
75 0.0
87 0.0
100 0.001995
110 0.001994
119 0.00083
109 0.002991
76 0.001969
54 0.000965
40 0.0
41 0.002033
47 0.002996
54 0.0
64 0.0
72 0.0
77 0.00298
84 0.001996
95 0.0
106 0.002023
115 0.0
116 0.000999
120 0.0
123 0.003029
130 0.002031
135 0.0
136 0.0
122 0.0
97 0.002027
79 0.002033
71 0.0
73 0.002036
82 0.000984
96 0.000998
97 0.001996
102 0.002993
103 0.00598
110 0.011968
113 0.009973
116 0.0
121 0.0
139 0.000998
159 0.000997
169 0.001995
178 0.000998
185 0.0
184 0.0
167 0.00399
138 0.00299
111 0.002027
100 0.0
98 0.0
101 0.003023
103 0.002945
103 0.0
97 0.002993
91 0.002993
87 0.000997
85 0.0
84 0.000995
82 0.003027
83 0.001996
87 0.0
89 0.001995
89 0.002979
85 0.003035
64 0.002027
31 0.004021
0 0.004004
0 0.001995
0 0.001996
0 0.001992
0 0.002992
0 0.003026
0 0.001996
0 0.001994
0 0.002997
0 0.002993
0 0.002028
0 0.004021
0 0.004034
0 0.001999
0 0.001995
2 0.002025
7 0.004001
12 0.004023
4 0.002003
0 0.002002
0 0.00199
0 0.002992
0 0.002997
0 0.004032
0 0.004025
0 0.002993
0 0.001978
0 0.002026
0 0.004027
0 0.004043
0 0.00298
66 0.002026
71 0.001994
77 0.003009
86 0.001979
92 0.003991
98 0.003991
101 0.002993
102 0.001979
96 0.001991
84 0.003939
73 0.003945
68 0.003007
66 0.002049
67 0.002967
68 0.004024
72 0.003017
74 0.004987
74 0.005016
76 0.002017
79 0.001994
83 0.001995
87 0.004016
91 0.003989
96 0.001997
98 0.001996
102 0.001995
106 0.003989
114 0.001989
116 0.004027
107 0.004994
94 0.002992
90 0.001995
89 0.002013
88 0.004016
91 0.00502
95 0.001994
98 0.002021
100 0.002029
101 0.004952
104 0.002001
108 0.005023
112 0.00503
118 0.001993
121 0.001992
124 0.002974
126 0.003981
130 0.00403
134 0.005037
138 0.002991
139 0.002983
133 0.003006
108 0.002948
98 0.002002
93 0.005029
92 0.004992
93 0.002989
95 0.002034
100 0.002961
104 0.005929
107 0.006032
113 0.002992
118 0.002992
123 0.001968
129 0.002959
133 0.002962
140 0.005022
145 0.004995
148 0.003017
152 0.003009
157 0.001977
158 0.00502
156 0.006018
136 0.00303
112 0.003993
96 0.003029
91 0.003957
99 0.002957
102 0.004997
109 0.005016
117 0.003004
118 0.002992
119 0.003989
121 0.005015
125 0.006016
134 0.002965
138 0.002997
147 0.002993
152 0.003032
158 0.003027
166 0.005948
170 0.005984
175 0.002989
164 0.002989
141 0.003995
119 0.005032
105 0.006027
93 0.003959
91 0.00399
95 0.004003
98 0.003995
98 0.003959
87 0.006021
78 0.006018
83 0.004987
89 0.003994
94 0.004001
104 0.007015
117 0.006016
144 0.002995
171 0.004955
220 0.003968
235 0.003966
229 0.00396
214 0.007017
202 0.006019
194 0.004029
192 0.003957
191 0.003995
190 0.006022
190 0.006018
189 0.003993
189 0.003977
193 0.004027
198 0.003992
207 0.004025
215 0.006983
224 0.007021
233 0.003996
243 0.003987
254 0.003994
255 0.006016
252 0.006021
212 0.003978
189 0.003992
175 0.007018
169 0.004995
167 0.004955
170 0.004994
173 0.006982
174 0.00699
174 0.003982
176 0.00397
177 0.003955
182 0.007019
192 0.007981
212 0.004993
225 0.006978
225 0.004994
228 0.005022
229 0.004981
224 0.006993
203 0.007017
166 0.004987
148 0.004987
140 0.004989
140 0.006979
145 0.007978
153 0.004998
172 0.008013
181 0.004952
188 0.00496
196 0.004957
201 0.006964
208 0.007038
224 0.004985
231 0.004985
238 0.004985
188 0.007013
194 0.007985
200 0.005985
205 0.007974
197 0.00598
187 0.005953
179 0.00498
172 0.007985
175 0.007977
177 0.004975
180 0.005
184 0.004984
187 0.007948
187 0.007976
190 0.005983
194 0.007982
199 0.005952
205 0.005983
209 0.005976
212 0.007982
216 0.00797
219 0.004984
222 0.004933
223 0.004984
215 0.007979
198 0.007975
181 0.006978
178 0.008013
179 0.005991
182 0.005939
184 0.005963
184 0.007964
182 0.007964
183 0.006012
182 0.005966
184 0.005979
186 0.006944
189 0.006985
190 0.007931
192 0.007965
195 0.005987
195 0.005978
197 0.005966
193 0.007978
176 0.006981
162 0.005984
153 0.006981
150 0.006025
150 0.007956
153 0.007946
156 0.007995
156 0.007001
155 0.006978
156 0.005997
158 0.006984
160 0.006022
163 0.006992
166 0.006977
167 0.005947
169 0.006025
171 0.005984
174 0.006999
209 0.005981
191 0.006013
169 0.006025
148 0.00698
131 0.006927
130 0.005953
131 0.007029
133 0.006975
137 0.006951
141 0.006976
140 0.006974
140 0.007015
144 0.005984
150 0.005983
155 0.006018
161 0.005984
166 0.005987
169 0.006025
170 0.006015
164 0.007028
147 0.006982
122 0.006985
40 0.006963
51 0.006015
18 0.006981
0 0.006992
60 0.005985
57 0.006002
55 0.005977
54 0.005979
53 0.005984
53 0.006016
55 0.005957
56 0.006014
57 0.005974
59 0.006026
63 0.005985
65 0.005984
68 0.005984
71 0.005979
74 0.005983
73 0.006025
68 0.005984
64 0.006022
62 0.005981
62 0.005985
64 0.005985
66 0.006984
69 0.004956
70 0.004988
70 0.004976
72 0.004981
74 0.005986
77 0.006003
79 0.006033
81 0.005977
85 0.005989
88 0.005992
90 0.005984
92 0.006019
92 0.00497
88 0.004946
84 0.004989
83 0.004988
84 0.004989
85 0.004977
87 0.00502
90 0.005997
92 0.004986
94 0.005987
97 0.00598
99 0.006049
105 0.005019
108 0.005019
113 0.004999
117 0.004994
120 0.004992
121 0.004992
123 0.005989
121 0.004958
116 0.004955
111 0.005967
109 0.004941
109 0.003988
110 0.003992
111 0.004955
112 0.004988
113 0.004987
114 0.000997
105 0.004987
108 0.004987
109 0.005984
114 0.000997
121 0.004986
124 0.00399
130 0.004987
131 0.003989
129 0.003988
121 0.00399
112 0.00399
106 0.004984
105 0.004986
106 0.004992
107 0.005038
108 0.004993
111 0.004993
111 0.004992
112 0.003977
114 0.003992
117 0.003988
119 0.004066
122 0.003959
127 0.003988
131 0.003972
133 0.00399
136 0.004003
135 0.00404
123 0.003989
113 0.004993
104 0.004959
104 0.003962
105 0.003991
107 0.004023
109 0.00405
112 0.00399
113 0.004026
115 0.004022
117 0.003991
120 0.00399
124 0.004028
128 0.004036
133 0.002992
137 0.003989
140 0.002983
142 0.002996
144 0.002991
137 0.002996
127 0.003956
121 0.003989
119 0.004006
119 0.003988
121 0.003989
124 0.003989
128 0.002992
130 0.002984
131 0.002979
131 0.002936
132 0.002992
133 0.002993
136 0.003029
139 0.003056
141 0.002991
172 0.003033
185 0.003992
193 0.00399
203 0.003988
183 0.003012
154 0.002999
131 0.003021
117 0.003036
114 0.002977
121 0.002984
128 0.003025
132 0.002992
132 0.003024
136 0.002992
142 0.003022
141 0.002019
127 0.001977
120 0.001957
122 0.001993
129 0.001995
139 0.002022
152 0.001996
160 0.002026
166 0.003055
167 0.003027
156 0.002992
112 0.003036
74 0.003042
49 0.001954
40 0.001956
39 0.001993
46 0.002132
50 0.001996
55 0.002036
57 0.001953
62 0.003025
72 0.00301
85 0.002028
113 0.001996
127 0.002166
142 0.001954
155 0.002013
165 0.001964
170 0.001955
167 0.002029
135 0.002046
109 0.001995
100 0.001995
99 0.00204
101 0.001998
115 0.001966
123 0.002005
131 0.002028
135 0.001963
144 0.001964
158 0.001986
176 0.00201
197 0.001995
215 0.001995
225 0.001972
228 0.002019
226 0.001023
220 0.002005
208 0.001956
168 0.00201
130 0.00204
108 0.002038
97 0.003017
98 0.002994
103 0.001993
113 0.002002
123 0.000998
128 0.001994
129 0.00199
134 0.001024
143 0.001971
157 0.002014
170 0.002998
183 0.002
191 0.001961
195 0.000946
206 0.001988
212 0.001998
211 0.001064
188 0.001022
154 0.001995
109 0.000964
98 0.000986
92 0.002003
95 0.000964
102 0.0
106 0.00199
107 0.001998
109 0.001985
118 0.001998
124 0.001989
131 0.002028
143 0.001004
161 0.000967
171 0.00103
176 0.001013
187 0.002655
194 0.0
199 0.001025
193 0.001042
173 0.0
132 0.0
110 0.0
98 0.001
97 0.000952
104 0.000972
110 0.0
115 0.0
122 0.000957
122 0.0
126 0.0
136 0.0
146 0.0
156 0.0
165 0.0
172 0.0
178 0.0
183 0.001049
175 0.0
161 0.0
116 0.0
64 0.0
13 0.0
0 0.000996
0 0.0
0 0.0
0 0.000967
0 0.0
0 0.0
0 0.000998
0 0.0
0 0.0
7 0.0
22 0.001995
34 0.0
47 0.000963
56 0.0
74 0.0
82 0.001994
89 0.0
89 0.0
56 0.000974
43 0.000999
33 0.000959
29 0.0
33 0.0
44 0.000957
54 0.000953
58 0.0
64 0.001995
67 0.001954
77 0.000952
90 0.003088
106 0.00097
138 0.000952
159 0.0
180 0.00299
198 0.002992
205 0.0
190 0.0
165 0.0
140 0.003013
126 0.003013
124 0.0
128 0.002002
135 0.000997
135 0.0
131 0.0
128 0.001027
127 0.002991
128 0.002985
133 0.001024
137 0.000991
138 0.001049
142 0.003008
149 0.003036
160 0.002026
157 0.003959
120 0.0
87 0.0
67 0.0
58 0.002991
54 0.00299
58 0.000999
63 0.000994
64 0.000953
70 0.002991
72 0.003025
78 0.002953
85 0.002993
95 0.000968
109 0.0
118 0.0
130 0.002993
143 0.002993
158 0.000998
165 0.0
161 0.0
137 0.002012
105 0.003005
81 0.001992
80 0.003009
83 0.000951
86 0.000949
89 0.0
92 0.003028
93 0.003024
93 0.0
97 0.000951
105 0.0
115 0.002002
127 0.002009
144 0.002998
151 0.001988
166 0.0
177 0.0
184 0.000997
190 0.002991
177 0.002992
133 0.0
108 0.0
104 0.000998
108 0.002033
123 0.002027
157 0.001995
173 0.002994
185 0.0
184 0.000947
185 0.0
191 0.001999
195 0.002991
203 0.0
209 0.0
214 0.0
219 0.002954
223 0.002992
229 0.002994
234 0.002954
239 0.001009
242 0.001016
240 0.001
212 0.002964
170 0.002879
131 0.0
114 0.0
105 0.0
103 0.002992
104 0.00299
114 0.002953
121 0.002986
127 0.000965
131 0.001
138 0.000969
147 0.002962
155 0.002992
167 0.002923
180 0.000966
185 0.001995
196 0.002026
212 0.0
221 0.001998
232 0.002962
245 0.002995
251 0.002002
227 0.002993
192 0.003001
166 0.004956
152 0.005009
143 0.002993
142 0.0
147 0.003007
153 0.003087
156 0.0
155 0.004005
158 0.003996
168 0.000996
174 0.001995
183 0.001999
190 0.002979
199 0.003989
206 0.001995
214 0.002989
222 0.003038
234 0.001993
239 0.002996
184 0.003989
173 0.003989
149 0.001987
135 0.002961
129 0.002992
129 0.003986
129 0.003992
132 0.002002
136 0.001997
136 0.003024
137 0.00399
139 0.00299
144 0.004958
148 0.003952
154 0.002991
159 0.002991
164 0.002032
168 0.003965
171 0.003959
177 0.001995
180 0.002005
177 0.00201
154 0.002037
140 0.002992
130 0.004984
127 0.004988
125 0.002997
127 0.002996
130 0.003023
132 0.004982
132 0.004963
135 0.001991
137 0.001995
140 0.002987
149 0.003008
154 0.003004
159 0.004019
164 0.004953
172 0.001964
178 0.001995
183 0.001968
185 0.004949
180 0.004987
158 0.001989
141 0.002958
132 0.002985
128 0.002993
129 0.002937
130 0.004987
133 0.005993
139 0.00296
141 0.002962
145 0.002988
150 0.004959
154 0.00495
162 0.002992
172 0.003
181 0.001967
194 0.00201
201 0.00299
209 0.003
216 0.005019
223 0.005013
225 0.002999
216 0.003943
201 0.003035
188 0.005983
181 0.005986
180 0.003989
182 0.002991
185 0.001994
188 0.002994
188 0.001994
189 0.005951
191 0.004991
193 0.002994
198 0.002992
204 0.002988
208 0.005986
209 0.005983
212 0.002993
215 0.002994
220 0.003024
222 0.002983
224 0.002986
228 0.005997
227 0.005985
211 0.003024
195 0.003972
180 0.002946
173 0.005986
170 0.005984
171 0.002987
172 0.006018
173 0.003038
173 0.002992
172 0.002988
174 0.007015
173 0.007016
176 0.003969
179 0.003997
181 0.003991
183 0.006016
185 0.005986
186 0.002995
188 0.005985
189 0.003035
188 0.004991
179 0.002993
163 0.006981
148 0.007979
139 0.002993
137 0.00399
138 0.00399
141 0.006983
142 0.006981
140 0.003982
139 0.005969
131 0.004011
130 0.003994
129 0.004009
129 0.006024
130 0.00702
130 0.003951
125 0.003978
123 0.003972
121 0.007014
120 0.006982
106 0.003988
83 0.006984
64 0.003985
55 0.004972
54 0.004988
57 0.006979
59 0.006938
58 0.004995
53 0.004982
48 0.00399
45 0.006983
45 0.007014
49 0.003997
55 0.007005
61 0.007058
67 0.003991
70 0.004973
74 0.004985
75 0.008014
64 0.006983
31 0.007976
28 0.000997
24 0.003991
21 0.002991
20 0.000998
31 0.005985
35 0.0
40 0.000997
40 0.004984
42 0.006982
45 0.006982
51 0.004987
54 0.003989
59 0.00399
62 0.00798
67 0.007984
60 0.007979
36 0.007977
21 0.004993
11 0.004973
8 0.004974
7 0.007019
10 0.007013
17 0.005967
19 0.004953
20 0.00499
24 0.007978
27 0.007945
36 0.007983
44 0.007983
52 0.004997
60 0.004999
67 0.005979
72 0.008025
73 0.006981
59 0.00495
43 0.005985
31 0.004932
27 0.007992
28 0.007977
36 0.007977
43 0.006982
48 0.002993
52 0.004987
57 0.004987
67 0.007978
76 0.006981
85 0.005986
94 0.005985
103 0.005929
116 0.006936
129 0.005946
135 0.006975
133 0.006982
118 0.005995
103 0.004964
93 0.005983
89 0.007973
90 0.00702
92 0.006022
96 0.006002
102 0.005982
104 0.007021
107 0.00597
113 0.006981
117 0.006974
123 0.005955
127 0.005969
132 0.005974
139 0.006984
143 0.006022
148 0.006987
153 0.006966
149 0.006951
128 0.00698
108 0.006013
101 0.006999
99 0.007012
99 0.00698
104 0.006021
107 0.005985
109 0.005985
110 0.00698
114 0.005964
117 0.005987
122 0.006013
124 0.006034
136 0.006012
140 0.006086
143 0.005989
148 0.006017
152 0.006015
154 0.006971
150 0.006982
131 0.005974
115 0.006977
103 0.006983
101 0.005957
102 0.004974
107 0.005975
110 0.005981
110 0.006018
111 0.005984
113 0.005987
117 0.005977
120 0.005982
123 0.005997
124 0.005948
129 0.005955
132 0.006929
134 0.00697
139 0.005981
133 0.005968
118 0.00599
98 0.006019
77 0.005977
71 0.006016
70 0.006005
71 0.006003
74 0.005945
78 0.006036
77 0.005977
78 0.004975
84 0.004954
91 0.004999
97 0.004992
101 0.004987
106 0.004987
112 0.004986
116 0.006034
120 0.00498
125 0.005948
119 0.005982
102 0.006033
85 0.005984
74 0.005983
74 0.005982
77 0.005978
81 0.005018
87 0.005022
89 0.004992
91 0.004977
93 0.004955
98 0.004955
104 0.00495
110 0.004948
116 0.005967
124 0.005982
130 0.004995
136 0.004936
140 0.005023
141 0.004943
127 0.004987
108 0.004954
69 0.004964
60 0.00494
58 0.005975
65 0.004936
75 0.004943
89 0.003956
96 0.00498
100 0.004954
107 0.004954
116 0.005023
131 0.004997
142 0.004956
153 0.004978
166 0.005037
175 0.00496
191 0.004988
203 0.004964
209 0.004932
188 0.003983
156 0.003985
130 0.004004
119 0.00399
115 0.003952
114 0.003986
118 0.004033
123 0.003983
125 0.004986
131 0.004947
138 0.00401
147 0.004995
154 0.005007
163 0.004981
173 0.004956
182 0.003989
191 0.003989
199 0.003988
204 0.003989
212 0.003988
208 0.003991
170 0.004957
130 0.004025
108 0.003969
103 0.003953
105 0.003951
108 0.003991
116 0.003977
125 0.003966
130 0.004949
136 0.003011
143 0.003989
153 0.003956
164 0.003992
177 0.004027
186 0.003979
192 0.00399
201 0.003983
208 0.003988
208 0.004019
185 0.003988
155 0.003975
131 0.003965
123 0.004182
127 0.003943
133 0.002992
147 0.002998
151 0.002993
151 0.002993
148 0.003029
149 0.002998
154 0.003052
165 0.003037
173 0.003991
180 0.003953
187 0.003979
196 0.003991
205 0.002947
204 0.004024
171 0.002994
141 0.002993
123 0.002984
119 0.003025
122 0.003028
130 0.002988
138 0.002971
145 0.002942
148 0.004007
149 0.003926
156 0.003986
166 0.003048
180 0.002939
188 0.002958
197 0.001997
206 0.002993
211 0.002993
217 0.002993
215 0.002992
191 0.002971
149 0.002981
113 0.002977
96 0.003033
88 0.003012
91 0.002996
96 0.002966
105 0.003002
110 0.001937
115 0.001995
122 0.002992
135 0.002994
137 0.00294
141 0.002997
148 0.003038
154 0.002985
168 0.002958
181 0.002963
186 0.001972
166 0.001979
133 0.002991
106 0.002051
93 0.002001
94 0.002997
99 0.001952
105 0.001985
114 0.001995
122 0.002994
127 0.002018
131 0.001959
143 0.001992
155 0.001943
163 0.002037
170 0.001959
178 0.00203
192 0.001996
200 0.000959
212 0.002006
217 0.002011
178 0.001976
150 0.001962
136 0.001034
138 0.001966
144 0.001004
152 0.001956
163 0.002037
172 0.002047
177 0.002023
182 0.001984
186 0.001986
179 0.002956
184 0.002043
193 0.001984
199 0.001986
211 0.001001
216 0.001971
221 0.002026
218 0.002027
197 0.002029
154 0.002005
135 0.002022
132 0.001972
136 0.001992
151 0.001998
159 0.002022
165 0.001032
166 0.001994
166 0.00199
172 0.001996
182 0.001798
189 0.001995
198 0.00199
207 0.002038
213 0.001992
219 0.001996
228 0.000997
212 0.001961
179 0.001971
141 0.000997
131 0.001028
133 0.001995
141 0.001009
148 0.000965
158 0.000961
159 0.001995
159 0.000978
163 0.0
169 0.002015
177 0.000995
187 0.001982
192 0.001004
202 0.0
209 0.0
217 0.0
216 0.000997
202 0.0
156 0.001008
127 0.001029
117 0.001041
120 0.000997
127 0.000996
135 0.000995
140 0.001034
146 0.0
146 0.0
149 0.000997
156 0.0
164 0.000968
171 0.0
180 0.0
189 0.0
200 0.0
205 0.0
195 0.0
168 0.0
128 0.0
113 0.0
114 0.000957
119 0.0
127 0.0
139 0.0
145 0.0
147 0.0
153 0.0
158 0.0
164 0.0
174 0.0
183 0.0
190 0.0
199 0.0
208 0.0
209 0.000959
183 0.001055
152 0.000997
129 0.0
124 0.0
129 0.0
142 0.0
150 0.000996
152 0.002995
156 0.000991
157 0.00099
161 0.0
165 0.000954
178 0.002994
185 0.00096
196 0.003026
203 0.00404
210 0.000953
201 0.0
175 0.00101
137 0.001995
127 0.0
124 0.0
134 0.001006
144 0.001011
151 0.0
154 0.002993
155 0.003039
157 0.003022
162 0.000996
171 0.000964
179 0.0
188 0.0
194 0.002012
203 0.0
200 0.000969
177 0.000962
147 0.003023
126 0.002992
120 0.003004
126 0.002042
138 0.001001
144 0.0
147 0.0
152 0.002029
151 0.0
156 0.001005
163 0.001
168 0.000963
175 0.00098
184 0.004031
194 0.000964
188 0.002981
160 0.001016
124 0.0
110 0.0
106 0.000964
109 0.003025
119 0.00405
128 0.000968
132 0.001
135 0.001018
138 0.003039
143 0.0
150 0.003024
158 0.004021
169 0.0
175 0.001956
182 0.0
178 0.00402
156 0.00303
115 0.001021
96 0.002024
86 0.000984
80 0.00204
80 0.000997
79 0.001982
58 0.003017
7 0.0
0 0.0
0 0.0
0 0.003031
0 0.002986
0 0.0
0 0.001009
0 0.000999
0 0.003025
0 0.0
0 0.003026
0 0.002994
0 0.0
0 0.002036
0 0.001029
0 0.003059
0 0.003029
0 0.001006
0 0.000963
0 0.000957
0 0.002992
0 0.0
0 0.003031
11 0.003025
35 0.00101
54 0.000942
63 0.000983
53 0.003023
26 0.002997
7 0.0
8 0.000975
22 0.000964
38 0.003025
76 0.0
97 0.002986
109 0.003038
123 0.001002
140 0.000965
163 0.0
181 0.003039
200 0.002995
220 0.002987
192 0.000983
199 0.0
209 0.0
200 0.0
183 0.003022
168 0.003026
162 0.0
166 0.0
169 0.000995
174 0.00299
179 0.00399
181 0.004026
179 0.00095
180 0.000948
185 0.000997
188 0.0
