101 0.018999
103 0.003992
107 0.002963
114 0.003944
119 0.004043
123 0.003958
127 0.003989
130 0.00398
131 0.003946
131 0.002993
135 0.003988
137 0.002992
137 0.002947
139 0.002964
143 0.00299
146 0.00299
148 0.003969
83 0.003948
51 0.003959
44 0.002951
51 0.003996
61 0.003985
71 0.002995
75 0.003994
79 0.00399
83 0.003958
83 0.003958
80 0.002962
81 0.003941
89 0.002983
92 0.002992
97 0.002992
103 0.002992
107 0.003042
109 0.002959
112 0.003007
113 0.003938
115 0.003959
117 0.004009
119 0.004053
122 0.002998
126 0.002992
128 0.003001
129 0.002941
134 0.002959
137 0.002961
116 0.002991
61 0.003028
33 0.002992
30 0.002992
40 0.002992
54 0.001995
61 0.002992
69 0.003997
73 0.003989
73 0.002993
70 0.002026
67 0.002992
73 0.002995
79 0.00305
83 0.002989
89 0.002987
95 0.002991
99 0.002028
101 0.002992
106 0.002943
107 0.001995
109 0.00203
112 0.001995
115 0.00296
119 0.001995
123 0.001994
127 0.001996
119 0.002992
72 0.003004
34 0.002992
37 0.001985
60 0.00198
70 0.00199
77 0.001963
85 0.001994
92 0.001995
91 0.002001
86 0.002948
86 0.002996
92 0.002992
100 0.002992
108 0.001995
115 0.002086
122 0.001995
126 0.002041
127 0.001995
130 0.001991
133 0.001995
135 0.001995
139 0.001995
145 0.001967
148 0.001949
137 0.000984
93 0.002992
63 0.001918
72 0.001964
88 0.001962
95 0.001995
104 0.001981
114 0.001996
117 0.002018
105 0.001994
99 0.001983
101 0.001995
107 0.001995
113 0.001995
123 0.000998
130 0.000997
134 0.000998
134 0.002
136 0.001996
138 0.001995
141 0.001966
143 0.001961
143 0.002025
109 0.001994
68 0.002059
57 0.000998
70 0.001001
80 0.000999
89 0.000997
95 0.000997
101 0.001995
97 0.001995
88 0.001995
86 0.001995
90 0.001995
96 0.001995
101 0.000998
106 0.000997
113 0.000999
116 0.000996
116 0.001008
118 0.000998
121 0.000998
123 0.000998
123 0.001995
127 0.000976
131 0.000998
132 0.001994
100 0.002005
52 0.000999
34 0.001029
44 0.001005
55 0.001011
60 0.000998
62 0.000997
66 0.000997
69 0.000956
65 0.000997
62 0.000997
65 0.000998
72 0.000997
78 0.001012
85 0.000965
89 0.000997
95 0.000997
96 0.000998
97 0.000998
101 0.000997
103 0.000997
107 0.000998
110 0.000997
113 0.000997
118 0.000998
122 0.000998
125 0.0
128 0.0
133 0.000999
133 0.001034
89 0.000997
43 0.000997
28 0.000998
38 0.000998
48 0.000997
55 0.000998
56 0.000998
60 0.0
67 0.0
68 0.0
68 0.0
73 0.0
80 0.0
87 0.000967
93 0.000997
101 0.000998
106 0.000997
109 0.000966
111 0.000998
115 0.0
122 0.0
125 0.0
131 0.0
136 0.0
141 0.0
145 0.0
150 0.0
153 0.0
159 0.00101
161 0.0
165 0.0
170 0.0
156 0.0
106 0.0
77 0.0
80 0.0
92 0.0
102 0.0
108 0.0
113 0.0
121 0.000997
122 0.001004
120 0.0
119 0.0
128 0.0
135 0.0
141 0.0
151 0.0
155 0.0
158 0.0
159 0.0
160 0.0
163 0.0
166 0.000997
169 0.0
171 0.001007
173 0.0
177 0.0
178 0.0
155 0.0
109 0.0
89 0.0
93 0.0
101 0.0
109 0.001031
113 0.000998
119 0.0
124 0.000998
117 0.0
112 0.0
114 0.0
119 0.0
123 0.0
129 0.0
134 0.0
138 0.0
142 0.000968
144 0.000997
145 0.0
149 0.000996
152 0.0
153 0.0
156 0.0
158 0.001003
161 0.000997
164 0.0
165 0.0
169 0.0
139 0.001029
90 0.000996
71 0.000999
80 0.001
90 0.000997
99 0.0
102 0.0
108 0.000997
112 0.000997
108 0.0
106 0.0
108 0.0
112 0.000952
118 0.000997
125 0.000998
130 0.001086
135 0.0
137 0.0
138 0.000998
140 0.000998
144 0.001036
147 0.0
148 0.0
149 0.0
152 0.000951
154 0.002011
158 0.0
160 0.001995
164 0.000999
167 0.00102
170 0.000947
151 0.002016
101 0.001987
73 0.001032
79 0.001004
89 0.000963
97 0.000981
99 0.000997
105 0.001025
114 0.001031
110 0.0
105 0.0
108 0.001074
112 0.002029
116 0.001962
126 0.000997
132 0.001003
138 0.000998
144 0.001961
147 0.001053
150 0.000898
157 0.001
160 0.0
161 0.001014
166 0.000993
171 0.000998
174 0.001963
178 0.002029
183 0.001008
187 0.001044
192 0.00098
197 0.001994
184 0.001995
97 0.001964
82 0.001997
95 0.000996
109 0.001031
118 0.001996
128 0.001931
137 0.002007
145 0.001987
140 0.001048
134 0.002005
132 0.002034
137 0.002009
147 0.002008
154 0.001995
165 0.00103
169 0.001062
173 0.001017
176 0.002986
178 0.003002
183 0.001956
184 0.002021
186 0.001988
188 0.001994
192 0.002
196 0.001991
199 0.001994
161 0.001023
114 0.001984
96 0.002035
103 0.002992
114 0.002992
128 0.001994
134 0.002067
143 0.002025
148 0.002057
137 0.001045
133 0.002018
133 0.002027
139 0.002047
144 0.002045
152 0.002051
157 0.002961
159 0.003005
164 0.00196
165 0.002
165 0.001995
166 0.003036
168 0.001971
170 0.00298
170 0.001943
172 0.002974
174 0.003028
179 0.002067
156 0.002995
101 0.002992
68 0.001966
72 0.001993
84 0.002008
93 0.002027
102 0.002011
106 0.00303
110 0.002998
105 0.001989
100 0.002026
100 0.002038
105 0.002997
111 0.002992
119 0.001993
125 0.002003
129 0.002012
133 0.003023
137 0.002041
139 0.003053
140 0.003055
145 0.003055
146 0.003028
148 0.002993
153 0.00299
157 0.002992
158 0.002996
161 0.002038
166 0.001971
169 0.003043
112 0.003008
67 0.003988
56 0.003985
69 0.002984
79 0.002975
85 0.003041
89 0.003989
93 0.00398
100 0.003005
98 0.003045
95 0.002964
96 0.00304
108 0.002007
116 0.003007
121 0.003996
128 0.003008
132 0.00303
134 0.002959
136 0.003994
136 0.00396
139 0.003013
141 0.003028
146 0.003053
147 0.003989
152 0.002995
157 0.002954
160 0.003942
162 0.003997
166 0.003003
131 0.003004
82 0.002988
61 0.004027
67 0.004012
83 0.003029
88 0.003975
91 0.003016
100 0.003027
100 0.003929
92 0.004025
88 0.004008
93 0.003024
98 0.002987
104 0.003008
108 0.004009
114 0.004032
118 0.003005
119 0.00299
123 0.00403
127 0.003971
131 0.003969
132 0.003993
134 0.003981
137 0.003999
140 0.003013
140 0.003989
143 0.004014
147 0.003987
125 0.002952
73 0.002968
42 0.00396
50 0.003981
59 0.003941
64 0.004972
65 0.004965
68 0.003959
72 0.002994
72 0.003978
66 0.003982
66 0.003988
73 0.00303
80 0.004022
89 0.00403
91 0.004008
94 0.003961
97 0.005017
97 0.004029
99 0.004033
102 0.004021
104 0.003982
108 0.003998
110 0.004033
113 0.004967
118 0.004002
121 0.003983
124 0.004004
126 0.004008
126 0.004999
128 0.004993
130 0.003976
133 0.003972
118 0.003999
62 0.003985
23 0.004974
17 0.004994
27 0.004985
43 0.004019
43 0.003986
48 0.004018
54 0.005003
55 0.005024
55 0.003989
57 0.003993
63 0.003954
70 0.005978
79 0.006003
85 0.00494
93 0.004991
99 0.004998
104 0.004021
107 0.004018
110 0.004992
115 0.004979
121 0.004986
124 0.004037
130 0.004974
135 0.005953
140 0.005988
145 0.004971
149 0.004958
153 0.004986
157 0.004981
161 0.005001
161 0.004985
117 0.004986
67 0.003988
63 0.004945
74 0.005043
87 0.005981
95 0.006002
98 0.005029
104 0.004986
107 0.004999
103 0.004971
99 0.004986
106 0.004937
114 0.005935
125 0.003996
131 0.005022
137 0.004956
140 0.006026
140 0.005994
141 0.005
144 0.005018
145 0.006035
147 0.003945
149 0.005002
150 0.00598
151 0.004972
155 0.005961
158 0.004978
136 0.005041
85 0.00499
56 0.005999
54 0.005995
70 0.005993
75 0.006011
79 0.004969
84 0.004985
85 0.004962
81 0.005986
74 0.006994
74 0.005991
80 0.00598
86 0.005993
94 0.006016
99 0.005995
106 0.005984
108 0.006017
110 0.004971
113 0.00497
116 0.005991
118 0.006936
120 0.007024
125 0.00599
128 0.006009
131 0.005998
136 0.005986
138 0.005987
141 0.005984
143 0.005975
147 0.004996
151 0.004939
120 0.004987
64 0.006975
33 0.007004
37 0.006019
49 0.006067
56 0.005956
59 0.00598
61 0.006032
69 0.006045
68 0.005987
64 0.005006
68 0.00595
72 0.006004
79 0.007019
86 0.006994
95 0.005981
100 0.005968
104 0.005981
107 0.00699
109 0.006982
114 0.006016
116 0.005999
121 0.005983
128 0.005002
131 0.005962
137 0.006966
140 0.00699
144 0.005975
151 0.005972
157 0.005972
159 0.007021
162 0.006955
169 0.006017
175 0.007975
175 0.006945
140 0.007003
86 0.007
63 0.006999
71 0.006986
88 0.005978
95 0.006004
99 0.006005
104 0.006957
108 0.006983
104 0.006981
104 0.007029
111 0.007023
117 0.004973
125 0.005987
133 0.006957
139 0.00699
144 0.006027
146 0.005989
147 0.005983
149 0.00698
152 0.006962
156 0.007028
161 0.007975
162 0.006003
167 0.007015
170 0.007011
171 0.006967
172 0.006955
178 0.006043
180 0.006962
180 0.006937
143 0.006996
93 0.007978
75 0.00697
85 0.007943
96 0.007041
102 0.007036
106 0.006949
111 0.007968
110 0.007979
106 0.007965
101 0.006955
102 0.007045
111 0.007021
116 0.007973
124 0.007016
130 0.006979
133 0.00793
135 0.007034
135 0.007023
137 0.007021
140 0.007938
143 0.007978
145 0.007033
149 0.007012
152 0.007027
158 0.007027
161 0.007022
163 0.008
166 0.007978
168 0.00703
170 0.007013
175 0.007008
145 0.007982
106 0.007979
59 0.00704
59 0.006009
69 0.006024
82 0.007074
86 0.007011
90 0.007024
93 0.007014
90 0.006979
85 0.006979
86 0.007026
89 0.007977
95 0.007943
103 0.006981
110 0.00704
114 0.00703
118 0.006987
119 0.006983
122 0.007979
124 0.007016
128 0.006971
130 0.007016
132 0.006977
135 0.007013
138 0.007014
143 0.007029
144 0.006974
147 0.006962
151 0.006951
154 0.007017
157 0.007972
159 0.007029
162 0.007027
125 0.006978
84 0.006999
45 0.007013
47 0.007012
58 0.006989
66 0.006995
69 0.007001
73 0.007
77 0.00698
76 0.006981
73 0.007013
75 0.006962
80 0.007005
88 0.007119
96 0.007029
101 0.007011
108 0.006982
112 0.007012
113 0.00691
117 0.00691
118 0.007025
122 0.007012
125 0.006982
127 0.007011
133 0.006971
137 0.006988
140 0.006014
143 0.006027
148 0.007027
151 0.006981
153 0.007013
158 0.007019
161 0.007018
166 0.007013
167 0.006981
110 0.006876
61 0.006026
46 0.006025
51 0.00602
59 0.005983
73 0.006015
78 0.007015
79 0.007028
83 0.006981
80 0.006981
78 0.007029
78 0.006977
87 0.006967
95 0.007016
101 0.005985
107 0.005992
113 0.005984
117 0.006029
119 0.006016
122 0.005985
127 0.00703
130 0.007002
133 0.007027
136 0.007016
142 0.007021
147 0.006983
152 0.005974
156 0.00601
160 0.006033
165 0.006031
170 0.006032
175 0.006029
180 0.006002
183 0.004988
147 0.006983
91 0.007025
69 0.007021
76 0.006018
86 0.006009
97 0.006016
104 0.005992
109 0.006017
115 0.005983
110 0.006025
105 0.006019
106 0.006031
113 0.005015
122 0.004986
130 0.006016
139 0.007034
144 0.005952
148 0.005978
148 0.00603
150 0.005984
154 0.005995
156 0.006016
160 0.005982
163 0.005953
168 0.00603
169 0.005984
173 0.005969
177 0.005983
181 0.005034
180 0.005022
135 0.005995
88 0.006001
74 0.006014
84 0.006014
97 0.005984
101 0.006013
106 0.005998
112 0.006181
109 0.005034
99 0.005101
95 0.005036
98 0.005031
102 0.004986
111 0.005019
120 0.005021
127 0.006014
127 0.005924
127 0.005028
130 0.005987
129 0.005984
131 0.006022
133 0.006018
134 0.005977
136 0.006034
140 0.005017
144 0.005019
146 0.005016
151 0.005014
156 0.005018
158 0.00503
138 0.005046
80 0.005019
41 0.005983
38 0.006028
47 0.004988
56 0.005023
61 0.004996
65 0.004987
68 0.005029
67 0.005026
60 0.005034
61 0.005033
65 0.004947
71 0.005021
79 0.005021
88 0.005033
91 0.004993
96 0.005025
98 0.00499
100 0.00502
102 0.005033
106 0.005
113 0.004987
117 0.004987
122 0.004988
126 0.005027
131 0.00502
135 0.005048
140 0.004021
142 0.003998
142 0.00407
148 0.004031
153 0.00505
141 0.005022
67 0.005013
30 0.00502
26 0.00502
35 0.004935
47 0.005032
54 0.003989
54 0.00402
58 0.004029
60 0.003988
56 0.004063
54 0.004044
58 0.004987
68 0.005017
74 0.004978
83 0.004966
90 0.005035
95 0.005044
98 0.004986
101 0.004986
103 0.004027
106 0.004031
110 0.00399
116 0.003991
122 0.003961
128 0.003949
133 0.005038
139 0.004031
142 0.00497
146 0.004984
150 0.003989
155 0.004022
160 0.004026
162 0.003957
125 0.003991
54 0.003957
52 0.003978
60 0.003992
76 0.003989
86 0.004981
91 0.00403
97 0.004034
99 0.003917
91 0.004031
87 0.004025
89 0.003992
96 0.004024
109 0.004072
116 0.00403
121 0.003991
125 0.004023
126 0.003991
126 0.003991
129 0.00399
133 0.003991
136 0.003992
140 0.003
144 0.003989
148 0.003033
157 0.002983
150 0.004027
103 0.003985
60 0.004021
58 0.004043
65 0.002992
75 0.003987
83 0.003991
89 0.003992
94 0.003992
91 0.003958
84 0.002994
78 0.002967
83 0.003025
90 0.003024
100 0.002968
107 0.002993
111 0.002996
115 0.004037
116 0.00393
117 0.003965
121 0.00306
122 0.004043
124 0.003989
130 0.004023
136 0.003996
139 0.00295
140 0.003017
145 0.002991
150 0.002991
153 0.00295
128 0.003021
64 0.003054
43 0.003991
45 0.003955
55 0.004036
64 0.003958
65 0.003992
67 0.003019
71 0.003082
70 0.002957
66 0.003009
68 0.002994
71 0.002991
81 0.00297
86 0.003992
90 0.003024
95 0.002992
99 0.003022
102 0.003034
103 0.002995
108 0.002992
112 0.002994
115 0.002994
117 0.003001
122 0.003026
128 0.003032
132 0.003027
135 0.003025
140 0.003991
144 0.003013
146 0.001998
148 0.00203
155 0.003037
158 0.003027
135 0.003018
83 0.003026
51 0.003044
48 0.003022
58 0.003018
64 0.002993
66 0.002993
65 0.002992
70 0.003034
69 0.001997
68 0.002989
68 0.002936
73 0.002964
80 0.002992
88 0.002966
94 0.002921
99 0.003024
101 0.002992
106 0.002027
107 0.001984
109 0.00202
113 0.00296
118 0.001995
120 0.003005
125 0.001992
130 0.003004
133 0.002992
136 0.002992
141 0.003029
144 0.002993
149 0.002032
150 0.003031
155 0.001995
158 0.002031
159 0.001995
163 0.002042
167 0.002026
169 0.002171
139 0.002027
86 0.001995
56 0.001995
58 0.003032
72 0.001016
78 0.001995
81 0.001994
83 0.001999
87 0.002031
86 0.002026
84 0.002028
87 0.002033
90 0.002001
99 0.002024
107 0.002045
112 0.001995
121 0.001003
122 0.000998
126 0.001
129 0.000998
131 0.001996
139 0.002035
141 0.002019
146 0.001994
151 0.002047
157 0.001994
161 0.002046
165 0.002023
172 0.001995
176 0.001002
179 0.000998
181 0.000998
185 0.00103
191 0.001019
191 0.000997
157 0.001994
109 0.002043
89 0.001996
96 0.001996
108 0.002041
120 0.000997
124 0.001026
131 0.000989
132 0.000986
129 0.000997
125 0.000998
126 0.000989
133 0.000982
142 0.000997
150 0.001995
159 0.001997
164 0.001949
167 0.000928
169 0.000999
170 0.000999
174 0.000998
180 0.000997
182 0.000999
185 0.001029
190 0.000997
193 0.000997
195 0.00101
203 0.002007
205 0.000997
156 0.000998
116 0.001038
108 0.001
113 0.000998
123 0.000997
137 0.000997
143 0.000998
147 0.000997
149 0.001031
145 0.000998
138 0.001997
138 0.001996
147 0.001996
155 0.001995
162 0.0
168 0.0
172 0.001008
172 0.0
172 0.001005
173 0.000998
173 0.000998
176 0.000997
178 0.001
182 0.000963
185 0.001029
187 0.000998
192 0.000998
191 0.000997
156 0.0
101 0.0
91 0.0
97 0.0
108 0.0
117 0.0
120 0.000997
128 0.000997
125 0.000998
117 0.000998
113 0.000997
114 0.000997
120 0.0
127 0.0
135 0.0
142 0.0
144 0.0
146 0.0
147 0.0
149 0.0
149 0.0
153 0.0
154 0.0
157 0.0
161 0.0
165 0.0
166 0.0
169 0.0
172 0.0
176 0.0
173 0.0
95 0.0
62 0.000967
62 0.0
71 0.000998
79 0.0
85 0.0
86 0.0
89 0.0
90 0.0
87 0.0
84 0.0
88 0.0
99 0.0
106 0.0
114 0.000976
119 0.00097
123 0.000997
125 0.000997
128 0.000976
133 0.0
135 0.0
140 0.0
142 0.0
147 0.0
154 0.0
158 0.0
163 0.000999
167 0.001006
169 0.0
174 0.0
180 0.0
183 0.00103
184 0.000997
123 0.0
79 0.0
69 0.0
84 0.0
94 0.0
98 0.001029
102 0.000998
106 0.0
108 0.0
106 0.0
104 0.001051
108 0.001996
117 0.0
125 0.000993
129 0.000967
140 0.0
143 0.000997
146 0.002054
147 0.001036
150 0.0
154 0.0
157 0.0
160 0.000999
165 0.00103
170 0.0
172 0.0
177 0.0
184 0.0
191 0.0
192 0.000997
155 0.000998
96 0.0
86 0.0
94 0.0
104 0.001043
114 0.000996
121 0.0
128 0.0
126 0.0
119 0.0
118 0.0
121 0.001009
126 0.001995
137 0.000999
144 0.001002
149 0.0
153 0.000997
154 0.001028
154 0.0
155 0.001003
157 0.000961
161 0.000968
162 0.001961
163 0.002002
167 0.001995
172 0.000998
174 0.001007
160 0.001064
109 0.001049
74 0.001038
69 0.001015
79 0.0
89 0.002086
93 0.001004
97 0.000993
100 0.001049
96 0.001995
90 0.001987
87 0.000997
94 0.000972
100 0.001075
106 0.002006
109 0.002015
114 0.00101
116 0.001026
116 0.000975
118 0.000993
120 0.001014
124 0.002054
126 0.001995
129 0.000997
135 0.000998
138 0.000966
141 0.001995
143 0.002055
146 0.001006
150 0.002027
153 0.000998
133 0.000998
76 0.000998
41 0.002037
36 0.002992
49 0.001027
56 0.001015
56 0.001005
56 0.002015
59 0.002002
63 0.00201
61 0.002063
63 0.001023
70 0.0
78 0.001036
84 0.003061
89 0.003028
95 0.001049
98 0.001014
100 0.000973
103 0.002026
106 0.002012
110 0.001
116 0.001995
121 0.001027
126 0.001032
130 0.002057
134 0.003046
138 0.002992
143 0.00198
145 0.002012
148 0.000989
152 0.002002
155 0.001994
161 0.000997
153 0.001995
85 0.000987
53 0.002063
53 0.001989
65 0.002995
76 0.003011
78 0.002046
80 0.002035
88 0.000992
90 0.002996
88 0.002997
87 0.00102
95 0.001994
105 0.000998
112 0.00202
119 0.001993
125 0.003043
129 0.002992
132 0.002026
135 0.002
139 0.002007
143 0.003001
145 0.002989
152 0.002992
157 0.003989
163 0.001987
168 0.002004
172 0.002017
176 0.003032
179 0.002992
184 0.002181
191 0.002036
192 0.002007
159 0.002991
113 0.004007
99 0.002993
112 0.004022
127 0.00303
134 0.002025
138 0.001994
145 0.002989
145 0.002978
140 0.001985
139 0.00203
143 0.001998
154 0.002996
161 0.002993
173 0.003989
179 0.00399
181 0.003023
182 0.002992
182 0.002019
185 0.002992
187 0.003023
189 0.002
192 0.001995
195 0.001999
200 0.00295
205 0.002992
210 0.00399
186 0.00404
127 0.003024
117 0.003042
124 0.002035
135 0.003989
145 0.00405
151 0.003008
157 0.001985
160 0.001933
156 0.002026
147 0.004088
148 0.003038
152 0.003989
161 0.004021
169 0.003002
174 0.002992
177 0.003022
180 0.003989
181 0.004025
182 0.002007
184 0.001945
185 0.002003
187 0.003989
192 0.003008
194 0.00399
197 0.004017
199 0.002987
203 0.002982
206 0.003021
208 0.004023
176 0.004022
111 0.002994
100 0.002999
110 0.002013
121 0.005005
134 0.003
138 0.003989
142 0.004047
144 0.002973
139 0.003002
136 0.003005
138 0.00399
144 0.00402
154 0.002988
159 0.003004
164 0.002991
169 0.005005
173 0.003025
174 0.004986
176 0.005024
179 0.002989
182 0.003002
184 0.002985
186 0.00402
190 0.004022
195 0.004034
198 0.004037
201 0.00399
202 0.004953
209 0.00402
212 0.004986
206 0.004987
138 0.003002
104 0.003028
103 0.003003
113 0.005017
125 0.00399
133 0.003958
136 0.003999
139 0.00399
141 0.00404
137 0.003992
134 0.005047
137 0.004987
145 0.00402
151 0.004034
155 0.004025
161 0.004986
167 0.005016
167 0.003782
168 0.004003
171 0.003969
174 0.003951
175 0.004019
177 0.005018
181 0.005017
185 0.004023
187 0.004026
190 0.004021
194 0.004981
197 0.004993
203 0.005
205 0.003995
173 0.004032
104 0.003996
103 0.003991
113 0.005027
127 0.004986
138 0.00399
143 0.003989
149 0.004023
154 0.005024
149 0.005985
144 0.004979
148 0.003951
156 0.003975
167 0.00402
173 0.003986
181 0.004987
186 0.004989
187 0.004987
188 0.004026
188 0.004033
190 0.006066
191 0.006028
194 0.00599
198 0.004995
200 0.004978
206 0.005032
210 0.004023
214 0.004031
216 0.005984
187 0.004987
128 0.005024
119 0.004988
127 0.004963
139 0.005984
150 0.005977
158 0.005015
165 0.00494
164 0.005041
155 0.005024
151 0.005012
153 0.005984
156 0.006016
166 0.005036
173 0.004954
175 0.005003
179 0.006032
181 0.00599
178 0.005004
178 0.004994
181 0.005077
182 0.005029
183 0.00505
185 0.006006
188 0.005984
192 0.003994
195 0.004974
183 0.00498
133 0.00602
99 0.005994
99 0.005007
110 0.004981
127 0.00499
130 0.005035
134 0.00502
139 0.005984
133 0.005984
124 0.005986
124 0.005969
129 0.004985
137 0.007026
142 0.006988
150 0.004998
152 0.004949
156 0.005004
156 0.005969
156 0.004996
159 0.005985
161 0.00699
162 0.005985
164 0.004978
170 0.006017
172 0.006983
173 0.006963
177 0.004996
180 0.005014
184 0.004988
154 0.004975
98 0.005034
71 0.00603
71 0.005983
86 0.005982
96 0.004976
99 0.004995
101 0.005984
106 0.007027
106 0.005008
101 0.005984
102 0.00513
110 0.004997
116 0.00499
123 0.006985
128 0.007009
135 0.005985
139 0.005902
139 0.005971
140 0.006992
142 0.006977
146 0.005939
150 0.00701
153 0.005942
158 0.005983
162 0.006019
166 0.00698
168 0.006982
172 0.006033
175 0.004981
177 0.006012
182 0.007979
165 0.007968
93 0.005983
72 0.006981
84 0.006011
97 0.006023
103 0.005954
107 0.006981
112 0.006981
117 0.006014
111 0.006017
108 0.007012
109 0.007978
117 0.007969
125 0.005964
135 0.00699
142 0.005977
145 0.005982
145 0.005991
146 0.006981
146 0.007015
150 0.006827
154 0.00599
155 0.007017
160 0.007022
163 0.007971
166 0.007977
170 0.007978
174 0.007979
178 0.005959
141 0.006955
93 0.006017
77 0.008019
81 0.007976
96 0.005977
106 0.006945
111 0.007002
115 0.007979
120 0.007976
109 0.007941
105 0.007947
107 0.007024
113 0.007012
122 0.007032
130 0.007974
136 0.006939
142 0.006977
140 0.006982
140 0.006985
142 0.007966
144 0.007978
149 0.007972
150 0.007979
155 0.006989
160 0.007013
163 0.006992
167 0.007984
149 0.007981
84 0.007015
65 0.007028
69 0.006002
83 0.007018
89 0.007059
95 0.00703
101 0.007969
97 0.006967
92 0.006967
88 0.006983
89 0.00797
95 0.007992
104 0.006981
108 0.00694
114 0.006951
117 0.00797
118 0.007952
119 0.007947
120 0.007938
124 0.007055
126 0.006949
129 0.007019
133 0.007026
136 0.007012
139 0.007028
143 0.006979
145 0.006981
146 0.007012
151 0.006969
151 0.007023
107 0.007012
55 0.006976
36 0.00696
42 0.007008
54 0.007979
62 0.007944
64 0.007016
65 0.006982
68 0.007028
67 0.007013
63 0.006973
67 0.007015
72 0.006951
81 0.006958
86 0.006956
88 0.006967
92 0.007009
95 0.006985
95 0.007015
95 0.007023
98 0.007013
101 0.006983
106 0.006981
110 0.007017
114 0.006975
120 0.006952
122 0.006958
127 0.006983
129 0.006983
133 0.007014
138 0.007031
140 0.006982
142 0.007018
147 0.007026
153 0.006012
152 0.007042
104 0.006016
43 0.006984
35 0.005979
46 0.006012
58 0.006017
67 0.007026
70 0.007012
75 0.006982
80 0.007013
76 0.007012
73 0.007
77 0.007
85 0.00596
96 0.006025
102 0.005988
110 0.005984
114 0.005954
115 0.006017
117 0.006015
121 0.006951
122 0.006982
125 0.006972
130 0.006949
135 0.007036
139 0.007015
144 0.007025
148 0.006963
151 0.007022
156 0.006022
158 0.006068
162 0.005986
152 0.005985
100 0.006024
64 0.006031
67 0.006137
80 0.006015
90 0.006005
96 0.007029
103 0.005983
107 0.007015
103 0.007012
95 0.005963
94 0.006027
100 0.006034
107 0.006018
115 0.005983
126 0.006087
131 0.006
131 0.006024
133 0.006016
137 0.006013
136 0.005981
138 0.00602
141 0.005985
143 0.006025
146 0.005974
151 0.005993
154 0.006019
159 0.006028
161 0.006025
163 0.006028
164 0.005976
169 0.006043
172 0.006027
138 0.006015
81 0.005011
57 0.005026
62 0.00505
74 0.005036
86 0.004995
95 0.006025
98 0.006026
100 0.006018
98 0.006044
91 0.006048
92 0.005035
99 0.005022
107 0.004988
115 0.005023
123 0.005022
129 0.005032
134 0.005023
135 0.00502
136 0.005016
140 0.005028
144 0.006013
150 0.006015
156 0.005991
163 0.005021
168 0.00502
173 0.005013
180 0.004987
181 0.005018
186 0.004975
189 0.005036
190 0.005047
195 0.004997
175 0.004977
100 0.005018
76 0.005026
80 0.005035
90 0.004969
100 0.005021
111 0.005021
114 0.005022
118 0.005018
112 0.004977
109 0.004988
108 0.004986
113 0.005018
122 0.004971
130 0.004949
135 0.005017
139 0.005038
144 0.005021
147 0.003973
148 0.004989
151 0.005017
154 0.005036
157 0.005018
160 0.005028
164 0.005026
169 0.005022
172 0.005034
176 0.004997
178 0.005034
181 0.004933
184 0.004956
187 0.004021
194 0.004024
192 0.004022
148 0.004072
98 0.00396
83 0.003991
95 0.005032
108 0.005043
117 0.004969
125 0.005021
133 0.005027
136 0.005037
127 0.00398
119 0.003912
124 0.00399
129 0.004021
137 0.004052
147 0.004026
153 0.004009
157 0.00403
158 0.004025
159 0.005019
160 0.005013
160 0.004023
161 0.004022
165 0.003992
169 0.004021
171 0.00402
174 0.004032
177 0.004023
182 0.00399
185 0.004019
157 0.004021
110 0.00399
87 0.003991
87 0.004034
103 0.002994
115 0.002992
124 0.004036
129 0.004024
128 0.00399
120 0.00399
113 0.004029
113 0.003991
119 0.003934
126 0.003988
133 0.003986
140 0.004054
144 0.00399
145 0.003026
144 0.002949
145 0.002992
146 0.002993
146 0.00397
147 0.004002
151 0.004024
153 0.004037
155 0.004011
157 0.00396
159 0.004027
164 0.003994
165 0.002986
110 0.002992
67 0.00296
53 0.002987
61 0.003002
71 0.002992
81 0.003978
84 0.003989
86 0.004017
89 0.004033
86 0.004032
77 0.003991
78 0.002992
87 0.002994
94 0.002993
101 0.002992
105 0.004019
110 0.002992
112 0.003025
114 0.002992
116 0.003991
119 0.003992
120 0.00399
125 0.002992
127 0.002969
133 0.002993
135 0.002993
138 0.002992
144 0.002988
145 0.003031
146 0.003015
150 0.00402
154 0.003023
156 0.001995
145 0.001987
59 0.002989
39 0.002993
48 0.002992
58 0.002994
66 0.003004
68 0.002991
70 0.002992
74 0.002989
72 0.002992
70 0.002992
70 0.003023
73 0.002994
84 0.002028
92 0.00296
99 0.001995
103 0.002992
105 0.002992
109 0.002985
109 0.002988
112 0.002992
115 0.002987
117 0.00301
120 0.002988
126 0.001995
132 0.001994
136 0.001995
140 0.001995
144 0.00203
149 0.003008
150 0.003059
151 0.002992
155 0.003045
160 0.003026
163 0.003047
149 0.002992
93 0.001995
47 0.001995
55 0.001995
67 0.001996
78 0.001987
82 0.002031
86 0.001995
89 0.001987
87 0.001982
80 0.002992
79 0.002992
86 0.002993
94 0.001994
108 0.001972
115 0.001998
120 0.001995
123 0.001995
125 0.001972
126 0.001997
130 0.001995
134 0.002031
137 0.002002
141 0.001995
148 0.001016
151 0.000999
156 0.001995
158 0.001994
163 0.002014
170 0.001992
170 0.00199
145 0.001995
96 0.001996
74 0.002008
78 0.001995
89 0.001995
100 0.000997
110 0.000997
117 0.000997
114 0.001996
107 0.001998
99 0.001995
101 0.001988
105 0.001996
114 0.001995
122 0.001028
129 0.001995
132 0.000998
132 0.001127
132 0.000998
132 0.001056
135 0.000998
137 0.000997
138 0.000998
141 0.001995
145 0.001077
149 0.001995
151 0.001995
136 0.00097
84 0.000998
50 0.000998
51 0.000997
62 0.000997
72 0.000998
75 0.001015
79 0.000993
83 0.000983
79 0.000998
74 0.000986
72 0.001997
79 0.000998
86 0.000998
94 0.000958
102 0.000997
106 0.000966
109 0.001005
110 0.000998
111 0.001988
114 0.000997
118 0.001996
119 0.000997
123 0.000999
129 0.000998
132 0.001029
136 0.000999
140 0.000998
143 0.001006
145 0.000997
148 0.000998
153 0.001029
119 0.0
64 0.001995
39 0.001997
42 0.001993
56 0.000994
65 0.0
69 0.0
72 0.000997
74 0.001003
72 0.000992
69 0.000986
73 0.000998
78 0.000997
86 0.000992
93 0.001015
101 0.0
106 0.0
108 0.0
110 0.0
113 0.0
117 0.0
118 0.000998
123 0.000999
127 0.000997
132 0.000998
135 0.0
140 0.0
144 0.0
145 0.0
151 0.0
154 0.0
158 0.0
160 0.0
163 0.0
167 0.001002
170 0.0
173 0.000997
143 0.0
85 0.0
56 0.0
56 0.0
72 0.0
81 0.0
88 0.0
93 0.0
95 0.0
92 0.0
89 0.0
91 0.0
97 0.0
104 0.000999
110 0.000998
118 0.0
124 0.0
127 0.000997
128 0.0
129 0.0
134 0.0
135 0.0
137 0.0
143 0.0
147 0.0
149 0.000999
155 0.0
160 0.0
161 0.002027
164 0.000999
168 0.001944
173 0.001029
174 0.0
137 0.0
87 0.0
64 0.00103
67 0.000965
84 0.000961
94 0.000998
98 0.0
102 0.001992
106 0.0
102 0.000998
96 0.001995
99 0.0
106 0.0
113 0.0
120 0.001036
127 0.001035
133 0.0
133 0.0
136 0.0
137 0.001045
138 0.000999
142 0.000966
145 0.002006
149 0.0
152 0.0
156 0.0
159 0.002044
162 0.002025
166 0.0
170 0.0
174 0.0
178 0.001029
123 0.0
81 0.001008
70 0.001047
84 0.0
95 0.000998
100 0.0
104 0.000997
110 0.002026
110 0.0
103 0.0
99 0.0
100 0.001981
114 0.0
122 0.000968
131 0.001024
138 0.0
140 0.0
141 0.0
142 0.001029
143 0.001029
146 0.0
148 0.0
149 0.000999
153 0.000998
158 0.0
160 0.001993
162 0.002039
166 0.002031
171 0.0
158 0.0
111 0.001062
78 0.001045
74 0.001032
89 0.0
100 0.0
104 0.000999
113 0.000947
114 0.0
107 0.002025
98 0.00205
99 0.0
106 0.0
112 0.0
118 0.00203
126 0.001048
130 0.0
131 0.0
133 0.000954
135 0.000998
137 0.000997
137 0.001037
140 0.001043
146 0.0
148 0.0
151 0.000954
153 0.002045
156 0.002988
158 0.000948
163 0.0
165 0.001011
112 0.002021
70 0.001026
60 0.002001
67 0.002043
83 0.001999
91 0.002096
93 0.001991
96 0.002014
99 0.001995
90 0.001005
86 0.000997
93 0.001016
101 0.000999
107 0.000996
113 0.002059
119 0.001995
123 0.001997
123 0.002005
125 0.000962
127 0.002057
127 0.001998
131 0.002026
135 0.002024
140 0.001994
144 0.00103
146 0.000995
148 0.003058
151 0.002993
155 0.00202
158 0.001003
163 0.000966
161 0.001995
119 0.002063
70 0.001995
52 0.001994
70 0.001997
79 0.000991
85 0.000942
86 0.003044
90 0.002991
89 0.001029
84 0.000977
82 0.001992
87 0.002992
93 0.002992
103 0.001995
110 0.000984
118 0.000994
119 0.001025
121 0.00201
123 0.002992
125 0.002992
129 0.002007
132 0.001013
134 0.001015
137 0.002993
142 0.003025
147 0.000999
150 0.001002
155 0.001019
157 0.001994
161 0.001995
164 0.003008
167 0.003023
164 0.002025
115 0.001022
68 0.001011
55 0.002991
63 0.002991
79 0.000997
89 0.001954
94 0.001963
100 0.002001
99 0.002005
93 0.002992
89 0.002992
96 0.001997
104 0.001994
111 0.001995
120 0.002992
127 0.003024
133 0.002026
134 0.002046
137 0.000991
140 0.002017
141 0.001963
144 0.003989
147 0.004071
152 0.002991
155 0.001995
159 0.002004
162 0.002006
164 0.002992
167 0.002992
173 0.001045
176 0.003991
138 0.002004
86 0.002003
68 0.002017
73 0.004043
87 0.00399
100 0.002022
107 0.001996
112 0.001994
117 0.003038
111 0.002992
100 0.001974
101 0.003987
110 0.002025
118 0.002005
126 0.001962
135 0.004001
138 0.003931
140 0.001956
142 0.001955
141 0.002041
142 0.004022
144 0.004024
149 0.003989
152 0.003988
154 0.003017
159 0.003002
162 0.002997
163 0.003997
165 0.004021
172 0.003022
174 0.002019
161 0.002035
108 0.00399
69 0.003989
67 0.003994
80 0.00399
93 0.002974
98 0.003015
101 0.002994
104 0.004019
100 0.004049
91 0.002983
90 0.002998
96 0.003044
104 0.00404
112 0.00402
124 0.003975
128 0.003991
132 0.003028
133 0.003023
134 0.003142
136 0.004983
140 0.005015
143 0.002938
145 0.003012
151 0.002987
155 0.004989
158 0.004022
162 0.004982
165 0.004985
169 0.002987
171 0.002959
173 0.002961
153 0.005031
99 0.00504
64 0.002992
70 0.002945
85 0.003009
94 0.004987
100 0.003989
105 0.003984
108 0.00495
102 0.003016
98 0.003993
102 0.00404
108 0.005019
116 0.005021
125 0.003048
133 0.003042
138 0.002993
139 0.005017
139 0.004987
142 0.004971
144 0.004988
148 0.003989
151 0.003971
156 0.003958
159 0.005024
162 0.004987
167 0.003991
171 0.003035
173 0.003001
174 0.005019
178 0.005033
185 0.004982
183 0.005997
119 0.003997
87 0.004
85 0.003989
97 0.004986
109 0.005019
120 0.004955
123 0.003989
128 0.004035
130 0.005986
125 0.006032
122 0.004988
129 0.005985
138 0.003992
145 0.00399
149 0.003996
154 0.003976
156 0.004989
158 0.004987
158 0.003007
161 0.003038
165 0.004024
169 0.006022
174 0.003992
179 0.005987
182 0.005991
186 0.004006
189 0.004012
192 0.003983
197 0.004988
202 0.004979
195 0.004007
153 0.004007
119 0.00401
114 0.006007
135 0.003972
147 0.005995
154 0.005963
160 0.003986
163 0.004018
158 0.004017
150 0.006032
148 0.006028
158 0.004006
167 0.004987
173 0.004954
183 0.005012
185 0.003991
187 0.005986
186 0.005993
185 0.003987
187 0.003972
188 0.00401
191 0.005984
191 0.005984
196 0.00387
200 0.00499
203 0.004958
195 0.003997
149 0.004984
122 0.005983
121 0.005983
134 0.00404
145 0.003978
151 0.004003
155 0.005984
159 0.005983
155 0.005007
146 0.004994
142 0.004972
150 0.004997
156 0.005003
163 0.005993
167 0.005997
170 0.004988
172 0.004989
172 0.003963
173 0.00603
173 0.00603
174 0.004993
177 0.00499
180 0.005148
184 0.004998
186 0.004953
189 0.006978
193 0.005979
195 0.004992
189 0.005955
144 0.005023
107 0.006014
101 0.006022
115 0.00499
127 0.004989
133 0.004974
135 0.004988
139 0.004984
137 0.006963
130 0.007011
130 0.003987
136 0.005004
142 0.004998
147 0.006037
153 0.006033
157 0.006
159 0.005019
160 0.005013
160 0.005046
162 0.005023
164 0.006928
166 0.007036
168 0.005011
171 0.003978
175 0.005017
178 0.006982
179 0.007016
182 0.005998
185 0.00597
186 0.005993
176 0.005995
127 0.005979
94 0.006993
91 0.007033
106 0.005031
118 0.004991
122 0.004983
124 0.006972
126 0.006982
130 0.005989
125 0.005991
123 0.005995
131 0.005994
136 0.004985
143 0.007011
149 0.006979
153 0.004992
157 0.004988
159 0.00498
160 0.006981
163 0.007942
166 0.006003
167 0.005992
170 0.005982
176 0.005955
179 0.005995
183 0.005023
186 0.007012
189 0.007001
191 0.006019
195 0.004978
199 0.006026
182 0.007947
131 0.007954
102 0.005994
110 0.007981
124 0.005992
135 0.006016
140 0.00511
141 0.007024
147 0.007014
145 0.006998
141 0.00599
138 0.005026
145 0.007979
153 0.00797
161 0.00597
169 0.007008
174 0.00502
177 0.004987
178 0.00598
177 0.007978
181 0.007984
184 0.006987
186 0.006994
190 0.007017
196 0.007977
198 0.007949
200 0.007024
205 0.007959
209 0.005995
211 0.005981
214 0.005984
188 0.007944
154 0.007962
120 0.005955
125 0.005983
138 0.00701
151 0.007979
158 0.007978
166 0.006978
169 0.007924
159 0.006006
153 0.006019
153 0.005986
160 0.007013
169 0.007977
177 0.005992
185 0.006948
186 0.006944
187 0.007979
186 0.007973
187 0.006982
189 0.007966
190 0.006008
190 0.005953
194 0.004988
198 0.007007
202 0.00797
200 0.00696
161 0.006962
124 0.006993
116 0.007014
125 0.00697
136 0.006993
152 0.007923
156 0.006017
163 0.005988
159 0.005983
144 0.007979
142 0.007016
146 0.006981
152 0.006952
172 0.006981
181 0.007017
183 0.006995
185 0.006969
185 0.006985
185 0.006984
187 0.006982
188 0.007009
191 0.006985
194 0.006981
198 0.006978
201 0.006989
202 0.006982
208 0.00699
209 0.006985
158 0.006973
82 0.00699
73 0.006947
88 0.005983
102 0.006981
113 0.00698
118 0.006974
124 0.006981
124 0.006981
119 0.006982
114 0.00698
117 0.007013
127 0.006977
138 0.006966
147 0.006981
152 0.006984
154 0.005965
157 0.007014
157 0.007015
160 0.006959
164 0.006959
166 0.006963
169 0.007026
174 0.007018
179 0.006985
185 0.006965
187 0.006018
189 0.005978
193 0.00598
195 0.006019
198 0.006986
202 0.006973
168 0.006979
119 0.006942
62 0.00699
65 0.007014
86 0.006958
102 0.007017
106 0.006965
109 0.006936
116 0.00603
113 0.005976
106 0.00601
110 0.006017
121 0.006026
131 0.006955
140 0.005951
149 0.006013
160 0.006981
163 0.007017
164 0.007022
166 0.006994
172 0.006977
173 0.006954
177 0.006021
183 0.00598
188 0.005993
194 0.005984
199 0.005997
202 0.005978
208 0.005977
213 0.005987
219 0.006057
169 0.006013
109 0.005987
93 0.005977
103 0.00699
120 0.006039
139 0.006019
148 0.005978
156 0.006003
161 0.006063
146 0.005975
141 0.005985
144 0.006015
156 0.005981
167 0.005975
179 0.005943
184 0.005007
188 0.005023
190 0.005022
190 0.005986
190 0.005984
191 0.005952
194 0.005939
197 0.005946
201 0.005956
206 0.004988
210 0.005984
216 0.004986
201 0.00501
140 0.004987
92 0.00502
94 0.00502
109 0.004966
125 0.005993
138 0.005987
147 0.005981
150 0.005967
137 0.005985
130 0.005998
131 0.004958
139 0.004985
149 0.00502
162 0.00502
168 0.004939
174 0.004988
176 0.004997
174 0.004987
177 0.004998
177 0.005023
178 0.004985
179 0.004975
182 0.004991
184 0.005016
186 0.005033
185 0.004987
183 0.005021
181 0.005018
181 0.005021
147 0.005035
74 0.004986
33 0.004987
37 0.004983
53 0.004969
64 0.004967
72 0.004983
74 0.00504
78 0.005021
76 0.004986
68 0.00495
64 0.005019
74 0.004978
82 0.004949
91 0.004992
100 0.004944
105 0.004978
109 0.003991
110 0.003965
112 0.003991
115 0.005028
119 0.004989
121 0.005018
128 0.004947
133 0.005026
136 0.004978
142 0.003989
147 0.003986
151 0.004028
153 0.004032
158 0.004032
161 0.00399
164 0.004028
146 0.00399
75 0.004988
24 0.004988
34 0.005039
53 0.005016
68 0.004955
75 0.004981
80 0.004956
87 0.003984
85 0.003921
78 0.004004
79 0.003997
88 0.003961
96 0.005027
113 0.003983
123 0.003932
130 0.003944
133 0.004992
135 0.004028
139 0.004958
141 0.003973
144 0.00396
148 0.004028
151 0.004022
157 0.004028
163 0.004021
171 0.004013
175 0.003952
179 0.00393
182 0.003991
184 0.003958
189 0.003955
197 0.003948
180 0.003994
109 0.004007
57 0.003955
50 0.003957
66 0.003992
92 0.003961
101 0.003943
106 0.00396
111 0.003992
108 0.003992
96 0.004958
94 0.003018
101 0.002958
109 0.003995
117 0.003992
130 0.003991
140 0.004031
143 0.003007
144 0.003953
145 0.004007
146 0.002983
147 0.003022
150 0.002962
154 0.002963
160 0.003003
164 0.002972
168 0.003961
172 0.004023
173 0.002992
183 0.003946
186 0.003987
186 0.003939
138 0.004028
69 0.004006
39 0.003946
50 0.003011
68 0.002956
83 0.002992
93 0.002994
105 0.003023
112 0.003023
99 0.003984
90 0.00298
93 0.004022
101 0.003976
111 0.00398
124 0.003945
135 0.003957
141 0.004001
144 0.003959
147 0.003002
151 0.002994
152 0.002992
157 0.003023
160 0.002992
165 0.002993
168 0.004018
174 0.003024
179 0.003985
181 0.003033
186 0.003022
190 0.002992
193 0.003024
178 0.002983
83 0.002981
43 0.00297
52 0.003962
72 0.002992
88 0.001995
99 0.002026
114 0.002994
123 0.003063
116 0.002997
104 0.003026
98 0.002979
102 0.003021
113 0.00198
127 0.003
138 0.00299
145 0.00203
148 0.001971
153 0.002029
156 0.002045
158 0.001981
159 0.001998
162 0.00303
166 0.002992
172 0.003023
179 0.003034
182 0.002027
188 0.002959
191 0.00207
196 0.002955
200 0.003023
189 0.003024
93 0.002972
58 0.002026
60 0.002027
77 0.001994
93 0.001992
119 0.001994
132 0.002003
139 0.002039
126 0.002027
114 0.001957
113 0.001939
116 0.003035
130 0.003002
144 0.002995
154 0.002028
161 0.002005
167 0.001995
172 0.002022
174 0.001995
174 0.002002
177 0.001994
179 0.001992
182 0.00203
185 0.002025
193 0.002032
198 0.00199
203 0.001996
203 0.001995
150 0.00203
73 0.002026
73 0.001994
95 0.001949
113 0.00196
127 0.002026
138 0.002043
146 0.001985
136 0.002054
121 0.001986
112 0.000999
116 0.000974
127 0.000999
147 0.000997
154 0.002037
162 0.002022
166 0.002008
167 0.002015
167 0.001996
167 0.002028
168 0.000998
167 0.001988
170 0.000999
174 0.000998
177 0.000998
183 0.000997
186 0.001032
121 0.000827
59 0.002028
41 0.000999
52 0.002004
69 0.002028
87 0.00102
98 0.001028
109 0.002028
112 0.000999
100 0.001032
84 0.001
87 0.000962
99 0.000998
108 0.001049
119 0.000997
127 0.001949
134 0.002028
136 0.002012
138 0.001998
139 0.000997
138 0.000968
139 0.000999
145 0.000999
150 0.001032
155 0.001997
158 0.001004
162 0.000997
168 0.000998
171 0.000997
125 0.001
51 0.000991
17 0.001995
19 0.002034
45 0.000998
59 0.001028
66 0.000965
70 0.000997
74 0.000997
67 0.000997
58 0.000998
58 0.000997
69 0.002034
79 0.000998
88 0.002034
96 0.001996
106 0.000999
110 0.0
110 0.000997
113 0.001038
116 0.001003
118 0.00103
120 0.000997
123 0.000998
131 0.000966
137 0.002029
139 0.0
144 0.0
149 0.0
156 0.0
160 0.0
131 0.0
33 0.001009
3 0.000997
9 0.001005
26 0.000994
40 0.000971
50 0.000998
54 0.000998
61 0.0
55 0.0
47 0.0
46 0.0
55 0.0
69 0.0
77 0.0
90 0.0
96 0.0
100 0.0
102 0.0
106 0.001
108 0.000997
113 0.001003
118 0.0
122 0.0
126 0.0
134 0.0
139 0.0
143 0.0
147 0.0
151 0.0
156 0.0
161 0.000997
140 0.000998
27 0.0
7 0.0
17 0.0
35 0.0
50 0.0
56 0.0
62 0.0
65 0.0
56 0.0
43 0.0
40 0.0
47 0.000997
58 0.000955
67 0.0
76 0.0
82 0.0
84 0.0
84 0.0
84 0.0
88 0.0
89 0.0
94 0.0
95 0.002031
104 0.0
110 0.001993
116 0.000998
121 0.0
128 0.0
131 0.001995
135 0.001025
143 0.001003
126 0.0
76 0.000992
1 0.002026
0 0.002045
15 0.0
34 0.00203
42 0.0
50 0.0
55 0.0
50 0.001028
37 0.000993
36 0.000999
45 0.0
57 0.001014
66 0.001031
79 0.001028
91 0.001994
94 0.00201
97 0.0
100 0.0
102 0.0
105 0.001976
108 0.001998
120 0.0
125 0.0
131 0.001024
139 0.001994
145 0.002041
153 0.003001
156 0.00103
88 0.0
51 0.000991
34 0.0
45 0.002028
62 0.002027
82 0.0
93 0.0
102 0.0
99 0.001989
87 0.002029
79 0.00202
83 0.001988
95 0.001002
107 0.0
117 0.00101
122 0.001032
126 0.000998
126 0.0
128 0.0
128 0.0
131 0.0
134 0.002021
140 0.0
144 0.002013
152 0.002003
142 0.0
85 0.0
45 0.000967
43 0.000999
55 0.001987
72 0.0
82 0.0
91 0.0
99 0.002062
84 0.0
72 0.002008
73 0.001981
84 0.001007
93 0.0
103 0.0
111 0.002993
117 0.00198
120 0.0
119 0.0
120 0.0
119 0.00204
121 0.0
124 0.001964
130 0.001954
133 0.0
133 0.0
138 0.0
142 0.002025
140 0.00198
67 0.000997
19 0.000962
10 0.000961
22 0.001024
42 0.00097
47 0.002017
48 0.001964
51 0.0
46 0.0
39 0.0
34 0.00299
40 0.002029
52 0.0
60 0.000955
69 0.0
75 0.00302
81 0.000976
82 0.002
86 0.001994
91 0.0
92 0.000997
97 0.0
101 0.001999
107 0.001995
114 0.001997
118 0.0
120 0.002006
126 0.002993
135 0.0
138 0.00296
100 0.00296
25 0.00099
9 0.0
19 0.0
33 0.001997
44 0.001996
45 0.002002
47 0.001995
52 0.000963
48 0.001995
44 0.001995
46 0.002963
56 0.002963
70 0.001995
76 0.001008
83 0.00196
89 0.003016
92 0.001996
96 0.001983
100 0.001981
102 0.001982
110 0.001993
115 0.001998
120 0.002987
125 0.002987
132 0.001993
139 0.001999
145 0.001996
150 0.00303
151 0.002994
159 0.001992
162 0.001996
169 0.002005
158 0.001015
95 0.002005
50 0.00296
46 0.003014
61 0.003003
75 0.001994
86 0.002027
88 0.003017
93 0.00299
97 0.002023
89 0.001997
85 0.002001
96 0.000994
108 0.001947
117 0.003006
125 0.002985
135 0.001995
137 0.001992
138 0.002
138 0.001994
142 0.002991
145 0.002992
151 0.002015
157 0.00105
164 0.001983
171 0.001985
174 0.001995
180 0.002981
184 0.002973
166 0.001991
109 0.001992
74 0.001992
74 0.002964
88 0.002994
105 0.00203
112 0.002001
126 0.00199
129 0.001024
120 0.001989
108 0.004
110 0.002989
120 0.001993
130 0.000982
143 0.00096
154 0.004034
159 0.003957
163 0.002004
167 0.001979
172 0.001987
174 0.001991
178 0.002989
184 0.004005
187 0.003993
191 0.001995
196 0.002051
204 0.00203
209 0.00298
202 0.003989
124 0.001996
90 0.002007
98 0.002
110 0.001995
122 0.001997
129 0.003988
134 0.003987
138 0.001994
129 0.001069
121 0.001975
120 0.004977
126 0.00498
137 0.002023
147 0.001956
156 0.00199
159 0.002004
160 0.002004
162 0.003984
162 0.003988
165 0.002
169 0.002009
173 0.001995
176 0.004995
183 0.004989
189 0.001988
193 0.002008
197 0.001995
205 0.001989
209 0.002008
208 0.004991
158 0.003997
81 0.003004
68 0.003004
79 0.002958
94 0.004987
104 0.004987
111 0.002991
118 0.004989
116 0.001996
110 0.00196
108 0.003015
111 0.004957
116 0.004942
128 0.001996
137 0.001996
142 0.001995
148 0.004983
149 0.004952
150 0.003002
154 0.005015
156 0.00299
161 0.003
164 0.001994
167 0.004993
170 0.00504
177 0.002988
181 0.002994
183 0.001995
188 0.004987
188 0.004987
194 0.001995
197 0.005021
168 0.001995
94 0.002993
52 0.002992
49 0.004955
62 0.004959
79 0.002995
91 0.002992
94 0.003018
99 0.004985
101 0.005992
93 0.004005
89 0.004986
98 0.002991
106 0.00299
116 0.00299
128 0.003033
138 0.004998
142 0.004984
147 0.002992
150 0.003956
152 0.003969
153 0.005989
159 0.006003
164 0.005984
169 0.005999
176 0.003023
184 0.002997
189 0.002995
191 0.004978
195 0.004987
203 0.00399
208 0.002982
206 0.002993
153 0.004955
91 0.005978
79 0.006038
93 0.005995
113 0.003987
128 0.00402
139 0.00399
148 0.005994
147 0.005985
133 0.002993
127 0.002983
134 0.002986
143 0.00601
156 0.006005
173 0.006019
179 0.005985
187 0.003991
187 0.003986
189 0.003992
189 0.006024
192 0.006018
196 0.004969
198 0.003967
204 0.003907
209 0.005949
213 0.005962
222 0.006026
191 0.005953
113 0.004001
92 0.00396
97 0.004011
110 0.00599
125 0.005989
141 0.004018
151 0.002994
156 0.004008
144 0.006977
128 0.005991
120 0.006018
126 0.00599
141 0.003989
148 0.003054
155 0.00399
159 0.005972
162 0.006008
161 0.003989
162 0.003993
163 0.004986
163 0.006959
165 0.004981
167 0.006014
173 0.006039
171 0.003988
123 0.003996
63 0.003994
42 0.005979
46 0.006015
63 0.004987
75 0.004051
83 0.004987
86 0.007007
86 0.004985
76 0.006986
69 0.006981
72 0.004005
83 0.004005
95 0.00399
101 0.006971
108 0.006996
114 0.004948
114 0.004986
114 0.005028
115 0.006999
121 0.005997
124 0.006982
128 0.007016
134 0.004002
139 0.003994
143 0.004957
147 0.00695
149 0.006967
79 0.004986
19 0.004987
4 0.004963
13 0.006954
35 0.004986
41 0.006982
42 0.007012
50 0.00505
47 0.004997
42 0.003975
38 0.006083
46 0.006026
58 0.005012
65 0.004998
74 0.005
80 0.006989
87 0.004991
88 0.006982
91 0.007012
96 0.004986
99 0.004967
102 0.005955
109 0.007033
117 0.007965
121 0.004966
126 0.004987
131 0.004997
135 0.004988
140 0.003983
144 0.004987
140 0.007014
81 0.007078
10 0.004997
6 0.004999
20 0.004957
35 0.007022
42 0.007939
46 0.004035
53 0.004977
55 0.004958
48 0.00597
48 0.005986
58 0.006981
65 0.007978
77 0.005026
88 0.004992
97 0.005057
100 0.007028
103 0.007013
110 0.005008
112 0.004989
115 0.005003
126 0.006001
132 0.005995
138 0.007934
143 0.007964
151 0.004986
160 0.00499
165 0.005013
173 0.007981
184 0.007972
189 0.004992
192 0.004986
186 0.004982
83 0.00497
52 0.005988
59 0.007983
75 0.007949
85 0.00598
89 0.005993
95 0.004038
100 0.007946
92 0.007973
82 0.005971
83 0.006005
91 0.00502
107 0.005983
116 0.006982
125 0.007978
134 0.007018
135 0.006019
137 0.005987
138 0.005934
144 0.007014
146 0.007012
149 0.006975
155 0.006938
163 0.005986
167 0.005985
170 0.005981
175 0.007994
181 0.007993
167 0.006021
105 0.006981
67 0.00602
71 0.006961
86 0.006938
101 0.006008
112 0.006022
124 0.006981
125 0.006982
117 0.005981
108 0.007947
113 0.007962
119 0.005988
130 0.005972
138 0.005994
150 0.007981
156 0.007014
159 0.005981
162 0.006013
165 0.006968
168 0.005979
169 0.006994
176 0.006983
181 0.006977
185 0.005969
190 0.005897
195 0.005967
198 0.00701
202 0.007013
207 0.005978
211 0.005965
191 0.006996
125 0.006976
98 0.006965
95 0.006984
108 0.006981
125 0.006021
138 0.005968
144 0.005974
153 0.007001
156 0.00698
147 0.006982
142 0.006973
156 0.006968
162 0.005977
176 0.006973
184 0.006971
194 0.006984
201 0.006974
203 0.006951
207 0.005937
212 0.007024
216 0.006989
219 0.005987
225 0.005975
231 0.005968
236 0.006985
242 0.006985
244 0.006012
252 0.00698
255 0.006982
255 0.00602
255 0.006003
253 0.005003
170 0.007047
137 0.006009
144 0.005988
165 0.006025
179 0.006941
186 0.005994
189 0.006963
193 0.006961
183 0.00696
175 0.006979
173 0.006964
181 0.005976
188 0.006015
197 0.006018
206 0.005979
211 0.006015
210 0.00693
211 0.005972
214 0.005997
213 0.006016
211 0.005984
216 0.005985
218 0.005955
221 0.005984
225 0.006029
227 0.005988
229 0.005985
235 0.005985
185 0.006984
186 0.005987
160 0.006041
129 0.006028
119 0.005967
125 0.005984
133 0.006021
138 0.005983
142 0.006035
145 0.005973
146 0.007025
139 0.006019
135 0.006977
136 0.004988
139 0.005983
142 0.005985
146 0.005972
151 0.005973
152 0.005957
152 0.005971
153 0.005989
153 0.005942
152 0.006002
152 0.00502
154 0.005069
156 0.004938
157 0.004953
158 0.004952
160 0.004995
161 0.005948
164 0.005969
166 0.005957
160 0.005032
128 0.00599
97 0.004989
100 0.00502
111 0.004978
117 0.004948
122 0.004986
126 0.005017
130 0.00498
125 0.004976
119 0.006022
119 0.005977
123 0.005984
127 0.006016
134 0.006018
139 0.004994
143 0.004984
144 0.005019
144 0.004985
146 0.004996
147 0.004977
147 0.004932
148 0.004992
150 0.005011
152 0.004989
154 0.004983
157 0.005986
159 0.005006
161 0.005021
163 0.004986
164 0.004987
149 0.004987
91 0.004987
72 0.004961
82 0.004927
98 0.004949
114 0.004983
122 0.004984
135 0.003992
134 0.004016
119 0.003988
117 0.004993
120 0.004979
130 0.004998
138 0.004988
147 0.003987
157 0.004959
161 0.004971
165 0.004996
168 0.004946
170 0.004988
171 0.003956
173 0.003992
179 0.004031
183 0.003992
187 0.003989
191 0.004988
196 0.004943
200 0.004974
205 0.004985
210 0.004989
198 0.005015
107 0.005023
90 0.003992
100 0.003992
122 0.00402
136 0.003992
146 0.004015
157 0.004996
158 0.004988
142 0.004984
132 0.00399
131 0.004019
137 0.005004
153 0.004021
161 0.003991
168 0.004024
172 0.004032
174 0.00399
174 0.003989
174 0.003987
172 0.003969
175 0.003991
178 0.003995
179 0.003019
183 0.004049
187 0.003994
192 0.003981
194 0.00399
136 0.003055
85 0.003979
74 0.004972
81 0.004024
95 0.003939
112 0.003959
120 0.003994
127 0.003946
121 0.004023
109 0.003991
105 0.003991
107 0.004002
118 0.004016
129 0.004003
138 0.00399
143 0.003979
147 0.003989
151 0.00399
150 0.003989
152 0.003989
155 0.004021
157 0.003999
161 0.003992
164 0.003033
171 0.002992
173 0.002983
178 0.00299
178 0.00302
183 0.002986
186 0.00396
152 0.003978
86 0.003938
51 0.003992
64 0.004027
79 0.00399
87 0.002992
98 0.003008
101 0.003006
102 0.002994
95 0.003026
88 0.003023
88 0.004003
98 0.003991
108 0.00394
123 0.00399
128 0.003998
132 0.003989
135 0.003947
136 0.004032
137 0.00396
140 0.003961
144 0.003041
145 0.002995
151 0.00302
157 0.002989
162 0.002996
166 0.002953
169 0.002958
172 0.002986
176 0.003026
180 0.003951
157 0.00394
89 0.00296
51 0.003056
49 0.003026
69 0.002951
83 0.003017
92 0.002974
101 0.003037
103 0.002992
97 0.002992
91 0.002993
91 0.001983
100 0.001986
110 0.001944
119 0.003034
126 0.00302
137 0.002992
140 0.002994
141 0.002998
142 0.00305
146 0.002992
150 0.003991
153 0.002992
158 0.002992
164 0.002992
168 0.003041
171 0.001981
177 0.002026
181 0.002028
172 0.001965
115 0.003001
63 0.003003
71 0.003026
87 0.002992
103 0.002992
112 0.003025
123 0.002988
129 0.002006
117 0.00195
107 0.002031
104 0.001996
113 0.00201
124 0.002952
140 0.002992
147 0.002992
150 0.002992
152 0.001993
153 0.001995
154 0.001985
156 0.001997
159 0.002034
162 0.002037
165 0.002021
170 0.002004
175 0.001996
181 0.002992
185 0.00299
189 0.003025
184 0.002992
128 0.001995
65 0.001992
64 0.001985
78 0.002036
94 0.002042
105 0.001992
114 0.001974
120 0.001967
112 0.001995
103 0.001996
103 0.002026
109 0.001977
120 0.001028
135 0.00198
142 0.001021
151 0.001977
155 0.001979
158 0.00204
162 0.001955
165 0.002036
171 0.002035
174 0.002034
178 0.001993
184 0.002026
187 0.000998
193 0.000993
196 0.002027
196 0.000933
197 0.001961
200 0.001993
203 0.001994
192 0.001995
105 0.00197
69 0.001945
67 0.001995
80 0.002034
93 0.001986
103 0.002018
106 0.001983
110 0.001992
108 0.001985
98 0.001965
90 0.001978
98 0.000998
107 0.000998
116 0.000997
125 0.000998
132 0.000998
133 0.002028
136 0.001978
136 0.002017
136 0.001971
140 0.002026
143 0.000999
146 0.002006
152 0.000997
156 0.000997
161 0.00099
165 0.000998
165 0.001989
169 0.002036
172 0.002002
175 0.001992
179 0.002016
171 0.002044
108 0.001979
51 0.001987
52 0.000978
73 0.001007
85 0.000998
90 0.000997
95 0.001034
99 0.002001
93 0.00204
87 0.000967
85 0.001984
92 0.001991
99 0.000999
111 0.00096
121 0.001
129 0.000998
132 0.000999
133 0.000998
137 0.000997
142 0.001032
146 0.000991
149 0.001988
153 0.000997
158 0.000967
164 0.0
169 0.000963
175 0.0
177 0.0
177 0.00105
182 0.0
187 0.0
169 0.001036
107 0.000997
65 0.00103
69 0.000997
82 0.000998
97 0.001005
116 0.000995
124 0.001007
130 0.000997
119 0.0
112 0.0
113 0.0
119 0.0
127 0.0
141 0.000999
149 0.0
156 0.001004
160 0.00101
162 0.000997
166 0.0
167 0.0
172 0.0
176 0.000996
180 0.0
184 0.0
192 0.0
197 0.0
157 0.0
111 0.0
97 0.0
111 0.0
120 0.0
128 0.0
142 0.0
144 0.0
135 0.0
121 0.0
114 0.0
118 0.000997
123 0.000997
132 0.0
139 0.0
147 0.0
149 0.0
151 0.0
154 0.0
155 0.0
155 0.0
157 0.0
162 0.0
165 0.00101
169 0.000997
174 0.0
132 0.0
72 0.0
69 0.0
78 0.0
95 0.0
103 0.0
110 0.0
118 0.000959
118 0.001041
108 0.003047
106 0.003995
111 0.000964
117 0.00099
135 0.0
142 0.001022
143 0.0
144 0.002026
145 0.00203
146 0.000978
145 0.000961
149 0.000967
152 0.001993
152 0.001997
157 0.0
163 0.0
166 0.000967
166 0.0
168 0.0
172 0.002006
176 0.002027
158 0.0
100 0.0
65 0.0
61 0.002008
71 0.002029
85 0.0
89 0.001019
91 0.000967
91 0.0
88 0.0
82 0.003017
83 0.003025
90 0.0
97 0.0
104 0.0
111 0.001995
114 0.001994
117 0.0
117 0.0
118 0.0
121 0.0
123 0.0
127 0.003024
130 0.003019
137 0.0
144 0.0
147 0.0
150 0.001994
153 0.001029
156 0.001993
162 0.002026
166 0.002027
172 0.000932
163 0.000968
104 0.001051
62 0.00203
57 0.003042
74 0.0
83 0.0
90 0.0
91 0.001994
98 0.001995
95 0.00202
90 0.001993
91 0.0
98 0.0
107 0.0
113 0.001957
120 0.001995
127 0.00097
128 0.0
129 0.0
131 0.002997
132 0.001972
136 0.001989
139 0.002026
143 0.0
148 0.0
150 0.0
155 0.002064
158 0.002028
161 0.000969
167 0.000987
158 0.0
106 0.002991
68 0.00299
69 0.00203
84 0.003025
99 0.0
103 0.0
111 0.0
114 0.002028
107 0.00204
96 0.000983
98 0.0
104 0.0
112 0.002
120 0.001967
132 0.001996
136 0.002029
137 0.000949
138 0.0
138 0.001
142 0.002993
144 0.003033
148 0.0
151 0.0
155 0.0
156 0.002003
161 0.001985
165 0.002025
167 0.002033
170 0.0
171 0.0
175 0.000963
177 0.002028
166 0.002026
91 0.0
59 0.0
60 0.001
74 0.003043
87 0.002984
100 0.002993
103 0.002028
106 0.0
97 0.0
89 0.0
88 0.001997
97 0.002994
107 0.0
113 0.0
124 0.000876
128 0.002994
132 0.002953
133 0.002967
133 0.002993
137 0.002023
139 0.0
141 0.0
143 0.003041
149 0.003037
153 0.001978
157 0.001994
159 0.001991
163 0.001987
165 0.001983
171 0.003048
174 0.003008
153 0.002994
94 0.001985
60 0.002994
60 0.002961
74 0.002987
91 0.002012
98 0.001992
106 0.00199
111 0.003006
110 0.002993
96 0.004042
97 0.003044
106 0.001993
115 0.001994
126 0.001997
135 0.003
142 0.00408
145 0.002961
147 0.001995
147 0.002993
150 0.001982
154 0.002979
155 0.002009
159 0.004042
165 0.004017
169 0.001988
173 0.000971
177 0.002023
179 0.003008
180 0.002952
186 0.0
189 0.002991
188 0.002983
103 0.00204
69 0.001974
69 0.003977
82 0.003989
99 0.001986
109 0.001983
113 0.001973
118 0.002993
117 0.002994
104 0.002988
100 0.002035
105 0.002994
120 0.001999
131 0.002006
139 0.003989
145 0.00399
150 0.001991
150 0.001995
151 0.001995
154 0.003024
155 0.002993
157 0.002976
161 0.002999
164 0.002983
170 0.002994
175 0.00203
178 0.003958
180 0.004035
184 0.001987
187 0.001996
189 0.001996
180 0.00504
123 0.003985
69 0.001995
70 0.001963
85 0.002985
107 0.00202
113 0.001987
118 0.004022
123 0.004026
110 0.002995
99 0.001983
100 0.002991
107 0.00399
114 0.003987
127 0.001998
136 0.001992
139 0.001994
142 0.001993
142 0.002999
144 0.003989
144 0.003993
147 0.001995
150 0.001993
152 0.001993
158 0.004021
161 0.004022
165 0.001993
166 0.002007
169 0.002011
175 0.002007
174 0.001989
133 0.004031
76 0.003989
52 0.001992
61 0.003164
76 0.003004
88 0.003989
93 0.003987
103 0.002009
104 0.000965
92 0.001996
82 0.002009
87 0.001989
96 0.004991
103 0.004988
115 0.00198
123 0.001995
125 0.002961
126 0.003987
126 0.003989
127 0.00305
130 0.002978
132 0.002991
137 0.002994
142 0.002991
145 0.004986
148 0.005025
152 0.002004
155 0.001994
156 0.001993
160 0.003962
163 0.00498
143 0.002985
81 0.003002
39 0.002964
46 0.002994
61 0.002987
72 0.004986
79 0.004986
87 0.001995
90 0.001995
79 0.001994
73 0.002988
73 0.005978
77 0.004986
89 0.002996
100 0.005031
110 0.003968
114 0.003039
114 0.00198
116 0.005027
118 0.005986
119 0.003015
121 0.003063
125 0.003048
128 0.00597
133 0.005926
138 0.00296
142 0.004987
146 0.003012
147 0.003031
151 0.003001
154 0.00502
160 0.004986
132 0.002986
70 0.003996
36 0.002967
33 0.006006
46 0.005988
64 0.001958
74 0.005984
80 0.003007
79 0.003007
73 0.003011
65 0.004985
64 0.004981
75 0.003034
86 0.00399
91 0.004004
98 0.00598
107 0.005983
111 0.002996
113 0.006026
116 0.003015
119 0.002994
123 0.002984
125 0.005017
130 0.005037
137 0.003027
141 0.003991
144 0.004012
148 0.005993
151 0.005983
154 0.003996
162 0.00605
167 0.002966
162 0.003997
108 0.002993
58 0.005999
42 0.006021
56 0.003998
72 0.003019
82 0.00395
87 0.005984
93 0.005985
92 0.002992
80 0.005984
76 0.003035
84 0.003024
92 0.003028
99 0.005987
110 0.007013
118 0.003984
120 0.004021
123 0.004023
124 0.006022
125 0.005991
127 0.004014
131 0.005984
138 0.003986
141 0.003993
144 0.002989
149 0.006982
153 0.006981
156 0.003991
159 0.004007
163 0.004956
166 0.006016
172 0.007035
167 0.003991
88 0.006044
45 0.004005
48 0.004013
63 0.00399
78 0.006019
89 0.007023
95 0.004
100 0.004973
95 0.004023
85 0.007019
79 0.005981
91 0.007044
101 0.007044
115 0.004002
121 0.004005
128 0.004003
132 0.006968
132 0.007031
133 0.004987
137 0.004999
139 0.004046
142 0.006992
147 0.006987
154 0.006981
159 0.006981
163 0.003991
167 0.003983
170 0.004085
173 0.007978
178 0.007979
179 0.00795
125 0.004987
72 0.004988
57 0.00395
64 0.007038
86 0.004994
99 0.006982
105 0.00695
113 0.004965
107 0.004036
94 0.004986
87 0.007979
95 0.007963
103 0.005041
112 0.004991
120 0.004994
128 0.007035
134 0.004987
134 0.008017
132 0.007979
137 0.004983
138 0.004999
140 0.005011
143 0.006982
147 0.007016
151 0.00403
157 0.004987
161 0.004004
162 0.007973
167 0.004985
171 0.007949
173 0.00799
129 0.004973
66 0.004961
43 0.004992
48 0.007015
63 0.007028
78 0.004988
85 0.005991
90 0.005007
95 0.007979
83 0.005981
77 0.007971
79 0.007978
88 0.004985
98 0.005038
106 0.004987
115 0.007969
120 0.007976
123 0.00504
127 0.005985
126 0.004996
129 0.007302
131 0.005998
139 0.007021
144 0.007979
146 0.005941
151 0.005982
158 0.005998
163 0.007946
166 0.00798
170 0.005966
173 0.00599
177 0.005036
182 0.007969
135 0.004996
66 0.007967
55 0.00801
65 0.004956
81 0.005954
92 0.005951
101 0.006976
108 0.006985
108 0.005989
99 0.005977
92 0.005019
95 0.007983
104 0.003985
114 0.007979
123 0.008004
131 0.00598
137 0.005027
139 0.00599
142 0.007131
142 0.006942
144 0.00598
144 0.004981
146 0.00599
152 0.006982
159 0.005981
163 0.006969
166 0.006955
171 0.005
173 0.006019
176 0.005973
182 0.007969
187 0.007948
150 0.006003
96 0.006929
74 0.00601
93 0.006943
103 0.006978
116 0.007948
124 0.007982
131 0.00597
129 0.005986
119 0.005994
112 0.00704
116 0.007008
124 0.006
135 0.005977
144 0.004972
156 0.006943
160 0.00699
164 0.006982
163 0.006984
164 0.006947
165 0.005985
168 0.005985
172 0.005974
175 0.006982
177 0.00698
182 0.00695
183 0.005954
191 0.006953
193 0.005988
192 0.005988
127 0.006964
87 0.00703
84 0.005962
95 0.005966
105 0.00599
112 0.006062
118 0.006019
124 0.005954
120 0.005006
102 0.006953
102 0.006971
109 0.006991
116 0.007979
126 0.007032
135 0.006016
139 0.006975
142 0.006934
144 0.005998
144 0.005965
145 0.005953
149 0.00598
154 0.005974
156 0.005987
158 0.006971
166 0.007015
169 0.006063
172 0.005989
173 0.006028
181 0.005967
183 0.006012
185 0.005979
132 0.005986
87 0.005963
76 0.006984
90 0.005994
101 0.004988
108 0.006982
113 0.007023
117 0.006981
113 0.00597
105 0.005983
100 0.007028
104 0.007015
117 0.005992
124 0.005033
136 0.005983
139 0.005964
142 0.005995
144 0.006047
144 0.006973
145 0.005948
150 0.005965
152 0.005989
156 0.006043
160 0.005926
166 0.006015
169 0.004985
175 0.005987
179 0.004987
183 0.004988
185 0.005017
188 0.005017
147 0.005985
100 0.00599
82 0.005987
90 0.005986
102 0.006017
114 0.005981
118 0.005966
126 0.004987
119 0.004988
109 0.004956
103 0.005021
105 0.00502
114 0.004987
122 0.005929
128 0.004998
135 0.004999
139 0.005985
139 0.004986
138 0.004986
139 0.004994
142 0.004988
144 0.00502
147 0.004934
152 0.00499
158 0.00499
160 0.004955
163 0.004957
164 0.004987
167 0.005038
171 0.004999
175 0.004987
167 0.004952
114 0.004987
74 0.004987
68 0.004989
76 0.004933
92 0.005018
101 0.005004
106 0.004981
109 0.004983
111 0.005028
101 0.004989
96 0.005018
101 0.005003
110 0.005006
119 0.003947
125 0.004959
134 0.004988
137 0.005021
139 0.005032
140 0.005003
140 0.00499
142 0.005985
145 0.00504
151 0.004988
156 0.005029
158 0.004021
163 0.004047
168 0.003937
169 0.00406
170 0.004025
175 0.004992
179 0.004952
181 0.004976
162 0.005033
110 0.005019
79 0.004991
87 0.004987
106 0.003986
116 0.003974
118 0.003979
124 0.003991
125 0.003971
114 0.004974
107 0.004977
111 0.004992
119 0.004993
128 0.004986
141 0.005013
145 0.004039
148 0.004047
148 0.003941
148 0.003999
149 0.003992
152 0.004989
157 0.003961
158 0.003944
163 0.003943
168 0.005032
170 0.003991
178 0.005025
177 0.005043
123 0.004025
91 0.004053
85 0.003966
97 0.00403
109 0.004023
122 0.003999
131 0.003939
137 0.003992
130 0.00399
116 0.004989
107 0.002995
111 0.003956
122 0.00399
131 0.00399
140 0.004027
146 0.003993
149 0.002979
147 0.004018
148 0.004043
148 0.003975
150 0.004017
150 0.004031
157 0.003028
160 0.003989
167 0.002993
161 0.003026
116 0.003956
77 0.004016
61 0.004029
74 0.00399
88 0.003988
94 0.004029
96 0.003991
103 0.003991
91 0.003991
83 0.00396
78 0.003968
88 0.003038
96 0.003992
102 0.002992
107 0.003025
115 0.003035
116 0.00305
113 0.003024
116 0.003972
119 0.003966
122 0.00399
125 0.004017
131 0.003989
136 0.003955
138 0.002992
138 0.002994
141 0.002993
145 0.002994
146 0.003028
119 0.002994
60 0.001995
24 0.00304
35 0.00399
46 0.002992
53 0.003991
52 0.003029
56 0.002993
58 0.002992
52 0.002992
48 0.002991
50 0.003021
57 0.003022
65 0.002992
76 0.00399
81 0.002992
82 0.002993
86 0.002959
87 0.003021
88 0.002996
92 0.003989
97 0.002027
101 0.002993
106 0.002992
112 0.003024
115 0.002961
122 0.002991
124 0.002994
127 0.002992
130 0.003025
133 0.002035
133 0.002987
140 0.002024
145 0.001996
142 0.001995
71 0.003003
29 0.002993
21 0.002993
38 0.002992
46 0.002992
53 0.003023
56 0.002027
59 0.002993
55 0.002053
52 0.002026
52 0.002028
57 0.002027
69 0.001995
77 0.001995
85 0.001995
95 0.002025
99 0.003031
104 0.002993
104 0.002993
110 0.003044
115 0.003028
119 0.001981
124 0.001989
129 0.001995
137 0.002029
141 0.001962
148 0.002006
152 0.002026
157 0.002037
161 0.002029
166 0.002993
170 0.002927
138 0.001995
82 0.002026
52 0.002029
55 0.001955
72 0.001999
84 0.002023
91 0.002073
99 0.002026
102 0.001999
92 0.002028
85 0.002035
93 0.00203
101 0.001028
108 0.000998
117 0.002047
130 0.001995
135 0.001998
139 0.001995
140 0.001015
144 0.001996
146 0.002024
148 0.002026
153 0.002034
159 0.002024
162 0.00203
167 0.002028
170 0.00208
175 0.001996
179 0.000958
183 0.000998
155 0.001036
94 0.000998
62 0.002005
60 0.002005
72 0.002015
88 0.002034
96 0.00205
103 0.002025
109 0.001962
107 0.002026
97 0.000999
92 0.000997
101 0.000959
110 0.000999
118 0.000937
127 0.000997
136 0.002033
139 0.002028
141 0.00199
145 0.002024
145 0.000998
147 0.002064
154 0.002031
155 0.002027
163 0.000993
166 0.001033
171 0.000998
174 0.001004
177 0.001995
182 0.002021
186 0.002038
189 0.002056
187 0.001995
146 0.002
72 0.001995
55 0.000998
72 0.002042
87 0.000999
97 0.000997
104 0.000997
109 0.000997
110 0.001962
101 0.001
96 0.000964
97 0.001996
106 0.000998
115 0.001006
124 0.000965
137 0.002031
144 0.002028
147 0.002038
148 0.000997
151 0.001248
153 0.000997
157 0.0
158 0.0
163 0.001
170 0.0
173 0.0
177 0.000998
183 0.001049
190 0.0
195 0.000997
197 0.000997
176 0.0
112 0.0
70 0.0
75 0.0
90 0.0
105 0.0
117 0.0
131 0.0
138 0.000997
126 0.000997
118 0.001002
117 0.0
123 0.0
134 0.0
147 0.0
159 0.0
168 0.0
177 0.0
186 0.0
200 0.0
208 0.0
220 0.0
225 0.000998
229 0.000997
233 0.001005
237 0.0
246 0.0
255 0.0
255 0.0
255 0.0
211 0.0
152 0.0
151 0.0
170 0.0
187 0.000998
202 0.000997
215 0.000998
228 0.000997
134 0.0
223 0.0
223 0.0
232 0.0
245 0.0
255 0.0
255 0.0
255 0.0
255 0.003065
255 0.000998
255 0.0
255 0.000998
255 0.000987
255 0.003034
255 0.0
255 0.0
255 0.00099
255 0.0
217 0.000997
217 0.003045
219 0.002992
216 0.0
187 0.000999
155 0.0
144 0.003024
144 0.00299
153 0.0
159 0.0
162 0.001011
166 0.0
164 0.000996
157 0.002996
151 0.002025
150 0.0
153 0.0
156 0.0
158 0.003015
162 0.003033
163 0.000967
162 0.000964
162 0.0
161 0.0
163 0.000935
163 0.004024
163 0.004053
165 0.000991
167 0.000967
168 0.001049
168 0.003026
170 0.003052
171 0.0
173 0.0
174 0.000966
130 0.0
109 0.0
105 0.0
111 0.002952
118 0.003026
125 0.0
129 0.0
132 0.0
132 0.002993
126 0.002006
120 0.0
122 0.000952
129 0.0
134 0.000964
136 0.001016
140 0.002967
142 0.003026
142 0.0
143 0.0
143 0.0
144 0.003022
144 0.003043
147 0.00094
148 0.0
150 0.0
151 0.0
154 0.0
155 0.002026
157 0.002028
142 0.0
111 0.0
94 0.0
95 0.003025
100 0.003028
110 0.0
114 0.0
120 0.00097
120 0.0
113 0.000965
110 0.001978
109 0.002986
113 0.0
119 0.000951
122 0.001001
127 0.002992
130 0.003022
132 0.0
132 0.0
133 0.0
134 0.001027
135 0.0
137 0.002034
138 0.002023
141 0.0
143 0.000961
143 0.0
146 0.003018
147 0.003024
146 0.0
121 0.0
84 0.0
86 0.0
91 0.0
99 0.003021
103 0.002959
108 0.0
110 0.0
108 0.0
102 0.001997
100 0.002993
102 0.000953
107 0.001988
112 0.000975
115 0.001018
117 0.000987
117 0.002993
118 0.002995
118 0.0
119 0.0
120 0.000963
122 0.003029
124 0.003032
126 0.0
128 0.002992
131 0.000965
132 0.0
134 0.0
142 0.003048
147 0.002039
129 0.001015
79 0.000965
49 0.0
46 0.003026
57 0.003029
73 0.000966
80 0.004977
85 0.000969
86 0.0
81 0.000962
77 0.002029
78 0.003053
84 0.000968
94 0.000962
100 0.0
107 0.003029
110 0.003023
114 0.0
116 0.002979
118 0.0
120 0.0
123 0.0
128 0.003035
129 0.003047
133 0.0
138 0.0
140 0.0
143 0.003027
146 0.003041
152 0.0
156 0.002976
132 0.0
85 0.0
61 0.0
63 0.003016
72 0.003016
85 0.003036
95 0.000965
98 0.0
104 0.003007
101 0.002996
95 0.002992
93 0.002966
100 0.003009
112 0.0
117 0.0
126 0.000963
130 0.003002
134 0.003036
135 0.0
137 0.001009
140 0.000964
143 0.004052
147 0.004019
152 0.004024
155 0.003021
160 0.0
163 0.002035
166 0.001991
160 0.002987
120 0.002982
81 0.002986
82 0.0
95 0.00298
104 0.004002
111 0.003992
119 0.004006
122 0.003959
109 0.002957
101 0.002038
104 0.003009
109 0.002992
115 0.002993
125 0.003025
131 0.002992
134 0.002992
134 0.003989
135 0.00399
136 0.00399
138 0.00399
140 0.002992
144 0.002992
147 0.002984
150 0.00399
152 0.004003
155 0.003012
158 0.002026
161 0.003026
160 0.003997
92 0.002991
66 0.004011
67 0.003988
80 0.002991
90 0.002999
95 0.003
97 0.004045
100 0.005017
97 0.002998
85 0.002995
82 0.003026
89 0.004042
96 0.003037
102 0.004017
106 0.003995
110 0.001987
111 0.002983
111 0.002989
110 0.003991
111 0.00399
113 0.002985
114 0.002945
116 0.002994
117 0.005032
117 0.002993
117 0.003968
116 0.003986
115 0.00299
114 0.002958
117 0.002996
117 0.003977
108 0.003996
19 0.00299
0 0.003008
0 0.002993
0 0.004993
12 0.002029
14 0.005005
16 0.003949
21 0.002996
14 0.002983
7 0.003037
8 0.005052
18 0.003989
23 0.002981
35 0.00303
45 0.003035
47 0.004726
53 0.003022
53 0.005
55 0.005023
57 0.003018
58 0.003
65 0.002003
70 0.003989
76 0.004951
82 0.000965
88 0.002961
93 0.002032
97 0.004986
105 0.002966
101 0.004994
50 0.004998
0 0.002994
0 0.002992
67 0.002955
77 0.004987
82 0.005983
86 0.002979
90 0.003009
90 0.002989
84 0.004986
81 0.002001
84 0.001994
91 0.00498
96 0.00499
100 0.003001
104 0.002
104 0.002998
105 0.005048
106 0.005972
107 0.001988
108 0.002993
111 0.001967
116 0.002992
119 0.002992
123 0.004954
124 0.004987
96 0.003962
78 0.003022
74 0.002962
80 0.004985
87 0.005984
94 0.002978
100 0.002995
103 0.003005
96 0.001988
91 0.002997
91 0.006009
94 0.005984
100 0.003995
105 0.003017
108 0.003013
111 0.004986
113 0.00502
112 0.002961
112 0.002971
112 0.002996
114 0.003996
116 0.003006
118 0.005996
121 0.006001
123 0.003002
102 0.003017
76 0.004027
68 0.005021
70 0.006029
79 0.003023
84 0.003021
90 0.002948
93 0.002992
