106 0.032913
106 0.000996
113 0.001014
119 0.000998
126 0.000982
133 0.0
140 0.000997
148 0.0
155 0.0
162 0.0
166 0.0
170 0.0
174 0.0
179 0.0
183 0.000998
164 0.000998
127 0.0
103 0.001009
90 0.0
80 0.000968
78 0.000966
84 0.0
95 0.0
104 0.0
110 0.0
117 0.0
125 0.0
131 0.0
140 0.0
146 0.0
149 0.0
157 0.0
162 0.0
168 0.0
172 0.0
177 0.0
179 0.0
157 0.0
109 0.0
89 0.000997
77 0.0
69 0.0
64 0.0
68 0.0
82 0.0
92 0.000998
100 0.000997
109 0.0
115 0.0
120 0.0
130 0.0
136 0.000987
142 0.0
150 0.0
154 0.0
160 0.0
166 0.0
171 0.000998
174 0.001003
139 0.0
105 0.0
85 0.0
72 0.0
64 0.0
59 0.0
59 0.000996
67 0.0
85 0.000975
94 0.000998
104 0.000966
111 0.00097
121 0.0
128 0.0
135 0.0
141 0.000968
147 0.00096
153 0.000997
158 0.000988
162 0.000997
169 0.000982
173 0.001041
153 0.000997
117 0.000998
95 0.000997
82 0.000998
74 0.000998
68 0.000998
69 0.000998
80 0.000998
91 0.000998
98 0.001006
110 0.000998
117 0.000998
127 0.000966
134 0.000964
140 0.000994
146 0.000998
152 0.001012
156 0.001037
162 0.000998
167 0.001016
171 0.000996
177 0.00099
170 0.00097
150 0.017983
104 0.0
86 0.000998
79 0.000968
80 0.000998
88 0.000997
100 0.001964
108 0.001996
115 0.00201
121 0.000945
133 0.000969
141 0.0
147 0.000996
152 0.002007
157 0.002016
163 0.001027
167 0.000991
171 0.000998
175 0.00196
179 0.001962
178 0.001994
148 0.002
102 0.001011
93 0.001994
84 0.001941
79 0.002001
79 0.002004
88 0.001026
99 0.000981
104 0.001954
112 0.001963
119 0.001982
127 0.001032
136 0.001962
142 0.002999
149 0.001952
154 0.002036
158 0.002033
162 0.001987
167 0.002003
171 0.001994
175 0.00203
171 0.001995
138 0.002002
99 0.000997
79 0.00204
69 0.002027
65 0.002027
66 0.001995
73 0.003043
85 0.002992
98 0.002028
105 0.002034
110 0.002043
119 0.002002
126 0.001997
136 0.000962
145 0.001995
152 0.00198
157 0.001995
162 0.001994
166 0.003026
171 0.00298
178 0.001992
173 0.001995
137 0.001995
104 0.002959
85 0.002995
69 0.002993
61 0.002992
59 0.001983
62 0.002026
73 0.002993
90 0.001988
99 0.002994
107 0.002992
114 0.002963
122 0.002963
132 0.002952
139 0.002961
148 0.001996
155 0.002991
162 0.001994
167 0.001995
172 0.001971
177 0.002992
182 0.003043
157 0.001996
119 0.003029
95 0.002986
80 0.003989
71 0.00399
65 0.002953
66 0.004025
76 0.003988
93 0.003022
99 0.003029
108 0.002995
116 0.002986
123 0.003024
130 0.003043
137 0.00399
144 0.003982
153 0.004001
158 0.004001
167 0.003989
172 0.003989
179 0.003034
185 0.002978
188 0.003022
164 0.003979
123 0.003989
94 0.002961
83 0.002993
76 0.003993
74 0.003939
77 0.003994
95 0.003989
104 0.00399
113 0.002987
120 0.002991
127 0.003021
133 0.004002
140 0.003989
148 0.003989
154 0.003047
159 0.002994
163 0.00399
168 0.004988
175 0.003989
181 0.004035
187 0.00399
173 0.003989
145 0.004017
99 0.004986
83 0.004987
72 0.003991
69 0.004054
68 0.00504
76 0.003989
90 0.004003
101 0.004024
108 0.00399
117 0.00402
124 0.003027
131 0.00399
138 0.004987
145 0.004026
150 0.003989
157 0.004029
162 0.004037
166 0.004039
173 0.004039
180 0.00403
183 0.003979
154 0.003989
100 0.003989
78 0.003976
65 0.004988
57 0.00499
52 0.004004
54 0.004033
63 0.003977
76 0.005033
92 0.003978
99 0.00502
107 0.003989
115 0.004992
123 0.004962
131 0.005018
140 0.004986
147 0.004992
154 0.004024
159 0.004026
164 0.004064
169 0.004992
179 0.004022
175 0.00494
137 0.004943
90 0.003989
72 0.005027
61 0.004031
54 0.006021
52 0.005984
57 0.005008
69 0.004019
85 0.0
91 0.004947
104 0.004021
112 0.004957
119 0.005032
127 0.005026
137 0.004024
144 0.003996
150 0.004041
156 0.005985
161 0.005985
169 0.005027
175 0.004987
182 0.00503
175 0.004987
132 0.005028
97 0.005984
78 0.006015
64 0.005008
60 0.004986
59 0.005018
65 0.00497
77 0.006015
90 0.005985
98 0.00602
103 0.005948
119 0.003987
123 0.006007
133 0.005984
140 0.005984
147 0.006017
154 0.004953
160 0.005027
166 0.005984
172 0.006039
181 0.004973
188 0.005986
188 0.005991
122 0.004955
93 0.005943
77 0.006022
70 0.006015
66 0.005985
68 0.005985
75 0.00602
90 0.006032
97 0.006022
103 0.005986
112 0.004965
118 0.005982
129 0.005012
135 0.006024
141 0.007026
147 0.006982
152 0.006015
155 0.006019
159 0.005962
166 0.005971
171 0.005984
175 0.006982
151 0.007015
95 0.005967
61 0.005968
52 0.005972
47 0.007012
45 0.007012
53 0.005985
66 0.005984
76 0.006018
83 0.007012
91 0.006985
101 0.006021
108 0.006001
120 0.006043
128 0.006016
135 0.006032
140 0.005983
145 0.006982
150 0.006996
155 0.007018
161 0.00698
166 0.006984
146 0.006984
94 0.005981
71 0.006039
51 0.005971
45 0.006019
43 0.005985
46 0.007014
56 0.007014
74 0.007021
80 0.007013
88 0.007013
97 0.007021
105 0.006982
115 0.00603
122 0.006016
134 0.005993
140 0.005983
144 0.006023
149 0.007011
154 0.007978
161 0.007013
165 0.007015
157 0.007018
120 0.006981
88 0.006981
69 0.006976
58 0.007013
47 0.006981
47 0.006016
51 0.007954
67 0.006944
79 0.007979
88 0.007943
98 0.006964
106 0.00696
114 0.007016
121 0.007979
129 0.007979
138 0.006965
145 0.006945
150 0.006981
156 0.006958
160 0.007979
167 0.007949
170 0.007945
144 0.007004
109 0.007012
87 0.006981
74 0.007979
64 0.007977
61 0.00701
67 0.00798
79 0.007973
87 0.007979
96 0.007938
108 0.00798
114 0.007968
124 0.00694
132 0.00698
138 0.007015
145 0.007978
151 0.007979
159 0.007012
164 0.007943
172 0.007027
177 0.007012
180 0.006982
178 0.007979
150 0.007952
107 0.007015
95 0.007944
84 0.007979
76 0.007979
76 0.007013
86 0.006962
100 0.007002
109 0.007016
116 0.006982
123 0.006982
130 0.007025
136 0.008027
144 0.007014
148 0.007946
151 0.007943
158 0.00701
161 0.00698
165 0.0
169 0.0
175 0.007034
167 0.007014
131 0.007009
101 0.007015
84 0.006981
72 0.007015
67 0.006981
67 0.007013
72 0.006028
83 0.007018
98 0.007013
105 0.007014
114 0.007016
121 0.007014
128 0.007015
134 0.006982
140 0.007018
148 0.006983
153 0.007017
157 0.007013
161 0.005987
165 0.005983
172 0.006015
170 0.007002
126 0.007017
95 0.006981
76 0.007017
64 0.006974
56 0.007012
52 0.007011
54 0.007013
65 0.006975
78 0.006001
88 0.006014
100 0.005987
107 0.006017
114 0.006986
124 0.007028
131 0.007013
137 0.006982
143 0.006979
148 0.007014
153 0.007015
158 0.006015
163 0.006016
167 0.006017
148 0.006018
110 0.006016
85 0.005986
66 0.006019
57 0.006016
52 0.006982
52 0.006026
57 0.006021
73 0.005984
85 0.006019
93 0.005981
101 0.006021
113 0.006014
121 0.006018
128 0.005984
137 0.005984
143 0.005982
148 0.005983
152 0.006017
156 0.006017
163 0.006014
167 0.005973
170 0.005983
155 0.006022
100 0.006015
82 0.006348
72 0.005993
64 0.005983
62 0.006019
66 0.006035
76 0.005984
89 0.005984
100 0.00602
108 0.005984
115 0.005019
122 0.004986
134 0.005017
141 0.005016
147 0.004987
153 0.005021
157 0.005016
162 0.005023
166 0.005976
171 0.005984
176 0.005984
173 0.006019
144 0.005027
111 0.005048
85 0.005015
77 0.005021
73 0.005987
75 0.00495
83 0.005032
94 0.005024
102 0.004986
109 0.005024
118 0.005006
125 0.004987
132 0.004987
138 0.005018
147 0.005024
152 0.005021
155 0.005984
160 0.005022
164 0.00502
167 0.00502
171 0.004988
171 0.005023
137 0.005021
104 0.005024
85 0.004987
74 0.005021
65 0.005029
64 0.004037
70 0.003995
85 0.004021
94 0.004987
101 0.004987
109 0.005022
115 0.004987
124 0.005018
131 0.004996
137 0.005021
146 0.003996
150 0.005023
155 0.004021
159 0.00399
164 0.005031
168 0.004989
165 0.003989
136 0.003991
102 0.004987
82 0.004024
67 0.005023
60 0.004025
56 0.004987
60 0.00399
73 0.003962
86 0.00399
94 0.003978
104 0.003991
112 0.003989
119 0.003993
126 0.00399
129 0.00096
140 0.001006
146 0.002963
155 0.003028
159 0.004988
164 0.005037
168 0.004975
170 0.004987
141 0.004959
109 0.004993
89 0.00399
77 0.00399
70 0.003989
64 0.00399
64 0.003965
80 0.004
94 0.00399
103 0.00399
110 0.003994
117 0.003989
127 0.004002
134 0.003016
142 0.002992
148 0.004032
154 0.003991
160 0.003991
165 0.00399
173 0.004019
177 0.003991
179 0.003989
164 0.003989
132 0.00399
104 0.00406
93 0.002984
86 0.002992
82 0.002992
81 0.002992
90 0.003954
103 0.003989
118 0.004026
124 0.00399
131 0.003989
138 0.00399
145 0.00396
153 0.003947
159 0.003989
164 0.002992
168 0.003039
172 0.002991
177 0.002991
181 0.003041
185 0.003
170 0.002992
138 0.002992
116 0.003991
104 0.003989
95 0.003989
92 0.003956
93 0.003002
100 0.003955
111 0.003958
122 0.003988
128 0.002996
138 0.002839
144 0.002992
149 0.003025
155 0.002991
160 0.002991
165 0.00303
169 0.003023
172 0.00303
175 0.003038
179 0.002992
182 0.002992
172 0.003026
122 0.002993
104 0.002992
93 0.002992
86 0.003025
81 0.002992
81 0.002993
89 0.002991
100 0.003027
110 0.002992
116 0.002992
124 0.001995
134 0.001995
140 0.001995
148 0.001995
154 0.001995
158 0.002009
162 0.002995
166 0.002992
170 0.002992
174 0.002992
178 0.002992
173 0.003027
144 0.002993
101 0.002992
88 0.002012
77 0.001994
72 0.001975
71 0.002002
75 0.002024
87 0.001996
102 0.002992
110 0.002998
117 0.002993
124 0.002028
131 0.002002
142 0.001986
148 0.001995
155 0.001995
159 0.002033
163 0.002005
168 0.001995
172 0.001995
177 0.001993
174 0.001995
147 0.002005
117 0.001996
99 0.001005
83 0.001028
77 0.002035
75 0.002042
80 0.001994
92 0.001995
104 0.001996
112 0.002027
121 0.002059
128 0.002001
135 0.001996
141 0.000999
147 0.000997
156 0.000997
161 0.000998
166 0.000997
170 0.000998
174 0.000997
177 0.001995
178 0.001994
147 0.001995
118 0.001041
100 0.000988
91 0.002011
85 0.001995
81 0.000997
86 0.000998
102 0.000998
112 0.001002
118 0.000998
122 0.014959
126 0.000997
133 0.011968
145 0.000997
151 0.000997
155 0.001999
160 0.001038
166 0.001029
170 0.001019
175 0.001013
177 0.000997
177 0.000998
154 0.000998
123 0.000998
100 0.000998
91 0.001
87 0.000989
85 0.000997
88 0.0
105 0.0
113 0.0
121 0.000997
127 0.0
133 0.000998
139 0.000997
145 0.000997
152 0.000984
156 0.000997
161 0.000997
164 0.000998
167 0.000996
173 0.0
176 0.0
167 0.0
135 0.0
108 0.0
92 0.0
84 0.0
78 0.0
76 0.000997
79 0.000998
90 0.000997
102 0.0
114 0.0
121 0.0
128 0.0
136 0.0
142 0.0
149 0.0
153 0.0
157 0.0
162 0.0
166 0.0
169 0.0
175 0.001035
169 0.0
137 0.0
107 0.0
85 0.000997
76 0.0
69 0.0
66 0.0
67 0.0
79 0.0
93 0.0
103 0.0
115 0.0
122 0.0
129 0.0
136 0.0
145 0.0
150 0.001011
156 0.0
160 0.0
164 0.0
167 0.0
171 0.0
173 0.0
130 0.001104
104 0.0
85 0.0
77 0.0
72 0.001025
70 0.000999
75 0.0
87 0.0
100 0.0
108 0.000997
115 0.000997
124 0.0
134 0.000997
142 0.0
148 0.000988
151 0.0
157 0.0
160 0.000998
166 0.0
170 0.0
173 0.0
174 0.000999
154 0.000994
112 0.0
91 0.000985
81 0.0
77 0.0
76 0.0
81 0.000997
93 0.000997
107 0.000999
114 0.0
121 0.0
128 0.001036
135 0.000999
143 0.0
151 0.001995
157 0.0
161 0.0
164 0.0
168 0.001032
172 0.001025
176 0.0
173 0.001
146 0.001034
116 0.000998
99 0.000998
88 0.000989
82 0.001995
84 0.001002
93 0.000998
104 0.000988
112 0.001995
119 0.001988
126 0.0
133 0.001035
139 0.0
146 0.001028
150 0.00101
155 0.001034
161 0.001961
165 0.002022
169 0.000992
173 0.000991
175 0.000988
164 0.001995
130 0.00198
98 0.001022
85 0.000961
77 0.000995
73 0.002028
71 0.002028
83 0.002034
96 0.002031
105 0.001987
114 0.002042
121 0.001996
128 0.001995
134 0.001995
144 0.002
149 0.000999
153 0.001996
158 0.001995
162 0.001995
168 0.002007
171 0.001999
174 0.001002
158 0.000998
123 0.000998
99 0.002006
85 0.001995
74 0.001003
68 0.000997
67 0.001993
71 0.00303
91 0.001028
102 0.002993
110 0.001995
120 0.00103
127 0.000975
134 0.001034
141 0.002051
147 0.002029
153 0.000994
158 0.001034
163 0.002028
167 0.003023
174 0.002017
177 0.002987
166 0.003029
124 0.001031
103 0.00106
91 0.001042
83 0.001996
78 0.001995
76 0.000998
82 0.001031
95 0.002026
107 0.002992
119 0.002026
126 0.003035
133 0.002992
142 0.001996
148 0.002032
154 0.003029
159 0.002998
163 0.002992
168 0.002027
172 0.001995
176 0.001947
179 0.00303
172 0.002041
140 0.003004
115 0.003032
97 0.00199
90 0.001995
86 0.002028
84 0.003031
88 0.00393
104 0.002007
114 0.002029
118 0.003026
126 0.002992
137 0.002029
143 0.003026
150 0.003021
157 0.002041
161 0.001993
165 0.001995
168 0.003045
171 0.002992
176 0.002034
179 0.002027
178 0.002966
156 0.004022
111 0.002963
98 0.00399
90 0.00402
85 0.002004
85 0.002006
91 0.002009
103 0.001997
112 0.003028
119 0.003025
127 0.002031
133 0.002999
140 0.003024
150 0.002982
155 0.003034
159 0.003989
163 0.00404
167 0.00303
171 0.001975
173 0.00303
177 0.004029
178 0.003989
145 0.003015
114 0.003024
96 0.002997
79 0.00296
74 0.003
71 0.00399
74 0.003989
89 0.00303
101 0.002029
108 0.00303
115 0.004023
121 0.00403
130 0.00302
137 0.003017
143 0.003
152 0.003023
156 0.00299
159 0.003989
163 0.00399
167 0.003029
171 0.003026
174 0.003039
164 0.00399
129 0.005039
95 0.004022
80 0.004025
67 0.003027
62 0.003026
63 0.00299
69 0.00404
83 0.00399
98 0.002997
106 0.002992
113 0.003029
120 0.005036
127 0.005022
136 0.003988
143 0.003964
151 0.00303
155 0.003003
159 0.005021
163 0.004021
167 0.003989
172 0.002973
172 0.002997
148 0.004005
114 0.004964
94 0.004993
79 0.004021
74 0.005995
70 0.003979
74 0.004014
87 0.005017
99 0.004981
107 0.004986
116 0.004026
124 0.00402
130 0.002976
137 0.004986
144 0.004987
151 0.004019
156 0.003995
162 0.003983
166 0.004035
170 0.004028
174 0.004986
177 0.004988
165 0.004017
131 0.004991
106 0.005019
91 0.006017
84 0.006017
79 0.003992
79 0.003976
94 0.003994
104 0.003991
112 0.00498
119 0.005019
126 0.005026
135 0.00402
140 0.004021
147 0.004994
152 0.006017
156 0.006014
160 0.006016
164 0.004011
169 0.004035
172 0.004038
174 0.004985
170 0.003983
140 0.005016
109 0.006016
87 0.004999
79 0.00502
75 0.005004
74 0.006019
77 0.005986
93 0.004988
106 0.006003
114 0.005018
119 0.005986
128 0.004022
134 0.005026
140 0.005018
148 0.003997
153 0.004989
157 0.004986
160 0.006015
164 0.00602
168 0.005019
173 0.005984
168 0.006024
136 0.005982
104 0.00502
84 0.006033
72 0.006982
63 0.004985
59 0.00499
61 0.005021
69 0.005984
84 0.006019
97 0.005006
107 0.005996
116 0.005992
124 0.006029
131 0.00502
137 0.006016
144 0.006981
150 0.004989
154 0.005006
159 0.004984
163 0.006973
168 0.00598
172 0.004987
162 0.006027
115 0.005014
91 0.00595
77 0.005039
68 0.007003
63 0.007013
61 0.005975
67 0.006018
80 0.00598
93 0.006981
102 0.007015
114 0.007017
121 0.007004
131 0.006001
138 0.005952
144 0.005988
151 0.007129
155 0.006981
161 0.005989
165 0.006015
170 0.005981
174 0.007046
176 0.006985
128 0.007964
110 0.007979
88 0.006996
80 0.007017
75 0.006018
73 0.007024
76 0.007014
91 0.006016
104 0.006018
111 0.006025
118 0.006991
125 0.00702
137 0.007939
144 0.00798
152 0.006997
157 0.00698
161 0.006013
165 0.007013
169 0.007013
174 0.005987
179 0.005988
182 0.005984
173 0.007029
139 0.007015
101 0.007981
91 0.00798
84 0.006948
83 0.007035
87 0.007011
97 0.007939
107 0.007946
116 0.007015
123 0.005961
129 0.007012
136 0.005993
142 0.007039
152 0.007
156 0.007979
160 0.007979
165 0.006979
168 0.00698
171 0.007017
175 0.007943
177 0.00698
160 0.006996
125 0.006987
101 0.007017
87 0.007941
72 0.006963
70 0.007015
73 0.00801
83 0.006982
96 0.00702
104 0.006985
111 0.007948
118 0.007947
127 0.006988
134 0.006983
141 0.006987
147 0.007948
156 0.007011
159 0.00701
163 0.006999
168 0.007014
171 0.007014
173 0.006968
168 0.007945
135 0.007945
97 0.006997
81 0.006995
71 0.006997
63 0.007014
61 0.007006
70 0.007011
83 0.007018
97 0.007017
105 0.007032
110 0.006918
119 0.007013
127 0.006981
136 0.006985
140 0.00697
146 0.006978
151 0.007943
159 0.00698
163 0.006981
167 0.006984
172 0.006984
161 0.007017
128 0.006977
101 0.006966
86 0.006985
73 0.007011
68 0.006985
67 0.006981
77 0.006013
90 0.006986
101 0.006981
108 0.007011
117 0.007016
124 0.006984
131 0.007015
138 0.006975
144 0.007015
151 0.007014
155 0.006975
159 0.007028
165 0.006013
169 0.006015
172 0.006014
170 0.006015
131 0.007027
104 0.007021
90 0.007017
82 0.007015
77 0.007031
75 0.007012
82 0.007021
93 0.006982
108 0.006014
114 0.006043
121 0.006014
127 0.006006
136 0.006025
142 0.006021
147 0.007017
151 0.006009
154 0.005975
158 0.006982
162 0.007018
166 0.006023
170 0.005978
160 0.006022
126 0.00602
100 0.005984
84 0.00602
73 0.00596
68 0.006001
67 0.00602
71 0.005984
83 0.005989
99 0.006994
106 0.006023
118 0.005975
124 0.006011
132 0.00602
138 0.005985
144 0.005982
151 0.006022
155 0.006015
158 0.005995
162 0.006015
166 0.006015
170 0.006021
170 0.006029
121 0.005018
96 0.004961
80 0.005988
70 0.006032
64 0.006016
60 0.006018
63 0.006014
74 0.006018
88 0.006016
99 0.006017
109 0.006016
116 0.004986
128 0.005008
135 0.004986
142 0.004988
147 0.004987
152 0.006011
157 0.005984
161 0.005983
165 0.005983
170 0.005982
172 0.005017
152 0.005024
116 0.005017
83 0.005019
74 0.005014
67 0.004033
64 0.004021
66 0.004987
78 0.00502
92 0.005021
102 0.00499
110 0.006035
117 0.006017
126 0.005025
133 0.005022
144 0.005014
149 0.004974
154 0.005173
158 0.004987
161 0.003938
166 0.005007
171 0.004989
173 0.004987
169 0.005026
138 0.005029
99 0.005021
84 0.004996
72 0.005025
69 0.005084
71 0.004987
79 0.004987
93 0.005017
106 0.005021
113 0.004989
120 0.004987
126 0.004979
131 0.0
142 0.00399
150 0.003989
155 0.00402
158 0.004
162 0.003989
165 0.003989
169 0.004029
174 0.004021
172 0.004987
147 0.003958
114 0.003961
94 0.005019
81 0.004952
77 0.004987
79 0.003967
88 0.003989
100 0.003995
108 0.003989
115 0.004006
121 0.003955
130 0.004021
137 0.004001
143 0.003948
148 0.003997
153 0.003988
158 0.003002
161 0.003987
165 0.003988
168 0.00395
171 0.003957
172 0.004048
153 0.004023
107 0.003988
87 0.00399
76 0.00399
70 0.003989
68 0.00399
74 0.003989
85 0.003991
99 0.003991
106 0.00399
113 0.003028
120 0.004033
126 0.002992
135 0.003992
141 0.00399
146 0.003989
150 0.00399
154 0.004003
159 0.002992
163 0.003038
168 0.002979
169 0.00299
152 0.003026
115 0.002981
88 0.002992
69 0.002992
61 0.003993
56 0.003999
55 0.004035
60 0.003996
82 0.002581
93 0.003024
103 0.003017
110 0.003005
117 0.003026
124 0.003002
131 0.003989
140 0.00299
145 0.004024
149 0.002992
153 0.003024
157 0.003001
164 0.002025
167 0.003
160 0.002992
127 0.001995
97 0.002989
79 0.001994
69 0.002997
62 0.003051
61 0.003035
64 0.002992
75 0.003062
89 0.003024
104 0.00299
111 0.001994
120 0.003026
127 0.003024
134 0.001942
140 0.003037
146 0.002992
152 0.003032
156 0.002993
159 0.002026
163 0.002026
167 0.002027
172 0.001996
159 0.003033
114 0.002991
92 0.001945
80 0.001956
73 0.001995
70 0.00299
72 0.002982
81 0.003026
94 0.002027
103 0.001996
115 0.001993
121 0.001997
129 0.001995
137 0.002005
143 0.003051
148 0.002957
153 0.001995
157 0.001994
160 0.003005
165 0.003008
168 0.002992
172 0.003032
169 0.00198
140 0.001964
109 0.000998
92 0.001996
81 0.002979
79 0.001031
80 0.001984
86 0.001995
97 0.001995
108 0.001995
115 0.002036
121 0.002058
131 0.001995
137 0.002026
143 0.001995
148 0.002048
153 0.001034
157 0.002065
159 0.00104
163 0.001029
166 0.000997
170 0.001965
171 0.000997
158 0.00104
103 0.001028
84 0.000985
74 0.001994
68 0.001996
67 0.00199
70 0.001993
80 0.00101
93 0.001958
101 0.002028
110 0.001984
117 0.001995
123 0.002
134 0.001033
140 0.001029
145 0.00199
149 0.002073
153 0.002002
157 0.002049
160 0.002054
164 0.002048
167 0.002003
160 0.001996
126 0.001995
95 0.00204
68 0.001008
60 0.002025
56 0.001063
55 0.001045
63 0.00103
76 0.001037
90 0.001
98 0.000997
106 0.000997
115 0.000997
122 0.000997
129 0.000988
139 0.000999
145 0.001028
149 0.0
153 0.0
158 0.0
162 0.000996
166 0.001067
169 0.000997
157 0.000962
112 0.000999
88 0.000995
75 0.000998
65 0.000997
63 0.00104
66 0.0
76 0.00103
94 0.0
103 0.0
110 0.0
117 0.000994
124 0.0
133 0.000997
140 0.0
145 0.0
153 0.0
157 0.0
161 0.0
165 0.0
170 0.000998
174 0.001053
172 0.000999
144 0.000997
111 0.000997
87 0.000998
78 0.0
74 0.000997
74 0.0
83 0.0
95 0.0
105 0.001028
113 0.0
122 0.0
128 0.0
135 0.0
141 0.0
147 0.0
154 0.0
159 0.0
164 0.0
167 0.0
170 0.0
173 0.0
176 0.0
160 0.0
125 0.0
101 0.0
88 0.0
82 0.0
80 0.0
86 0.001006
100 0.001007
110 0.001018
116 0.000983
125 0.001001
129 0.000999
137 0.000997
143 0.001006
150 0.0
153 0.0
158 0.0
161 0.001038
164 0.000998
168 0.000999
172 0.001034
175 0.0
159 0.000997
123 0.0
97 0.000995
83 0.001995
74 0.0
72 0.0
75 0.0
82 0.00103
102 0.001009
109 0.000999
115 0.00098
123 0.0
130 0.000997
136 0.001045
142 0.00197
147 0.002037
151 0.000997
155 0.000998
159 0.000994
162 0.002029
168 0.0
171 0.001029
166 0.001015
120 0.0
91 0.0
74 0.0
65 0.001044
59 0.001036
58 0.0
63 0.0
74 0.0
87 0.00099
102 0.0
109 0.002034
117 0.002012
126 0.0
133 0.0
139 0.0
145 0.001036
149 0.00202
155 0.0
159 0.0
162 0.0
167 0.001031
170 0.0
148 0.001045
112 0.001032
84 0.0
73 0.000965
67 0.000999
64 0.00199
65 0.00203
77 0.0
90 0.0
100 0.0
108 0.002063
120 0.0
127 0.002029
134 0.002028
140 0.000998
148 0.000961
153 0.000962
156 0.002001
160 0.001962
164 0.001962
169 0.000997
173 0.000997
174 0.000966
130 0.002028
102 0.001004
86 0.002022
78 0.002993
73 0.001012
73 0.000966
79 0.001002
90 0.001997
101 0.001995
111 0.001996
118 0.000997
129 0.001988
136 0.001029
142 0.000966
147 0.001995
153 0.001963
158 0.001981
162 0.000997
166 0.002032
169 0.003037
173 0.002029
176 0.000985
167 0.00103
115 0.000998
96 0.000967
86 0.001956
82 0.001995
81 0.003038
87 0.001967
98 0.000966
108 0.002026
114 0.003041
120 0.003024
129 0.002036
135 0.002043
143 0.000982
148 0.001029
153 0.00103
157 0.002992
160 0.004021
164 0.001998
167 0.001962
170 0.001987
173 0.003026
170 0.002992
129 0.000937
101 0.000978
78 0.000998
73 0.001995
71 0.002026
72 0.004026
80 0.003988
96 0.001982
104 0.001967
111 0.001945
117 0.004047
124 0.003007
133 0.001964
139 0.001984
148 0.001998
152 0.002985
156 0.001981
159 0.004037
163 0.003991
168 0.001953
171 0.002992
170 0.002971
145 0.003966
109 0.002983
81 0.002978
69 0.002998
59 0.001989
57 0.001978
61 0.001995
72 0.004023
86 0.004004
98 0.001978
105 0.001995
112 0.001975
119 0.004026
126 0.004022
133 0.004028
141 0.001998
147 0.00386
153 0.002999
157 0.002987
161 0.001976
166 0.00402
169 0.003979
157 0.003025
122 0.003015
94 0.003001
78 0.004035
69 0.00399
62 0.001993
62 0.004988
73 0.002991
86 0.002999
97 0.002993
105 0.004027
112 0.003972
121 0.002995
129 0.003985
135 0.002993
141 0.00399
147 0.004005
152 0.003023
158 0.005034
162 0.003026
167 0.002987
171 0.002994
172 0.00499
154 0.00399
110 0.002998
89 0.003958
77 0.004002
71 0.004023
68 0.004029
70 0.004024
85 0.004987
99 0.002997
107 0.003006
114 0.00303
121 0.004987
128 0.004987
137 0.003005
143 0.002988
148 0.003957
153 0.004022
157 0.00502
163 0.005031
167 0.005019
172 0.004133
175 0.004023
174 0.004026
149 0.005036
115 0.006016
90 0.003969
81 0.003935
77 0.002996
76 0.005027
80 0.005028
98 0.004988
107 0.004987
115 0.003993
122 0.003989
128 0.004025
135 0.006015
141 0.005985
148 0.00399
152 0.004036
156 0.005034
159 0.005984
163 0.006016
168 0.005984
171 0.00502
173 0.004969
154 0.003997
118 0.003977
93 0.004987
80 0.006
71 0.003987
68 0.005021
70 0.00501
78 0.005984
90 0.005979
104 0.00504
111 0.006982
120 0.004017
126 0.00401
132 0.003986
139 0.004978
144 0.005985
150 0.004979
154 0.005023
157 0.004978
160 0.006016
164 0.006015
169 0.006021
165 0.00702
133 0.005986
91 0.003979
74 0.003997
63 0.003997
57 0.006985
55 0.00699
59 0.004983
70 0.004972
84 0.004972
94 0.006014
106 0.005029
113 0.006021
120 0.006026
130 0.005031
136 0.00602
142 0.00602
146 0.006984
150 0.006982
155 0.005031
159 0.004985
163 0.004985
167 0.006981
152 0.004997
117 0.00598
92 0.005985
75 0.004999
68 0.00599
64 0.006028
65 0.007022
71 0.006981
88 0.00502
99 0.005017
107 0.004987
114 0.007028
126 0.004997
133 0.007023
139 0.006014
148 0.004993
153 0.005985
157 0.005951
161 0.007014
165 0.007018
170 0.005967
174 0.005978
177 0.005976
169 0.006982
116 0.006004
97 0.006948
87 0.006982
80 0.005984
79 0.005985
82 0.005028
92 0.007983
103 0.007
114 0.005941
121 0.005981
128 0.00597
139 0.006
145 0.00597
150 0.006982
155 0.006943
160 0.005956
164 0.005989
167 0.00595
170 0.006982
173 0.007013
177 0.005992
177 0.006981
156 0.006019
108 0.007009
95 0.006047
88 0.00798
85 0.00798
87 0.005986
94 0.005989
106 0.005985
114 0.007035
120 0.006982
128 0.005989
134 0.006952
139 0.005984
148 0.006996
153 0.006036
157 0.007822
161 0.007979
165 0.005975
168 0.005985
171 0.005985
174 0.007979
176 0.007981
158 0.006947
123 0.006948
99 0.005972
79 0.006999
74 0.006987
71 0.006988
75 0.007933
81 0.007979
97 0.007015
106 0.006024
112 0.006973
121 0.007952
125 0.007948
134 0.006943
140 0.006942
149 0.006941
153 0.006992
156 0.007035
161 0.007012
164 0.006962
168 0.006949
172 0.00698
169 0.006981
140 0.006951
107 0.007011
88 0.006984
76 0.00698
66 0.006984
65 0.006975
68 0.00699
83 0.007011
95 0.007016
106 0.006982
113 0.006989
119 0.006977
126 0.006973
133 0.006969
141 0.006955
145 0.006974
153 0.007018
156 0.006983
159 0.006982
164 0.006988
168 0.006983
172 0.006985
164 0.006953
143 0.006966
102 0.00702
86 0.00701
76 0.006972
71 0.006964
72 0.006965
82 0.006965
90 0.006982
104 0.005988
111 0.007
120 0.007011
126 0.007011
133 0.007015
139 0.007015
145 0.006964
151 0.006017
156 0.006983
162 0.006039
165 0.006977
168 0.007045
172 0.007012
174 0.005995
163 0.005973
129 0.005952
102 0.006014
87 0.005975
80 0.006017
76 0.006016
78 0.005985
93 0.006978
103 0.006016
111 0.005984
117 0.00703
124 0.006015
132 0.005973
138 0.005979
143 0.006026
148 0.006022
152 0.005983
157 0.005977
160 0.005988
164 0.006007
167 0.00604
169 0.006018
170 0.006021
148 0.006021
105 0.007005
87 0.006032
77 0.006026
73 0.005981
73 0.006016
79 0.006013
93 0.005862
102 0.006069
110 0.005983
117 0.005947
123 0.005984
129 0.004945
135 0.004937
142 0.004952
147 0.006023
151 0.005032
154 0.005029
158 0.004986
163 0.006023
166 0.00602
168 0.005987
148 0.005963
112 0.006017
88 0.006019
75 0.006013
65 0.005999
62 0.006015
63 0.004963
69 0.005047
82 0.005016
99 0.005027
106 0.00499
115 0.004997
122 0.005025
128 0.004956
135 0.004933
141 0.005008
148 0.006019
152 0.006019
156 0.005982
159 0.00502
163 0.004975
169 0.005019
168 0.00502
130 0.004953
101 0.004985
84 0.005017
75 0.004988
69 0.004986
67 0.004981
71 0.005018
81 0.006033
95 0.003989
104 0.004006
116 0.005026
123 0.005047
132 0.004961
138 0.004964
144 0.005013
150 0.005022
155 0.004987
160 0.005037
163 0.005016
167 0.004987
170 0.005026
174 0.003991
159 0.005038
126 0.004989
96 0.004021
85 0.003974
79 0.004044
76 0.006019
77 0.003996
88 0.003949
100 0.003989
109 0.004025
116 0.00397
123 0.004016
134 0.004031
140 0.004987
147 0.005024
153 0.003987
157 0.004986
161 0.005017
164 0.003992
168 0.003929
172 0.003984
175 0.003989
177 0.004
165 0.004023
113 0.003941
96 0.003989
85 0.004038
82 0.00496
82 0.00396
87 0.003957
98 0.003977
111 0.005023
117 0.003955
124 0.00399
130 0.00399
141 0.005021
146 0.003975
151 0.003985
155 0.004022
160 0.003993
162 0.003991
166 0.003989
169 0.002993
172 0.00301
175 0.003034
169 0.002992
138 0.002988
97 0.002992
87 0.00402
82 0.00399
80 0.00402
84 0.00402
94 0.004036
105 0.004027
113 0.00401
119 0.002992
127 0.002943
133 0.002992
139 0.004027
148 0.003006
153 0.003026
157 0.003004
161 0.003034
164 0.004008
167 0.003986
171 0.004031
173 0.002984
173 0.003012
141 0.002993
107 0.002992
87 0.00303
70 0.00399
66 0.002993
65 0.003025
69 0.00303
84 0.003992
96 0.002992
104 0.00303
110 0.001996
117 0.003037
126 0.00299
132 0.002944
138 0.002991
147 0.003989
151 0.003042
155 0.002992
158 0.003028
163 0.002992
166 0.002974
169 0.002993
163 0.002954
131 0.001928
93 0.001964
78 0.001996
70 0.003023
64 0.002033
66 0.002013
73 0.002996
86 0.002992
101 0.002946
108 0.003057
115 0.003025
121 0.002994
128 0.002974
137 0.003056
143 0.001993
149 0.001992
155 0.003011
159 0.00195
162 0.001997
166 0.001994
171 0.003018
172 0.001995
155 0.002985
121 0.00205
98 0.003032
81 0.003043
76 0.001982
73 0.001995
78 0.003024
90 0.002025
102 0.00199
110 0.002051
119 0.002027
126 0.002028
133 0.002043
139 0.002137
145 0.001049
152 0.002994
156 0.000997
160 0.000998
165 0.001997
168 0.001995
172 0.001996
175 0.001996
175 0.001994
143 0.002026
113 0.001995
96 0.001957
87 0.001998
83 0.001036
83 0.001049
88 0.000984
106 0.000998
114 0.001995
120 0.001995
126 0.002043
132 0.002031
140 0.002004
146 0.002031
151 0.001045
155 0.000997
159 0.000997
163 0.001031
167 0.002002
171 0.000998
174 0.001956
175 0.001993
154 0.00103
120 0.002046
93 0.002025
82 0.001996
76 0.001996
74 0.000998
75 0.001045
87 0.001037
103 0.000998
113 0.000997
120 0.001017
126 0.000998
132 0.001039
138 0.001021
146 0.000984
151 0.0
156 0.001995
160 0.000998
163 0.0
167 0.000997
172 0.002056
176 0.00197
162 0.002041
126 0.001026
100 0.000997
84 0.000996
72 0.000996
67 0.00103
66 0.001033
70 0.000998
81 0.0
99 0.001023
109 0.000997
119 0.000997
125 0.001035
132 0.0
139 0.000966
146 0.0
153 0.0
157 0.0
160 0.0
164 0.0
167 0.0
171 0.0
173 0.000997
144 0.001004
111 0.000976
91 0.0
79 0.0
73 0.0
69 0.0
71 0.0
80 0.0
94 0.0
105 0.001023
114 0.001035
123 0.0
132 0.0
138 0.001048
145 0.001077
150 0.0
154 0.0
159 0.0
162 0.0
165 0.0
169 0.0
172 0.0
173 0.0
140 0.0
102 0.0
87 0.000999
78 0.000998
74 0.001045
73 0.001051
78 0.000998
93 0.000999
104 0.0
112 0.000997
119 0.0
125 0.0
136 0.0
142 0.0
149 0.0
153 0.0
157 0.0
160 0.0
164 0.000966
168 0.0
171 0.000998
174 0.000999
172 0.000998
146 0.001
95 0.000984
87 0.000997
80 0.000999
79 0.000998
82 0.00103
91 0.0
103 0.0
113 0.000999
119 0.001008
127 0.0
131 0.000998
141 0.000998
148 0.0
152 0.0
155 0.00098
158 0.000997
162 0.0
165 0.000998
168 0.000967
171 0.0
168 0.002036
127 0.000998
99 0.0
76 0.0
70 0.000985
68 0.000998
69 0.001026
76 0.001996
93 0.000962
102 0.000954
109 0.000953
115 0.002047
122 0.002042
131 0.000969
137 0.0
147 0.000981
151 0.000997
154 0.000997
158 0.001995
162 0.002039
167 0.000961
170 0.0
172 0.0
152 0.002992
117 0.00198
93 0.001023
77 0.0
68 0.000998
66 0.0
70 0.0
80 0.001995
94 0.001045
107 0.0
114 0.0
121 0.0
128 0.001998
135 0.002032
143 0.000989
149 0.000996
157 0.0
161 0.0
165 0.0
170 0.001995
173 0.002004
178 0.0
171 0.0
140 0.000989
111 0.001996
95 0.002022
84 0.0
80 0.0
81 0.0
90 0.0
103 0.0
112 0.0
118 0.002035
128 0.0
134 0.0
140 0.0
147 0.0
152 0.001996
157 0.001996
162 0.0
167 0.001995
172 0.0
175 0.000994
179 0.000947
181 0.001997
167 0.003003
123 0.002001
104 0.002005
93 0.002001
87 0.002994
84 0.002962
87 0.00201
100 0.002007
113 0.001997
120 0.001044
126 0.001981
134 0.002007
140 0.003029
148 0.001008
153 0.002033
158 0.002009
161 0.003019
165 0.003024
169 0.001992
173 0.002993
178 0.001014
181 0.001992
176 0.001989
146 0.003025
116 0.003028
96 0.001023
89 0.000995
86 0.002008
86 0.002992
92 0.002996
105 0.001999
115 0.002995
123 0.000998
129 0.001
136 0.001994
142 0.003016
147 0.002994
154 0.001983
159 0.001987
162 0.001029
165 0.003044
169 0.00403
174 0.002992
177 0.003027
175 0.001
146 0.000998
113 0.00201
93 0.003032
80 0.004039
72 0.002
70 0.001993
71 0.001986
80 0.00403
93 0.002992
107 0.002992
114 0.003037
122 0.000996
129 0.001995
136 0.000988
142 0.004034
147 0.004024
154 0.001962
157 0.00197
161 0.00201
165 0.004027
169 0.003987
174 0.002992
167 0.002994
122 0.002003
96 0.002017
81 0.002006
71 0.003994
66 0.004043
64 0.003004
69 0.001977
81 0.001952
93 0.003989
102 0.00399
113 0.003989
120 0.004025
130 0.001994
136 0.002
142 0.002993
147 0.004023
152 0.004041
156 0.00399
161 0.001981
165 0.00299
169 0.001996
172 0.005043
151 0.001998
116 0.004032
92 0.005031
76 0.002023
70 0.002986
67 0.00299
69 0.00402
77 0.004987
93 0.002993
102 0.002987
109 0.002997
116 0.003991
127 0.002997
134 0.004028
140 0.003988
147 0.002025
152 0.002992
156 0.00301
159 0.004987
163 0.004988
168 0.003007
171 0.002994
174 0.002959
160 0.004987
106 0.003017
88 0.003989
78 0.003991
73 0.003024
74 0.003985
79 0.004009
90 0.005022
101 0.004986
110 0.003009
117 0.002993
124 0.002962
130 0.005057
140 0.002994
146 0.004987
151 0.005984
156 0.002994
159 0.003992
162 0.003991
165 0.005023
169 0.005019
172 0.002936
166 0.003007
134 0.002978
103 0.004987
79 0.002982
73 0.005039
71 0.005024
76 0.002986
86 0.002957
96 0.003975
104 0.00597
110 0.006031
119 0.003023
126 0.003991
132 0.002977
142 0.00399
147 0.003989
151 0.004987
154 0.004986
159 0.002991
162 0.003026
166 0.003977
170 0.006013
169 0.005985
133 0.003986
100 0.003985
80 0.00399
63 0.003989
58 0.003989
58 0.005035
62 0.006017
78 0.004014
90 0.00495
98 0.004955
105 0.006023
112 0.005991
122 0.003995
129 0.003955
136 0.003997
145 0.003992
149 0.003989
153 0.006015
158 0.006017
163 0.004992
167 0.003998
170 0.003992
160 0.006022
124 0.005986
89 0.005002
75 0.004021
66 0.003999
60 0.003987
63 0.003987
71 0.003955
85 0.006003
96 0.005981
107 0.004995
114 0.004943
121 0.004979
128 0.006983
135 0.005977
143 0.004943
149 0.005011
156 0.004027
159 0.005017
163 0.004978
167 0.006031
171 0.005985
169 0.005021
142 0.004989
109 0.004988
90 0.006989
79 0.006983
72 0.005008
70 0.004984
78 0.00501
91 0.004988
101 0.004979
108 0.006016
115 0.006017
125 0.005989
131 0.004987
138 0.004988
144 0.006983
149 0.006989
155 0.004989
158 0.005005
164 0.004982
167 0.004999
171 0.005007
173 0.006027
167 0.005938
125 0.005993
101 0.004988
88 0.005022
81 0.007018
79 0.007012
81 0.004983
88 0.004992
105 0.004988
111 0.004985
118 0.004989
124 0.005987
131 0.008025
138 0.005966
144 0.004984
148 0.00599
152 0.007019
155 0.006984
160 0.004985
163 0.004986
168 0.005001
170 0.004984
164 0.004954
134 0.006995
104 0.006976
83 0.005985
75 0.005937
71 0.005983
70 0.006991
73 0.006982
88 0.005003
99 0.004979
110 0.005006
117 0.004999
123 0.004976
129 0.006972
135 0.006982
143 0.005996
147 0.00595
151 0.005987
156 0.007962
158 0.00799
163 0.005951
167 0.007998
165 0.006002
138 0.005005
104 0.00499
83 0.006986
70 0.007978
60 0.005999
57 0.005989
58 0.006987
69 0.007962
79 0.00798
94 0.006008
106 0.007974
113 0.005974
121 0.006042
128 0.006014
134 0.006014
140 0.008018
147 0.007015
151 0.005985
155 0.006983
159 0.006952
164 0.006968
166 0.007978
158 0.007971
136 0.007943
97 0.006993
82 0.005968
73 0.006007
68 0.007978
66 0.007013
71 0.006983
82 0.005983
96 0.006015
107 0.007011
114 0.007014
125 0.00703
129 0.007939
138 0.005982
143 0.007005
149 0.006983
153 0.007974
158 0.006983
162 0.006975
166 0.006952
170 0.006959
173 0.007014
168 0.007013
118 0.007011
97 0.007012
86 0.006985
79 0.006982
77 0.006981
78 0.007976
88 0.006974
104 0.007013
109 0.00698
118 0.006983
124 0.007012
131 0.007012
141 0.007026
146 0.006958
151 0.006937
156 0.006942
158 0.006947
162 0.007013
165 0.006019
169 0.006016
172 0.00598
173 0.006969
151 0.006978
118 0.006984
90 0.007025
83 0.00698
80 0.006972
81 0.006951
89 0.006971
101 0.00702
110 0.007014
118 0.005952
124 0.005988
130 0.005972
136 0.005951
142 0.006016
150 0.006026
154 0.006019
158 0.007041
162 0.006953
165 0.006967
168 0.007016
171 0.007018
172 0.005976
150 0.005966
116 0.006015
94 0.006015
81 0.006016
71 0.00602
70 0.006015
75 0.005983
87 0.005981
100 0.005987
108 0.006016
114 0.006016
122 0.005002
128 0.006035
135 0.006014
141 0.005979
146 0.006015
154 0.006016
157 0.006022
161 0.005997
165 0.005984
168 0.005994
171 0.006023
170 0.005984
144 0.006045
101 0.004987
82 0.005015
72 0.00501
64 0.005015
64 0.006033
69 0.006019
81 0.006018
98 0.005985
106 0.005985
113 0.00599
119 0.005984
126 0.004994
135 0.005982
140 0.005973
146 0.005022
154 0.005021
157 0.005021
160 0.005019
164 0.005021
169 0.005984
171 0.006015
163 0.006014
131 0.004987
101 0.004987
82 0.005029
74 0.004987
71 0.005018
74 0.005033
84 0.004982
98 0.00502
108 0.004987
116 0.005984
123 0.00495
129 0.005076
136 0.004988
141 0.004987
148 0.004976
153 0.004986
157 0.004978
162 0.004938
165 0.005032
169 0.006014
173 0.006027
174 0.005988
157 0.005023
123 0.005035
99 0.005021
86 0.004954
80 0.004987
79 0.004987
82 0.004987
99 0.004987
108 0.00495
115 0.004955
121 0.004987
129 0.005034
136 0.005031
141 0.00498
146 0.00502
151 0.005028
156 0.004918
158 0.003924
161 0.004987
166 0.004012
169 0.004053
172 0.004987
170 0.005024
132 0.003981
103 0.004016
88 0.003989
80 0.003989
78 0.004987
80 0.004984
88 0.003992
100 0.003943
112 0.005021
118 0.004989
124 0.004986
130 0.003988
137 0.003989
143 0.005023
147 0.004984
152 0.003951
155 0.003989
158 0.00399
161 0.003983
165 0.003939
169 0.00399
168 0.003991
141 0.003993
106 0.003989
80 0.004026
70 0.004979
65 0.004956
64 0.00401
67 0.003987
79 0.003972
92 0.003945
101 0.004021
112 0.003991
118 0.003989
125 0.003989
131 0.003989
137 0.004024
144 0.003989
148 0.00399
151 0.002967
154 0.002988
157 0.002992
162 0.003991
166 0.004029
151 0.003991
115 0.004024
89 0.003989
74 0.00399
66 0.00399
62 0.003026
64 0.004025
70 0.003025
82 0.00301
95 0.002998
105 0.003042
114 0.003989
123 0.004035
129 0.004033
135 0.003989
141 0.003945
145 0.003989
151 0.003033
154 0.002992
158 0.003012
162 0.003028
165 0.002981
168 0.001992
141 0.002967
100 0.002992
84 0.003989
76 0.00399
72 0.00296
72 0.003989
79 0.003004
90 0.003024
101 0.002992
109 0.003024
116 0.00306
124 0.002993
133 0.002987
141 0.003027
146 0.002992
151 0.003026
154 0.00202
158 0.001995
162 0.001994
165 0.002028
169 0.003026
172 0.002995
168 0.00193
129 0.001961
98 0.002992
86 0.002993
82 0.001996
83 0.002026
87 0.001987
97 0.001995
109 0.001995
116 0.002004
122 0.00217
127 0.002026
133 0.002029
140 0.001965
147 0.003012
152 0.002992
155 0.003029
158 0.003029
161 0.002964
164 0.002993
168 0.001997
170 0.002031
160 0.001993
128 0.002026
101 0.002029
84 0.001958
77 0.00201
76 0.001996
80 0.00199
90 0.002004
102 0.002041
110 0.00204
118 0.002962
124 0.003025
130 0.001994
136 0.00204
141 0.001983
148 0.002025
153 0.001993
157 0.001996
160 0.002031
164 0.001995
166 0.001982
169 0.002022
166 0.001995
127 0.002038
98 0.000994
82 0.000997
73 0.001055
67 0.001008
66 0.00101
72 0.001033
89 0.00201
100 0.001995
107 0.001996
114 0.001995
121 0.002031
129 0.002026
135 0.001053
141 0.001035
146 0.001012
150 0.000989
156 0.000998
159 0.002051
165 0.002045
168 0.00203
167 0.000997
146 0.001996
113 0.001991
86 0.001995
76 0.001013
71 0.001995
70 0.001041
75 0.000991
87 0.000997
100 0.001996
110 0.001997
117 0.001998
124 0.000997
130 0.001996
136 0.00205
144 0.000987
149 0.0
152 0.000993
156 0.001029
161 0.000997
165 0.000998
168 0.000964
170 0.000997
155 0.000998
122 0.000992
99 0.000996
86 0.000998
78 0.000997
77 0.0
78 0.0
85 0.0
106 0.0
114 0.0
120 0.0
129 0.0
135 0.0
141 0.000998
146 0.000997
151 0.000997
156 0.000997
159 0.0
162 0.0
165 0.0
171 0.0
173 0.0
169 0.0
132 0.0
107 0.0
93 0.0
86 0.0
84 0.000998
87 0.000975
94 0.0
105 0.0
114 0.0
123 0.0
130 0.0
135 0.0
143 0.0
147 0.0
151 0.0
155 0.0
158 0.0
161 0.0
164 0.0
167 0.001957
170 0.0
163 0.0
131 0.0
104 0.0
88 0.0
78 0.0
75 0.0
76 0.0
81 0.0
92 0.0
108 0.001028
115 0.0
121 0.0
131 0.000997
137 0.000997
142 0.000998
147 0.000997
153 0.0
157 0.0
160 0.0
163 0.0
167 0.0
170 0.001006
171 0.001089
143 0.0
103 0.002042
83 0.0
74 0.0
70 0.0
69 0.002022
72 0.002003
85 0.0
99 0.000963
108 0.0
115 0.002991
122 0.002042
131 0.0
139 0.000961
147 0.000977
152 0.0
156 0.0
159 0.002042
163 0.002044
167 0.0
171 0.0
173 0.0
164 0.003029
132 0.002023
95 0.002041
85 0.00204
78 0.0
76 0.000968
78 0.0
87 0.001029
99 0.002028
113 0.0
120 0.0
126 0.0
133 0.002048
139 0.002041
149 0.002028
153 0.002052
159 0.000963
162 0.0
165 0.0
169 0.003027
172 0.002025
176 0.0
172 0.000962
145 0.0
117 0.001995
100 0.002027
86 0.002017
84 0.00205
86 0.0
93 0.0
106 0.0
115 0.002031
121 0.002039
130 0.0
136 0.0
141 0.0
147 0.00301
152 0.002016
159 0.002026
162 0.002002
166 0.0
169 0.0
172 0.0
175 0.002029
175 0.002029
144 0.0
117 0.0
102 0.000998
94 0.003026
90 0.002993
91 0.001995
99 0.00203
113 0.000965
120 0.000954
125 0.000996
131 0.001989
137 0.002026
144 0.0
149 0.001011
154 0.0
164 0.0
168 0.001995
174 0.0
177 0.002026
181 0.002
185 0.0
179 0.0
142 0.001995
107 0.002
86 0.00199
71 0.000967
66 0.001997
65 0.000948
69 0.003024
92 0.001031
104 0.001995
113 0.001995
123 0.0
131 0.002
138 0.001981
145 0.002026
152 0.003031
159 0.002005
164 0.00095
167 0.001995
171 0.002993
178 0.001996
182 0.003026
183 0.002028
143 0.0
105 0.000937
82 0.002007
69 0.002025
61 0.00203
57 0.002014
59 0.002
69 0.001996
87 0.002992
107 0.001981
116 0.002974
124 0.002987
135 0.002013
142 0.001996
149 0.001994
155 0.002992
162 0.002993
167 0.001982
171 0.002005
175 0.001995
180 0.004035
185 0.001032
170 0.003989
129 0.004036
91 0.000991
76 0.002001
67 0.002
63 0.003028
63 0.003031
73 0.002002
90 0.002015
104 0.002008
118 0.001991
125 0.002003
133 0.003027
140 0.00401
149 0.002002
155 0.001992
160 0.001031
165 0.004023
169 0.003026
174 0.00101
178 0.001992
182 0.001998
177 0.002002
140 0.002004
104 0.003958
84 0.003991
70 0.001982
66 0.002016
66 0.001995
72 0.004026
86 0.004021
104 0.001992
112 0.00198
120 0.001993
133 0.002004
140 0.002013
147 0.004023
153 0.00399
160 0.001986
164 0.001996
168 0.001998
171 0.00396
175 0.004009
181 0.001996
183 0.001996
173 0.002978
111 0.002965
88 0.002005
76 0.002145
72 0.004995
71 0.004982
79 0.001996
92 0.001962
103 0.002982
112 0.005022
119 0.004023
129 0.00201
135 0.002996
146 0.001985
152 0.001993
157 0.001995
161 0.00398
164 0.003948
169 0.002997
173 0.002027
176 0.002975
179 0.005019
171 0.005022
118 0.003015
88 0.00296
65 0.002997
60 0.002004
59 0.003025
63 0.004983
75 0.004021
95 0.00301
104 0.001995
112 0.002992
120 0.003963
127 0.004986
137 0.002997
144 0.002994
154 0.002998
158 0.002977
161 0.002984
165 0.005019
169 0.005018
174 0.002952
178 0.001946
169 0.003004
130 0.005984
92 0.005014
67 0.00299
57 0.003028
50 0.003005
52 0.002985
61 0.002993
78 0.005016
93 0.005018
106 0.003961
114 0.002991
122 0.002987
130 0.005987
137 0.005898
147 0.003989
153 0.003024
160 0.002993
164 0.002991
169 0.002996
174 0.00505
177 0.005017
175 0.002994
142 0.004004
103 0.003986
80 0.006021
67 0.006016
60 0.003992
59 0.006028
69 0.002993
85 0.002992
100 0.00299
110 0.004986
118 0.005948
128 0.003995
136 0.003991
143 0.003987
150 0.00598
156 0.005987
162 0.003992
168 0.00599
173 0.00399
177 0.003987
182 0.002994
183 0.005992
168 0.006023
116 0.004018
91 0.003981
78 0.003989
72 0.006035
70 0.006016
72 0.006017
92 0.006028
106 0.006018
117 0.003021
124 0.004958
131 0.003032
139 0.006986
145 0.006991
153 0.004013
159 0.002991
163 0.003989
167 0.005997
170 0.006016
176 0.006016
179 0.006025
182 0.003987
164 0.003992
123 0.005004
94 0.00698
79 0.007016
71 0.004994
70 0.004988
73 0.003979
83 0.006022
98 0.006017
113 0.006027
121 0.006018
131 0.003992
138 0.003984
145 0.004985
152 0.006984
157 0.006977
163 0.004029
167 0.005997
170 0.005002
173 0.006978
177 0.00698
182 0.006
171 0.005989
115 0.004999
86 0.004956
69 0.004985
60 0.006968
55 0.006982
55 0.004958
63 0.004987
78 0.005032
94 0.006017
104 0.006979
117 0.007959
125 0.007012
134 0.005991
142 0.004983
148 0.004972
154 0.006959
159 0.007012
164 0.004986
168 0.004983
172 0.004985
176 0.006982
179 0.006982
144 0.006973
92 0.007964
72 0.005947
61 0.00498
55 0.004993
53 0.007013
56 0.006974
72 0.004979
89 0.004997
102 0.004985
110 0.006987
118 0.006986
133 0.007956
137 0.007941
147 0.005985
153 0.005984
158 0.004983
162 0.007973
165 0.007011
171 0.004953
175 0.004973
179 0.004984
178 0.006985
148 0.006982
88 0.007978
67 0.007999
61 0.005984
58 0.005973
60 0.005982
68 0.007983
90 0.007966
102 0.005989
111 0.005983
119 0.00598
126 0.007975
139 0.005936
145 0.006976
154 0.007976
159 0.005981
163 0.005996
167 0.005991
170 0.007979
175 0.007976
179 0.007958
181 0.005991
165 0.00497
111 0.006975
80 0.004988
70 0.005954
65 0.006978
67 0.007944
75 0.005987
89 0.005957
102 0.005945
110 0.007978
117 0.007971
127 0.00598
134 0.005978
141 0.005988
152 0.00698
155 0.00698
160 0.007032
164 0.00698
167 0.005991
171 0.005986
175 0.00599
178 0.007964
160 0.007969
118 0.005983
79 0.006934
65 0.006973
56 0.006015
55 0.006975
62 0.007013
76 0.007014
92 0.005986
102 0.005953
109 0.005981
120 0.007004
128 0.007967
134 0.005985
141 0.00697
148 0.006939
157 0.00698
161 0.00595
164 0.007015
168 0.007014
172 0.006964
176 0.006974
171 0.006981
133 0.007012
93 0.007011
63 0.005985
52 0.00598
47 0.00698
45 0.006981
53 0.006975
69 0.006981
85 0.006924
97 0.006982
105 0.006981
114 0.006973
125 0.00698
132 0.005986
142 0.006003
149 0.005981
155 0.00595
161 0.005971
166 0.00598
170 0.006981
174 0.006981
178 0.006981
166 0.006981
139 0.006982
89 0.005981
70 0.005954
56 0.006016
52 0.005983
53 0.005982
67 0.00598
85 0.005981
99 0.006022
108 0.005973
119 0.006003
127 0.005987
133 0.006982
142 0.006984
150 0.006022
157 0.005961
162 0.005982
167 0.005983
173 0.005983
177 0.005984
180 0.005984
183 0.006022
157 0.005951
115 0.006025
88 0.005989
73 0.006009
66 0.006017
64 0.006019
67 0.005985
83 0.004987
103 0.004977
112 0.00498
120 0.005985
127 0.006028
135 0.006017
144 0.005984
150 0.006008
156 0.005982
161 0.00602
164 0.005015
168 0.005015
173 0.005041
177 0.005023
180 0.005029
176 0.004985
143 0.004995
103 0.005019
75 0.004954
65 0.004985
61 0.00499
61 0.004956
67 0.005984
86 0.005981
103 0.004981
113 0.005024
121 0.004983
129 0.004987
136 0.005017
143 0.005018
151 0.004951
156 0.004943
160 0.004975
164 0.005021
167 0.004951
171 0.004955
176 0.004986
178 0.00499
156 0.005021
111 0.005022
79 0.004986
61 0.004984
48 0.00495
44 0.005019
45 0.004983
52 0.004988
68 0.004988
89 0.004024
102 0.004986
112 0.00399
121 0.004027
128 0.004988
135 0.005023
142 0.005024
150 0.004987
155 0.005021
159 0.004934
163 0.005027
167 0.005024
172 0.00399
174 0.004025
138 0.004008
96 0.003958
71 0.00399
56 0.00399
49 0.00495
45 0.004984
49 0.004987
60 0.005033
78 0.004021
92 0.003956
105 0.003991
116 0.003934
127 0.003989
135 0.003989
142 0.003948
149 0.003989
154 0.003989
160 0.004987
164 0.004023
169 0.004978
173 0.003991
177 0.004039
178 0.00399
138 0.004027
91 0.003993
73 0.003948
64 0.00399
61 0.003989
62 0.004025
67 0.003996
87 0.004987
100 0.003048
109 0.003989
117 0.002992
125 0.003024
138 0.003991
145 0.004034
153 0.003989
158 0.004033
162 0.004041
165 0.00399
169 0.004024
174 0.004023
177 0.003031
180 0.002991
169 0.002992
130 0.003026
83 0.001961
70 0.003032
63 0.003991
63 0.003984
68 0.00402
81 0.003989
96 0.003989
109 0.002974
117 0.003026
125 0.002992
133 0.003026
144 0.002993
151 0.001991
156 0.00304
162 0.004023
166 0.003031
169 0.002992
173 0.002992
177 0.003007
181 0.003025
172 0.003026
132 0.002955
95 0.002987
64 0.002952
55 0.002954
50 0.002992
52 0.003024
61 0.003025
78 0.002025
92 0.002948
102 0.002993
113 0.003023
121 0.003029
130 0.002004
137 0.001995
148 0.002029
154 0.001994
158 0.002992
164 0.002992
168 0.002984
172 0.002992
176 0.002993
178 0.002991
148 0.002994
106 0.002993
79 0.001996
64 0.002008
52 0.002001
51 0.001003
55 0.002006
72 0.002992
90 0.002994
101 0.002992
109 0.003027
117 0.002043
127 0.002936
135 0.002956
142 0.002959
149 0.00295
157 0.001995
162 0.001995
165 0.001946
171 0.001995
175 0.001996
178 0.002031
175 0.001999
141 0.002044
92 0.002022
73 0.001005
62 0.002045
56 0.002045
58 0.002026
68 0.002042
84 0.001994
101 0.002027
109 0.002007
117 0.002036
124 0.002007
132 0.001994
141 0.002027
147 0.002027
153 0.001995
157 0.001977
163 0.000994
167 0.002021
170 0.000997
174 0.001029
176 0.001046
153 0.000998
112 0.002058
84 0.002056
70 0.002024
61 0.002009
61 0.002031
65 0.00199
87 0.000974
98 0.001022
105 0.001995
113 0.00099
123 0.001991
130 0.000997
137 0.000998
143 0.002041
148 0.001015
154 0.002028
158 0.002028
161 0.001989
167 0.0
171 0.0
174 0.001992
159 0.002005
104 0.002022
76 0.00196
62 0.00099
54 0.000997
50 0.001994
53 0.000967
62 0.000997
88 0.0
98 0.0
106 0.0
114 0.000997
122 0.000997
132 0.0
139 0.001
145 0.000998
150 0.000998
155 0.000997
160 0.000997
163 0.000982
170 0.000995
173 0.0
167 0.00104
129 0.0
90 0.0
62 0.0
51 0.001
45 0.0
43 0.0
46 0.0
63 0.0
81 0.000997
100 0.0
109 0.0
118 0.0
125 0.00101
133 0.000997
143 0.000998
150 0.000999
155 0.000998
159 0.0
164 0.0
169 0.0
173 0.0
178 0.0
157 0.0
115 0.0
84 0.0
67 0.000997
56 0.000998
53 0.000998
55 0.000998
63 0.000997
79 0.0
99 0.0
108 0.0
122 0.0
130 0.0
137 0.0
144 0.000944
151 0.0
158 0.0
162 0.0
167 0.0
171 0.0
174 0.0
180 0.0
183 0.0
146 0.0
106 0.0
82 0.0
69 0.0
63 0.0
62 0.0
67 0.0
80 0.000997
95 0.000998
106 0.000996
115 0.001007
126 0.003026
136 0.001011
145 0.001048
151 0.00104
159 0.0
163 0.0
167 0.0
170 0.002044
174 0.002032
178 0.0
182 0.0
184 0.0
165 0.002026
100 0.0
81 0.001001
72 0.002057
68 0.001004
71 0.0
80 0.0
95 0.002032
106 0.002027
116 0.00095
124 0.0
131 0.0
138 0.003051
148 0.000984
154 0.003027
159 0.002027
163 0.0
166 0.000994
170 0.000945
173 0.002036
177 0.00203
181 0.0
176 0.000939
140 0.0
100 0.001994
68 0.001016
60 0.002035
58 0.002026
62 0.0
73 0.0
88 0.001008
100 0.003026
109 0.003
119 0.0
126 0.0
134 0.0
145 0.0
151 0.00094
156 0.002026
160 0.002026
165 0.0
168 0.001013
171 0.000955
175 0.002047
178 0.002025
167 0.001009
124 0.0
87 0.000964
56 0.0
49 0.0
46 0.002027
47 0.002197
59 0.0
77 0.00095
92 0.0
102 0.002027
111 0.002003
121 0.001006
130 0.0
137 0.0
149 0.001003
154 0.000996
159 0.002994
162 0.002026
167 0.000963
171 0.001002
176 0.001011
179 0.002024
174 0.002016
122 0.0
88 0.0
69 0.001001
55 0.0
54 0.0
58 0.002985
68 0.003022
89 0.0
102 0.0
111 0.0
119 0.002027
127 0.002028
137 0.0
144 0.000949
151 0.0
160 0.000967
164 0.0
167 0.00095
171 0.003048
175 0.003034
180 0.0
183 0.0
173 0.0
133 0.001995
97 0.002042
74 0.0
65 0.0
64 0.000952
70 0.000964
83 0.000966
98 0.002993
108 0.003046
119 0.0
126 0.002021
134 0.002003
141 0.003026
147 0.003003
155 0.0
160 0.001983
166 0.003006
169 0.0
173 0.003013
176 0.003005
180 0.002994
182 0.003046
161 0.000964
119 0.001995
91 0.002991
77 0.003038
69 0.003015
70 0.002024
83 0.002994
97 0.002041
108 0.00199
115 0.003951
122 0.002991
132 0.001995
139 0.001992
145 0.00201
151 0.003027
156 0.003028
162 0.001962
166 0.002005
171 0.002988
175 0.0
178 0.002998
181 0.003997
173 0.002993
120 0.002003
91 0.002034
75 0.002
67 0.004027
64 0.004021
66 0.002991
78 0.003037
98 0.0
108 0.00199
116 0.002972
123 0.002993
132 0.002958
141 0.002011
148 0.003
154 0.003003
159 0.004009
164 0.004025
169 0.002016
174 0.004987
179 0.001994
183 0.001995
181 0.001994
150 0.003989
110 0.00298
80 0.002999
68 0.001995
61 0.001978
58 0.004027
59 0.003974
72 0.002993
93 0.004991
107 0.002003
116 0.002043
124 0.001991
132 0.005019
139 0.004034
149 0.002174
155 0.001991
160 0.001999
164 0.003987
168 0.004022
174 0.002005
180 0.005035
183 0.002936
166 0.001991
126 0.002038
97 0.004033
80 0.004987
71 0.004008
65 0.002038
65 0.002002
72 0.001999
86 0.004029
101 0.004032
115 0.005023
123 0.005
134 0.00299
141 0.003021
148 0.002989
154 0.004986
160 0.005
165 0.00196
170 0.001992
174 0.002989
178 0.004985
181 0.005028
183 0.005995
156 0.005017
109 0.001995
90 0.003014
80 0.002992
75 0.004987
73 0.005021
79 0.003007
91 0.003009
105 0.002993
115 0.005043
122 0.005019
135 0.005023
142 0.005997
150 0.003003
156 0.001998
161 0.002938
165 0.005021
168 0.005016
173 0.002989
177 0.002963
181 0.002998
184 0.005029
182 0.004996
127 0.005986
101 0.005983
83 0.002968
79 0.003994
78 0.001995
81 0.004984
90 0.006027
109 0.002993
117 0.002991
123 0.00296
130 0.006016
137 0.005025
148 0.005016
153 0.006016
160 0.003958
164 0.002992
167 0.003011
170 0.004987
174 0.005019
179 0.002992
181 0.003001
178 0.003986
146 0.006018
109 0.005984
77 0.007014
69 0.007035
64 0.003982
65 0.003987
73 0.003989
87 0.004973
101 0.004987
112 0.003032
119 0.003988
126 0.003986
134 0.005984
144 0.003963
150 0.006996
155 0.007015
160 0.004983
164 0.003951
167 0.003989
171 0.005984
175 0.007023
177 0.003989
157 0.004014
116 0.005003
86 0.00602
61 0.004988
54 0.007021
51 0.007018
54 0.004053
64 0.004008
81 0.004026
95 0.005984
104 0.006017
114 0.003991
122 0.003967
130 0.00399
137 0.003981
147 0.004985
152 0.004993
157 0.00698
161 0.007028
166 0.004993
170 0.004987
174 0.003
173 0.007033
145 0.007012
97 0.003988
76 0.003994
65 0.00399
57 0.004953
58 0.004985
64 0.007012
79 0.007019
99 0.004955
108 0.00499
116 0.004999
124 0.007015
131 0.00701
141 0.003969
147 0.004991
154 0.00399
162 0.004993
166 0.004991
171 0.007965
173 0.00801
179 0.004955
181 0.004956
164 0.00499
125 0.007031
96 0.00701
77 0.004981
70 0.004988
68 0.003992
75 0.004954
88 0.004999
102 0.007015
112 0.007978
122 0.004962
130 0.004999
136 0.004954
144 0.007022
150 0.006978
157 0.004982
161 0.00499
166 0.00498
171 0.004994
174 0.00502
179 0.007964
180 0.006981
164 0.00493
124 0.005021
96 0.005031
82 0.007968
74 0.00797
72 0.004998
75 0.004987
84 0.004989
106 0.005995
114 0.005986
122 0.007977
131 0.007984
138 0.005952
144 0.005986
151 0.006015
156 0.007957
162 0.007975
166 0.004989
169 0.004984
173 0.004987
179 0.00595
181 0.005981
155 0.006976
115 0.008021
88 0.005943
73 0.005993
65 0.005986
61 0.007979
61 0.007969
71 0.004987
86 0.005983
107 0.005951
114 0.006017
122 0.005987
132 0.006988
137 0.007979
148 0.005967
152 0.005954
157 0.00599
161 0.007939
165 0.007974
170 0.005986
174 0.005986
180 0.007004
165 0.006973
138 0.005955
102 0.006028
75 0.006983
65 0.006973
58 0.005978
58 0.005981
60 0.005946
76 0.00795
93 0.007976
106 0.005985
120 0.006999
130 0.00698
137 0.006944
145 0.006936
152 0.007012
158 0.006972
162 0.006985
168 0.006979
170 0.005985
175 0.00698
179 0.006989
183 0.005987
158 0.005996
108 0.005983
93 0.006963
78 0.006978
69 0.007021
67 0.005995
70 0.006013
81 0.006853
92 0.006982
110 0.006982
118 0.006986
126 0.005998
139 0.005988
148 0.006013
154 0.005973
160 0.005962
165 0.006023
168 0.00701
172 0.006948
175 0.006973
179 0.005973
184 0.007013
185 0.006959
151 0.006981
106 0.005977
83 0.005986
76 0.005994
73 0.00598
74 0.004983
80 0.006018
100 0.004996
109 0.006978
118 0.006971
128 0.007034
135 0.006985
144 0.006977
153 0.005987
160 0.005983
165 0.00598
168 0.005941
171 0.006019
174 0.006021
179 0.004994
182 0.006022
185 0.005987
177 0.006029
139 0.006
105 0.006973
79 0.005997
73 0.006003
74 0.005981
78 0.005982
91 0.005989
105 0.005955
115 0.004949
122 0.005994
130 0.005977
136 0.00598
142 0.006017
151 0.005996
158 0.006026
163 0.004986
166 0.004983
169 0.004974
173 0.005001
176 0.004962
180 0.005984
175 0.005977
139 0.006
102 0.006032
78 0.006015
63 0.005972
57 0.004985
57 0.004965
66 0.005976
81 0.004989
96 0.005018
104 0.005017
112 0.004971
122 0.004981
129 0.004987
136 0.004991
143 0.005984
152 0.004987
156 0.004987
159 0.004973
164 0.004942
168 0.004964
171 0.004994
174 0.004987
170 0.004023
120 0.004953
85 0.004997
65 0.005981
54 0.006016
46 0.005001
47 0.003969
53 0.004953
75 0.005
90 0.004946
100 0.004948
108 0.004937
116 0.004987
126 0.005029
134 0.004987
141 0.004956
148 0.005018
156 0.003959
160 0.003998
163 0.003984
169 0.003998
173 0.004015
175 0.004024
167 0.005029
129 0.003034
84 0.005003
68 0.004988
59 0.004955
55 0.004987
57 0.003954
68 0.003958
85 0.003977
102 0.004022
110 0.003954
119 0.003941
127 0.003993
134 0.002968
144 0.003989
150 0.00296
156 0.004045
161 0.004988
167 0.00399
170 0.004999
175 0.003944
179 0.003983
181 0.003974
166 0.002975
126 0.00399
95 0.00402
75 0.004038
68 0.00399
66 0.004991
67 0.002995
86 0.002991
101 0.002992
112 0.003994
122 0.00403
130 0.004021
137 0.003947
144 0.002994
150 0.004025
158 0.003958
163 0.003942
166 0.004032
169 0.00399
174 0.005053
178 0.004024
181 0.002997
182 0.002963
160 0.003017
119 0.003045
92 0.00299
78 0.003007
71 0.002993
71 0.004003
76 0.00399
87 0.003951
109 0.003004
117 0.002984
124 0.002989
131 0.003991
141 0.00299
147 0.002997
152 0.002991
158 0.002993
163 0.002991
167 0.003028
170 0.002989
174 0.003024
179 0.001989
182 0.00301
180 0.002963
150 0.002974
98 0.002037
76 0.00292
64 0.002937
59 0.002944
56 0.004019
61 0.003028
73 0.00402
99 0.002992
108 0.002995
116 0.002946
124 0.001967
131 0.00305
140 0.002992
147 0.002029
154 0.002031
159 0.002984
162 0.004026
167 0.002027
170 0.003028
177 0.002993
179 0.002959
178 0.003025
147 0.002994
106 0.001996
75 0.001996
64 0.003049
58 0.002001
57 0.002992
59 0.002993
74 0.002022
91 0.002025
109 0.003001
117 0.001946
125 0.001984
133 0.002017
140 0.001963
149 0.001991
155 0.00202
160 0.001992
164 0.002993
167 0.003031
172 0.002992
175 0.003023
181 0.002025
181 0.002046
154 0.001986
113 0.001995
87 0.002009
70 0.001994
64 0.001951
62 0.001993
65 0.00198
75 0.001987
96 0.002992
107 0.001963
120 0.001994
128 0.001993
135 0.002033
142 0.002028
148 0.002006
156 0.001998
160 0.001995
164 0.002046
167 0.002012
171 0.001994
175 0.002993
179 0.002033
181 0.002022
158 0.000978
117 0.002031
90 0.001997
77 0.002017
69 0.001996
69 0.002994
73 0.001065
84 0.000997
98 0.001998
111 0.000996
119 0.001031
131 0.001996
137 0.001952
143 0.001014
149 0.00103
155 0.000993
160 0.000977
163 0.001028
166 0.001015
169 0.001009
172 0.001995
175 0.001994
178 0.001995
159 0.002047
106 0.001028
82 0.0
69 0.0
64 0.0
62 0.0
68 0.0
80 0.0
94 0.0
104 0.001055
111 0.000987
122 0.001994
131 0.001032
140 0.000982
146 0.001015
151 0.001014
156 0.0
159 0.000998
163 0.0
166 0.0
169 0.0
173 0.001991
175 0.0
158 0.001962
102 0.000993
68 0.001015
55 0.00103
48 0.001038
45 0.0
46 0.0
59 0.0
76 0.0
90 0.0
99 0.000997
107 0.000998
120 0.0
127 0.001038
137 0.001009
143 0.001029
148 0.0
153 0.0
157 0.0
161 0.000997
165 0.0
169 0.000997
172 0.000998
166 0.000998
102 0.0
73 0.0
55 0.0
48 0.000993
46 0.0
48 0.0
57 0.000998
78 0.0
91 0.0
101 0.0
109 0.000997
117 0.001002
129 0.0
136 0.0
145 0.00103
149 0.0
154 0.0
157 0.0
161 0.0
166 0.0
170 0.0
173 0.0
169 0.0
135 0.0
78 0.0
63 0.0
54 0.0
52 0.001955
55 0.001015
65 0.001025
81 0.0
97 0.0
106 0.000989
114 0.001032
124 0.0
129 0.0
140 0.001027
147 0.000997
153 0.000963
157 0.000999
160 0.001009
164 0.001986
166 0.001995
172 0.0
175 0.003023
166 0.000988
141 0.0
91 0.000953
69 0.001033
60 0.000948
60 0.001989
64 0.000998
75 0.002036
93 0.000995
100 0.000998
111 0.000995
118 0.003045
125 0.003014
134 0.0
140 0.0
149 0.0
153 0.000997
157 0.001989
160 0.00297
163 0.003026
168 0.0
171 0.000993
173 0.0
160 0.003023
118 0.003032
75 0.0
59 0.0
48 0.000981
47 0.001019
51 0.000948
63 0.003024
80 0.002026
95 0.000999
103 0.001019
110 0.000966
118 0.00202
126 0.002042
134 0.0
141 0.000966
149 0.0
153 0.0
157 0.0
160 0.002993
164 0.003032
169 0.0
171 0.0
155 0.0
111 0.00399
77 0.002041
51 0.0
42 0.00103
35 0.0
38 0.0
48 0.0
65 0.003049
81 0.002029
94 0.0
103 0.000984
112 0.000967
120 0.003992
128 0.003039
137 0.000966
145 0.003046
152 0.0
155 0.0
159 0.000969
164 0.002032
168 0.002993
172 0.0
159 0.0
118 0.001
83 0.003037
62 0.002995
49 0.0
43 0.001992
47 0.000998
58 0.0
75 0.0
90 0.003035
99 0.003028
110 0.0
119 0.0
126 0.000951
133 0.003027
140 0.003024
148 0.000954
154 0.00203
159 0.0
163 0.000969
167 0.000956
171 0.002034
175 0.003031
165 0.0
126 0.0
90 0.0
69 0.001002
59 0.003027
54 0.003046
56 0.003032
66 0.003022
87 0.000955
99 0.001007
106 0.000948
114 0.003046
122 0.002054
132 0.0
138 0.001013
144 0.0
150 0.00296
153 0.002993
159 0.002992
162 0.002993
166 0.0
170 0.001016
172 0.0
163 0.003042
124 0.003991
80 0.0
64 0.0
56 0.0
53 0.003989
54 0.003029
70 0.002994
86 0.002994
99 0.0
107 0.002994
115 0.0
123 0.004002
131 0.003989
139 0.0
145 0.0
151 0.0
154 0.003025
158 0.003026
164 0.004052
167 0.003001
172 0.002009
173 0.000953
153 0.0
108 0.003991
76 0.003989
52 0.0
44 0.002988
39 0.00399
39 0.004024
45 0.00399
72 0.004027
86 0.005006
97 0.002955
106 0.003008
114 0.00204
122 0.002971
129 0.003981
139 0.002043
144 0.003025
149 0.002971
153 0.004005
156 0.004003
163 0.003987
167 0.004034
170 0.002039
153 0.001992
109 0.002003
76 0.004047
57 0.00399
44 0.003011
40 0.003008
39 0.002045
46 0.005023
73 0.002975
86 0.004989
96 0.004978
107 0.002991
115 0.000985
123 0.002993
130 0.004028
137 0.004028
145 0.002988
149 0.003027
153 0.00202
157 0.004023
164 0.00199
168 0.005035
171 0.004989
146 0.002033
103 0.002977
75 0.001991
59 0.003993
50 0.00399
46 0.001997
50 0.003002
60 0.003948
76 0.003036
96 0.002991
105 0.002042
113 0.005032
121 0.005036
131 0.002006
138 0.002993
144 0.003008
150 0.005986
154 0.005986
158 0.002992
162 0.003007
166 0.002988
172 0.003024
174 0.002988
158 0.006049
117 0.005023
78 0.002994
65 0.003006
58 0.002029
57 0.004988
60 0.00502
75 0.002996
89 0.002973
99 0.003052
112 0.002025
121 0.002987
128 0.004986
136 0.005987
144 0.001993
149 0.002984
154 0.003
158 0.006033
161 0.005984
166 0.003007
169 0.002018
173 0.002031
172 0.003041
141 0.003997
99 0.006039
73 0.005941
56 0.003038
50 0.002983
48 0.002994
51 0.006027
62 0.006982
83 0.00301
95 0.002976
104 0.002985
117 0.002974
124 0.002975
132 0.005977
139 0.006031
147 0.002028
152 0.002993
156 0.002997
160 0.005985
164 0.006017
169 0.002947
173 0.002996
175 0.00299
131 0.00297
90 0.002991
67 0.007022
53 0.006018
45 0.002958
42 0.003958
46 0.002987
57 0.005987
75 0.007027
93 0.002993
102 0.00301
111 0.002985
124 0.002968
132 0.002975
139 0.007026
145 0.006978
152 0.004
156 0.003981
160 0.002993
164 0.006016
169 0.005988
173 0.00295
174 0.004983
150 0.003958
85 0.002938
66 0.002994
55 0.007019
50 0.005951
50 0.004034
56 0.003957
71 0.003998
87 0.006983
101 0.007979
110 0.00396
118 0.00494
131 0.003002
137 0.003959
144 0.004033
150 0.006984
155 0.00699
158 0.006984
163 0.003981
167 0.00397
171 0.003985
174 0.007989
169 0.00799
132 0.004972
79 0.007971
66 0.004986
59 0.004932
58 0.004941
61 0.00798
71 0.006979
92 0.004996
102 0.004959
109 0.004991
117 0.007991
127 0.007973
134 0.004005
143 0.006982
149 0.003945
154 0.003966
157 0.004971
162 0.007963
166 0.007975
169 0.003956
172 0.004975
173 0.00399
134 0.007971
106 0.007015
70 0.004952
55 0.006955
49 0.005021
50 0.004012
56 0.004963
71 0.007972
90 0.007991
100 0.004988
108 0.004982
116 0.004993
126 0.006969
134 0.006975
141 0.005027
148 0.006978
155 0.005987
158 0.005036
162 0.005017
166 0.007979
170 0.007945
174 0.004984
165 0.004954
123 0.004994
85 0.007992
56 0.006988
46 0.004983
38 0.00797
39 0.005984
47 0.004963
64 0.004977
86 0.007996
93 0.007964
104 0.004954
113 0.00698
121 0.005983
132 0.006981
139 0.006845
146 0.005981
152 0.007972
158 0.005984
163 0.005981
167 0.005988
172 0.007014
175 0.007016
156 0.004987
113 0.004989
81 0.00599
60 0.006978
51 0.006973
47 0.004957
51 0.007975
63 0.005042
81 0.005983
95 0.005959
107 0.007008
116 0.006972
124 0.005989
134 0.005992
142 0.005997
149 0.005983
155 0.005982
158 0.007952
166 0.006995
171 0.006988
175 0.006982
179 0.00597
181 0.00499
153 0.006977
112 0.005968
85 0.005975
70 0.00595
61 0.005974
58 0.005984
64 0.006009
83 0.006983
98 0.005999
108 0.005949
118 0.006016
125 0.005983
136 0.007011
143 0.006988
150 0.00598
159 0.006
163 0.00602
168 0.005977
173 0.005975
178 0.006953
182 0.005947
186 0.006037
184 0.005987
165 0.005981
113 0.006025
89 0.007019
74 0.005986
70 0.005986
70 0.005973
76 0.00597
94 0.005983
110 0.007003
119 0.005983
129 0.005957
137 0.005994
144 0.005983
150 0.006019
156 0.00602
163 0.005975
167 0.004992
171 0.005019
174 0.004955
178 0.006016
183 0.007022
185 0.006013
171 0.005986
129 0.005985
95 0.006015
76 0.006019
66 0.006021
60 0.004953
61 0.005972
68 0.00497
83 0.004988
106 0.005985
114 0.006024
122 0.004964
132 0.004987
139 0.004991
146 0.004958
153 0.004986
159 0.006016
165 0.005987
168 0.005978
172 0.005984
175 0.004986
181 0.005988
184 0.006016
177 0.004981
123 0.005986
88 0.005984
68 0.00498
57 0.005007
50 0.005005
48 0.005009
54 0.004967
66 0.004978
84 0.005019
104 0.006001
113 0.005984
121 0.004989
132 0.004987
139 0.004987
147 0.005981
153 0.004991
158 0.004939
164 0.00503
168 0.00499
171 0.003993
175 0.003979
182 0.004953
179 0.004954
145 0.003957
104 0.00399
78 0.004987
61 0.004994
55 0.004994
53 0.005028
56 0.004985
72 0.004021
90 0.003943
103 0.00502
117 0.004995
125 0.005044
133 0.005024
140 0.00404
150 0.003973
156 0.003994
161 0.003997
166 0.003949
170 0.005026
174 0.004029
178 0.003942
182 0.004987
183 0.004989
157 0.004962
113 0.004997
86 0.005028
67 0.004973
61 0.004035
59 0.003959
63 0.003967
74 0.00399
95 0.003991
107 0.004045
121 0.003994
129 0.003992
137 0.003985
144 0.003981
150 0.003993
158 0.003998
163 0.004017
167 0.003949
171 0.00396
174 0.005019
179 0.004985
182 0.003993
184 0.005011
157 0.004986
115 0.004977
88 0.00399
74 0.00306
66 0.004003
66 0.002991
71 0.003994
84 0.00399
99 0.002992
113 0.002986
120 0.003987
133 0.004983
140 0.003996
147 0.004946
153 0.004987
159 0.004014
165 0.003986
168 0.003982
171 0.003955
174 0.002993
178 0.00294
183 0.002963
184 0.002962
135 0.003981
96 0.004007
73 0.004987
61 0.004997
54 0.003947
53 0.003959
58 0.002985
71 0.003954
87 0.002979
99 0.002957
110 0.002996
118 0.002955
131 0.003972
138 0.003997
146 0.003986
152 0.004026
157 0.002984
163 0.002948
166 0.003005
169 0.003027
173 0.002993
178 0.00205
179 0.004038
157 0.002964
88 0.002993
66 0.003991
53 0.004024
46 0.00399
43 0.00295
46 0.002959
60 0.002991
78 0.002965
93 0.002935
103 0.002013
111 0.002004
123 0.001963
133 0.002992
143 0.003025
149 0.002978
155 0.002989
160 0.002974
164 0.002964
169 0.002963
174 0.003008
178 0.002036
181 0.003024
168 0.001992
114 0.001998
78 0.003002
62 0.004033
56 0.002026
56 0.002941
61 0.003026
73 0.002991
95 0.002989
107 0.001988
115 0.001983
123 0.002002
132 0.001995
142 0.002029
152 0.002031
160 0.002032
165 0.002024
169 0.003007
173 0.001987
176 0.002003
182 0.001989
186 0.003021
187 0.002033
163 0.00304
122 0.001959
83 0.002992
74 0.001995
70 0.001982
73 0.002042
82 0.002027
97 0.001982
109 0.001995
120 0.002978
128 0.001964
135 0.001963
142 0.003015
148 0.002027
158 0.002037
163 0.002025
168 0.002994
172 0.001986
174 0.002036
178 0.003036
182 0.000999
185 0.000997
169 0.001057
127 0.000998
94 0.000996
75 0.001995
61 0.002025
60 0.002992
66 0.002027
79 0.00199
