58 0.024934
60 0.006982
68 0.005984
77 0.006979
88 0.007013
95 0.007015
103 0.00698
104 0.006981
109 0.006981
118 0.006548
125 0.006986
130 0.007012
136 0.006944
143 0.006981
147 0.006935
149 0.006973
151 0.00701
133 0.006977
64 0.006015
44 0.006014
40 0.006022
42 0.006981
44 0.007015
52 0.00698
58 0.00698
68 0.007011
76 0.007088
83 0.006947
89 0.006978
94 0.007013
99 0.006041
107 0.00599
113 0.006972
119 0.006936
126 0.006987
134 0.006984
139 0.006982
146 0.00693
148 0.006991
149 0.00698
114 0.006979
59 0.006978
36 0.006944
34 0.006025
39 0.007005
44 0.007023
49 0.007978
51 0.006981
55 0.006982
69 0.007018
74 0.007008
82 0.00697
86 0.007021
91 0.007951
100 0.006998
105 0.006034
108 0.005971
114 0.00698
120 0.006981
124 0.007979
131 0.007969
135 0.007979
138 0.006981
143 0.006981
147 0.006981
145 0.007979
115 0.007023
45 0.006944
31 0.00698
33 0.007979
37 0.007979
40 0.007016
45 0.007979
59 0.007978
66 0.006976
72 0.006982
81 0.007978
83 0.007978
87 0.006981
92 0.006982
97 0.006981
105 0.007929
111 0.007948
122 0.006949
129 0.006948
137 0.00701
142 0.007029
145 0.007031
147 0.008002
150 0.007978
144 0.00799
113 0.00698
61 0.006984
39 0.007979
36 0.007979
40 0.007019
44 0.00704
54 0.006981
60 0.00705
65 0.007979
70 0.007978
76 0.007979
83 0.007982
86 0.007965
94 0.006934
100 0.006981
110 0.006982
116 0.007033
121 0.00698
124 0.006975
132 0.006949
140 0.007945
146 0.007976
150 0.007951
152 0.007942
144 0.00794
96 0.007977
46 0.007012
38 0.007979
40 0.006988
47 0.007034
52 0.006986
59 0.006981
66 0.006981
72 0.007012
76 0.006981
78 0.007015
80 0.007005
81 0.007979
87 0.00602
94 0.007929
101 0.007979
117 0.007936
123 0.007022
133 0.007017
140 0.006981
144 0.007023
150 0.006981
153 0.007024
156 0.007079
157 0.00694
153 0.007018
109 0.005994
57 0.007979
35 0.007969
38 0.007022
44 0.007013
46 0.006992
48 0.006974
50 0.007027
56 0.006999
64 0.006973
67 0.006993
69 0.007015
76 0.007014
83 0.006989
95 0.007022
100 0.006987
108 0.006979
114 0.007016
120 0.007025
127 0.006978
132 0.006982
142 0.007016
146 0.006979
149 0.006982
150 0.006981
149 0.006034
154 0.005979
158 0.007012
138 0.007018
77 0.007025
43 0.007004
36 0.007022
38 0.006015
43 0.006976
45 0.006981
47 0.006017
56 0.006003
64 0.005999
75 0.005974
78 0.005941
84 0.005953
89 0.006026
93 0.006982
100 0.006981
107 0.00698
113 0.006988
120 0.006999
127 0.007016
131 0.007013
135 0.007011
141 0.006939
142 0.006989
145 0.005972
147 0.005984
150 0.005983
156 0.006003
153 0.005996
96 0.005984
53 0.006014
39 0.005996
39 0.006974
42 0.006981
48 0.00698
55 0.006026
64 0.006038
69 0.005984
73 0.005994
78 0.005984
82 0.005984
90 0.005974
95 0.006025
101 0.006043
107 0.005984
113 0.006024
123 0.005952
127 0.006023
133 0.006002
136 0.006993
139 0.006034
140 0.006018
143 0.006014
147 0.005981
147 0.005992
117 0.006015
63 0.006018
39 0.00602
37 0.006029
40 0.005997
42 0.006021
49 0.004986
55 0.004987
61 0.00598
66 0.005985
70 0.006034
73 0.006018
78 0.005986
83 0.005984
92 0.00595
99 0.005979
105 0.00598
113 0.00598
120 0.004977
125 0.00503
129 0.006021
133 0.006026
140 0.00598
145 0.006018
148 0.006018
131 0.005984
49 0.005984
33 0.005938
33 0.005984
38 0.006018
42 0.005019
44 0.005019
48 0.004996
54 0.00599
59 0.006019
64 0.006036
67 0.006017
71 0.005937
78 0.005972
83 0.00597
88 0.005944
95 0.00594
104 0.004982
110 0.004987
117 0.005985
123 0.00503
128 0.004984
135 0.004985
139 0.005021
144 0.005022
149 0.005017
152 0.004984
155 0.00598
157 0.005968
158 0.010971
155 0.000994
93 0.004018
32 0.005036
34 0.005027
35 0.004986
37 0.00498
40 0.005016
43 0.00502
48 0.005987
53 0.005965
58 0.005974
62 0.004985
65 0.005022
70 0.005028
77 0.004986
82 0.004997
90 0.004986
101 0.005013
108 0.005027
113 0.004992
119 0.005012
126 0.004987
130 0.004989
133 0.004987
137 0.004979
141 0.005974
145 0.004992
148 0.005041
151 0.005027
154 0.004986
158 0.005023
156 0.004982
128 0.004996
57 0.004979
38 0.004956
35 0.004987
38 0.004995
41 0.005707
44 0.005028
45 0.004995
49 0.00494
59 0.004993
61 0.005035
63 0.005027
66 0.004986
72 0.004992
75 0.005036
79 0.005044
85 0.003989
90 0.005031
96 0.004009
102 0.004027
107 0.004025
117 0.00399
121 0.005041
125 0.004892
130 0.004983
135 0.00502
139 0.00502
142 0.00499
145 0.004981
147 0.004004
154 0.004022
154 0.003994
102 0.00399
61 0.004029
48 0.004984
48 0.004994
51 0.004986
53 0.005019
56 0.004997
61 0.00503
66 0.004026
69 0.004022
74 0.004039
77 0.004032
81 0.004032
85 0.004027
90 0.004036
96 0.004979
100 0.004992
107 0.004987
112 0.00402
115 0.004023
119 0.004032
122 0.003981
128 0.00402
130 0.00399
135 0.004031
137 0.00399
139 0.004033
141 0.004035
142 0.003971
140 0.005042
112 0.004027
70 0.003982
51 0.003957
49 0.004029
53 0.004035
56 0.003993
59 0.004025
64 0.004008
69 0.003997
73 0.003999
75 0.003987
80 0.003989
84 0.003976
86 0.003989
88 0.004032
90 0.004
94 0.004001
100 0.004026
107 0.003998
111 0.004039
114 0.004031
117 0.003037
121 0.003993
124 0.00303
128 0.003035
131 0.002993
135 0.004054
139 0.004029
144 0.003989
148 0.00402
149 0.00403
118 0.003991
75 0.003989
54 0.004025
48 0.002992
49 0.003036
50 0.003026
50 0.002993
52 0.004024
54 0.003027
58 0.002993
63 0.004038
65 0.004016
71 0.003991
74 0.003026
78 0.004022
82 0.004038
86 0.003958
91 0.004024
96 0.003986
99 0.004019
102 0.003945
105 0.004038
111 0.003035
116 0.003031
120 0.002993
124 0.003042
126 0.012965
129 0.0
130 0.00094
134 0.002003
134 0.004034
104 0.00399
54 0.002992
41 0.003032
43 0.002962
46 0.002994
45 0.002992
44 0.003048
48 0.002963
55 0.002948
58 0.002948
60 0.002993
63 0.002954
67 0.00302
69 0.00399
74 0.002983
79 0.003002
84 0.002721
88 0.003033
90 0.002992
94 0.002994
99 0.004026
104 0.002962
108 0.002995
112 0.003024
115 0.002993
121 0.002992
122 0.002994
125 0.002994
127 0.002958
130 0.002994
134 0.002994
131 0.002994
82 0.002966
51 0.002989
41 0.002028
41 0.002996
43 0.003024
46 0.002029
48 0.002961
53 0.002963
57 0.002997
62 0.003009
64 0.003005
67 0.002952
68 0.002955
72 0.002992
74 0.002992
79 0.002952
84 0.003026
91 0.00198
84 0.002027
91 0.002993
94 0.001998
98 0.002994
104 0.002993
105 0.003026
109 0.003027
113 0.002952
117 0.003029
121 0.002992
113 0.002028
39 0.001995
17 0.003022
13 0.002994
16 0.001994
18 0.002994
19 0.001995
19 0.001996
25 0.002992
32 0.00295
35 0.003047
36 0.002992
40 0.001928
45 0.001995
50 0.002028
55 0.001994
61 0.002028
66 0.001956
71 0.00205
75 0.002047
81 0.002029
85 0.001957
89 0.000997
93 0.003042
98 0.003028
102 0.002026
106 0.002028
112 0.001995
119 0.00199
124 0.001996
116 0.001995
73 0.001995
18 0.001994
1 0.001957
0 0.001994
4 0.002029
3 0.001951
1 0.001998
3 0.001968
11 0.001994
16 0.001995
18 0.002042
19 0.001954
22 0.002001
30 0.001995
36 0.001964
42 0.002004
47 0.001962
52 0.000974
62 0.001995
65 0.002078
73 0.001995
76 0.001962
79 0.001981
82 0.002025
87 0.001994
90 0.001991
96 0.001995
99 0.001995
103 0.001995
105 0.001995
110 0.000998
115 0.002049
113 0.000998
54 0.000998
13 0.000998
64 0.000997
63 0.001003
63 0.000998
63 0.001952
62 0.001997
63 0.002028
66 0.001993
70 0.001995
73 0.002011
73 0.001995
76 0.000997
78 0.000998
80 0.000997
82 0.000998
83 0.000997
88 0.001996
90 0.000996
93 0.001985
99 0.002033
100 0.001998
102 0.001997
105 0.000998
106 0.0
111 0.00901
115 0.0
108 0.000997
84 0.000966
66 0.001001
66 0.000997
66 0.001953
67 0.000997
68 0.000997
69 0.000997
72 0.000998
75 0.001004
77 0.000999
79 0.001038
82 0.000997
84 0.001024
88 0.000998
91 0.001
93 0.000997
95 0.002038
99 0.002022
101 0.000961
103 0.0
106 0.000999
108 0.000996
110 0.000997
113 0.000997
115 0.000997
119 0.000998
117 0.001
98 0.000997
78 0.000987
66 0.000991
66 0.000997
68 0.000998
68 0.000945
67 0.000998
0 0.000997
6 0.0
11 0.0
20 0.0
24 0.0
29 0.000997
36 0.000998
45 0.001028
51 0.000997
57 0.000997
61 0.000997
67 0.000997
75 0.000961
78 0.000997
83 0.000957
93 0.0
99 0.0
105 0.0
108 0.0
115 0.0
121 0.0
127 0.0
130 0.0
105 0.0
38 0.001001
14 0.000997
10 0.0
12 0.000997
12 0.001
11 0.0
13 0.0
21 0.0
27 0.0
30 0.0
34 0.0
38 0.0
43 0.0
47 0.0
52 0.0
60 0.001003
68 0.000997
71 0.0
75 0.0
83 0.0
88 0.0
94 0.0
102 0.0
107 0.0
114 0.0
119 0.0
125 0.0
132 0.0
137 0.0
141 0.0
146 0.0
117 0.0
61 0.0
26 0.0
17 0.0
16 0.0
15 0.0
16 0.0
20 0.001005
25 0.000997
32 0.0
37 0.0
38 0.0
43 0.0
48 0.0
55 0.0
59 0.0
65 0.0
71 0.0
76 0.001006
87 0.000997
93 0.000997
98 0.000959
107 0.0
111 0.0
116 0.0
124 0.0
131 0.001001
137 0.0
142 0.0
151 0.000962
153 0.000998
88 0.0
44 0.000998
28 0.000997
29 0.0
33 0.0
34 0.0
36 0.000999
38 0.000997
47 0.0
52 0.000949
54 0.000992
59 0.0
63 0.0
67 0.000999
74 0.0
82 0.0
89 0.0
95 0.0
104 0.000966
112 0.000998
120 0.0
124 0.0
129 0.0
134 0.001032
142 0.0
149 0.000997
158 0.000965
140 0.0
88 0.0
52 0.0
39 0.000993
40 0.00096
45 0.000967
47 0.0
46 0.0
51 0.001005
60 0.0
67 0.001036
69 0.000983
76 0.0
78 0.016955
80 0.000997
82 0.006997
88 0.0
115 0.0
121 0.001963
133 0.001
139 0.000986
144 0.000992
151 0.0
156 0.0
161 0.0
166 0.000997
171 0.000999
173 0.00097
135 0.0
78 0.000994
51 0.00102
45 0.001
48 0.002026
48 0.001964
49 0.001004
51 0.000983
55 0.000957
61 0.000957
67 0.000974
71 0.0
76 0.000955
83 0.001042
88 0.000993
96 0.0
100 0.001993
105 0.002017
114 0.000998
119 0.000963
125 0.000998
133 0.001956
137 0.000997
144 0.000996
149 0.000997
157 0.0
162 0.001029
169 0.0
172 0.000997
177 0.000964
159 0.001004
99 0.000995
61 0.00103
47 0.001998
46 0.002027
46 0.001004
47 0.000995
49 0.000963
55 0.000997
61 0.0
66 0.000998
70 0.001982
74 0.000979
78 0.000956
84 0.00101
89 0.001989
94 0.001966
103 0.001
109 0.001028
114 0.000985
125 0.001031
132 0.000998
139 0.002029
144 0.001989
150 0.000982
157 0.000997
162 0.001041
166 0.001995
167 0.001959
127 0.002025
66 0.001001
50 0.000962
49 0.001054
55 0.000984
58 0.001999
61 0.001956
69 0.000993
74 0.002033
77 0.001987
80 0.001995
83 0.001995
89 0.000957
94 0.000945
100 0.00101
112 0.000995
118 0.001006
125 0.001993
129 0.001995
137 0.000998
142 0.002023
146 0.001998
151 0.002989
156 0.002995
161 0.002051
148 0.001996
87 0.000952
51 0.001009
50 0.001026
53 0.001034
57 0.002991
58 0.003001
62 0.001986
67 0.001961
72 0.001983
75 0.002999
77 0.002994
81 0.002005
88 0.001015
95 0.001019
97 0.00099
103 0.001012
111 0.002988
117 0.003011
123 0.001996
126 0.001984
130 0.002
136 0.002999
142 0.003018
149 0.001997
139 0.001994
82 0.00203
46 0.001043
42 0.000993
44 0.002992
47 0.002993
45 0.001995
47 0.00199
52 0.002032
57 0.002995
61 0.002992
65 0.002017
65 0.002004
70 0.002026
72 0.002036
77 0.002016
82 0.00299
88 0.002992
100 0.000983
106 0.001954
110 0.002022
115 0.002991
120 0.002991
122 0.001993
125 0.001994
95 0.001991
59 0.002035
38 0.002029
30 0.002992
28 0.0
30 0.0
28 0.00298
32 0.002991
39 0.002993
45 0.001994
49 0.00303
53 0.002029
58 0.001993
63 0.002042
66 0.002989
73 0.002998
80 0.001991
85 0.00303
90 0.001882
94 0.003995
99 0.003989
106 0.002036
113 0.003023
118 0.002024
93 0.00203
55 0.002027
35 0.002967
30 0.002982
34 0.001995
34 0.001996
33 0.001998
33 0.003001
36 0.003023
42 0.001995
46 0.003989
50 0.003024
55 0.003031
61 0.003028
66 0.00299
72 0.002982
77 0.002008
80 0.001993
83 0.002003
89 0.002985
93 0.002985
102 0.002988
112 0.00399
98 0.003018
62 0.003029
37 0.003032
23 0.003992
20 0.003966
26 0.002986
27 0.003011
27 0.002996
28 0.00298
34 0.003009
40 0.003
47 0.004044
52 0.003035
58 0.002995
63 0.002998
68 0.003995
72 0.00399
79 0.002993
82 0.003002
85 0.003003
91 0.003992
94 0.00399
99 0.00299
108 0.003989
102 0.003987
58 0.002992
33 0.003009
24 0.003984
24 0.003995
25 0.003019
22 0.003007
21 0.00398
22 0.003989
27 0.003989
33 0.002982
37 0.00402
39 0.004022
16 0.002986
29 0.002991
36 0.003989
46 0.003971
54 0.002992
53 0.002991
63 0.002988
71 0.00395
80 0.005005
87 0.003981
103 0.004991
118 0.00301
122 0.002989
126 0.002993
95 0.003998
40 0.003989
6 0.003986
0 0.003028
0 0.002022
0 0.003636
0 0.005018
0 0.00503
3 0.004987
8 0.005056
11 0.004027
16 0.004024
21 0.003965
30 0.004023
37 0.003977
49 0.002981
59 0.003009
67 0.003008
72 0.004977
80 0.004994
92 0.005018
100 0.004987
109 0.00402
118 0.003993
121 0.003991
87 0.00498
32 0.003997
1 0.002991
0 0.002996
5 0.002949
9 0.004999
13 0.003986
20 0.004987
25 0.004976
30 0.004029
33 0.004027
38 0.003993
44 0.00499
50 0.004951
63 0.004957
70 0.004988
78 0.004994
85 0.005017
101 0.004031
110 0.004987
116 0.004987
129 0.003975
135 0.003977
137 0.003993
99 0.004977
48 0.004986
16 0.003996
19 0.003991
22 0.002977
21 0.004999
20 0.003022
25 0.005984
36 0.001042
48 0.003974
51 0.003992
57 0.004996
66 0.004977
74 0.004043
87 0.003966
102 0.003997
110 0.004985
125 0.00502
132 0.005984
141 0.005986
153 0.005022
159 0.004024
167 0.004008
174 0.004983
181 0.004993
170 0.003996
104 0.003997
53 0.003992
35 0.005981
33 0.005024
31 0.006019
30 0.006018
32 0.005018
40 0.003972
50 0.003973
57 0.004996
61 0.004978
69 0.003987
77 0.004986
84 0.004998
90 0.005979
102 0.004982
112 0.006016
122 0.005951
133 0.00503
141 0.005017
148 0.004981
154 0.005
162 0.004983
178 0.005003
185 0.003984
192 0.004993
202 0.005983
216 0.004991
225 0.005984
233 0.006019
242 0.005018
247 0.005017
252 0.004945
255 0.005985
226 0.004981
108 0.003984
62 0.00498
52 0.004957
49 0.005945
47 0.004947
44 0.005985
45 0.006025
56 0.005006
63 0.005017
68 0.003979
71 0.005971
79 0.004985
88 0.005016
94 0.005019
102 0.004987
112 0.005977
126 0.005019
131 0.005984
141 0.006018
154 0.005027
162 0.005026
169 0.005025
180 0.005982
190 0.006956
201 0.005981
211 0.004983
221 0.004991
235 0.004975
241 0.004986
189 0.00602
192 0.005984
197 0.005026
197 0.005016
168 0.005021
123 0.006978
100 0.007015
92 0.00597
92 0.005018
91 0.005981
96 0.005982
99 0.006018
103 0.005984
107 0.005984
109 0.004991
111 0.00501
116 0.004995
120 0.005985
123 0.006023
127 0.007014
135 0.005985
139 0.005978
147 0.006011
153 0.004994
158 0.004957
162 0.005984
167 0.005984
172 0.004993
176 0.004986
178 0.005993
182 0.007011
185 0.006994
189 0.005981
166 0.005983
104 0.004979
95 0.006024
95 0.006016
95 0.006015
94 0.005984
97 0.006014
99 0.005955
103 0.005965
105 0.00698
107 0.007015
109 0.005954
113 0.005985
120 0.006982
124 0.006022
129 0.006033
135 0.006029
139 0.006017
147 0.004974
152 0.005995
157 0.005982
160 0.005987
164 0.006947
169 0.005986
173 0.006021
180 0.006005
173 0.006014
133 0.005033
100 0.007022
87 0.006981
85 0.006015
85 0.00497
87 0.005981
89 0.006981
90 0.007012
91 0.005969
94 0.005983
99 0.005946
102 0.005936
106 0.005974
111 0.006951
114 0.00698
120 0.006015
122 0.00599
126 0.006012
131 0.006982
135 0.007038
142 0.006965
148 0.005986
150 0.005974
154 0.005982
157 0.005981
160 0.006982
164 0.007979
165 0.022905
148 0.000968
90 0.005984
77 0.007987
76 0.007485
78 0.006018
78 0.00603
79 0.005953
81 0.005987
85 0.006016
89 0.006982
91 0.007979
94 0.006982
98 0.005937
102 0.005986
104 0.007013
107 0.007946
115 0.005985
118 0.005949
123 0.007011
127 0.006016
130 0.005979
134 0.007022
138 0.007022
142 0.005984
145 0.006025
148 0.006966
152 0.007965
154 0.007975
154 0.005988
112 0.007979
78 0.007016
72 0.006032
74 0.006008
74 0.006981
72 0.006982
51 0.006975
55 0.007012
60 0.007019
66 0.008005
68 0.007979
70 0.005973
75 0.007931
80 0.005984
85 0.006017
90 0.005987
95 0.006981
104 0.00798
108 0.006002
111 0.00697
115 0.006971
123 0.00798
127 0.007976
131 0.007013
139 0.007979
146 0.007034
150 0.007
154 0.00702
146 0.007978
104 0.007979
59 0.007014
50 0.006971
51 0.007009
50 0.007985
52 0.007925
54 0.006984
59 0.007979
66 0.006995
69 0.007029
72 0.007021
74 0.007978
81 0.007938
88 0.006989
92 0.00698
99 0.006962
103 0.008025
106 0.007981
111 0.006993
118 0.007965
122 0.006986
125 0.006983
127 0.006981
134 0.007987
137 0.007965
143 0.007042
149 0.006976
119 0.006992
80 0.006981
60 0.007022
56 0.007024
59 0.007017
56 0.007979
55 0.007042
58 0.007021
62 0.00702
69 0.008007
73 0.008
73 0.006023
77 0.006992
81 0.007
89 0.007975
93 0.006979
102 0.007025
109 0.006982
115 0.007979
119 0.007015
126 0.007034
132 0.007012
135 0.006981
143 0.007968
145 0.00702
153 0.00701
158 0.007007
162 0.007021
167 0.007032
134 0.007016
76 0.007024
57 0.007019
54 0.007011
56 0.007016
53 0.007017
49 0.006979
50 0.005984
54 0.005975
58 0.006982
65 0.007025
70 0.007013
74 0.007008
80 0.006988
86 0.007023
93 0.006985
97 0.007036
100 0.007009
108 0.006982
113 0.006998
117 0.006984
123 0.006984
131 0.007015
138 0.005985
143 0.007012
150 0.006018
156 0.006716
161 0.00697
166 0.007015
171 0.007024
180 0.006969
184 0.006976
189 0.006982
193 0.005987
196 0.006017
152 0.006018
96 0.006022
65 0.00684
62 0.007019
63 0.007014
61 0.007012
58 0.007024
57 0.006969
59 0.00601
65 0.00603
69 0.005977
74 0.006018
78 0.006033
81 0.006017
89 0.006016
94 0.006021
99 0.006015
106 0.006018
111 0.003988
123 0.006975
129 0.006
135 0.005974
139 0.006985
145 0.006973
148 0.006975
154 0.006023
163 0.006035
168 0.005986
172 0.005984
177 0.006002
182 0.006014
188 0.005962
194 0.005989
196 0.005979
161 0.005985
79 0.006021
63 0.006016
63 0.006973
64 0.005972
66 0.005036
67 0.006019
71 0.006018
77 0.005948
82 0.005984
84 0.005996
87 0.005983
90 0.005988
96 0.006032
102 0.006017
109 0.006031
115 0.006029
120 0.005953
126 0.006021
132 0.006039
137 0.006027
145 0.005977
150 0.005985
154 0.004964
159 0.006017
168 0.005992
175 0.005985
181 0.006018
187 0.005985
193 0.005987
166 0.006018
110 0.006028
76 0.005983
68 0.005984
69 0.005977
70 0.005028
69 0.004994
72 0.005035
77 0.005022
81 0.005041
87 0.005984
89 0.006018
93 0.006024
98 0.006024
103 0.005986
112 0.005975
117 0.005983
124 0.005976
131 0.004975
139 0.005031
144 0.004988
148 0.005034
154 0.005034
164 0.006037
169 0.006024
173 0.006019
179 0.006015
184 0.00598
188 0.005942
194 0.005982
200 0.005986
186 0.00504
124 0.005025
81 0.005001
64 0.004991
61 0.005022
62 0.005062
62 0.004987
62 0.004991
63 0.004982
70 0.004982
75 0.005997
79 0.005036
83 0.005019
86 0.005019
93 0.005027
99 0.004988
103 0.00502
108 0.005024
115 0.005023
119 0.005015
123 0.005036
130 0.004972
133 0.004984
142 0.004027
147 0.00504
153 0.005018
161 0.00403
166 0.005039
172 0.005021
178 0.005028
184 0.005021
189 0.005028
195 0.004976
195 0.004999
142 0.004982
70 0.00502
61 0.005018
61 0.004021
60 0.00398
58 0.004029
56 0.00504
58 0.005024
62 0.004954
66 0.004987
71 0.005028
75 0.004973
77 0.004974
85 0.005024
90 0.004976
96 0.005018
101 0.004029
106 0.004033
114 0.003991
120 0.00403
125 0.004035
131 0.00399
138 0.003998
144 0.004977
150 0.004984
160 0.005035
166 0.005029
171 0.00503
176 0.004026
181 0.005035
189 0.004199
190 0.004035
157 0.004029
97 0.004042
65 0.004029
57 0.004034
60 0.003952
60 0.004032
61 0.00399
64 0.003991
69 0.00402
74 0.005029
80 0.005035
84 0.003989
90 0.004026
95 0.005018
99 0.003989
106 0.005
111 0.003989
118 0.004034
122 0.004012
125 0.004033
132 0.004032
139 0.004003
145 0.003987
151 0.004032
157 0.003989
162 0.003969
167 0.003997
173 0.003982
180 0.003991
134 0.004028
85 0.003037
64 0.003974
59 0.003994
59 0.00403
59 0.004024
59 0.004032
59 0.00406
63 0.004032
70 0.004022
76 0.003986
80 0.003957
85 0.00397
90 0.002993
96 0.003023
100 0.003017
104 0.003036
113 0.004026
119 0.004018
123 0.004024
127 0.00404
134 0.004036
141 0.004022
145 0.00404
155 0.004018
160 0.004033
167 0.004032
172 0.003989
177 0.003975
184 0.004026
188 0.002993
191 0.003951
164 0.002952
106 0.002994
66 0.002995
52 0.002999
53 0.004036
52 0.003991
49 0.002995
48 0.004017
53 0.003989
58 0.004035
62 0.002987
67 0.003017
72 0.003039
77 0.002756
81 0.002993
89 0.002992
92 0.002992
101 0.003034
108 0.002994
112 0.002996
116 0.002992
121 0.002992
128 0.002995
132 0.002992
138 0.002992
144 0.002989
149 0.002946
158 0.003027
164 0.003027
171 0.003036
175 0.00302
181 0.003024
185 0.003047
185 0.003031
122 0.003031
74 0.003031
53 0.002992
48 0.002995
48 0.002995
44 0.003026
45 0.002993
48 0.004031
54 0.00304
59 0.00399
62 0.002995
66 0.002982
70 0.002946
73 0.002995
78 0.002996
84 0.00296
89 0.002992
99 0.003025
104 0.002989
111 0.002993
116 0.003005
122 0.003027
128 0.003021
133 0.002992
140 0.002027
146 0.002025
150 0.003172
157 0.002993
162 0.003007
173 0.003027
175 0.003004
121 0.002992
78 0.003021
57 0.002994
54 0.002992
56 0.002992
55 0.002028
52 0.00203
55 0.001987
61 0.00203
66 0.002029
70 0.002036
73 0.002035
80 0.002052
85 0.002993
88 0.002992
94 0.002992
101 0.002005
110 0.002999
115 0.002995
120 0.002992
124 0.002985
130 0.002941
140 0.002979
145 0.002992
154 0.001995
159 0.001995
164 0.00203
171 0.002017
171 0.001995
119 0.002028
78 0.001947
60 0.001995
59 0.002029
58 0.002033
56 0.001995
56 0.00201
61 0.002042
66 0.002992
72 0.001995
76 0.001995
78 0.002027
82 0.002029
87 0.001995
92 0.002026
97 0.002028
108 0.001995
112 0.001999
120 0.001995
125 0.002005
130 0.000999
137 0.001994
143 0.002028
148 0.002026
156 0.001995
161 0.001995
166 0.001995
172 0.002029
181 0.002025
186 0.001986
192 0.002021
192 0.001995
147 0.002026
94 0.001034
66 0.001997
59 0.001995
60 0.001989
58 0.002
54 0.001995
52 0.001995
59 0.002025
65 0.001995
68 0.001994
73 0.001996
77 0.002028
83 0.001995
88 0.001963
93 0.000997
101 0.002029
109 0.000998
115 0.000998
122 0.000997
130 0.000998
135 0.002042
139 0.001995
148 0.002006
153 0.00206
157 0.00203
162 0.001996
168 0.001996
175 0.000998
181 0.001016
186 0.001047
191 0.000997
198 0.001994
204 0.001947
207 0.001965
159 0.001974
98 0.001993
68 0.001995
62 0.001996
62 0.001986
63 0.001995
60 0.00104
61 0.000997
65 0.001004
75 0.000973
77 0.001001
79 0.000999
83 0.000998
87 0.000997
94 0.000986
99 0.001001
105 0.000997
110 0.002026
119 0.002014
124 0.001982
129 0.000999
138 0.000993
145 0.000997
150 0.000999
157 0.000997
164 0.000998
170 0.000997
176 0.000997
183 0.000997
187 0.001001
195 0.00099
203 0.000994
199 0.000997
113 0.000997
82 0.0
74 0.000998
72 0.000998
74 0.000998
73 0.000998
72 0.001011
75 0.001007
81 0.000999
87 0.000997
90 0.000998
94 0.001018
101 0.000985
107 0.000988
113 0.000998
120 0.000991
128 0.000997
132 0.001016
137 0.000999
144 0.000937
150 0.000965
156 0.001011
161 0.001012
169 0.001001
177 0.000998
184 0.000995
191 0.000998
197 0.000985
205 0.000989
195 0.000998
140 0.000997
93 0.0
72 0.0
67 0.0
68 0.0
67 0.000998
67 0.000998
70 0.001019
75 0.000991
81 0.000997
87 0.000998
89 0.000984
93 0.0
99 0.0
103 0.0
110 0.0
116 0.0
126 0.000997
132 0.000986
137 0.000997
144 0.000998
152 0.000997
158 0.001002
163 0.0
171 0.0
176 0.0
181 0.0
190 0.0
195 0.0
206 0.0
210 0.0
214 0.0
220 0.0
200 0.000998
112 0.000997
78 0.000998
69 0.0
67 0.0
64 0.0
62 0.0
60 0.0
64 0.0
70 0.0
75 0.0
79 0.0
83 0.000998
87 0.0
92 0.0
97 0.0
100 0.0
108 0.0
117 0.0
122 0.0
128 0.0
135 0.0
141 0.0
147 0.0
153 0.0
162 0.00099
166 0.000998
172 0.0
177 0.0
184 0.0
193 0.0
197 0.0
205 0.0
210 0.0
192 0.0
127 0.000997
79 0.0
63 0.000997
63 0.001008
64 0.0
63 0.0
60 0.0
65 0.0
70 0.00103
76 0.0
79 0.000999
82 0.000997
88 0.0
90 0.000998
98 0.002008
105 0.001911
116 0.000987
121 0.0
127 0.0
133 0.002032
140 0.002052
147 0.00101
154 0.001029
161 0.0
166 0.0
169 0.001025
176 0.000998
181 0.000998
188 0.000997
196 0.000958
182 0.0
128 0.001996
82 0.001995
63 0.0
64 0.002038
64 0.001046
63 0.0
63 0.0
67 0.0
73 0.001011
78 0.001025
80 0.0
85 0.0
89 0.0
95 0.000998
102 0.0
108 0.001995
117 0.002058
124 0.0
131 0.0
135 0.0
141 0.001038
145 0.001049
153 0.0
158 0.0
164 0.0
174 0.0
180 0.0
187 0.001003
194 0.000998
199 0.001002
206 0.0
212 0.000944
196 0.002026
131 0.002042
74 0.0
63 0.0
60 0.0
60 0.0
56 0.0
55 0.00103
58 0.00103
64 0.0
69 0.000958
72 0.0
75 0.000997
78 0.000998
85 0.0
91 0.0
98 0.0
109 0.0
115 0.0
121 0.00103
127 0.001027
135 0.000988
139 0.0
144 0.0
147 0.001033
153 0.001034
159 0.0
164 0.001002
171 0.0
180 0.0
185 0.00104
190 0.00199
195 0.001988
203 0.000996
194 0.0
135 0.0
85 0.000998
65 0.001038
59 0.0
59 0.000997
56 0.0
49 0.0
51 0.0
56 0.001999
62 0.001995
67 0.0
68 0.000998
71 0.000992
77 0.001039
83 0.002041
89 0.001015
96 0.000964
102 0.002027
110 0.001026
116 0.0
120 0.002027
126 0.00204
133 0.000956
138 0.00099
143 0.000966
149 0.00103
154 0.001996
163 0.000968
168 0.000968
174 0.000956
176 0.001019
133 0.0
84 0.002042
62 0.001995
59 0.000954
62 0.001019
61 0.000999
59 0.002035
59 0.001991
63 0.000985
68 0.001002
70 0.000996
73 0.000991
77 0.002041
83 0.001995
90 0.001995
96 0.000965
104 0.00204
110 0.001014
116 0.002992
121 0.002998
129 0.00097
132 0.000996
138 0.000958
147 0.001003
151 0.000967
155 0.001976
160 0.002003
168 0.001001
173 0.002035
155 0.000998
104 0.003005
68 0.003022
53 0.000995
53 0.000998
51 0.001007
48 0.001986
48 0.001003
50 0.001995
56 0.001995
62 0.002036
64 0.002029
66 0.002052
71 0.002992
76 0.003027
83 0.001
89 0.000988
100 0.001996
107 0.002005
111 0.000948
114 0.001995
120 0.003032
126 0.001981
133 0.000955
137 0.002027
143 0.002992
148 0.003024
155 0.00203
162 0.000987
165 0.002961
173 0.000992
177 0.000994
182 0.002009
186 0.003059
187 0.002993
121 0.000966
76 0.000998
59 0.002002
55 0.002992
54 0.002992
48 0.001998
43 0.002988
46 0.000955
52 0.001014
57 0.001015
61 0.002992
62 0.003028
67 0.00101
73 0.002009
76 0.001978
80 0.003031
84 0.003027
93 0.002036
101 0.002967
106 0.001992
112 0.002029
117 0.001005
122 0.00299
126 0.002992
135 0.001004
140 0.001996
144 0.00199
149 0.002992
155 0.002993
161 0.001986
169 0.003021
174 0.001999
179 0.001999
188 0.001976
193 0.002992
199 0.002994
208 0.001019
199 0.000996
141 0.001028
88 0.004034
67 0.003989
63 0.001997
64 0.003025
57 0.002019
54 0.001981
54 0.001994
57 0.002987
63 0.002992
66 0.001984
70 0.002032
76 0.002004
80 0.003989
83 0.00399
90 0.003024
98 0.003988
106 0.001947
111 0.00199
115 0.001984
121 0.002992
126 0.002992
134 0.002016
142 0.001996
146 0.003028
150 0.004025
155 0.00399
162 0.002023
167 0.003995
177 0.001968
182 0.001988
185 0.002012
192 0.00399
192 0.003029
127 0.002979
83 0.002006
70 0.002014
70 0.003981
70 0.004021
68 0.003996
69 0.004015
75 0.00199
79 0.002038
84 0.001981
88 0.004027
89 0.00399
93 0.001993
99 0.002002
104 0.002004
109 0.003989
116 0.003989
126 0.003987
133 0.004001
138 0.002995
144 0.00302
150 0.001978
155 0.003989
161 0.003995
168 0.001988
173 0.001987
179 0.001991
185 0.004986
191 0.003979
200 0.003977
206 0.003998
213 0.002988
191 0.002975
129 0.003
85 0.004037
69 0.003989
69 0.003022
68 0.003025
63 0.001989
58 0.005041
58 0.004987
71 0.004988
78 0.003955
82 0.002986
86 0.002981
90 0.003016
93 0.003989
97 0.00402
106 0.003022
112 0.004033
118 0.004033
123 0.005015
127 0.004987
135 0.004974
139 0.004993
146 0.002996
153 0.003001
158 0.002992
164 0.003989
171 0.003987
179 0.002988
186 0.002997
193 0.003038
200 0.003993
206 0.005038
216 0.004981
190 0.004983
109 0.002979
76 0.002987
67 0.002991
68 0.003015
69 0.004995
65 0.00403
60 0.004004
63 0.003986
68 0.004003
71 0.004987
77 0.003986
81 0.004997
84 0.004988
88 0.003988
94 0.003004
102 0.003023
107 0.005031
113 0.004988
121 0.003994
125 0.003026
130 0.003991
135 0.005019
145 0.00299
151 0.005033
157 0.004982
164 0.003989
170 0.003966
176 0.003988
181 0.004987
186 0.004986
195 0.004035
200 0.003001
183 0.002994
124 0.005984
68 0.003996
65 0.005984
66 0.004984
63 0.003995
63 0.003995
63 0.003988
67 0.00503
72 0.004987
79 0.002974
80 0.003022
83 0.003025
90 0.00601
99 0.003985
104 0.005982
110 0.004978
119 0.003979
123 0.003977
127 0.00399
130 0.005023
134 0.004987
139 0.004019
144 0.005019
151 0.004022
160 0.004002
167 0.003992
174 0.006008
173 0.005993
120 0.003987
78 0.003992
62 0.003992
63 0.005036
66 0.004986
62 0.003949
60 0.00394
62 0.004041
72 0.003961
75 0.004004
77 0.006005
83 0.005983
88 0.003994
91 0.003987
96 0.003987
102 0.005984
107 0.005982
115 0.003998
121 0.003987
127 0.003992
134 0.004003
138 0.003006
143 0.005973
148 0.005992
153 0.004976
159 0.004989
165 0.003987
169 0.005984
173 0.005984
180 0.003985
153 0.003989
101 0.003978
59 0.004003
59 0.003997
59 0.005971
58 0.005983
54 0.004987
54 0.005012
59 0.005016
61 0.006039
64 0.005982
71 0.00402
76 0.003975
79 0.003988
86 0.004002
91 0.004985
97 0.005981
101 0.005973
107 0.004982
112 0.004028
115 0.004984
119 0.00602
125 0.006988
132 0.004003
135 0.004999
140 0.003998
149 0.004996
156 0.004997
160 0.005978
163 0.005986
170 0.005012
175 0.004998
169 0.005007
124 0.00602
79 0.006016
57 0.003955
56 0.005012
57 0.004982
50 0.004986
46 0.004987
49 0.006981
56 0.006988
62 0.004956
65 0.00498
65 0.004985
70 0.005984
76 0.006015
80 0.004983
85 0.004018
92 0.005015
102 0.004984
105 0.004987
108 0.006017
114 0.006015
120 0.004974
124 0.004978
130 0.005037
136 0.005984
139 0.005984
145 0.004972
150 0.004994
154 0.004982
164 0.004987
159 0.004988
121 0.007025
79 0.007012
59 0.004994
61 0.004988
62 0.004997
59 0.005984
57 0.005992
60 0.004986
65 0.005984
72 0.007013
74 0.004974
77 0.004989
83 0.004974
89 0.006974
91 0.006981
97 0.004992
104 0.005
111 0.005004
114 0.007019
119 0.006982
126 0.005982
133 0.00701
137 0.004981
143 0.004978
147 0.004988
151 0.007015
155 0.006981
163 0.00503
167 0.004997
164 0.004994
126 0.006981
85 0.007022
65 0.00598
69 0.007017
68 0.004993
65 0.004966
63 0.00598
67 0.007018
72 0.007013
79 0.00603
81 0.004986
83 0.005028
88 0.007021
94 0.00797
100 0.005974
107 0.007013
116 0.005985
121 0.00499
126 0.00495
129 0.007023
135 0.006982
141 0.004976
145 0.004973
150 0.004985
156 0.006981
160 0.007978
167 0.005984
173 0.007013
181 0.005984
185 0.004985
189 0.005019
195 0.006965
201 0.006989
200 0.006951
152 0.005984
102 0.005949
73 0.007986
73 0.007979
76 0.005987
72 0.00798
69 0.005982
69 0.005001
75 0.004954
82 0.006917
86 0.006982
89 0.005977
93 0.005988
97 0.007014
104 0.007975
106 0.007978
114 0.005968
123 0.007973
127 0.005989
131 0.005027
134 0.005986
140 0.007022
143 0.007007
151 0.00597
156 0.005984
160 0.00601
167 0.007944
169 0.007978
177 0.005998
185 0.007978
191 0.004986
199 0.005983
204 0.004987
211 0.007978
213 0.007978
160 0.005977
105 0.00701
79 0.005979
77 0.007021
78 0.007966
76 0.00697
74 0.007965
76 0.00697
82 0.006014
87 0.006001
91 0.007983
95 0.007978
98 0.005996
103 0.00597
108 0.005944
112 0.007978
117 0.007017
122 0.00698
128 0.007978
136 0.006011
141 0.004978
146 0.005047
154 0.007937
157 0.006013
162 0.005985
168 0.005978
174 0.005974
180 0.00698
187 0.00698
196 0.007986
203 0.007983
212 0.006969
204 0.006019
149 0.005983
94 0.007959
86 0.007979
85 0.006008
87 0.006975
87 0.006001
84 0.006981
86 0.007981
95 0.006994
100 0.006988
102 0.00602
104 0.006022
109 0.006019
115 0.007985
119 0.007944
124 0.006978
132 0.006013
139 0.006981
143 0.007019
149 0.007032
157 0.00745
160 0.007937
166 0.006093
170 0.006992
179 0.006987
184 0.007011
190 0.007012
196 0.00701
202 0.00698
209 0.006972
215 0.006978
215 0.007963
151 0.005969
92 0.007984
78 0.007052
80 0.005968
82 0.006972
81 0.006981
79 0.007026
82 0.007001
85 0.006976
88 0.00698
95 0.006968
98 0.007024
102 0.006023
107 0.006973
112 0.006965
117 0.006016
122 0.006031
132 0.006975
138 0.007022
141 0.007025
146 0.00701
153 0.006982
157 0.006963
161 0.007012
170 0.006983
175 0.00602
181 0.006023
188 0.005981
195 0.005978
199 0.006982
208 0.007065
214 0.00704
222 0.007013
226 0.006948
223 0.005999
172 0.007015
85 0.005983
72 0.006976
73 0.006968
75 0.006093
75 0.006024
74 0.005982
76 0.006021
78 0.005973
82 0.007014
83 0.006998
85 0.006987
90 0.007012
95 0.006974
103 0.00701
108 0.006993
114 0.006967
121 0.006979
127 0.006976
131 0.00695
135 0.006027
141 0.006016
145 0.005973
150 0.005985
157 0.005983
167 0.006984
174 0.006975
180 0.006981
185 0.006018
190 0.006023
198 0.006975
205 0.006031
211 0.006012
214 0.005987
177 0.005984
111 0.005987
75 0.006021
67 0.005988
68 0.00597
68 0.005972
70 0.00698
72 0.006972
77 0.006969
82 0.006022
85 0.006017
87 0.00702
91 0.006021
96 0.005985
104 0.005985
108 0.005984
114 0.005973
121 0.005019
127 0.006966
130 0.006992
136 0.005993
141 0.006014
146 0.006014
154 0.006015
159 0.005982
163 0.005984
173 0.005975
178 0.005966
184 0.005983
191 0.005976
195 0.005984
160 0.004981
101 0.005974
70 0.00603
64 0.006001
68 0.005985
71 0.006019
70 0.006029
71 0.005974
75 0.005985
80 0.005968
83 0.005976
85 0.005976
88 0.005991
94 0.004966
100 0.00502
106 0.005019
114 0.006048
122 0.006013
126 0.004986
134 0.005984
140 0.004986
145 0.004986
150 0.004986
158 0.004987
166 0.004985
173 0.004985
177 0.005983
181 0.005984
190 0.005984
185 0.005991
136 0.006013
67 0.005974
60 0.004974
59 0.004987
59 0.005028
58 0.004994
55 0.004985
57 0.00499
62 0.004982
68 0.00498
71 0.005019
75 0.005018
80 0.005018
87 0.004977
92 0.00498
97 0.005991
101 0.00599
109 0.005969
113 0.00598
119 0.004951
123 0.004987
128 0.00501
135 0.005018
142 0.005019
148 0.005019
157 0.00498
163 0.005027
168 0.004987
173 0.005021
180 0.004979
187 0.005029
192 0.00498
193 0.005017
146 0.004977
88 0.004993
56 0.005021
52 0.00503
53 0.004982
49 0.004952
46 0.004967
46 0.004976
50 0.004991
56 0.00498
60 0.004988
61 0.003991
63 0.005027
67 0.005039
74 0.005026
80 0.004986
90 0.004952
95 0.004989
101 0.004983
106 0.004984
111 0.005012
119 0.004991
125 0.00399
130 0.004027
137 0.004024
142 0.004033
150 0.004023
159 0.004991
165 0.004984
172 0.004979
179 0.004986
184 0.004986
188 0.004979
197 0.004992
203 0.004023
204 0.003984
160 0.004029
96 0.004036
58 0.004039
57 0.004035
57 0.003953
55 0.004938
53 0.00494
55 0.004973
60 0.004988
68 0.004988
69 0.004972
72 0.004025
75 0.00402
81 0.004032
86 0.004035
95 0.004022
103 0.00399
109 0.003955
115 0.004995
119 0.004985
124 0.005026
130 0.004969
133 0.004994
141 0.00402
150 0.003956
154 0.003989
164 0.003994
171 0.003992
179 0.00399
185 0.003955
190 0.003958
196 0.003953
203 0.004991
153 0.004979
96 0.004
67 0.003991
61 0.00402
62 0.004035
63 0.004024
57 0.004031
61 0.003994
63 0.003983
68 0.003988
71 0.002992
74 0.004999
79 0.004038
85 0.003979
90 0.004021
97 0.003991
103 0.004027
113 0.00503
118 0.003958
124 0.004985
131 0.003962
138 0.003943
145 0.003991
150 0.003045
161 0.002992
167 0.002995
171 0.003025
177 0.002992
184 0.002992
193 0.002993
202 0.002991
208 0.00399
213 0.00399
216 0.002992
222 0.004024
211 0.002992
124 0.002941
80 0.002962
64 0.002994
62 0.002992
64 0.002992
60 0.003981
56 0.003952
60 0.003943
65 0.00395
71 0.00399
74 0.003991
76 0.003948
81 0.004981
84 0.002972
90 0.002993
98 0.003023
105 0.003038
115 0.002994
122 0.002992
128 0.003987
133 0.003991
138 0.003984
143 0.003989
149 0.002955
157 0.004023
164 0.004035
170 0.002988
176 0.004034
184 0.004035
191 0.004054
197 0.003023
207 0.00399
213 0.003944
216 0.002948
222 0.002992
227 0.002963
200 0.002959
105 0.002993
71 0.002983
62 0.002992
62 0.002993
62 0.002978
58 0.002991
55 0.002976
60 0.003967
66 0.00299
69 0.004002
72 0.004035
76 0.002993
82 0.002961
89 0.002992
94 0.003028
97 0.003025
108 0.003002
114 0.00303
119 0.00303
123 0.002958
129 0.002992
136 0.003028
140 0.003024
147 0.002992
157 0.003985
161 0.003028
164 0.002993
170 0.002992
181 0.002993
187 0.003045
192 0.002982
201 0.00298
204 0.003006
159 0.003005
98 0.002981
69 0.003029
63 0.003022
62 0.002992
63 0.002025
61 0.00302
63 0.001963
67 0.003024
72 0.003024
76 0.003024
79 0.002983
83 0.001995
85 0.001996
89 0.002992
96 0.002036
101 0.002018
109 0.002047
115 0.001997
124 0.002958
128 0.002992
132 0.003025
143 0.003023
147 0.002997
152 0.00299
158 0.001996
163 0.001988
169 0.002034
174 0.001995
179 0.002035
182 0.001998
112 0.001961
72 0.001968
57 0.002992
56 0.002993
57 0.002984
54 0.002982
52 0.002027
53 0.002026
59 0.002035
65 0.002032
68 0.001995
68 0.002026
75 0.00201
80 0.000998
86 0.001996
93 0.003011
99 0.00298
106 0.002031
113 0.001995
117 0.001995
124 0.001996
129 0.001998
134 0.00203
139 0.001996
147 0.002063
153 0.002022
160 0.001995
164 0.003003
170 0.003005
176 0.002043
180 0.002026
184 0.001996
192 0.00205
163 0.002039
104 0.001995
67 0.001028
55 0.001026
56 0.001036
53 0.000998
47 0.000992
45 0.000998
48 0.001983
53 0.001995
58 0.002038
60 0.002034
63 0.002055
68 0.001994
75 0.000963
81 0.002047
88 0.000998
95 0.001995
103 0.001995
106 0.000998
110 0.000998
114 0.001009
120 0.000997
124 0.002023
130 0.001995
136 0.00203
143 0.00195
150 0.001997
155 0.000993
161 0.001994
168 0.000998
173 0.001003
178 0.000965
185 0.001996
183 0.000997
116 0.000997
73 0.001042
59 0.002028
58 0.000998
56 0.002013
51 0.002043
50 0.002008
56 0.001986
62 0.000998
67 0.000997
68 0.001027
71 0.00103
78 0.001011
83 0.000997
87 0.000966
96 0.001043
101 0.000962
107 0.000966
113 0.001011
118 0.000951
122 0.001956
128 0.00201
136 0.002015
139 0.001996
143 0.000998
152 0.001013
157 0.000998
165 0.001029
170 0.000999
177 0.002026
181 0.000997
185 0.000959
182 0.000996
136 0.002006
86 0.001999
63 0.001031
62 0.001039
65 0.00095
63 0.000997
59 0.000993
62 0.000997
68 0.000997
72 0.000998
74 0.000988
78 0.001938
83 0.001996
88 0.002029
91 0.001997
96 0.000998
103 0.000997
110 0.0
119 0.000965
124 0.000997
129 0.001012
134 0.000967
139 0.000944
146 0.000944
151 0.001001
156 0.000961
160 0.000965
166 0.001992
173 0.0
179 0.0
186 0.0
194 0.0
199 0.0
204 0.000961
209 0.000958
217 0.000998
196 0.0
136 0.000958
90 0.001005
73 0.0
70 0.000998
71 0.0
64 0.0
61 0.0
63 0.0
70 0.0
73 0.0
75 0.0
78 0.001
82 0.001001
87 0.000965
90 0.000955
100 0.0
105 0.0
115 0.0
120 0.0
123 0.0
127 0.0
133 0.0
140 0.0
146 0.0
152 0.0
156 0.0
160 0.0
170 0.0
177 0.0
186 0.0
189 0.0
197 0.0
202 0.0
207 0.0
213 0.0
221 0.000998
211 0.0
150 0.0
96 0.0
74 0.0
77 0.0
77 0.0
74 0.0
73 0.0
76 0.0
81 0.0
87 0.0
89 0.0
92 0.0
98 0.000988
101 0.000949
108 0.0
117 0.0
125 0.0
131 0.0
137 0.0
141 0.0
144 0.0
151 0.0
156 0.000965
160 0.000961
170 0.0
177 0.0
182 0.001985
190 0.000997
197 0.000991
204 0.000999
210 0.0
216 0.0
215 0.0
166 0.001984
108 0.001994
77 0.0
75 0.0
77 0.0
76 0.00102
74 0.0
78 0.001997
83 0.000993
91 0.001013
94 0.0
95 0.0
100 0.001992
105 0.001996
113 0.0
118 0.0
122 0.0
129 0.00203
138 0.0
142 0.0
146 0.000993
152 0.000986
159 0.000988
163 0.001018
170 0.001996
176 0.000987
183 0.001031
189 0.001004
200 0.001994
207 0.001995
216 0.0
223 0.0
227 0.001992
232 0.00199
204 0.0
156 0.000999
85 0.000997
69 0.001999
69 0.001985
68 0.000995
68 0.000996
68 0.0
72 0.0
78 0.0
84 0.001995
87 0.002011
92 0.0
96 0.0
100 0.001015
103 0.001984
108 0.002014
117 0.0
121 0.000992
129 0.0
141 0.0
146 0.00096
153 0.001963
159 0.001995
166 0.0
171 0.0
176 0.0
182 0.001988
188 0.001995
198 0.0
203 0.0
212 0.000991
218 0.0
219 0.000979
169 0.001992
104 0.001003
70 0.0
69 0.0
69 0.0
71 0.001987
72 0.002007
76 0.0
82 0.0
87 0.0
90 0.0
92 0.000956
96 0.000975
99 0.002001
108 0.0
113 0.0
118 0.0
124 0.001996
130 0.001995
137 0.000999
144 0.0
155 0.0
163 0.000964
169 0.000988
175 0.000996
180 0.000995
190 0.0
196 0.0
204 0.0
208 0.001986
183 0.002003
102 0.0
73 0.000986
68 0.0
70 0.0
72 0.0
70 0.001981
71 0.001991
76 0.000985
83 0.000997
87 0.0
91 0.002
94 0.001995
100 0.0
105 0.0
116 0.0
120 0.0
126 0.0
131 0.001994
138 0.002
146 0.0
152 0.000967
157 0.0
164 0.001986
169 0.001998
177 0.0
184 0.0
194 0.0
198 0.001991
204 0.0
172 0.001995
106 0.002991
62 0.001976
56 0.00199
57 0.001995
59 0.001996
57 0.001988
56 0.001985
59 0.001996
70 0.001994
73 0.002
75 0.001997
79 0.002033
83 0.00201
89 0.002018
97 0.000998
103 0.001991
108 0.00299
114 0.002993
122 0.000967
128 0.0
136 0.00102
144 0.000983
150 0.0
155 0.001994
160 0.001997
169 0.000991
175 0.001999
182 0.002009
189 0.002962
196 0.002993
202 0.001966
209 0.00196
206 0.001993
148 0.001994
86 0.001992
60 0.001995
54 0.002007
56 0.000994
54 0.001996
50 0.001997
47 0.002956
52 0.002994
57 0.002002
63 0.001992
70 0.001996
73 0.001987
77 0.001994
82 0.001984
88 0.002016
96 0.002992
103 0.001009
108 0.001994
114 0.002
119 0.002994
123 0.002971
132 0.002993
139 0.003999
149 0.000983
154 0.002001
161 0.001991
169 0.004
175 0.002979
183 0.000997
189 0.002018
196 0.001976
200 0.002993
207 0.002997
187 0.003052
116 0.002993
61 0.002008
55 0.001992
56 0.001992
57 0.003994
56 0.002999
56 0.000998
59 0.000981
66 0.000966
69 0.002995
72 0.002993
77 0.002986
83 0.002993
89 0.001992
93 0.001977
101 0.00201
108 0.003986
113 0.003988
121 0.002
124 0.002001
129 0.001998
134 0.002982
142 0.002989
154 0.002992
162 0.002988
168 0.001962
175 0.002
182 0.00199
187 0.003989
194 0.00398
202 0.002007
160 0.001988
99 0.001002
67 0.003007
60 0.002984
62 0.003024
62 0.003957
62 0.002005
62 0.001994
68 0.001995
72 0.003989
77 0.003962
82 0.002043
86 0.002013
90 0.001004
95 0.002997
99 0.002993
109 0.003989
116 0.004017
125 0.002
130 0.002
136 0.001993
142 0.003937
147 0.004006
155 0.001994
161 0.001995
168 0.000997
173 0.004004
179 0.003977
190 0.003989
195 0.003983
203 0.001991
208 0.001994
205 0.002964
154 0.003976
94 0.003996
63 0.002002
61 0.001992
62 0.001989
62 0.003996
59 0.004979
61 0.003989
66 0.003989
71 0.001989
74 0.002998
78 0.002991
83 0.004984
86 0.003998
92 0.001991
98 0.001995
103 0.002005
108 0.004998
113 0.004004
122 0.00399
127 0.003993
135 0.00298
141 0.002
147 0.001999
153 0.004968
158 0.003984
168 0.001961
173 0.002396
179 0.002992
185 0.004985
195 0.002989
201 0.005021
208 0.005031
177 0.001996
109 0.002962
68 0.00199
57 0.003989
57 0.003992
61 0.002026
59 0.002005
58 0.002986
62 0.004985
71 0.002958
75 0.004985
76 0.004996
82 0.002997
86 0.002974
91 0.003019
95 0.003996
101 0.003972
109 0.002004
114 0.003001
118 0.002996
123 0.004991
133 0.002989
137 0.004986
142 0.004985
153 0.003001
159 0.003993
163 0.002997
169 0.005001
176 0.003981
184 0.00299
192 0.002963
199 0.001991
186 0.005017
93 0.002997
66 0.002981
61 0.004997
62 0.004989
65 0.002982
64 0.00296
63 0.002966
68 0.00502
73 0.004987
80 0.002998
83 0.002979
87 0.002936
92 0.002974
96 0.002961
101 0.004987
109 0.004991
115 0.003
120 0.002996
127 0.002996
132 0.004995
136 0.004962
143 0.002994
149 0.002992
154 0.003006
164 0.003003
170 0.004002
177 0.005958
181 0.00598
189 0.002999
195 0.002981
200 0.00301
206 0.004989
195 0.004986
113 0.002952
72 0.003003
60 0.002993
61 0.00401
61 0.003956
59 0.005951
58 0.005972
62 0.00399
67 0.004003
72 0.00396
75 0.005034
78 0.005019
84 0.002958
89 0.003952
94 0.003989
105 0.003999
111 0.003989
115 0.006014
118 0.005987
125 0.002946
131 0.003991
135 0.002997
141 0.004988
147 0.004975
153 0.002992
157 0.003956
163 0.003957
173 0.003029
178 0.003002
184 0.005985
190 0.005983
198 0.003996
204 0.004002
194 0.002991
132 0.005969
77 0.005985
54 0.002993
55 0.002956
56 0.002976
56 0.002988
56 0.00399
59 0.006018
64 0.006006
70 0.003993
74 0.003993
77 0.004001
81 0.005984
85 0.005989
91 0.003989
97 0.003995
108 0.00399
112 0.005012
116 0.003986
121 0.005984
127 0.005962
133 0.003989
139 0.003993
145 0.00399
151 0.006014
155 0.005996
166 0.002977
172 0.003992
182 0.004007
188 0.004999
196 0.004021
186 0.005976
126 0.006023
71 0.004007
63 0.004983
63 0.00398
64 0.006031
64 0.005984
63 0.003989
66 0.004987
73 0.00399
78 0.004994
82 0.004968
85 0.007013
90 0.006016
96 0.003991
99 0.00399
104 0.003958
109 0.006006
117 0.005994
124 0.003995
131 0.003995
140 0.004003
145 0.004983
152 0.004951
158 0.006994
162 0.007015
169 0.00398
176 0.004987
181 0.003994
187 0.005997
194 0.005974
188 0.003986
136 0.004984
64 0.004988
56 0.00495
58 0.003989
58 0.006982
59 0.006027
58 0.003954
59 0.003989
66 0.003993
73 0.005984
76 0.006981
78 0.003989
83 0.003988
91 0.004999
95 0.005013
99 0.00402
106 0.00698
111 0.007036
116 0.00502
121 0.004987
127 0.00498
133 0.007021
138 0.007015
145 0.003993
150 0.004985
157 0.004034
164 0.004984
171 0.005039
178 0.004983
185 0.006938
192 0.006014
199 0.003991
202 0.003992
168 0.005
104 0.006981
66 0.006985
57 0.004021
60 0.006977
59 0.005988
56 0.004987
58 0.003988
61 0.006982
67 0.006978
73 0.005016
75 0.004997
78 0.005007
81 0.00699
86 0.00698
92 0.004987
98 0.006981
105 0.004973
110 0.004947
114 0.004981
119 0.006979
124 0.007022
133 0.004006
139 0.004997
143 0.004987
152 0.007979
158 0.007971
167 0.006998
173 0.006965
180 0.004955
185 0.004988
192 0.004986
196 0.007978
160 0.007972
98 0.005954
63 0.004984
55 0.005976
58 0.00797
60 0.007974
60 0.007978
61 0.006981
68 0.004984
74 0.005028
75 0.005959
78 0.00702
82 0.007023
88 0.00599
94 0.004994
101 0.004956
106 0.007983
112 0.007979
124 0.008002
128 0.007967
130 0.005021
134 0.004994
140 0.004988
147 0.006981
153 0.006984
160 0.005975
165 0.005945
172 0.00599
180 0.00799
187 0.00798
127 0.007967
82 0.007949
63 0.005993
60 0.005992
64 0.005019
66 0.007003
65 0.007984
67 0.005981
72 0.00599
77 0.006008
83 0.007982
84 0.007963
89 0.007017
91 0.007978
98 0.005982
103 0.005983
111 0.006022
116 0.006983
122 0.00698
128 0.005983
133 0.005969
137 0.005984
144 0.00796
147 0.007968
156 0.007018
160 0.007956
168 0.006976
172 0.006974
178 0.006975
184 0.006976
181 0.007953
133 0.006021
82 0.005963
58 0.005987
56 0.007979
57 0.007975
55 0.007007
56 0.007976
59 0.005993
65 0.006983
69 0.006952
73 0.006989
76 0.006991
80 0.005975
82 0.005991
88 0.005988
96 0.007976
100 0.007972
108 0.007013
114 0.007012
120 0.006972
126 0.006957
129 0.00601
136 0.006958
141 0.006981
146 0.005018
151 0.005995
158 0.005983
165 0.007968
163 0.007978
80 0.007049
61 0.007984
61 0.005972
62 0.006977
63 0.005991
61 0.006976
61 0.006944
65 0.005968
70 0.006018
75 0.004978
77 0.006962
81 0.006956
90 0.008005
95 0.007947
100 0.005984
105 0.00698
115 0.006983
119 0.006979
124 0.006961
130 0.006982
135 0.006021
137 0.006017
141 0.006977
154 0.006978
156 0.006978
163 0.007975
138 0.006984
83 0.006014
65 0.006015
57 0.006015
61 0.006976
63 0.007015
60 0.006016
59 0.006037
63 0.005981
75 0.006976
77 0.00695
79 0.00701
82 0.006026
89 0.005986
94 0.005963
99 0.006942
106 0.006975
111 0.006973
115 0.005984
119 0.00599
123 0.006015
132 0.006973
139 0.006968
143 0.00602
149 0.006017
155 0.005986
160 0.006009
165 0.005984
170 0.005982
174 0.005978
180 0.006982
161 0.006973
111 0.005982
62 0.00696
63 0.006974
64 0.00698
63 0.006014
56 0.005984
58 0.005998
61 0.005948
68 0.005985
72 0.00595
76 0.005982
79 0.005961
83 0.007008
92 0.006981
97 0.006983
104 0.007021
109 0.006034
114 0.005986
120 0.005978
123 0.005983
127 0.005983
131 0.005978
138 0.005962
142 0.005993
148 0.005979
156 0.004987
161 0.006997
169 0.006019
173 0.006019
180 0.006021
185 0.005984
191 0.005945
196 0.005984
181 0.006005
110 0.005988
75 0.005982
64 0.005961
66 0.005982
64 0.005978
60 0.005993
58 0.006021
66 0.005984
71 0.005982
74 0.005984
77 0.005974
81 0.00596
85 0.005971
91 0.005988
95 0.005973
103 0.005986
107 0.005984
111 0.006014
118 0.00499
124 0.004987
129 0.00596
134 0.004986
140 0.005984
145 0.005986
152 0.005984
158 0.005957
164 0.005993
172 0.005983
177 0.006004
182 0.006015
189 0.005016
198 0.004987
190 0.004984
140 0.00499
94 0.004981
73 0.004984
74 0.004988
76 0.004972
76 0.006001
77 0.005973
80 0.005953
87 0.006019
93 0.00602
95 0.00502
99 0.004991
103 0.005003
107 0.004983
110 0.004995
118 0.00499
124 0.004979
132 0.005995
136 0.004989
140 0.005018
147 0.006045
152 0.005989
158 0.005018
166 0.004986
171 0.004987
175 0.005018
181 0.005021
188 0.004986
192 0.004993
199 0.00498
162 0.004979
113 0.004986
87 0.00495
82 0.006028
84 0.006009
86 0.004977
85 0.004984
84 0.004986
87 0.004997
96 0.004985
100 0.004977
104 0.004985
108 0.004961
113 0.004994
116 0.005016
121 0.003978
126 0.003986
135 0.004992
139 0.004988
145 0.004983
150 0.004981
154 0.004981
162 0.004988
169 0.00503
179 0.005017
185 0.005023
190 0.004979
195 0.005022
202 0.00503
208 0.004977
216 0.004973
222 0.003989
228 0.00497
217 0.004985
136 0.003999
83 0.004025
77 0.003985
77 0.004022
79 0.005025
79 0.005008
79 0.005021
80 0.004966
87 0.004972
92 0.004983
96 0.004981
99 0.00399
105 0.003988
110 0.003966
117 0.004019
122 0.00402
128 0.003988
135 0.004001
139 0.004033
144 0.004978
148 0.004982
154 0.004991
160 0.005012
165 0.004019
173 0.004987
181 0.004021
190 0.004026
197 0.00405
204 0.003979
210 0.004022
217 0.004015
225 0.004026
131 0.003978
218 0.004976
152 0.004996
95 0.004992
69 0.003984
72 0.004021
74 0.001977
73 0.004022
72 0.004019
77 0.003982
82 0.003979
88 0.003997
90 0.003991
92 0.003985
98 0.004968
102 0.004033
107 0.004
116 0.00403
125 0.004018
132 0.003993
136 0.003988
141 0.004013
148 0.004025
155 0.003968
162 0.004003
169 0.003953
176 0.004016
181 0.003051
192 0.004034
198 0.004022
207 0.004028
213 0.002949
215 0.004029
175 0.004028
111 0.004021
74 0.002986
72 0.004109
76 0.003958
79 0.00399
80 0.002986
86 0.003018
90 0.003016
94 0.003037
94 0.002993
98 0.003023
103 0.002991
107 0.002993
113 0.003988
120 0.002993
127 0.002993
134 0.003016
139 0.004034
149 0.004023
155 0.004036
164 0.003985
168 0.00399
174 0.003027
179 0.003037
184 0.002994
192 0.002968
198 0.002958
183 0.004004
126 0.003985
81 0.003998
62 0.003993
65 0.004038
66 0.003042
66 0.004035
67 0.003024
70 0.003004
75 0.003025
82 0.003013
84 0.002976
85 0.002995
90 0.002974
96 0.003022
104 0.002991
110 0.002993
119 0.004024
125 0.002993
130 0.002972
135 0.003029
140 0.002992
146 0.002999
153 0.003025
159 0.002991
165 0.002976
171 0.002979
180 0.00399
185 0.002993
189 0.003947
149 0.003035
93 0.003037
62 0.003026
54 0.003053
57 0.003003
59 0.002985
56 0.002982
54 0.00299
55 0.002995
64 0.002993
67 0.002993
68 0.00304
71 0.001995
75 0.00203
79 0.003033
84 0.003034
90 0.002993
98 0.002955
104 0.002996
109 0.00299
114 0.003022
124 0.003036
128 0.002992
134 0.002992
141 0.004027
147 0.002994
153 0.001996
160 0.002045
167 0.002038
168 0.002025
127 0.00199
76 0.002961
53 0.003047
51 0.002993
52 0.002992
54 0.001994
53 0.001995
57 0.001996
64 0.002028
69 0.00201
70 0.002026
73 0.001999
78 0.00197
83 0.001961
88 0.002003
98 0.00199
106 0.003005
112 0.002992
117 0.002993
123 0.001974
129 0.001995
135 0.001996
137 0.001996
144 0.001991
152 0.002005
157 0.001999
165 0.001995
149 0.002047
103 0.002993
67 0.002992
55 0.002995
56 0.001995
58 0.001995
55 0.001996
55 0.002007
61 0.001986
66 0.010008
71 0.002019
73 0.002027
80 0.001994
84 0.001995
89 0.001042
96 0.001995
100 0.001995
106 0.00201
112 0.002056
118 0.002058
125 0.002009
131 0.002
137 0.001994
145 0.001991
149 0.002041
154 0.002027
160 0.001996
167 0.001992
174 0.001004
179 0.000998
186 0.000998
192 0.001963
143 0.002017
91 0.002007
64 0.001994
63 0.002027
64 0.002043
61 0.002028
57 0.000998
58 0.000998
62 0.001003
67 0.000998
73 0.000997
73 0.001996
75 0.001995
80 0.001997
84 0.001996
94 0.001995
99 0.001037
106 0.000998
112 0.000999
117 0.000999
123 0.000997
130 0.000997
135 0.000998
140 0.000997
149 0.001985
153 0.001995
158 0.001998
167 0.002042
174 0.000995
181 0.002041
188 0.001996
159 0.001995
106 0.001012
74 0.000999
67 0.000916
68 0.002028
72 0.002033
69 0.002019
69 0.001004
78 0.002044
84 0.001995
88 0.00203
87 0.002033
92 0.002025
99 0.000987
102 0.001035
106 0.001
112 0.001
120 0.000971
125 0.000997
129 0.000996
139 0.001995
145 0.000962
151 0.001995
155 0.002028
159 0.002025
168 0.001996
174 0.001995
181 0.001031
187 0.000988
189 0.0
133 0.000997
91 0.000997
73 0.001013
76 0.001996
77 0.000962
76 0.002
76 0.000998
81 0.000997
85 0.000963
89 0.000997
94 0.000999
97 0.0
103 0.001008
107 0.0
116 0.0
121 0.0
127 0.0
133 0.000999
138 0.001008
143 0.000997
149 0.000998
154 0.000988
160 0.000998
164 0.000997
171 0.0
179 0.0
189 0.0
194 0.0
200 0.0
206 0.0
211 0.0
165 0.0
109 0.000997
80 0.000998
75 0.0
76 0.000957
78 0.0
75 0.000998
75 0.0
81 0.0
86 0.0
90 0.0
92 0.0
97 0.0
101 0.0
104 0.0
109 0.0
114 0.0
122 0.0
131 0.000998
135 0.001002
141 0.0
145 0.0
149 0.0
154 0.0
162 0.0
167 0.0
175 0.000998
181 0.001018
188 0.0
196 0.0
206 0.0
199 0.0
142 0.0
94 0.0
76 0.0
75 0.0
80 0.0
79 0.0
76 0.000998
78 0.0
82 0.0
88 0.0
92 0.0
97 0.0
101 0.0
107 0.000999
112 0.0
120 0.0
126 0.000997
132 0.000998
139 0.000973
143 0.00096
147 0.000961
154 0.0
160 0.000996
167 0.0
173 0.001992
180 0.0
189 0.0
192 0.0
161 0.002059
111 0.002042
74 0.0
71 0.0
72 0.0
76 0.0
77 0.0
77 0.002042
80 0.001995
87 0.0
89 0.0
90 0.000965
96 0.001985
103 0.001993
106 0.0
109 0.0
115 0.0
122 0.002039
128 0.0
134 0.002027
139 0.002025
146 0.0
152 0.0
161 0.0
169 0.002036
176 0.002028
185 0.000966
192 0.000998
196 0.000997
171 0.001994
91 0.0
73 0.003028
72 0.003038
75 0.0
75 0.001985
70 0.0
70 0.003026
74 0.002025
84 0.000991
88 0.0
91 0.000997
92 0.0
96 0.001013
102 0.002026
108 0.002996
115 0.0
121 0.0
128 0.0
132 0.001996
136 0.002019
144 0.0
149 0.0
154 0.000994
162 0.001017
156 0.0
116 0.000954
77 0.003003
62 0.002028
64 0.0
65 0.0
66 0.0
65 0.002042
70 0.002018
78 0.0
83 0.0
88 0.0
91 0.0
95 0.0
99 0.001994
104 0.003
112 0.0
117 0.0
123 0.0
128 0.002027
135 0.002026
140 0.0
146 0.00098
154 0.000964
143 0.000998
103 0.0
71 0.00203
63 0.002028
66 0.0
68 0.000955
69 0.000984
69 0.002997
73 0.002039
81 0.000998
86 0.000984
88 0.0
91 0.001007
95 0.000967
101 0.002026
106 0.001994
114 0.001032
121 0.000999
128 0.00097
135 0.002989
140 0.002996
151 0.0
155 0.0
162 0.0
154 0.0
115 0.0
79 0.002028
129 0.002027
121 0.0
121 0.0
121 0.001001
121 0.002993
121 0.002027
121 0.000967
121 0.001005
121 0.0
121 0.0
121 0.0
121 0.002027
121 0.002025
121 0.000965
121 0.001
121 0.0
129 0.002033
138 0.002047
147 0.000985
155 0.001002
168 0.0
176 0.0
185 0.0
192 0.002986
202 0.001988
215 0.0
177 0.0
107 0.0
63 0.002025
50 0.002034
53 0.001004
53 0.000981
49 0.001004
51 0.00099
57 0.0
63 0.003025
67 0.003025
73 0.0
78 0.0
87 0.0
96 0.002031
106 0.002041
114 0.001018
125 0.002026
134 0.000968
140 0.0
146 0.000955
154 0.00203
160 0.002994
169 0.0
178 0.002993
187 0.00095
196 0.003038
203 0.003045
215 0.0
224 0.016955
238 0.0
215 0.0
143 0.0
87 0.002026
67 0.00303
68 0.0
72 0.002009
69 0.001023
67 0.002993
69 0.003028
78 0.000964
85 0.002992
91 0.003002
95 0.0
99 0.002964
106 0.002952
114 0.002992
122 0.003
129 0.00299
138 0.002013
144 0.003025
145 0.002993
153 0.002008
161 0.002991
173 0.001996
181 0.001992
187 0.001996
196 0.003026
206 0.002992
218 0.001997
229 0.002
236 0.002999
244 0.002987
254 0.003004
255 0.002993
141 0.003028
88 0.003027
72 0.002993
76 0.002041
79 0.003
79 0.00399
80 0.004028
88 0.002994
96 0.001994
102 0.002014
104 0.003023
108 0.002991
117 0.00303
121 0.003025
130 0.003003
138 0.002982
146 0.002002
150 0.003033
159 0.004027
169 0.003008
175 0.003003
182 0.001996
191 0.004024
198 0.003957
211 0.004026
218 0.00399
232 0.002011
236 0.00199
187 0.0
193 0.002992
185 0.002992
136 0.001996
113 0.003004
108 0.000993
109 0.003013
111 0.00399
111 0.00399
112 0.00399
116 0.001995
119 0.001994
122 0.001995
124 0.003983
126 0.003999
130 0.001997
132 0.001994
136 0.001995
140 0.002983
145 0.002993
151 0.004031
154 0.00399
158 0.002866
161 0.003006
164 0.002026
168 0.004028
172 0.003989
177 0.001988
182 0.001988
185 0.002003
188 0.005019
193 0.003992
171 0.00399
132 0.004022
102 0.002003
99 0.002999
103 0.002027
104 0.003989
104 0.003995
104 0.001991
106 0.002992
109 0.001982
112 0.004024
115 0.002999
118 0.00404
121 0.003966
126 0.00202
130 0.002996
134 0.002991
137 0.003983
139 0.003989
145 0.001995
148 0.001994
151 0.001979
155 0.00399
160 0.002997
165 0.00399
168 0.003989
173 0.001994
177 0.002997
182 0.00299
185 0.004029
189 0.004987
170 0.00199
118 0.001996
90 0.001999
84 0.005013
85 0.001979
86 0.00399
84 0.004029
85 0.001996
89 0.00298
94 0.002989
98 0.004016
100 0.004022
103 0.001994
107 0.00201
111 0.002991
116 0.005025
124 0.003001
128 0.00403
133 0.004025
140 0.001997
145 0.002995
149 0.002983
155 0.004988
161 0.004987
166 0.002994
171 0.001995
176 0.001995
181 0.005019
191 0.001995
173 0.005022
125 0.004963
84 0.001978
77 0.002998
77 0.002984
81 0.004987
82 0.005023
85 0.002988
90 0.002998
94 0.001979
98 0.005023
104 0.00201
108 0.002961
112 0.005003
114 0.001968
116 0.001992
121 0.002998
124 0.005961
128 0.004995
137 0.003019
144 0.002976
146 0.002992
147 0.004987
155 0.001995
160 0.00502
165 0.004987
172 0.002012
178 0.002003
160 0.002958
117 0.005023
85 0.004986
75 0.005019
76 0.002996
77 0.003011
76 0.002005
77 0.002988
82 0.002036
85 0.005017
88 0.006022
92 0.002995
95 0.003008
98 0.002989
103 0.004993
107 0.00602
112 0.003001
117 0.001994
122 0.002992
129 0.002037
133 0.003036
135 0.00503
140 0.005984
146 0.002976
149 0.003005
153 0.001967
157 0.004986
163 0.005019
169 0.00299
175 0.003013
149 0.002995
103 0.002986
76 0.002987
68 0.004986
70 0.005988
70 0.002991
69 0.002958
67 0.002975
68 0.005988
72 0.005983
78 0.002941
81 0.002948
84 0.00294
89 0.002991
92 0.002979
95 0.004993
100 0.006033
105 0.003994
110 0.00296
115 0.002995
117 0.005984
119 0.005984
126 0.002987
128 0.002994
135 0.00301
138 0.003014
142 0.003991
147 0.004987
154 0.005018
160 0.004001
167 0.003955
172 0.00398
154 0.006017
108 0.006015
69 0.004018
63 0.003025
65 0.003979
65 0.002984
64 0.002997
67 0.006025
71 0.006022
77 0.003975
80 0.002986
81 0.002984
84 0.006015
87 0.006983
92 0.002989
96 0.004021
106 0.002992
111 0.003993
115 0.002987
118 0.005984
121 0.005984
128 0.003999
132 0.003987
137 0.002953
140 0.006024
145 0.006981
151 0.003998
156 0.00399
165 0.003989
144 0.003978
103 0.003978
78 0.006035
73 0.005986
75 0.003992
76 0.003985
77 0.003025
76 0.005984
80 0.005987
87 0.004002
92 0.004005
95 0.003956
97 0.003992
99 0.003979
105 0.007973
108 0.008015
116 0.003987
121 0.00399
125 0.004004
131 0.006021
134 0.005984
139 0.002972
145 0.004025
151 0.003976
156 0.003993
159 0.003009
165 0.006773
169 0.006981
175 0.003993
172 0.003949
134 0.003989
94 0.006023
76 0.006972
76 0.003979
78 0.003994
77 0.003993
75 0.004003
79 0.003975
85 0.006991
90 0.006981
94 0.003989
96 0.003986
99 0.003955
103 0.006981
107 0.008012
113 0.003983
119 0.003986
125 0.004987
130 0.004988
134 0.004987
140 0.007025
144 0.007019
151 0.004008
156 0.00399
160 0.003016
163 0.007014
167 0.007016
175 0.004985
182 0.007041
189 0.004033
181 0.003991
154 0.006008
96 0.007012
78 0.007019
80 0.003996
82 0.004023
81 0.004988
80 0.00698
80 0.006996
83 0.007011
89 0.007018
92 0.007978
95 0.004969
98 0.005011
102 0.004989
106 0.007979
109 0.007012
114 0.004989
120 0.004021
125 0.004035
131 0.006981
136 0.007013
144 0.007946
152 0.007994
155 0.004955
160 0.004973
164 0.004973
173 0.007947
177 0.007978
182 0.004984
189 0.004984
179 0.004032
132 0.00701
94 0.006937
81 0.007985
84 0.006982
86 0.004951
88 0.005009
92 0.004987
96 0.007978
100 0.00797
104 0.00498
107 0.004991
110 0.004987
115 0.007979
121 0.007969
126 0.00702
131 0.007979
138 0.005971
144 0.005992
148 0.005982
153 0.007979
158 0.007931
163 0.004988
167 0.004994
171 0.005002
177 0.007979
182 0.00797
188 0.006979
170 0.006983
105 0.006978
91 0.005965
87 0.00502
90 0.007974
92 0.007981
93 0.00601
92 0.005019
95 0.00499
104 0.007976
107 0.006978
111 0.006974
114 0.008024
117 0.005966
122 0.005984
125 0.005016
131 0.00795
137 0.007978
141 0.005987
144 0.005017
148 0.004972
152 0.007979
154 0.00802
156 0.007976
163 0.006977
170 0.004966
178 0.004991
184 0.005971
191 0.007003
187 0.007971
132 0.00498
97 0.00597
84 0.005994
84 0.007975
83 0.008014
80 0.007977
78 0.00697
82 0.005981
88 0.005967
94 0.005985
100 0.007009
100 0.006955
103 0.00599
108 0.005986
113 0.00597
115 0.007979
122 0.007031
132 0.007963
135 0.007979
139 0.00697
140 0.005973
143 0.005986
147 0.006986
150 0.006992
155 0.006009
162 0.006002
165 0.00597
169 0.007978
175 0.005011
178 0.007973
131 0.007962
91 0.005997
76 0.006
76 0.006016
79 0.006969
80 0.006983
77 0.00599
78 0.005998
83 0.005988
87 0.007947
90 0.004977
94 0.006985
97 0.006981
103 0.006982
104 0.006957
109 0.005971
114 0.007041
118 0.006992
122 0.005982
127 0.005984
131 0.006949
138 0.007978
143 0.005935
147 0.006978
152 0.007018
156 0.006981
161 0.006939
168 0.006981
167 0.007019
135 0.006975
96 0.005982
78 0.006017
80 0.005971
84 0.005968
84 0.003996
83 0.005973
85 0.007979
90 0.007021
95 0.005988
99 0.005982
102 0.005984
104 0.007029
107 0.007007
111 0.005953
116 0.005996
123 0.006981
129 0.005974
133 0.00596
136 0.006035
138 0.006038
142 0.005985
149 0.005967
152 0.005985
156 0.006024
160 0.005988
166 0.00698
170 0.00698
176 0.00698
172 0.005983
132 0.005967
87 0.005954
77 0.005995
79 0.005984
79 0.005987
77 0.006015
75 0.005979
79 0.006024
85 0.005988
88 0.006989
89 0.006017
88 0.005975
91 0.004986
99 0.006982
104 0.005978
114 0.005985
118 0.005981
123 0.005985
128 0.006016
131 0.006021
134 0.005969
140 0.005973
145 0.005954
153 0.006023
157 0.005939
160 0.006021
165 0.006016
171 0.00598
175 0.00598
180 0.00597
184 0.006022
158 0.005988
101 0.00597
81 0.005978
78 0.005987
80 0.005979
78 0.005996
75 0.004984
75 0.006019
81 0.005978
85 0.005981
87 0.005992
89 0.006016
90 0.005986
95 0.00597
99 0.005989
108 0.006016
111 0.00502
115 0.005983
120 0.00495
126 0.004973
130 0.005983
134 0.004992
139 0.005984
144 0.006014
148 0.005983
153 0.00599
157 0.00601
164 0.005986
169 0.005974
175 0.005984
176 0.005983
149 0.004964
96 0.004984
79 0.005009
78 0.004993
79 0.005016
78 0.006024
77 0.005983
78 0.005999
85 0.005986
90 0.005987
89 0.005945
93 0.004952
97 0.005019
102 0.004985
106 0.004994
109 0.004982
115 0.005017
121 0.005016
126 0.005995
129 0.005978
133 0.005969
138 0.005024
143 0.005983
146 0.005015
148 0.004994
156 0.00497
160 0.004987
164 0.004987
169 0.004993
159 0.004984
107 0.004987
83 0.004988
78 0.005983
79 0.005965
78 0.006019
76 0.00598
76 0.005031
83 0.004979
87 0.004994
90 0.004986
92 0.005056
94 0.005018
97 0.004987
102 0.004986
110 0.004976
114 0.004983
117 0.00399
120 0.004008
124 0.005024
129 0.003987
135 0.00396
138 0.004982
143 0.005023
146 0.005038
152 0.004992
158 0.004991
163 0.004985
168 0.004986
172 0.004989
175 0.004986
157 0.004986
102 0.003989
80 0.00399
77 0.003989
78 0.004971
78 0.005029
75 0.00502
73 0.004989
78 0.004991
82 0.004974
85 0.004989
87 0.004992
89 0.005017
93 0.004996
100 0.004999
102 0.003982
106 0.004048
109 0.004036
112 0.004019
115 0.004993
119 0.0
131 0.004946
137 0.004967
141 0.00502
145 0.005025
151 0.004023
155 0.004022
158 0.004082
162 0.00399
166 0.004025
169 0.00399
171 0.003958
139 0.003954
91 0.003939
78 0.003976
77 0.004996
78 0.005022
78 0.005021
77 0.004025
78 0.003984
83 0.003987
89 0.004032
91 0.004032
93 0.003998
97 0.003983
102 0.003992
105 0.003984
110 0.003988
114 0.004988
119 0.00499
124 0.004028
127 0.003987
133 0.004021
141 0.004017
146 0.004004
152 0.003988
155 0.003978
162 0.003999
164 0.00396
167 0.003997
174 0.00399
169 0.00399
120 0.003031
92 0.004023
85 0.002998
85 0.003991
85 0.004024
85 0.003986
85 0.00399
91 0.003998
95 0.003986
99 0.004043
101 0.003991
104 0.004024
109 0.004054
112 0.003998
116 0.003027
121 0.003046
126 0.002996
135 0.002995
138 0.004
142 0.003999
148 0.00399
152 0.004021
156 0.003995
161 0.00396
167 0.003953
170 0.003967
174 0.003959
178 0.003953
184 0.002999
178 0.003011
140 0.003001
95 0.003999
85 0.003989
87 0.003989
86 0.004023
84 0.003989
81 0.003984
82 0.002991
86 0.002994
91 0.004019
95 0.002992
98 0.002992
101 0.00303
106 0.003026
110 0.003068
113 0.00399
118 0.003989
123 0.003023
130 0.003019
133 0.003023
137 0.004024
141 0.003998
144 0.00399
148 0.003984
153 0.002993
159 0.002993
164 0.00297
170 0.002998
174 0.002999
180 0.002992
184 0.003026
159 0.002983
116 0.002987
91 0.002992
83 0.00399
86 0.003994
84 0.003994
82 0.003001
83 0.002961
85 0.002992
91 0.002993
95 0.003023
96 0.002989
100 0.003023
104 0.003022
106 0.002992
110 0.00399
119 0.002961
124 0.002993
130 0.001994
134 0.002992
139 0.002993
143 0.003024
146 0.003033
153 0.002992
159 0.002993
162 0.003023
164 0.002987
172 0.001966
177 0.00296
181 0.002032
149 0.002999
112 0.003008
91 0.002989
90 0.002992
91 0.002999
93 0.003024
91 0.002992
90 0.003024
93 0.002993
101 0.003028
103 0.002992
105 0.003035
111 0.00299
115 0.00298
119 0.001996
123 0.001996
127 0.001983
133 0.001995
138 0.0
142 0.003054
147 0.002986
152 0.00197
156 0.002992
160 0.002034
165 0.00203
171 0.001996
175 0.002021
180 0.001996
186 0.002993
189 0.002994
150 0.003027
111 0.002994
91 0.002003
89 0.002037
91 0.002957
90 0.001996
86 0.001966
88 0.002806
93 0.003031
97 0.001995
99 0.001995
102 0.001991
106 0.002029
110 0.002032
115 0.001995
124 0.001981
129 0.001995
133 0.00202
136 0.001996
141 0.001948
144 0.002026
148 0.002032
153 0.002001
156 0.001996
162 0.002025
168 0.002026
172 0.001996
179 0.003002
183 0.003005
188 0.002019
192 0.002032
197 0.001993
196 0.001977
163 0.001995
119 0.002035
95 0.002076
92 0.001997
92 0.002028
91 0.002026
86 0.002
88 0.001953
91 0.001966
96 0.001957
99 0.002004
100 0.001995
104 0.001954
107 0.002025
110 0.001995
115 0.002024
119 0.002025
123 0.002025
131 0.001003
133 0.001998
137 0.000997
140 0.000997
145 0.001964
149 0.001995
154 0.002041
159 0.002024
162 0.00203
168 0.001995
170 0.001996
176 0.002026
184 0.001994
189 0.000966
195 0.001044
191 0.001011
135 0.000997
100 0.002041
87 0.002036
87 0.002044
88 0.00203
87 0.002027
86 0.000999
90 0.00196
98 0.000961
101 0.000998
102 0.000967
104 0.000997
110 0.001992
114 0.001943
115 0.002032
121 0.002042
126 0.001996
131 0.000997
135 0.000998
140 0.002006
145 0.001002
148 0.001039
151 0.000971
156 0.001029
163 0.001954
165 0.0
171 0.0
177 0.002013
181 0.002031
189 0.000954
190 0.000967
131 0.001039
102 0.001107
93 0.000936
96 0.000994
98 0.001992
98 0.000999
98 0.001997
102 0.001977
104 0.000999
107 0.002017
110 0.002026
112 0.002033
118 0.002026
121 0.001997
125 0.002031
130 0.0
135 0.000973
141 0.000997
145 0.000963
151 0.000995
153 0.001002
156 0.000998
161 0.001996
167 0.001987
175 0.001
177 0.001993
182 0.001995
187 0.0
190 0.0
196 0.000997
193 0.0
