101 0.024932
105 0.004014
111 0.003989
113 0.004035
115 0.002982
118 0.00304
128 0.002026
134 0.000997
141 0.0
146 0.000997
151 0.002004
154 0.000998
158 0.001995
160 0.004038
164 0.003942
168 0.002963
170 0.00396
133 0.003963
72 0.003962
66 0.003948
78 0.005931
88 0.005953
91 0.007978
102 0.006981
110 0.007976
113 0.005983
115 0.005984
117 0.005984
125 0.005988
133 0.00588
136 0.005979
143 0.006025
148 0.006034
153 0.006034
157 0.005978
161 0.004978
164 0.005985
167 0.003989
169 0.004021
173 0.003988
158 0.004031
83 0.003038
64 0.0
71 0.000998
83 0.000997
93 0.0
98 0.001005
109 0.00099
112 0.001012
113 0.001947
117 0.002959
125 0.003985
130 0.003997
138 0.004038
143 0.003955
149 0.004002
153 0.004
156 0.004017
160 0.003957
163 0.003969
165 0.004956
169 0.004954
170 0.004952
121 0.00499
80 0.004956
64 0.004947
78 0.005018
88 0.004987
97 0.005023
108 0.004988
112 0.004987
115 0.005031
115 0.004947
118 0.006016
127 0.005983
133 0.005984
141 0.005984
145 0.007937
148 0.006983
153 0.007931
154 0.00701
157 0.007979
161 0.00797
164 0.007975
154 0.007951
112 0.007975
67 0.007979
62 0.007034
74 0.007037
85 0.007018
93 0.007015
103 0.007026
110 0.006014
110 0.006014
112 0.004018
120 0.003999
125 0.004031
134 0.00302
138 0.003043
143 0.0
148 0.0
153 0.000999
155 0.001995
159 0.001994
160 0.002992
120 0.00399
68 0.004986
58 0.005985
67 0.005984
78 0.006033
82 0.006981
90 0.005983
99 0.004027
104 0.00399
105 0.002993
111 0.002992
116 0.003036
125 0.004021
133 0.00304
137 0.002992
144 0.001986
148 0.002993
151 0.001994
155 0.002993
159 0.0
162 0.000997
137 0.001996
91 0.001996
60 0.002993
66 0.002004
77 0.002992
81 0.001836
90 0.002993
97 0.002992
103 0.003003
104 0.002995
107 0.004986
114 0.004937
119 0.004954
128 0.005041
136 0.004987
140 0.004986
145 0.004981
148 0.00495
153 0.006027
156 0.00698
158 0.005984
162 0.005106
166 0.004958
145 0.004989
76 0.004986
62 0.002038
69 0.002983
81 0.001996
85 0.000963
93 0.0
102 0.0
104 0.001965
105 0.001966
111 0.001962
116 0.001993
124 0.001993
132 0.001995
138 0.002047
143 0.001995
148 0.004036
152 0.004972
156 0.005019
158 0.004987
164 0.00496
166 0.005953
135 0.005974
79 0.005889
62 0.008015
66 0.008021
78 0.007832
82 0.007015
86 0.007978
98 0.006981
101 0.007975
101 0.007014
107 0.007033
112 0.006974
119 0.006927
125 0.00703
135 0.005984
142 0.00599
146 0.006035
151 0.006
154 0.005958
160 0.003979
162 0.005039
165 0.004024
169 0.003026
162 0.003021
120 0.003028
66 0.001035
67 0.000981
76 0.0
83 0.000997
88 0.000997
95 0.000997
103 0.000998
104 0.002998
106 0.002993
114 0.002993
119 0.002993
128 0.004975
136 0.004989
140 0.004987
146 0.005976
152 0.005934
154 0.005987
159 0.005966
162 0.005952
166 0.006047
169 0.006016
139 0.006026
84 0.005993
68 0.005985
76 0.007995
87 0.007996
88 0.006982
94 0.005031
103 0.005018
108 0.005019
110 0.002988
113 0.003036
117 0.004035
125 0.002042
134 0.001033
138 0.001011
145 0.00107
149 0.001004
154 0.000997
158 0.002042
160 0.002049
164 0.001995
167 0.001995
172 0.000999
157 0.000999
100 0.001007
71 0.0
79 0.0
86 0.000997
90 0.000997
93 0.000997
103 0.000997
109 0.000997
110 0.000998
116 0.001995
121 0.00299
127 0.004037
136 0.003974
143 0.005984
146 0.006969
150 0.006981
154 0.00799
158 0.006982
162 0.007989
164 0.006974
166 0.007982
170 0.007979
172 0.007064
143 0.006979
102 0.006982
76 0.006982
85 0.006019
91 0.007017
95 0.006016
104 0.004988
108 0.004115
109 0.001995
111 0.002027
114 0.002021
120 0.001051
126 0.0
133 0.0
135 0.000997
139 0.0
147 0.000997
153 0.000967
157 0.000997
163 0.000953
164 0.000965
139 0.002993
91 0.004024
74 0.003975
80 0.005972
88 0.006981
90 0.006024
98 0.005017
105 0.005029
108 0.005032
108 0.004045
113 0.00503
116 0.004024
125 0.004015
132 0.004026
136 0.004015
140 0.004021
144 0.004026
148 0.004021
151 0.004038
150 0.004062
112 0.00403
77 0.003024
75 0.003037
86 0.001995
90 0.001995
97 0.002026
105 0.001028
108 0.002028
108 0.0
111 0.00096
115 0.002956
124 0.00402
133 0.004952
138 0.006961
145 0.006995
149 0.006838
152 0.007026
157 0.006987
159 0.007986
135 0.006952
78 0.006828
46 0.006998
56 0.007263
60 0.006981
61 0.005985
69 0.005094
84 0.004024
90 0.004986
92 0.002025
98 0.002075
106 0.002028
119 0.001043
128 0.001036
140 0.0
149 0.0
154 0.000997
162 0.0
165 0.0
170 0.0
177 0.001995
182 0.001863
188 0.002
194 0.001995
197 0.002999
190 0.003994
112 0.003995
58 0.003991
57 0.003996
69 0.005993
70 0.00599
71 0.006994
76 0.007981
91 0.007979
97 0.00697
97 0.006984
105 0.005014
116 0.003042
124 0.003033
136 0.002992
146 0.003025
152 0.003025
157 0.003022
163 0.000997
167 0.000998
172 0.000998
177 0.0
183 0.000952
188 0.000997
192 0.000997
198 0.000959
199 0.000998
126 0.001001
68 0.001018
62 0.002993
73 0.003001
77 0.002992
77 0.002993
88 0.00296
99 0.002992
103 0.002959
106 0.005018
115 0.005997
121 0.006993
133 0.007012
140 0.007012
149 0.006974
157 0.00696
161 0.00698
167 0.006979
171 0.006981
178 0.006975
182 0.007979
187 0.006013
192 0.007012
197 0.005969
198 0.006014
204 0.005984
172 0.003019
107 0.003987
63 0.002974
68 0.004018
82 0.003018
84 0.003025
86 0.002988
100 0.00203
108 0.002025
107 0.00199
112 0.002075
117 0.002026
128 0.000998
140 0.001027
148 0.0
154 0.000997
160 0.0
164 0.000995
171 0.001002
174 0.000998
180 0.0
187 0.0
190 0.0
194 0.0
196 0.0
201 0.0
198 0.000997
148 0.001995
67 0.001974
65 0.001965
75 0.001996
83 0.001982
84 0.002029
95 0.001996
105 0.003022
106 0.002993
108 0.002988
115 0.00399
124 0.003991
134 0.004993
142 0.004989
149 0.006022
157 0.00602
160 0.006035
166 0.005998
171 0.006955
175 0.007976
181 0.007016
186 0.007979
191 0.004996
195 0.004019
198 0.004019
201 0.004022
136 0.004023
80 0.004107
56 0.002036
68 0.00299
79 0.001999
85 0.002026
89 0.002027
102 0.001999
106 0.002025
106 0.001996
111 0.002025
121 0.0
128 0.001009
138 0.0
145 0.000974
151 0.001035
158 0.000969
162 0.001023
167 0.001984
174 0.002994
177 0.003026
182 0.003034
185 0.002954
191 0.002992
147 0.002991
86 0.003952
48 0.004018
61 0.003978
69 0.004001
75 0.004035
82 0.003987
95 0.003987
99 0.003988
100 0.003993
105 0.00402
112 0.003993
123 0.00399
135 0.003957
141 0.007022
149 0.007979
155 0.006009
159 0.006995
164 0.004008
170 0.00406
174 0.003998
179 0.004021
186 0.003023
187 0.002028
110 0.000953
50 0.001021
40 0.001018
54 0.002029
64 0.002011
64 0.003026
76 0.002993
84 0.002017
90 0.002988
93 0.003993
98 0.004024
110 0.004038
122 0.004985
129 0.004977
139 0.005025
144 0.004979
152 0.004973
158 0.004986
163 0.005019
170 0.004012
176 0.007013
178 0.007017
184 0.005226
187 0.006974
152 0.006029
58 0.005993
41 0.004987
51 0.003984
63 0.004014
65 0.004013
74 0.00399
88 0.003026
92 0.00399
93 0.002996
98 0.003989
110 0.002988
120 0.002947
127 0.003026
141 0.001003
150 0.0
153 0.0
159 0.0
163 0.0
170 0.0
175 0.00101
180 0.0
184 0.001018
191 0.000984
192 0.001995
115 0.00198
63 0.002002
46 0.002951
61 0.002992
70 0.002962
72 0.003022
86 0.004037
92 0.005018
96 0.004988
98 0.005019
105 0.005948
116 0.004977
124 0.006029
135 0.006032
141 0.006931
146 0.007031
154 0.006986
158 0.006965
165 0.006969
172 0.006997
174 0.006996
180 0.006983
186 0.007982
189 0.007017
169 0.006993
90 0.005963
47 0.004985
53 0.003034
64 0.002991
72 0.003001
82 0.002
92 0.002993
98 0.00199
98 0.000985
102 0.002024
111 0.001955
119 0.000997
131 0.0
139 0.0
144 0.000998
152 0.000844
158 0.000997
161 0.001
166 0.000967
171 0.000965
177 0.001035
179 0.000997
142 0.001004
58 0.002019
45 0.001986
57 0.002934
69 0.003984
73 0.004013
85 0.00399
97 0.003998
97 0.003986
97 0.004025
101 0.00399
111 0.003991
122 0.004989
129 0.006015
136 0.007979
145 0.005984
149 0.004975
155 0.002994
160 0.001989
166 0.001042
169 0.00103
129 0.000993
77 0.000968
45 0.000996
55 0.0
64 0.00099
73 0.0
82 0.000997
92 0.000944
91 0.0
90 0.0
97 0.0
110 0.000987
118 0.001993
129 0.001996
135 0.001925
144 0.002025
151 0.002995
155 0.001994
162 0.002992
169 0.003041
154 0.001992
63 0.003991
33 0.006026
39 0.007012
48 0.006983
49 0.007013
55 0.006981
72 0.007036
79 0.007031
82 0.007946
86 0.006927
98 0.007057
110 0.005991
118 0.005986
131 0.005047
141 0.005108
147 0.004984
154 0.004983
163 0.004019
167 0.00204
175 0.001039
180 0.002035
186 0.000987
192 0.002025
196 0.0
200 0.000976
206 0.001029
205 0.0
116 0.000968
50 0.000991
40 0.001998
50 0.000965
52 0.002019
49 0.000996
60 0.00202
71 0.002033
79 0.002029
82 0.00204
91 0.001996
104 0.003989
112 0.004047
125 0.004045
136 0.005022
142 0.005987
150 0.006982
157 0.006985
162 0.006999
170 0.004994
176 0.005971
181 0.005984
188 0.006033
192 0.004968
197 0.003989
195 0.002996
145 0.003957
55 0.003039
49 0.001977
58 0.001985
63 0.001965
65 0.001995
73 0.002026
89 0.001034
93 0.001034
97 0.001022
105 0.002059
115 0.001005
125 0.001993
134 0.00195
143 0.000998
152 0.0
157 0.0
164 0.0
170 0.0
177 0.000999
182 0.002993
188 0.003991
192 0.002992
198 0.00502
204 0.006036
194 0.00602
115 0.006983
53 0.005982
54 0.005017
69 0.00402
72 0.002989
73 0.002975
88 0.003047
95 0.002997
96 0.003026
101 0.00402
109 0.002992
121 0.002993
128 0.00296
139 0.002992
148 0.003037
154 0.003078
161 0.001997
166 0.000947
171 0.00099
178 0.0
183 0.000997
183 0.0
103 0.0
61 0.0
52 0.001
66 0.000999
70 0.001999
71 0.000958
79 0.001996
95 0.001995
99 0.001846
101 0.001995
110 0.001995
124 0.001997
132 0.002023
144 0.004005
150 0.003023
157 0.004024
164 0.002926
168 0.00399
175 0.00702
181 0.00795
185 0.007967
189 0.007965
114 0.006984
58 0.007976
54 0.007013
63 0.007027
71 0.006028
74 0.006019
84 0.006005
97 0.006978
100 0.006016
104 0.006009
114 0.006023
122 0.006028
135 0.005986
141 0.005987
152 0.004032
159 0.00499
166 0.000959
170 0.002038
177 0.000997
183 0.0
187 0.001026
193 0.001997
200 0.004031
177 0.004023
78 0.004047
52 0.004017
58 0.003907
70 0.004016
71 0.003949
79 0.004025
90 0.004122
97 0.005986
99 0.00602
104 0.00602
116 0.005961
128 0.005954
135 0.007019
146 0.00798
154 0.007984
158 0.007981
164 0.00503
173 0.00399
177 0.005047
184 0.003
188 0.004986
194 0.003999
201 0.003985
203 0.004025
142 0.003024
83 0.003992
53 0.002028
68 0.001936
76 0.001954
80 0.001956
91 0.002976
100 0.001996
102 0.003032
103 0.002004
109 0.001995
121 0.002035
129 0.002089
141 0.001996
151 0.0
157 0.000998
161 0.001029
167 0.001039
173 0.000998
178 0.000998
182 0.000998
188 0.000997
195 0.000997
191 0.000998
105 0.001004
61 0.000966
53 0.000997
71 0.001996
77 0.001996
84 0.001995
94 0.001995
102 0.001995
103 0.002027
106 0.00202
117 0.003991
128 0.00399
138 0.004017
149 0.003989
156 0.005092
163 0.005984
169 0.005949
173 0.005985
179 0.006981
186 0.006948
189 0.007015
196 0.006971
200 0.006991
185 0.007149
101 0.005986
56 0.004022
47 0.003992
65 0.001969
69 0.002051
75 0.003043
87 0.003033
95 0.002992
98 0.000997
103 0.0
108 0.0
119 0.002033
133 0.00101
141 0.001995
152 0.001996
157 0.001995
164 0.003993
170 0.003988
174 0.004036
182 0.003874
189 0.004023
192 0.003881
198 0.003961
202 0.003938
208 0.004029
143 0.004988
76 0.004982
39 0.005015
44 0.004971
61 0.004986
64 0.005981
70 0.006985
82 0.006966
90 0.007031
92 0.007042
97 0.006971
109 0.005056
117 0.00703
131 0.005014
139 0.006014
150 0.004974
158 0.004995
162 0.004985
170 0.005012
174 0.005013
181 0.004052
188 0.003994
192 0.004024
198 0.003998
203 0.005017
208 0.003992
188 0.004045
98 0.003022
42 0.002001
42 0.002206
54 0.001995
64 0.001995
73 0.000997
83 0.000999
91 0.0
93 0.001994
97 0.002025
107 0.001995
120 0.003024
128 0.004021
141 0.00399
151 0.006976
155 0.007061
162 0.007042
167 0.006996
174 0.006982
180 0.006973
185 0.007015
192 0.007075
195 0.006996
199 0.006002
203 0.00702
179 0.005979
89 0.007014
37 0.007011
41 0.007013
60 0.006012
66 0.005993
75 0.006019
87 0.005029
90 0.006017
91 0.003051
97 0.001997
104 0.001047
118 0.00101
128 0.00204
137 0.000966
144 0.002046
150 0.000993
155 0.002059
162 0.002006
167 0.001995
173 0.001995
176 0.002006
183 0.002038
174 0.001028
119 0.001048
38 0.0
32 0.0
43 0.0
57 0.0
59 0.0
72 0.0
82 0.001995
84 0.002993
88 0.001946
98 0.002993
108 0.002992
121 0.003984
133 0.005973
139 0.005985
147 0.005977
151 0.005983
158 0.007011
165 0.00782
170 0.007013
176 0.007992
181 0.007979
184 0.007978
192 0.00799
175 0.007975
92 0.007979
31 0.006004
32 0.007017
48 0.005947
50 0.007011
53 0.00598
68 0.006049
75 0.006029
78 0.00502
85 0.004024
92 0.002992
104 0.002987
113 0.002992
125 0.002976
133 0.004024
140 0.002991
145 0.004028
153 0.003051
158 0.003045
165 0.002992
173 0.0
177 0.000998
181 0.000998
187 0.0
191 0.00095
132 0.001995
69 0.001995
32 0.001937
44 0.001997
49 0.001993
48 0.002025
53 0.002037
69 0.002031
75 0.002993
76 0.002046
86 0.002975
99 0.004987
107 0.005021
119 0.004988
125 0.004987
134 0.004984
141 0.005025
146 0.005018
153 0.004999
161 0.006031
165 0.007012
173 0.006981
177 0.006981
183 0.006983
189 0.006982
193 0.006985
189 0.007009
143 0.007166
51 0.00699
39 0.005018
49 0.005969
55 0.004997
55 0.005955
66 0.004988
76 0.005984
78 0.004023
80 0.003976
90 0.001994
101 0.0
112 0.0
121 0.0
130 0.001995
134 0.001995
142 0.001981
147 0.001981
155 0.004987
164 0.004983
168 0.004986
174 0.00695
182 0.006019
188 0.004975
190 0.004991
131 0.004987
70 0.004997
36 0.003992
44 0.003988
52 0.003024
51 0.00402
62 0.003975
72 0.00402
77 0.003961
79 0.003989
87 0.003996
102 0.001994
110 0.003985
122 0.001976
130 0.002992
139 0.001995
147 0.001995
152 0.001996
161 0.002019
167 0.000999
173 0.0
181 0.00207
188 0.002012
193 0.002952
198 0.001817
202 0.002994
188 0.002947
85 0.004006
47 0.004985
43 0.004948
53 0.006016
52 0.006001
53 0.006037
69 0.007054
75 0.007949
80 0.007972
86 0.003985
92 0.004984
106 0.004024
115 0.005018
127 0.003977
138 0.003982
144 0.004021
153 0.003982
157 0.003976
166 0.004022
175 0.003025
179 0.002929
187 0.002991
193 0.004022
198 0.002038
202 0.000996
209 0.0
207 0.0
122 0.0
66 0.0
44 0.0
56 0.0
62 0.001
59 0.000988
71 0.002051
81 0.002993
86 0.002961
89 0.002992
98 0.002994
112 0.002979
119 0.002958
132 0.002933
142 0.003997
147 0.006018
154 0.006995
161 0.007958
166 0.004985
174 0.005984
182 0.006015
186 0.006016
193 0.003989
198 0.002026
201 0.003026
206 0.001994
210 0.003061
182 0.002067
79 0.000968
54 0.000998
61 0.0
76 0.0
77 0.0
85 0.0
93 0.0
99 0.0
101 0.001961
107 0.000957
116 0.000997
126 0.0
136 0.002029
146 0.002007
150 0.000965
158 0.000948
163 0.000995
170 0.000995
176 0.000998
182 0.000997
188 0.002995
195 0.00296
198 0.003006
202 0.003988
208 0.003981
209 0.004044
135 0.004042
75 0.004036
45 0.004006
60 0.004035
67 0.003987
67 0.005986
80 0.006947
85 0.005989
91 0.005026
94 0.004018
101 0.001982
111 0.001951
124 0.001995
131 0.002046
143 0.000964
149 0.0
156 0.0
162 0.002018
170 0.002001
174 0.001994
181 0.001996
186 0.003006
193 0.003948
199 0.004035
201 0.005023
206 0.005026
210 0.005018
185 0.004977
76 0.004996
45 0.005022
49 0.005963
60 0.006982
62 0.006938
64 0.007028
79 0.007948
86 0.006985
87 0.007945
91 0.00698
99 0.007979
113 0.005972
120 0.00611
133 0.006014
144 0.00395
148 0.005983
153 0.003978
158 0.004992
166 0.003987
174 0.004006
179 0.003996
185 0.002983
192 0.002042
195 0.001998
199 0.001995
203 0.001032
202 0.001987
112 0.002013
58 0.00199
40 0.00208
56 0.001979
61 0.002018
64 0.00205
73 0.001995
84 0.001937
85 0.0
86 0.0
95 0.001012
107 0.000999
115 0.001017
127 0.001995
136 0.003956
141 0.003867
147 0.003991
151 0.004014
160 0.005984
169 0.005986
173 0.005958
179 0.005985
184 0.007036
188 0.007007
193 0.00793
171 0.006985
86 0.007978
35 0.007975
36 0.007978
51 0.007012
54 0.005982
58 0.00598
74 0.003995
79 0.00499
80 0.002933
88 0.001964
102 0.0
109 0.0
122 0.000965
127 0.000999
137 0.001016
144 0.000998
148 0.001008
157 0.000998
165 0.00205
169 0.002027
176 0.001979
180 0.002
186 0.002027
191 0.001996
196 0.002993
176 0.002942
69 0.002993
36 0.003026
37 0.002992
43 0.002959
40 0.002978
44 0.005028
55 0.005038
67 0.004924
70 0.006023
75 0.006018
85 0.006971
92 0.007015
104 0.006993
116 0.005983
124 0.005007
133 0.002992
140 0.003969
147 0.00196
154 0.002992
163 0.00204
168 0.001002
176 0.001029
182 0.0
186 0.000985
191 0.000952
195 0.000997
177 0.000973
74 0.0
41 0.0
45 0.0
53 0.0
52 0.0
55 0.001037
70 0.0
78 0.0
80 0.001015
85 0.001947
97 0.002021
104 0.002026
116 0.00399
125 0.004035
132 0.004026
140 0.004024
147 0.004018
152 0.005022
160 0.005021
164 0.005036
171 0.004959
177 0.005038
181 0.005033
188 0.005029
196 0.00499
196 0.005018
116 0.004028
62 0.005032
45 0.00603
57 0.005018
56 0.006032
54 0.006015
62 0.005017
78 0.006019
82 0.005936
86 0.006021
93 0.006018
107 0.007936
112 0.007979
125 0.007979
133 0.007979
143 0.007028
150 0.006025
155 0.006982
166 0.006016
171 0.006974
180 0.006019
188 0.005034
191 0.004984
196 0.004988
198 0.004977
201 0.004977
205 0.005012
208 0.004994
165 0.005032
82 0.005984
54 0.005021
63 0.005993
76 0.003981
79 0.005984
88 0.005973
95 0.005976
96 0.005977
96 0.005032
104 0.004981
118 0.002985
127 0.004983
139 0.004102
148 0.003993
153 0.003051
159 0.004042
163 0.003001
172 0.003977
179 0.002977
183 0.002995
192 0.003035
196 0.002997
202 0.002041
206 0.002992
210 0.001903
209 0.002989
115 0.001994
58 0.002002
39 0.001053
48 0.001052
55 0.001976
51 0.0
59 0.0
74 0.000999
83 0.001995
86 0.002992
93 0.002993
107 0.003991
117 0.005022
130 0.005038
140 0.006008
145 0.006955
151 0.004983
157 0.005984
162 0.004983
171 0.005975
179 0.003998
184 0.003994
191 0.00399
194 0.004241
200 0.00399
207 0.002992
211 0.004016
159 0.001982
95 0.003987
52 0.001992
66 0.001982
77 0.001998
90 0.00201
106 0.000951
107 0.001956
102 0.000988
101 0.001001
108 0.002033
119 0.003016
131 0.0
139 0.002038
147 0.0
152 0.000997
158 0.001995
162 0.004064
168 0.004054
174 0.00502
183 0.006023
189 0.006974
190 0.007863
113 0.005048
62 0.006947
45 0.004997
56 0.007013
71 0.004991
77 0.003036
85 0.001994
98 0.003002
101 0.002995
102 0.00299
113 0.001981
122 0.001952
136 0.001969
145 0.003021
154 0.002043
160 0.002992
165 0.002001
171 0.003026
180 0.003035
184 0.002993
191 0.001996
198 0.000968
202 0.0
208 0.0
214 0.001998
212 0.001017
117 0.001009
60 0.001995
44 0.001962
60 0.001963
62 0.001995
57 0.002031
71 0.00302
81 0.004035
87 0.003958
88 0.00402
97 0.005041
111 0.005051
119 0.004052
129 0.006991
140 0.007031
146 0.006947
153 0.006984
156 0.006976
163 0.007979
171 0.006981
176 0.00698
183 0.007028
190 0.005967
194 0.007029
200 0.004985
204 0.005026
171 0.005996
65 0.003957
44 0.003975
53 0.005032
61 0.006017
58 0.002984
62 0.003999
75 0.002002
85 0.003989
87 0.003042
90 0.002029
102 0.002044
115 0.000983
122 0.002968
134 0.000998
140 0.00222
147 0.0
153 0.001
156 0.000989
164 0.000967
173 0.000914
178 0.001025
186 0.003027
192 0.004989
195 0.005032
200 0.004989
206 0.004978
189 0.005979
83 0.006034
52 0.005953
53 0.006981
66 0.007094
68 0.006014
66 0.007042
79 0.007097
86 0.007026
91 0.005984
96 0.003022
102 0.004022
115 0.001986
123 0.003989
134 0.0
143 0.0
147 0.0
155 0.0
162 0.0
166 0.00104
174 0.0
181 0.000998
185 0.000998
192 0.000997
195 0.000997
200 0.002066
205 0.001
208 0.002036
192 0.002962
104 0.00402
54 0.00404
55 0.004027
70 0.003946
75 0.006046
77 0.005978
84 0.007098
93 0.007018
94 0.005992
97 0.006982
105 0.004988
117 0.005022
125 0.005026
136 0.002944
145 0.002984
148 0.00301
155 0.002998
159 0.003006
166 0.00199
172 0.002027
179 0.00203
183 0.002031
190 0.001031
193 0.0
199 0.001898
197 0.001995
130 0.00412
59 0.003949
47 0.00399
58 0.004023
69 0.003989
68 0.003977
77 0.004022
88 0.003856
88 0.004968
92 0.004981
103 0.006031
111 0.00702
122 0.005149
132 0.00502
139 0.004036
145 0.004988
152 0.004986
156 0.005032
165 0.005019
169 0.004986
177 0.002992
185 0.00201
189 0.00304
195 0.000999
198 0.000999
203 0.000998
188 0.000969
98 0.000967
50 0.000998
41 0.001013
51 0.000997
59 0.001833
57 0.002018
65 0.002028
79 0.002046
82 0.001995
86 0.002045
97 0.00184
106 0.002047
119 0.002004
128 0.002954
136 0.004012
142 0.005048
148 0.00504
156 0.004987
165 0.005037
170 0.005019
178 0.005034
186 0.005002
189 0.004971
196 0.005036
200 0.00502
205 0.004971
134 0.006026
68 0.00522
35 0.006947
47 0.005986
57 0.004953
57 0.004993
61 0.004044
75 0.002933
82 0.004035
83 0.003009
90 0.004031
103 0.004036
111 0.004027
124 0.001996
136 0.0
142 0.002046
150 0.0
155 0.001056
163 0.0
172 0.0
177 0.0
186 0.001018
190 0.0
194 0.000998
201 0.000998
206 0.000998
174 0.000998
63 0.000998
38 0.001996
45 0.001995
62 0.00301
63 0.003945
72 0.004055
82 0.003942
88 0.00399
88 0.003997
95 0.003846
105 0.004037
119 0.004972
128 0.00601
139 0.005977
143 0.006972
152 0.006981
159 0.006852
164 0.006999
172 0.006981
179 0.007031
183 0.006016
190 0.004983
194 0.004984
200 0.005012
184 0.007025
97 0.004928
40 0.007017
41 0.006939
52 0.005986
62 0.006029
65 0.006016
80 0.005985
85 0.005036
85 0.006024
91 0.002991
103 0.002958
111 0.001954
124 0.001966
131 0.00198
141 0.003001
148 0.001985
152 0.000965
160 0.0
166 0.0
170 0.0
178 0.000998
186 0.001995
191 0.001995
140 0.001929
73 0.001825
30 0.001995
39 0.002002
50 0.001989
54 0.002994
63 0.002999
76 0.004642
81 0.004823
83 0.004969
91 0.005036
104 0.004984
114 0.005029
128 0.004976
135 0.005034
146 0.006026
153 0.005993
158 0.006029
165 0.006012
172 0.006981
177 0.005934
186 0.005968
190 0.005982
197 0.005988
203 0.00798
189 0.005976
100 0.006026
28 0.005992
26 0.006039
41 0.006014
40 0.004053
40 0.003954
57 0.001985
66 0.004033
72 0.0
80 0.0
87 0.0
101 0.0
115 0.0
122 0.0
132 0.0
137 0.0
146 0.0
155 0.000997
160 0.002024
170 0.001953
179 0.002028
183 0.001995
190 0.001949
195 0.002001
201 0.002992
192 0.003007
107 0.005008
38 0.004986
34 0.005053
44 0.005028
46 0.00497
48 0.006007
55 0.006964
72 0.006934
76 0.006931
80 0.006941
92 0.006942
100 0.007033
114 0.006964
126 0.007027
134 0.003968
142 0.006011
151 0.003983
155 0.00299
164 0.001995
174 0.0
180 0.002058
188 0.0
193 0.000997
199 0.0
203 0.000984
207 0.002962
198 0.002992
89 0.002945
45 0.002997
43 0.002992
58 0.004956
57 0.005026
59 0.004987
69 0.004992
81 0.005028
84 0.00502
88 0.005019
101 0.004984
112 0.007012
121 0.00696
131 0.005996
141 0.005968
146 0.005983
153 0.006983
159 0.005985
169 0.005
177 0.001987
183 0.004033
190 0.002022
196 0.002013
200 0.002009
207 0.00203
205 0.002051
122 0.001995
47 0.000969
45 0.000836
63 0.0
68 0.0
70 0.001964
85 0.001963
92 0.003995
91 0.003989
96 0.006017
105 0.005977
118 0.005984
130 0.006028
141 0.007024
145 0.007979
155 0.007978
161 0.002006
165 0.002986
173 0.000979
182 0.00203
187 0.0
194 0.0
201 0.0
205 0.0
187 0.001961
77 0.002993
42 0.002993
44 0.002992
54 0.002961
56 0.003524
62 0.004007
74 0.004046
84 0.003704
86 0.003991
90 0.003987
103 0.00396
113 0.00399
127 0.004038
139 0.003987
146 0.004015
155 0.004021
159 0.005019
168 0.005
177 0.005006
181 0.004988
190 0.00603
198 0.006979
202 0.006025
207 0.004987
213 0.005017
202 0.002983
113 0.004984
42 0.001995
41 0.002028
56 0.001162
58 0.0
57 0.0
71 0.0
84 0.0
85 0.0
91 0.0
99 0.0
113 0.000966
126 0.001956
135 0.003023
145 0.005033
154 0.005989
158 0.006021
167 0.005951
172 0.005951
182 0.005983
189 0.005984
194 0.005998
200 0.005951
206 0.00798
211 0.006036
216 0.007834
197 0.005982
84 0.007998
43 0.006982
46 0.006986
61 0.007013
63 0.007012
64 0.005984
81 0.002989
87 0.003991
89 0.001009
98 0.0
105 0.0
120 0.0
133 0.000959
139 0.0
148 0.0
156 0.0
161 0.0
169 0.0
176 0.0
185 0.0
193 0.0
197 0.002945
203 0.002965
208 0.004054
213 0.005021
217 0.005022
142 0.005034
76 0.006016
44 0.005999
52 0.006036
66 0.006028
67 0.006015
75 0.006018
87 0.005853
89 0.005986
92 0.006919
103 0.006968
111 0.00698
126 0.006981
137 0.005972
143 0.006024
153 0.004973
157 0.004973
166 0.004994
171 0.006981
178 0.004987
185 0.006997
194 0.003978
198 0.005035
204 0.003995
206 0.003989
205 0.001997
107 0.002028
54 0.001997
37 0.001001
54 0.000998
59 0.001015
62 0.001955
71 0.001002
85 0.001996
88 0.002992
92 0.002
101 0.001997
114 0.00199
125 0.001995
139 0.00201
147 0.002018
156 0.002028
165 0.0
170 0.001996
180 0.0
185 0.002006
194 0.0
200 0.0
204 0.0
211 0.0
216 0.000991
219 0.001987
195 0.002025
120 0.001995
38 0.001961
41 0.001995
52 0.002024
56 0.001995
61 0.002933
73 0.005054
85 0.005022
86 0.006008
90 0.006946
99 0.006981
114 0.006982
124 0.006981
138 0.006981
149 0.002004
155 0.00299
163 0.002015
167 0.002993
177 0.0
184 0.0
189 0.0
196 0.0
203 0.0
207 0.0
214 0.0
218 0.0
172 0.000998
57 0.0
33 0.001005
44 0.000998
57 0.000998
57 0.000998
68 0.001995
80 0.00399
84 0.005024
86 0.005038
93 0.004024
105 0.004986
120 0.004991
129 0.005019
141 0.005032
149 0.00602
153 0.007979
161 0.006972
165 0.007972
173 0.006027
181 0.005158
186 0.002967
192 0.001986
199 0.001961
203 0.001953
209 0.0
187 0.00208
95 0.0
39 0.002026
40 0.0
52 0.001046
59 0.0
65 0.00196
75 0.004021
84 0.004037
85 0.003958
90 0.003998
102 0.004021
112 0.004033
126 0.005047
137 0.005031
144 0.004977
151 0.005021
156 0.005032
164 0.005017
173 0.005019
179 0.00599
186 0.00694
191 0.007015
197 0.006958
203 0.007012
195 0.006948
137 0.007008
38 0.005967
26 0.005965
39 0.006026
45 0.003188
43 0.005021
58 0.003995
68 0.004979
73 0.003995
78 0.004005
86 0.00398
101 0.00304
115 0.002006
123 0.001982
135 0.00214
140 0.001965
149 0.002018
156 0.00205
163 0.000965
171 0.001013
180 0.001022
185 0.001006
191 0.000997
196 0.001033
200 0.000953
204 0.001995
153 0.002025
57 0.002042
23 0.002037
31 0.002002
41 0.002992
37 0.00399
45 0.006048
61 0.006008
68 0.006973
71 0.006975
81 0.004984
93 0.003992
103 0.00398
117 0.004005
124 0.004003
134 0.001984
141 0.002992
147 0.001999
154 0.001967
164 0.002008
168 0.002017
175 0.002013
182 0.0
186 0.000982
192 0.002992
198 0.00294
181 0.003043
76 0.003463
31 0.00505
38 0.006009
50 0.00698
50 0.005979
54 0.005983
71 0.003936
76 0.003988
77 0.003037
85 0.002993
95 0.001993
108 0.000939
118 0.0
129 0.001996
135 0.002992
141 0.003026
150 0.002992
155 0.002992
164 0.005045
172 0.005973
178 0.007971
184 0.005991
192 0.003982
196 0.004067
144 0.003003
51 0.001026
37 0.0
46 0.0
55 0.000997
54 0.001995
66 0.002053
80 0.002993
81 0.004022
84 0.005049
94 0.005034
106 0.004885
118 0.005037
126 0.006981
138 0.006982
147 0.006968
151 0.006984
160 0.006922
169 0.006942
174 0.006948
181 0.005981
186 0.007977
193 0.006982
199 0.005031
204 0.004053
210 0.003988
147 0.001958
76 0.001994
37 0.001991
45 0.002982
50 0.002012
46 0.001995
51 0.0
66 0.000996
76 0.000942
77 0.001006
85 0.000968
97 0.000999
108 0.001986
119 0.000997
132 0.00203
138 0.002056
147 0.000937
152 0.002995
161 0.002994
171 0.002995
177 0.003038
186 0.003992
195 0.005015
199 0.005033
205 0.005041
208 0.005066
215 0.004969
197 0.007018
128 0.005957
47 0.006977
44 0.007963
53 0.005
58 0.006946
54 0.005026
61 0.004985
79 0.00502
83 0.005021
86 0.003984
97 0.001041
107 0.003013
122 0.00103
134 0.0
141 0.000837
150 0.0
154 0.0
164 0.000978
174 0.000948
179 0.000958
190 0.0
196 0.001994
201 0.001998
208 0.001997
211 0.001962
217 0.00097
224 0.0
214 0.0
127 0.0
49 0.0
46 0.00204
61 0.002992
63 0.004954
63 0.006034
80 0.006966
88 0.005961
90 0.005027
95 0.004992
102 0.00404
117 0.004993
131 0.005012
138 0.003989
149 0.003991
156 0.005025
163 0.003003
170 0.003977
177 0.001989
185 0.004005
194 0.004026
199 0.004024
207 0.002981
213 0.000956
217 0.002989
224 0.000963
180 0.0
103 0.0
40 0.0
42 0.000989
60 0.001008
63 0.001012
66 0.0
80 0.0
88 0.0
91 0.0
98 0.001997
107 0.002066
122 0.00203
136 0.002
143 0.001995
154 0.004972
160 0.005047
166 0.005052
174 0.004989
182 0.004988
188 0.004964
197 0.006018
201 0.007012
208 0.006965
215 0.006971
218 0.00706
225 0.006911
226 0.007944
143 0.006017
45 0.005969
36 0.00599
53 0.003988
63 0.004097
63 0.002985
78 0.003992
86 0.003026
90 0.002994
94 0.005018
102 0.002989
113 0.004029
129 0.005035
136 0.00495
149 0.005985
154 0.005026
162 0.003993
170 0.00299
175 0.004029
183 0.001975
189 0.004989
197 0.001996
205 0.002981
208 0.001979
213 0.002014
218 0.002013
203 0.001047
106 0.004015
42 0.000958
38 0.003032
57 0.002993
64 0.002052
68 0.002037
78 0.002997
89 0.001997
92 0.0
96 0.000998
108 0.000945
123 0.001032
131 0.000997
142 0.000998
149 0.001004
157 0.001996
165 0.001998
170 0.002992
179 0.004025
188 0.004975
192 0.005977
201 0.005874
207 0.005971
211 0.006023
217 0.006018
216 0.005984
116 0.006981
43 0.006994
32 0.006984
44 0.007979
62 0.007974
62 0.007992
75 0.007984
85 0.007969
88 0.006016
92 0.003947
98 0.006026
112 0.002018
128 0.004014
137 0.002026
148 0.002974
155 0.003003
162 0.001988
171 0.001998
176 0.001941
186 0.001954
193 0.003096
198 0.001995
205 0.002997
210 0.002024
215 0.0
220 0.0
186 0.0
63 0.0
29 0.0
38 0.0
56 0.001995
64 0.001996
71 0.001995
85 0.001996
88 0.002843
90 0.003999
98 0.004028
106 0.005007
122 0.005977
136 0.00597
142 0.006985
153 0.006987
157 0.006975
165 0.006982
172 0.006968
177 0.00698
185 0.004986
192 0.006982
198 0.004987
204 0.006983
189 0.005003
120 0.005017
27 0.002006
21 0.001995
39 0.001986
49 0.002962
55 0.003987
67 0.004024
79 0.003981
80 0.004022
84 0.004019
97 0.003975
107 0.00402
123 0.005985
138 0.00598
144 0.005983
153 0.00598
160 0.006979
167 0.006946
175 0.007998
182 0.007015
187 0.007028
195 0.006984
199 0.007011
208 0.004998
199 0.003011
78 0.001031
28 0.0
22 0.0
35 0.0
45 0.0
47 0.0
57 0.0
73 0.0
76 0.0
81 0.0
93 0.0
103 0.0
120 0.001003
134 0.000997
141 0.002041
150 0.003022
157 0.002992
164 0.003065
171 0.002969
180 0.002992
186 0.002957
195 0.003
199 0.003019
206 0.002957
210 0.00403
216 0.003024
134 0.005967
57 0.005985
18 0.006946
38 0.006886
46 0.006961
47 0.006914
55 0.006987
72 0.006974
77 0.006969
80 0.006966
88 0.006961
103 0.007027
117 0.006978
129 0.006973
136 0.007003
145 0.007943
156 0.007973
161 0.007975
170 0.007975
176 0.007995
183 0.007979
192 0.005951
196 0.007979
203 0.005966
208 0.007976
213 0.003988
213 0.004009
164 0.003021
43 0.003979
21 0.002979
34 0.002987
52 0.002992
55 0.004029
66 0.001992
77 0.004024
80 0.002003
83 0.004989
93 0.003976
103 0.003991
121 0.002992
130 0.003069
143 0.003033
151 0.0
158 0.002029
165 0.0
174 0.0
180 0.0
189 0.0
193 0.0
201 0.0
207 0.0
211 0.000938
217 0.000961
205 0.002048
134 0.002041
30 0.00296
23 0.003951
41 0.00396
48 0.004037
48 0.003986
59 0.003957
74 0.004995
76 0.004958
81 0.004988
90 0.00698
100 0.006988
117 0.00399
132 0.003028
139 0.002099
149 0.002015
158 0.0
164 0.0
176 0.0
185 0.000997
191 0.002034
200 0.002073
208 0.002946
212 0.003984
219 0.004821
227 0.004987
227 0.004987
150 0.004975
48 0.004991
19 0.004983
39 0.00499
51 0.005065
54 0.005026
61 0.004979
78 0.004989
82 0.004984
84 0.005987
94 0.005992
103 0.006015
117 0.006979
134 0.006001
142 0.005985
153 0.00698
159 0.00598
165 0.004982
174 0.003987
181 0.00601
189 0.002978
195 0.00402
203 0.003024
208 0.00201
216 0.001993
213 0.0
153 0.002029
34 0.0
16 0.001995
34 0.000944
51 0.0
51 0.0
65 0.000967
75 0.0
80 0.001001
83 0.00095
88 0.000962
104 0.001996
122 0.002016
133 0.001995
146 0.002959
156 0.00497
161 0.005978
170 0.006028
174 0.005969
184 0.005955
191 0.006023
198 0.005988
204 0.00597
212 0.006983
216 0.007026
219 0.006984
170 0.006982
41 0.004982
17 0.003015
41 0.001996
50 0.0
52 0.0
67 0.0
75 0.0
78 0.0
80 0.0
92 0.0
109 0.000977
120 0.001036
136 0.000997
144 0.001032
153 0.000998
159 0.000997
166 0.000997
173 0.000965
183 0.001025
187 0.000987
194 0.001992
199 0.001994
207 0.00296
213 0.002993
193 0.003032
65 0.003954
17 0.003989
26 0.003985
48 0.004036
51 0.004019
59 0.00399
74 0.003959
76 0.003912
77 0.005028
83 0.005021
98 0.005981
110 0.007017
118 0.006981
130 0.005966
139 0.007037
144 0.007021
152 0.006917
157 0.007013
166 0.006997
170 0.004987
180 0.001011
185 0.001003
189 0.001996
153 0.002003
41 0.001996
19 0.0
30 0.0
46 0.0
48 0.001953
57 0.0
72 0.00104
73 0.001996
74 0.001994
85 0.002019
96 0.001986
111 0.002031
121 0.001993
131 0.001994
137 0.002022
143 0.001998
150 0.002005
158 0.002942
164 0.002973
174 0.004041
184 0.003987
170 0.003991
62 0.003994
25 0.003958
27 0.00402
44 0.003987
45 0.003774
56 0.003992
68 0.003992
75 0.004006
78 0.005014
84 0.004991
99 0.004993
109 0.004971
123 0.004987
134 0.005018
141 0.005984
147 0.007016
156 0.006986
160 0.006973
171 0.007013
179 0.00495
184 0.005958
192 0.003986
196 0.006108
204 0.003992
174 0.004005
93 0.003974
21 0.003011
28 0.001971
36 0.000979
33 0.000998
37 0.00302
51 0.00199
66 0.001988
66 0.002003
73 0.001996
88 0.0
98 0.001997
113 0.0
122 0.001987
134 0.0
143 0.000998
149 0.000952
155 0.001017
166 0.002033
173 0.002007
183 0.001994
192 0.003025
198 0.003961
205 0.00598
211 0.005963
215 0.005982
221 0.006001
216 0.005028
98 0.005856
36 0.006015
32 0.004985
48 0.004992
53 0.003993
49 0.002994
62 0.00199
76 0.0
82 0.001959
84 0.002026
96 0.002043
105 0.00296
120 0.002001
133 0.002958
141 0.001993
150 0.00299
160 0.003961
166 0.002993
177 0.002994
184 0.003991
193 0.003994
202 0.003989
207 0.003989
213 0.005983
218 0.005987
222 0.005955
228 0.005984
204 0.005959
97 0.006016
37 0.006018
43 0.006984
61 0.00698
67 0.00399
67 0.004987
85 0.002008
94 0.00199
94 0.002008
101 0.0
115 0.0
126 0.0
140 0.000973
147 0.0
157 0.0
164 0.001965
170 0.000952
177 0.001
182 0.000995
190 0.0
199 0.0
204 0.001933
211 0.001966
217 0.001996
223 0.001993
186 0.002986
65 0.003055
38 0.003958
48 0.004042
63 0.004023
73 0.005034
86 0.006037
96 0.00702
99 0.005977
100 0.004988
105 0.004986
121 0.004957
138 0.005014
147 0.004984
159 0.004989
164 0.004971
172 0.004987
180 0.007017
185 0.006981
194 0.006022
200 0.006044
209 0.005967
217 0.003991
223 0.005984
223 0.003951
107 0.003049
48 0.002987
33 0.002
47 0.001925
62 0.0
65 0.0
76 0.0
93 0.0
95 0.002007
100 0.0
109 0.002002
124 0.0
138 0.001994
154 0.002992
162 0.003007
172 0.001973
178 0.0
186 0.0
193 0.0
202 0.0
210 0.0
218 0.0
224 0.0
232 0.001053
231 0.001016
119 0.000997
33 0.002961
33 0.003
56 0.005953
66 0.005976
71 0.003983
84 0.00398
97 0.003986
99 0.003988
104 0.001998
114 0.003978
128 0.001998
142 0.003987
157 0.001998
165 0.001994
174 0.001998
183 0.0
187 0.001971
194 0.0
203 0.002052
208 0.002029
217 0.001979
222 0.001996
229 0.002993
163 0.003011
78 0.003005
30 0.004045
51 0.004987
65 0.004987
70 0.004989
79 0.005029
95 0.005046
96 0.005953
97 0.006017
109 0.005985
127 0.008005
138 0.005989
153 0.007944
163 0.006998
169 0.007009
176 0.007017
181 0.007022
189 0.00698
199 0.003989
204 0.006983
214 0.003984
195 0.00593
72 0.003976
28 0.00199
40 0.001992
66 0.001985
73 0.002044
82 0.001978
99 0.000963
102 0.001995
104 0.0
114 0.002005
123 0.001964
141 0.002028
157 0.0
164 0.002967
173 0.001002
178 0.002009
184 0.000957
191 0.0
197 0.000998
201 0.002038
99 0.001995
44 0.004988
35 0.006937
62 0.006964
69 0.003955
75 0.003987
95 0.004977
103 0.004983
103 0.004979
107 0.005966
118 0.002947
132 0.004072
150 0.002958
158 0.001996
172 0.001986
180 0.001032
184 0.002036
190 0.0
196 0.001995
203 0.000998
207 0.001042
163 0.001995
47 0.002008
30 0.00506
47 0.004032
68 0.003991
79 0.004998
92 0.005024
100 0.004972
100 0.004975
106 0.005028
119 0.005031
129 0.005017
146 0.004981
157 0.005984
165 0.005993
172 0.007014
177 0.005968
181 0.004988
189 0.005057
194 0.004965
204 0.003993
148 0.001994
72 0.002997
30 0.0
44 0.000911
59 0.000997
70 0.002049
86 0.002002
96 0.000998
99 0.002003
103 0.001962
111 0.001991
129 0.001967
139 0.001984
153 0.004022
165 0.004023
169 0.003989
177 0.005985
184 0.006971
190 0.00695
198 0.006949
207 0.007034
212 0.006937
135 0.006982
59 0.007943
24 0.007984
41 0.005977
56 0.006976
57 0.00403
72 0.00399
84 0.003991
91 0.003991
93 0.002991
103 0.003989
120 0.002949
131 0.002989
145 0.003068
156 0.003943
164 0.0
171 0.002994
179 0.000963
185 0.0
194 0.000998
201 0.000999
209 0.002992
216 0.003023
220 0.002994
227 0.003028
233 0.004022
204 0.003034
62 0.004046
23 0.005044
35 0.004989
57 0.006004
59 0.00603
68 0.005857
85 0.005963
89 0.005985
93 0.006001
98 0.005973
110 0.004983
125 0.007977
137 0.004984
150 0.007974
159 0.007012
164 0.005971
172 0.005984
181 0.003004
186 0.004049
194 0.00101
200 0.000998
205 0.002026
212 0.002994
220 0.002931
224 0.003046
148 0.00302
33 0.003991
20 0.00399
42 0.00404
59 0.004014
70 0.004006
88 0.004025
93 0.005009
92 0.005987
95 0.006019
106 0.005984
120 0.00602
135 0.005988
147 0.005983
158 0.006981
162 0.007965
171 0.007021
180 0.004969
185 0.007029
193 0.003989
200 0.00304
205 0.002948
215 0.002034
221 0.002031
190 0.003049
50 0.002961
15 0.002988
25 0.0
46 0.00303
55 0.0
64 0.0
81 0.002057
84 0.003027
84 0.003005
93 0.003048
107 0.002992
119 0.003972
136 0.005021
144 0.006026
155 0.006979
158 0.00797
169 0.00797
175 0.004954
182 0.007976
190 0.004985
198 0.002038
203 0.001995
211 0.004006
218 0.002008
223 0.001995
204 0.00297
115 0.001994
17 0.002951
17 0.004032
37 0.002969
51 0.003995
55 0.001992
67 0.003989
79 0.003992
81 0.00304
86 0.0
100 0.0
106 0.001159
122 0.000997
137 0.002023
145 0.001053
153 0.002047
158 0.001996
165 0.001889
174 0.001996
179 0.002979
188 0.004986
196 0.005947
200 0.005957
205 0.003976
213 0.007984
218 0.004942
201 0.007022
65 0.006321
20 0.00502
23 0.005985
50 0.002959
58 0.004027
70 0.002007
80 0.003043
82 0.002989
83 0.000998
87 0.0
102 0.003019
120 0.0
129 0.001
142 0.0
147 0.000969
155 0.0
161 0.002022
168 0.000973
175 0.001989
182 0.0
189 0.0
198 0.002048
204 0.003027
182 0.003989
72 0.003985
12 0.00396
14 0.004993
38 0.00505
44 0.006029
50 0.006986
64 0.006983
72 0.006983
73 0.003987
81 0.004023
89 0.004037
107 0.004122
123 0.000959
131 0.002987
141 0.001995
147 0.002012
154 0.001969
161 0.001961
169 0.000958
175 0.000992
184 0.002039
190 0.002001
197 0.002015
203 0.001997
165 0.002037
58 0.002992
18 0.002999
28 0.002922
48 0.002956
50 0.003001
56 0.002995
72 0.004018
75 0.005016
78 0.005984
88 0.006878
95 0.006964
112 0.005995
120 0.006031
133 0.006039
142 0.004926
147 0.00418
154 0.004988
160 0.005006
168 0.001994
174 0.003956
182 0.002985
186 0.00299
195 0.003033
200 0.000972
170 0.003026
52 0.0
27 0.0
39 0.0
54 0.0
55 0.0
64 0.001992
78 0.00197
78 0.002992
79 0.002955
84 0.002989
99 0.003964
115 0.004975
124 0.005986
136 0.005983
142 0.007978
147 0.005951
154 0.007956
163 0.007981
167 0.007011
174 0.006031
182 0.002999
187 0.005972
194 0.002996
164 0.004022
50 0.001962
26 0.003004
38 0.003038
49 0.0
49 0.000952
58 0.0
72 0.0
77 0.0
79 0.0
90 0.0
100 0.0
116 0.0
130 0.00097
138 0.000997
147 0.000998
153 0.00295
159 0.002968
167 0.002992
174 0.002993
183 0.004985
191 0.006995
198 0.003996
202 0.007028
209 0.003989
204 0.007018
97 0.002997
37 0.000982
47 0.0
54 0.0
54 0.00096
57 0.000959
77 0.0
83 0.003029
85 0.0
90 0.0
105 0.001992
115 0.001976
130 0.001966
138 0.002018
149 0.002013
156 0.001814
162 0.002012
169 0.003957
179 0.00594
185 0.005975
195 0.006026
201 0.00595
206 0.007013
215 0.004015
221 0.00403
207 0.004023
86 0.003992
47 0.004012
50 0.003982
67 0.003972
68 0.004065
74 0.002986
87 0.005013
93 0.002026
94 0.003028
101 0.002006
112 0.003041
127 0.00203
136 0.002038
147 0.002027
155 0.0
159 0.002036
168 0.0
173 0.002043
183 0.0
191 0.000998
195 0.001999
202 0.00202
207 0.002056
212 0.001996
216 0.003944
124 0.004954
69 0.004992
55 0.004811
71 0.005985
80 0.005984
83 0.006016
96 0.005986
104 0.005985
103 0.00698
106 0.007941
115 0.005039
131 0.002992
141 0.005018
155 0.002021
166 0.00302
170 0.003012
177 0.002007
181 0.00199
190 0.002022
198 0.002002
204 0.001993
212 0.001994
217 0.002033
222 0.0
195 0.0
78 0.001995
50 0.001995
62 0.003011
73 0.002975
73 0.002963
78 0.003966
92 0.004985
100 0.005995
102 0.006011
106 0.006026
120 0.006029
136 0.005985
145 0.006016
157 0.005872
164 0.005984
172 0.005996
179 0.005955
183 0.005978
192 0.00595
200 0.00498
205 0.004986
213 0.00598
219 0.004994
225 0.004996
192 0.006984
92 0.004986
49 0.007943
58 0.004992
74 0.00698
75 0.005985
77 0.004987
94 0.002997
100 0.0
102 0.002967
110 0.0
122 0.000966
132 0.001998
146 0.002992
158 0.002998
164 0.002982
173 0.003011
181 0.002963
186 0.00299
192 0.002995
196 0.002964
203 0.004989
214 0.004984
220 0.005016
227 0.005984
200 0.006013
100 0.005964
54 0.004965
59 0.005986
75 0.00601
81 0.005969
87 0.006976
96 0.007976
97 0.004028
97 0.006983
104 0.00398
113 0.006027
127 0.003998
141 0.002987
147 0.001997
155 0.001999
160 0.001962
165 0.0
171 0.001962
179 0.0
183 0.0
192 0.0
169 0.0
83 0.0
43 0.0
48 0.0
62 0.000807
70 0.001994
78 0.001997
93 0.001967
94 0.002992
94 0.004004
105 0.003957
115 0.003959
132 0.003905
146 0.00399
152 0.005037
159 0.006963
167 0.006975
170 0.006971
178 0.006948
183 0.006975
192 0.006982
201 0.006974
207 0.006011
186 0.007979
64 0.007978
30 0.007992
36 0.007013
46 0.007012
46 0.007012
53 0.004073
66 0.004987
78 0.002022
80 0.001971
87 0.0
103 0.0
120 0.0
128 0.0
142 0.0
148 0.000961
154 0.000972
163 0.001028
168 0.001948
178 0.001995
188 0.002008
194 0.002031
202 0.001996
208 0.002961
214 0.003009
219 0.005016
182 0.004986
74 0.004988
28 0.005018
36 0.004964
52 0.00502
48 0.005034
54 0.004037
74 0.004986
80 0.004979
82 0.005971
95 0.005984
105 0.005979
122 0.006001
132 0.006961
141 0.005966
152 0.002993
159 0.004986
168 0.002026
175 0.002902
184 0.002991
191 0.000997
201 0.001995
207 0.00204
214 0.002001
218 0.00497
224 0.005047
227 0.007007
229 0.005993
143 0.006006
56 0.006939
42 0.004992
63 0.002989
70 0.002992
68 0.002987
76 0.002943
93 0.002959
96 0.0
101 0.002004
107 0.001995
122 0.002012
134 0.004
144 0.005989
155 0.006019
163 0.007019
167 0.007042
175 0.00698
182 0.004985
187 0.006992
195 0.004984
200 0.006982
206 0.004984
212 0.004018
216 0.003968
221 0.002226
226 0.001995
197 0.002959
69 0.001988
39 0.003009
50 0.001997
68 0.002976
74 0.001017
82 0.0
96 0.0
97 0.0
97 0.001995
103 0.001962
115 0.002944
129 0.002036
143 0.003013
151 0.003049
159 0.003992
163 0.004028
170 0.006026
178 0.005947
182 0.005963
191 0.005967
198 0.005021
203 0.005959
210 0.005985
213 0.004952
176 0.004954
54 0.004976
31 0.004958
43 0.002954
61 0.004987
67 0.002961
77 0.005148
92 0.00399
93 0.003
95 0.002992
106 0.0
116 0.002991
130 0.0
146 0.002023
153 0.002979
162 0.003996
169 0.004981
174 0.004989
182 0.004947
188 0.004948
196 0.005976
202 0.005017
210 0.00399
215 0.003957
221 0.00399
220 0.003114
106 0.002957
29 0.002989
22 0.003009
42 0.002032
56 0.0
57 0.0
71 0.0
82 0.0
85 0.0
88 0.0
96 0.0
109 0.001001
126 0.001035
135 0.001003
147 0.000997
155 0.001958
159 0.002007
169 0.001995
173 0.001964
183 0.001983
193 0.002002
198 0.001995
205 0.004972
212 0.004989
215 0.005985
221 0.006967
200 0.007012
112 0.006935
19 0.007978
15 0.006983
36 0.00602
54 0.002981
55 0.004986
68 0.002983
80 0.002001
81 0.002991
86 0.003031
101 0.0
112 0.0
125 0.0
140 0.00196
148 0.002023
157 0.002029
165 0.002008
171 0.002951
179 0.003019
184 0.002959
194 0.003019
201 0.002992
207 0.002965
214 0.002992
219 0.002993
224 0.002994
223 0.004026
159 0.005022
29 0.004018
15 0.004973
33 0.006009
53 0.005986
59 0.003983
68 0.00399
81 0.003023
82 0.002012
84 0.002992
96 0.001987
110 0.001985
125 0.000997
137 0.001962
148 0.001966
155 0.000991
163 0.002004
169 0.003992
176 0.003987
182 0.005029
187 0.004987
193 0.004005
201 0.005019
206 0.00503
203 0.004843
78 0.006028
22 0.005985
12 0.005963
35 0.006016
58 0.006925
72 0.006942
79 0.005984
86 0.002993
84 0.002994
88 0.002027
103 0.003019
119 0.003995
134 0.001993
146 0.004016
155 0.002999
162 0.003992
169 0.003989
173 0.003987
180 0.003024
188 0.000947
192 0.002954
202 0.0
207 0.003024
135 0.0
30 0.001007
1 0.000997
16 0.000998
37 0.000998
40 0.000997
53 0.002993
67 0.00368
69 0.004953
73 0.005982
86 0.005984
94 0.005986
112 0.00604
121 0.004985
135 0.005023
142 0.006984
148 0.003996
155 0.006007
164 0.005999
168 0.006017
177 0.002961
183 0.006017
191 0.00296
143 0.002992
61 0.003125
4 0.002959
22 0.002018
34 0.002026
37 0.002984
43 0.002994
63 0.001988
67 0.004001
70 0.002043
79 0.004018
91 0.002034
105 0.002952
119 0.003989
126 0.003035
136 0.00298
143 0.0
149 0.001995
155 0.0
164 0.001046
169 0.0
179 0.001995
184 0.001006
188 0.001946
98 0.002036
34 0.002028
14 0.001963
35 0.003054
42 0.003035
46 0.004987
66 0.004957
71 0.004955
71 0.005025
76 0.005044
90 0.004946
102 0.005025
115 0.004987
125 0.005024
133 0.00505
140 0.005985
149 0.004978
154 0.004999
162 0.006038
168 0.005984
177 0.005967
187 0.005977
192 0.006943
165 0.004974
46 0.004002
16 0.005
28 0.004995
39 0.004988
39 0.002987
52 0.00301
67 0.00304
74 0.0
76 0.000997
88 0.000998
98 0.002901
114 0.004051
123 0.003043
133 0.003014
141 0.003991
147 0.003043
155 0.005028
165 0.005984
171 0.005947
180 0.007997
187 0.005038
193 0.00594
201 0.003988
203 0.004
153 0.002029
40 0.003971
24 0.003992
40 0.003971
46 0.003024
44 0.00096
59 0.002974
74 0.003958
78 0.00299
81 0.004033
91 0.002942
105 0.002974
120 0.00319
128 0.004035
141 0.002991
150 0.0
155 0.000954
163 0.0
170 0.0
179 0.000968
189 0.0
195 0.0
201 0.000971
205 0.0
213 0.0
214 0.002026
142 0.000991
50 0.0
31 0.000998
44 0.001001
58 0.0
58 0.002026
72 0.00296
84 0.002991
86 0.003958
89 0.003024
100 0.004002
110 0.003975
128 0.003991
142 0.004981
148 0.006002
156 0.004012
164 0.003005
170 0.003001
180 0.003055
190 0.003004
196 0.003019
204 0.002962
208 0.004031
216 0.003004
211 0.005018
120 0.002989
44 0.005049
35 0.003989
53 0.004025
64 0.00501
64 0.003991
81 0.00402
93 0.004006
94 0.002997
101 0.000998
112 0.0
123 0.000997
140 0.0
148 0.0
160 0.000997
170 0.001995
175 0.003954
183 0.003963
194 0.005994
199 0.005004
209 0.005938
217 0.005966
221 0.005978
228 0.005955
232 0.005987
232 0.005977
126 0.006707
60 0.005979
40 0.006986
60 0.006978
69 0.005975
70 0.006014
77 0.007011
94 0.005984
99 0.004164
102 0.006014
113 0.004041
131 0.003022
141 0.003994
154 0.003017
166 0.0
170 0.000999
179 0.0
186 0.0
193 0.0
201 0.00207
209 0.0
215 0.0
223 0.0
227 0.000968
234 0.0
237 0.0
215 0.002057
106 0.002023
49 0.002024
53 0.001988
77 0.00396
82 0.003991
86 0.005974
99 0.006133
105 0.004987
107 0.003966
114 0.004981
124 0.004985
141 0.002984
153 0.005021
163 0.0
171 0.003024
179 0.002009
183 0.001995
191 0.0
198 0.001853
205 0.002043
212 0.003959
220 0.004047
223 0.003946
229 0.004035
233 0.004017
237 0.00499
139 0.005967
74 0.005686
50 0.005934
71 0.004959
85 0.005017
94 0.002992
108 0.003987
114 0.00305
112 0.002979
113 0.002967
123 0.003989
136 0.005972
147 0.003048
158 0.006026
168 0.004995
172 0.003985
179 0.004078
186 0.0
191 0.003023
197 0.001005
205 0.002053
209 0.001995
215 0.003028
220 0.002975
200 0.003991
79 0.004013
46 0.004115
52 0.00394
76 0.00404
83 0.004999
98 0.004967
106 0.00497
107 0.005006
107 0.004989
111 0.004987
125 0.00399
139 0.005019
151 0.002993
162 0.006007
170 0.004986
174 0.004989
180 0.004986
187 0.001991
193 0.00202
200 0.0
205 0.003054
213 0.000998
215 0.001043
167 0.0
49 0.001999
29 0.0
43 0.0
62 0.001
64 0.000989
74 0.001859
87 0.001997
90 0.003016
93 0.003994
105 0.003987
115 0.003989
131 0.003945
142 0.005011
149 0.005983
156 0.007944
164 0.005951
168 0.006036
176 0.005987
186 0.003024
192 0.005968
199 0.003985
204 0.003016
211 0.002972
211 0.002999
156 0.003006
37 0.003941
18 0.005016
35 0.002991
49 0.005984
50 0.003035
59 0.004994
74 0.002975
77 0.004994
81 0.002988
94 0.0
104 0.002993
121 0.000965
130 0.003024
141 0.001002
150 0.0
153 0.0
163 0.0
168 0.0
177 0.001995
186 0.002044
191 0.001995
198 0.002985
206 0.004987
213 0.005983
207 0.005007
91 0.004987
36 0.004997
27 0.004987
47 0.006915
55 0.004051
56 0.006993
70 0.006984
78 0.005033
80 0.004987
84 0.004986
98 0.003989
116 0.0
127 0.001972
141 0.00098
149 0.0
154 0.0
161 0.0
166 0.0
173 0.000968
182 0.001003
186 0.0
192 0.000998
199 0.001993
204 0.001995
210 0.002002
169 0.002992
89 0.004987
26 0.005997
34 0.007971
51 0.00399
62 0.006011
70 0.004989
80 0.004981
82 0.002962
83 0.0
88 0.0
104 0.001017
116 0.0
125 0.0
139 0.002
147 0.002992
151 0.003
159 0.002992
168 0.002984
172 0.002942
181 0.003029
186 0.003064
195 0.003983
204 0.003024
197 0.004028
80 0.003988
31 0.003981
25 0.005942
45 0.006981
55 0.005984
62 0.007013
80 0.007978
83 0.006981
83 0.007018
91 0.002988
100 0.006982
118 0.004137
127 0.003954
142 0.00405
153 0.002991
157 0.002963
165 0.003013
173 0.00399
180 0.003002
187 0.004067
194 0.002976
200 0.003941
209 0.002945
215 0.002985
182 0.003058
49 0.002993
18 0.00301
28 0.0
42 0.003026
49 0.0
59 0.000948
70 0.0
77 0.000939
79 0.000989
88 0.000998
102 0.0
112 0.0
128 0.0
140 0.0
146 0.0
152 0.002026
157 0.0
165 0.0
175 0.0
181 0.0
192 0.0
197 0.0
207 0.002047
209 0.00198
133 0.002995
40 0.002996
21 0.004045
38 0.004024
60 0.004002
70 0.00396
82 0.003989
91 0.003947
90 0.004012
94 0.003954
110 0.004005
121 0.003987
137 0.005019
147 0.005949
157 0.005981
166 0.003954
173 0.005975
178 0.002993
187 0.005985
194 0.003072
202 0.005986
211 0.002991
215 0.003024
224 0.002998
178 0.001002
88 0.00301
17 0.0
22 0.003043
48 0.000991
54 0.0
58 0.0
78 0.00098
86 0.001044
87 0.0
96 0.0
106 0.0
125 0.0
138 0.003043
150 0.0
159 0.003045
167 0.0
173 0.00298
184 0.003045
188 0.003084
198 0.000998
203 0.0
213 0.0
221 0.0
218 0.000991
125 0.0
25 0.0
20 0.0
46 0.000998
59 0.002011
65 0.001938
84 0.002996
92 0.002972
94 0.004011
101 0.004023
111 0.005002
129 0.006016
143 0.006015
154 0.005901
164 0.00504
172 0.005964
178 0.007976
187 0.007997
193 0.007979
201 0.00702
211 0.003984
215 0.004972
224 0.002992
232 0.001952
217 0.003009
78 0.001998
30 0.0
29 0.0
59 0.0
66 0.0
79 0.0
92 0.003955
95 0.0
95 0.0
104 0.000965
113 0.001044
132 0.001996
146 0.003969
156 0.004994
164 0.004966
170 0.005005
176 0.006994
185 0.006948
189 0.007017
201 0.006988
207 0.005934
214 0.006983
216 0.005995
172 0.00798
46 0.002998
25 0.003017
42 0.00299
70 0.002951
89 0.002964
100 0.002996
104 0.000998
99 0.002992
104 0.0
117 0.00304
137 0.001014
148 0.00101
165 0.000993
174 0.001012
180 0.000995
186 0.001995
192 0.002
197 0.000998
205 0.002993
211 0.00394
221 0.003002
170 0.003968
80 0.003992
12 0.004022
18 0.00402
48 0.003867
63 0.005107
69 0.005923
86 0.004983
90 0.003032
90 0.002988
100 0.003003
114 0.004987
130 0.002968
146 0.003955
161 0.001994
168 0.001965
176 0.002996
184 0.0
188 0.0
198 0.0
203 0.0
212 0.0
221 0.0
228 0.0
204 0.00101
114 0.0
21 0.000999
11 0.00202
29 0.0
50 0.0
54 0.0
70 0.0
82 0.001039
82 0.002046
88 0.001997
100 0.002993
121 0.003974
140 0.003004
159 0.003998
169 0.003958
176 0.00496
180 0.006974
180 0.007978
183 0.003985
189 0.003166
195 0.003026
204 0.0
214 0.0
184 0.0
51 0.000962
13 0.0
22 0.000998
56 0.001995
77 0.004988
90 0.005029
99 0.005983
95 0.006941
95 0.006028
101 0.007011
118 0.006981
134 0.007968
148 0.006982
157 0.006979
168 0.006979
176 0.004118
181 0.006981
188 0.002993
195 0.002994
202 0.003008
212 0.002986
217 0.002996
145 0.001975
19 0.0
2 0.0
24 0.0
44 0.003044
50 0.0
65 0.0
80 0.001009
80 0.000998
85 0.002034
92 0.000995
112 0.001993
129 0.004023
143 0.004013
154 0.004036
165 0.004027
168 0.004046
177 0.002992
183 0.002948
191 0.00399
201 0.003957
206 0.00504
216 0.006926
222 0.005981
192 0.005965
43 0.005968
0 0.004945
8 0.004011
34 0.003006
39 0.006023
48 0.001998
66 0.006937
73 0.002974
75 0.004987
86 0.005021
96 0.003022
117 0.003022
135 0.001014
144 0.0
154 0.0
161 0.0
170 0.0
179 0.000995
184 0.0
194 0.0
202 0.004015
207 0.00096
216 0.0
222 0.0
193 0.0
46 0.0
4 0.000965
68 0.001995
80 0.00296
84 0.003901
88 0.005021
98 0.005984
100 0.006018
102 0.006012
105 0.006017
114 0.006033
121 0.004995
127 0.007979
136 0.004028
141 0.003007
144 0.002164
148 0.003012
153 0.003003
155 0.001975
160 0.002008
162 0.003001
167 0.002991
170 0.005028
173 0.003076
174 0.004964
133 0.001985
79 0.004988
66 0.004012
74 0.004017
87 0.003983
92 0.003062
98 0.003031
103 0.00098
103 0.002993
105 0.0
113 0.002041
118 0.0
128 0.000924
134 0.00101
137 0.0
142 0.000998
146 0.002031
149 0.004005
153 0.004001
158 0.00499
161 0.005993
165 0.005953
167 0.005998
172 0.006281
166 0.007963
