134 0.010971
139 0.00399
133 0.00399
76 0.002992
44 0.003989
39 0.00399
51 0.003989
64 0.004002
86 0.003952
102 0.003989
108 0.003039
109 0.002992
110 0.003988
115 0.004987
120 0.004989
133 0.004029
141 0.003983
134 0.003987
75 0.003985
41 0.003999
37 0.003998
48 0.003991
60 0.003985
83 0.004011
97 0.003996
104 0.004978
106 0.00499
108 0.003975
112 0.00399
118 0.003993
132 0.003989
143 0.004023
139 0.00399
98 0.004986
47 0.003984
37 0.004036
45 0.003989
57 0.004987
72 0.004987
94 0.003989
103 0.005
105 0.004038
104 0.004989
107 0.005015
114 0.004987
121 0.004987
134 0.00399
145 0.003974
129 0.003992
78 0.004992
43 0.004939
41 0.004007
54 0.003989
72 0.003979
103 0.004998
113 0.004987
113 0.005984
111 0.005985
115 0.00498
118 0.005971
127 0.003938
137 0.004987
151 0.004987
153 0.004987
107 0.004994
52 0.004028
50 0.00398
64 0.004988
86 0.005972
108 0.005984
122 0.004989
121 0.005004
118 0.004986
121 0.005996
127 0.005977
135 0.006023
152 0.004987
163 0.001994
81 0.001995
66 0.004987
44 0.004986
50 0.005983
65 0.005984
92 0.004987
110 0.004987
121 0.004987
122 0.005984
120 0.005983
122 0.004987
127 0.004987
140 0.005986
147 0.005979
154 0.005979
108 0.006017
62 0.006019
38 0.005991
40 0.005984
57 0.004986
73 0.006028
92 0.00602
107 0.005028
113 0.00399
114 0.00698
123 0.004987
130 0.006981
140 0.006981
149 0.005984
126 0.005985
70 0.005984
30 0.005984
30 0.005995
47 0.004986
63 0.005981
91 0.005984
104 0.006015
106 0.005979
108 0.006982
112 0.007014
120 0.006046
129 0.005985
136 0.006015
149 0.006017
140 0.005998
88 0.007012
41 0.006017
31 0.006983
46 0.005985
62 0.006018
81 0.007018
94 0.006985
102 0.005953
102 0.005977
103 0.005973
107 0.006984
115 0.007013
130 0.005984
142 0.005984
133 0.0
94 0.003989
58 0.006982
23 0.006983
28 0.007014
44 0.006981
75 0.005985
95 0.005948
106 0.006982
108 0.007064
104 0.005983
107 0.005984
123 0.006981
132 0.006983
144 0.006969
163 0.007975
153 0.00695
93 0.006921
45 0.006941
28 0.006951
46 0.006978
68 0.007014
101 0.005983
116 0.005938
111 0.007024
106 0.006963
109 0.007016
118 0.007991
129 0.007979
141 0.006982
154 0.006982
146 0.006978
68 0.007978
35 0.007011
17 0.006982
25 0.006934
56 0.006982
91 0.007978
97 0.007988
106 0.00798
100 0.007978
101 0.007982
110 0.007014
118 0.00798
125 0.007979
145 0.00797
140 0.008018
86 0.00795
19 0.007985
21 0.00798
42 0.007012
59 0.007024
85 0.007986
100 0.007984
103 0.006981
102 0.006977
106 0.007013
113 0.007936
124 0.006972
137 0.007978
133 0.007011
62 0.007994
24 0.007944
15 0.007954
27 0.007944
43 0.007976
70 0.007964
87 0.007953
94 0.00798
92 0.007974
92 0.007982
96 0.006985
104 0.008976
116 0.0
77 0.002002
9 0.007048
1 0.007016
7 0.007023
32 0.007056
54 0.006981
72 0.007013
85 0.007012
84 0.006984
91 0.006983
97 0.006989
107 0.00697
118 0.007017
126 0.007979
125 0.006975
73 0.006984
23 0.007015
3 0.006981
6 0.006981
26 0.007014
48 0.006956
71 0.006978
79 0.006979
74 0.006974
68 0.006998
72 0.006967
96 0.006979
113 0.00699
125 0.007053
139 0.006997
137 0.007002
66 0.006981
7 0.007023
63 0.006983
69 0.006962
78 0.006986
89 0.006979
99 0.006979
106 0.006934
107 0.005983
108 0.005978
111 0.005983
115 0.006959
124 0.006979
129 0.006976
141 0.007003
137 0.006947
107 0.006981
79 0.006982
69 0.006989
75 0.006972
86 0.00602
98 0.006016
109 0.005984
113 0.005985
113 0.005984
115 0.005984
120 0.005942
127 0.006981
133 0.00698
138 0.005991
145 0.006023
145 0.006017
108 0.005951
84 0.005983
78 0.005985
84 0.005981
95 0.005983
118 0.005978
126 0.005989
126 0.005975
123 0.005974
124 0.005979
128 0.00595
135 0.004994
143 0.004986
150 0.004985
153 0.005997
130 0.00603
96 0.006018
76 0.006019
81 0.005976
94 0.005985
105 0.00597
117 0.005969
123 0.005985
123 0.005991
122 0.004995
126 0.004989
132 0.005984
139 0.005984
145 0.006044
154 0.005982
133 0.005987
89 0.005981
74 0.005979
46 0.005995
59 0.004984
72 0.005021
95 0.004986
109 0.004986
116 0.005022
118 0.005015
120 0.005003
126 0.005984
136 0.005995
149 0.006036
160 0.005033
165 0.005025
121 0.004986
69 0.004982
43 0.004991
50 0.004986
63 0.00489
82 0.004981
102 0.005021
118 0.004024
121 0.003998
118 0.004988
123 0.005039
131 0.004936
142 0.004987
154 0.004988
174 0.004948
164 0.004986
110 0.004986
67 0.005018
54 0.004987
67 0.004987
95 0.004987
124 0.004983
138 0.004983
137 0.003981
132 0.003991
132 0.003969
141 0.005001
150 0.004985
162 0.004999
175 0.005023
178 0.005028
115 0.004987
60 0.004987
56 0.00495
70 0.003974
88 0.004998
109 0.00399
126 0.004477
131 0.004979
125 0.004987
127 0.004986
129 0.004987
130 0.0
139 0.003955
86 0.003985
54 0.003996
46 0.003987
54 0.004021
73 0.004991
91 0.004968
106 0.004969
113 0.004017
113 0.004025
112 0.004024
118 0.003985
126 0.00399
138 0.003995
151 0.003939
147 0.003969
101 0.003989
56 0.004002
33 0.003981
38 0.004991
50 0.00404
63 0.004022
77 0.004041
98 0.003996
102 0.004022
103 0.003976
107 0.003983
114 0.003992
123 0.004025
133 0.004102
147 0.003989
127 0.002959
75 0.002993
39 0.002994
30 0.00399
45 0.003987
60 0.003989
83 0.003975
96 0.003978
100 0.003032
97 0.003974
99 0.003983
108 0.002997
120 0.003002
131 0.002992
143 0.002993
156 0.003039
109 0.003987
60 0.003991
38 0.00399
47 0.003996
64 0.003958
87 0.003989
106 0.003994
116 0.002988
113 0.002996
112 0.002993
113 0.002992
120 0.002993
137 0.003007
147 0.002957
161 0.003007
140 0.002981
87 0.003956
48 0.002996
37 0.002981
47 0.002977
64 0.003014
83 0.002992
99 0.002992
106 0.003025
104 0.003002
105 0.00296
114 0.004039
122 0.002994
135 0.004034
146 0.002993
157 0.004028
133 0.003965
78 0.002992
41 0.002993
29 0.002992
35 0.002992
57 0.002994
75 0.002995
93 0.00301
101 0.002957
101 0.002988
101 0.002986
104 0.002995
117 0.004021
128 0.001997
139 0.001996
152 0.002025
159 0.001995
82 0.002986
43 0.002991
31 0.001993
40 0.002982
54 0.003034
72 0.002992
88 0.002998
102 0.002982
101 0.003006
99 0.002028
104 0.001994
113 0.001995
132 0.001997
146 0.001994
164 0.001996
171 0.002004
132 0.002941
75 0.002945
46 0.001994
48 0.003024
63 0.002992
85 0.001995
108 0.001994
122 0.001995
123 0.001997
120 0.001999
124 0.001995
135 0.001956
147 0.002044
160 0.001977
174 0.002002
188 0.001994
152 0.000997
92 0.000997
58 0.002031
55 0.001004
79 0.001995
100 0.002002
121 0.002002
133 0.002026
130 0.001995
127 0.001991
131 0.00199
137 0.001995
151 0.001996
160 0.001995
173 0.000998
186 0.000997
118 0.001
70 0.001005
51 0.000998
56 0.001011
70 0.002001
88 0.001991
107 0.001992
119 0.002007
123 0.0
123 0.0
123 0.000998
130 0.000998
149 0.000998
162 0.001
175 0.001007
183 0.001117
140 0.000997
80 0.00099
48 0.000998
44 0.001
58 0.000998
73 0.000998
91 0.000998
108 0.000994
119 0.001028
117 0.0
118 0.001
127 0.000999
137 0.000997
150 0.00102
163 0.00103
180 0.000983
189 0.000997
141 0.000995
79 0.000957
49 0.000997
51 0.0
67 0.0
88 0.00101
115 0.001021
127 0.0
128 0.000998
124 0.000998
127 0.001008
137 0.000964
149 0.000997
164 0.001005
179 0.000966
205 0.0
198 0.000997
136 0.0
67 0.0
55 0.0
65 0.0
86 0.0
111 0.0
142 0.0
152 0.000998
148 0.000997
143 0.000998
150 0.0
161 0.0
174 0.0
194 0.0
210 0.0
207 0.0
149 0.0
84 0.0
55 0.0
63 0.0
82 0.0
107 0.0
144 0.0
151 0.0
147 0.0
141 0.0
145 0.0
157 0.0
170 0.0
183 0.0
198 0.0
192 0.0
127 0.0
68 0.0
45 0.0
57 0.0
73 0.0
95 0.0
121 0.001
130 0.0
125 0.0
124 0.0
128 0.0
140 0.0
152 0.001018
172 0.0
188 0.000997
139 0.0
76 0.0
42 0.0
36 0.001004
46 0.000996
68 0.0
89 0.0
107 0.0
118 0.0
120 0.0
118 0.0
124 0.000994
138 0.0
151 0.0
165 0.0
182 0.000967
179 0.000998
98 0.0
47 0.0
30 0.0
36 0.000997
51 0.001003
70 0.0
105 0.000954
117 0.0
119 0.0
117 0.000991
120 0.000949
129 0.000999
143 0.000969
162 0.0
180 0.0
195 0.001027
170 0.00102
83 0.0
43 0.001
52 0.0
70 0.0
93 0.0
116 0.000998
130 0.000994
129 0.001
125 0.000999
129 0.0
137 0.000994
147 0.000998
166 0.0
187 0.00096
184 0.001012
125 0.0
67 0.000987
46 0.00099
52 0.001031
75 0.000993
102 0.000986
127 0.001031
140 0.001995
137 0.001993
129 0.000967
133 0.000993
148 0.00096
161 0.00101
176 0.000955
192 0.002005
180 0.001994
93 0.000976
50 0.000998
40 0.001046
49 0.001995
66 0.002008
94 0.001034
117 0.002027
122 0.001999
116 0.000998
117 0.001028
122 0.000998
132 0.002029
143 0.002032
148 0.017963
163 0.0
175 0.0
43 0.002992
30 0.001996
43 0.002991
64 0.001008
82 0.001978
96 0.001966
101 0.002027
101 0.001988
104 0.000983
110 0.001049
119 0.000953
132 0.002048
145 0.001995
168 0.002027
138 0.001994
59 0.000997
27 0.000997
21 0.001013
31 0.002028
45 0.001995
69 0.00102
86 0.00203
97 0.002024
98 0.002995
96 0.002988
103 0.002021
111 0.003016
130 0.000975
145 0.000985
164 0.000981
166 0.002029
113 0.002039
39 0.001056
20 0.002025
24 0.002027
40 0.002992
60 0.002992
94 0.003036
107 0.003044
107 0.000993
106 0.001003
111 0.00102
120 0.00203
131 0.001995
152 0.002035
169 0.002015
182 0.002045
157 0.002992
94 0.002992
41 0.003063
48 0.003022
72 0.002002
97 0.002044
122 0.002025
136 0.003036
135 0.002991
129 0.00304
132 0.003029
138 0.002029
150 0.002985
166 0.002992
193 0.002988
196 0.003025
119 0.001995
65 0.002043
47 0.001997
53 0.003036
69 0.002992
101 0.003027
124 0.002992
135 0.002983
134 0.00399
127 0.004025
129 0.004021
140 0.002736
160 0.001984
177 0.002006
195 0.001973
184 0.00308
119 0.003027
54 0.001995
42 0.003027
50 0.003025
68 0.003989
87 0.00399
121 0.004024
129 0.004022
125 0.003029
125 0.003042
130 0.002037
140 0.003994
153 0.003991
174 0.003042
180 0.002997
136 0.001975
77 0.00196
46 0.003964
47 0.002992
61 0.004021
83 0.004023
111 0.003006
124 0.003023
126 0.003033
124 0.003989
124 0.003976
134 0.003025
146 0.003039
159 0.003025
176 0.004002
138 0.003991
82 0.004044
50 0.005022
47 0.004025
63 0.003
84 0.002973
107 0.00399
128 0.003989
137 0.003039
133 0.003019
133 0.004029
138 0.004987
159 0.004033
176 0.005022
193 0.00502
194 0.004025
136 0.002992
79 0.002987
57 0.003989
63 0.003989
93 0.00303
120 0.003003
147 0.00303
161 0.004026
155 0.004048
153 0.005033
156 0.00502
170 0.004028
184 0.004022
201 0.00401
213 0.005
185 0.005004
98 0.004023
66 0.004023
68 0.003991
86 0.003983
130 0.004039
154 0.005027
162 0.005022
155 0.004027
149 0.004023
151 0.003986
161 0.004987
172 0.004986
192 0.003986
201 0.003033
160 0.004031
95 0.005984
50 0.004026
59 0.005022
76 0.004988
110 0.003973
132 0.004017
142 0.003994
136 0.004986
132 0.002991
130 0.001041
141 0.00498
153 0.004027
168 0.006011
174 0.004023
117 0.006015
63 0.005985
38 0.005019
40 0.003981
55 0.004019
76 0.005021
97 0.005879
115 0.004992
117 0.004022
113 0.003987
116 0.005016
125 0.00502
137 0.005027
153 0.005022
168 0.003989
131 0.00397
73 0.004952
38 0.006018
30 0.006019
45 0.004992
63 0.00503
82 0.005018
100 0.005984
109 0.005034
106 0.005997
106 0.005986
113 0.004028
125 0.005023
136 0.005021
151 0.005
166 0.006017
147 0.005984
71 0.00504
37 0.005169
33 0.005034
54 0.005021
74 0.005971
96 0.007019
109 0.007029
111 0.006016
106 0.006019
106 0.00503
112 0.005984
123 0.005984
138 0.004974
151 0.004986
168 0.005021
136 0.005083
74 0.005011
39 0.00602
34 0.00699
53 0.006018
76 0.006016
101 0.006017
119 0.00602
122 0.005984
115 0.005018
115 0.005
121 0.004988
139 0.004977
153 0.005026
166 0.007018
182 0.007015
174 0.006016
116 0.005987
64 0.006003
48 0.006982
54 0.006981
84 0.006015
113 0.006019
130 0.007013
144 0.007028
132 0.006012
131 0.007024
137 0.007014
152 0.005984
166 0.005984
181 0.006018
198 0.006982
187 0.007029
103 0.005019
57 0.006017
48 0.005981
72 0.007019
91 0.00702
126 0.007017
141 0.007013
137 0.006015
130 0.005985
130 0.005984
136 0.007002
145 0.006981
165 0.005989
180 0.005973
183 0.006975
93 0.006061
51 0.007017
39 0.007985
52 0.007976
69 0.005983
90 0.006015
103 0.007035
117 0.006982
117 0.00695
114 0.005999
117 0.006982
125 0.006018
142 0.007012
159 0.007027
161 0.00798
110 0.007983
57 0.007013
30 0.007029
27 0.007013
38 0.00702
53 0.007024
77 0.006017
92 0.005982
99 0.006019
96 0.007013
97 0.006977
106 0.007947
113 0.007979
129 0.007013
142 0.007017
151 0.006981
128 0.007974
54 0.007948
19 0.007978
12 0.007044
20 0.007014
43 0.007017
65 0.006973
78 0.007957
80 0.007988
78 0.007944
77 0.006981
82 0.006989
91 0.006982
102 0.007942
118 0.007014
128 0.007014
141 0.006968
78 0.006982
30 0.006981
19 0.008976
6 0.006992
16 0.007978
33 0.007012
52 0.006977
67 0.00695
74 0.007978
74 0.007979
75 0.007013
82 0.007016
100 0.006963
113 0.006987
125 0.006985
135 0.00699
148 0.007014
157 0.006987
135 0.007981
58 0.008
33 0.007979
24 0.00799
37 0.006997
55 0.006982
94 0.006978
101 0.006954
97 0.006981
93 0.006982
97 0.007014
108 0.007024
120 0.007015
132 0.006985
143 0.006976
157 0.00798
174 0.007016
153 0.007014
56 0.007985
32 0.006994
35 0.006983
50 0.00703
70 0.007022
98 0.007019
111 0.007013
111 0.007018
105 0.007016
103 0.007012
113 0.006017
124 0.006021
143 0.007016
154 0.005989
166 0.006999
174 0.007031
141 0.007022
63 0.007007
32 0.007015
28 0.007018
38 0.007015
52 0.007015
78 0.007015
93 0.00602
100 0.005982
97 0.005986
99 0.005987
105 0.007022
115 0.00602
132 0.007021
145 0.006991
156 0.006976
168 0.006996
179 0.007024
135 0.006948
74 0.007017
24 0.005991
28 0.005972
38 0.005979
51 0.006
68 0.006018
87 0.006016
95 0.006015
93 0.006015
94 0.006021
99 0.006014
111 0.006048
124 0.007016
148 0.005992
161 0.005982
173 0.005967
182 0.006023
192 0.006017
203 0.006017
188 0.006017
120 0.006016
60 0.004987
33 0.006018
33 0.005984
49 0.005019
70 0.004987
93 0.005989
103 0.006007
107 0.006025
105 0.006017
106 0.005976
117 0.005983
130 0.006014
146 0.006015
163 0.006015
179 0.005981
200 0.005023
216 0.004991
182 0.004989
240 0.004985
246 0.005019
199 0.005958
113 0.005021
54 0.006023
52 0.005983
67 0.005995
88 0.006022
112 0.006018
139 0.005023
143 0.004932
133 0.004971
132 0.004955
141 0.005022
154 0.00505
170 0.00502
193 0.005024
208 0.005017
222 0.005987
237 0.005019
250 0.00502
201 0.005045
95 0.004978
55 0.005028
61 0.005
79 0.00501
101 0.005018
126 0.005016
149 0.004983
150 0.005019
144 0.005514
141 0.004969
146 0.005
162 0.005021
183 0.00501
206 0.004975
220 0.005024
235 0.004989
217 0.004989
140 0.005024
59 0.004024
44 0.004016
52 0.003986
70 0.004021
82 0.011968
110 0.001962
132 0.003991
130 0.004991
127 0.004997
131 0.005019
141 0.005018
155 0.005023
176 0.004992
192 0.004022
209 0.004023
223 0.004024
200 0.004022
96 0.004022
40 0.003998
38 0.003999
52 0.004033
72 0.00403
94 0.005027
113 0.005025
126 0.005024
125 0.005019
122 0.004026
124 0.003991
134 0.004023
153 0.004021
175 0.00401
193 0.003978
217 0.00399
214 0.003993
147 0.003027
72 0.003992
39 0.00399
42 0.002994
58 0.002981
79 0.00403
106 0.004023
129 0.003988
140 0.003987
137 0.003992
137 0.004036
147 0.004032
160 0.004021
177 0.003959
196 0.003028
220 0.002994
238 0.002994
220 0.003352
140 0.003991
72 0.002998
51 0.002963
70 0.002962
108 0.003001
140 0.002995
163 0.002993
168 0.003007
161 0.003991
155 0.00399
160 0.004026
173 0.002994
191 0.002992
208 0.002993
238 0.003008
238 0.002954
140 0.002997
72 0.003025
50 0.003026
58 0.003029
80 0.002031
120 0.003003
149 0.001995
165 0.00399
162 0.002998
151 0.003969
150 0.002974
161 0.002959
181 0.002993
196 0.00302
214 0.002997
220 0.002993
164 0.002992
64 0.003027
36 0.002999
37 0.003986
54 0.001995
76 0.002992
116 0.002958
129 0.002961
126 0.003006
121 0.003045
122 0.002998
132 0.00305
144 0.002992
164 0.003023
182 0.003056
193 0.002028
151 0.001995
76 0.002026
19 0.001998
23 0.002954
42 0.002992
63 0.003041
86 0.003053
101 0.002994
106 0.002992
103 0.002992
103 0.003025
108 0.002034
119 0.002032
133 0.001995
162 0.002002
177 0.001996
121 0.002036
54 0.00203
18 0.00189
11 0.001995
21 0.002058
43 0.001996
63 0.00101
83 0.001995
95 0.002993
97 0.001995
96 0.002005
101 0.002007
110 0.001991
129 0.002027
142 0.001995
160 0.002029
178 0.001995
159 0.001996
64 0.001995
22 0.001995
15 0.000952
27 0.000997
61 0.001
85 0.001995
105 0.002034
108 0.002028
102 0.001965
102 0.002028
111 0.002028
121 0.001995
142 0.002046
159 0.000999
176 0.000996
194 0.000997
142 0.000988
70 0.000998
35 0.000998
37 0.001995
57 0.00204
84 0.001994
102 0.0
132 0.001993
132 0.001011
122 0.001045
120 0.000997
126 0.000997
150 0.001013
167 0.000998
183 0.001005
206 0.001005
194 0.000997
123 0.000998
59 0.000997
36 0.000998
47 0.001007
67 0.000997
90 0.000998
113 0.000997
129 0.000966
123 0.00101
118 0.000996
125 0.000993
136 0.000987
150 0.000998
165 0.000997
181 0.0
196 0.0
154 0.0
80 0.0
36 0.000998
31 0.000993
46 0.001003
66 0.000998
94 0.000997
109 0.000998
112 0.000999
107 0.001003
106 0.0
113 0.0
127 0.0
142 0.0
156 0.0
185 0.001002
181 0.0
115 0.000997
38 0.0
20 0.0
23 0.0
38 0.0
58 0.0
85 0.0
101 0.0
107 0.0
104 0.0
107 0.001013
114 0.0
128 0.0
150 0.0
165 0.0
182 0.0
197 0.0
184 0.0
110 0.0
36 0.0
20 0.0
27 0.0
55 0.0
78 0.0
99 0.0
111 0.0
111 0.000999
110 0.0
114 0.0
122 0.0
143 0.0
161 0.0
181 0.000963
205 0.0
224 0.000962
156 0.0
77 0.0
47 0.000963
38 0.000997
55 0.000997
88 0.0
116 0.0
139 0.0
146 0.001031
138 0.001011
132 0.0
141 0.001038
160 0.0
178 0.0
196 0.0
215 0.000997
232 0.000998
199 0.0
142 0.000998
58 0.0
46 0.000997
59 0.001032
93 0.0
136 0.001032
161 0.0
161 0.0
151 0.0
147 0.001001
154 0.000999
174 0.0
190 0.000995
206 0.0
226 0.001012
240 0.000997
171 0.0
68 0.000991
42 0.0
55 0.0
77 0.0
104 0.00103
130 0.001029
148 0.0
144 0.0
135 0.0
135 0.000997
143 0.000993
162 0.0
184 0.001991
208 0.000966
216 0.0
163 0.0
83 0.001997
40 0.001983
36 0.000993
52 0.0
72 0.000994
96 0.000993
116 0.001033
128 0.000966
123 0.001027
124 0.000965
131 0.000996
145 0.000967
161 0.001995
178 0.002033
203 0.000997
199 0.000979
132 0.001035
61 0.002035
27 0.002005
29 0.000992
50 0.001028
78 0.000963
98 0.001
110 0.000998
111 0.00203
108 0.002029
110 0.001007
120 0.001029
134 0.000998
149 0.001999
165 0.002006
188 0.002034
199 0.003003
118 0.000947
49 0.000987
19 0.001001
19 0.000962
31 0.002025
48 0.002029
78 0.000966
96 0.000998
102 0.001008
101 0.001996
99 0.001995
108 0.002029
121 0.002
141 0.002012
157 0.002024
173 0.002026
190 0.002993
203 0.002028
145 0.000995
68 0.000993
29 0.001017
24 0.002025
36 0.00203
72 0.003022
97 0.002955
119 0.000991
121 0.001017
115 0.000995
114 0.002025
122 0.001996
140 0.000997
158 0.002043
176 0.001999
195 0.002993
211 0.002992
237 0.003026
206 0.002993
95 0.002044
49 0.000986
43 0.000998
60 0.002993
87 0.002992
132 0.000991
157 0.002033
165 0.001994
157 0.002992
151 0.003023
159 0.002992
173 0.002994
195 0.002026
211 0.002035
231 0.002034
251 0.002992
242 0.002984
135 0.001035
72 0.002036
59 0.000998
71 0.003001
94 0.00399
149 0.003949
172 0.004003
173 0.002025
163 0.001992
156 0.002007
163 0.002992
173 0.002991
195 0.001995
209 0.001996
226 0.001969
237 0.004021
193 0.00403
63 0.003989
40 0.002993
52 0.002008
73 0.001989
99 0.001996
123 0.003027
137 0.003082
134 0.001994
124 0.00205
122 0.003044
130 0.004006
143 0.003991
173 0.00398
193 0.003989
205 0.002953
150 0.001956
71 0.001997
28 0.003959
22 0.003023
40 0.001997
58 0.003045
80 0.002991
101 0.003989
112 0.003989
110 0.004022
109 0.003993
117 0.003023
130 0.00197
145 0.002993
159 0.004023
179 0.00399
193 0.005037
129 0.002993
56 0.002991
20 0.002979
15 0.00399
35 0.003007
53 0.00399
74 0.00399
94 0.003024
96 0.003024
94 0.003025
94 0.004039
101 0.004987
117 0.002991
135 0.002993
151 0.003009
168 0.003989
189 0.003013
140 0.003989
66 0.00399
20 0.002989
22 0.002995
39 0.004041
60 0.00502
84 0.004987
109 0.00299
112 0.003025
108 0.002995
105 0.004987
117 0.003017
132 0.003981
150 0.003957
171 0.002994
188 0.002995
207 0.003992
203 0.00495
137 0.005021
66 0.0
37 0.003988
47 0.004043
68 0.00502
114 0.003026
135 0.005018
137 0.004987
124 0.003958
122 0.003989
128 0.003954
138 0.00498
156 0.004987
175 0.003991
191 0.003992
207 0.003955
214 0.005024
106 0.004005
51 0.005021
37 0.004986
52 0.002994
73 0.004025
98 0.00401
120 0.005984
131 0.006016
122 0.003987
118 0.00399
119 0.003992
130 0.004993
155 0.003993
170 0.004962
183 0.004986
207 0.00399
207 0.004987
141 0.004979
66 0.005985
30 0.006016
29 0.004026
43 0.00399
63 0.004004
84 0.005025
108 0.003997
110 0.004987
109 0.005023
109 0.005025
117 0.004988
131 0.005021
146 0.006017
162 0.006038
183 0.005037
201 0.003982
205 0.004023
148 0.006018
38 0.003988
22 0.004986
30 0.006021
52 0.004986
73 0.005018
93 0.005018
108 0.006017
111 0.006028
107 0.004985
106 0.003978
114 0.005018
127 0.003989
156 0.004026
173 0.003988
189 0.006981
204 0.006982
221 0.004975
186 0.004989
101 0.004986
45 0.005984
30 0.006021
47 0.003974
69 0.004988
95 0.004999
129 0.00502
130 0.004024
121 0.00698
117 0.006934
127 0.004983
140 0.004985
156 0.004989
174 0.005984
189 0.006945
212 0.004985
229 0.004993
215 0.004977
87 0.004985
46 0.004983
42 0.005984
57 0.006982
89 0.006019
117 0.005986
138 0.005983
146 0.006981
141 0.006981
132 0.004967
137 0.004986
149 0.00502
177 0.004989
194 0.004989
210 0.007022
226 0.006981
247 0.005983
227 0.006016
139 0.006016
64 0.006987
36 0.006995
45 0.005016
66 0.00615
89 0.004986
129 0.005987
139 0.004984
138 0.007029
131 0.006997
131 0.005974
143 0.00599
160 0.005984
179 0.006982
196 0.006981
222 0.006036
239 0.006015
233 0.006982
95 0.006025
44 0.006018
36 0.007979
56 0.007979
83 0.005985
112 0.005998
139 0.006017
151 0.007011
146 0.006982
137 0.004022
140 0.006019
151 0.00602
179 0.007002
196 0.006017
221 0.007975
234 0.007011
218 0.005983
133 0.005984
60 0.005984
37 0.00702
44 0.006981
75 0.005986
104 0.006983
132 0.006984
149 0.007015
140 0.006984
133 0.007979
136 0.007978
152 0.006028
167 0.005986
182 0.006004
198 0.007964
216 0.006981
205 0.005984
124 0.007117
53 0.006982
28 0.007012
41 0.007013
61 0.007978
85 0.007944
113 0.00703
121 0.00703
118 0.006016
112 0.007975
113 0.00798
126 0.007025
142 0.006982
158 0.007002
186 0.00699
202 0.006982
183 0.006987
78 0.007977
39 0.007979
12 0.006995
20 0.007015
35 0.006015
54 0.007982
81 0.007016
96 0.00698
97 0.006965
93 0.006972
96 0.006981
105 0.006977
118 0.007978
139 0.007979
156 0.006995
174 0.007014
182 0.007032
121 0.007017
48 0.007015
9 0.006979
12 0.006983
33 0.006971
55 0.006952
83 0.006982
94 0.007023
95 0.007012
91 0.006976
91 0.006984
97 0.007013
109 0.007979
129 0.007013
154 0.00698
178 0.006962
192 0.006981
138 0.006982
65 0.006983
30 0.007019
28 0.007005
43 0.006981
74 0.005981
102 0.006017
122 0.006018
127 0.007018
116 0.007022
113 0.007003
127 0.006964
143 0.006964
161 0.006975
182 0.00701
195 0.007012
212 0.00702
184 0.006984
130 0.006936
44 0.005985
27 0.005988
44 0.005981
66 0.005984
108 0.007016
126 0.007039
130 0.006992
121 0.006982
115 0.007019
124 0.006978
138 0.006984
154 0.006006
170 0.00602
187 0.006019
209 0.005981
184 0.005976
59 0.005982
29 0.005985
32 0.006024
46 0.006016
65 0.005991
95 0.005976
112 0.006015
116 0.007014
112 0.007015
108 0.007007
117 0.005989
132 0.005988
159 0.005936
174 0.006016
190 0.006033
179 0.006029
113 0.006017
43 0.006988
31 0.006023
40 0.005982
59 0.005059
81 0.005953
104 0.004986
121 0.005982
117 0.006017
113 0.006004
120 0.006031
131 0.006019
144 0.006016
160 0.006019
182 0.005022
197 0.005019
165 0.005019
90 0.004988
44 0.004998
35 0.00499
55 0.004985
86 0.00603
109 0.006024
124 0.006018
126 0.005982
120 0.006022
117 0.005022
124 0.005025
135 0.00499
148 0.004995
163 0.004991
184 0.004989
203 0.005021
150 0.005198
72 0.005016
28 0.00502
20 0.005023
31 0.006034
56 0.006016
78 0.005025
97 0.005022
106 0.004989
105 0.004957
101 0.004983
108 0.005024
123 0.005024
138 0.005024
156 0.005018
171 0.005019
188 0.004949
198 0.00502
143 0.00503
65 0.00502
23 0.005099
16 0.005018
33 0.004984
59 0.005023
87 0.005022
103 0.005019
109 0.004993
105 0.004585
104 0.003988
113 0.004021
125 0.003987
139 0.003986
155 0.004994
173 0.005
194 0.004975
215 0.005025
179 0.004973
95 0.005001
40 0.004021
23 0.004024
32 0.004004
58 0.003988
79 0.004046
102 0.004
117 0.003985
119 0.00399
112 0.004988
114 0.004988
129 0.005027
145 0.005035
162 0.004021
178 0.004026
196 0.003991
219 0.00403
224 0.004021
169 0.003957
87 0.003959
46 0.003989
48 0.003997
75 0.004024
113 0.003978
141 0.004021
154 0.003992
151 0.004026
142 0.004027
140 0.004025
150 0.004024
165 0.003993
182 0.003974
199 0.003995
222 0.003982
244 0.004026
194 0.002968
107 0.004027
64 0.002994
61 0.002992
76 0.003987
101 0.004025
144 0.004026
166 0.003984
172 0.003948
163 0.003986
153 0.004001
158 0.004034
170 0.004027
189 0.004027
205 0.003023
222 0.002992
239 0.003025
232 0.003043
128 0.003044
70 0.002973
52 0.003951
61 0.004011
82 0.003992
124 0.004022
147 0.002985
158 0.003992
152 0.00303
146 0.003026
147 0.003027
155 0.00303
174 0.002993
191 0.002907
207 0.00302
225 0.001994
239 0.002995
146 0.003985
77 0.002982
51 0.004024
58 0.003033
76 0.004022
99 0.003037
124 0.003027
146 0.003023
151 0.002985
146 0.003012
142 0.002985
145 0.002992
164 0.003026
178 0.003025
201 0.003024
220 0.003038
233 0.002029
196 0.003034
114 0.002026
57 0.003039
55 0.002956
68 0.002998
88 0.002988
114 0.002987
151 0.003024
156 0.003026
146 0.001991
142 0.002027
147 0.001996
159 0.002038
172 0.002028
195 0.002991
213 0.002992
231 0.002994
183 0.00296
155 0.002976
100 0.001995
95 0.002993
104 0.001995
117 0.001996
133 0.002052
146 0.002027
152 0.001995
147 0.002031
141 0.001998
141 0.001988
146 0.002013
152 0.002002
165 0.00305
174 0.002008
185 0.00299
172 0.002028
131 0.001996
102 0.001989
95 0.001986
104 0.001991
116 0.001964
132 0.001946
146 0.002007
152 0.002003
143 0.000997
138 0.000998
141 0.001995
147 0.001994
153 0.001995
160 0.001995
169 0.001996
177 0.001993
154 0.002
114 0.002007
91 0.001995
86 0.002009
98 0.001974
110 0.001995
122 0.002009
133 0.001996
133 0.00203
129 0.000999
127 0.000998
128 0.001136
135 0.00103
142 0.001006
149 0.000978
158 0.001973
166 0.002057
136 0.002036
99 0.001996
80 0.002024
80 0.002012
87 0.001013
97 0.000998
109 0.000993
120 0.001003
123 0.000998
121 0.000955
118 0.001988
122 0.001996
128 0.000997
135 0.002024
144 0.000952
152 0.000996
160 0.000998
146 0.001
109 0.001007
80 0.001029
76 0.001002
81 0.000963
90 0.000991
107 0.000998
116 0.002036
119 0.001027
116 0.000997
115 0.000998
117 0.002027
121 0.001005
128 0.000964
139 0.001002
147 0.000992
156 0.000998
163 0.001994
122 0.000998
91 0.0
79 0.0
83 0.001004
93 0.0
105 0.0
118 0.0
126 0.0
124 0.0
120 0.0
119 0.0
122 0.000992
133 0.000997
141 0.000998
149 0.000993
160 0.000998
167 0.0
149 0.0
111 0.0
88 0.0
84 0.0
91 0.0
103 0.0
117 0.0
132 0.0
129 0.0
123 0.0
122 0.000998
125 0.000998
131 0.0
139 0.000997
146 0.001005
156 0.0
164 0.0
157 0.0
120 0.0
79 0.0
57 0.0
67 0.0
85 0.0
102 0.0
115 0.000997
118 0.000991
114 0.000998
111 0.0
114 0.0
121 0.0
130 0.0
148 0.0
159 0.0
174 0.0
176 0.000999
121 0.002021
73 0.002028
50 0.000993
53 0.0
65 0.0
78 0.002023
92 0.001999
104 0.000997
110 0.001039
106 0.0
106 0.0
112 0.0
120 0.001994
130 0.000998
145 0.0
152 0.000992
169 0.0
171 0.002029
130 0.001016
67 0.0
50 0.000998
56 0.000997
73 0.0
90 0.0
105 0.001996
114 0.002007
114 0.000996
111 0.0
111 0.0
116 0.001989
125 0.001994
141 0.0
158 0.001988
175 0.0
187 0.0
195 0.0
164 0.000966
101 0.000976
62 0.0
62 0.00098
71 0.000992
94 0.002025
116 0.001994
139 0.0
140 0.002029
129 0.0
127 0.0
132 0.0
142 0.001035
154 0.00103
168 0.000991
185 0.000977
198 0.0
199 0.001991
152 0.00101
80 0.0
66 0.002027
80 0.0
98 0.0
121 0.0
140 0.002002
147 0.001997
137 0.0
130 0.0
132 0.0
140 0.001029
151 0.001996
167 0.0
182 0.001028
196 0.000967
183 0.0
122 0.0
74 0.001998
56 0.001995
63 0.0
77 0.0
95 0.000994
113 0.00203
124 0.001973
126 0.001001
119 0.002027
121 0.001032
129 0.001992
140 0.000967
153 0.001984
165 0.001996
182 0.001955
191 0.0
166 0.002
103 0.00204
62 0.001996
51 0.001033
63 0.002036
77 0.003018
100 0.001031
113 0.000991
119 0.001007
117 0.002024
114 0.002991
116 0.002056
124 0.000994
134 0.0
147 0.002957
160 0.003029
181 0.00204
190 0.002003
139 0.001995
81 0.001997
55 0.001996
51 0.001996
61 0.001998
79 0.000997
95 0.000997
111 0.002011
120 0.003027
119 0.003017
114 0.001995
117 0.003001
128 0.001045
140 0.001999
152 0.00102
164 0.002997
177 0.002999
194 0.001995
186 0.000999
130 0.001034
76 0.00298
56 0.003032
67 0.002992
83 0.001995
111 0.002004
129 0.002004
136 0.003009
132 0.002993
126 0.003029
126 0.000982
134 0.001989
146 0.001995
158 0.00297
171 0.002991
193 0.004029
203 0.004036
153 0.001961
93 0.001968
67 0.001954
68 0.003015
82 0.002992
109 0.001028
135 0.001995
151 0.001988
150 0.002992
140 0.00299
134 0.002992
141 0.003989
154 0.002031
167 0.002
178 0.001959
190 0.003989
199 0.004007
155 0.002
93 0.002004
63 0.001999
60 0.002994
70 0.002966
98 0.00399
117 0.003989
129 0.003024
126 0.001988
119 0.002026
116 0.004022
122 0.004028
136 0.001963
147 0.000965
158 0.002002
171 0.004
183 0.00296
141 0.004026
82 0.004023
49 0.002994
50 0.002994
60 0.002993
73 0.004033
88 0.004023
105 0.001998
108 0.002
106 0.001028
103 0.004004
105 0.003993
117 0.004005
128 0.003992
143 0.002983
154 0.002993
166 0.002849
163 0.001994
116 0.004029
69 0.004023
46 0.002038
50 0.002956
59 0.00295
72 0.005055
96 0.003006
105 0.004987
106 0.005018
102 0.002992
103 0.002992
109 0.001941
119 0.004985
131 0.004988
147 0.002986
160 0.003004
172 0.001978
181 0.003959
120 0.002994
72 0.004987
54 0.005027
60 0.002992
74 0.002962
92 0.00303
111 0.003992
122 0.005021
122 0.002955
116 0.003013
114 0.002991
121 0.005022
137 0.002995
150 0.00499
162 0.005038
178 0.002995
191 0.003957
185 0.003957
133 0.005037
82 0.005004
63 0.002992
70 0.002989
85 0.003029
106 0.00503
136 0.002987
141 0.005017
133 0.004988
125 0.002992
130 0.003957
139 0.003004
148 0.005021
160 0.006012
174 0.003957
185 0.003961
193 0.002993
174 0.006019
82 0.00299
60 0.004995
60 0.004991
77 0.004021
93 0.003942
111 0.003958
123 0.004972
125 0.006022
118 0.003953
116 0.003952
120 0.003964
129 0.006018
149 0.003986
160 0.004995
172 0.004971
188 0.003988
180 0.003996
126 0.00495
74 0.005987
53 0.006018
55 0.003991
66 0.00399
80 0.003989
96 0.005991
114 0.003996
115 0.005984
111 0.006019
112 0.003988
117 0.003961
128 0.004996
141 0.006016
153 0.006015
168 0.00399
181 0.004986
188 0.004956
157 0.006022
68 0.004016
51 0.005984
53 0.005981
68 0.004979
83 0.004953
99 0.004986
111 0.007015
116 0.006983
115 0.007017
111 0.004955
115 0.004958
124 0.004039
146 0.004995
160 0.004979
174 0.006056
186 0.005984
202 0.004993
196 0.004954
142 0.004986
83 0.006036
59 0.006016
64 0.003965
79 0.005016
97 0.005018
129 0.004989
137 0.004978
133 0.006972
126 0.006978
128 0.004986
136 0.004954
148 0.004954
160 0.006872
172 0.007014
188 0.005987
201 0.004952
200 0.003991
110 0.006016
70 0.004988
63 0.007014
72 0.007014
95 0.005019
116 0.005012
134 0.005404
141 0.006973
137 0.007015
126 0.005986
129 0.004981
136 0.005029
155 0.004988
167 0.004955
178 0.00702
190 0.007019
198 0.004958
161 0.005953
97 0.005982
61 0.007013
53 0.007016
66 0.004987
81 0.005991
99 0.004987
123 0.005009
124 0.004976
120 0.006982
117 0.007011
122 0.005979
131 0.005998
144 0.005984
161 0.007983
173 0.007946
185 0.005981
195 0.005976
183 0.005978
83 0.005984
54 0.004987
50 0.006982
59 0.007015
77 0.005969
93 0.005959
108 0.005988
116 0.00798
116 0.007958
112 0.005979
113 0.005962
121 0.006006
141 0.005997
155 0.005985
172 0.007984
182 0.007015
197 0.006967
174 0.007
110 0.00602
57 0.007982
52 0.007974
61 0.006988
77 0.006032
95 0.005987
124 0.005987
131 0.00597
126 0.007976
124 0.007979
130 0.006974
141 0.006975
149 0.006957
166 0.006975
179 0.007987
192 0.006981
205 0.006982
195 0.005984
97 0.006001
66 0.005987
64 0.006015
82 0.007979
103 0.006979
134 0.006969
144 0.006952
147 0.006977
138 0.006976
133 0.006993
138 0.006988
147 0.006981
169 0.007005
177 0.006978
190 0.00699
201 0.006988
177 0.007022
97 0.006988
65 0.006976
59 0.006961
70 0.007019
86 0.006986
113 0.00697
128 0.00697
131 0.006952
125 0.006014
120 0.006978
126 0.007979
135 0.006953
151 0.006956
159 0.005987
175 0.006982
186 0.006982
178 0.006966
123 0.006975
61 0.006981
50 0.006007
60 0.006968
75 0.006983
92 0.005988
107 0.005981
116 0.007019
113 0.006978
110 0.006987
112 0.006977
119 0.006979
129 0.006974
141 0.006982
166 0.006018
178 0.005983
168 0.00597
115 0.006009
67 0.005987
47 0.005979
53 0.005989
64 0.006994
78 0.006943
94 0.00698
109 0.006985
112 0.006011
107 0.006016
110 0.006017
117 0.005985
128 0.00598
141 0.006006
158 0.006014
173 0.005985
185 0.005965
170 0.006948
113 0.006019
61 0.005979
54 0.006988
72 0.006016
89 0.006052
109 0.005987
124 0.005981
129 0.005983
122 0.00597
120 0.005983
125 0.005966
131 0.005986
143 0.005978
161 0.004984
174 0.004983
192 0.006024
169 0.006017
110 0.005985
70 0.005945
61 0.00602
74 0.005988
92 0.005977
113 0.005975
133 0.005993
142 0.005987
137 0.004975
133 0.004965
138 0.004988
152 0.005043
165 0.004991
177 0.005995
189 0.006002
203 0.004994
186 0.005976
124 0.005981
78 0.005993
64 0.005982
67 0.00499
83 0.004982
108 0.005018
130 0.005022
135 0.004988
129 0.004973
124 0.004984
127 0.004981
141 0.005986
154 0.005973
166 0.005984
178 0.005985
183 0.004987
141 0.005002
76 0.005018
60 0.004946
66 0.003983
79 0.004995
92 0.004987
107 0.004034
121 0.003995
120 0.003982
115 0.004993
116 0.004988
121 0.004983
133 0.004982
147 0.005023
163 0.005036
166 0.004987
131 0.004968
82 0.004947
56 0.00499
53 0.004986
63 0.003997
75 0.004003
88 0.00399
101 0.003977
108 0.004996
104 0.005027
105 0.004989
115 0.004994
125 0.004982
135 0.004987
145 0.004989
159 0.004015
165 0.003975
140 0.005037
89 0.003985
56 0.00399
42 0.003991
49 0.00399
62 0.004948
79 0.004975
96 0.004987
104 0.005
104 0.004981
102 0.004986
107 0.003991
115 0.003989
123 0.003991
134 0.003994
148 0.003997
162 0.00402
148 0.003944
99 0.004045
59 0.003982
44 0.003987
49 0.004003
64 0.003999
77 0.003992
92 0.003995
105 0.003983
110 0.003993
107 0.003993
109 0.003957
117 0.003958
126 0.003951
136 0.003994
147 0.004023
156 0.004007
167 0.003978
146 0.003992
98 0.003994
68 0.003983
61 0.002984
73 0.003993
94 0.002993
119 0.004003
134 0.003958
138 0.003991
133 0.003978
132 0.003955
137 0.003957
142 0.003947
148 0.002994
156 0.002993
166 0.002985
178 0.003009
136 0.002988
102 0.002995
88 0.003941
96 0.003982
109 0.003989
126 0.003993
142 0.003988
156 0.004013
153 0.003001
147 0.002995
145 0.002988
148 0.002993
160 0.002984
168 0.002997
179 0.002992
168 0.003985
122 0.002997
87 0.003956
77 0.00396
85 0.004006
98 0.002997
113 0.003008
129 0.002964
141 0.002993
145 0.002992
143 0.003004
145 0.002993
151 0.003003
160 0.002995
170 0.002978
181 0.001979
170 0.003966
121 0.001995
84 0.001999
71 0.002967
75 0.002988
92 0.002992
105 0.002961
124 0.001964
134 0.002998
137 0.003002
136 0.001996
136 0.001961
141 0.001993
149 0.001959
158 0.001996
171 0.002023
178 0.001998
116 0.001963
81 0.003012
70 0.002995
78 0.003032
90 0.002982
102 0.002994
116 0.001995
131 0.002033
136 0.002009
137 0.001996
137 0.001998
140 0.001952
151 0.001995
160 0.001976
175 0.001994
182 0.00298
152 0.003004
106 0.001992
80 0.001994
80 0.001992
91 0.001981
104 0.001994
120 0.002001
136 0.001982
147 0.002001
145 0.00196
143 0.001994
146 0.001997
152 0.002048
159 0.001964
168 0.001995
179 0.001992
160 0.000952
117 0.001954
90 0.001003
84 0.001994
100 0.001
113 0.000997
133 0.002006
144 0.001986
147 0.001996
145 0.001985
143 0.001998
146 0.001998
152 0.001998
160 0.001997
169 0.000997
179 0.000992
145 0.00101
104 0.001001
84 0.001007
84 0.002002
93 0.001996
103 0.002034
116 0.001993
130 0.002022
139 0.001998
141 0.001965
139 0.000986
141 0.000999
149 0.001
156 0.000992
165 0.000998
175 0.002008
156 0.000966
115 0.000978
88 0.001995
79 0.000999
86 0.002048
96 0.001013
107 0.000986
118 0.000997
133 0.001017
135 0.001035
135 0.000993
136 0.002027
141 0.001015
148 0.001033
156 0.001998
164 0.0
172 0.00201
143 0.001997
103 0.0
81 0.000998
81 0.001005
89 0.000999
98 0.000996
113 0.000994
122 0.000992
127 0.000991
128 0.000995
126 0.001003
131 0.001007
136 0.001005
143 0.0
151 0.0
167 0.0
163 0.0
125 0.0
84 0.0
77 0.0
84 0.0
94 0.0
106 0.000964
124 0.001015
133 0.0
135 0.0
134 0.000963
133 0.000961
138 0.000994
146 0.0
156 0.0
166 0.0
174 0.0
160 0.0
122 0.0
87 0.000999
83 0.001012
89 0.0
100 0.0
121 0.0
133 0.0
137 0.0
137 0.0
135 0.0
138 0.0
144 0.0
155 0.0
166 0.0
177 0.000953
189 0.000968
178 0.0
89 0.0
61 0.000999
60 0.000996
72 0.0
85 0.0
100 0.0
114 0.0
126 0.0
131 0.0
128 0.0
132 0.0
137 0.0
149 0.0
166 0.000985
178 0.000993
189 0.002008
169 0.002026
96 0.0
71 0.000984
58 0.000997
65 0.000963
75 0.000997
89 0.000998
110 0.0
126 0.001993
129 0.0
127 0.000965
130 0.0
136 0.001995
146 0.001994
160 0.000976
173 0.0
186 0.000998
195 0.000973
156 0.002007
85 0.0
61 0.001981
71 0.0
86 0.000894
103 0.000996
123 0.002038
136 0.001996
141 0.000963
138 0.0
137 0.0
143 0.003026
152 0.002924
166 0.000978
180 0.001947
199 0.0
196 0.0
145 0.000999
93 0.001994
72 0.001997
78 0.0
93 0.0
108 0.0
127 0.002029
143 0.002036
149 0.00099
143 0.002026
145 0.0
147 0.000999
156 0.000994
170 0.001028
181 0.00199
200 0.0
204 0.0
158 0.0
101 0.001981
70 0.002023
66 0.0
82 0.001963
103 0.000978
119 0.000948
132 0.0
137 0.002992
137 0.002003
137 0.0
140 0.000996
150 0.0
161 0.002036
173 0.001986
190 0.0
201 0.002026
137 0.0
84 0.0
58 0.0
55 0.002027
65 0.002027
81 0.000987
97 0.0
112 0.000949
122 0.000997
126 0.003006
123 0.0
126 0.00103
138 0.0
150 0.0
162 0.0
177 0.001997
187 0.00296
135 0.0
83 0.0
57 0.0
56 0.002024
66 0.002021
85 0.0
109 0.002026
126 0.0
131 0.0
130 0.0
129 0.002031
133 0.003023
145 0.0
157 0.0
169 0.0
182 0.00203
189 0.002024
154 0.003175
68 0.00203
52 0.002998
59 0.0
72 0.000951
88 0.002033
106 0.001995
119 0.001986
128 0.001997
125 0.000981
125 0.0
129 0.003005
138 0.003002
156 0.003012
166 0.003062
186 0.001999
192 0.001994
148 0.0
87 0.003023
53 0.003028
47 0.002027
55 0.001999
67 0.002026
84 0.003096
99 0.002995
117 0.00302
119 0.002989
118 0.000976
122 0.000952
129 0.0
141 0.002974
153 0.003022
170 0.0
185 0.000999
182 0.000998
131 0.002992
75 0.003027
39 0.002957
43 0.003004
57 0.001999
71 0.003045
87 0.001944
102 0.002976
110 0.002976
110 0.002026
110 0.001973
115 0.001996
123 0.002992
135 0.003028
158 0.002991
173 0.002991
180 0.002991
131 0.001989
75 0.002028
47 0.004022
43 0.002991
56 0.002016
70 0.002029
88 0.001999
104 0.002993
113 0.003026
114 0.002993
112 0.004038
120 0.001996
130 0.00301
142 0.002025
154 0.002947
169 0.004989
184 0.002043
155 0.001994
96 0.000956
57 0.003993
49 0.003996
64 0.00402
79 0.004029
104 0.001992
120 0.001997
125 0.002988
121 0.004027
120 0.004021
128 0.001992
137 0.001981
150 0.002012
161 0.00399
174 0.004022
194 0.004028
162 0.003991
82 0.001005
49 0.002999
43 0.002034
51 0.004022
64 0.003971
84 0.002032
101 0.002043
113 0.002004
118 0.003989
117 0.003991
121 0.00494
128 0.004021
146 0.001994
157 0.002004
170 0.001992
187 0.003942
198 0.004042
166 0.003989
81 0.002021
48 0.002035
40 0.001999
46 0.005018
67 0.001945
83 0.005025
98 0.004021
112 0.001998
115 0.001994
115 0.002947
118 0.004032
125 0.004986
142 0.002957
156 0.002019
169 0.002962
187 0.005029
188 0.002964
126 0.005022
67 0.004989
39 0.002991
44 0.002992
56 0.002991
70 0.005985
87 0.00499
109 0.002993
119 0.002992
120 0.00299
117 0.005021
126 0.002999
138 0.004988
152 0.00502
173 0.003004
190 0.002998
206 0.004005
191 0.004987
125 0.004956
58 0.002959
46 0.002995
53 0.002992
68 0.005017
103 0.003991
123 0.005987
134 0.005984
132 0.002989
128 0.00295
130 0.002956
139 0.005017
151 0.00502
169 0.002989
184 0.002991
200 0.002995
193 0.005017
91 0.002
56 0.005982
50 0.005984
65 0.003989
84 0.002991
102 0.002993
121 0.005985
133 0.005984
131 0.003007
127 0.00399
131 0.004019
141 0.006018
162 0.003988
175 0.006017
190 0.005955
206 0.003988
179 0.003999
108 0.003993
59 0.005977
41 0.004987
49 0.004956
61 0.004036
75 0.004008
93 0.005992
114 0.003988
120 0.006019
118 0.005997
121 0.003993
129 0.003987
142 0.003023
155 0.006032
169 0.005994
192 0.003994
195 0.003994
145 0.003991
78 0.005985
36 0.003958
40 0.00602
51 0.006012
69 0.004014
87 0.003052
105 0.004987
116 0.006024
117 0.006021
115 0.004071
118 0.004003
128 0.004001
142 0.005984
170 0.004948
189 0.00659
203 0.005959
186 0.00604
94 0.004988
48 0.003982
35 0.003988
43 0.006028
58 0.007022
82 0.004983
102 0.004949
118 0.004984
122 0.003983
119 0.004958
122 0.007019
129 0.006981
147 0.003993
162 0.004943
178 0.003998
196 0.006017
194 0.007016
113 0.004982
60 0.00498
43 0.004983
57 0.004996
75 0.004954
96 0.007013
117 0.007013
134 0.005951
131 0.004024
127 0.005037
131 0.007041
140 0.006981
155 0.00499
171 0.004989
186 0.004988
200 0.003989
149 0.004991
84 0.007049
49 0.00702
44 0.003983
56 0.004987
70 0.004987
93 0.007979
104 0.006981
115 0.004029
115 0.004985
114 0.00502
122 0.005005
132 0.005022
145 0.006943
159 0.007025
178 0.004985
185 0.004981
146 0.004987
82 0.006984
35 0.007768
29 0.005983
36 0.005983
45 0.006013
68 0.005991
84 0.005027
97 0.006943
101 0.007986
99 0.005948
103 0.005955
110 0.005991
120 0.00798
134 0.007979
153 0.00598
168 0.005985
160 0.005965
65 0.005996
31 0.006949
23 0.007972
30 0.007978
40 0.005013
53 0.006027
70 0.006982
87 0.007978
91 0.007979
93 0.00594
93 0.00598
99 0.005996
116 0.006011
130 0.005987
146 0.007949
158 0.007978
99 0.006979
65 0.00698
32 0.006946
25 0.007965
30 0.007971
42 0.005985
56 0.005986
73 0.005951
91 0.005989
92 0.006952
94 0.007967
98 0.007978
111 0.006982
119 0.005988
141 0.006981
157 0.006982
154 0.007016
105 0.005989
56 0.005989
32 0.005996
34 0.005985
46 0.005987
63 0.005988
89 0.00798
100 0.007031
105 0.006952
104 0.006981
105 0.006982
115 0.006979
127 0.007015
146 0.006982
156 0.006981
183 0.006974
172 0.005989
114 0.005957
55 0.007023
46 0.006981
55 0.006981
71 0.006981
99 0.006981
122 0.007015
135 0.007014
130 0.00698
127 0.006983
132 0.006967
143 0.006952
160 0.006975
176 0.005973
194 0.006986
204 0.006984
146 0.006564
102 0.006939
58 0.006991
58 0.006981
77 0.005961
97 0.005989
133 0.005994
145 0.005983
142 0.006982
135 0.006991
135 0.00698
146 0.006924
159 0.006975
176 0.006966
194 0.007018
203 0.006983
145 0.00698
83 0.005983
53 0.005979
62 0.005983
76 0.005967
95 0.005985
114 0.005988
132 0.005983
133 0.005986
128 0.005989
127 0.007017
134 0.007035
149 0.005986
163 0.005979
187 0.005983
160 0.006008
100 0.005983
59 0.005985
45 0.005982
54 0.005991
66 0.005987
80 0.005995
98 0.006017
113 0.00604
120 0.005981
118 0.005985
121 0.005972
130 0.006018
142 0.005983
156 0.004964
171 0.004986
156 0.004986
98 0.004987
52 0.004986
34 0.005983
35 0.005984
47 0.005983
59 0.005984
87 0.006011
101 0.006023
107 0.005996
107 0.005973
109 0.004981
116 0.004986
132 0.004985
146 0.004996
162 0.005018
179 0.004988
181 0.005032
108 0.005984
45 0.005983
32 0.005982
37 0.004967
47 0.004979
62 0.00499
81 0.004986
101 0.00499
108 0.004985
109 0.005046
111 0.005031
116 0.005021
131 0.00499
152 0.004995
170 0.005986
186 0.00497
203 0.004988
201 0.004997
140 0.00503
60 0.003943
39 0.004976
40 0.005003
49 0.004941
61 0.004972
83 0.004957
105 0.004948
116 0.005996
116 0.003986
117 0.003991
122 0.00399
132 0.004021
151 0.005025
166 0.005003
180 0.004986
195 0.00498
212 0.005025
222 0.005027
142 0.004983
61 0.004986
44 0.003988
49 0.003969
63 0.00399
80 0.00399
108 0.004
125 0.004985
132 0.005028
130 0.00504
128 0.005036
133 0.005012
148 0.003966
168 0.003944
182 0.003986
200 0.00399
218 0.003954
229 0.003969
166 0.004023
97 0.00399
64 0.00399
64 0.004022
77 0.002991
105 0.003999
141 0.00398
162 0.004002
160 0.00399
151 0.003947
149 0.003989
155 0.00399
171 0.004039
185 0.004037
200 0.00396
217 0.004027
234 0.004022
210 0.004046
111 0.003961
63 0.002983
64 0.003988
79 0.00394
98 0.003992
122 0.004005
149 0.003991
157 0.004038
154 0.003991
148 0.003991
149 0.004
160 0.003989
176 0.003984
196 0.002978
212 0.002957
225 0.002995
196 0.003
121 0.002997
61 0.004023
52 0.004033
61 0.003958
76 0.004035
94 0.004024
120 0.002993
137 0.002991
139 0.002988
134 0.002989
137 0.002996
145 0.003006
157 0.003007
170 0.002992
191 0.002982
206 0.002946
201 0.003022
139 0.004013
76 0.002001
43 0.003989
51 0.002
67 0.002999
83 0.003001
101 0.002992
116 0.003022
125 0.002992
124 0.002992
123 0.002992
129 0.003962
139 0.002989
150 0.002961
174 0.002963
189 0.00299
183 0.00199
119 0.002996
64 0.001969
40 0.002
40 0.003031
54 0.003009
70 0.003027
87 0.002992
104 0.002992
115 0.003022
115 0.002996
114 0.002993
120 0.003009
130 0.002998
143 0.002993
157 0.001985
174 0.001995
188 0.001995
152 0.001995
88 0.001997
49 0.002026
40 0.002033
59 0.002994
77 0.00298
103 0.002959
119 0.00302
124 0.002986
120 0.002994
116 0.001996
122 0.002027
134 0.00203
146 0.001995
158 0.002002
174 0.001995
188 0.001975
142 0.00198
67 0.001993
48 0.000998
52 0.002015
66 0.001997
82 0.001995
110 0.001972
126 0.001995
131 0.00198
127 0.002031
124 0.002031
127 0.0
142 0.002023
159 0.002004
173 0.001995
188 0.001993
196 0.001999
157 0.001991
73 0.00099
43 0.001994
41 0.002037
50 0.002028
63 0.002029
90 0.001953
106 0.001998
115 0.001996
114 0.001996
112 0.00198
115 0.001134
125 0.000991
142 0.000999
155 0.002025
170 0.000998
188 0.002002
185 0.001994
86 0.001986
47 0.001998
34 0.001958
41 0.001978
51 0.001993
66 0.00203
82 0.001996
97 0.001027
109 0.000999
109 0.000997
108 0.001981
113 0.001004
131 0.001984
146 0.001993
160 0.001995
181 0.00196
198 0.00203
185 0.001996
117 0.000999
60 0.000997
34 0.000997
40 0.000997
52 0.000998
65 0.000997
95 0.000968
111 0.001992
116 0.001992
113 0.002032
114 0.000981
122 0.002027
134 0.000998
147 0.001046
169 0.001041
186 0.000997
203 0.0
197 0.001023
90 0.0
53 0.001022
48 0.001
64 0.000991
83 0.000993
104 0.0
125 0.000982
138 0.000979
136 0.000993
130 0.000994
132 0.001009
142 0.000998
166 0.000988
180 0.000961
196 0.001028
219 0.001001
206 0.0
136 0.0
75 0.0
52 0.0
59 0.0
75 0.0
95 0.0
117 0.0
140 0.0
140 0.0
133 0.0
136 0.000947
144 0.000998
156 0.000998
170 0.0
185 0.0
205 0.0
218 0.0
188 0.0
112 0.0
44 0.0
42 0.0
53 0.0
74 0.0
92 0.0
111 0.0
124 0.0
128 0.0
123 0.0
126 0.0
136 0.0
148 0.0
172 0.0
188 0.0
207 0.0
213 0.000997
151 0.0
78 0.000998
43 0.000998
36 0.000986
49 0.0
63 0.002026
86 0.0
98 0.0
126 0.001009
127 0.001013
123 0.0
128 0.0
138 0.002026
157 0.000979
176 0.0
195 0.0
214 0.002027
233 0.002003
204 0.0
119 0.0
50 0.001996
44 0.0
58 0.0
75 0.0
96 0.002028
119 0.003029
139 0.000988
141 0.000966
137 0.0
136 0.002026
143 0.003033
162 0.000996
183 0.002991
209 0.0
199 0.0
231 0.0
168 0.002031
91 0.002031
55 0.0
56 0.000997
76 0.0
99 0.001995
125 0.001994
154 0.0
161 0.003
150 0.0
150 0.00096
158 0.0
170 0.003043
185 0.002031
210 0.0
199 0.0
235 0.0
181 0.001976
101 0.002031
51 0.0
56 0.00303
78 0.0
100 0.000966
124 0.0
142 0.002041
150 0.002025
143 0.0
140 0.000999
146 0.001009
158 0.002026
173 0.002045
194 0.0
219 0.002034
218 0.0
144 0.0
71 0.0
39 0.002026
36 0.002022
51 0.0
68 0.0
87 0.001
106 0.002024
120 0.002026
125 0.000964
121 0.002995
129 0.0
140 0.0
155 0.000967
170 0.002027
189 0.002028
209 0.000996
182 0.0
104 0.0
48 0.002038
28 0.002026
35 0.001004
53 0.00301
75 0.0
93 0.0
108 0.0
115 0.002027
113 0.001955
114 0.0
123 0.0
135 0.0
149 0.002025
164 0.002026
188 0.000975
206 0.002995
143 0.0
71 0.0
34 0.0
26 0.003025
34 0.002028
52 0.0
70 0.0
88 0.0
104 0.002963
113 0.002032
110 0.00096
112 0.003028
125 0.000995
139 0.0
156 0.0
172 0.002002
191 0.00199
209 0.001998
200 0.001999
125 0.000968
60 0.002004
33 0.003003
35 0.002983
63 0.00296
84 0.003006
114 0.0
128 0.001995
129 0.001979
124 0.003008
122 0.002992
133 0.001996
147 0.002013
163 0.003004
180 0.002992
199 0.002997
220 0.002957
170 0.002955
73 0.002
45 0.002006
47 0.002003
62 0.003029
83 0.002992
118 0.001994
140 0.002999
149 0.001992
144 0.002988
137 0.002999
144 0.002961
157 0.002977
177 0.002026
192 0.001994
211 0.002011
223 0.003026
187 0.003017
84 0.002002
46 0.00199
40 0.001992
50 0.004053
67 0.004036
101 0.003979
121 0.002947
130 0.002031
126 0.002004
124 0.001996
128 0.004046
138 0.004042
156 0.001995
172 0.002978
191 0.002041
207 0.003989
195 0.003934
75 0.004027
37 0.002914
29 0.002005
40 0.001965
55 0.001995
73 0.003026
91 0.002982
112 0.002002
117 0.002017
115 0.003008
116 0.004022
123 0.004991
146 0.003994
162 0.004037
179 0.001974
206 0.002026
203 0.000999
135 0.004026
65 0.003989
28 0.001979
29 0.002997
41 0.002023
55 0.003998
72 0.00399
105 0.002994
116 0.00296
118 0.001984
117 0.002032
122 0.002008
134 0.004986
150 0.004962
172 0.002008
194 0.002
215 0.001981
221 0.004981
166 0.005082
52 0.005023
33 0.004954
44 0.002032
62 0.001977
82 0.001989
105 0.003978
126 0.004003
136 0.002006
132 0.001998
131 0.001975
137 0.003992
148 0.00499
175 0.004977
196 0.004987
216 0.004987
236 0.002993
199 0.001967
114 0.002025
61 0.005017
49 0.004994
65 0.001994
88 0.002989
117 0.002992
146 0.004029
167 0.001986
159 0.004998
152 0.005018
157 0.002957
170 0.002992
186 0.002992
203 0.005027
222 0.005986
243 0.001988
216 0.001996
130 0.001991
66 0.005985
48 0.003017
64 0.004988
85 0.005927
121 0.002969
144 0.00203
155 0.002987
152 0.004986
145 0.004948
148 0.002961
157 0.002027
172 0.002962
189 0.005017
222 0.003996
235 0.005986
204 0.005988
90 0.002978
43 0.003024
32 0.003023
42 0.005984
58 0.005953
84 0.002994
107 0.002999
126 0.002995
134 0.004991
128 0.003994
129 0.005988
138 0.005984
158 0.003987
174 0.003985
194 0.002981
214 0.006019
215 0.006018
122 0.002987
54 0.002991
28 0.002992
28 0.004987
51 0.003996
69 0.005985
90 0.005984
115 0.003987
122 0.004004
120 0.003957
119 0.006015
124 0.006018
139 0.003004
156 0.002987
174 0.002995
194 0.00594
224 0.004001
189 0.00602
100 0.005988
33 0.003988
26 0.003989
37 0.003994
55 0.005955
76 0.006012
108 0.003991
126 0.00399
131 0.003991
129 0.006015
130 0.003986
141 0.007017
155 0.006982
179 0.003986
200 0.003991
221 0.003956
197 0.005986
181 0.005984
76 0.003998
44 0.003031
46 0.003988
63 0.006021
108 0.004015
138 0.007027
158 0.007014
157 0.003993
146 0.004021
143 0.00399
148 0.007019
162 0.007023
179 0.007017
202 0.003991
222 0.003994
231 0.003026
125 0.00494
61 0.003988
39 0.006981
46 0.007013
72 0.004979
97 0.003998
126 0.004031
147 0.007011
154 0.007014
143 0.003984
140 0.004001
144 0.003985
166 0.004957
183 0.005986
202 0.007019
221 0.007013
208 0.004989
124 0.004955
55 0.005006
29 0.006997
29 0.007018
48 0.00496
67 0.003983
89 0.005006
119 0.004958
125 0.004986
121 0.0
120 0.007949
127 0.004992
141 0.004988
157 0.004986
174 0.00703
194 0.006942
199 0.004987
132 0.005017
60 0.005987
20 0.004992
27 0.005986
41 0.007029
63 0.007972
83 0.00496
102 0.004969
110 0.00598
108 0.007975
107 0.007972
115 0.004989
126 0.005951
140 0.004988
170 0.004986
191 0.004992
187 0.007976
117 0.00798
52 0.005982
24 0.00497
25 0.004985
45 0.007983
63 0.007983
85 0.005017
106 0.004985
116 0.004981
113 0.005997
112 0.004994
122 0.007987
130 0.00801
151 0.005951
168 0.005008
188 0.005003
195 0.007993
136 0.00797
67 0.004978
36 0.004983
35 0.005987
60 0.005954
82 0.007004
113 0.006965
126 0.006982
126 0.005984
118 0.006981
118 0.005992
125 0.007957
136 0.007935
162 0.00697
172 0.005989
189 0.005984
178 0.006017
106 0.006015
40 0.006984
28 0.008001
35 0.006952
50 0.005982
67 0.005986
86 0.006002
106 0.007991
111 0.007992
108 0.005976
107 0.006976
118 0.006981
137 0.005986
146 0.006977
167 0.006974
185 0.006978
192 0.005969
145 0.006981
74 0.006013
26 0.006987
22 0.005959
33 0.006004
47 0.005952
75 0.006982
91 0.006977
100 0.006981
99 0.006979
99 0.006873
104 0.005983
115 0.005975
128 0.005988
150 0.006979
166 0.006017
190 0.005989
206 0.005986
165 0.006971
88 0.006982
32 0.00697
25 0.007018
32 0.007027
44 0.006981
58 0.006981
82 0.006979
98 0.007021
107 0.006019
106 0.005976
106 0.006006
121 0.005951
136 0.005952
153 0.005984
170 0.006016
185 0.006983
208 0.006027
219 0.006981
229 0.006977
159 0.005985
79 0.005986
34 0.005986
34 0.005988
57 0.006021
75 0.006019
96 0.005945
115 0.006018
124 0.006017
122 0.005948
121 0.005983
127 0.005985
138 0.005986
154 0.006028
179 0.006002
196 0.005996
224 0.005973
241 0.006018
252 0.006004
219 0.006017
130 0.005947
57 0.005981
50 0.005981
63 0.005981
83 0.005028
108 0.005018
143 0.005027
159 0.004992
151 0.005976
145 0.004983
148 0.005982
160 0.005991
174 0.00603
197 0.005992
213 0.005998
185 0.00599
249 0.006018
253 0.004987
161 0.004995
83 0.004999
52 0.005001
64 0.004989
84 0.004969
109 0.005989
135 0.00504
155 0.005022
158 0.004959
150 0.004951
148 0.006014
154 0.006023
166 0.005019
189 0.004977
211 0.004988
234 0.004986
190 0.004992
186 0.004985
148 0.004989
104 0.004985
83 0.004978
84 0.004984
91 0.004023
100 0.003994
110 0.00402
124 0.004992
133 0.005022
132 0.005021
131 0.004983
134 0.00495
136 0.003007
148 0.004996
160 0.004979
170 0.005019
179 0.005017
187 0.003992
178 0.003976
119 0.003981
84 0.004003
79 0.003998
85 0.004021
94 0.004988
103 0.004987
114 0.005025
126 0.004986
130 0.004987
129 0.004954
129 0.004986
132 0.00399
140 0.004025
153 0.004025
165 0.004024
176 0.004025
185 0.004024
182 0.004023
143 0.004025
90 0.00399
77 0.004021
78 0.004039
86 0.004038
96 0.004027
112 0.004025
128 0.004024
136 0.003995
134 0.003964
132 0.004014
135 0.00399
141 0.003991
153 0.003958
163 0.004023
173 0.003985
183 0.003006
190 0.002973
159 0.004019
103 0.003958
86 0.004026
89 0.004037
100 0.00399
113 0.00399
130 0.003987
147 0.004006
150 0.003981
147 0.003991
144 0.003991
145 0.003989
153 0.003026
165 0.00399
178 0.00399
188 0.00399
194 0.002994
173 0.004016
124 0.004032
86 0.00402
84 0.004002
91 0.004025
103 0.00399
117 0.003025
137 0.002985
144 0.002992
137 0.001965
134 0.002993
135 0.003069
142 0.003027
149 0.003006
159 0.002992
173 0.003991
173 0.004021
142 0.003955
99 0.003986
79 0.00399
81 0.002988
90 0.002993
105 0.003006
119 0.002991
128 0.00305
129 0.002992
125 0.002993
123 0.002993
127 0.002993
134 0.003029
143 0.003991
153 0.003022
159 0.002029
127 0.002994
83 0.001993
74 0.000999
75 0.003031
82 0.002992
91 0.003028
105 0.002946
114 0.003028
119 0.002992
119 0.002992
117 0.001997
120 0.002038
126 0.001995
137 0.001996
147 0.001996
149 0.001995
124 0.001996
91 0.002028
69 0.001993
68 0.002007
73 0.002977
79 0.003042
87 0.002993
102 0.003025
107 0.002992
107 0.002988
106 0.002029
109 0.002029
114 0.001995
121 0.002013
132 0.001995
141 0.001996
142 0.002044
115 0.002028
83 0.002025
62 0.002028
62 0.003006
67 0.002994
73 0.001995
81 0.001996
89 0.002028
94 0.001997
95 0.002025
95 0.002029
95 0.014931
102 0.001994
108 0.000997
121 0.001994
128 0.000998
138 0.001006
137 0.00204
111 0.002009
81 0.002004
64 0.001997
61 0.002027
63 0.001994
67 0.002028
74 0.002026
83 0.001028
93 0.001034
95 0.000978
95 0.000998
99 0.002025
104 0.000997
110 0.002041
117 0.002022
127 0.002
134 0.001996
140 0.002015
145 0.002025
150 0.001995
156 0.002004
135 0.002002
94 0.002032
78 0.000997
75 0.002026
62 0.0
69 0.002
81 0.002025
92 0.002024
102 0.002998
106 0.002029
106 0.000981
108 0.000972
113 0.000999
121 0.000978
135 0.000996
143 0.000997
153 0.000998
161 0.000997
169 0.000995
175 0.000987
180 0.002029
186 0.002026
191 0.002
140 0.001999
101 0.003021
82 0.0
84 0.000997
94 0.0
105 0.00103
117 0.0
128 0.000998
133 0.000997
130 0.000997
127 0.0
129 0.001014
139 0.002012
148 0.000997
156 0.000998
166 0.001004
173 0.000999
180 0.0
188 0.0
193 0.0
168 0.0
126 0.0
98 0.0
92 0.001022
103 0.000997
115 0.000999
128 0.000994
143 0.000997
146 0.000998
143 0.000998
139 0.000965
140 0.0
147 0.0
154 0.0
162 0.0
170 0.0
182 0.0
190 0.0
195 0.0
166 0.0
122 0.0
95 0.000998
88 0.0
92 0.0
104 0.0
115 0.0
126 0.0
135 0.0
139 0.0
137 0.0
137 0.001044
143 0.0
149 0.0
157 0.000998
165 0.000997
174 0.000971
185 0.000997
189 0.000994
149 0.0
121 0.001027
88 0.0
90 0.0
99 0.000966
108 0.002032
117 0.003026
132 0.0
137 0.0
140 0.00103
138 0.002026
139 0.003044
143 0.001006
152 0.0
165 0.0
174 0.0
184 0.0
190 0.001993
174 0.00203
119 0.0
95 0.0
89 0.0
95 0.00202
104 0.002031
119 0.001016
132 0.0
143 0.003073
144 0.0
142 0.000956
142 0.000958
147 0.002027
154 0.002083
165 0.000974
175 0.001005
184 0.0
195 0.002034
193 0.002944
155 0.001043
104 0.001993
103 0.0
111 0.0
123 0.0
133 0.005022
151 0.001983
159 0.000971
157 0.0
152 0.001015
151 0.001993
155 0.002981
164 0.0
174 0.002954
185 0.0
194 0.0
183 0.0
141 0.002027
110 0.002027
98 0.0
102 0.00099
111 0.0
123 0.002027
136 0.003022
147 0.0
150 0.003024
145 0.0
146 0.0
150 0.0
156 0.002992
163 0.002992
174 0.0
182 0.0
185 0.0
156 0.001996
116 0.002991
89 0.0
89 0.00303
100 0.0
110 0.0
120 0.0
129 0.003026
135 0.00303
134 0.0
133 0.0
135 0.0
140 0.00303
147 0.002063
157 0.000961
168 0.002023
180 0.0
161 0.0
119 0.0
91 0.002027
81 0.003038
85 0.0
93 0.0
102 0.0
113 0.00303
121 0.004032
130 0.0
128 0.002958
129 0.0
132 0.000976
139 0.0
147 0.001994
156 0.003029
167 0.0
176 0.000947
180 0.000994
153 0.002025
109 0.002997
81 0.00099
79 0.003024
88 0.0
99 0.0
110 0.0
121 0.002027
127 0.002029
127 0.0
124 0.0
125 0.0
130 0.002028
138 0.002949
149 0.0
159 0.002025
173 0.0
181 0.0
162 0.0
118 0.002991
89 0.003006
79 0.002992
86 0.0
96 0.0
109 0.000964
122 0.002973
132 0.002993
131 0.003033
128 0.003029
129 0.0
135 0.0
143 0.0
151 0.002947
159 0.003022
171 0.0
180 0.001994
163 0.0
121 0.003958
91 0.004003
81 0.00399
89 0.003989
104 0.003008
117 0.002992
127 0.002993
133 0.003002
131 0.002976
126 0.002997
128 0.00203
133 0.001994
141 0.004
149 0.004034
163 0.003989
172 0.003993
180 0.003002
149 0.002023
104 0.002994
77 0.003044
68 0.00303
75 0.002991
85 0.001014
97 0.0
108 0.003963
117 0.00402
120 0.003945
117 0.003943
119 0.002995
125 0.001993
132 0.001995
141 0.003958
150 0.00399
164 0.001993
174 0.001994
172 0.002991
135 0.002949
93 0.00296
66 0.002996
68 0.004028
79 0.002004
90 0.002031
101 0.00299
110 0.003997
116 0.00402
116 0.002991
114 0.003023
117 0.000987
123 0.00396
132 0.004008
144 0.003016
158 0.005033
172 0.001997
179 0.002027
154 0.001994
107 0.004021
77 0.004025
67 0.001997
72 0.001997
82 0.002995
94 0.004987
107 0.004991
118 0.001976
120 0.004986
117 0.001993
118 0.0
124 0.002991
132 0.003991
142 0.003983
155 0.002999
164 0.002026
175 0.002994
185 0.003954
171 0.005019
107 0.002992
74 0.005029
76 0.001989
86 0.00298
99 0.002996
115 0.005986
129 0.005014
134 0.002993
130 0.00103
126 0.000974
127 0.00499
132 0.005021
140 0.005023
156 0.00502
166 0.00499
180 0.001981
185 0.001995
155 0.002
107 0.004987
80 0.005015
74 0.00299
82 0.004025
94 0.001994
108 0.005027
122 0.006036
132 0.005982
128 0.004987
124 0.002991
127 0.002991
134 0.002988
144 0.005046
153 0.004986
166 0.002967
177 0.002997
186 0.002955
187 0.006033
147 0.006019
78 0.005986
65 0.005989
70 0.002994
79 0.00299
90 0.002997
102 0.005952
112 0.004986
120 0.002989
118 0.004002
116 0.003986
118 0.005017
125 0.005023
140 0.004986
150 0.006981
164 0.002996
175 0.002998
180 0.002993
153 0.00599
104 0.00604
67 0.003963
62 0.002959
67 0.003993
77 0.006025
87 0.005984
107 0.006018
115 0.006017
115 0.003
114 0.002999
114 0.002998
120 0.00598
128 0.005987
141 0.004939
152 0.004007
163 0.002994
174 0.00602
184 0.005984
140 0.005983
92 0.006984
65 0.002998
66 0.002995
74 0.002946
86 0.006982
99 0.005984
114 0.003989
120 0.00399
119 0.002992
116 0.005984
117 0.005984
127 0.006014
136 0.006016
148 0.002982
158 0.003998
170 0.003992
180 0.007016
167 0.007013
107 0.00399
78 0.003993
70 0.00401
76 0.005984
87 0.005984
110 0.006018
124 0.006025
130 0.004024
125 0.004021
122 0.003992
124 0.006982
129 0.006987
141 0.004001
151 0.004963
160 0.003989
170 0.003989
180 0.007954
177 0.003028
129 0.005972
86 0.007023
65 0.003989
68 0.003998
76 0.003998
87 0.007012
99 0.007021
113 0.004002
117 0.003997
115 0.004987
113 0.007021
118 0.003989
126 0.007024
136 0.00794
150 0.005007
159 0.005994
168 0.004987
178 0.006974
186 0.00698
152 0.004032
101 0.004028
70 0.00403
61 0.00798
68 0.003991
76 0.007023
87 0.007965
102 0.004988
109 0.004996
112 0.004988
110 0.007029
110 0.007021
116 0.004039
121 0.00695
135 0.002991
146 0.007017
163 0.004024
176 0.007968
186 0.007967
184 0.004986
142 0.00511
94 0.004988
65 0.007975
64 0.007978
71 0.003992
81 0.005955
91 0.00499
103 0.007013
117 0.004987
118 0.007976
115 0.007978
118 0.00499
124 0.005019
134 0.004989
145 0.00798
156 0.007979
171 0.00495
181 0.005993
190 0.004986
199 0.007977
201 0.004993
133 0.008014
87 0.007985
70 0.004983
71 0.005003
81 0.004985
98 0.007988
113 0.007975
126 0.004987
132 0.004987
131 0.005957
126 0.006979
129 0.005979
140 0.00798
151 0.007023
163 0.005983
174 0.005986
185 0.005997
200 0.007976
207 0.007979
208 0.005985
165 0.005983
109 0.00598
78 0.006976
85 0.005978
102 0.006985
118 0.006948
135 0.004986
146 0.004955
148 0.005979
139 0.007027
136 0.007962
138 0.006951
147 0.006946
158 0.006946
173 0.007016
188 0.005976
203 0.00699
207 0.006987
173 0.005979
113 0.005954
78 0.005984
69 0.006984
77 0.00698
90 0.00698
105 0.00599
120 0.006951
133 0.005952
137 0.005986
133 0.005983
134 0.006984
140 0.006949
150 0.005986
163 0.005981
175 0.005955
189 0.006982
201 0.006987
211 0.005978
198 0.005946
139 0.005953
63 0.005981
61 0.005978
68 0.006017
79 0.006994
92 0.005978
110 0.005988
118 0.005987
124 0.006994
122 0.006982
121 0.006006
126 0.005943
135 0.00597
155 0.005979
167 0.005983
180 0.006016
193 0.005985
187 0.005981
154 0.006951
96 0.005985
62 0.00598
60 0.006989
69 0.006981
81 0.005985
101 0.005982
123 0.005984
127 0.005984
125 0.005985
122 0.006029
127 0.005984
135 0.005975
146 0.005999
159 0.006005
171 0.005984
189 0.005979
195 0.00694
166 0.005981
81 0.00595
64 0.005954
67 0.006021
78 0.006018
99 0.005974
118 0.005993
133 0.005983
139 0.005989
135 0.006049
129 0.005008
131 0.005987
138 0.006017
155 0.005982
167 0.004966
179 0.005944
190 0.006001
170 0.005995
113 0.005983
73 0.005976
61 0.005999
66 0.005991
82 0.005988
98 0.005988
116 0.005021
130 0.004966
125 0.00498
118 0.00502
118 0.005013
126 0.005985
135 0.005968
146 0.006015
159 0.005988
171 0.005987
159 0.004989
109 0.005982
71 0.004967
56 0.004997
62 0.005
72 0.00502
84 0.00498
101 0.004941
108 0.004995
108 0.004983
105 0.006015
105 0.00604
109 0.008947
116 0.004988
131 0.005019
148 0.004983
159 0.004987
150 0.004986
106 0.005018
67 0.005018
47 0.004983
48 0.004989
55 0.004979
63 0.005005
72 0.004991
86 0.00499
94 0.004986
95 0.004506
95 0.00499
100 0.004988
107 0.004943
117 0.005024
130 0.004954
142 0.004994
152 0.003989
160 0.003989
141 0.003977
80 0.003978
52 0.004
44 0.003948
49 0.005015
55 0.004001
64 0.004993
74 0.005024
86 0.004988
89 0.004981
89 0.003989
90 0.00399
95 0.003993
106 0.00395
118 0.004032
137 0.003982
148 0.003942
158 0.003943
166 0.005026
173 0.004953
184 0.004989
178 0.004988
132 0.004953
83 0.003988
58 0.003997
53 0.003952
58 0.00399
70 0.003955
81 0.003959
91 0.003963
98 0.003939
100 0.003954
100 0.00398
102 0.003985
109 0.004948
119 0.003998
129 0.002963
144 0.003987
156 0.003954
171 0.003988
178 0.003958
185 0.00399
192 0.004022
198 0.003954
157 0.003945
103 0.003991
72 0.003961
63 0.003959
66 0.003957
78 0.004009
88 0.003985
107 0.002994
114 0.003038
115 0.003023
113 0.003028
114 0.003992
121 0.004016
130 0.003992
142 0.003988
154 0.003991
166 0.003026
180 0.003987
189 0.004
202 0.003026
210 0.004035
195 0.002993
140 0.002993
92 0.002988
71 0.002998
76 0.003021
86 0.002994
100 0.003018
115 0.00299
132 0.002992
136 0.003959
129 0.003957
128 0.003989
134 0.00403
142 0.004031
153 0.002992
165 0.003
181 0.002954
192 0.003
204 0.003991
211 0.003002
188 0.001999
111 0.002998
77 0.002992
80 0.002992
93 0.002993
109 0.001961
127 0.001984
143 0.00299
150 0.002994
143 0.002003
138 0.002055
139 0.001988
146 0.001995
159 0.001965
175 0.00197
191 0.001996
203 0.003007
206 0.002992
169 0.002989
108 0.002978
69 0.002989
67 0.002992
75 0.002995
87 0.002991
101 0.00296
121 0.002009
132 0.002049
132 0.002028
129 0.00203
132 0.001995
138 0.002001
147 0.002957
161 0.002997
175 0.002994
191 0.002994
200 0.001983
173 0.001987
96 0.002
62 0.002026
62 0.002044
71 0.00201
81 0.001993
89 0.013964
107 0.002028
118 0.001984
119 0.001997
115 0.001992
115 0.001994
121 0.000997
133 0.002005
148 0.002028
166 0.001995
175 0.001966
148 0.001984
96 0.002029
65 0.002012
55 0.00196
60 0.001993
70 0.000998
82 0.000992
95 0.002034
109 0.002043
112 0.002033
110 0.001998
113 0.001998
119 0.001996
127 0.001999
137 0.001996
153 0.000983
158 0.001978
131 0.001993
88 0.000991
61 0.001014
56 0.001013
67 0.000997
84 0.001995
100 0.002025
113 0.001966
117 0.001989
116 0.001968
113 0.003015
116 0.003
123 0.00201
133 0.000998
145 0.000962
161 0.00099
149 0.00203
92 0.002004
67 0.000997
62 0.001955
70 0.0
83 0.001998
104 0.001997
119 0.000997
127 0.001018
125 0.001027
120 0.001007
120 0.000997
130 0.002028
140 0.001995
155 0.001949
167 0.002015
168 0.002015
131 0.002018
90 0.001005
69 0.001997
72 0.001003
83 0.0
96 0.000996
113 0.0
129 0.0
126 0.0
119 0.000997
121 0.0
127 0.0
135 0.0
144 0.001003
157 0.000994
163 0.001
136 0.001023
93 0.0
67 0.000998
62 0.0
70 0.0
85 0.0
99 0.0
109 0.0
114 0.0
113 0.0
112 0.0
115 0.000996
122 0.0
131 0.0
140 0.00105
159 0.0
162 0.0
116 0.0
78 0.0
59 0.0
56 0.0
63 0.0
76 0.0
86 0.0
98 0.0
107 0.0
110 0.0
109 0.0
112 0.000998
122 0.0
131 0.000963
140 0.001006
149 0.000994
160 0.000996
172 0.0
159 0.0
114 0.0
77 0.0
61 0.0
70 0.0
80 0.0
93 0.0
105 0.003031
117 0.0
119 0.0
117 0.0
118 0.002997
122 0.003
133 0.0
144 0.000947
155 0.000983
174 0.000984
184 0.000973
193 0.00199
202 0.002989
189 0.001031
134 0.0
89 0.000998
73 0.002988
75 0.002992
90 0.0
105 0.0
120 0.0
138 0.0
138 0.0
132 0.002992
131 0.003986
136 0.0
145 0.001004
156 0.0
168 0.001976
178 0.00299
189 0.001993
205 0.001012
