68 0.030962
68 0.000998
86 0.0
101 0.0
123 0.0
128 0.0
128 0.0
130 0.000997
134 0.00203
143 0.001005
150 0.000998
156 0.001021
145 0.000998
94 0.000957
57 0.000986
52 0.000998
74 0.000998
89 0.000998
105 0.001011
124 0.001995
130 0.002022
131 0.0
133 0.000999
138 0.000993
144 0.001965
152 0.001962
160 0.000961
162 0.000999
88 0.000998
56 0.0
56 0.001032
70 0.002002
84 0.001995
105 0.0
120 0.001037
130 0.0
132 0.002027
133 0.000989
135 0.002049
142 0.000983
151 0.001995
159 0.000995
163 0.001995
147 0.001999
93 0.001994
60 0.001995
65 0.002001
76 0.001995
99 0.001999
114 0.001943
128 0.001995
136 0.001989
137 0.001894
138 0.001986
145 0.001009
152 0.001981
159 0.002992
166 0.003024
171 0.002019
173 0.002021
133 0.002022
71 0.001995
67 0.00206
83 0.001995
115 0.002993
137 0.001047
145 0.001992
144 0.002026
141 0.002992
141 0.002992
147 0.002029
154 0.002043
161 0.002042
167 0.002992
172 0.001995
154 0.001992
75 0.002992
67 0.002992
82 0.002983
103 0.002981
128 0.002992
142 0.003023
146 0.003989
142 0.002018
140 0.002019
143 0.002992
149 0.002992
158 0.001989
166 0.003946
166 0.003032
122 0.003023
73 0.003028
61 0.002939
76 0.002999
94 0.002961
115 0.001994
125 0.002993
137 0.003994
137 0.002991
134 0.002986
138 0.003989
146 0.002992
152 0.002993
158 0.00368
140 0.002979
88 0.00296
53 0.001972
60 0.002001
74 0.001994
87 0.00399
101 0.003989
120 0.002992
129 0.00399
129 0.002991
131 0.003019
136 0.003024
143 0.004022
150 0.004038
152 0.003031
109 0.002992
65 0.002992
53 0.003989
62 0.004029
76 0.004021
98 0.00399
114 0.00399
125 0.004018
129 0.00302
128 0.003029
130 0.003992
136 0.004029
145 0.002983
152 0.003025
149 0.003989
105 0.004997
63 0.00502
59 0.003989
72 0.003989
84 0.004027
97 0.004042
117 0.003027
126 0.004987
127 0.005017
127 0.00299
132 0.004036
138 0.00403
145 0.004986
151 0.004992
149 0.004987
102 0.004985
56 0.003989
54 0.004023
63 0.003974
79 0.003991
93 0.004987
114 0.004032
123 0.003993
125 0.003985
125 0.004987
128 0.005016
138 0.004988
145 0.004987
153 0.004022
158 0.003991
162 0.004029
131 0.004023
78 0.00502
54 0.004019
60 0.003024
72 0.00403
85 0.004987
102 0.00503
123 0.005025
125 0.005038
125 0.004002
126 0.005012
134 0.004036
141 0.004952
148 0.004957
155 0.004018
160 0.005031
165 0.004987
148 0.005991
94 0.005985
55 0.006016
61 0.004987
73 0.005022
87 0.005023
109 0.004005
121 0.004987
126 0.005018
126 0.004018
128 0.005031
133 0.005021
140 0.006022
147 0.005982
158 0.005987
164 0.005984
171 0.004987
165 0.004987
134 0.006019
70 0.004987
62 0.005983
73 0.006017
88 0.005984
108 0.004987
123 0.005949
133 0.005984
135 0.005989
135 0.006016
139 0.005947
145 0.006017
153 0.005987
162 0.006017
168 0.005994
173 0.005991
178 0.004992
164 0.005036
113 0.004989
78 0.005984
87 0.004987
104 0.006982
121 0.006981
141 0.005978
147 0.005983
147 0.005984
142 0.006031
142 0.005994
147 0.005979
153 0.006018
162 0.004987
167 0.006979
175 0.005011
166 0.006982
117 0.006985
71 0.006017
74 0.005987
91 0.005975
108 0.006992
123 0.006945
136 0.006984
142 0.006015
141 0.005986
140 0.005946
145 0.006953
155 0.006981
163 0.007016
171 0.005979
177 0.005985
180 0.005961
145 0.007944
90 0.00698
67 0.005983
77 0.006015
92 0.006996
106 0.007942
128 0.006981
137 0.007013
139 0.007021
139 0.006006
142 0.006016
147 0.006
153 0.00695
160 0.007015
167 0.005963
172 0.005977
174 0.006986
118 0.00798
67 0.007012
70 0.007982
80 0.006985
95 0.007011
109 0.006948
123 0.006991
135 0.006948
137 0.006981
137 0.006013
139 0.006023
145 0.007024
152 0.007979
164 0.007016
170 0.007979
175 0.007979
178 0.006999
140 0.006951
88 0.006984
68 0.006941
76 0.006929
94 0.007947
116 0.006945
132 0.006981
141 0.007943
142 0.006991
140 0.007948
142 0.007978
149 0.006943
156 0.007015
163 0.00698
170 0.007023
174 0.007012
179 0.007013
160 0.007926
95 0.007012
78 0.00795
83 0.007948
110 0.007078
129 0.007992
145 0.007939
151 0.006969
146 0.006958
141 0.006989
143 0.006981
148 0.007017
157 0.006981
163 0.007024
168 0.007019
166 0.007013
120 0.007013
76 0.006981
66 0.006979
73 0.007979
105 0.007012
111 0.00794
136 0.007979
140 0.007014
135 0.007015
132 0.007018
135 0.006984
145 0.007012
152 0.007017
158 0.007015
163 0.007014
161 0.007017
115 0.007016
68 0.007047
56 0.006983
66 0.007014
87 0.006981
99 0.006983
112 0.006982
125 0.007032
125 0.007019
124 0.006982
127 0.006981
134 0.006016
142 0.005828
148 0.005984
153 0.006018
158 0.006025
141 0.006065
87 0.007037
54 0.006019
61 0.006021
74 0.006947
86 0.006985
99 0.007013
115 0.007018
120 0.007018
120 0.006979
120 0.006981
124 0.006017
132 0.006018
139 0.005983
145 0.005982
154 0.005976
158 0.005984
160 0.00602
125 0.006015
62 0.00699
51 0.005988
60 0.005984
73 0.005985
85 0.005984
103 0.005983
115 0.006018
119 0.00602
119 0.006021
122 0.006021
128 0.005983
134 0.005983
144 0.006016
150 0.005984
154 0.006033
159 0.006019
163 0.005026
167 0.005985
137 0.005983
84 0.006028
61 0.006034
74 0.006017
89 0.006017
101 0.005019
115 0.006017
127 0.006025
127 0.005021
126 0.004987
127 0.004986
132 0.005021
141 0.004988
149 0.005016
158 0.004974
162 0.005984
166 0.005985
170 0.005995
173 0.00598
125 0.004987
80 0.004973
69 0.004986
80 0.005006
99 0.005018
120 0.004987
134 0.004986
138 0.005038
133 0.004983
131 0.005008
134 0.005985
140 0.003989
149 0.004987
155 0.004987
159 0.005037
162 0.004988
166 0.005033
158 0.005033
109 0.00506
65 0.00502
74 0.005006
91 0.005023
107 0.005022
121 0.004016
132 0.00403
130 0.003988
127 0.003988
126 0.003986
131 0.004021
140 0.003987
147 0.004044
155 0.005024
159 0.00398
162 0.004027
135 0.005024
82 0.005036
56 0.005023
65 0.005021
79 0.004987
91 0.003989
103 0.004044
117 0.004023
122 0.003998
121 0.004021
124 0.003959
129 0.004055
136 0.004028
143 0.00399
150 0.003957
155 0.00399
160 0.004023
150 0.004023
101 0.003989
56 0.003023
57 0.003991
73 0.003993
88 0.003997
101 0.00399
113 0.004017
120 0.00399
121 0.002993
122 0.004023
126 0.00402
132 0.002989
139 0.004029
146 0.003028
153 0.003034
158 0.002996
163 0.002992
144 0.002997
92 0.002992
62 0.003999
62 0.003953
80 0.00399
93 0.003991
106 0.002995
120 0.00399
128 0.002958
127 0.003
128 0.00296
134 0.003023
141 0.002993
149 0.003031
155 0.002994
160 0.003016
165 0.002992
169 0.002992
172 0.002992
168 0.00299
123 0.003028
73 0.002994
78 0.002995
101 0.002993
116 0.002971
130 0.002963
138 0.002992
137 0.003003
131 0.002992
132 0.002995
137 0.001995
144 0.001993
151 0.002937
158 0.001994
164 0.002028
170 0.002961
160 0.001995
113 0.001995
77 0.003475
72 0.003028
91 0.001994
107 0.001995
122 0.001995
134 0.001994
137 0.002872
131 0.002029
130 0.00199
137 0.003003
144 0.002997
150 0.001995
155 0.001995
159 0.002993
160 0.002992
121 0.003022
76 0.002992
61 0.001995
69 0.001995
87 0.001995
101 0.001995
118 0.001995
125 0.001996
124 0.001987
123 0.001994
125 0.001995
133 0.002038
140 0.002034
147 0.001995
152 0.001995
156 0.001996
157 0.001996
100 0.002027
59 0.000996
61 0.001965
73 0.001962
83 0.001978
92 0.001008
105 0.00099
120 0.001001
122 0.000998
121 0.001012
123 0.001996
128 0.001995
140 0.001996
147 0.000998
153 0.001003
158 0.001003
159 0.001995
126 0.001997
78 0.002008
59 0.001997
68 0.000993
79 0.000997
88 0.000997
100 0.000998
120 0.000998
125 0.000968
125 0.00099
127 0.001011
132 0.000997
139 0.001032
146 0.001005
154 0.001009
158 0.000998
162 0.000982
167 0.0
170 0.001064
112 0.000998
70 0.001001
63 0.000977
73 0.000968
84 0.001025
95 0.000984
109 0.001006
123 0.000998
126 0.000997
125 0.001027
127 0.000998
131 0.000997
142 0.000998
149 0.000962
156 0.000963
161 0.000997
165 0.000998
169 0.0
173 0.0
144 0.000997
92 0.000997
67 0.000999
71 0.000997
84 0.000997
101 0.000992
118 0.0
131 0.0
132 0.0
131 0.0
132 0.0
136 0.0
145 0.0
152 0.0
159 0.0
164 0.000997
169 0.0
174 0.000998
180 0.0
169 0.0
119 0.0
83 0.0
79 0.0
94 0.0
118 0.001016
133 0.0
145 0.0
148 0.0
144 0.0
140 0.0
144 0.0
153 0.0
160 0.0
166 0.0
171 0.0
174 0.0
179 0.0
165 0.000998
115 0.000998
76 0.0
80 0.0
97 0.0
124 0.0
134 0.0
145 0.000995
142 0.0
137 0.0
137 0.0
142 0.000991
149 0.0
156 0.0
161 0.0
165 0.0
170 0.0
127 0.0
72 0.0
67 0.000999
80 0.00103
100 0.0
111 0.0
123 0.000999
131 0.000998
132 0.000997
130 0.0
132 0.0
135 0.000997
150 0.001004
154 0.001012
161 0.001002
166 0.000964
166 0.0
126 0.0
78 0.0
62 0.001996
70 0.001011
87 0.0
97 0.000988
108 0.000963
125 0.000998
127 0.000998
126 0.002033
127 0.001995
134 0.00103
141 0.000955
148 0.000998
154 0.002027
158 0.001995
164 0.00104
162 0.000997
139 0.000998
70 0.00104
67 0.0
78 0.001018
88 0.001996
101 0.000997
113 0.000999
122 0.001023
124 0.001995
124 0.001995
127 0.001031
132 0.000998
139 0.001996
149 0.002034
155 0.000961
159 0.001984
163 0.001995
160 0.000998
118 0.000995
75 0.001029
62 0.001994
68 0.001995
82 0.001048
92 0.001035
105 0.001002
121 0.001994
123 0.002011
122 0.002031
124 0.002992
129 0.002992
135 0.001992
142 0.002031
148 0.00203
155 0.002027
159 0.002031
164 0.001032
167 0.002005
104 0.002026
71 0.002044
67 0.002029
77 0.003028
88 0.002992
103 0.002035
116 0.002031
125 0.002029
128 0.002992
126 0.002029
127 0.002034
133 0.002023
145 0.001994
152 0.001995
157 0.002024
161 0.003027
165 0.003028
170 0.002025
163 0.002017
119 0.002068
82 0.00304
76 0.003025
92 0.002034
107 0.002994
130 0.002995
138 0.003035
137 0.003045
132 0.003015
132 0.003024
135 0.003029
144 0.001991
150 0.001996
156 0.002993
159 0.00306
164 0.002995
169 0.002996
119 0.00302
82 0.003025
75 0.00299
86 0.003987
101 0.00399
119 0.003026
131 0.002984
136 0.003007
133 0.003023
130 0.00303
132 0.001964
138 0.002003
149 0.002961
154 0.002987
158 0.003022
163 0.003992
157 0.004025
100 0.003025
70 0.003035
70 0.003024
82 0.004007
94 0.004024
107 0.003023
120 0.003022
129 0.002995
128 0.003035
128 0.003034
132 0.004004
138 0.003992
147 0.003025
153 0.003021
157 0.002995
162 0.004986
166 0.005049
145 0.004027
83 0.002988
68 0.003989
81 0.003002
90 0.003001
98 0.003026
110 0.003989
121 0.003993
126 0.003989
126 0.003991
127 0.00402
132 0.005018
138 0.005017
147 0.004027
153 0.004021
159 0.002988
163 0.003024
167 0.002974
152 0.005022
104 0.004988
67 0.004012
68 0.004023
78 0.00402
87 0.006011
96 0.005018
113 0.004022
122 0.005017
123 0.004025
123 0.003001
127 0.003026
133 0.005021
140 0.005016
146 0.004959
153 0.004003
158 0.00397
162 0.005023
166 0.004986
170 0.003996
132 0.005011
75 0.004003
67 0.004022
76 0.003989
87 0.004986
97 0.004985
113 0.005021
123 0.005025
126 0.004985
125 0.004987
125 0.005018
130 0.004026
139 0.00501
148 0.003986
153 0.003984
157 0.003989
161 0.006018
163 0.006037
169 0.00498
157 0.004984
113 0.00502
80 0.005984
77 0.005985
94 0.006015
112 0.005992
125 0.005023
136 0.004024
133 0.004022
129 0.006031
128 0.006017
135 0.004988
141 0.005019
148 0.005017
154 0.005985
158 0.006016
162 0.003989
167 0.005988
134 0.005016
88 0.005017
70 0.004982
76 0.005989
90 0.006025
106 0.005003
118 0.005004
127 0.004981
129 0.005984
127 0.00702
127 0.004978
134 0.007
143 0.006018
150 0.005946
153 0.006017
159 0.004986
163 0.005948
166 0.006001
154 0.004976
105 0.004991
70 0.004992
66 0.007017
76 0.006983
94 0.006984
104 0.006953
120 0.006001
126 0.006018
126 0.005984
125 0.00699
128 0.006982
136 0.005985
143 0.006023
149 0.006017
155 0.008018
160 0.006982
166 0.005985
170 0.005981
150 0.005983
100 0.005984
71 0.005967
71 0.006965
84 0.006984
101 0.006015
112 0.005994
124 0.006019
132 0.007979
133 0.006979
132 0.006988
135 0.006982
143 0.005985
151 0.00599
158 0.006965
165 0.007976
168 0.006975
171 0.006966
175 0.006
179 0.006031
174 0.006982
131 0.00798
79 0.006983
84 0.007018
106 0.005984
121 0.005983
135 0.005986
144 0.007946
144 0.007945
137 0.006945
136 0.006027
139 0.006983
148 0.00697
154 0.007979
161 0.006967
165 0.006975
170 0.005977
169 0.005992
132 0.005985
90 0.007947
77 0.00801
90 0.00699
107 0.007007
122 0.007013
135 0.007979
141 0.007964
134 0.007965
133 0.007977
137 0.006974
144 0.006958
151 0.007935
157 0.007978
162 0.007937
167 0.006979
171 0.006985
167 0.006984
106 0.007966
79 0.007979
70 0.007946
84 0.007948
101 0.006981
115 0.007016
123 0.007016
126 0.007015
126 0.007012
126 0.00701
127 0.007978
134 0.007031
141 0.006973
148 0.007978
157 0.006982
161 0.007945
167 0.007024
152 0.007039
101 0.007012
67 0.007013
63 0.007012
74 0.007011
91 0.007016
101 0.007013
112 0.005956
121 0.007012
124 0.006967
123 0.007978
125 0.007018
133 0.007023
140 0.00698
147 0.006981
153 0.007013
158 0.007013
164 0.006962
168 0.006983
169 0.007015
135 0.007014
71 0.007014
71 0.006017
85 0.007029
104 0.007035
116 0.007012
127 0.007022
132 0.007014
131 0.007014
128 0.007043
131 0.00702
136 0.007019
143 0.006022
152 0.006971
160 0.006019
163 0.005985
168 0.006027
170 0.006019
141 0.00598
98 0.006019
80 0.006034
90 0.007026
107 0.007008
124 0.006015
139 0.007012
143 0.006024
136 0.006042
131 0.006019
134 0.006016
141 0.005984
148 0.006011
154 0.006018
158 0.006004
163 0.00599
166 0.005016
139 0.005018
93 0.007035
73 0.005323
86 0.005983
101 0.005988
119 0.00601
129 0.006025
132 0.00602
128 0.006001
125 0.006017
128 0.006015
134 0.006034
141 0.005986
147 0.005965
155 0.005966
158 0.005984
162 0.006019
132 0.00602
84 0.005019
63 0.005985
66 0.004987
78 0.005028
88 0.005026
101 0.006041
111 0.006036
118 0.005018
118 0.005985
119 0.006021
123 0.006017
129 0.005984
138 0.005021
145 0.005019
150 0.005017
154 0.004976
158 0.005027
141 0.004988
93 0.005014
65 0.004995
71 0.006032
83 0.006
92 0.006023
102 0.004982
117 0.005016
122 0.00499
122 0.005025
121 0.005037
125 0.004985
133 0.004986
139 0.004967
146 0.005018
155 0.005025
160 0.005021
165 0.005024
169 0.004982
131 0.003979
87 0.005022
72 0.005023
80 0.004988
95 0.004985
110 0.005028
122 0.005008
131 0.004022
132 0.005018
130 0.005043
131 0.004057
136 0.004024
146 0.004017
152 0.00402
158 0.004032
162 0.004031
166 0.00403
170 0.004024
171 0.004993
138 0.004989
85 0.005021
86 0.004989
101 0.00502
118 0.004987
139 0.004026
147 0.003991
145 0.004026
138 0.003992
134 0.003991
137 0.004024
144 0.004016
150 0.003991
158 0.004013
161 0.004023
165 0.00399
154 0.003991
97 0.003955
76 0.003989
79 0.003984
94 0.003989
108 0.004988
126 0.003991
134 0.003992
134 0.003959
128 0.004052
130 0.003997
135 0.002993
142 0.002992
150 0.004048
155 0.003991
159 0.003992
163 0.004175
154 0.00399
108 0.003989
67 0.003953
68 0.00399
87 0.004044
96 0.004021
106 0.003993
116 0.003991
122 0.003057
122 0.003023
122 0.00303
126 0.00303
132 0.00303
139 0.004033
147 0.003991
152 0.003023
159 0.004024
152 0.002994
109 0.003009
73 0.00399
66 0.003901
79 0.002991
89 0.002992
98 0.002988
109 0.003007
119 0.002997
124 0.001994
124 0.003957
128 0.003948
133 0.003027
140 0.002995
147 0.002994
152 0.002962
159 0.002962
162 0.003023
166 0.00203
164 0.002998
125 0.00299
76 0.002027
72 0.003031
92 0.002013
102 0.001995
113 0.003027
123 0.002961
129 0.003
128 0.002993
128 0.002032
131 0.002048
137 0.00203
144 0.001951
153 0.002994
159 0.003025
166 0.003024
169 0.002026
173 0.001995
168 0.002992
128 0.003025
83 0.002992
81 0.00199
95 0.002053
111 0.002002
125 0.001999
139 0.001995
141 0.002009
134 0.001996
134 0.001995
137 0.001995
144 0.001995
151 0.000999
158 0.001995
163 0.001998
166 0.001996
170 0.00203
173 0.002047
134 0.002004
95 0.001996
86 0.002011
102 0.00196
120 0.001994
136 0.001966
146 0.001014
144 0.001013
137 0.000997
134 0.002032
137 0.002042
143 0.002023
152 0.001963
158 0.002038
165 0.002033
169 0.001983
166 0.002027
125 0.001995
82 0.000999
70 0.000998
83 0.000997
98 0.000998
111 0.001039
122 0.001035
129 0.000998
128 0.002003
125 0.000997
129 0.000997
135 0.001009
143 0.001996
149 0.002009
154 0.002051
160 0.001003
165 0.000984
157 0.000998
111 0.001032
73 0.000999
69 0.000998
86 0.000997
102 0.000997
112 0.001034
121 0.001995
126 0.001996
125 0.000999
124 0.000959
128 0.002045
134 0.0
141 0.0
148 0.000958
155 0.000998
160 0.000996
165 0.001002
140 0.000997
92 0.000993
69 0.000995
72 0.000986
90 0.001012
102 0.000998
113 0.0
123 0.0
127 0.0
126 0.0
126 0.000998
132 0.001028
138 0.001028
145 0.000998
151 0.000997
156 0.0
161 0.0
165 0.0
163 0.0
126 0.0
85 0.0
74 0.0
92 0.0
111 0.0
124 0.0
132 0.0
133 0.0
131 0.0
129 0.0
132 0.0
138 0.0
145 0.0
151 0.0
157 0.0
162 0.0
168 0.0
158 0.0
116 0.0
81 0.0
80 0.001001
99 0.001041
116 0.0
135 0.0
142 0.0
140 0.0
135 0.001
134 0.0
139 0.0
146 0.001041
152 0.001045
159 0.0
162 0.001
167 0.0
167 0.000999
134 0.000998
96 0.000997
83 0.000997
92 0.000998
122 0.000998
140 0.000998
150 0.000993
145 0.000997
138 0.000997
135 0.000949
138 0.0
145 0.001045
151 0.001033
159 0.000972
164 0.0
162 0.0
104 0.0
84 0.0
87 0.001002
104 0.000999
129 0.0
144 0.0
148 0.0
142 0.001029
134 0.001006
131 0.00095
136 0.000941
143 0.0
153 0.0
159 0.0
156 0.001032
117 0.002029
73 0.0
71 0.0
84 0.000967
99 0.001044
112 0.001976
125 0.000952
126 0.000986
122 0.000998
117 0.000999
123 0.000998
132 0.001971
141 0.001997
150 0.002026
155 0.001034
126 0.000982
70 0.001995
44 0.003046
52 0.000994
66 0.000963
78 0.001011
99 0.001042
108 0.001003
109 0.001995
108 0.002015
111 0.001008
118 0.001994
126 0.002032
134 0.001995
141 0.002024
149 0.000941
148 0.000996
106 0.001997
42 0.000957
42 0.000992
51 0.002029
60 0.00199
74 0.000999
89 0.001
100 0.001001
103 0.002006
103 0.002004
107 0.001996
114 0.000996
122 0.001996
135 0.002009
141 0.000996
146 0.000978
151 0.002992
155 0.002992
158 0.001008
120 0.000985
66 0.000994
45 0.002031
49 0.001996
62 0.002011
71 0.001994
94 0.001958
106 0.001995
109 0.001998
109 0.003026
110 0.003002
119 0.002036
128 0.001029
136 0.001033
144 0.002993
150 0.002997
156 0.002011
160 0.001996
168 0.001998
154 0.002024
101 0.002025
66 0.002992
63 0.002992
80 0.003023
92 0.002028
104 0.002025
118 0.004003
125 0.003996
121 0.002026
119 0.001995
127 0.001996
136 0.002005
144 0.001996
150 0.002992
155 0.002992
161 0.002031
165 0.002962
170 0.003025
154 0.004031
101 0.003986
63 0.002993
67 0.002032
89 0.002031
102 0.001981
116 0.002011
125 0.003029
125 0.003016
122 0.001994
124 0.002995
130 0.003001
139 0.004028
147 0.003988
156 0.002991
161 0.003024
168 0.003022
171 0.003015
176 0.002024
168 0.00399
115 0.004987
58 0.002027
54 0.002996
64 0.003042
74 0.00399
81 0.004019
99 0.003025
112 0.002993
117 0.003008
118 0.002998
121 0.003021
128 0.004021
137 0.003957
148 0.003028
155 0.003025
161 0.004022
166 0.004024
170 0.003989
175 0.002997
179 0.003011
166 0.002956
107 0.002992
63 0.002997
55 0.003991
65 0.004987
76 0.005034
89 0.003956
103 0.003998
117 0.00399
124 0.004987
125 0.004986
125 0.003015
134 0.004018
146 0.003942
155 0.003956
162 0.00396
169 0.004987
174 0.00499
180 0.003991
184 0.004021
187 0.003014
192 0.005024
196 0.006017
152 0.003044
81 0.005024
73 0.002991
89 0.004009
105 0.003994
118 0.005026
132 0.004987
143 0.00399
139 0.004037
135 0.002998
136 0.004986
142 0.005025
154 0.004013
165 0.005026
173 0.004989
178 0.003984
181 0.005026
184 0.005984
187 0.005945
190 0.003987
150 0.004007
92 0.003992
68 0.004986
73 0.005021
97 0.00496
117 0.005986
136 0.004992
141 0.005018
137 0.00399
132 0.006027
133 0.006046
141 0.005048
151 0.004987
160 0.005
167 0.006015
172 0.005984
178 0.005034
183 0.005018
189 0.004977
177 0.004987
115 0.004989
64 0.005984
50 0.005984
67 0.005006
83 0.004997
94 0.005035
105 0.006017
116 0.005985
123 0.003995
122 0.006991
125 0.00498
132 0.004956
142 0.004991
151 0.005984
159 0.006026
168 0.005984
173 0.005013
177 0.006025
182 0.006021
187 0.006015
142 0.006033
63 0.007002
46 0.006985
61 0.004976
77 0.005005
89 0.004997
101 0.006981
115 0.00699
124 0.005011
124 0.005982
124 0.004996
128 0.006981
136 0.005984
153 0.00699
163 0.006982
173 0.005968
179 0.005983
184 0.00602
188 0.006991
193 0.006986
195 0.005987
149 0.006
85 0.005985
58 0.006976
64 0.006981
98 0.006988
114 0.006971
132 0.005986
139 0.005981
138 0.005985
133 0.006981
132 0.00695
139 0.005989
149 0.005988
159 0.006983
168 0.00798
175 0.006981
183 0.006982
186 0.007948
191 0.006021
194 0.006016
162 0.00602
99 0.007979
67 0.007979
72 0.006
94 0.005984
116 0.00599
135 0.007014
148 0.007023
141 0.007975
136 0.007977
134 0.007018
141 0.007018
151 0.006979
163 0.007967
171 0.007973
177 0.006972
182 0.006977
185 0.005984
190 0.007019
192 0.007979
101 0.007944
57 0.007948
54 0.007014
72 0.006979
92 0.007011
106 0.007979
119 0.00798
128 0.007014
124 0.006964
122 0.006973
123 0.007975
131 0.007014
145 0.007937
154 0.007926
163 0.006981
169 0.006979
174 0.006998
178 0.007978
183 0.007979
164 0.007015
96 0.007012
49 0.007017
45 0.00699
61 0.006979
87 0.006976
99 0.007013
111 0.007016
119 0.006971
119 0.006982
117 0.006848
119 0.007979
125 0.007979
138 0.007033
147 0.00602
158 0.006982
164 0.007016
171 0.006975
177 0.007013
182 0.007027
145 0.006974
81 0.006978
50 0.006983
53 0.007014
72 0.007022
96 0.00702
104 0.006986
121 0.007044
128 0.007047
124 0.007013
123 0.007013
127 0.007023
139 0.007015
149 0.007015
158 0.007013
166 0.00698
171 0.00702
177 0.006017
181 0.005968
186 0.006013
184 0.006026
95 0.006985
65 0.00702
67 0.007028
94 0.006969
115 0.005987
132 0.007029
144 0.007019
144 0.007016
133 0.005977
129 0.006025
132 0.006026
140 0.006009
155 0.006016
162 0.00597
167 0.005985
173 0.006098
177 0.00602
182 0.006016
164 0.00599
105 0.006018
58 0.00602
61 0.006017
79 0.005988
98 0.005019
125 0.005022
134 0.006945
132 0.006028
122 0.006022
121 0.005978
127 0.00602
136 0.006014
146 0.006014
156 0.006017
161 0.005986
165 0.006018
169 0.00503
164 0.007021
108 0.004987
57 0.005027
46 0.004987
61 0.005023
77 0.00502
87 0.006029
98 0.006024
112 0.006008
114 0.005983
112 0.006018
111 0.00603
122 0.006029
132 0.005986
141 0.006023
148 0.006018
156 0.005022
160 0.005026
165 0.005037
156 0.005012
101 0.004984
46 0.004987
42 0.004987
54 0.00503
73 0.004996
82 0.004988
95 0.005017
105 0.004984
109 0.004984
109 0.00504
112 0.004987
119 0.005014
128 0.004976
140 0.005019
147 0.005029
153 0.005034
162 0.004977
164 0.00495
132 0.00399
76 0.004002
46 0.004015
53 0.004009
65 0.003955
74 0.004997
84 0.005024
102 0.005033
112 0.004989
114 0.005022
115 0.005021
120 0.005027
129 0.004034
138 0.003991
148 0.003991
154 0.004034
160 0.005026
164 0.00399
169 0.005018
162 0.005021
111 0.003991
66 0.005039
62 0.005003
76 0.004988
88 0.003991
99 0.003991
116 0.005023
123 0.004023
123 0.00399
122 0.00399
124 0.004988
133 0.003985
142 0.004012
151 0.003001
162 0.004064
166 0.004023
170 0.003989
173 0.004003
180 0.00399
168 0.003957
116 0.003955
75 0.003989
68 0.002992
87 0.003997
104 0.003957
119 0.00399
137 0.002953
135 0.003989
129 0.002992
126 0.003005
133 0.003955
141 0.00399
150 0.00399
157 0.003954
163 0.003957
167 0.003933
172 0.00399
176 0.003966
167 0.00399
113 0.004078
71 0.003992
64 0.003995
77 0.00399
99 0.002955
113 0.002991
126 0.003028
133 0.003025
130 0.003036
126 0.003026
128 0.00304
141 0.003022
150 0.002994
158 0.002027
164 0.003038
168 0.002994
173 0.002994
177 0.003009
182 0.00303
165 0.003061
104 0.003045
56 0.003025
56 0.003045
80 0.003015
89 0.002994
99 0.00302
111 0.00199
119 0.002
121 0.002993
121 0.002016
125 0.001995
132 0.002021
141 0.002026
153 0.002027
161 0.002994
170 0.003014
174 0.002997
179 0.003009
183 0.002962
159 0.002023
80 0.002009
55 0.00201
58 0.001996
71 0.002035
82 0.001996
90 0.00204
100 0.00203
108 0.002033
107 0.002043
106 0.003027
109 0.003027
116 0.001997
127 0.00204
135 0.002032
141 0.002029
146 0.002029
151 0.002014
156 0.001996
160 0.002051
145 0.002032
91 0.002029
57 0.001023
52 0.002047
65 0.001005
88 0.002
103 0.001003
118 0.002026
127 0.001995
128 0.000998
127 0.001991
131 0.002036
145 0.002043
154 0.001997
162 0.001995
167 0.002021
172 0.002051
180 0.001995
186 0.002052
193 0.002047
166 0.000999
109 0.002042
80 0.000998
88 0.000998
120 0.001995
136 0.001004
152 0.002041
159 0.000998
157 0.002037
151 0.000998
150 0.001044
156 0.002036
165 0.002029
175 0.002016
184 0.002029
191 0.001036
198 0.000998
204 0.001047
208 0.001045
185 0.000997
114 0.002042
67 0.001005
63 0.00204
80 0.000998
96 0.000993
107 0.0
119 0.000998
132 0.001995
133 0.0
132 0.0
136 0.0
144 0.000998
154 0.000999
164 0.000998
175 0.000998
181 0.000999
186 0.0
191 0.001011
197 0.0
179 0.000997
89 0.0
52 0.0
60 0.0
78 0.0
92 0.0
104 0.0
121 0.0
129 0.0
130 0.0
129 0.000998
131 0.000969
141 0.000997
155 0.0
167 0.0
175 0.000997
182 0.000999
186 0.0
190 0.0
198 0.0
185 0.0
122 0.0
71 0.0
61 0.0
82 0.0
108 0.0
130 0.0
141 0.000997
142 0.000998
135 0.001001
133 0.0
136 0.000989
144 0.001027
158 0.0
167 0.001017
174 0.000849
180 0.0
185 0.000999
191 0.001037
188 0.001998
117 0.000988
72 0.0
62 0.0
77 0.002027
98 0.002027
118 0.002029
141 0.0
146 0.0
139 0.0
128 0.0
131 0.0
139 0.001031
150 0.001054
161 0.0
168 0.000997
172 0.000999
178 0.001023
183 0.001035
178 0.000967
142 0.000998
61 0.0
50 0.0
62 0.000997
86 0.002046
100 0.002031
116 0.0
121 0.0
119 0.000983
115 0.002002
116 0.002027
126 0.0
132 0.000992
145 0.0
157 0.000979
161 0.000947
168 0.001047
172 0.002053
171 0.0
118 0.0
58 0.0
37 0.002
44 0.000987
66 0.000946
79 0.0
89 0.0
107 0.001007
111 0.001001
111 0.001967
111 0.001996
119 0.002033
128 0.001997
138 0.001029
147 0.002028
154 0.002001
162 0.000995
167 0.000995
172 0.0
157 0.000972
94 0.000964
50 0.001994
44 0.002027
65 0.002034
81 0.002033
93 0.002012
107 0.002045
118 0.003025
122 0.001995
120 0.002029
121 0.001035
132 0.001018
142 0.001961
151 0.001996
160 0.003028
169 0.002029
173 0.00097
178 0.002001
183 0.001995
188 0.002038
141 0.000968
83 0.001994
60 0.001981
80 0.002026
99 0.002
115 0.002981
131 0.002992
139 0.002992
134 0.000991
128 0.000993
127 0.00196
133 0.001995
143 0.001996
156 0.000995
163 0.001006
171 0.002008
174 0.002007
178 0.001993
181 0.00303
147 0.003026
74 0.002034
56 0.002025
65 0.00103
85 0.003024
103 0.004021
124 0.001002
132 0.000999
126 0.001961
122 0.001964
124 0.001997
131 0.002992
140 0.002992
153 0.003024
160 0.002032
165 0.003045
169 0.004028
174 0.003027
179 0.001992
146 0.002015
52 0.001962
42 0.001963
54 0.002011
71 0.002988
83 0.00299
97 0.001964
108 0.001963
113 0.00196
112 0.004029
112 0.003989
118 0.001995
126 0.001997
142 0.001995
150 0.002002
156 0.001991
162 0.003006
167 0.002989
174 0.002007
157 0.002019
96 0.002997
51 0.003988
43 0.00399
60 0.002996
75 0.003025
94 0.002073
106 0.001972
115 0.001984
117 0.004988
116 0.004987
120 0.001994
128 0.002994
138 0.003021
147 0.004013
156 0.003977
165 0.002992
170 0.002995
178 0.002995
180 0.003987
141 0.003023
83 0.003984
58 0.005019
69 0.003041
88 0.003029
104 0.002993
118 0.005025
130 0.004987
133 0.002995
128 0.002989
128 0.00301
134 0.002989
144 0.003999
153 0.004988
161 0.004988
168 0.004987
174 0.003009
177 0.003025
183 0.002995
176 0.004987
125 0.004969
69 0.00301
69 0.004987
95 0.002985
114 0.003985
131 0.003997
142 0.005037
140 0.00498
131 0.004021
127 0.00399
131 0.002948
140 0.004992
150 0.005027
160 0.00399
168 0.005031
174 0.004021
178 0.002991
181 0.002993
143 0.006029
80 0.004987
49 0.003993
59 0.00401
77 0.00396
92 0.005066
105 0.00598
119 0.003992
122 0.004987
118 0.003994
119 0.00197
125 0.004006
134 0.005023
144 0.004986
154 0.003037
160 0.005022
165 0.004023
170 0.005985
174 0.005977
154 0.003992
72 0.005977
43 0.003992
51 0.003989
67 0.003975
80 0.00598
90 0.005984
108 0.003989
115 0.003947
116 0.003992
115 0.005986
117 0.005978
127 0.003988
139 0.005027
151 0.004001
158 0.005
163 0.004956
168 0.005984
173 0.00602
165 0.005023
107 0.004967
60 0.004987
50 0.005985
63 0.005984
85 0.004989
102 0.006994
119 0.004004
126 0.004985
126 0.004993
124 0.005984
125 0.005975
135 0.004991
144 0.005003
154 0.004991
162 0.006003
169 0.005984
175 0.004984
181 0.007022
188 0.005026
166 0.005023
107 0.004988
69 0.007015
65 0.006982
81 0.006981
108 0.005001
125 0.004999
140 0.004994
144 0.005984
138 0.005968
130 0.006981
133 0.006982
144 0.005988
154 0.005985
161 0.005933
167 0.006981
171 0.007017
176 0.005978
182 0.00602
170 0.006015
113 0.006977
69 0.006994
66 0.006982
85 0.006981
110 0.004984
126 0.004983
137 0.005989
136 0.007012
129 0.006969
125 0.005991
130 0.005943
138 0.005984
148 0.006997
156 0.006982
167 0.006981
171 0.006984
177 0.004977
176 0.00502
127 0.006018
55 0.007977
45 0.007881
57 0.00598
74 0.005981
88 0.006004
99 0.006952
110 0.006967
117 0.00695
116 0.007985
117 0.006959
123 0.007023
133 0.005967
142 0.007979
150 0.007979
160 0.006003
165 0.005985
170 0.005983
175 0.007952
159 0.007977
62 0.006984
43 0.007014
55 0.006985
72 0.006978
84 0.006995
99 0.007972
108 0.007979
118 0.007013
118 0.006037
118 0.005996
122 0.007973
128 0.007978
146 0.007014
155 0.007015
164 0.006966
169 0.006982
172 0.00698
177 0.007979
169 0.007977
111 0.007
64 0.006982
53 0.006013
73 0.00796
85 0.007979
113 0.006974
126 0.007018
131 0.006979
128 0.006978
127 0.006979
130 0.00696
138 0.007016
147 0.007016
157 0.006984
165 0.00698
172 0.00698
176 0.007941
185 0.007012
188 0.006984
150 0.007015
81 0.006986
67 0.006992
72 0.006969
98 0.007017
118 0.007012
142 0.006982
148 0.006976
146 0.006979
135 0.007012
131 0.006976
139 0.006035
148 0.006988
159 0.006993
166 0.006982
170 0.006984
175 0.006983
180 0.00701
167 0.006987
130 0.006958
69 0.006952
60 0.006983
87 0.00602
106 0.006034
124 0.006015
138 0.00598
135 0.006979
128 0.006954
124 0.007021
127 0.007015
138 0.006005
148 0.006015
156 0.006062
162 0.005982
170 0.006016
175 0.006016
166 0.006018
88 0.006021
50 0.006018
47 0.005969
63 0.004981
79 0.005001
94 0.006018
107 0.006985
116 0.006024
118 0.006019
115 0.005994
118 0.005955
126 0.005991
138 0.006007
147 0.005938
155 0.00593
160 0.006019
164 0.006031
169 0.005902
130 0.005019
71 0.006014
45 0.004986
57 0.005024
72 0.004989
83 0.006031
98 0.005993
110 0.006048
115 0.005984
116 0.006017
116 0.005975
122 0.006015
130 0.006016
139 0.006015
148 0.004978
159 0.004982
165 0.004953
170 0.005041
169 0.005022
104 0.004958
60 0.005941
50 0.006039
61 0.005986
77 0.005018
91 0.005019
104 0.005022
116 0.005033
121 0.005023
120 0.005021
121 0.005028
127 0.004987
140 0.005019
149 0.004989
158 0.00502
165 0.00502
171 0.003987
177 0.004045
182 0.005026
161 0.005025
75 0.005021
62 0.005018
74 0.004954
92 0.005032
112 0.005019
127 0.00502
136 0.004952
135 0.005076
130 0.004985
129 0.004389
134 0.004971
142 0.005015
157 0.005004
164 0.004989
169 0.004988
174 0.00399
179 0.004026
184 0.003991
158 0.003976
105 0.00502
74 0.005029
78 0.003978
97 0.005016
117 0.004943
144 0.004988
147 0.00405
140 0.004005
132 0.003943
131 0.004021
138 0.003991
147 0.00399
156 0.00399
163 0.004025
169 0.003991
173 0.004033
179 0.003983
155 0.003029
95 0.002988
61 0.003043
59 0.00399
82 0.003989
100 0.003991
115 0.00399
128 0.003992
132 0.00399
126 0.003992
123 0.003988
125 0.004024
139 0.00399
149 0.00399
156 0.003022
163 0.003979
170 0.002983
174 0.002992
179 0.003027
158 0.003956
95 0.003034
49 0.002992
52 0.002992
68 0.002992
91 0.003984
102 0.004029
114 0.004028
120 0.003025
120 0.003017
119 0.002994
123 0.002997
131 0.003033
141 0.003026
150 0.003005
161 0.002992
167 0.003046
175 0.00399
180 0.002011
158 0.003025
96 0.003982
57 0.002041
57 0.002993
73 0.002993
89 0.003003
101 0.002992
114 0.003001
126 0.00299
127 0.003002
126 0.003036
130 0.003027
138 0.002028
147 0.002983
157 0.003026
167 0.002044
173 0.003042
178 0.001996
182 0.001995
188 0.001995
164 0.003027
102 0.001987
62 0.002035
74 0.001976
96 0.00296
113 0.002993
130 0.002977
143 0.002003
141 0.002992
134 0.002992
132 0.001995
135 0.002026
145 0.002026
155 0.001995
168 0.001995
175 0.001998
179 0.001993
183 0.002024
188 0.001996
177 0.002997
120 0.001994
75 0.00303
65 0.002025
78 0.00199
107 0.001992
127 0.001976
150 0.002017
147 0.002034
138 0.001998
132 0.003023
133 0.002028
143 0.001995
153 0.000976
162 0.000999
169 0.001995
174 0.002027
180 0.001991
185 0.002027
171 0.00198
106 0.002043
59 0.002024
50 0.001996
64 0.001993
91 0.001994
107 0.000998
121 0.000998
129 0.000963
128 0.000967
122 0.000997
122 0.002
132 0.001995
142 0.00204
152 0.001965
160 0.002993
166 0.002006
172 0.000999
177 0.000997
182 0.001
178 0.000998
121 0.000997
62 0.001005
43 0.001031
62 0.000999
84 0.000999
97 0.002051
109 0.001996
117 0.001012
118 0.001032
116 0.000998
116 0.000998
122 0.000997
131 0.000997
141 0.000998
153 0.000997
162 0.000998
168 0.000997
173 0.0
178 0.000998
168 0.000997
110 0.001995
54 0.001995
51 0.000967
67 0.0
85 0.0
100 0.0
117 0.000999
125 0.001019
122 0.001032
120 0.0
123 0.0
131 0.000998
140 0.000997
152 0.0
160 0.0
166 0.0
171 0.0
175 0.0
181 0.0
171 0.0
97 0.0
64 0.0
63 0.000998
81 0.0
102 0.000965
125 0.0
139 0.0
140 0.0
133 0.0
126 0.0
127 0.0
136 0.0
149 0.0
157 0.0
163 0.0
168 0.0
172 0.0
177 0.0
176 0.0
135 0.0
85 0.0
64 0.0
75 0.0
103 0.0
129 0.0
142 0.0
137 0.000962
130 0.0
122 0.0
123 0.0
131 0.0
141 0.0
149 0.0
155 0.000966
161 0.002026
168 0.000999
137 0.002034
81 0.002023
49 0.000961
52 0.0
67 0.000999
91 0.0
105 0.001029
118 0.0
118 0.000998
114 0.000955
109 0.002029
117 0.000952
127 0.001029
136 0.001003
143 0.001037
151 0.001004
155 0.001005
158 0.000948
163 0.001035
132 0.001029
73 0.000998
40 0.0
47 0.0
69 0.0
79 0.0
89 0.002029
100 0.002025
106 0.0
105 0.0
107 0.0
111 0.001037
120 0.00103
132 0.0
139 0.001003
146 0.0
154 0.0
160 0.0
161 0.00203
124 0.002026
60 0.0
49 0.0
57 0.0
71 0.002026
82 0.002026
95 0.0
107 0.0
114 0.000966
114 0.000966
115 0.0
121 0.001032
130 0.002019
142 0.000993
149 0.000997
156 0.0
161 0.002037
165 0.002025
171 0.0
175 0.0
150 0.0
82 0.000984
63 0.0
74 0.00202
90 0.002036
107 0.000963
120 0.001948
127 0.0
127 0.002008
122 0.001987
122 0.0
128 0.0
136 0.001999
150 0.002
156 0.001994
162 0.002961
166 0.002992
171 0.001995
175 0.001025
156 0.002006
105 0.001996
71 0.002003
71 0.00103
88 0.000997
105 0.000964
130 0.001996
135 0.002
131 0.002997
124 0.002993
123 0.002009
130 0.002012
138 0.001988
147 0.002992
154 0.003022
161 0.001999
165 0.003008
169 0.001992
173 0.001001
131 0.001979
76 0.002013
54 0.002993
59 0.002031
80 0.00199
92 0.001999
101 0.001938
113 0.003029
118 0.003025
117 0.000989
117 0.001988
125 0.002013
134 0.000998
143 0.001983
151 0.003028
158 0.002993
164 0.00201
168 0.001997
173 0.00199
174 0.003029
136 0.002992
66 0.001998
52 0.001016
70 0.001019
82 0.001035
91 0.000994
103 0.004012
114 0.003989
119 0.002016
119 0.002004
120 0.001998
125 0.003025
134 0.00399
146 0.001997
155 0.002009
166 0.002065
170 0.001998
174 0.002027
179 0.002993
181 0.003028
119 0.002013
71 0.001994
59 0.001974
69 0.003989
86 0.004023
103 0.001995
115 0.001993
131 0.001998
131 0.003015
129 0.002993
130 0.003989
135 0.003983
148 0.001991
157 0.001973
165 0.002025
172 0.004025
177 0.004024
183 0.001991
187 0.00202
195 0.00202
172 0.003007
112 0.003004
75 0.005021
71 0.004987
94 0.002968
114 0.002993
130 0.002034
144 0.004022
148 0.004036
140 0.001964
135 0.001939
139 0.001989
148 0.003048
158 0.002848
166 0.004994
173 0.004986
180 0.002961
184 0.002955
188 0.002986
192 0.004982
176 0.004986
101 0.002954
70 0.00294
75 0.004937
102 0.002963
121 0.001994
139 0.002992
149 0.004019
145 0.004019
134 0.002998
130 0.002991
134 0.003995
143 0.004981
153 0.00502
164 0.00299
171 0.005022
178 0.002989
183 0.004002
168 0.003985
105 0.005023
60 0.004987
54 0.004004
71 0.004006
90 0.003995
103 0.006001
116 0.005952
125 0.003993
122 0.005985
119 0.003038
122 0.003995
131 0.003027
141 0.005446
150 0.005983
159 0.003982
165 0.003994
169 0.003
174 0.004987
158 0.005017
77 0.00297
44 0.005985
56 0.004031
73 0.003988
85 0.003988
95 0.005986
107 0.005979
114 0.003976
114 0.003988
113 0.004004
116 0.005987
123 0.005987
136 0.003985
147 0.004993
156 0.00495
161 0.004986
166 0.004981
170 0.006007
143 0.005965
70 0.003989
49 0.003995
56 0.003988
72 0.005987
87 0.005993
101 0.004
116 0.006981
119 0.004985
117 0.004984
118 0.003988
123 0.005982
131 0.005991
144 0.003966
152 0.00398
159 0.003977
164 0.005983
169 0.005981
174 0.004013
177 0.006982
118 0.004992
73 0.004992
61 0.004985
73 0.006984
92 0.006959
112 0.004989
126 0.004978
134 0.004987
131 0.005989
125 0.005981
123 0.005984
132 0.007031
142 0.006981
153 0.005019
160 0.004993
164 0.004989
168 0.006978
173 0.006941
167 0.004986
118 0.004985
75 0.004981
63 0.007976
80 0.007964
104 0.006981
120 0.006972
134 0.005985
133 0.005987
127 0.006
123 0.006989
125 0.006999
136 0.005983
145 0.005952
154 0.005976
160 0.007978
164 0.007973
172 0.00798
163 0.007964
107 0.005947
61 0.005993
51 0.005983
62 0.006977
79 0.006981
93 0.004981
103 0.004985
114 0.005955
118 0.007968
115 0.007974
119 0.007979
124 0.007979
137 0.00598
146 0.005029
153 0.005982
162 0.00794
164 0.006974
171 0.006021
175 0.004998
153 0.006984
92 0.007938
54 0.00798
57 0.007947
71 0.007947
85 0.005946
95 0.005946
107 0.005973
115 0.008007
117 0.00795
117 0.006934
121 0.006932
129 0.00698
141 0.006981
150 0.006981
159 0.00797
167 0.006994
171 0.006014
176 0.005984
180 0.005982
140 0.007961
81 0.007974
56 0.005983
60 0.00599
76 0.006979
92 0.007015
102 0.007015
120 0.007018
125 0.006983
124 0.006978
123 0.005996
128 0.005975
136 0.00798
145 0.007972
158 0.005985
165 0.005979
171 0.006981
177 0.007015
181 0.006972
188 0.006981
191 0.006978
156 0.006983
96 0.006971
65 0.006977
69 0.006019
93 0.006018
109 0.005985
127 0.007002
135 0.006978
138 0.006942
131 0.007016
127 0.006948
133 0.007007
143 0.007012
152 0.006981
161 0.00695
167 0.006981
173 0.006018
177 0.006015
183 0.005986
165 0.00498
109 0.007026
72 0.007021
73 0.00698
93 0.007011
111 0.006981
128 0.006981
142 0.006979
139 0.006978
132 0.005965
128 0.005978
133 0.005977
142 0.005985
152 0.005977
160 0.005979
170 0.005966
175 0.007014
180 0.006982
173 0.00699
114 0.005984
64 0.005981
51 0.006016
61 0.006017
85 0.006132
97 0.005984
108 0.005984
119 0.006021
121 0.005985
119 0.005988
119 0.006017
128 0.005987
138 0.006952
148 0.006024
156 0.005984
162 0.005984
169 0.005951
173 0.006024
178 0.005981
164 0.006017
67 0.005018
47 0.006034
54 0.004983
75 0.005982
87 0.005984
97 0.004984
108 0.004974
116 0.005019
117 0.00502
116 0.004986
119 0.004987
127 0.006018
143 0.005993
152 0.006018
159 0.006019
166 0.005981
171 0.006063
175 0.005985
180 0.005021
158 0.004985
80 0.004982
56 0.005027
60 0.005017
77 0.00499
101 0.004989
113 0.005028
123 0.00501
127 0.005019
124 0.006019
124 0.00606
129 0.005987
137 0.005038
147 0.005037
159 0.005018
166 0.005021
171 0.005032
178 0.005035
183 0.005025
188 0.005021
177 0.005035
102 0.005021
70 0.004988
69 0.004988
86 0.003991
106 0.00499
129 0.004029
142 0.004035
144 0.004024
133 0.003991
130 0.004035
134 0.004034
141 0.005033
154 0.005017
163 0.005019
169 0.005018
174 0.004975
178 0.004969
185 0.005017
182 0.004022
137 0.004039
70 0.003992
70 0.00396
87 0.004022
108 0.004016
135 0.005018
147 0.004022
147 0.004988
137 0.005045
130 0.005021
131 0.004028
139 0.003994
149 0.004021
163 0.00399
169 0.004029
173 0.003989
178 0.004015
177 0.004066
125 0.003991
70 0.004022
51 0.00399
60 0.003952
85 0.004024
101 0.002994
114 0.002957
125 0.004028
123 0.003991
118 0.004035
119 0.004032
127 0.004018
137 0.003998
149 0.00399
165 0.003989
177 0.00396
186 0.003991
191 0.003989
195 0.002993
117 0.003032
63 0.003026
50 0.003011
61 0.003027
84 0.00399
95 0.002993
106 0.003989
117 0.003983
121 0.002993
120 0.002991
119 0.004008
123 0.002992
137 0.003033
147 0.002992
155 0.002969
163 0.00296
168 0.002993
175 0.003028
180 0.002993
169 0.002995
109 0.003028
61 0.003029
53 0.002992
69 0.00298
96 0.003044
107 0.002991
119 0.002992
125 0.002992
124 0.003024
122 0.003959
125 0.002992
132 0.002027
142 0.002029
152 0.002995
163 0.003027
170 0.003027
178 0.002993
182 0.00303
187 0.002995
187 0.002995
142 0.002992
73 0.003027
61 0.002992
74 0.002027
95 0.001997
113 0.002012
133 0.002027
140 0.002037
131 0.002993
126 0.003027
127 0.002954
134 0.002993
144 0.002992
156 0.001995
163 0.001995
169 0.001987
173 0.002025
177 0.001995
174 0.002038
124 0.001995
64 0.002001
66 0.002029
84 0.001997
105 0.000997
123 0.001988
141 0.00203
140 0.00203
132 0.001996
125 0.002027
126 0.001995
136 0.001995
147 0.001995
161 0.001995
167 0.002031
171 0.002202
176 0.001995
181 0.002029
138 0.002031
75 0.000999
47 0.001006
51 0.002027
68 0.000997
90 0.001996
100 0.000997
116 0.002006
118 0.001038
115 0.001956
114 0.002027
119 0.000998
130 0.002032
140 0.002004
149 0.000996
156 0.000951
162 0.001028
168 0.000995
173 0.000998
124 0.000998
66 0.000998
45 0.000998
50 0.001988
66 0.002031
79 0.000998
92 0.000997
105 0.000997
113 0.000998
115 0.000997
114 0.000997
116 0.001987
126 0.0
139 0.001003
148 0.000998
155 0.000998
161 0.000997
166 0.000997
172 0.000998
177 0.000997
144 0.000997
84 0.000998
55 0.000997
61 0.001005
84 0.000997
100 0.0
112 0.0
121 0.0
123 0.0
121 0.001001
120 0.000993
125 0.000997
134 0.000998
144 0.000998
153 0.000997
162 0.000987
169 0.0
173 0.0
177 0.0
182 0.0
157 0.0
100 0.0
65 0.0
71 0.0
89 0.0
107 0.001009
122 0.000998
138 0.0
133 0.0
123 0.0
123 0.0
129 0.0
138 0.0
147 0.0
157 0.0
162 0.0
167 0.0
172 0.0
167 0.000949
100 0.001008
61 0.0
69 0.0
87 0.0
103 0.0
118 0.0
131 0.0
128 0.0
122 0.0
120 0.0
123 0.0
135 0.000962
144 0.0
156 0.0
162 0.002004
166 0.002002
171 0.0
174 0.0
142 0.00099
80 0.002044
48 0.001028
53 0.0
68 0.0
80 0.0
88 0.002032
105 0.0
110 0.002027
110 0.00199
110 0.001992
116 0.0
124 0.0
134 0.00203
143 0.002027
152 0.0
157 0.000976
162 0.0
167 0.0
166 0.001048
116 0.0
65 0.002026
48 0.002012
60 0.000961
74 0.000974
83 0.000966
92 0.001995
105 0.002026
115 0.0
115 0.0
115 0.0
124 0.0
133 0.0
142 0.003027
151 0.002041
160 0.000973
165 0.0
170 0.000965
174 0.002031
178 0.002025
184 0.0
156 0.0
94 0.0
57 0.0
69 0.0
86 0.002041
98 0.001985
111 0.0
121 0.001034
126 0.000969
124 0.002028
122 0.001034
128 0.0
136 0.0
146 0.0
160 0.0
167 0.0
172 0.002
176 0.002026
180 0.0
183 0.0
188 0.0
188 0.002026
144 0.002029
89 0.00196
67 0.0
78 0.0
109 0.0
125 0.0
139 0.002026
142 0.003023
133 0.000976
127 0.00096
127 0.0
134 0.002028
144 0.002028
156 0.000981
164 0.0
169 0.0
176 0.0
181 0.0
182 0.002033
140 0.002957
74 0.001989
61 0.001994
72 0.000998
91 0.002992
108 0.002993
129 0.001995
137 0.001995
135 0.001994
126 0.002982
127 0.001995
133 0.003048
143 0.002993
156 0.001997
163 0.002035
169 0.001994
174 0.00303
178 0.002996
185 0.001996
179 0.001994
121 0.002007
50 0.001044
51 0.001995
68 0.003024
84 0.003018
95 0.003022
109 0.001993
117 0.002006
118 0.002005
117 0.002999
117 0.003025
125 0.002008
134 0.002028
150 0.00199
158 0.001986
164 0.002003
169 0.002993
173 0.003025
179 0.001993
184 0.002996
167 0.001994
103 0.003032
57 0.004039
51 0.002026
66 0.001027
89 0.001989
99 0.002021
110 0.000997
116 0.003041
117 0.002987
116 0.001999
119 0.002003
126 0.002002
135 0.003985
145 0.003992
156 0.001985
162 0.00199
170 0.001995
174 0.001998
178 0.002008
182 0.002971
153 0.003989
76 0.000997
54 0.001987
60 0.001989
78 0.004005
94 0.004042
108 0.001992
119 0.001986
124 0.001987
120 0.002004
120 0.002003
125 0.004036
133 0.003985
146 0.000994
155 0.001028
161 0.002961
167 0.005024
172 0.005002
176 0.003004
180 0.002956
184 0.001993
145 0.001993
89 0.002961
64 0.004035
67 0.004027
92 0.001994
110 0.002957
126 0.002992
137 0.004988
138 0.00502
128 0.003
123 0.002
130 0.002001
140 0.002967
149 0.002986
157 0.003999
163 0.005024
168 0.002994
171 0.00295
175 0.002993
180 0.005033
162 0.005021
88 0.002992
61 0.002991
73 0.002982
92 0.002997
109 0.002954
125 0.003007
134 0.004984
133 0.004989
123 0.002992
121 0.002991
125 0.002993
134 0.00502
144 0.004987
156 0.002995
164 0.005022
170 0.002947
173 0.002993
178 0.002996
179 0.004988
132 0.006022
60 0.002995
47 0.003993
57 0.003055
75 0.004987
88 0.005018
101 0.002956
113 0.004999
115 0.003989
113 0.003992
114 0.002994
119 0.005966
128 0.006026
141 0.00396
149 0.003993
156 0.003991
162 0.005975
166 0.006003
172 0.004001
171 0.005024
98 0.002991
55 0.002985
47 0.003993
57 0.005983
73 0.005981
86 0.003988
95 0.003993
106 0.003994
112 0.005992
112 0.006028
111 0.003979
118 0.005979
130 0.002983
139 0.003989
147 0.004005
153 0.005964
158 0.005981
164 0.003993
169 0.003987
171 0.003993
135 0.005991
80 0.006032
54 0.004952
68 0.006985
88 0.004977
97 0.004995
108 0.005019
117 0.006987
119 0.006943
116 0.003989
117 0.003979
122 0.004003
131 0.006009
140 0.006011
151 0.004962
159 0.005984
165 0.004024
169 0.004985
174 0.00503
169 0.007006
122 0.006981
71 0.00498
67 0.004982
81 0.004984
98 0.006988
112 0.006989
130 0.004036
132 0.006981
125 0.006975
120 0.00398
124 0.004987
132 0.004987
141 0.006981
149 0.006976
157 0.00498
161 0.004983
165 0.004991
172 0.00798
166 0.007019
88 0.006986
64 0.00798
71 0.005987
87 0.004945
103 0.004985
122 0.007974
129 0.007978
127 0.004977
121 0.004946
118 0.004977
122 0.006982
133 0.007974
146 0.0069
155 0.007977
159 0.005952
163 0.005937
168 0.005978
153 0.007986
117 0.007947
59 0.00598
53 0.005943
65 0.004988
82 0.007956
88 0.007978
109 0.007981
114 0.007939
114 0.005018
113 0.005996
115 0.005989
122 0.007961
135 0.007974
144 0.005987
151 0.005996
156 0.005984
161 0.007978
166 0.00798
135 0.00798
80 0.006967
54 0.005956
56 0.005968
68 0.005986
80 0.007974
88 0.007959
102 0.005948
112 0.005989
116 0.005982
116 0.007016
118 0.007991
130 0.007013
139 0.006972
148 0.006978
155 0.00698
161 0.005976
167 0.006946
172 0.00697
176 0.005953
153 0.005979
95 0.005987
61 0.007976
60 0.006982
81 0.00698
90 0.006982
100 0.00698
112 0.006981
120 0.006951
120 0.007039
120 0.007014
124 0.006011
135 0.006969
145 0.005987
154 0.006949
161 0.006017
170 0.005987
174 0.00602
179 0.007026
183 0.006975
153 0.006979
96 0.006978
65 0.006977
72 0.006992
88 0.006977
106 0.006969
118 0.005983
130 0.006976
133 0.005961
128 0.006015
128 0.005984
136 0.005956
146 0.005989
155 0.005987
163 0.007032
169 0.007018
174 0.006981
179 0.006978
182 0.006975
186 0.007015
111 0.005987
76 0.006026
72 0.006018
92 0.006014
110 0.005994
127 0.005959
141 0.006018
145 0.006009
137 0.005984
131 0.005994
131 0.006982
139 0.006008
155 0.005984
164 0.00602
170 0.006014
176 0.006025
180 0.005984
186 0.005983
178 0.005986
122 0.00602
65 0.005982
61 0.004989
76 0.004989
94 0.005026
116 0.00495
128 0.00501
132 0.005018
128 0.00499
125 0.005013
128 0.005982
136 0.006029
146 0.006009
158 0.005027
166 0.005987
171 0.005983
176 0.005005
184 0.005023
172 0.005397
110 0.00601
56 0.005984
55 0.006021
70 0.006016
86 0.004976
98 0.00502
113 0.005029
122 0.005021
125 0.00501
123 0.004981
125 0.004978
132 0.00502
141 0.005048
151 0.005021
162 0.004987
169 0.004021
174 0.004022
179 0.004021
183 0.004026
125 0.004989
73 0.004988
57 0.003991
78 0.004964
95 0.00399
107 0.00398
120 0.003989
131 0.004034
130 0.003989
126 0.003983
126 0.003971
131 0.003986
143 0.003989
153 0.00399
161 0.004944
172 0.005036
176 0.004993
181 0.005019
183 0.005028
124 0.005017
79 0.004988
67 0.004005
77 0.004021
97 0.00399
121 0.003991
137 0.004008
144 0.005021
133 0.003978
126 0.00399
127 0.004038
134 0.00403
147 0.005019
155 0.005014
162 0.003026
167 0.004033
171 0.003988
178 0.003991
161 0.004022
103 0.004024
58 0.004014
66 0.003867
84 0.003937
101 0.003991
120 0.003025
128 0.002993
125 0.00296
119 0.002981
117 0.003025
122 0.003025
130 0.003022
140 0.002987
152 0.003032
156 0.003991
161 0.003989
166 0.003988
149 0.003955
91 0.003989
52 0.003989
45 0.003999
56 0.002994
74 0.002992
83 0.003004
93 0.002992
106 0.003023
106 0.003023
105 0.002992
108 0.003028
117 0.002995
126 0.003952
135 0.002986
142 0.001993
148 0.002985
152 0.001995
159 0.002992
134 0.002994
58 0.002993
50 0.003021
60 0.002992
74 0.002992
84 0.002992
99 0.002993
109 0.002006
114 0.002025
113 0.003035
113 0.003013
119 0.002997
127 0.003025
142 0.003023
150 0.003023
156 0.002993
160 0.002996
166 0.002992
161 0.001993
114 0.002027
74 0.001996
66 0.002033
76 0.002033
98 0.002045
110 0.00296
129 0.001993
130 0.002028
125 0.002027
123 0.001995
126 0.002992
136 0.003034
145 0.002033
153 0.002019
159 0.003048
164 0.002027
170 0.001994
175 0.001971
120 0.001994
79 0.001962
69 0.001995
79 0.001996
96 0.001995
115 0.002003
129 0.002036
135 0.00302
131 0.002001
124 0.001992
124 0.002013
131 0.000998
146 0.001002
153 0.001995
159 0.001994
163 0.001988
168 0.001995
166 0.002066
119 0.001994
73 0.001983
59 0.002042
67 0.000993
86 0.000999
96 0.002028
114 0.000997
120 0.000997
119 0.000988
116 0.002033
118 0.002027
127 0.001931
136 0.002028
145 0.001996
152 0.002035
157 0.000998
163 0.000998
167 0.000998
104 0.001033
64 0.001996
54 0.002004
63 0.000997
75 0.002034
86 0.002027
96 0.001996
108 0.001996
115 0.000999
116 0.000998
116 0.001042
120 0.002037
132 0.000998
144 0.000971
151 0.0
157 0.0
163 0.000994
168 0.0
163 0.001008
115 0.0
70 0.000998
57 0.0
64 0.000999
82 0.0
93 0.0
109 0.0
119 0.0
122 0.0
121 0.0
123 0.0
130 0.000997
139 0.001
148 0.0
156 0.000995
163 0.000997
171 0.0
178 0.0
181 0.0
141 0.0
89 0.0
69 0.0
72 0.0
94 0.0
107 0.0
119 0.000999
131 0.0
136 0.0
133 0.003034
132 0.0
139 0.0
148 0.0
158 0.0
166 0.0
173 0.0
180 0.0
184 0.0
189 0.0
190 0.000998
151 0.001
90 0.000998
83 0.000998
102 0.003027
121 0.002992
140 0.000997
156 0.000993
154 0.001008
145 0.002042
139 0.002989
141 0.0
149 0.0
158 0.0
167 0.002028
176 0.0
181 0.002996
185 0.001993
189 0.000997
153 0.0
96 0.0
70 0.002031
71 0.002037
94 0.0
113 0.000982
129 0.000995
142 0.003035
139 0.000956
132 0.003035
130 0.002028
136 0.0
146 0.0
156 0.0
164 0.0
170 0.001994
175 0.00203
182 0.000966
181 0.0
131 0.0
58 0.0
54 0.0
69 0.001995
87 0.002042
103 0.0
116 0.0
124 0.001006
125 0.002958
121 0.002993
121 0.0
127 0.000996
136 0.0
153 0.0
161 0.0
166 0.002026
171 0.002025
176 0.0
134 0.0
75 0.0
49 0.002028
51 0.002029
72 0.0
86 0.001004
95 0.000997
113 0.000977
116 0.0
116 0.002026
115 0.001994
121 0.001007
130 0.0
140 0.000966
149 0.002026
156 0.003005
163 0.002028
170 0.0
163 0.0
73 0.0
50 0.0
52 0.002992
67 0.002026
84 0.0
94 0.0
106 0.0
115 0.003012
117 0.002993
115 0.0
117 0.0
124 0.0
140 0.0
148 0.0
155 0.002032
161 0.002028
170 0.0
163 0.0
112 0.0
69 0.003043
58 0.002962
72 0.0
88 0.0
99 0.0
120 0.0
125 0.0
123 0.001993
121 0.001992
124 0.0
132 0.001995
141 0.000972
150 0.002963
157 0.002992
165 0.002004
170 0.002003
176 0.002994
134 0.0
88 0.002993
71 0.00303
78 0.00303
101 0.001996
117 0.002
133 0.002032
141 0.002995
137 0.002993
129 0.003029
126 0.001991
131 0.001992
147 0.001997
155 0.002998
161 0.002993
165 0.002991
170 0.002994
177 0.002021
154 0.00203
100 0.002041
70 0.004023
68 0.004021
87 0.002019
103 0.001985
127 0.001998
133 0.001989
130 0.002982
124 0.003031
123 0.002994
129 0.001988
139 0.002992
147 0.003002
155 0.004024
160 0.003947
166 0.001992
171 0.001995
147 0.001998
90 0.002
59 0.001992
55 0.00296
67 0.004004
84 0.001995
92 0.001989
103 0.001998
113 0.003985
116 0.00399
114 0.00203
116 0.002026
127 0.002004
137 0.002001
146 0.002013
153 0.004031
158 0.003989
165 0.001993
171 0.001993
164 0.001993
111 0.00399
67 0.004032
55 0.001985
66 0.002012
85 0.003
95 0.001998
107 0.003003
116 0.004022
119 0.004991
118 0.002987
121 0.002008
128 0.001988
137 0.004022
147 0.004035
158 0.003007
164 0.003001
173 0.001996
177 0.002993
182 0.002956
177 0.005001
125 0.005019
69 0.003012
64 0.002991
77 0.002992
94 0.004997
106 0.005039
122 0.002034
129 0.002985
127 0.001994
125 0.002992
128 0.002962
135 0.005035
144 0.005019
157 0.003008
164 0.002955
170 0.002954
175 0.004987
178 0.005021
182 0.00502
187 0.003971
131 0.006017
77 0.002963
72 0.002996
86 0.003006
105 0.005955
123 0.005984
143 0.002994
147 0.003008
141 0.002994
133 0.006019
132 0.005029
140 0.003003
153 0.004986
165 0.003995
171 0.002959
176 0.002989
181 0.005973
184 0.005984
191 0.002991
163 0.003004
98 0.002992
64 0.006
62 0.005973
83 0.001995
106 0.005019
124 0.00399
133 0.00399
133 0.003991
128 0.005981
125 0.005984
131 0.00399
139 0.004004
150 0.003986
159 0.005988
167 0.007018
174 0.002985
179 0.006976
185 0.004012
188 0.003982
146 0.002993
82 0.005985
53 0.005984
59 0.003998
78 0.003992
94 0.003988
104 0.006982
116 0.006018
125 0.004013
124 0.005993
123 0.004032
128 0.003993
136 0.003998
147 0.005984
157 0.006982
167 0.00299
173 0.004986
178 0.003995
183 0.006981
188 0.007013
173 0.004003
89 0.005981
56 0.003989
63 0.003988
83 0.004018
102 0.007011
115 0.006017
131 0.005002
135 0.004976
132 0.004053
128 0.007146
130 0.006968
139 0.004988
153 0.006976
165 0.004032
173 0.005021
179 0.004026
184 0.006995
188 0.00798
193 0.007964
188 0.003984
130 0.005019
79 0.004988
65 0.007979
75 0.006953
112 0.006977
130 0.006973
149 0.004998
150 0.004952
142 0.004988
133 0.007973
133 0.007012
141 0.004975
151 0.005019
161 0.005037
172 0.00797
176 0.007979
183 0.007975
188 0.007977
190 0.004998
143 0.004992
89 0.004972
68 0.00698
74 0.007032
102 0.005931
124 0.00502
146 0.005982
156 0.007976
151 0.007974
130 0.007978
129 0.007978
138 0.004975
149 0.005941
159 0.005983
169 0.007977
173 0.007004
178 0.005976
184 0.005027
173 0.005976
91 0.007019
56 0.006991
63 0.007022
83 0.007576
101 0.005025
116 0.004988
127 0.006006
125 0.006998
118 0.007941
114 0.006966
117 0.005985
125 0.006006
139 0.00698
148 0.007016
155 0.007962
161 0.007954
168 0.00599
143 0.006949
81 0.005987
41 0.007982
45 0.007005
60 0.006951
74 0.00695
83 0.006022
98 0.006973
105 0.006987
104 0.006971
104 0.006981
108 0.005982
117 0.005988
127 0.005983
139 0.006952
146 0.006979
152 0.00698
156 0.006953
143 0.005985
72 0.006977
45 0.007015
52 0.006983
65 0.006982
76 0.006977
82 0.006011
95 0.006982
105 0.006968
106 0.007008
106 0.006965
109 0.006022
119 0.006925
126 0.005991
137 0.006993
148 0.006992
153 0.006937
159 0.00698
126 0.00696
76 0.005985
58 0.006945
57 0.006052
69 0.006031
83 0.006979
92 0.006982
105 0.006022
114 0.00602
116 0.006018
117 0.005985
121 0.006014
132 0.005954
141 0.005983
149 0.005977
155 0.006014
160 0.005986
166 0.005
171 0.005967
167 0.005942
121 0.006016
67 0.005989
71 0.006016
85 0.005977
103 0.005979
114 0.006011
125 0.005896
128 0.006018
124 0.006038
121 0.007012
125 0.005984
133 0.005984
142 0.006021
154 0.005981
159 0.006029
162 0.005018
167 0.005983
173 0.004955
160 0.004939
110 0.00504
75 0.005037
70 0.005932
84 0.004974
100 0.006005
112 0.004983
130 0.005966
128 0.004995
123 0.005038
122 0.004955
127 0.00501
136 0.005986
145 0.005029
152 0.004997
160 0.004988
164 0.00498
168 0.004956
172 0.005986
157 0.005024
99 0.004986
63 0.004987
60 0.004994
73 0.004988
85 0.005042
92 0.00499
102 0.004992
115 0.004944
116 0.004955
115 0.004937
116 0.004977
127 0.00499
137 0.00502
146 0.004023
153 0.004032
161 0.003994
165 0.00499
169 0.003995
174 0.003993
174 0.003991
110 0.004987
67 0.004955
57 0.004987
76 0.004984
87 0.005018
94 0.005019
105 0.004989
119 0.003982
120 0.003991
119 0.003989
121 0.004046
127 0.003991
139 0.004987
148 0.003025
156 0.004004
166 0.003991
171 0.003989
175 0.004985
179 0.005031
184 0.004024
151 0.004959
93 0.003994
66 0.003991
67 0.004041
87 0.003955
101 0.003989
111 0.004031
129 0.003991
132 0.003979
129 0.00399
128 0.002973
134 0.002931
143 0.002993
153 0.00399
162 0.003985
169 0.00296
177 0.00399
181 0.006977
185 0.003985
192 0.004002
196 0.003959
162 0.003963
103 0.00399
72 0.003046
80 0.002989
100 0.00301
119 0.00405
135 0.003047
149 0.003028
147 0.003027
139 0.00402
134 0.003028
140 0.003023
149 0.003991
159 0.003998
170 0.003026
176 0.003019
180 0.003031
184 0.002993
187 0.002993
191 0.002993
159 0.003001
101 0.00203
69 0.00303
82 0.003026
103 0.002993
123 0.003004
145 0.002022
150 0.002962
144 0.001995
134 0.001995
131 0.002039
135 0.002039
147 0.002993
157 0.003014
170 0.002982
176 0.002985
180 0.00302
184 0.003024
190 0.002025
155 0.002991
87 0.001997
54 0.001996
54 0.002064
71 0.003051
95 0.001996
107 0.002044
124 0.003032
126 0.003028
122 0.002029
120 0.003034
122 0.002994
134 0.003025
145 0.00304
155 0.001996
163 0.002027
169 0.003029
175 0.001996
179 0.002031
164 0.002027
97 0.002027
54 0.001997
47 0.001962
60 0.001994
82 0.002989
93 0.002991
104 0.003
114 0.000993
118 0.003028
116 0.00199
116 0.00099
126 0.000992
136 0.001005
146 0.000998
155 0.002079
162 0.002018
169 0.001986
173 0.001996
179 0.002039
169 0.000996
109 0.002991
55 0.002026
53 0.002028
79 0.000982
93 0.001008
103 0.000964
115 0.002041
121 0.002031
120 0.002049
118 0.002022
121 0.003033
128 0.001987
138 0.00304
151 0.001997
158 0.000999
168 0.000998
172 0.000967
177 0.001001
181 0.002024
154 0.002031
79 0.001982
59 0.001996
65 0.002029
83 0.003031
100 0.0
118 0.000939
129 0.000997
128 0.001003
124 0.002031
123 0.000997
129 0.000998
138 0.000979
148 0.000997
159 0.001024
165 0.000998
171 0.001008
175 0.0
179 0.0
185 0.0
153 0.0
82 0.0
65 0.0
73 0.0
94 0.000998
114 0.000998
135 0.001034
143 0.000998
140 0.0
131 0.000999
126 0.0
131 0.0
143 0.0
155 0.0
163 0.0
169 0.0
174 0.0
178 0.0
184 0.000997
172 0.001004
117 0.000999
77 0.0
68 0.0
88 0.0
117 0.0
143 0.0
150 0.0
144 0.0
132 0.0
126 0.0
131 0.0
140 0.0
151 0.00104
161 0.0
169 0.000996
173 0.003023
182 0.0
169 0.002994
108 0.001952
59 0.0
58 0.000973
75 0.001004
95 0.002994
109 0.002995
127 0.0
130 0.0
125 0.000967
119 0.003029
122 0.0
131 0.002031
142 0.002026
154 0.001018
160 0.000973
164 0.0
169 0.002993
172 0.002027
115 0.0
62 0.000966
45 0.0
53 0.002636
77 0.0
86 0.00304
95 0.003031
106 0.000993
108 0.0
107 0.000984
108 0.001993
113 0.002041
125 0.000989
134 0.000989
142 0.0
149 0.003026
157 0.0
159 0.0
123 0.002997
70 0.003024
46 0.0
53 0.0
65 0.0
74 0.003037
82 0.002016
97 0.000997
105 0.000953
106 0.000952
107 0.001
112 0.0
121 0.003034
130 0.003027
140 0.0
146 0.000968
151 0.000962
156 0.003024
159 0.003015
112 0.0
67 0.001
54 0.0
69 0.0
79 0.0
88 0.002025
99 0.002047
111 0.000958
113 0.001
111 0.0
113 0.001985
119 0.001991
131 0.001003
139 0.001001
147 0.0
156 0.000957
160 0.0
164 0.003017
170 0.002987
140 0.0
90 0.0
67 0.0
70 0.001998
85 0.001983
104 0.0
116 0.000991
126 0.000996
126 0.000997
122 0.0
122 0.001997
128 0.002028
140 0.000952
148 0.000969
155 0.001012
161 0.002992
165 0.002992
170 0.0
175 0.0
173 0.0
100 0.0
76 0.000964
76 0.003033
92 0.003027
115 0.0
130 0.0
140 0.0
138 0.00303
131 0.003032
126 0.001002
131 0.0
139 0.00099
154 0.00203
161 0.0
166 0.00295
169 0.004049
175 0.000999
179 0.001002
160 0.0
102 0.003991
68 0.004034
67 0.002994
82 0.002016
97 0.002991
115 0.002996
124 0.002991
125 0.001984
122 0.003048
120 0.003
126 0.003017
134 0.002
145 0.001986
153 0.00399
159 0.003996
166 0.003003
170 0.002999
178 0.002991
159 0.00298
100 0.002029
62 0.005029
56 0.003989
72 0.002992
84 0.002985
91 0.002991
101 0.003989
112 0.004024
118 0.002026
118 0.001993
121 0.00204
129 0.003003
139 0.002999
149 0.004042
156 0.003944
165 0.001998
170 0.003002
174 0.003
179 0.003989
180 0.004039
114 0.003031
69 0.002992
64 0.002984
79 0.002048
93 0.002992
101 0.004026
113 0.003992
125 0.002042
126 0.002036
125 0.001996
126 0.003993
132 0.004987
144 0.002997
154 0.002993
167 0.002002
174 0.002994
178 0.002994
182 0.003989
187 0.004041
190 0.002993
146 0.002989
90 0.00296
69 0.00402
75 0.004986
99 0.001996
115 0.002982
137 0.002997
142 0.00298
139 0.002982
132 0.005038
131 0.005017
139 0.002999
149 0.002975
159 0.002978
168 0.005979
174 0.005029
180 0.002987
183 0.002982
190 0.002992
182 0.002993
128 0.002974
81 0.005046
69 0.004977
86 0.002979
107 0.002029
125 0.003006
141 0.004985
148 0.004987
141 0.002052
133 0.002992
134 0.002993
143 0.002992
153 0.002998
163 0.005985
170 0.005984
176 0.005979
181 0.002992
185 0.002988
190 0.002984
173 0.004984
107 0.004994
57 0.003045
62 0.00498
87 0.002994
102 0.002953
113 0.002998
124 0.005977
127 0.005984
123 0.002996
121 0.002995
124 0.002995
133 0.006019
143 0.007012
156 0.002988
165 0.005018
172 0.002992
177 0.002992
182 0.002992
174 0.005985
115 0.006021
58 0.002993
54 0.00299
69 0.002943
86 0.006017
98 0.005984
113 0.003987
123 0.006027
122 0.003952
120 0.004021
122 0.00397
129 0.005996
139 0.005949
152 0.00395
160 0.002992
167 0.003988
172 0.006015
177 0.006982
179 0.003972
114 0.007021
67 0.003992
66 0.003996
82 0.00399
101 0.007018
115 0.006975
132 0.003985
136 0.003989
132 0.003956
126 0.005984
127 0.006012
136 0.003954
148 0.006006
160 0.004005
166 0.003997
171 0.005002
176 0.006982
181 0.006981
165 0.003988
112 0.003949
79 0.003949
74 0.006949
88 0.006981
115 0.00399
138 0.006982
146 0.004989
139 0.00399
131 0.003989
128 0.006981
132 0.007011
143 0.004974
152 0.005029
160 0.003989
165 0.007007
169 0.006981
175 0.003955
162 0.006982
90 0.003992
65 0.004022
65 0.003988
80 0.004971
97 0.007018
111 0.00698
127 0.004941
128 0.003974
122 0.005027
117 0.007964
118 0.007977
131 0.007947
143 0.007978
150 0.004986
156 0.004992
160 0.004993
167 0.007962
166 0.007017
120 0.004984
70 0.004997
52 0.004984
59 0.007951
68 0.006983
86 0.007981
96 0.007978
107 0.004972
109 0.004992
107 0.004956
107 0.007976
114 0.007976
123 0.004988
133 0.004932
141 0.003989
149 0.008
152 0.007984
163 0.007978
149 0.007968
96 0.003956
60 0.00499
51 0.004988
64 0.007983
77 0.006984
87 0.004988
98 0.00597
107 0.005668
110 0.007965
109 0.007935
110 0.007955
117 0.007979
129 0.005984
138 0.005009
146 0.005016
154 0.006982
159 0.00797
165 0.004987
169 0.005993
146 0.005983
80 0.006981
60 0.006981
72 0.00702
88 0.006982
101 0.005986
113 0.005974
122 0.005977
121 0.006975
118 0.006978
118 0.004979
123 0.005965
131 0.005012
144 0.006983
152 0.006982
162 0.006979
166 0.006973
171 0.005987
177 0.006002
157 0.006004
92 0.00699
72 0.006979
74 0.005984
90 0.005022
109 0.00502
133 0.005991
143 0.007016
134 0.006986
126 0.007028
125 0.006987
130 0.005034
139 0.005945
152 0.006947
159 0.007024
164 0.006013
170 0.005983
175 0.005975
177 0.005987
136 0.006084
69 0.005984
64 0.00602
77 0.005944
102 0.005975
118 0.00599
132 0.006977
135 0.005993
129 0.007018
121 0.005974
121 0.006019
130 0.005963
140 0.005978
156 0.005986
163 0.005985
167 0.006052
171 0.005951
175 0.005948
131 0.005949
75 0.006946
52 0.005936
59 0.005978
75 0.00605
88 0.006002
98 0.006031
115 0.005986
117 0.005984
114 0.005949
115 0.005998
121 0.005976
130 0.005945
140 0.005967
149 0.005976
158 0.005987
164 0.005982
170 0.005988
165 0.005993
77 0.004966
51 0.00501
51 0.006028
69 0.004954
81 0.004987
90 0.004988
103 0.004988
112 0.004987
115 0.005973
114 0.005986
116 0.004985
122 0.006014
138 0.005949
147 0.004988
154 0.005033
162 0.004985
168 0.004978
167 0.00499
122 0.005029
72 0.004975
54 0.005019
64 0.004989
79 0.005003
90 0.005027
110 0.004995
119 0.004957
121 0.006019
119 0.005959
121 0.00499
128 0.004999
137 0.004022
147 0.003989
158 0.004938
164 0.003955
169 0.0049
175 0.004987
151 0.003975
96 0.004987
69 0.004981
70 0.004977
92 0.004987
108 0.004993
122 0.005
135 0.004022
137 0.004008
131 0.004988
128 0.005049
132 0.004988
146 0.004959
155 0.00398
162 0.00399
167 0.005022
174 0.004011
180 0.003957
175 0.003956
128 0.00504
86 0.003991
75 0.004955
89 0.004983
109 0.00499
138 0.004047
148 0.003986
145 0.003989
136 0.004028
131 0.003993
136 0.004028
145 0.002988
155 0.004029
163 0.004037
171 0.003951
176 0.003989
181 0.003955
144 0.004023
88 0.003956
65 0.004024
68 0.003976
89 0.002958
104 0.004056
116 0.002993
127 0.003955
130 0.003958
125 0.003958
123 0.003989
126 0.004065
141 0.003991
151 0.003994
159 0.004016
165 0.003992
172 0.00303
173 0.003995
132 0.003027
81 0.002993
62 0.002994
72 0.002995
89 0.002991
104 0.00296
125 0.003003
130 0.003039
129 0.003029
125 0.003026
127 0.002962
135 0.00399
145 0.003021
154 0.002992
162 0.002992
170 0.003043
176 0.00302
171 0.002994
85 0.003003
63 0.003024
67 0.003013
82 0.003003
103 0.002992
115 0.003034
128 0.00303
132 0.001989
130 0.001995
126 0.002994
130 0.003048
138 0.00197
155 0.001996
162 0.002989
169 0.003029
174 0.003026
174 0.003046
126 0.002982
80 0.003087
67 0.003023
76 0.002993
95 0.00299
116 0.002988
131 0.00299
138 0.003023
134 0.002013
130 0.002048
132 0.002956
139 0.002985
152 0.003026
161 0.003022
168 0.002984
173 0.002027
179 0.002055
179 0.002026
133 0.001993
76 0.003025
78 0.002969
96 0.001994
117 0.003037
135 0.003027
149 0.002027
145 0.002982
136 0.002998
131 0.001988
133 0.002037
144 0.001988
153 0.001954
165 0.003031
171 0.001996
176 0.001033
180 0.001996
145 0.001962
83 0.002954
70 0.00205
79 0.001995
99 0.000962
117 0.000991
139 0.001953
142 0.001959
129 0.002032
125 0.003043
128 0.003002
136 0.00203
146 0.001995
157 0.002054
164 0.002002
168 0.001992
174 0.001995
163 0.002036
90 0.001995
60 0.00199
66 0.002036
82 0.003022
94 0.001013
106 0.002031
117 0.002003
119 0.003024
116 0.001049
115 0.000998
119 0.002032
128 0.002031
140 0.001021
149 0.00203
159 0.002
164 0.002048
168 0.00203
136 0.001995
81 0.000997
53 0.002992
58 0.0
72 0.000998
85 0.002025
94 0.0
110 0.000997
116 0.0
115 0.002034
115 0.000998
121 0.000997
131 0.001004
140 0.001037
149 0.000982
158 0.0
164 0.0
169 0.0
174 0.0
154 0.0
82 0.000996
57 0.000997
70 0.000998
86 0.001
98 0.0
110 0.001001
121 0.0
125 0.0
122 0.0
122 0.0
127 0.0
136 0.0
149 0.0
158 0.0
169 0.000998
173 0.012964
177 0.000998
184 0.0
112 0.0
76 0.0
71 0.0
85 0.0
105 0.0
127 0.0
141 0.0
142 0.0
134 0.0
130 0.0
134 0.0
142 0.0
156 0.0
164 0.00304
172 0.0
177 0.001
181 0.000996
187 0.000998
187 0.003029
108 0.003041
77 0.003025
79 0.000966
92 0.000998
121 0.0
140 0.003038
153 0.001994
150 0.001
139 0.0
133 0.0
136 0.002984
144 0.003989
162 0.002991
170 0.002995
178 0.0
182 0.000959
186 0.0
192 0.002988
168 0.003041
84 0.0
60 0.0
64 0.0
82 0.002992
101 0.00295
125 0.003023
134 0.003043
133 0.000993
127 0.001009
125 0.00102
130 0.003039
140 0.002993
154 0.0
164 0.0
171 0.0
176 0.002975
180 0.002964
189 0.003032
168 0.002995
81 0.0
54 0.001008
56 0.001019
73 0.002027
91 0.002
104 0.002027
121 0.0
128 0.0
128 0.0
125 0.002987
127 0.0
136 0.003032
147 0.003033
160 0.0
169 0.000981
175 0.000974
180 0.003026
185 0.003023
190 0.0
149 0.000962
84 0.0
57 0.003026
70 0.001029
91 0.003029
108 0.002956
127 0.0
136 0.0
135 0.0
130 0.002992
127 0.002974
133 0.0
143 0.0
154 0.0
165 0.002992
178 0.0
183 0.00405
188 0.003021
195 0.000959
184 0.0
121 0.000998
73 0.002998
63 0.002981
82 0.0
106 0.0
126 0.0
143 0.002992
148 0.0
139 0.003031
132 0.003025
135 0.001803
143 0.000952
153 0.001022
163 0.002993
172 0.002995
179 0.0
184 0.0
189 0.0
194 0.002991
129 0.0
80 0.003044
67 0.003002
85 0.0
109 0.0
