66 0.036904
66 0.003991
63 0.004028
69 0.00399
82 0.002959
94 0.003009
105 0.00397
112 0.003944
112 0.00396
103 0.00396
99 0.003983
101 0.003989
111 0.004019
119 0.003986
127 0.003952
136 0.003951
147 0.002984
154 0.003989
160 0.002994
164 0.002991
168 0.003016
171 0.00399
160 0.002992
109 0.002933
71 0.004
71 0.002964
78 0.003959
88 0.002933
102 0.002992
112 0.002993
117 0.002992
115 0.002954
110 0.00305
108 0.002994
111 0.002992
118 0.004031
133 0.002992
142 0.002993
152 0.002993
160 0.002993
170 0.002997
176 0.002992
181 0.002616
184 0.002993
186 0.003993
187 0.003988
171 0.002935
116 0.00295
80 0.002992
80 0.002992
89 0.00299
104 0.002992
123 0.003992
134 0.001991
141 0.003987
139 0.001995
133 0.002992
132 0.00202
137 0.001992
145 0.00196
160 0.001961
169 0.002993
176 0.003004
183 0.001963
188 0.002957
191 0.002037
192 0.002992
195 0.002023
197 0.001995
200 0.002999
190 0.001995
136 0.002998
92 0.002991
93 0.002999
103 0.001995
115 0.002993
131 0.002994
156 0.002044
170 0.001996
173 0.001995
169 0.001995
165 0.001995
165 0.001995
167 0.001995
172 0.001947
174 0.002004
175 0.001954
180 0.00296
185 0.002007
190 0.001994
192 0.002991
195 0.00199
198 0.001939
200 0.000997
190 0.002964
135 0.002994
92 0.002032
96 0.001963
105 0.001952
117 0.001993
129 0.002024
142 0.001995
148 0.001995
149 0.001995
148 0.001
145 0.000999
147 0.002047
152 0.000997
160 0.001998
164 0.002029
167 0.002053
169 0.001995
171 0.002022
174 0.001995
176 0.002042
178 0.001995
179 0.002042
178 0.002053
169 0.002042
114 0.001995
57 0.001043
54 0.001069
60 0.000998
70 0.001043
79 0.000998
91 0.001994
95 0.001996
91 0.001995
83 0.001995
78 0.001962
78 0.001963
83 0.000996
101 0.001015
111 0.000997
120 0.000998
128 0.000944
135 0.000997
143 0.000978
146 0.000998
149 0.001994
151 0.001995
154 0.001003
156 0.001952
150 0.001996
71 0.000999
52 0.000996
52 0.000993
59 0.00097
70 0.000998
86 0.000989
96 0.000999
102 0.000998
99 0.000998
92 0.0
88 0.000998
91 0.0
103 0.00099
111 0.000997
119 0.000976
125 0.000976
131 0.000996
136 0.000999
138 0.000997
142 0.000998
145 0.0
148 0.000969
137 0.000969
89 0.0
52 0.000998
53 0.000969
61 0.000972
72 0.000994
84 0.000998
100 0.001027
107 0.000997
105 0.001028
98 0.0
95 0.0
99 0.0
107 0.0
122 0.0
132 0.0
140 0.0
146 0.000997
151 0.0
155 0.000998
159 0.000998
162 0.0
163 0.0
142 0.0
90 0.0
62 0.0
62 0.0
74 0.0
85 0.0
96 0.0
105 0.0
106 0.0
101 0.000994
96 0.0
96 0.0
100 0.0
107 0.0
117 0.0
129 0.0
138 0.0
144 0.0
150 0.0
153 0.0
157 0.0
161 0.000998
164 0.0
153 0.0
104 0.0
75 0.0
68 0.0
76 0.0
89 0.0
100 0.0
109 0.0
112 0.0
107 0.0
106 0.000998
114 0.000998
130 0.0
139 0.0
148 0.0
156 0.000998
166 0.0
169 0.000998
171 0.000998
173 0.0
175 0.0
177 0.0
178 0.0
176 0.000998
145 0.0
98 0.000966
76 0.0
76 0.000998
88 0.0
97 0.000997
106 0.000997
112 0.0
107 0.0
99 0.0
95 0.000997
97 0.000998
103 0.0
113 0.0
122 0.0
130 0.0
141 0.0
147 0.000956
150 0.000999
154 0.0
157 0.0
161 0.000998
161 0.000998
125 0.001954
83 0.001032
70 0.000998
71 0.000998
82 0.001986
97 0.000997
112 0.000998
119 0.001011
119 0.001007
111 0.00103
107 0.0
108 0.000999
114 0.002057
129 0.0
139 0.000939
149 0.001
157 0.000998
167 0.000998
172 0.002055
175 0.000958
179 0.000998
182 0.000998
184 0.001005
183 0.001005
152 0.000997
99 0.000996
78 0.000989
78 0.0
87 0.000997
105 0.0
115 0.001995
123 0.002005
122 0.00099
115 0.000987
112 0.001035
113 0.002039
119 0.001
127 0.001995
139 0.000997
145 0.000998
154 0.000944
164 0.001995
168 0.001009
172 0.001994
175 0.001995
180 0.000946
182 0.000955
184 0.000997
178 0.001995
131 0.001995
84 0.000997
79 0.001006
84 0.000997
101 0.000991
113 0.000997
123 0.002024
128 0.001997
124 0.00206
116 0.001995
110 0.00101
113 0.001994
120 0.001995
132 0.001062
141 0.001065
149 0.00101
158 0.001056
163 0.000997
165 0.002032
168 0.001995
169 0.002086
171 0.001995
171 0.001996
128 0.001996
85 0.001995
70 0.000954
74 0.001071
82 0.001
99 0.001996
109 0.002069
115 0.002992
113 0.003049
104 0.001997
102 0.001995
103 0.002049
110 0.001995
118 0.002005
128 0.001004
135 0.000997
141 0.001056
149 0.002073
153 0.000982
156 0.002961
159 0.002992
162 0.002031
155 0.002049
112 0.00202
76 0.002977
66 0.00296
68 0.002042
76 0.001949
84 0.002016
98 0.002015
102 0.002043
102 0.002993
99 0.002992
98 0.002058
100 0.002047
106 0.001994
115 0.003024
123 0.002959
132 0.001992
139 0.00205
145 0.00204
152 0.002027
155 0.002027
158 0.003018
161 0.003992
164 0.003025
138 0.00203
94 0.003022
75 0.00399
73 0.004022
81 0.002048
90 0.003051
99 0.002034
110 0.00307
113 0.002995
111 0.002994
108 0.002992
110 0.001994
116 0.002038
123 0.002001
132 0.003029
141 0.00399
151 0.002995
157 0.003014
161 0.003019
169 0.003038
172 0.003043
176 0.002992
178 0.002939
180 0.001989
162 0.00206
112 0.002049
85 0.002993
79 0.003001
86 0.002034
96 0.002036
105 0.003042
121 0.003028
121 0.00295
115 0.002969
110 0.004017
109 0.004039
113 0.00401
119 0.003051
127 0.004023
138 0.002992
145 0.002992
153 0.003045
158 0.002995
164 0.002995
168 0.00305
171 0.003037
174 0.003989
175 0.004044
133 0.003006
92 0.002993
79 0.003078
79 0.004038
86 0.005036
101 0.004042
112 0.003032
125 0.004044
125 0.004023
122 0.003989
116 0.004043
116 0.00399
121 0.002982
128 0.003044
135 0.003042
142 0.004023
149 0.003989
156 0.003038
161 0.003037
166 0.003064
169 0.003013
171 0.003049
173 0.003989
175 0.005034
164 0.004027
100 0.004029
78 0.003989
75 0.004026
80 0.003979
88 0.003987
99 0.00396
118 0.003016
122 0.003006
120 0.003976
118 0.00503
118 0.00503
123 0.003991
130 0.004044
139 0.003977
148 0.004964
155 0.004987
164 0.004045
167 0.004039
174 0.004043
178 0.003013
180 0.00303
182 0.005026
184 0.00499
185 0.00403
182 0.003995
144 0.004035
104 0.005018
93 0.005019
99 0.004039
110 0.004031
125 0.00399
138 0.005012
148 0.005016
146 0.004007
136 0.004027
128 0.005041
125 0.004017
128 0.005042
138 0.004989
146 0.004985
156 0.004039
162 0.004017
171 0.003984
177 0.004013
182 0.004971
186 0.00502
189 0.005992
192 0.004981
183 0.004024
136 0.003999
94 0.004997
81 0.004989
85 0.003938
95 0.004034
114 0.004038
125 0.003989
132 0.004997
131 0.004987
125 0.005025
119 0.005024
120 0.005079
125 0.004973
133 0.006018
141 0.006035
148 0.005014
155 0.003983
161 0.00502
163 0.005051
166 0.004003
170 0.00602
173 0.005032
178 0.005032
168 0.004031
118 0.005009
82 0.006023
72 0.006034
74 0.005946
86 0.004981
102 0.005984
116 0.005013
123 0.004953
122 0.005013
116 0.005984
113 0.005984
116 0.004032
124 0.004033
133 0.003985
142 0.004987
149 0.004998
156 0.004982
162 0.006013
166 0.003988
168 0.005022
171 0.005021
172 0.006019
174 0.004977
173 0.005022
143 0.005017
108 0.005051
71 0.004978
69 0.004987
75 0.006028
95 0.006018
108 0.00601
122 0.005004
125 0.00498
122 0.006009
117 0.005984
117 0.005016
122 0.00496
129 0.006026
138 0.006015
146 0.007022
153 0.005985
160 0.005986
163 0.006003
165 0.006012
167 0.005011
168 0.005989
169 0.006065
169 0.005984
147 0.005016
97 0.005014
71 0.005993
66 0.006983
76 0.006019
92 0.006986
101 0.006011
113 0.005026
118 0.005017
115 0.006066
110 0.006014
108 0.006047
114 0.00501
123 0.005021
132 0.006016
140 0.006014
149 0.00605
154 0.006981
158 0.006017
160 0.006022
161 0.006019
163 0.007014
164 0.007028
139 0.005014
91 0.005034
68 0.006005
65 0.006018
72 0.005987
85 0.006031
98 0.007017
109 0.006036
112 0.006015
108 0.006981
101 0.006998
99 0.006979
103 0.006
110 0.005982
119 0.006024
127 0.006982
134 0.007948
142 0.005955
147 0.007007
149 0.006003
151 0.005986
153 0.005982
157 0.007981
158 0.00702
120 0.005951
76 0.005971
60 0.007044
59 0.007947
67 0.007943
82 0.007014
98 0.006981
109 0.007007
112 0.00704
108 0.007033
101 0.00702
101 0.006979
106 0.006981
116 0.005964
124 0.005982
136 0.005993
153 0.007974
163 0.007979
182 0.00798
187 0.007979
190 0.007016
190 0.007036
189 0.007053
184 0.007045
154 0.006959
100 0.007024
69 0.005982
67 0.006974
72 0.007946
80 0.007946
97 0.007979
104 0.007944
101 0.007011
97 0.007034
97 0.007036
104 0.007941
118 0.007944
136 0.006979
144 0.007979
156 0.006925
164 0.007947
170 0.007946
177 0.00798
180 0.00798
182 0.006934
179 0.007061
127 0.006977
89 0.007979
80 0.007948
79 0.006941
87 0.006969
99 0.006971
110 0.006981
116 0.007923
121 0.007979
116 0.007978
112 0.007039
114 0.00695
119 0.006963
127 0.007979
135 0.007931
148 0.007017
155 0.007016
161 0.007018
165 0.007016
168 0.007014
172 0.007016
174 0.007992
175 0.007012
147 0.006943
99 0.00695
78 0.007953
75 0.007048
84 0.007027
92 0.007013
100 0.00701
108 0.006982
111 0.007011
106 0.007027
104 0.007005
108 0.006063
112 0.006999
119 0.007997
127 0.007988
133 0.007948
148 0.007029
155 0.006981
161 0.007014
166 0.007014
171 0.007189
177 0.007031
180 0.00703
182 0.007012
156 0.006018
105 0.006023
82 0.007014
78 0.006981
85 0.007016
93 0.007031
102 0.007015
112 0.007015
118 0.007001
115 0.007013
113 0.006015
114 0.006025
117 0.006014
123 0.006016
131 0.007011
138 0.007016
146 0.006032
152 0.006035
157 0.005968
160 0.007027
163 0.007033
166 0.007009
168 0.007012
171 0.007015
168 0.006979
127 0.007027
84 0.007014
70 0.007015
69 0.007032
76 0.005979
85 0.00602
94 0.00602
101 0.005987
100 0.006021
94 0.005987
92 0.006017
96 0.00703
102 0.007013
112 0.006972
123 0.007018
134 0.006923
146 0.007018
152 0.007043
158 0.007013
163 0.007017
169 0.005986
172 0.006031
174 0.006029
177 0.006032
160 0.00603
106 0.005987
78 0.006017
71 0.005984
75 0.006015
83 0.006013
91 0.00502
100 0.007037
108 0.006032
106 0.006022
103 0.006017
103 0.006018
107 0.006017
113 0.005983
120 0.005984
128 0.005953
139 0.005984
146 0.006018
152 0.005987
158 0.005985
165 0.004998
168 0.006008
171 0.006025
175 0.006028
179 0.005991
178 0.005984
141 0.006016
92 0.006014
74 0.005988
76 0.006019
83 0.006032
93 0.006033
110 0.005039
118 0.005003
120 0.005025
116 0.006037
113 0.00602
115 0.005984
119 0.006029
126 0.006014
139 0.006032
148 0.005034
156 0.005019
164 0.004971
173 0.004969
178 0.004953
181 0.006023
185 0.005028
188 0.005044
190 0.005032
191 0.005019
186 0.006026
118 0.006028
85 0.004989
77 0.005988
81 0.006028
97 0.004989
109 0.005924
118 0.004992
124 0.005019
120 0.005035
113 0.005035
108 0.004986
109 0.005017
117 0.004965
124 0.004987
132 0.00502
139 0.005017
152 0.005045
159 0.003998
163 0.004988
168 0.006029
170 0.005018
172 0.00504
172 0.004985
145 0.004975
80 0.005017
65 0.005017
65 0.004982
73 0.004973
92 0.004992
104 0.003989
115 0.005024
120 0.004044
115 0.004963
110 0.00497
108 0.004036
112 0.004027
121 0.004033
130 0.004009
139 0.004022
147 0.00504
158 0.005011
162 0.005045
166 0.003991
170 0.004994
172 0.00502
174 0.005034
166 0.005015
114 0.004989
75 0.004023
64 0.003955
69 0.00403
78 0.00402
97 0.004032
108 0.003989
115 0.004988
115 0.003965
108 0.005046
105 0.005021
108 0.005003
114 0.004988
122 0.004987
133 0.004032
142 0.00402
150 0.00403
161 0.003956
166 0.004038
170 0.003989
174 0.003989
178 0.003984
179 0.003989
166 0.00399
111 0.003992
76 0.003989
67 0.004023
72 0.003992
83 0.00399
103 0.003025
115 0.00405
120 0.002956
117 0.00399
110 0.003026
109 0.004028
113 0.004011
120 0.003967
130 0.003989
142 0.004074
150 0.00399
158 0.004024
169 0.00399
173 0.003978
176 0.003991
179 0.003989
181 0.003956
179 0.00302
148 0.004024
97 0.004068
76 0.003962
75 0.002972
84 0.002983
94 0.003941
113 0.003991
121 0.003989
122 0.004037
115 0.003991
107 0.003992
107 0.002987
112 0.003957
120 0.004008
129 0.003991
141 0.00399
149 0.00399
156 0.003006
164 0.003921
167 0.00398
169 0.004024
171 0.004014
161 0.00393
110 0.003012
75 0.003997
65 0.003945
68 0.003991
82 0.003954
93 0.003948
105 0.00396
118 0.002992
117 0.002995
112 0.003024
108 0.002994
110 0.003037
117 0.002992
124 0.002993
133 0.002994
141 0.002993
151 0.003007
157 0.002993
162 0.002993
167 0.003016
169 0.002994
171 0.003024
172 0.003033
147 0.002992
92 0.002991
68 0.002992
63 0.002993
68 0.003028
80 0.003026
90 0.003997
99 0.002973
105 0.002043
101 0.002036
96 0.002994
95 0.003006
100 0.002961
107 0.002982
115 0.00296
123 0.002961
132 0.002992
142 0.003003
148 0.002993
154 0.002992
161 0.003035
166 0.002026
170 0.002029
174 0.003028
175 0.001995
132 0.001995
87 0.001994
71 0.003049
69 0.001995
75 0.001995
88 0.001995
98 0.001995
112 0.002031
113 0.003033
110 0.003041
107 0.001994
110 0.002992
117 0.001995
125 0.00202
133 0.002026
141 0.001995
150 0.001995
160 0.002992
166 0.001916
172 0.001995
174 0.002048
177 0.001995
179 0.002027
180 0.001969
177 0.002042
145 0.001995
94 0.002034
73 0.001987
71 0.002028
80 0.001953
90 0.000996
108 0.002063
116 0.002053
117 0.001997
111 0.001996
106 0.001995
107 0.002032
112 0.001996
119 0.001996
128 0.001995
136 0.001995
146 0.001993
152 0.002039
159 0.001002
162 0.000998
164 0.000998
167 0.000998
168 0.000997
160 0.002026
113 0.001995
77 0.002009
67 0.001938
69 0.00203
80 0.001995
91 0.001996
109 0.000999
116 0.001995
115 0.00103
109 0.000999
106 0.000997
108 0.000998
114 0.000997
121 0.000997
130 0.002053
138 0.001996
148 0.000997
154 0.001994
161 0.000998
164 0.000941
167 0.000999
170 0.001004
172 0.000997
163 0.000998
114 0.000997
78 0.000997
69 0.001001
70 0.000983
81 0.000997
92 0.001996
109 0.001958
114 0.000997
113 0.001998
109 0.002012
107 0.000937
111 0.000997
117 0.000998
126 0.000997
135 0.000956
143 0.000998
154 0.000998
160 0.000997
167 0.000998
171 0.000997
174 0.000998
176 0.000985
178 0.000997
175 0.001996
134 0.000998
89 0.001013
74 0.000998
75 0.000998
86 0.001007
98 0.001006
116 0.002015
123 0.000998
123 0.000998
118 0.000997
114 0.000998
117 0.000993
122 0.000997
129 0.0
136 0.0
143 0.0
149 0.0
157 0.0
163 0.0
166 0.0
168 0.001002
169 0.000997
170 0.0
164 0.000998
103 0.000995
74 0.0
68 0.0
72 0.000998
81 0.0
96 0.0
110 0.0
117 0.0
112 0.0
106 0.0
104 0.0
107 0.001002
115 0.001006
124 0.000997
132 0.000997
141 0.0
148 0.0
155 0.0
160 0.0
164 0.0
166 0.0
168 0.0
169 0.0
157 0.0
91 0.0
69 0.0
71 0.0
81 0.000997
94 0.000998
111 0.0
124 0.0
128 0.0
125 0.0
120 0.0
120 0.0
122 0.0
129 0.0
136 0.0
144 0.0
151 0.0
158 0.0
165 0.000997
172 0.000988
177 0.001006
180 0.000997
184 0.0
187 0.0
180 0.0
114 0.0
87 0.001044
80 0.0
86 0.0
91 0.0
103 0.001038
118 0.0
119 0.0
113 0.001028
106 0.0
105 0.0
108 0.0
113 0.000999
120 0.001005
127 0.001
138 0.0
144 0.0
150 0.000997
156 0.0
159 0.000955
162 0.001007
165 0.000997
168 0.0
145 0.0
96 0.001013
72 0.001027
67 0.000997
75 0.0
85 0.0
95 0.00103
109 0.0
110 0.000999
104 0.000999
98 0.0
99 0.0
104 0.0
111 0.000998
119 0.002004
130 0.0
137 0.0
143 0.0
148 0.001054
155 0.0
157 0.001037
160 0.001015
161 0.0
133 0.0
86 0.0
67 0.001002
64 0.001024
71 0.0
80 0.000997
89 0.0
98 0.001033
103 0.0
101 0.0
98 0.000999
99 0.001996
104 0.000998
110 0.001015
118 0.000998
126 0.001995
134 0.001995
143 0.0
149 0.001996
153 0.001052
158 0.000986
161 0.001027
164 0.001041
166 0.000991
125 0.001064
85 0.000949
71 0.000974
70 0.001994
76 0.002025
91 0.002038
101 0.000928
110 0.001024
117 0.000996
115 0.00104
113 0.001995
115 0.002001
122 0.000996
130 0.00101
138 0.000997
146 0.002072
154 0.002027
163 0.001073
169 0.001023
174 0.0
184 0.001929
191 0.001058
197 0.002001
202 0.002044
198 0.001002
151 0.000981
113 0.001011
101 0.002042
103 0.002028
114 0.000998
124 0.000988
134 0.000997
143 0.000997
140 0.001047
134 0.002066
130 0.002966
131 0.000997
136 0.000997
142 0.00101
149 0.003039
155 0.002992
161 0.00099
166 0.000997
169 0.001938
172 0.000958
174 0.001967
177 0.002003
180 0.002029
147 0.001998
117 0.000948
110 0.001995
108 0.00299
111 0.002988
117 0.000996
119 0.002044
120 0.001026
118 0.000998
117 0.000968
113 0.001994
111 0.002011
109 0.000996
106 0.002005
103 0.001996
103 0.002991
102 0.002992
101 0.001997
100 0.002009
100 0.001983
104 0.000973
114 0.000998
127 0.002961
111 0.002992
83 0.001032
74 0.001005
77 0.00099
84 0.001995
90 0.002992
102 0.001994
108 0.002036
109 0.001957
107 0.001995
105 0.002041
106 0.002992
109 0.002983
115 0.002052
121 0.002046
126 0.002022
130 0.003037
136 0.003031
143 0.001994
146 0.002013
148 0.002027
153 0.002016
149 0.002022
125 0.00307
99 0.002992
81 0.003024
80 0.002044
86 0.002972
93 0.003018
101 0.003989
110 0.002001
112 0.001988
111 0.001994
109 0.001995
110 0.002043
114 0.002036
118 0.003032
123 0.00294
130 0.002011
134 0.002011
138 0.002028
142 0.002991
144 0.003039
148 0.001983
150 0.002014
127 0.003026
105 0.003028
89 0.00301
83 0.00396
83 0.003989
89 0.00201
99 0.001984
109 0.002014
112 0.003023
112 0.003022
111 0.001993
113 0.003022
118 0.003038
120 0.002971
119 0.00304
117 0.00399
119 0.004065
123 0.003004
125 0.002059
128 0.001968
128 0.002992
127 0.002992
103 0.002997
83 0.002972
128 0.003025
128 0.003055
128 0.003042
128 0.003989
128 0.004021
128 0.003041
128 0.003021
128 0.003038
128 0.004061
128 0.004013
128 0.003023
128 0.003992
128 0.002995
128 0.00304
128 0.002992
132 0.004984
137 0.004037
142 0.00299
144 0.001994
146 0.001993
142 0.00399
119 0.003963
87 0.002948
75 0.003054
75 0.002979
84 0.003012
93 0.003039
97 0.004019
98 0.003955
95 0.002962
94 0.003026
94 0.002988
98 0.004002
105 0.003983
119 0.003024
129 0.004003
142 0.003982
147 0.004042
149 0.004007
149 0.005034
149 0.004986
150 0.003025
153 0.003022
153 0.002977
135 0.004021
111 0.004986
93 0.00399
92 0.003945
104 0.004039
113 0.003988
119 0.003987
123 0.005065
123 0.005018
124 0.002973
124 0.002962
125 0.003032
129 0.00402
134 0.005014
140 0.002992
146 0.004001
156 0.003016
161 0.00399
163 0.004039
166 0.005035
169 0.005032
169 0.004019
152 0.004039
128 0.004036
110 0.005034
104 0.006042
107 0.004008
113 0.004003
125 0.003975
132 0.00399
135 0.004004
133 0.003997
127 0.005023
124 0.005019
127 0.002987
130 0.003986
134 0.004013
139 0.006038
144 0.005986
151 0.003979
156 0.00497
157 0.004013
158 0.004011
158 0.003989
159 0.004989
161 0.004956
104 0.003989
77 0.004998
63 0.004982
62 0.006016
69 0.006024
83 0.004995
97 0.006031
101 0.004006
97 0.004007
91 0.003987
89 0.005019
92 0.005019
98 0.005015
105 0.004987
113 0.005033
123 0.006009
131 0.005985
141 0.005052
149 0.006005
154 0.003953
156 0.003988
159 0.003929
163 0.005021
144 0.005021
88 0.004989
64 0.005017
54 0.004989
53 0.006016
59 0.005986
77 0.005027
94 0.005956
96 0.004966
88 0.00398
81 0.003989
78 0.006017
83 0.007009
92 0.004987
99 0.004982
107 0.005003
116 0.006026
125 0.006022
134 0.004965
136 0.006016
134 0.003992
135 0.003986
141 0.004942
132 0.006013
85 0.007022
48 0.004987
40 0.004988
44 0.005007
53 0.005986
64 0.005996
82 0.004983
98 0.005983
96 0.005008
113 0.005002
162 0.00499
191 0.007
201 0.007
201 0.006013
197 0.004981
199 0.004968
201 0.00699
199 0.007033
194 0.005969
189 0.00699
182 0.005024
181 0.004981
161 0.005989
107 0.006991
70 0.006977
48 0.006017
50 0.005974
60 0.006028
73 0.006992
87 0.006981
99 0.005031
100 0.006023
98 0.005013
99 0.004982
103 0.00598
110 0.00699
120 0.006978
136 0.005973
145 0.006017
153 0.005997
160 0.005968
165 0.007036
171 0.006011
174 0.006919
178 0.006073
176 0.005924
144 0.005984
95 0.00699
63 0.00698
48 0.005986
54 0.005996
68 0.006002
83 0.006997
98 0.006981
107 0.006056
98 0.006986
93 0.005009
93 0.005986
99 0.005984
110 0.007969
116 0.006926
127 0.006008
134 0.005977
142 0.005996
147 0.006007
150 0.007002
154 0.007982
161 0.007945
165 0.007938
134 0.007007
89 0.007014
61 0.006988
53 0.007963
57 0.007939
75 0.005975
92 0.005979
112 0.006948
132 0.006982
163 0.007899
188 0.007059
203 0.006986
215 0.007026
224 0.006977
235 0.007034
245 0.007947
254 0.007941
254 0.00697
254 0.006004
254 0.007024
254 0.007979
254 0.007026
254 0.006949
254 0.007022
182 0.006991
138 0.006948
118 0.00698
118 0.007944
130 0.007948
148 0.006967
162 0.007018
170 0.007008
167 0.007023
159 0.007036
153 0.006982
157 0.007016
163 0.006993
170 0.007019
176 0.007012
180 0.007978
185 0.007947
190 0.006977
194 0.006938
199 0.006988
202 0.007979
205 0.007015
194 0.007953
120 0.007013
69 0.006953
43 0.006987
47 0.006953
60 0.007936
75 0.007937
91 0.006967
101 0.007007
105 0.006991
98 0.007027
94 0.007028
96 0.006995
103 0.007012
112 0.006976
126 0.006961
133 0.006966
146 0.007984
155 0.008014
160 0.007006
163 0.007008
163 0.00694
163 0.007952
163 0.007017
131 0.00794
58 0.00702
25 0.006983
16 0.006954
27 0.007023
43 0.00702
60 0.007015
79 0.006971
83 0.006915
80 0.006982
77 0.006984
77 0.006038
86 0.007944
99 0.007037
114 0.007013
123 0.007022
132 0.006984
139 0.007013
143 0.007015
146 0.006946
151 0.007013
159 0.006952
161 0.006056
130 0.006013
64 0.005984
49 0.006032
55 0.006056
67 0.005967
83 0.006012
99 0.006018
112 0.006017
115 0.007016
109 0.006965
105 0.007008
107 0.007012
119 0.007013
152 0.007012
166 0.005973
175 0.006983
187 0.005983
207 0.006018
226 0.006015
236 0.006005
242 0.005985
252 0.006015
246 0.006042
197 0.005974
142 0.005984
101 0.006981
103 0.007016
115 0.007047
133 0.007068
146 0.006975
155 0.006986
157 0.00702
153 0.006944
149 0.005997
150 0.006034
155 0.006044
162 0.006034
178 0.006018
187 0.00603
195 0.006036
204 0.006018
208 0.006025
211 0.00602
214 0.006014
217 0.006032
223 0.006026
222 0.006022
182 0.006044
122 0.00602
70 0.005984
69 0.006013
82 0.006015
101 0.006016
115 0.006015
128 0.006018
133 0.006018
132 0.006019
127 0.004962
128 0.005016
132 0.005008
141 0.004988
159 0.006011
171 0.006022
185 0.006027
201 0.006019
206 0.005952
210 0.006011
213 0.006017
217 0.006017
220 0.004992
225 0.004988
229 0.005025
220 0.005035
123 0.005061
85 0.005019
73 0.004972
84 0.006066
100 0.006011
118 0.006077
133 0.005993
142 0.006034
139 0.00502
132 0.004988
127 0.004989
128 0.005027
140 0.005025
150 0.005019
162 0.00502
175 0.00602
185 0.006051
192 0.006033
196 0.006012
199 0.006081
204 0.004998
207 0.004987
214 0.004982
211 0.005035
119 0.00503
77 0.005035
58 0.00502
65 0.004977
81 0.005027
100 0.005024
120 0.005033
135 0.004988
135 0.005045
127 0.005046
122 0.005028
122 0.005039
136 0.005026
149 0.005036
164 0.00502
183 0.005039
195 0.005021
204 0.005021
211 0.005022
217 0.005003
222 0.004054
225 0.00502
174 0.003991
234 0.005001
181 0.005032
108 0.004987
64 0.005035
46 0.005027
54 0.005058
71 0.003996
89 0.00503
108 0.004039
121 0.003989
121 0.005038
114 0.005037
106 0.004031
88 0.004027
92 0.003986
108 0.005021
123 0.004025
134 0.004023
137 0.004028
144 0.005036
150 0.004029
154 0.005031
141 0.004051
111 0.004048
86 0.004035
81 0.003994
77 0.003937
19 0.003991
0 0.004034
0 0.003991
0 0.003993
0 0.003991
0 0.003992
0 0.004039
3 0.004952
25 0.003995
30 0.003992
28 0.004956
33 0.004989
47 0.003956
66 0.003949
97 0.003948
120 0.004024
141 0.004024
161 0.003991
180 0.003989
218 0.003999
254 0.003989
254 0.00399
254 0.003997
254 0.002992
254 0.002994
254 0.003039
254 0.002993
218 0.002993
107 0.003942
78 0.004032
99 0.004024
170 0.003023
217 0.004012
189 0.004015
205 0.003989
205 0.003932
197 0.004007
185 0.004022
177 0.003989
178 0.003991
183 0.004023
191 0.003028
198 0.003957
205 0.002994
208 0.002995
208 0.003023
208 0.003943
208 0.003988
210 0.003991
211 0.00399
204 0.003995
148 0.002992
94 0.004027
76 0.003992
74 0.002994
88 0.003027
104 0.003026
118 0.003025
135 0.002968
135 0.002994
127 0.004018
119 0.002992
120 0.002993
127 0.003989
136 0.003039
145 0.002995
155 0.003
167 0.002993
174 0.002993
180 0.003028
189 0.002992
193 0.002992
196 0.003003
199 0.001995
189 0.002992
129 0.002993
77 0.003024
63 0.002973
66 0.00299
81 0.001962
94 0.002993
108 0.001997
122 0.003958
120 0.002993
113 0.002958
108 0.002994
109 0.002994
115 0.002996
122 0.003035
131 0.003027
140 0.003049
148 0.001994
157 0.002977
162 0.002047
168 0.002993
171 0.001994
174 0.00204
176 0.001995
179 0.002993
149 0.002993
87 0.002993
58 0.00302
54 0.003023
62 0.003027
79 0.002194
93 0.002043
113 0.001995
116 0.002066
113 0.002032
108 0.001995
107 0.001995
112 0.001995
119 0.002034
128 0.001996
137 0.003035
146 0.001992
156 0.001996
162 0.002013
171 0.001994
175 0.001995
179 0.001995
182 0.002028
186 0.002026
186 0.002025
156 0.002039
95 0.002
66 0.001997
62 0.001029
73 0.00103
86 0.001995
107 0.001995
117 0.001995
117 0.001995
108 0.002007
101 0.002008
102 0.001996
108 0.002051
116 0.001002
125 0.001995
133 0.001
142 0.002006
148 0.001993
156 0.00202
160 0.002004
163 0.001995
166 0.002026
169 0.001996
158 0.002025
105 0.001066
65 0.001051
54 0.001028
59 0.001039
74 0.002054
87 0.00209
108 0.001995
112 0.002003
109 0.002026
103 0.001995
101 0.001988
105 0.001995
112 0.001054
120 0.000999
129 0.000999
138 0.001996
147 0.002066
154 0.002031
162 0.002
165 0.001995
168 0.001995
172 0.001995
174 0.000997
132 0.000999
79 0.000998
60 0.002056
59 0.000998
66 0.001996
80 0.000997
91 0.002018
105 0.000998
106 0.000996
102 0.000997
99 0.000997
100 0.001977
108 0.001987
117 0.001052
126 0.00099
134 0.000998
142 0.000997
150 0.000997
155 0.001032
162 0.000997
165 0.000997
168 0.000968
172 0.000963
177 0.002037
173 0.001995
126 0.0
81 0.001038
67 0.0
69 0.000998
81 0.001996
92 0.002042
108 0.000998
114 0.000997
114 0.000997
111 0.000998
108 0.002042
108 0.000997
115 0.0
122 0.0
131 0.0
139 0.0
148 0.0
158 0.001042
166 0.000997
172 0.000998
175 0.000998
177 0.000997
180 0.001009
184 0.000999
190 0.0
185 0.0
136 0.0
88 0.0
74 0.0
78 0.000997
93 0.0
109 0.0
120 0.0
125 0.001022
121 0.000997
114 0.0
110 0.0
113 0.0
120 0.0
129 0.001018
137 0.0
148 0.0
158 0.0
166 0.0
170 0.0
173 0.0
176 0.0
177 0.000997
176 0.0
172 0.0
133 0.0
80 0.0
60 0.0
64 0.0
81 0.0
100 0.0
112 0.0
121 0.0
123 0.0
119 0.0
112 0.0
113 0.001002
119 0.000998
130 0.0
136 0.000997
148 0.0
158 0.0
166 0.0
171 0.0
174 0.0
177 0.0
179 0.000999
181 0.001995
182 0.000999
172 0.0
116 0.0
80 0.001012
56 0.002046
66 0.0
78 0.00204
91 0.002047
108 0.0
116 0.000936
119 0.0
115 0.001032
112 0.001033
114 0.0
121 0.0
129 0.000951
139 0.002009
153 0.000963
164 0.001007
171 0.000992
176 0.000964
181 0.0
183 0.000998
186 0.002007
188 0.002039
191 0.0
190 0.0
164 0.0
102 0.002026
63 0.0
68 0.00103
80 0.001036
98 0.0
112 0.000953
123 0.0
129 0.001028
127 0.002003
120 0.0
118 0.000968
122 0.0
130 0.001996
145 0.0
153 0.002045
159 0.002038
166 0.00102
170 0.0
173 0.0
174 0.001035
176 0.001018
178 0.000951
180 0.0
174 0.0
129 0.002005
68 0.0
65 0.000997
77 0.001028
91 0.002032
106 0.000997
124 0.0
133 0.0
133 0.002062
127 0.001982
119 0.000989
121 0.001021
127 0.0
140 0.0
148 0.0
155 0.000964
160 0.000955
165 0.0
168 0.0
170 0.0
172 0.001996
171 0.001997
123 0.001016
73 0.0
54 0.0
61 0.0
74 0.0
88 0.002037
102 0.002038
115 0.0
118 0.000958
113 0.000939
108 0.001996
108 0.002
115 0.000998
123 0.000996
132 0.0
146 0.0
153 0.0
158 0.002045
162 0.001997
165 0.000996
168 0.000974
171 0.000937
162 0.00299
108 0.002992
57 0.0
51 0.000959
57 0.001972
77 0.00199
89 0.001988
101 0.002012
108 0.001995
106 0.0
101 0.001998
99 0.001998
102 0.002041
108 0.001986
119 0.001038
128 0.000946
138 0.002025
151 0.001014
157 0.000966
161 0.002047
165 0.002027
169 0.002
172 0.001996
171 0.002001
137 0.002993
81 0.002993
54 0.001079
56 0.001029
65 0.001013
87 0.000948
100 0.000946
109 0.002992
111 0.003039
105 0.000948
101 0.00199
103 0.001995
109 0.003018
117 0.002032
129 0.001957
138 0.001993
146 0.002047
156 0.001035
161 0.000997
165 0.002992
168 0.002997
172 0.000998
171 0.000946
149 0.001966
94 0.002994
63 0.002992
59 0.001946
67 0.001027
79 0.003013
100 0.00202
111 0.001996
114 0.003025
108 0.003019
100 0.002015
100 0.001965
105 0.001051
113 0.002992
121 0.003989
133 0.000988
141 0.001945
147 0.000991
154 0.001944
158 0.002005
161 0.002953
163 0.002969
160 0.002992
101 0.002024
64 0.002057
55 0.002012
58 0.002992
67 0.003989
82 0.002023
93 0.001959
104 0.002015
102 0.00201
97 0.00199
94 0.00399
97 0.004014
105 0.00198
113 0.001959
121 0.001989
128 0.002992
135 0.003034
143 0.003015
148 0.003026
154 0.002062
157 0.002058
160 0.001963
146 0.004036
96 0.004038
62 0.001975
59 0.001949
64 0.001953
74 0.003989
84 0.00303
97 0.002977
104 0.002946
102 0.002991
98 0.003029
99 0.002993
103 0.004023
110 0.003996
122 0.002985
130 0.002019
139 0.001939
146 0.00399
153 0.003989
160 0.001971
164 0.002972
172 0.002003
176 0.001018
177 0.002036
147 0.003989
94 0.004022
71 0.001963
73 0.003008
82 0.003044
93 0.003989
106 0.003994
120 0.002038
124 0.002015
117 0.001997
114 0.001964
117 0.002996
122 0.004953
130 0.004987
141 0.00301
149 0.002975
157 0.002961
163 0.00399
168 0.003989
172 0.003005
173 0.00299
177 0.001977
178 0.001946
164 0.002033
110 0.004987
78 0.004998
70 0.003006
76 0.002995
87 0.002961
99 0.004987
112 0.005017
122 0.002994
119 0.003941
110 0.00394
109 0.002996
113 0.003048
121 0.004987
130 0.004989
140 0.003959
147 0.003966
152 0.003991
157 0.005022
160 0.004989
164 0.002966
167 0.002985
169 0.002984
137 0.00301
89 0.002989
71 0.004036
70 0.005985
78 0.003989
88 0.003002
99 0.002995
110 0.004987
117 0.004987
114 0.003039
109 0.002997
109 0.002983
114 0.002977
121 0.002991
129 0.005024
137 0.006027
146 0.003998
151 0.003998
156 0.00395
160 0.00502
163 0.00502
166 0.004008
168 0.003983
171 0.00503
131 0.003036
89 0.002979
76 0.003038
75 0.005986
81 0.004987
95 0.003956
106 0.004001
116 0.004004
123 0.005984
122 0.005011
115 0.003987
114 0.005
121 0.004019
128 0.004991
136 0.004982
145 0.005971
152 0.005975
160 0.004008
165 0.003989
169 0.003982
173 0.005984
176 0.005989
180 0.004985
184 0.006063
154 0.003969
102 0.004955
84 0.004953
82 0.005986
88 0.005985
102 0.005032
115 0.005072
127 0.003995
135 0.006011
133 0.005984
121 0.003948
114 0.00599
118 0.003995
125 0.004956
133 0.003943
140 0.005984
147 0.005981
154 0.004947
158 0.004949
162 0.00499
164 0.006046
168 0.006018
166 0.003992
107 0.005943
76 0.004006
74 0.004019
80 0.004007
89 0.005981
102 0.005983
118 0.004989
127 0.004931
127 0.005028
121 0.007027
114 0.005987
113 0.004965
120 0.006984
131 0.004988
138 0.005012
145 0.003994
151 0.006983
156 0.006982
161 0.004938
165 0.004993
168 0.004953
168 0.006981
134 0.007017
81 0.005002
70 0.006039
76 0.004918
86 0.005987
97 0.005022
109 0.005984
118 0.006982
119 0.005985
113 0.004953
108 0.005045
108 0.007039
112 0.007034
122 0.004952
133 0.007027
143 0.005
156 0.004973
164 0.004953
170 0.006047
176 0.006018
182 0.005982
187 0.005936
174 0.005973
106 0.007051
67 0.006982
58 0.005036
70 0.006982
89 0.004984
104 0.004997
119 0.004988
127 0.007013
124 0.008016
113 0.005948
111 0.005957
115 0.00595
123 0.006988
134 0.007945
148 0.005949
160 0.006947
169 0.006007
174 0.005966
177 0.005053
180 0.005985
183 0.007047
183 0.007945
122 0.005014
74 0.005987
59 0.005938
60 0.007979
71 0.007978
100 0.007963
110 0.007032
123 0.005975
118 0.005934
108 0.006951
102 0.006981
104 0.006982
113 0.007063
123 0.005984
134 0.006055
142 0.007979
152 0.007986
161 0.007955
165 0.007975
169 0.005986
172 0.006017
157 0.005997
79 0.007963
61 0.007021
52 0.005983
59 0.006947
71 0.005997
89 0.007978
98 0.007979
110 0.007966
103 0.007925
96 0.005985
94 0.00599
98 0.00599
107 0.007978
123 0.007979
142 0.005975
153 0.006019
164 0.006937
182 0.007977
193 0.008024
198 0.007945
199 0.007994
172 0.006027
98 0.006989
66 0.006981
62 0.007946
67 0.007957
85 0.00603
101 0.005991
121 0.006956
128 0.007935
128 0.00698
117 0.007012
117 0.007026
123 0.007
135 0.006968
142 0.005976
151 0.007979
160 0.007979
170 0.007009
175 0.005973
180 0.006047
185 0.007004
188 0.00701
167 0.007871
122 0.007971
74 0.006978
70 0.006982
76 0.007011
88 0.007979
108 0.007014
121 0.005976
127 0.006967
118 0.006965
107 0.007014
103 0.006984
109 0.00703
117 0.006944
128 0.006981
133 0.006948
140 0.007015
146 0.007942
149 0.006979
151 0.007013
154 0.006982
156 0.006032
116 0.006983
79 0.007007
65 0.006981
71 0.007015
84 0.006969
93 0.005958
105 0.00603
116 0.007019
115 0.007016
107 0.005999
105 0.005997
106 0.006984
114 0.006984
122 0.007014
136 0.007012
143 0.007031
148 0.006943
154 0.006959
157 0.006964
159 0.007012
162 0.007014
155 0.005922
111 0.005976
85 0.005938
78 0.006018
81 0.007013
94 0.007023
102 0.007013
110 0.006983
117 0.006979
116 0.006983
114 0.006981
112 0.006931
114 0.005985
121 0.005987
128 0.005984
135 0.006029
143 0.006015
154 0.006024
159 0.006018
163 0.006018
167 0.006995
170 0.006926
173 0.006958
166 0.00701
127 0.006972
100 0.006013
98 0.005975
104 0.006012
112 0.006056
125 0.005984
132 0.006017
135 0.006986
131 0.006005
128 0.006981
128 0.006981
128 0.00702
130 0.006022
137 0.005979
142 0.006012
147 0.006017
151 0.00603
154 0.00602
155 0.006025
155 0.006014
156 0.005956
168 0.004999
159 0.005016
121 0.005012
97 0.004987
91 0.006044
97 0.005991
105 0.006027
113 0.006016
125 0.005996
127 0.005985
123 0.005986
119 0.005979
119 0.005988
122 0.005039
126 0.004978
132 0.004989
141 0.006035
145 0.005985
150 0.00602
154 0.006029
158 0.006016
160 0.005986
162 0.004989
166 0.005024
159 0.005983
120 0.004985
96 0.004988
90 0.005025
96 0.004975
104 0.004951
112 0.004985
118 0.005029
125 0.00602
124 0.006045
121 0.006019
120 0.005963
123 0.00601
128 0.005024
134 0.00503
141 0.005025
151 0.004976
156 0.005034
161 0.004986
165 0.005011
170 0.005023
173 0.004992
178 0.00501
183 0.006023
186 0.006019
157 0.004987
115 0.00503
100 0.004987
101 0.00504
110 0.004988
120 0.004984
129 0.004991
141 0.004987
142 0.00499
138 0.004984
133 0.004988
134 0.00399
139 0.004988
144 0.00503
161 0.005032
176 0.003991
185 0.004026
193 0.005027
200 0.005018
208 0.004981
211 0.005019
215 0.00399
219 0.004024
220 0.006021
177 0.003991
116 0.005035
94 0.004985
93 0.004989
105 0.005028
119 0.005048
133 0.005024
150 0.004985
147 0.004987
134 0.005036
122 0.005018
122 0.004962
127 0.004924
136 0.005009
147 0.003986
157 0.005019
167 0.00394
175 0.004002
180 0.004062
185 0.004026
187 0.004015
190 0.003994
192 0.003957
122 0.003991
75 0.005022
61 0.003954
63 0.004989
75 0.005042
95 0.005024
110 0.005002
125 0.005021
128 0.003988
117 0.00399
109 0.00396
108 0.004028
117 0.004023
128 0.005045
140 0.00395
152 0.004022
162 0.004025
170 0.004057
173 0.003952
178 0.002996
185 0.003933
189 0.003989
195 0.003991
182 0.003995
84 0.003963
58 0.003989
54 0.00399
63 0.003995
77 0.003962
99 0.004988
113 0.003982
123 0.003989
120 0.004022
111 0.003031
109 0.003031
114 0.002994
126 0.003991
139 0.00399
152 0.003956
166 0.004018
179 0.00399
191 0.005028
197 0.003017
203 0.003029
212 0.002991
217 0.003953
223 0.004049
222 0.00302
131 0.003127
78 0.003022
65 0.003048
69 0.003019
84 0.004044
111 0.00399
133 0.002991
151 0.002992
154 0.003011
142 0.003017
132 0.002992
126 0.002993
134 0.001996
146 0.00399
160 0.003032
175 0.003021
188 0.00302
198 0.003018
205 0.002021
208 0.003991
210 0.003011
209 0.004006
211 0.002991
210 0.003025
115 0.00399
63 0.003016
50 0.002969
55 0.002994
70 0.002993
99 0.002992
122 0.001994
141 0.004026
136 0.002995
115 0.003016
102 0.002993
101 0.001996
114 0.002993
128 0.002993
143 0.003002
157 0.002992
169 0.003049
178 0.00303
187 0.002992
192 0.002994
198 0.001997
201 0.003023
191 0.001994
104 0.003041
47 0.002044
30 0.002042
38 0.002041
54 0.003047
75 0.001995
97 0.002044
119 0.002992
122 0.002992
99 0.002993
89 0.002011
92 0.002017
99 0.002006
112 0.002049
132 0.001948
145 0.002027
156 0.002042
166 0.002039
174 0.001946
181 0.002043
187 0.002992
194 0.002994
178 0.00199
92 0.002043
51 0.00205
40 0.001991
49 0.002028
66 0.001996
86 0.001996
107 0.003003
124 0.002032
123 0.002012
107 0.00205
91 0.001995
95 0.002005
105 0.002029
118 0.002037
133 0.002047
153 0.002028
172 0.002003
189 0.001996
199 0.001997
206 0.00201
214 0.002001
220 0.001995
190 0.001995
84 0.002961
39 0.001993
32 0.001999
42 0.001994
72 0.001964
98 0.001966
123 0.002026
140 0.00203
138 0.002021
113 0.002052
98 0.002001
102 0.002042
114 0.001039
128 0.002011
144 0.001993
158 0.001008
170 0.001985
176 0.001949
182 0.002002
187 0.00201
190 0.001996
177 0.001995
85 0.001995
14 0.001051
12 0.002059
26 0.002995
50 0.001035
76 0.000999
110 0.001999
125 0.001012
120 0.000964
100 0.002029
86 0.00201
89 0.002045
100 0.001004
126 0.001996
142 0.000998
155 0.001029
165 0.000998
173 0.001053
179 0.001
182 0.001027
186 0.000965
173 0.002043
82 0.000998
11 0.002029
0 0.000966
22 0.002036
46 0.000999
71 0.001034
93 0.001031
106 0.001034
99 0.001
84 0.000998
78 0.001042
81 0.000997
91 0.002005
110 0.001995
126 0.001995
151 0.000997
162 0.001037
169 0.00203
175 0.000998
180 0.000999
186 0.00103
174 0.000997
85 0.000998
24 0.001034
6 0.001036
15 0.000998
35 0.0
64 0.001042
94 0.001042
109 0.0
108 0.001
95 0.000998
83 0.0
80 0.001005
89 0.001004
105 0.0
127 0.000998
146 0.001049
168 0.000991
184 0.000998
194 0.001043
199 0.0
204 0.0
211 0.0
209 0.0
93 0.0
35 0.0
24 0.0
34 0.0
57 0.000998
96 0.000997
132 0.000984
149 0.000998
138 0.000998
116 0.0
104 0.0
107 0.0
123 0.0
139 0.0
155 0.0
170 0.0
183 0.0
194 0.0
202 0.000997
206 0.0
211 0.0
190 0.0
91 0.0
30 0.0
15 0.0
28 0.0
51 0.0
79 0.0
105 0.0
129 0.0
120 0.00098
99 0.000997
95 0.000998
99 0.000953
112 0.0
128 0.0
148 0.002026
162 0.0
175 0.0
184 0.0
193 0.0
199 0.0
206 0.000998
204 0.001007
119 0.001022
21 0.000962
7 0.000999
12 0.0
32 0.0
56 0.0
87 0.0
105 0.0
112 0.000988
104 0.002043
91 0.0
100 0.0
115 0.002048
138 0.000964
153 0.0
167 0.0
179 0.001046
187 0.001999
200 0.001011
208 0.000985
221 0.0
208 0.002028
228 0.0
131 0.00203
47 0.002047
21 0.001003
29 0.000974
49 0.000967
72 0.002003
94 0.002028
119 0.0
123 0.00091
112 0.0
100 0.001044
103 0.000972
117 0.002036
135 0.002057
164 0.0
183 0.000968
200 0.0
214 0.002026
224 0.002034
234 0.0
240 0.0
245 0.001001
251 0.002992
219 0.0
98 0.002028
36 0.00205
20 0.001
33 0.002
55 0.000964
77 0.0
100 0.002028
118 0.002026
115 0.0
98 0.0
87 0.0
96 0.0
111 0.0
128 0.002005
144 0.001953
162 0.0
172 0.0
181 0.000997
188 0.002003
195 0.003037
203 0.000969
205 0.000994
161 0.000976
2 0.0
0 0.0
5 0.00203
28 0.002029
64 0.0
91 0.0
111 0.0
116 0.00202
104 0.001994
87 0.0
88 0.0
99 0.0
127 0.000968
145 0.000949
162 0.001995
176 0.002043
192 0.0
201 0.0
208 0.0
213 0.001997
218 0.002046
184 0.0
65 0.001945
6 0.0
62 0.000964
72 0.0
85 0.001979
98 0.001998
114 0.0
120 0.0
116 0.0
109 0.002022
105 0.002046
109 0.0
118 0.0
130 0.0
149 0.0
159 0.000954
169 0.002993
180 0.002993
190 0.000966
197 0.000947
203 0.002003
207 0.003011
206 0.001958
131 0.000988
90 0.001039
82 0.002028
96 0.0
110 0.00199
126 0.002051
141 0.003009
154 0.002011
152 0.001996
142 0.000971
131 0.002992
124 0.002993
128 0.002004
134 0.001037
142 0.0
154 0.002034
158 0.0
162 0.002028
164 0.002993
165 0.000951
167 0.000965
165 0.001998
124 0.002992
73 0.002029
58 0.0
63 0.0
76 0.002009
101 0.001992
115 0.002926
123 0.002992
120 0.002991
105 0.002004
99 0.001961
99 0.001039
105 0.002016
114 0.002998
126 0.002043
134 0.002003
141 0.001999
149 0.001987
152 0.002002
155 0.003038
157 0.002992
130 0.001996
81 0.001996
64 0.001993
62 0.002068
69 0.002993
83 0.000995
96 0.001043
107 0.001996
116 0.002006
110 0.001934
102 0.003991
100 0.002992
103 0.001977
111 0.001993
121 0.001991
131 0.002003
141 0.004081
147 0.004034
151 0.001996
152 0.001045
154 0.001049
152 0.002029
116 0.001017
82 0.002992
72 0.003019
76 0.001941
84 0.002011
95 0.001973
106 0.004031
116 0.004022
120 0.002012
115 0.000998
106 0.002016
106 0.001993
110 0.002959
117 0.002979
124 0.003018
134 0.001035
140 0.002012
145 0.000995
148 0.003008
151 0.002993
153 0.001978
156 0.001997
126 0.001995
90 0.001994
78 0.001994
77 0.003989
84 0.00399
99 0.001987
111 0.001945
120 0.001997
126 0.002992
122 0.003029
111 0.001962
108 0.002006
114 0.001965
122 0.001966
130 0.001988
139 0.00399
147 0.004023
155 0.002985
159 0.002937
161 0.002943
161 0.00503
160 0.003938
159 0.002046
147 0.002044
75 0.001967
61 0.001964
61 0.001946
70 0.004024
82 0.00399
100 0.001998
113 0.002032
118 0.002003
109 0.005057
98 0.005047
93 0.001993
98 0.001994
113 0.003011
124 0.00299
133 0.003047
141 0.005027
147 0.004987
151 0.00199
153 0.00197
155 0.001996
158 0.003989
161 0.004025
139 0.002018
88 0.001984
60 0.00199
63 0.001985
73 0.002977
86 0.004987
98 0.004983
113 0.003005
116 0.002988
109 0.003016
102 0.005005
100 0.004987
106 0.002992
114 0.002991
130 0.002003
139 0.003
146 0.002986
152 0.004975
156 0.004986
160 0.003003
161 0.003011
163 0.002995
165 0.005033
169 0.005017
151 0.003002
96 0.001991
64 0.002993
66 0.004004
77 0.003937
91 0.004985
105 0.005037
122 0.003991
127 0.003034
122 0.003008
115 0.005035
112 0.005029
116 0.003011
125 0.003044
140 0.005027
154 0.004009
164 0.002996
172 0.003999
178 0.00602
182 0.005984
182 0.00299
182 0.003025
183 0.002994
186 0.005985
192 0.005038
184 0.002965
99 0.004987
69 0.004003
70 0.003939
80 0.003939
97 0.005984
115 0.005984
134 0.004001
141 0.00399
135 0.003989
124 0.00502
118 0.005018
124 0.004018
135 0.004987
148 0.003982
156 0.003994
165 0.003993
171 0.005984
176 0.00591
180 0.003992
182 0.004009
183 0.00399
185 0.006021
186 0.00601
126 0.004011
67 0.004987
60 0.003001
70 0.00399
87 0.003989
105 0.005984
124 0.005984
141 0.003988
140 0.004012
130 0.003992
118 0.00601
116 0.006019
123 0.003996
138 0.007028
152 0.004008
161 0.004008
170 0.004035
177 0.006027
182 0.006016
188 0.003979
192 0.003989
195 0.004018
196 0.005981
157 0.005976
69 0.003991
53 0.005984
64 0.004986
82 0.003987
101 0.005008
119 0.006981
134 0.007979
138 0.003982
128 0.003988
118 0.003947
114 0.006034
118 0.006952
132 0.003989
147 0.005984
161 0.004971
170 0.004955
177 0.004958
184 0.007042
189 0.00704
194 0.004951
198 0.003988
199 0.005032
161 0.006028
83 0.005993
51 0.003995
57 0.007006
80 0.004024
100 0.00499
118 0.004986
131 0.00703
135 0.007007
120 0.004986
107 0.004984
103 0.004962
107 0.006045
116 0.005983
131 0.003982
145 0.007014
158 0.00499
165 0.00498
171 0.004992
177 0.007012
181 0.006982
187 0.004989
183 0.003998
127 0.004974
64 0.006978
46 0.006978
52 0.005003
75 0.006935
101 0.005001
120 0.004971
133 0.004991
130 0.005021
116 0.006983
104 0.006989
105 0.006006
114 0.004991
124 0.004988
138 0.007959
148 0.007973
159 0.007886
164 0.007979
170 0.004979
173 0.004988
174 0.005966
155 0.006982
88 0.006984
46 0.004993
42 0.004957
51 0.005017
73 0.00794
91 0.007968
116 0.007988
120 0.007928
110 0.004982
99 0.004994
95 0.005018
99 0.006981
108 0.006981
122 0.004957
133 0.004953
143 0.005953
151 0.007977
157 0.007978
169 0.00797
172 0.007979
150 0.006005
81 0.005984
48 0.005042
42 0.008028
49 0.007974
68 0.004986
85 0.004974
101 0.00598
113 0.007936
112 0.007944
99 0.007945
96 0.007944
100 0.005986
109 0.00595
121 0.005966
135 0.007993
142 0.00798
151 0.005984
156 0.005984
160 0.00695
163 0.007978
166 0.006984
98 0.006961
62 0.007963
57 0.005987
67 0.006004
83 0.00596
103 0.007961
112 0.007978
125 0.005984
126 0.005955
118 0.005954
109 0.007978
106 0.008016
117 0.006975
127 0.00703
139 0.006013
150 0.005979
159 0.005974
166 0.007978
171 0.00797
175 0.003989
178 0.005012
180 0.005984
175 0.007015
122 0.00798
60 0.007028
59 0.007028
73 0.005972
84 0.006931
99 0.006937
119 0.007017
126 0.007968
121 0.005994
110 0.005986
104 0.005984
107 0.008015
112 0.007945
130 0.006958
139 0.006978
146 0.006976
151 0.006971
153 0.00698
156 0.006968
156 0.007021
159 0.006953
160 0.005972
145 0.005963
79 0.006978
57 0.007995
59 0.007026
71 0.006986
86 0.004987
106 0.006974
119 0.006962
120 0.007015
110 0.006981
102 0.006945
101 0.00698
106 0.007007
118 0.005983
130 0.005942
151 0.005985
163 0.00697
171 0.006982
178 0.006961
179 0.006982
185 0.00698
190 0.007016
186 0.006012
107 0.006966
77 0.006982
59 0.005986
63 0.005964
83 0.006036
99 0.006015
116 0.006016
128 0.005953
123 0.006002
114 0.006978
111 0.006982
115 0.00698
126 0.006978
138 0.006981
146 0.006959
161 0.006986
171 0.006007
173 0.00603
175 0.005991
177 0.005959
179 0.005967
182 0.005966
171 0.005987
111 0.006986
64 0.006946
60 0.006969
67 0.006982
82 0.006015
111 0.005952
128 0.006022
137 0.006014
133 0.005968
123 0.005977
119 0.005953
123 0.00604
131 0.006032
145 0.005983
155 0.004978
165 0.006022
174 0.006008
185 0.005984
190 0.005987
193 0.006011
195 0.006015
199 0.005982
196 0.005984
140 0.006015
81 0.006018
64 0.005974
72 0.004981
88 0.005981
108 0.006051
138 0.005946
148 0.004962
144 0.005965
127 0.005958
120 0.005934
123 0.005938
132 0.005982
143 0.006017
157 0.005982
166 0.005019
174 0.005019
181 0.005016
191 0.005986
196 0.006021
198 0.005018
136 0.004949
76 0.004967
60 0.004972
63 0.006016
76 0.005855
101 0.005983
121 0.004985
140 0.00595
149 0.004985
137 0.004994
125 0.004996
122 0.004964
130 0.004987
140 0.005016
151 0.004967
163 0.00503
174 0.005984
185 0.005956
192 0.005996
199 0.005031
204 0.005018
172 0.005021
89 0.004987
56 0.00503
54 0.004986
65 0.005041
83 0.004972
102 0.005019
119 0.005017
136 0.00499
136 0.003956
124 0.005965
114 0.005015
115 0.005024
124 0.005023
136 0.00502
153 0.004965
165 0.005019
175 0.004959
184 0.005019
191 0.004987
200 0.004935
203 0.004979
165 0.004973
85 0.004041
55 0.005032
62 0.005024
78 0.005018
99 0.005042
127 0.005
144 0.004968
152 0.005021
145 0.005025
132 0.005051
122 0.005091
125 0.003989
135 0.00402
154 0.003948
166 0.003991
175 0.004988
183 0.00402
192 0.004959
196 0.004963
200 0.004988
193 0.005018
122 0.004985
58 0.003994
53 0.004021
62 0.004026
93 0.004014
114 0.003993
132 0.003952
142 0.003947
136 0.003938
123 0.004047
116 0.00397
119 0.003979
127 0.005028
141 0.005021
150 0.00502
159 0.003994
171 0.004004
177 0.00399
183 0.004021
186 0.004018
119 0.003988
62 0.003955
48 0.004031
51 0.003991
64 0.003952
91 0.005004
112 0.004049
129 0.004022
135 0.003987
121 0.003992
109 0.004055
106 0.00399
113 0.00399
123 0.003997
135 0.002992
145 0.00399
154 0.002974
165 0.002994
171 0.00299
177 0.003026
148 0.004022
76 0.004026
48 0.003983
46 0.004031
60 0.004022
79 0.003974
99 0.004007
118 0.004026
131 0.003998
131 0.003961
119 0.003973
109 0.00399
112 0.003992
120 0.004017
132 0.00396
143 0.003949
158 0.004061
167 0.004
175 0.003959
181 0.004028
187 0.003992
186 0.00307
131 0.003001
66 0.003027
45 0.002992
54 0.002989
72 0.001995
93 0.001941
120 0.003027
133 0.003025
134 0.003913
122 0.003941
110 0.003989
108 0.002988
117 0.003026
128 0.003002
150 0.00299
162 0.003023
171 0.002992
180 0.004031
190 0.002977
197 0.003927
202 0.003035
184 0.003997
105 0.002021
58 0.00397
57 0.002994
70 0.003024
104 0.003036
125 0.003039
143 0.002992
148 0.002996
137 0.003024
114 0.002993
109 0.003024
114 0.003018
124 0.001995
135 0.001995
150 0.003046
160 0.002004
173 0.002981
179 0.002963
185 0.002992
181 0.002992
120 0.002992
52 0.002996
44 0.003
51 0.003015
67 0.002001
86 0.002025
113 0.000997
129 0.001965
126 0.002994
113 0.003035
108 0.002992
112 0.002992
121 0.001964
137 0.003022
150 0.002019
162 0.002036
171 0.002026
179 0.001997
188 0.002029
192 0.002039
112 0.002002
58 0.001997
45 0.001972
50 0.002977
67 0.002992
97 0.003023
117 0.001995
134 0.001988
141 0.001994
135 0.001995
119 0.002009
113 0.001968
122 0.001963
134 0.001969
144 0.001995
155 0.001996
163 0.00207
172 0.002999
177 0.002034
182 0.002029
182 0.002023
137 0.002029
56 0.001995
41 0.002029
53 0.001996
70 0.002995
90 0.002021
111 0.002059
126 0.002031
127 0.00204
118 0.001009
111 0.001031
113 0.002036
120 0.002006
134 0.002048
147 0.001996
166 0.003002
175 0.001994
183 0.001995
190 0.001995
195 0.000997
198 0.001029
194 0.002055
135 0.002039
69 0.000998
49 0.000999
53 0.001965
69 0.002037
103 0.002017
121 0.001996
133 0.002025
131 0.002025
121 0.001001
111 0.000997
114 0.000998
122 0.000997
133 0.000993
146 0.000998
162 0.001001
171 0.001996
178 0.003042
179 0.002034
180 0.001993
180 0.00204
144 0.000997
63 0.000997
48 0.000966
55 0.000965
72 0.001996
94 0.000998
124 0.000966
141 0.00203
138 0.001039
122 0.002035
111 0.0
110 0.002042
117 0.000998
132 0.000999
141 0.000987
148 0.001084
156 0.000998
163 0.001038
170 0.00202
176 0.000998
180 0.002044
107 0.000998
54 0.002027
41 0.001995
44 0.000994
57 0.001006
81 0.001006
99 0.002002
114 0.001046
119 0.000998
111 0.001002
96 0.000993
93 0.0
101 0.000992
111 0.000998
126 0.0
140 0.0
150 0.0
161 0.0
169 0.0
176 0.0
181 0.0
164 0.000997
76 0.0
48 0.000999
53 0.000997
68 0.0
87 0.0
107 0.0
126 0.000988
136 0.0
129 0.0
118 0.000998
113 0.000997
116 0.0
128 0.0
144 0.0
160 0.000998
168 0.0
174 0.0
180 0.0
185 0.0
193 0.0
193 0.0
137 0.0
71 0.0
53 0.0
58 0.0
80 0.001032
105 0.000988
123 0.001004
134 0.000997
132 0.000196
120 0.000998
108 0.0
108 0.0
114 0.000997
124 0.0
134 0.0
146 0.0
156 0.0
166 0.0
173 0.0
178 0.0
149 0.0
85 0.0
54 0.0
55 0.0
72 0.0
83 0.0
103 0.0
127 0.002
135 0.0
124 0.00099
114 0.002028
115 0.000975
122 0.0
132 0.0
144 0.002028
155 0.003032
168 0.0
175 0.0
182 0.0
187 0.002028
170 0.0
98 0.002031
60 0.002026
51 0.0
60 0.0
74 0.000965
90 0.002028
107 0.002024
123 0.0
123 0.0
115 0.0
109 0.002961
111 0.0
119 0.002027
129 0.001996
144 0.0
153 0.0
160 0.0
167 0.001992
172 0.001987
176 0.0
166 0.001064
107 0.000967
70 0.002014
61 0.000988
70 0.0
82 0.00299
93 0.002939
109 0.0
115 0.0
119 0.0
135 0.001964
156 0.001994
177 0.0
178 0.0
180 0.0
188 0.0
192 0.0
194 0.001989
194 0.001993
194 0.000953
193 0.0
195 0.0
175 0.002962
148 0.00195
130 0.0
129 0.0
133 0.0
143 0.0
152 0.001003
164 0.001993
161 0.002031
153 0.0
153 0.0
157 0.000966
160 0.002043
164 0.002047
169 0.0
171 0.0
172 0.0
173 0.0
174 0.0
175 0.002025
176 0.00199
161 0.0
129 0.0
101 0.0
88 0.002028
87 0.002045
91 0.0
94 0.0
96 0.0
98 0.000978
99 0.001001
98 0.001989
95 0.003029
91 0.0
89 0.0
91 0.0
95 0.00201
100 0.003049
102 0.0
102 0.0
102 0.0
100 0.000984
95 0.0
93 0.002044
96 0.002044
91 0.0
70 0.0
56 0.001033
52 0.002026
55 0.002005
64 0.0
71 0.0
77 0.0
84 0.0
83 0.0
82 0.00203
83 0.002037
87 0.000969
93 0.000944
98 0.000996
104 0.002079
109 0.002962
115 0.000928
118 0.000988
122 0.0
127 0.001049
129 0.0
130 0.003046
132 0.004035
135 0.0
138 0.0
129 0.0
103 0.00303
89 0.003031
88 0.002013
93 0.001995
99 0.001998
107 0.002027
111 0.001993
112 0.001998
110 0.002
107 0.001995
109 0.001999
112 0.002
116 0.003026
121 0.002986
127 0.001992
130 0.001994
132 0.002012
136 0.002003
138 0.002994
139 0.002991
141 0.003049
144 0.003027
146 0.003008
144 0.001997
123 0.001997
103 0.003033
95 0.003024
96 0.001997
101 0.001994
111 0.001995
116 0.002
120 0.002001
120 0.003025
118 0.003034
117 0.003008
119 0.002989
122 0.002037
127 0.003028
132 0.00402
139 0.001992
145 0.002993
150 0.002041
152 0.002032
152 0.001989
152 0.003989
152 0.00402
154 0.001995
156 0.00199
160 0.002025
155 0.003064
129 0.003025
107 0.003008
104 0.001999
110 0.001996
116 0.001993
122 0.002002
127 0.004022
131 0.004046
132 0.001961
128 0.002008
127 0.002993
131 0.003992
137 0.003999
149 0.002977
159 0.001986
173 0.002995
179 0.002008
185 0.003032
188 0.00399
189 0.003991
189 0.002989
191 0.002032
194 0.001995
196 0.004
200 0.004022
174 0.002023
117 0.002002
78 0.001994
79 0.001993
92 0.002992
108 0.004041
125 0.00402
143 0.002012
150 0.002009
145 0.003007
138 0.004023
133 0.004039
135 0.001994
141 0.002048
158 0.001991
167 0.002951
174 0.001995
181 0.004019
186 0.003973
191 0.002013
192 0.00201
193 0.002016
195 0.004007
199 0.003991
183 0.001994
131 0.002987
88 0.003005
85 0.00299
92 0.002998
104 0.003988
119 0.005013
137 0.002013
144 0.002016
139 0.001981
129 0.004955
123 0.004924
124 0.001959
131 0.001956
146 0.001996
155 0.002033
165 0.002953
173 0.004035
181 0.005032
189 0.003
193 0.003007
195 0.002957
197 0.00502
200 0.004985
148 0.002009
91 0.00201
62 0.00201
66 0.001991
80 0.001995
98 0.003989
116 0.004022
138 0.002985
145 0.003011
136 0.003
121 0.004988
115 0.005017
120 0.003005
129 0.002069
145 0.005986
164 0.001956
179 0.002963
192 0.002926
202 0.005986
210 0.005951
219 0.002941
224 0.003006
229 0.00299
228 0.005036
162 0.004934
67 0.002046
52 0.005053
75 0.001984
98 0.002004
117 0.00199
135 0.004987
153 0.006044
158 0.003007
143 0.002984
126 0.002954
122 0.004987
133 0.005046
173 0.002971
254 0.005031
254 0.002992
254 0.002987
254 0.002003
254 0.004983
254 0.005017
254 0.002986
254 0.00401
254 0.003958
222 0.005942
175 0.006019
160 0.002985
174 0.006011
201 0.002968
218 0.002965
226 0.003014
219 0.004987
199 0.004987
174 0.002992
169 0.002982
170 0.003018
174 0.004986
180 0.006024
188 0.004026
189 0.006033
179 0.002959
161 0.002974
141 0.002944
124 0.006044
71 0.006012
0 0.003019
23 0.00302
17 0.003957
21 0.005959
32 0.005019
49 0.003988
73 0.005992
86 0.004007
84 0.003957
78 0.004008
76 0.006034
78 0.006011
89 0.002974
100 0.001995
116 0.003002
132 0.006026
144 0.006987
154 0.002991
162 0.007011
168 0.003973
166 0.004005
119 0.004009
77 0.005951
66 0.006018
69 0.003988
80 0.004005
95 0.004013
109 0.005983
123 0.005984
134 0.004015
130 0.005987
124 0.003996
127 0.004012
135 0.004
145 0.00695
155 0.005981
168 0.003979
179 0.004001
191 0.004969
203 0.005982
213 0.007025
223 0.005003
123 0.006959
211 0.004953
135 0.003922
90 0.003999
81 0.006944
86 0.006981
106 0.00399
124 0.00399
141 0.003989
154 0.005979
157 0.006978
147 0.004987
135 0.006985
136 0.004987
143 0.003992
152 0.004023
161 0.006999
170 0.006978
180 0.004004
186 0.004033
190 0.003989
194 0.006979
197 0.006981
198 0.004954
137 0.007007
75 0.005018
70 0.004972
80 0.004946
95 0.003984
113 0.006981
130 0.006982
147 0.004987
151 0.003988
145 0.00399
135 0.00798
130 0.006982
137 0.007023
145 0.006985
157 0.004973
166 0.003985
173 0.003951
180 0.006981
188 0.006962
199 0.004021
205 0.004022
208 0.003988
195 0.007979
101 0.007985
66 0.00798
68 0.007948
86 0.005018
102 0.004015
117 0.004988
131 0.007979
138 0.006981
136 0.004987
127 0.004975
121 0.004986
123 0.006934
131 0.007007
146 0.007975
155 0.007977
168 0.006955
172 0.005954
176 0.004986
180 0.007974
183 0.007978
185 0.004952
186 0.004974
179 0.004985
92 0.00698
58 0.007978
46 0.006983
58 0.006981
79 0.005823
93 0.004979
107 0.005017
115 0.007973
113 0.007965
102 0.005008
97 0.005002
101 0.005022
111 0.007982
120 0.007017
133 0.006976
143 0.00691
155 0.004983
163 0.005996
171 0.006008
179 0.007987
186 0.007967
195 0.00502
200 0.005986
202 0.005023
173 0.007974
86 0.006954
66 0.007977
78 0.006942
93 0.006022
110 0.005979
125 0.006019
137 0.007948
139 0.007961
132 0.005973
123 0.005991
121 0.005959
125 0.007979
136 0.007015
152 0.006979
162 0.006981
169 0.005985
176 0.005984
180 0.005984
184 0.007978
185 0.007978
188 0.005985
190 0.00698
188 0.004986
148 0.007979
67 0.007962
53 0.007968
63 0.006961
78 0.006039
94 0.005991
109 0.005978
122 0.006978
119 0.007001
108 0.005974
100 0.005983
100 0.005963
108 0.006974
116 0.00703
130 0.007019
139 0.00717
146 0.005977
152 0.005985
158 0.005982
164 0.006989
168 0.007019
172 0.006021
166 0.005024
88 0.005988
52 0.005951
45 0.005983
56 0.005984
75 0.007977
89 0.007017
106 0.006959
112 0.006962
109 0.006962
101 0.007009
95 0.005954
97 0.006967
101 0.00599
113 0.006966
122 0.007056
137 0.005987
144 0.005992
150 0.006014
155 0.006984
160 0.006948
163 0.006981
167 0.007013
166 0.00701
104 0.006941
59 0.005922
50 0.005977
52 0.006039
72 0.005991
85 0.006033
97 0.005984
110 0.005987
109 0.005984
101 0.005983
94 0.006018
93 0.005942
98 0.00697
103 0.006966
113 0.006947
121 0.005918
134 0.006979
140 0.005966
145 0.006019
150 0.005955
152 0.005975
154 0.005986
158 0.006017
156 0.006045
94 0.004996
57 0.006
48 0.005981
53 0.005981
74 0.005983
88 0.006026
102 0.006015
112 0.005987
108 0.006016
98 0.005985
91 0.006011
91 0.006009
97 0.005991
105 0.00497
114 0.005958
122 0.006032
135 0.005996
141 0.006015
145 0.006072
148 0.005968
151 0.005943
155 0.006031
151 0.005987
110 0.006016
60 0.005955
52 0.005936
55 0.004968
66 0.005954
91 0.004977
105 0.005094
116 0.005074
114 0.005985
104 0.006016
98 0.005933
99 0.006035
105 0.006037
117 0.004986
126 0.004988
134 0.004949
142 0.004989
151 0.004986
156 0.005024
159 0.005017
163 0.004963
164 0.004962
145 0.004954
87 0.005985
58 0.005983
52 0.005987
59 0.004985
72 0.005952
86 0.005984
107 0.005982
114 0.005956
110 0.005019
100 0.004986
96 0.004969
99 0.004997
106 0.004994
115 0.005021
127 0.005941
136 0.004987
145 0.004899
150 0.004988
156 0.005954
159 0.005985
161 0.005018
165 0.004957
151 0.005011
97 0.005031
66 0.005002
60 0.004988
64 0.004056
81 0.003946
97 0.003959
112 0.003991
129 0.005012
127 0.004002
119 0.003929
113 0.003991
115 0.004948
122 0.004967
132 0.004994
141 0.004986
150 0.005037
162 0.004962
168 0.00496
173 0.004
178 0.003953
181 0.00398
184 0.00399
183 0.00503
124 0.005009
78 0.004959
66 0.004949
69 0.00502
79 0.005047
99 0.004996
114 0.004986
127 0.003989
128 0.004989
118 0.004987
111 0.004987
111 0.00399
119 0.003989
128 0.004031
137 0.003993
145 0.004052
153 0.003991
161 0.004988
166 0.003987
169 0.005007
174 0.005022
170 0.004947
125 0.003988
76 0.00399
61 0.00399
65 0.003958
77 0.004952
92 0.00396
106 0.004986
123 0.00399
128 0.003045
123 0.00399
110 0.002992
109 0.00298
115 0.003974
123 0.003962
135 0.003989
144 0.003989
153 0.00399
159 0.003934
165 0.003989
170 0.003959
173 0.003987
176 0.003989
172 0.003991
122 0.004027
74 0.003938
61 0.003989
66 0.004037
78 0.003989
93 0.003997
108 0.00298
121 0.003038
129 0.003991
124 0.003945
116 0.003936
113 0.003987
119 0.003991
129 0.003989
141 0.003979
156 0.00402
167 0.003927
176 0.004024
183 0.003023
191 0.003018
199 0.002992
203 0.002992
207 0.002991
190 0.002954
122 0.003028
82 0.004018
76 0.002958
89 0.003984
107 0.004017
124 0.003991
140 0.003021
151 0.003045
152 0.002992
142 0.002994
133 0.003043
135 0.003025
143 0.003003
154 0.003959
164 0.003991
178 0.004068
187 0.003964
194 0.003956
199 0.003035
202 0.003023
205 0.003031
207 0.003019
203 0.003039
106 0.002986
72 0.00303
68 0.002992
78 0.002992
100 0.002993
118 0.00406
134 0.002993
147 0.001993
150 0.001994
141 0.003045
127 0.002036
126 0.002054
137 0.003057
147 0.002995
157 0.002956
166 0.004034
174 0.003023
183 0.002964
187 0.003026
191 0.002993
193 0.00399
187 0.001995
106 0.001994
63 0.002991
59 0.002041
72 0.002058
89 0.001996
106 0.00303
122 0.003033
135 0.00304
133 0.002037
123 0.003012
114 0.002031
114 0.001955
122 0.003013
131 0.002027
148 0.002032
158 0.002025
166 0.002055
174 0.000988
179 0.00202
185 0.003068
189 0.003019
188 0.001987
147 0.001994
80 0.002044
56 0.001996
61 0.001995
87 0.002044
105 0.001996
121 0.001996
134 0.001995
137 0.002042
127 0.003019
118 0.002975
116 0.003018
120 0.002036
128 0.001944
141 0.002027
151 0.001996
165 0.002025
172 0.00196
177 0.002033
182 0.002048
185 0.003022
188 0.002104
158 0.003009
89 0.003019
60 0.003029
59 0.00103
73 0.001029
90 0.002053
118 0.002034
131 0.000999
134 0.002054
125 0.002026
112 0.002024
106 0.002038
111 0.001044
119 0.001011
129 0.003034
138 0.001038
149 0.002031
156 0.000989
166 0.001009
171 0.001013
175 0.001995
166 0.001995
107 0.001995
64 0.001992
61 0.002993
68 0.002031
81 0.002032
96 0.001005
114 0.001996
124 0.001066
118 0.001073
106 0.000999
100 0.000997
102 0.000992
109 0.001999
120 0.00204
129 0.003034
138 0.001975
144 0.001028
149 0.001029
155 0.000999
158 0.001979
158 0.000997
118 0.001016
73 0.000998
60 0.001998
60 0.00101
71 0.001962
83 0.000997
96 0.002025
108 0.00203
115 0.001997
110 0.004006
101 0.0
97 0.001037
102 0.002057
110 0.001023
120 0.000966
129 0.002036
137 0.00098
147 0.002025
152 0.002028
156 0.00199
159 0.002988
163 0.001046
160 0.00103
100 0.002005
68 0.001032
66 0.001007
72 0.000997
83 0.000997
96 0.000998
114 0.001985
122 0.002032
121 0.002047
112 0.0
103 0.001027
102 0.001035
107 0.0
118 0.000998
127 0.001015
135 0.001008
142 0.000997
147 0.001026
151 0.000998
153 0.000982
155 0.000997
156 0.000998
143 0.0
85 0.0
66 0.001035
70 0.0
80 0.0
94 0.0
107 0.0
120 0.0
123 0.001048
114 0.0
104 0.0
101 0.001026
103 0.000996
112 0.0
123 0.000998
135 0.0
143 0.0
149 0.0
153 0.0
157 0.0
161 0.0
162 0.0
141 0.0
92 0.000997
71 0.000995
68 0.000999
79 0.0
97 0.0
112 0.0
125 0.0
132 0.0
129 0.0
118 0.0
116 0.0
119 0.0
126 0.000999
137 0.000994
151 0.0
164 0.000997
173 0.0
178 0.000996
181 0.000997
184 0.0
186 0.0
175 0.0
109 0.0
65 0.0
53 0.0
59 0.000954
74 0.0
97 0.0
118 0.003001
129 0.001007
128 0.001034
114 0.0
108 0.000995
109 0.003048
117 0.003036
132 0.001023
144 0.000984
155 0.000936
166 0.003022
178 0.001013
183 0.002029
186 0.001991
189 0.0
191 0.0
184 0.000984
120 0.003027
65 0.003023
49 0.0
55 0.0
71 0.0
91 0.002065
123 0.0
134 0.001994
132 0.002025
113 0.0
104 0.001006
105 0.000998
113 0.002026
123 0.003047
139 0.0
150 0.000997
160 0.000998
168 0.0
177 0.001065
182 0.0
185 0.003022
186 0.002986
129 0.000998
70 0.000952
53 0.0
54 0.003027
66 0.003041
91 0.000966
111 0.001018
128 0.000963
136 0.0
122 0.001017
108 0.001992
105 0.002994
113 0.0
124 0.000925
137 0.0
148 0.002986
157 0.003026
168 0.0
173 0.000987
177 0.001034
183 0.0
179 0.0
118 0.002028
62 0.002013
45 0.000974
51 0.00102
66 0.0
84 0.003043
103 0.003023
125 0.0
131 0.0
123 0.0
106 0.0
105 0.0
112 0.002993
122 0.00199
136 0.0
147 0.000965
156 0.000976
163 0.001993
169 0.003039
175 0.0
179 0.0
180 0.0
94 0.0
55 0.0
46 0.003029
52 0.003027
73 0.0
91 0.00096
109 0.00098
124 0.002994
131 0.002994
121 0.0
111 0.0
108 0.001002
120 0.001994
131 0.0
144 0.003042
156 0.002995
170 0.000952
176 0.0
180 0.000998
182 0.002037
183 0.003039
179 0.0
145 0.0
81 0.000959
52 0.0
58 0.0
71 0.002993
88 0.003002
111 0.0
123 0.0
122 0.001012
110 0.002963
101 0.002963
100 0.000984
107 0.0
116 0.000967
133 0.000967
141 0.0
148 0.002026
152 0.00203
154 0.0
157 0.0
158 0.0
133 0.002993
90 0.00298
72 0.000992
73 0.0
82 0.000968
102 0.0
116 0.0
126 0.002996
128 0.003991
116 0.0
110 0.000977
110 0.0
115 0.003033
121 0.003026
132 0.0
139 0.0
144 0.0
150 0.0
153 0.0
156 0.003032
160 0.003023
155 0.003046
104 0.0
85 0.0
81 0.0
85 0.003023
94 0.003983
105 0.0
114 0.003009
120 0.0
115 0.0
107 0.000999
104 0.002993
105 0.002993
112 0.00302
118 0.002993
125 0.0
131 0.00304
136 0.004036
141 0.002996
144 0.000966
149 0.002987
152 0.002949
146 0.0
111 0.003987
89 0.002992
83 0.003022
88 0.000965
94 0.0
101 0.002993
108 0.002992
116 0.002049
117 0.0
108 0.001981
107 0.001991
109 0.001987
115 0.003983
124 0.004006
135 0.003026
143 0.003003
150 0.002991
154 0.003991
157 0.00399
158 0.002993
159 0.00299
159 0.00299
157 0.001991
125 0.001991
97 0.003991
88 0.004058
92 0.002047
101 0.002987
111 0.001991
124 0.005022
136 0.003989
143 0.002989
138 0.003005
128 0.002991
128 0.002028
131 0.001975
136 0.005042
142 0.004028
151 0.002995
155 0.003006
158 0.00201
160 0.003982
162 0.003989
163 0.002971
164 0.002991
163 0.002992
127 0.002987
98 0.00299
87 0.003966
86 0.003989
95 0.003061
105 0.00205
114 0.001992
123 0.005001
127 0.003984
120 0.002977
113 0.002977
105 0.002985
113 0.002992
124 0.002993
137 0.004987
150 0.004987
165 0.002994
173 0.002999
179 0.002987
183 0.004988
185 0.005041
187 0.003002
191 0.00298
168 0.003006
98 0.00199
68 0.002003
61 0.005021
68 0.005014
86 0.001956
100 0.002992
112 0.003032
121 0.00399
120 0.003995
106 0.002957
99 0.002947
102 0.002033
110 0.002989
121 0.002009
134 0.004002
146 0.005019
162 0.002017
173 0.002982
181 0.00301
186 0.004987
189 0.005983
192 0.005755
198 0.001965
205 0.005037
171 0.002994
91 0.001994
59 0.002994
54 0.00601
62 0.00601
87 0.002987
108 0.002995
127 0.002993
141 0.006014
144 0.004995
127 0.002047
115 0.005038
120 0.002991
131 0.002031
147 0.002014
163 0.005031
179 0.004954
198 0.00299
207 0.002959
214 0.002989
219 0.005984
224 0.005984
228 0.002991
234 0.005038
240 0.002028
201 0.002013
103 0.002038
63 0.005066
57 0.00502
75 0.002041
98 0.002995
125 0.003037
149 0.006027
164 0.006011
157 0.003028
127 0.005991
111 0.00399
114 0.002992
126 0.00293
139 0.006015
154 0.00503
170 0.00197
180 0.002992
189 0.003012
195 0.005986
200 0.005985
205 0.003012
205 0.005961
117 0.002043
52 0.002989
35 0.002006
40 0.005984
57 0.005984
91 0.003976
118 0.004007
142 0.003972
156 0.005984
152 0.005992
126 0.003007
112 0.006015
120 0.003007
133 0.002981
148 0.003973
163 0.005992
177 0.005963
192 0.004014
201 0.004008
207 0.003979
212 0.006977
217 0.005984
217 0.002993
104 0.006002
32 0.002983
27 0.002956
37 0.00399
60 0.006982
88 0.006983
123 0.003942
143 0.003962
149 0.003925
135 0.00701
116 0.007012
107 0.002989
119 0.005985
139 0.003007
155 0.003952
168 0.00394
179 0.007008
187 0.00702
199 0.003993
208 0.003037
213 0.003966
217 0.006982
206 0.006979
81 0.003993
24 0.005985
27 0.003025
46 0.002996
73 0.003991
101 0.006022
129 0.006982
151 0.003985
147 0.00399
131 0.003983
118 0.006982
119 0.007031
140 0.003981
165 0.006986
182 0.007032
201 0.004001
210 0.004022
216 0.003989
221 0.006981
226 0.007035
229 0.003956
220 0.003948
132 0.003976
46 0.007002
21 0.006852
38 0.00704
65 0.00697
106 0.002993
134 0.003978
150 0.003963
147 0.006981
117 0.007982
101 0.005005
102 0.00498
112 0.003947
127 0.006957
143 0.006981
166 0.007014
177 0.006984
190 0.004016
197 0.004989
204 0.003994
206 0.007978
113 0.007981
34 0.004985
13 0.005016
19 0.004976
49 0.007972
67 0.007947
115 0.006982
136 0.00702
136 0.00597
119 0.004953
104 0.004034
104 0.007986
111 0.007947
131 0.004952
147 0.004995
161 0.003975
172 0.007954
182 0.007979
189 0.006995
193 0.008011
195 0.004891
154 0.004012
52 0.005008
7 0.007979
4 0.007946
19 0.005014
43 0.005001
71 0.005977
105 0.007013
117 0.007984
99 0.006975
85 0.007049
84 0.004988
92 0.005943
107 0.005954
133 0.007978
150 0.007977
165 0.005939
178 0.004989
188 0.004993
197 0.007948
203 0.007963
210 0.007934
193 0.006916
98 0.005954
36 0.004987
23 0.005959
40 0.007005
66 0.006972
94 0.005944
120 0.004987
139 0.004989
137 0.007959
124 0.007979
104 0.007978
112 0.007958
125 0.004974
140 0.004991
156 0.00507
175 0.007986
186 0.006979
194 0.006038
199 0.005934
202 0.005985
205 0.008024
209 0.006986
169 0.006981
73 0.006964
27 0.005038
21 0.006001
34 0.005964
66 0.007923
85 0.007968
120 0.005024
136 0.006009
130 0.005947
104 0.006986
92 0.006946
101 0.006992
116 0.007009
133 0.006983
148 0.006011
162 0.005979
174 0.006025
181 0.006015
185 0.005981
188 0.006936
189 0.005957
192 0.00601
188 0.006957
81 0.006003
13 0.006995
7 0.007006
19 0.006044
41 0.005953
65 0.005978
97 0.006955
111 0.006978
104 0.00593
87 0.006043
79 0.005992
83 0.006022
107 0.005958
125 0.006982
143 0.007008
157 0.005949
168 0.005985
176 0.005972
183 0.006948
185 0.005976
188 0.005982
191 0.005974
196 0.006013
191 0.005992
55 0.005974
17 0.006027
12 0.006023
32 0.005995
57 0.005986
73 0.006921
104 0.007015
119 0.007017
118 0.006025
97 0.005963
88 0.006007
90 0.005984
111 0.005962
126 0.006018
142 0.005945
162 0.005963
