85 0.035915
85 0.003998
108 0.003978
120 0.003958
129 0.002992
137 0.003015
147 0.002994
154 0.002953
161 0.002977
169 0.002993
175 0.002957
183 0.002982
188 0.00296
188 0.002969
75 0.00299
45 0.003942
46 0.002992
59 0.00396
81 0.002661
96 0.002993
109 0.002985
120 0.002964
129 0.002946
139 0.002962
146 0.002989
153 0.002961
164 0.003034
171 0.00295
178 0.002989
184 0.00296
176 0.002992
86 0.002993
39 0.002963
33 0.002956
42 0.002992
64 0.003953
80 0.002948
95 0.002054
114 0.002961
123 0.002984
130 0.003026
136 0.002962
146 0.002952
154 0.003003
160 0.002977
167 0.002025
174 0.001993
179 0.002996
119 0.001989
48 0.001995
32 0.001995
44 0.001995
61 0.002992
77 0.002992
96 0.002993
108 0.003011
117 0.002997
124 0.002992
131 0.002992
140 0.001992
147 0.001995
154 0.001994
167 0.001995
174 0.002031
179 0.001996
168 0.002029
61 0.002992
35 0.003033
37 0.002995
51 0.002999
68 0.002992
89 0.002993
103 0.001995
114 0.001994
128 0.001995
135 0.002004
142 0.002038
150 0.002017
160 0.001949
167 0.001961
174 0.001994
181 0.001993
186 0.001995
172 0.002028
87 0.001945
47 0.001995
52 0.001995
67 0.001996
84 0.001989
99 0.002016
115 0.00196
125 0.001996
133 0.001994
140 0.001995
146 0.002023
156 0.001994
163 0.001978
171 0.001995
181 0.002006
187 0.001963
184 0.000997
108 0.001996
50 0.002005
40 0.000997
52 0.000997
68 0.000965
84 0.000997
99 0.001005
114 0.001994
125 0.00196
133 0.001933
138 0.002002
145 0.001994
152 0.001991
159 0.001995
169 0.001995
176 0.000998
180 0.000997
132 0.001034
54 0.001036
30 0.001029
41 0.001024
63 0.002001
79 0.002016
93 0.001967
105 0.001985
115 0.002002
122 0.001999
126 0.002008
132 0.000963
139 0.001017
147 0.001002
158 0.000997
169 0.000997
176 0.000997
132 0.000998
57 0.001995
35 0.001994
37 0.00195
55 0.001011
72 0.001008
88 0.001004
101 0.000997
112 0.000995
122 0.000996
129 0.000996
137 0.000998
145 0.001996
152 0.000997
160 0.001029
168 0.000998
178 0.000994
182 0.0
143 0.001014
68 0.0
44 0.000998
52 0.000997
73 0.001032
94 0.001012
108 0.000998
119 0.001001
129 0.001039
135 0.000998
142 0.000997
148 0.000983
155 0.000998
162 0.000962
170 0.0
179 0.000982
187 0.0
153 0.0
72 0.0
45 0.000998
47 0.000997
59 0.001005
81 0.000997
97 0.000997
110 0.000997
120 0.000967
127 0.000998
132 0.000996
136 0.000998
145 0.0
153 0.0
161 0.0
168 0.0
176 0.0
181 0.0
127 0.0
56 0.0
37 0.0
41 0.0
60 0.0
82 0.001012
102 0.000998
113 0.0
121 0.0
125 0.0
126 0.0
132 0.0
139 0.0
147 0.0
156 0.0
164 0.0
175 0.0
177 0.0
81 0.001011
43 0.000999
42 0.0
49 0.0
70 0.0
81 0.0
101 0.0
112 0.0
123 0.0
126 0.0
129 0.0
136 0.0
146 0.0
155 0.000997
162 0.000958
174 0.0
182 0.0
186 0.0
140 0.000998
67 0.0
46 0.0
49 0.0
79 0.0
90 0.0
109 0.0
120 0.000998
129 0.000988
135 0.0
138 0.0
144 0.0
151 0.00096
158 0.000964
170 0.0
177 0.0
188 0.0
191 0.000968
160 0.0
63 0.000996
47 0.001021
52 0.000997
66 0.0
88 0.0
103 0.000995
116 0.0
128 0.0
133 0.0
134 0.0
137 0.000998
146 0.0
154 0.001007
163 0.001009
173 0.000974
178 0.000993
183 0.000956
109 0.00096
52 0.001007
40 0.000985
49 0.000997
74 0.001043
89 0.001037
103 0.001044
114 0.000998
120 0.001028
120 0.000998
119 0.001007
123 0.00101
134 0.001013
143 0.000994
155 0.0
164 0.0
173 0.000998
111 0.001041
53 0.000998
37 0.002029
42 0.000976
60 0.000984
75 0.000966
85 0.001014
102 0.001056
112 0.000997
116 0.0
115 0.000984
122 0.000998
131 0.00092
141 0.000967
150 0.001996
159 0.001995
171 0.001031
177 0.000981
138 0.000976
68 0.001994
46 0.000997
47 0.000981
59 0.001994
89 0.0
104 0.000998
116 0.001022
125 0.002036
129 0.002036
130 0.000998
136 0.000981
144 0.000978
153 0.002005
162 0.001959
170 0.000998
178 0.001994
192 0.001
169 0.000988
89 0.000998
57 0.001995
56 0.002027
72 0.001036
89 0.001003
104 0.001002
118 0.002962
130 0.001994
140 0.000957
143 0.001005
150 0.000997
156 0.001035
164 0.000979
172 0.001994
179 0.001995
189 0.001011
196 0.001022
200 0.001445
159 0.001998
81 0.001995
56 0.001995
66 0.002029
80 0.001995
100 0.000967
115 0.00105
126 0.001053
134 0.001951
137 0.001996
136 0.001007
140 0.000998
147 0.001001
156 0.003004
164 0.002994
178 0.002992
185 0.00303
187 0.000997
117 0.002026
59 0.001047
46 0.001996
52 0.001962
70 0.001007
85 0.000974
100 0.000989
113 0.003016
123 0.002993
130 0.002992
130 0.003031
137 0.001997
145 0.002028
154 0.002035
163 0.002992
171 0.001977
182 0.002037
189 0.001989
166 0.002008
84 0.001982
51 0.002004
53 0.002992
66 0.002997
87 0.002028
101 0.00203
114 0.002028
124 0.003089
129 0.003036
130 0.001999
133 0.002027
141 0.002957
149 0.002992
158 0.003
171 0.001995
179 0.003023
186 0.003037
190 0.003023
141 0.002994
62 0.002992
53 0.00301
65 0.001642
81 0.002
96 0.002045
111 0.002994
124 0.003988
138 0.00296
143 0.002952
148 0.002028
154 0.001995
161 0.001963
169 0.002991
176 0.002959
185 0.002991
192 0.00198
199 0.003008
198 0.004023
132 0.00399
56 0.003989
57 0.004044
73 0.002012
84 0.003026
99 0.002992
121 0.000996
128 0.002987
138 0.002981
142 0.002949
144 0.002989
149 0.004026
156 0.003994
167 0.004024
175 0.003991
184 0.002042
189 0.003047
179 0.002994
98 0.004035
54 0.00399
50 0.002995
61 0.002994
70 0.00299
90 0.002973
105 0.003947
123 0.003997
131 0.003991
136 0.003035
140 0.002992
146 0.002993
154 0.004041
162 0.004024
172 0.002981
179 0.002982
186 0.002999
189 0.004985
105 0.003989
46 0.004021
43 0.004025
58 0.003025
72 0.003017
86 0.003012
100 0.003989
111 0.004028
118 0.004986
120 0.002988
120 0.004028
124 0.003997
137 0.004028
147 0.004028
155 0.003992
163 0.003988
171 0.004029
178 0.003031
141 0.003025
70 0.004026
46 0.004023
51 0.003039
64 0.002975
80 0.002988
104 0.004021
116 0.003991
126 0.005023
133 0.004979
140 0.003989
145 0.003956
150 0.003988
159 0.004998
167 0.003982
174 0.003934
180 0.004007
187 0.003979
186 0.004022
86 0.003024
53 0.004987
52 0.005026
67 0.004019
83 0.004038
97 0.004039
111 0.004971
123 0.005027
134 0.003991
140 0.004023
143 0.004028
155 0.003988
160 0.004013
169 0.004986
176 0.005018
186 0.00399
192 0.004024
192 0.004024
132 0.004985
66 0.004989
48 0.003987
56 0.003988
70 0.003968
94 0.004985
108 0.004021
119 0.004995
127 0.004987
130 0.004011
132 0.004032
136 0.00403
144 0.004983
152 0.004986
163 0.00401
170 0.004026
178 0.003956
165 0.005034
82 0.004022
44 0.005974
38 0.005984
45 0.005018
57 0.004988
73 0.003987
86 0.004989
98 0.004988
108 0.003992
111 0.004034
112 0.00398
122 0.00498
131 0.005017
141 0.005984
150 0.005983
162 0.004985
168 0.005041
175 0.006038
130 0.004988
62 0.004986
40 0.005948
43 0.004987
54 0.005011
72 0.005032
84 0.005017
95 0.006018
102 0.006022
104 0.005021
105 0.005022
110 0.005019
118 0.005019
127 0.005984
137 0.00498
147 0.005981
160 0.005012
174 0.004979
178 0.004994
126 0.006016
64 0.004985
44 0.003981
50 0.003988
61 0.004943
74 0.005985
87 0.00599
103 0.004966
111 0.004949
114 0.005021
114 0.004987
118 0.005039
126 0.005984
136 0.006983
149 0.005031
158 0.004976
166 0.005022
174 0.006005
182 0.005989
189 0.006012
177 0.005004
65 0.005021
52 0.004934
57 0.004984
69 0.005989
83 0.005983
97 0.006018
114 0.005026
123 0.005033
128 0.005018
128 0.005979
127 0.006015
132 0.005983
143 0.006981
155 0.005953
163 0.006019
171 0.006018
178 0.005981
186 0.005986
188 0.005021
122 0.004988
66 0.005998
51 0.007028
55 0.007035
71 0.006017
90 0.006981
108 0.006018
118 0.006015
123 0.006019
120 0.006982
117 0.006981
121 0.005986
125 0.006018
134 0.00597
147 0.006032
157 0.005983
165 0.006993
179 0.006981
185 0.006013
127 0.006025
65 0.005984
47 0.006982
48 0.007018
63 0.005
77 0.005985
90 0.005982
102 0.00701
111 0.007013
115 0.006031
113 0.007013
117 0.006008
124 0.005963
134 0.006015
144 0.007014
154 0.006981
166 0.006014
175 0.00701
183 0.006014
190 0.007019
172 0.005985
75 0.006944
50 0.007979
57 0.006972
72 0.005977
85 0.006015
98 0.006989
111 0.006969
121 0.005977
123 0.00595
121 0.006014
123 0.00701
128 0.006976
141 0.007011
153 0.007985
166 0.00704
176 0.007015
184 0.007015
191 0.007979
198 0.008017
203 0.006983
135 0.005955
73 0.006012
58 0.007012
63 0.007018
81 0.005983
106 0.007961
119 0.00702
131 0.007011
140 0.007011
143 0.007979
144 0.007979
148 0.007028
154 0.006945
162 0.006984
170 0.006981
178 0.00703
187 0.007011
196 0.007971
205 0.006974
210 0.006968
201 0.007012
116 0.007979
66 0.007943
58 0.006967
68 0.007014
82 0.007016
102 0.007964
116 0.00702
133 0.007027
137 0.007979
136 0.007987
135 0.007979
142 0.006995
150 0.007986
158 0.007997
166 0.006965
174 0.006978
182 0.006994
191 0.007978
197 0.007969
175 0.007979
89 0.007978
53 0.007979
53 0.007015
66 0.006989
81 0.006952
95 0.006982
109 0.007026
123 0.006976
129 0.006941
131 0.007978
132 0.007026
139 0.007977
147 0.007979
155 0.007979
166 0.007012
174 0.006974
181 0.006984
188 0.007975
197 0.007016
190 0.007017
104 0.007011
56 0.006972
47 0.006983
62 0.007006
77 0.00803
87 0.007978
105 0.006981
116 0.00698
125 0.006965
130 0.007979
131 0.006981
137 0.007072
145 0.006997
154 0.00698
162 0.006943
175 0.00703
181 0.008975
190 0.0
198 0.006998
201 0.005978
159 0.007057
80 0.007015
53 0.00696
57 0.007001
71 0.006953
86 0.00698
101 0.005989
123 0.006982
132 0.006983
139 0.00694
145 0.007014
150 0.007043
156 0.006973
163 0.006983
170 0.007027
179 0.006016
183 0.00696
192 0.005974
198 0.006016
202 0.006984
157 0.006991
79 0.007013
52 0.007031
58 0.006973
72 0.006977
86 0.007046
101 0.00701
117 0.006953
127 0.006019
133 0.006017
136 0.005994
139 0.006015
145 0.00603
153 0.005968
163 0.006015
170 0.007021
177 0.007011
183 0.007031
189 0.006948
164 0.006947
80 0.006982
51 0.006982
41 0.006016
59 0.005983
72 0.006023
86 0.006016
103 0.005984
113 0.005984
119 0.006009
119 0.006017
120 0.006021
127 0.006016
135 0.005985
144 0.006986
158 0.005978
166 0.006016
174 0.006015
181 0.006018
162 0.00602
81 0.005984
45 0.006032
41 0.006015
49 0.006016
67 0.006031
80 0.006972
93 0.005974
110 0.006027
115 0.006017
114 0.005022
115 0.005021
122 0.006016
132 0.005984
140 0.006025
150 0.006019
158 0.005986
168 0.006017
176 0.005868
182 0.005987
119 0.005984
61 0.005989
46 0.005021
51 0.005021
63 0.005019
83 0.004993
98 0.005023
110 0.005022
119 0.006006
126 0.005986
129 0.005978
132 0.00598
143 0.006032
151 0.00505
160 0.005025
168 0.005031
175 0.005028
184 0.005034
191 0.005019
196 0.005026
182 0.005022
103 0.005017
57 0.004944
57 0.004986
77 0.005018
91 0.004986
104 0.005952
116 0.005947
125 0.005007
132 0.00496
133 0.005026
134 0.005021
139 0.005025
147 0.005018
158 0.005005
166 0.004985
177 0.005014
184 0.005022
189 0.004986
180 0.005021
104 0.004993
52 0.004989
50 0.005005
59 0.005018
72 0.004951
85 0.004986
102 0.004985
113 0.004997
120 0.004987
119 0.00502
120 0.004985
126 0.005019
134 0.004023
146 0.004022
155 0.004023
163 0.004022
171 0.004987
179 0.004989
184 0.004992
133 0.004956
50 0.005019
46 0.004041
54 0.005026
66 0.004979
78 0.004028
94 0.003988
104 0.004023
111 0.004025
113 0.00403
113 0.003986
118 0.003953
126 0.005029
141 0.005027
151 0.005021
159 0.005022
167 0.00502
175 0.003976
185 0.004022
180 0.00399
107 0.003996
60 0.003956
50 0.004025
59 0.004021
72 0.003993
93 0.004049
105 0.003985
109 0.011963
119 0.0
132 0.004027
138 0.00399
146 0.004019
154 0.004034
162 0.004026
172 0.00399
183 0.004024
191 0.003989
198 0.00399
198 0.003026
152 0.004037
82 0.004054
59 0.003978
64 0.004023
77 0.004099
90 0.002958
103 0.004019
119 0.003955
131 0.004024
137 0.00399
141 0.004027
145 0.003993
151 0.003963
159 0.003026
169 0.003026
176 0.004942
182 0.002959
188 0.00298
194 0.004046
197 0.003987
121 0.00402
60 0.003991
56 0.00399
64 0.00399
76 0.004023
89 0.002991
102 0.002995
117 0.00303
124 0.003024
127 0.002992
127 0.002972
130 0.003832
140 0.00399
149 0.003999
160 0.004052
168 0.004037
176 0.003996
183 0.00399
189 0.004022
162 0.003023
84 0.002921
52 0.002995
49 0.002992
56 0.00296
76 0.00304
89 0.003026
105 0.004039
114 0.002992
118 0.00399
119 0.002993
121 0.002992
129 0.003003
137 0.003025
146 0.003029
155 0.002991
163 0.002969
176 0.00302
184 0.002955
186 0.002992
130 0.00303
68 0.003025
51 0.002992
54 0.001995
69 0.002993
80 0.002982
93 0.002993
105 0.002985
115 0.003008
124 0.003035
125 0.002993
131 0.002993
138 0.003023
146 0.002993
155 0.001995
163 0.001994
174 0.002028
181 0.001992
187 0.002028
194 0.003031
194 0.002994
92 0.002992
60 0.002998
60 0.002993
72 0.002992
86 0.003027
100 0.002031
112 0.001996
126 0.001995
133 0.002025
138 0.001995
143 0.00203
149 0.002033
160 0.001995
167 0.002992
177 0.003038
184 0.002992
190 0.002992
195 0.002031
201 0.002031
204 0.002992
181 0.002015
102 0.001997
65 0.002029
67 0.002037
79 0.001997
93 0.001958
111 0.001955
123 0.002002
133 0.002029
139 0.000997
143 0.001995
149 0.001041
154 0.000997
161 0.001948
168 0.000959
178 0.001993
184 0.001996
190 0.002001
197 0.001996
192 0.00203
122 0.001995
65 0.001947
51 0.001995
60 0.001996
72 0.000998
86 0.001009
99 0.001992
118 0.00196
126 0.001001
131 0.000998
134 0.001011
141 0.000958
148 0.001995
155 0.001992
163 0.001988
170 0.002006
179 0.00201
185 0.002027
190 0.001995
150 0.002046
74 0.001031
47 0.000997
46 0.000998
59 0.000998
72 0.000997
85 0.00103
98 0.001994
109 0.002044
118 0.002029
122 0.002027
124 0.000998
134 0.000997
142 0.000997
150 0.000997
158 0.001006
168 0.000994
175 0.001028
182 0.000994
186 0.001038
171 0.001003
74 0.002
49 0.001019
48 0.000989
66 0.001955
79 0.002058
93 0.001996
105 0.002023
117 0.000988
123 0.000997
126 0.000992
130 0.000998
136 0.001
146 0.001033
154 0.000997
162 0.001006
173 0.000998
180 0.0
186 0.000995
190 0.000998
159 0.0
85 0.000968
56 0.000998
54 0.000998
64 0.000997
82 0.000989
96 0.000997
109 0.000998
127 0.0
133 0.0
137 0.0
142 0.0
150 0.0
157 0.0
164 0.0
171 0.0
177 0.0
185 0.0
190 0.0
193 0.000991
123 0.000998
68 0.000997
54 0.0
59 0.0
76 0.000997
89 0.0
102 0.0
114 0.0
123 0.0
131 0.0
134 0.0
137 0.0
147 0.0
154 0.0
162 0.0
169 0.0
177 0.000999
184 0.0
183 0.000997
137 0.0
69 0.0
45 0.0
50 0.0
69 0.0
82 0.0
95 0.0
106 0.0
114 0.0
119 0.001011
121 0.0
125 0.000998
132 0.000998
143 0.001009
151 0.0
159 0.0
171 0.001029
177 0.0
176 0.0
108 0.0
55 0.0
42 0.000998
46 0.001009
61 0.0
73 0.0
85 0.0
97 0.0
106 0.000997
111 0.0
112 0.001009
116 0.001
125 0.0
135 0.0
141 0.000997
152 0.0
161 7.5e-05
171 0.0
178 0.000993
179 0.0
128 0.0
52 0.0
49 0.001032
57 0.001013
73 0.0
87 0.0
100 0.0
111 0.000998
119 0.000998
123 0.000997
124 0.0
130 0.0
137 0.000994
151 0.0
159 0.001007
167 0.001012
177 0.0
183 0.0
188 0.000998
194 0.001024
172 0.0
81 0.0
59 0.0
61 0.0
72 0.000988
95 0.0
108 0.001035
120 0.000997
129 0.000998
137 0.0
140 0.0
144 0.002027
150 0.001996
159 0.0
166 0.0
172 0.0
179 0.001032
189 0.0
194 0.000999
195 0.000998
132 0.0
74 0.0
58 0.0
62 0.001996
74 0.001995
92 0.0
106 0.0
118 0.0
127 0.002011
135 0.000981
136 0.002011
138 0.001955
146 0.001029
154 0.001043
162 0.0
168 0.000985
175 0.001033
184 0.00099
188 0.000998
179 0.000993
104 0.002011
50 0.000997
51 0.002026
61 0.001995
78 0.000998
92 0.001
103 0.0
113 0.002003
120 0.001997
123 0.000981
125 0.000996
131 0.000998
144 0.000958
152 0.001009
160 0.001993
167 0.003024
177 0.000964
183 0.0
186 0.001012
149 0.002028
77 0.001995
48 0.001035
51 0.0
60 0.001008
81 0.000995
94 0.001006
105 0.001995
114 0.001959
118 0.001008
118 0.000987
121 0.000993
127 0.003003
136 0.002
147 0.000991
156 0.000993
163 0.000963
176 0.000956
183 0.000959
187 0.001977
162 0.001991
72 0.000987
52 0.001995
53 0.001996
63 0.003025
75 0.003025
93 0.001031
106 0.001006
116 0.000983
127 0.001006
129 0.000994
132 0.00105
138 0.001998
146 0.002029
156 0.002037
164 0.001996
172 0.001981
179 0.003023
186 0.002945
194 0.001964
195 0.001996
107 0.001007
67 0.001042
60 0.000999
67 0.001993
80 0.002039
99 0.000999
112 0.002002
123 0.00203
132 0.002992
137 0.002992
142 0.002025
147 0.002036
157 0.001986
164 0.002136
170 0.001029
176 0.004023
182 0.00399
191 0.001994
195 0.002006
195 0.002005
159 0.003028
87 0.002992
58 0.002024
62 0.001994
83 0.001973
97 0.002992
110 0.001983
122 0.002992
130 0.003994
135 0.001991
137 0.001996
140 0.00203
145 0.003988
152 0.00302
162 0.002025
169 0.002033
179 0.001996
185 0.002001
187 0.001998
155 0.00296
81 0.002992
50 0.001997
52 0.002991
62 0.001975
75 0.004
89 0.003989
106 0.003029
116 0.00304
125 0.001974
127 0.002007
130 0.001995
136 0.003991
144 0.002993
154 0.001997
162 0.002993
168 0.001034
176 0.003989
182 0.004024
178 0.003026
108 0.002029
47 0.001975
48 0.001996
56 0.002032
68 0.003989
81 0.004037
97 0.002001
108 0.002017
115 0.001996
118 0.00399
119 0.002993
123 0.002991
133 0.003945
145 0.002999
153 0.003029
161 0.002992
168 0.00399
175 0.004041
181 0.003026
151 0.000967
79 0.002032
51 0.00399
49 0.004987
62 0.002992
80 0.003985
97 0.00299
109 0.002991
119 0.002964
125 0.004021
128 0.004004
130 0.003012
136 0.003025
144 0.004038
153 0.004987
161 0.004987
171 0.003023
180 0.003983
188 0.003009
192 0.002993
177 0.003068
100 0.004
60 0.004988
55 0.003024
65 0.004021
78 0.003031
92 0.002995
105 0.004986
117 0.004977
129 0.004959
132 0.003989
135 0.003032
140 0.002027
146 0.003031
154 0.003954
161 0.004025
171 0.002962
177 0.002945
183 0.002992
189 0.004987
191 0.004982
105 0.004986
64 0.00497
59 0.004022
68 0.002976
81 0.00304
96 0.005006
109 0.00399
123 0.002995
129 0.003083
131 0.002997
131 0.003933
132 0.00496
142 0.004984
150 0.004954
159 0.003975
167 0.004023
174 0.004023
180 0.00504
183 0.004995
131 0.003028
70 0.003991
52 0.002941
53 0.005033
62 0.004986
83 0.005979
97 0.006
112 0.003955
120 0.003975
123 0.003991
124 0.004956
126 0.004944
134 0.003989
142 0.003986
150 0.00394
158 0.004993
166 0.004979
177 0.004981
181 0.005026
132 0.004026
71 0.004029
51 0.003991
51 0.006042
61 0.006017
77 0.005019
89 0.003984
102 0.003984
111 0.004997
117 0.004979
119 0.004996
122 0.004985
130 0.004028
138 0.004028
146 0.005022
155 0.005991
163 0.006018
173 0.00497
179 0.005003
179 0.003994
129 0.00602
57 0.004026
54 0.004986
62 0.005019
78 0.004015
91 0.004984
103 0.004965
114 0.005985
121 0.006016
123 0.005024
124 0.005018
127 0.003975
134 0.004995
147 0.004004
155 0.005994
163 0.005987
173 0.003983
180 0.005019
186 0.004972
183 0.005999
122 0.006019
65 0.004993
60 0.00499
67 0.005032
79 0.006022
102 0.003989
115 0.005982
125 0.007027
133 0.005003
137 0.005033
139 0.004985
144 0.005996
150 0.006015
160 0.004987
167 0.005019
174 0.00502
180 0.006021
190 0.004989
192 0.006014
167 0.007022
82 0.005035
64 0.006016
66 0.004986
77 0.006005
90 0.006981
104 0.006981
120 0.004983
130 0.004991
136 0.005028
142 0.004021
146 0.005033
151 0.005984
157 0.006015
167 0.005993
173 0.006014
180 0.006043
186 0.007014
190 0.007012
164 0.004988
96 0.005018
67 0.005985
70 0.004987
82 0.004991
95 0.006008
109 0.006981
124 0.004982
132 0.004976
137 0.004987
140 0.00698
142 0.006988
148 0.005987
155 0.005945
162 0.005969
172 0.005018
178 0.004986
181 0.006981
152 0.006934
69 0.006034
54 0.006045
56 0.006031
65 0.007978
78 0.006982
95 0.005986
107 0.00599
115 0.005984
121 0.005985
121 0.00598
124 0.006947
130 0.007023
140 0.006023
148 0.00603
156 0.006019
164 0.007014
170 0.007021
134 0.006009
70 0.005974
46 0.006015
48 0.005983
57 0.005988
68 0.007
79 0.007014
93 0.006019
99 0.004986
101 0.006022
101 0.006982
104 0.007013
113 0.00703
122 0.00599
132 0.007032
148 0.006033
157 0.006023
163 0.006992
137 0.007976
65 0.005983
49 0.006945
50 0.005989
59 0.006974
70 0.007014
85 0.006981
96 0.007024
109 0.005969
110 0.005982
111 0.006019
115 0.00798
124 0.007959
133 0.005998
143 0.005961
152 0.005996
161 0.007042
169 0.007979
176 0.007003
144 0.006977
66 0.006977
60 0.006015
66 0.006019
81 0.007979
93 0.007969
106 0.00701
117 0.006022
124 0.004996
127 0.006981
127 0.006981
131 0.006973
138 0.006981
152 0.007023
161 0.006987
169 0.006988
179 0.007965
186 0.007979
192 0.007025
187 0.007019
122 0.006974
76 0.007936
66 0.006982
73 0.007024
85 0.005959
111 0.006963
122 0.006982
128 0.00697
135 0.007976
135 0.007978
136 0.006982
141 0.006978
148 0.00702
156 0.007978
167 0.007009
174 0.006972
184 0.006947
192 0.006988
199 0.006983
193 0.006978
155 0.006984
78 0.007025
67 0.007017
72 0.006984
84 0.006984
97 0.006986
110 0.007983
126 0.007025
135 0.007014
141 0.00698
144 0.006977
148 0.006967
154 0.006979
162 0.007021
169 0.007013
178 0.006986
184 0.006981
188 0.006981
195 0.007014
201 0.007011
202 0.00697
120 0.006015
68 0.006975
66 0.006976
75 0.006967
88 0.007034
103 0.007015
120 0.006979
131 0.007038
137 0.007015
140 0.006981
141 0.005983
143 0.006968
150 0.005984
157 0.00697
164 0.006988
173 0.005967
180 0.006991
186 0.007016
192 0.006988
187 0.007029
121 0.006972
69 0.007017
55 0.006982
62 0.006973
79 0.006986
97 0.006979
106 0.006966
120 0.005974
126 0.005984
128 0.006015
126 0.006019
128 0.005984
133 0.005985
140 0.006022
148 0.007015
159 0.007012
169 0.007034
178 0.005984
185 0.005972
185 0.005819
137 0.005983
72 0.006017
50 0.006013
54 0.006023
65 0.00602
78 0.005995
91 0.005961
110 0.006988
117 0.00699
120 0.00698
119 0.005985
122 0.006014
128 0.005982
136 0.005985
147 0.006016
155 0.006015
162 0.006023
169 0.006989
176 0.006023
185 0.005953
178 0.005993
86 0.005991
55 0.006942
51 0.005943
58 0.005984
70 0.006031
87 0.00602
99 0.005994
109 0.006006
116 0.005846
118 0.004985
117 0.006022
121 0.005984
130 0.005983
139 0.005984
147 0.005984
155 0.005965
163 0.004951
172 0.00502
178 0.005019
184 0.004976
184 0.004981
139 0.00502
58 0.005993
53 0.005984
64 0.005969
76 0.005988
89 0.005972
103 0.005039
113 0.005043
121 0.004991
124 0.004997
124 0.005018
127 0.005023
133 0.005005
146 0.005044
154 0.004971
161 0.004939
171 0.004994
177 0.005985
183 0.00603
189 0.005025
194 0.005047
171 0.00502
97 0.005019
64 0.005017
59 0.005025
75 0.005002
88 0.004943
100 0.004969
116 0.004987
124 0.004991
128 0.004988
126 0.005026
124 0.005041
129 0.004988
136 0.004986
144 0.005029
152 0.005021
164 0.004986
171 0.004979
178 0.004959
184 0.005014
176 0.004992
109 0.004076
65 0.004032
55 0.004029
62 0.004026
73 0.004033
86 0.00499
98 0.005031
114 0.004998
119 0.004983
119 0.005032
118 0.004987
122 0.004982
129 0.004033
138 0.004023
146 0.004025
157 0.004035
164 0.004047
171 0.004026
178 0.004034
183 0.003989
136 0.004988
74 0.005006
52 0.004987
55 0.004988
64 0.004986
76 0.005029
87 0.005012
102 0.004991
109 0.004015
112 0.004033
109 0.00401
112 0.003999
118 0.003937
127 0.003988
139 0.003945
148 0.003936
157 0.004022
164 0.004989
171 0.005033
181 0.005022
184 0.004045
153 0.003985
63 0.003998
55 0.00395
59 0.00395
69 0.004072
85 0.003978
96 0.004016
106 0.004036
114 0.003981
115 0.003992
113 0.00402
115 0.004026
121 0.004
135 0.003992
144 0.002995
153 0.003024
161 0.004031
172 0.003949
178 0.003033
185 0.004033
191 0.004035
190 0.003992
112 0.00399
70 0.004046
62 0.002988
74 0.004022
86 0.003928
99 0.00399
111 0.002994
124 0.004005
130 0.004016
131 0.00399
131 0.003989
134 0.004024
142 0.004022
151 0.003963
159 0.003961
171 0.002957
178 0.003024
184 0.003011
190 0.002992
196 0.003007
195 0.003035
142 0.002992
81 0.00399
63 0.003984
64 0.004022
77 0.003014
89 0.003017
109 0.002992
119 0.00308
126 0.00295
127 0.004021
125 0.003032
127 0.003039
133 0.002992
141 0.001995
149 0.003042
157 0.002991
167 0.004026
174 0.003006
185 0.002992
188 0.003989
171 0.00294
98 0.002992
62 0.003036
56 0.003025
64 0.002991
76 0.002992
88 0.003773
99 0.002997
113 0.001995
119 0.003954
120 0.002947
121 0.003027
126 0.002962
133 0.002959
141 0.002994
153 0.00303
161 0.002992
168 0.003027
175 0.002995
182 0.003024
188 0.003048
167 0.003026
68 0.002044
56 0.00296
59 0.003036
69 0.001996
81 0.002027
96 0.001998
108 0.002029
116 0.002036
121 0.00203
121 0.001996
122 0.001994
127 0.002049
140 0.00201
148 0.003022
156 0.002995
164 0.002025
171 0.001993
180 0.002027
187 0.002027
189 0.002026
154 0.002022
87 0.002005
60 0.001995
67 0.002009
82 0.001007
95 0.001995
108 0.001991
119 0.002001
127 0.001988
133 0.001996
135 0.00203
138 0.00203
143 0.001997
150 0.001995
160 0.002001
170 0.002032
178 0.002009
185 0.002051
191 0.002053
196 0.001984
195 0.001995
123 0.00196
73 0.00201
62 0.002026
66 0.000997
77 0.000985
94 0.000965
111 0.001023
124 0.001948
130 0.002044
131 0.001989
130 0.002003
132 0.002006
139 0.001997
146 0.000984
154 0.001998
161 0.000922
168 0.001008
177 0.000997
184 0.00103
176 0.000998
89 0.000957
59 0.001998
55 0.002044
62 0.001971
73 0.001962
90 0.001996
102 0.001047
113 0.000999
120 0.000998
123 0.000997
123 0.000997
127 0.00105
136 0.0
145 0.000956
153 0.000997
160 0.001995
167 0.000999
177 0.001995
182 0.000998
178 0.000998
113 0.000998
64 0.000966
52 0.001995
60 0.000951
76 0.000961
88 0.000995
99 0.000991
109 0.000968
114 0.001019
115 0.000998
116 0.000997
120 0.000997
127 0.001996
136 0.001995
150 0.000967
158 0.0
168 0.000998
175 0.00101
181 0.00101
176 0.000949
112 0.000997
60 0.000998
56 0.000997
62 0.000997
72 0.000998
84 0.000997
104 0.0
113 0.0
119 0.0
118 0.0
119 0.0
124 0.0
131 0.0
143 0.0
151 0.0
159 0.0
167 0.001008
175 0.000997
186 0.000964
190 0.000965
150 0.0
85 0.0
63 0.0
63 0.0
72 0.0
88 0.0
101 0.0
113 0.0
123 0.0
133 0.000967
134 0.000969
137 0.0
144 0.0
151 0.001001
159 0.0
166 0.0
172 0.0
181 0.0
187 0.0
192 0.0
196 0.0
133 0.0
77 0.000997
62 0.0
68 0.002
79 0.000965
95 0.000955
107 0.0
118 0.0
125 0.001032
128 0.0
128 0.0
131 0.0
141 0.0
148 0.0
153 0.000995
163 0.001978
170 0.000962
179 0.0
185 0.0
185 0.0
141 0.0
78 0.002048
58 0.001965
60 0.0
74 0.000991
89 0.0
102 0.0
112 0.0
119 0.000993
123 0.000948
124 0.0
127 0.0
131 0.000998
141 0.000965
148 0.002043
156 0.000994
168 0.001993
177 0.0
183 0.0
188 0.0
173 0.001998
101 0.00102
58 0.0
57 0.0
61 0.000967
76 0.001029
88 0.001031
101 0.000998
117 0.001996
123 0.0
124 0.0
125 0.0
130 0.002005
137 0.002003
147 0.0
154 0.0
162 0.0
168 0.001033
174 0.001049
182 0.0
187 0.001001
150 0.0
100 0.000967
58 0.0
57 0.000958
66 0.002012
83 0.0
95 0.0
108 0.0
118 0.002
125 0.002035
130 0.0
133 0.001006
139 0.0
147 0.0
154 0.00098
161 0.001008
167 0.001967
176 0.0
183 0.0
188 0.0
194 0.002027
196 0.002032
158 0.0
76 0.000991
62 0.0
68 0.0
81 0.0
94 0.001959
106 0.00198
121 0.0
130 0.0
135 0.001019
139 0.002031
141 0.002043
148 0.000994
156 0.002001
165 0.000998
172 0.001007
178 0.001002
183 0.001994
189 0.001993
195 0.001982
197 0.001014
184 0.000978
115 0.002
72 0.002027
67 0.001976
77 0.001996
95 0.000995
108 0.001013
119 0.001992
128 0.002028
135 0.001982
138 0.001966
141 0.001997
145 0.001
150 0.001982
156 0.001995
167 0.002013
173 0.001992
180 0.000997
185 0.000979
187 0.000997
165 0.002992
94 0.003001
56 0.001981
57 0.000994
66 0.001994
78 0.002012
91 0.001995
111 0.001993
120 0.001998
126 0.000991
129 0.001005
132 0.000979
138 0.002962
144 0.003018
153 0.001009
160 0.000998
167 0.001003
173 0.000979
179 0.002993
180 0.001005
128 0.001982
69 0.001984
51 0.001999
56 0.000976
67 0.001961
79 0.002998
91 0.002998
106 0.001032
114 0.001992
119 0.001029
121 0.002959
126 0.000962
133 0.003002
140 0.004
150 0.002002
158 0.001998
164 0.001984
171 0.003008
177 0.003013
174 0.001964
117 0.001028
66 0.001032
52 0.003029
62 0.000998
73 0.002995
86 0.002998
102 0.001991
112 0.000973
118 0.001984
121 0.002978
123 0.002982
128 0.001996
134 0.002006
142 0.001027
149 0.002969
161 0.000997
168 0.002992
175 0.002993
182 0.001965
177 0.002011
118 0.001992
70 0.003986
58 0.002994
66 0.000989
77 0.001988
90 0.001972
103 0.003016
120 0.001995
126 0.002994
130 0.002991
134 0.002993
139 0.001984
145 0.001033
152 0.00401
158 0.002994
167 0.001003
173 0.001963
179 0.00198
184 0.00399
166 0.001965
98 0.00399
64 0.003989
61 0.001998
71 0.002034
83 0.001981
95 0.003969
107 0.003977
119 0.00201
124 0.003023
126 0.002037
128 0.001962
133 0.001992
140 0.003994
147 0.003988
157 0.002991
164 0.00295
170 0.002957
176 0.003991
175 0.004005
104 0.002991
62 0.002025
53 0.001954
64 0.002997
76 0.001978
88 0.00399
99 0.003999
112 0.002002
117 0.003002
119 0.002992
119 0.003987
123 0.003984
132 0.002982
140 0.003009
148 0.003007
160 0.003001
167 0.002997
174 0.003992
177 0.004
128 0.001989
71 0.002003
53 0.001976
54 0.003986
62 0.004984
77 0.002993
89 0.002991
100 0.002999
112 0.002984
114 0.003012
114 0.003988
117 0.003997
125 0.002986
133 0.001995
142 0.002995
150 0.003989
158 0.004985
168 0.002992
175 0.002973
181 0.002991
167 0.00299
98 0.003
63 0.00398
57 0.003977
62 0.004025
77 0.003991
90 0.003002
102 0.004987
112 0.004986
120 0.004977
126 0.003033
128 0.002991
137 0.002994
144 0.00299
152 0.002989
159 0.004988
167 0.004994
176 0.002992
181 0.002992
187 0.002995
193 0.004975
197 0.004984
188 0.002993
121 0.004024
63 0.003004
64 0.003001
74 0.002991
86 0.004995
99 0.004989
114 0.002987
124 0.002991
129 0.003992
132 0.004987
135 0.006017
139 0.004004
145 0.00303
158 0.003989
164 0.003005
171 0.002964
177 0.004984
182 0.004978
190 0.002992
191 0.003006
166 0.004008
95 0.005967
62 0.005998
60 0.003987
69 0.003995
89 0.004005
101 0.004956
112 0.003988
120 0.00499
125 0.005009
128 0.003989
130 0.00399
136 0.003988
142 0.005976
150 0.005983
160 0.004007
167 0.003989
177 0.003975
183 0.003996
186 0.003983
176 0.004992
106 0.00498
58 0.004984
55 0.003981
61 0.003986
73 0.005985
85 0.005988
101 0.003989
114 0.005985
122 0.003987
124 0.003973
126 0.003991
131 0.005982
138 0.006
148 0.004985
155 0.004994
162 0.005006
169 0.005962
176 0.005969
184 0.003996
187 0.006036
120 0.004986
69 0.004954
57 0.003987
59 0.004987
69 0.005937
86 0.004956
98 0.004967
110 0.005001
119 0.005985
124 0.006022
127 0.003996
131 0.005969
139 0.003991
146 0.004003
153 0.003989
160 0.006981
167 0.006981
175 0.004987
181 0.003975
186 0.00403
186 0.005973
148 0.006018
73 0.005007
61 0.005988
72 0.004026
85 0.004019
97 0.003993
110 0.007019
121 0.00697
131 0.005025
135 0.00502
139 0.00498
144 0.006981
150 0.006988
158 0.00498
167 0.005969
175 0.004985
181 0.005982
186 0.004024
191 0.005982
194 0.007013
179 0.004994
111 0.004954
70 0.003929
63 0.00498
69 0.007011
81 0.006981
102 0.007012
114 0.007982
126 0.005954
131 0.005005
135 0.005954
140 0.006982
144 0.006993
152 0.005977
159 0.004975
165 0.004991
171 0.007013
177 0.007014
186 0.007
187 0.006001
138 0.004988
77 0.004986
58 0.005995
60 0.00702
69 0.007015
86 0.004987
98 0.004987
110 0.005024
118 0.007019
124 0.006981
130 0.007018
134 0.007016
141 0.004999
147 0.004987
154 0.004996
161 0.007015
169 0.007976
175 0.005018
180 0.004986
170 0.004985
101 0.007011
58 0.00797
50 0.007013
59 0.006976
75 0.00495
86 0.006005
98 0.004989
107 0.006984
113 0.00702
115 0.005987
118 0.005976
123 0.004987
129 0.00695
143 0.005977
152 0.007948
160 0.007952
167 0.004986
172 0.005012
163 0.004927
97 0.006962
56 0.007013
47 0.005035
53 0.004996
63 0.005985
75 0.007948
93 0.005958
102 0.00794
107 0.007974
108 0.005983
110 0.005982
115 0.005951
125 0.007949
131 0.007945
141 0.005954
150 0.005016
157 0.005973
165 0.00798
174 0.00602
127 0.007967
71 0.007969
54 0.005993
54 0.00598
62 0.005991
77 0.007973
88 0.007974
99 0.004987
107 0.005988
111 0.005018
112 0.007972
116 0.007003
125 0.007998
133 0.007994
141 0.005985
149 0.005953
157 0.005993
165 0.007976
175 0.007964
181 0.005978
175 0.005985
95 0.006951
65 0.006976
62 0.006974
71 0.007978
82 0.007968
98 0.006985
110 0.006021
119 0.006013
125 0.007942
127 0.007979
130 0.00695
135 0.00602
141 0.005971
149 0.007937
162 0.005996
169 0.007955
178 0.006986
184 0.006983
189 0.006978
187 0.006965
112 0.007003
72 0.006983
65 0.006022
71 0.005964
82 0.006976
99 0.007977
116 0.005968
127 0.007979
131 0.008011
134 0.005998
135 0.006996
140 0.00697
147 0.007017
154 0.00698
160 0.006984
167 0.006981
174 0.005984
180 0.006936
189 0.005983
183 0.006013
98 0.006032
67 0.006014
63 0.005978
73 0.006979
80 0.006982
97 0.006947
109 0.007016
119 0.006968
128 0.00697
130 0.006964
131 0.004997
135 0.006016
144 0.00706
151 0.007142
158 0.006014
166 0.006021
172 0.006024
181 0.006016
187 0.006016
180 0.005979
137 0.006979
77 0.006951
59 0.006978
68 0.006972
79 0.006973
91 0.005986
106 0.006946
113 0.006985
119 0.006016
123 0.00598
125 0.006015
131 0.005985
137 0.005985
151 0.00598
159 0.00695
163 0.006028
172 0.006949
180 0.006963
187 0.005982
183 0.006012
128 0.00694
68 0.005984
61 0.006054
71 0.005984
83 0.005945
104 0.005981
116 0.006015
122 0.006981
131 0.006013
136 0.005984
142 0.006011
148 0.005964
154 0.005982
161 0.00598
167 0.005986
177 0.006969
183 0.007001
192 0.006018
193 0.005994
166 0.00598
99 0.005951
70 0.005983
70 0.005969
80 0.005976
93 0.005018
106 0.005047
118 0.005019
130 0.004978
137 0.005019
143 0.006007
147 0.006016
152 0.005966
158 0.005983
165 0.006068
174 0.005982
180 0.005982
186 0.005948
191 0.005991
188 0.00597
114 0.00598
70 0.005983
64 0.004967
73 0.004998
84 0.004986
97 0.004981
109 0.004986
122 0.005986
127 0.005998
130 0.005991
132 0.00598
137 0.005987
145 0.005985
152 0.005983
164 0.005017
171 0.004987
177 0.004976
182 0.004996
177 0.005002
93 0.005978
59 0.005985
53 0.004988
59 0.005987
70 0.005984
85 0.005056
97 0.006011
110 0.005981
118 0.005
120 0.004985
123 0.005007
128 0.004996
135 0.004986
145 0.005982
153 0.00497
160 0.004987
166 0.004963
173 0.004997
181 0.004987
157 0.005057
73 0.004956
55 0.004986
56 0.005984
65 0.004979
77 0.005024
92 0.004992
103 0.004991
114 0.004985
120 0.004991
123 0.004985
124 0.004985
131 0.004988
140 0.004986
147 0.003989
155 0.004995
162 0.004021
169 0.003987
178 0.004951
184 0.003999
185 0.004994
155 0.004969
86 0.004988
57 0.00499
62 0.005042
76 0.00501
89 0.004964
102 0.004989
114 0.003987
123 0.004028
131 0.003954
135 0.00399
140 0.003991
146 0.00501
152 0.004988
165 0.005018
171 0.005021
180 0.004987
185 0.004022
190 0.005019
195 0.00402
194 0.004021
130 0.003998
75 0.00399
61 0.004018
64 0.003989
75 0.003993
95 0.005023
107 0.004994
120 0.00398
127 0.005174
131 0.005009
133 0.003998
136 0.00499
143 0.003977
149 0.003995
155 0.003951
161 0.003999
167 0.004036
177 0.003992
183 0.003991
174 0.003979
108 0.003976
66 0.00495
57 0.003955
62 0.00299
76 0.00399
88 0.00399
101 0.003957
112 0.004
121 0.004026
130 0.004027
134 0.004023
141 0.003989
147 0.002981
154 0.003996
160 0.004042
167 0.003981
176 0.002954
182 0.002996
183 0.004005
148 0.003994
83 0.003989
58 0.003991
65 0.00399
81 0.003979
94 0.003997
108 0.003984
119 0.003967
128 0.003044
135 0.003973
140 0.002962
145 0.002996
151 0.003028
157 0.00403
168 0.003991
174 0.00399
182 0.003944
182 0.002958
148 0.003004
83 0.003054
60 0.002995
63 0.002985
73 0.00299
86 0.003956
99 0.002993
112 0.003026
127 0.003963
134 0.003988
140 0.004176
145 0.00399
151 0.002988
158 0.00399
164 0.003953
171 0.003952
179 0.003055
181 0.003004
160 0.002984
92 0.003019
57 0.003034
62 0.002964
72 0.002992
89 0.002996
102 0.003985
113 0.002019
122 0.004008
128 0.002999
134 0.002027
139 0.002013
145 0.001986
152 0.002994
162 0.002992
169 0.002991
175 0.002971
174 0.002981
124 0.002999
70 0.002998
55 0.00299
58 0.003
72 0.002992
86 0.002026
99 0.001996
117 0.002025
126 0.001995
131 0.002993
136 0.002962
143 0.002958
149 0.002947
155 0.002961
162 0.002999
169 0.003001
177 0.003008
182 0.002038
180 0.002001
84 0.002054
57 0.001995
54 0.002004
62 0.001995
78 0.00202
91 0.001993
104 0.001956
114 0.002027
121 0.001994
126 0.001958
129 0.002003
133 0.001964
144 0.001969
151 0.001992
158 0.001993
166 0.001984
175 0.001963
175 0.002993
130 0.001995
72 0.002033
53 0.001989
57 0.00203
68 0.001997
80 0.001993
100 0.001994
111 0.002011
119 0.002032
124 0.002
127 0.001963
132 0.001991
138 0.001996
144 0.000997
152 0.001997
162 0.001979
168 0.001961
174 0.001961
169 0.001995
103 0.002029
62 0.002025
52 0.001006
60 0.002044
71 0.000997
82 0.002018
94 0.002015
105 0.001995
115 0.001984
120 0.001998
122 0.001976
130 0.001
136 0.00099
144 0.000998
151 0.001035
161 0.000997
168 0.000999
175 0.001981
181 0.002016
180 0.00197
104 0.001991
65 0.002005
58 0.001964
71 0.000999
84 0.000998
96 0.002024
109 0.000959
121 0.001023
127 0.000997
130 0.002026
132 0.001962
136 0.001965
144 0.002006
151 0.001998
158 0.002004
169 0.000968
175 0.002033
181 0.001992
184 0.001033
167 0.000997
81 0.000958
58 0.001016
57 0.000967
65 0.000995
77 0.000956
94 0.001
106 0.002
121 0.001983
125 0.0
126 0.000997
128 0.000998
132 0.001004
141 0.000965
149 0.000998
157 0.000997
164 0.001072
170 0.000958
179 0.000997
182 0.000998
101 0.001028
63 0.000999
55 0.000983
60 0.0
71 0.0
87 0.0
99 0.0
109 0.0
117 0.0
123 0.0
125 0.0
129 0.0
136 0.000998
143 0.001004
151 0.000997
158 0.000944
165 0.0
175 0.000998
180 0.001003
179 0.0
128 0.0
73 0.0
55 0.0
62 0.0
77 0.0
89 0.0
100 0.0
110 0.001002
117 0.0
121 0.001
123 0.0
128 0.0
135 0.001002
142 0.0
152 0.0
162 0.0
172 0.0
179 0.0
185 0.000934
186 0.0
152 0.000959
75 0.000963
61 0.001003
65 0.000989
74 0.0
86 0.0
102 0.0
117 0.0
126 0.0
129 0.0
131 0.000937
134 0.0
139 0.000965
149 0.0
156 0.000975
163 0.000942
170 0.000958
176 0.0
184 0.0
176 0.0
90 0.0
62 0.0
59 0.0
64 0.0
79 0.000998
91 0.001994
102 0.0
115 0.00098
120 0.000996
121 0.0
121 0.001973
129 0.0
136 0.001031
144 0.001031
155 0.0
162 0.0
169 0.001015
177 0.00103
181 0.00098
160 0.000991
77 0.0
57 0.0
56 0.002
70 0.0
81 0.002031
92 0.002041
105 0.0
112 0.0
115 0.000998
115 0.001983
117 0.000988
125 0.0
133 0.0
142 0.0
150 0.001991
163 0.0
170 0.0
177 0.002036
181 0.001996
136 0.0
78 0.000965
59 0.0
59 0.002007
67 0.002982
81 0.000957
92 0.0
99 0.000993
116 0.000959
119 0.0
120 0.002027
123 0.002029
132 0.0
140 0.0
148 0.0
156 0.001997
164 0.002017
174 0.001019
180 0.0
189 0.0
180 0.0
114 0.0
72 0.001028
64 0.002038
72 0.0
83 0.0
95 0.0
107 0.002019
117 0.001995
126 0.0
129 0.0
130 0.0
134 0.0
140 0.001006
148 0.000986
155 0.001995
165 0.0
172 0.0
179 0.0
185 0.001962
188 0.001996
140 0.0
80 0.0
60 0.0
66 0.0
76 0.000953
87 0.002034
98 0.003034
112 0.0
118 0.000973
120 0.001007
120 0.001998
121 0.002015
129 0.000998
137 0.0
150 0.0
158 0.0
166 0.0
172 0.002028
179 0.00204
186 0.000978
175 0.0
106 0.0
66 0.002031
57 0.003003
64 0.0
74 0.0
92 0.0
103 0.0
111 0.0
116 0.001996
117 0.001997
118 0.0
123 0.0
130 0.0
138 0.001993
146 0.00296
158 0.000968
165 0.001986
176 0.001035
183 0.001993
187 0.002004
172 0.002047
103 0.002038
62 0.0
61 0.002
68 0.001002
79 0.002998
91 0.002963
106 0.001997
116 0.002
126 0.001979
128 0.001996
130 0.001997
135 0.00303
142 0.002055
153 0.001011
161 0.000986
168 0.0
175 0.002989
182 0.001989
190 0.000992
195 0.001963
189 0.000998
122 0.001003
75 0.0
65 0.002993
69 0.002992
83 0.000965
95 0.001987
107 0.002003
118 0.002987
125 0.002988
130 0.002001
129 0.001998
132 0.003008
140 0.001014
147 0.002016
155 0.001988
163 0.002997
170 0.002989
178 0.001995
185 0.002001
190 0.002001
186 0.002999
130 0.003993
68 0.002992
60 0.002992
71 0.001995
82 0.001953
94 0.001003
105 0.002987
115 0.002995
123 0.001997
124 0.002003
126 0.000997
129 0.00299
135 0.002984
148 0.004037
156 0.003043
166 0.001997
173 0.001995
179 0.001996
186 0.002993
191 0.003028
183 0.000988
113 0.001995
68 0.001943
58 0.00299
61 0.002992
79 0.002992
89 0.002993
105 0.001994
114 0.002006
120 0.001997
122 0.003997
122 0.00399
127 0.001994
133 0.001991
141 0.002961
149 0.002996
157 0.002971
168 0.002992
175 0.002992
184 0.002
188 0.001947
175 0.001997
106 0.00399
67 0.003995
60 0.001996
67 0.001983
79 0.001995
91 0.003992
103 0.003982
119 0.003993
126 0.003983
129 0.001947
132 0.002011
137 0.001998
143 0.00399
151 0.004015
161 0.001991
168 0.001963
175 0.002013
182 0.004024
187 0.003987
195 0.004025
193 0.004026
121 0.003002
74 0.001968
63 0.002007
68 0.00402
79 0.003994
95 0.001979
108 0.001996
119 0.001993
126 0.004992
130 0.004005
131 0.004025
134 0.004987
141 0.001995
148 0.002025
155 0.001967
162 0.003986
168 0.004017
177 0.001993
182 0.002013
185 0.001992
161 0.003989
91 0.00399
56 0.004953
59 0.004986
73 0.002946
85 0.002969
97 0.001986
109 0.006019
117 0.004988
122 0.00197
123 0.001985
126 0.002992
130 0.003988
138 0.003989
150 0.004987
157 0.004998
167 0.002045
174 0.00299
180 0.00299
185 0.004952
179 0.004981
92 0.003001
59 0.002999
54 0.002001
60 0.005002
70 0.003985
89 0.00402
100 0.005037
110 0.004983
117 0.002977
118 0.002986
119 0.002991
122 0.004987
129 0.004991
139 0.002997
148 0.001996
155 0.002996
167 0.002951
173 0.003973
180 0.006019
185 0.005984
167 0.002992
95 0.002035
61 0.002987
55 0.004952
60 0.004981
74 0.002998
85 0.002977
97 0.002976
112 0.002986
116 0.002989
117 0.006016
117 0.005999
122 0.00396
130 0.003047
138 0.00398
146 0.004998
154 0.004972
165 0.003007
171 0.003009
178 0.002987
188 0.002993
186 0.00299
137 0.006011
79 0.005977
60 0.003958
65 0.003974
76 0.003984
87 0.005986
100 0.004988
115 0.00301
123 0.003008
129 0.002991
132 0.004008
135 0.002994
141 0.005989
148 0.006035
158 0.002955
165 0.003991
172 0.003993
178 0.005943
184 0.005991
191 0.003993
195 0.002991
190 0.003989
89 0.003035
63 0.002989
61 0.005997
69 0.005987
84 0.003969
97 0.003992
108 0.00399
117 0.00598
124 0.005986
125 0.004006
125 0.00399
128 0.004956
139 0.00402
146 0.003998
154 0.006982
161 0.006016
171 0.003989
177 0.004024
183 0.004014
184 0.007014
150 0.006019
70 0.003982
55 0.00399
56 0.003995
72 0.003988
83 0.003987
95 0.005985
105 0.006025
115 0.004978
117 0.004975
118 0.004954
120 0.007017
125 0.006973
136 0.004961
144 0.003946
152 0.003953
164 0.003971
171 0.004949
178 0.006021
183 0.005984
173 0.00399
104 0.004987
64 0.004973
55 0.007014
59 0.006979
73 0.003961
83 0.003026
95 0.003969
111 0.004026
116 0.003995
118 0.006981
118 0.006017
124 0.004988
131 0.003976
139 0.003978
147 0.004994
154 0.007013
161 0.00703
170 0.004985
176 0.004994
184 0.004992
168 0.005033
100 0.00396
66 0.006982
61 0.00798
70 0.00498
82 0.00494
93 0.004943
105 0.007018
117 0.007947
127 0.003991
132 0.007976
135 0.004969
140 0.00499
146 0.004993
153 0.007016
161 0.006982
170 0.004989
176 0.004986
182 0.003989
188 0.006959
192 0.007979
181 0.00498
82 0.007979
65 0.005006
68 0.004964
78 0.004986
90 0.007002
103 0.007945
119 0.005001
128 0.004987
134 0.005937
137 0.007005
139 0.007977
143 0.005984
150 0.007979
159 0.004985
166 0.004986
172 0.005965
179 0.007978
184 0.007986
185 0.004986
143 0.004969
80 0.005007
58 0.007976
62 0.007973
72 0.005992
91 0.00797
103 0.005981
113 0.005986
121 0.006015
124 0.007979
126 0.007967
130 0.005015
135 0.00498
142 0.006007
149 0.007875
159 0.007972
166 0.005961
175 0.007979
181 0.005969
164 0.005982
94 0.005992
54 0.006986
51 0.007978
59 0.005993
69 0.00595
80 0.005983
95 0.006974
104 0.006972
110 0.006014
112 0.007982
114 0.005942
119 0.005983
126 0.005995
135 0.007975
146 0.007991
154 0.005984
162 0.005968
169 0.005972
178 0.008003
170 0.007953
87 0.00695
55 0.00798
55 0.005978
63 0.005981
73 0.005992
87 0.007028
95 0.007979
109 0.00698
114 0.006964
114 0.006952
116 0.006992
121 0.006984
128 0.006008
142 0.007977
151 0.005985
160 0.00598
167 0.005997
174 0.007984
184 0.007974
189 0.006954
172 0.006967
126 0.006014
71 0.006986
66 0.006987
73 0.006014
91 0.00702
103 0.006989
114 0.005975
123 0.006981
129 0.006939
133 0.005985
135 0.006978
139 0.006929
144 0.005984
151 0.006942
161 0.006983
168 0.007012
178 0.007026
184 0.007016
192 0.006974
195 0.00698
196 0.00699
143 0.00801
82 0.007012
64 0.005973
69 0.006013
79 0.005981
91 0.006995
106 0.006975
120 0.007011
126 0.006937
128 0.006982
128 0.006973
129 0.00698
135 0.006986
143 0.006016
152 0.006004
160 0.00598
167 0.005994
172 0.005951
181 0.00698
184 0.006982
149 0.007017
69 0.006986
54 0.005986
56 0.005949
64 0.005985
75 0.006019
91 0.00597
98 0.005982
110 0.005994
116 0.006016
120 0.005974
122 0.00602
128 0.007029
136 0.006966
147 0.005978
152 0.006981
164 0.006016
171 0.005975
179 0.005987
186 0.00619
190 0.005988
173 0.005985
70 0.006018
56 0.005987
57 0.006013
68 0.006028
79 0.005983
90 0.005973
101 0.005985
110 0.005018
115 0.006973
117 0.006025
119 0.005981
123 0.00596
136 0.005991
145 0.006019
153 0.006017
161 0.001994
170 0.005962
176 0.005985
183 0.006017
188 0.005017
174 0.004973
103 0.004966
67 0.004992
59 0.00598
70 0.005999
82 0.006016
94 0.005981
110 0.005986
120 0.005994
127 0.005984
130 0.005945
132 0.006004
139 0.005996
145 0.00599
152 0.005983
160 0.005986
171 0.005986
178 0.005026
184 0.005022
192 0.005015
197 0.004955
193 0.005
143 0.005023
84 0.006016
66 0.005994
71 0.006014
82 0.005988
95 0.005013
115 0.006941
124 0.005002
131 0.005023
135 0.004997
136 0.005018
138 0.005027
143 0.005022
150 0.005022
159 0.005985
165 0.005994
171 0.005983
177 0.006
187 0.005983
186 0.005041
144 0.005018
71 0.005018
60 0.005012
63 0.005025
73 0.004987
85 0.00502
102 0.004986
113 0.004987
121 0.004994
128 0.004992
129 0.004985
132 0.003992
138 0.005047
145 0.005021
154 0.005017
161 0.005033
168 0.005023
174 0.005021
180 0.005018
186 0.004959
177 0.004989
75 0.004994
56 0.005022
56 0.005028
64 0.004039
74 0.004026
90 0.004042
101 0.00402
111 0.003989
117 0.003988
120 0.00402
121 0.003981
124 0.003993
135 0.004993
143 0.005026
151 0.004981
158 0.005029
165 0.005018
174 0.004984
180 0.004984
180 0.004019
134 0.004022
76 0.004011
55 0.004011
59 0.003958
76 0.004999
88 0.005018
99 0.00497
109 0.004957
117 0.005021
120 0.006009
120 0.004023
123 0.003932
129 0.004021
137 0.004025
148 0.003994
156 0.003989
167 0.004049
174 0.004021
180 0.003947
185 0.003992
177 0.004003
95 0.005045
65 0.005019
61 0.00401
68 0.004023
79 0.004024
94 0.004022
106 0.003957
121 0.00396
125 0.003935
124 0.003992
124 0.003991
128 0.003972
137 0.004029
145 0.002993
153 0.00399
159 0.003967
166 0.004019
175 0.004029
180 0.003971
137 0.003992
79 0.004028
60 0.003986
60 0.004016
68 0.004027
82 0.003992
94 0.00399
106 0.004014
116 0.003013
122 0.002993
124 0.002992
125 0.002995
132 0.00399
140 0.003992
148 0.003992
155 0.003991
163 0.00402
172 0.00393
178 0.003001
183 0.003027
175 0.002992
111 0.003003
62 0.002961
57 0.003027
69 0.003958
79 0.002993
90 0.003992
101 0.003985
110 0.003947
115 0.003989
114 0.004001
114 0.00399
118 0.002942
125 0.003948
136 0.002992
145 0.002988
157 0.003056
165 0.002992
172 0.002996
177 0.002992
168 0.003991
88 0.003988
61 0.002992
58 0.003995
63 0.002991
73 0.003957
86 0.003944
101 0.00299
112 0.003027
116 0.002993
117 0.003059
119 0.003056
124 0.002999
132 0.003006
143 0.002992
151 0.002992
159 0.002992
167 0.002987
174 0.002993
184 0.00402
183 0.002992
116 0.003023
75 0.003028
65 0.002036
69 0.001995
78 0.001995
93 0.002991
104 0.001996
115 0.002999
122 0.003044
125 0.002992
123 0.002989
126 0.002993
135 0.001995
143 0.003026
151 0.001995
160 0.00198
166 0.002027
175 0.002046
182 0.002009
182 0.002003
137 0.002001
81 0.003044
62 0.002992
67 0.002992
80 0.00299
91 0.00301
102 0.002992
112 0.00298
118 0.001993
120 0.002028
120 0.001952
123 0.001952
129 0.001986
137 0.002031
151 0.002032
159 0.001961
169 0.001996
176 0.002
183 0.001997
183 0.001996
133 0.00204
72 0.002986
62 0.002005
65 0.001995
73 0.001995
83 0.002012
101 0.001995
111 0.002003
119 0.001995
120 0.002043
121 0.001996
125 0.000993
132 0.001996
143 0.002992
151 0.000998
160 0.000995
167 0.002043
174 0.001972
186 0.002035
190 0.001996
147 0.001994
87 0.002027
67 0.001998
67 0.001995
75 0.001998
90 0.001996
102 0.00199
114 0.001996
124 0.002041
131 0.000999
134 0.001037
136 0.000997
142 0.002027
150 0.000997
157 0.000998
165 0.001995
173 0.001995
181 0.001996
188 0.000998
194 0.000998
196 0.001996
167 0.001002
76 0.000998
67 0.002022
74 0.002034
85 0.000998
97 0.001995
109 0.001033
119 0.001995
129 0.00202
132 0.002038
133 0.002005
135 0.002021
143 0.000951
149 0.000998
155 0.001009
164 0.001996
170 0.00201
175 0.002013
182 0.002027
184 0.002027
125 0.001995
75 0.002058
61 0.001996
62 0.002028
78 0.000997
91 0.000998
103 0.001032
114 0.000998
124 0.000997
128 0.000998
129 0.000997
132 0.000998
138 0.000998
147 0.000982
155 0.0
162 0.0
175 0.000998
181 0.0
187 0.000997
192 0.0
164 0.0
91 0.0
63 0.00095
60 0.000997
66 0.000998
81 0.000991
95 0.001033
107 0.000997
124 0.000992
129 0.0
132 0.0
134 0.0
140 0.0
146 0.0
153 0.0
161 0.0
168 0.0
177 0.000999
183 0.000997
189 0.000998
190 0.000998
144 0.0
85 0.0
66 0.0
70 0.0
80 0.0
93 0.0
105 0.0
117 0.000995
129 0.0
135 0.0
139 0.0
142 0.0
148 0.00096
152 0.0
158 0.0
166 0.000997
173 0.000998
179 0.000997
187 0.000998
191 0.0
187 0.0
130 0.0
78 0.0
65 0.002026
76 0.0
84 0.0
100 0.001004
111 0.002013
121 0.002024
129 0.0
132 0.001009
132 0.000998
137 0.000998
142 0.003048
151 0.0
160 0.002027
168 0.0
175 0.000949
182 0.0
186 0.001992
174 0.002025
88 0.000998
59 0.0
56 0.0
64 0.002993
75 0.002071
90 0.0
108 0.002989
119 0.0
124 0.000999
128 0.0
130 0.001025
135 0.003024
144 0.0
150 0.0
157 0.001998
164 0.002981
170 0.002028
179 0.0
186 0.002023
157 0.0
85 0.0
57 0.0
53 0.002029
60 0.002028
74 0.000995
88 0.000965
99 0.0
109 0.000967
117 0.002996
119 0.0
119 0.002029
122 0.002033
130 0.0
138 0.0
146 0.0
155 0.002124
161 0.002027
171 0.0
177 0.0
176 0.0
134 0.002999
62 0.0
59 0.003017
66 0.003017
81 0.0
93 0.0
105 0.0
115 0.002027
122 0.002026
127 0.0
129 0.001043
133 0.000966
138 0.00203
150 0.0
157 0.00201
164 0.00298
172 0.0
178 0.0
184 0.0
185 0.002027
149 0.002024
74 0.0
61 0.0
64 0.0
73 0.002025
93 0.0
105 0.002011
114 0.001994
122 0.000998
123 0.0
122 0.000998
124 0.002992
130 0.002981
139 0.0
147 0.000953
154 0.0
161 0.002031
172 0.0
177 0.001958
166 0.001955
83 0.0
58 0.0
54 0.0
60 0.001995
71 0.001988
85 0.0
96 0.000943
105 0.000991
111 0.002996
111 0.0
112 0.003982
117 0.003036
126 0.000968
135 0.0
143 0.000965
150 0.002019
157 0.002014
166 0.0
172 0.0
175 0.0
134 0.001997
61 0.0
56 0.002992
60 0.003037
74 0.001035
84 0.0
95 0.0
104 0.002993
109 0.003032
110 0.0
109 0.0
112 0.0
118 0.002026
133 0.0
141 0.002043
150 0.002993
161 0.0
168 0.0
175 0.0
182 0.002972
187 0.003045
156 0.0
91 0.0
66 0.0
63 0.001993
77 0.0
87 0.002026
99 0.003023
113 0.001995
120 0.001005
124 0.0
124 0.002993
125 0.002992
132 0.001979
139 0.002009
148 0.002979
161 0.002961
167 0.0
174 0.003025
181 0.003028
189 0.003004
195 0.002985
195 0.0
156 0.00303
91 0.004037
66 0.001996
68 0.002014
77 0.0
96 0.001992
107 0.002
117 0.0
123 0.003028
124 0.002983
123 0.00201
124 0.00298
130 0.001995
137 0.002993
146 0.003028
157 0.002035
164 0.001995
176 0.002988
182 0.00097
188 0.002052
192 0.003022
179 0.002994
91 0.002963
64 0.002
60 0.002995
67 0.002995
76 0.002993
91 0.001994
101 0.002994
115 0.003013
119 0.001997
119 0.001994
120 0.00399
125 0.00399
134 0.001999
142 0.003002
151 0.003014
159 0.003995
166 0.002992
175 0.002003
182 0.0
191 0.002002
194 0.002991
172 0.001994
98 0.003989
62 0.003027
53 0.001996
60 0.002977
71 0.002003
83 0.00402
95 0.003967
111 0.00301
119 0.002024
127 0.003001
130 0.003022
134 0.001979
141 0.00399
149 0.004033
159 0.002003
166 0.002992
173 0.001963
179 0.003989
185 0.00399
193 0.001967
198 0.002027
197 0.002995
150 0.002024
87 0.002025
68 0.003989
68 0.004022
81 0.001994
93 0.003004
105 0.002025
116 0.003997
125 0.004987
133 0.003008
136 0.00299
140 0.001993
146 0.002987
152 0.002003
158 0.004987
164 0.003979
173 0.001998
179 0.002004
184 0.001982
189 0.00498
194 0.004985
176 0.001996
106 0.003004
62 0.001999
64 0.003001
74 0.001998
85 0.004992
97 0.004986
112 0.001995
121 0.001995
127 0.001983
131 0.004948
134 0.005012
139 0.001963
145 0.003002
156 0.002953
163 0.002999
169 0.002994
175 0.004987
181 0.004986
189 0.002994
189 0.00299
158 0.002025
87 0.005023
59 0.004981
58 0.00299
70 0.006
85 0.002991
97 0.002958
108 0.003009
117 0.005028
122 0.004988
126 0.005018
130 0.002029
135 0.002023
141 0.002054
148 0.005033
155 0.005033
166 0.005975
172 0.004976
180 0.002955
186 0.002985
185 0.002989
148 0.005019
84 0.005018
59 0.001997
63 0.003994
73 0.002962
85 0.005017
98 0.00599
116 0.00499
124 0.005859
131 0.002025
134 0.002999
139 0.003024
144 0.005989
150 0.005984
159 0.003006
165 0.003016
171 0.002973
177 0.004986
183 0.00502
189 0.005988
177 0.005997
93 0.003022
66 0.002993
64 0.002983
71 0.006017
83 0.005984
99 0.002984
111 0.003987
120 0.003958
126 0.005022
130 0.005022
135 0.005994
139 0.005983
146 0.002996
152 0.00299
159 0.002993
165 0.005955
171 0.006015
179 0.003012
178 0.002947
138 0.003032
76 0.006026
55 0.005848
59 0.005992
69 0.006039
85 0.00399
97 0.003984
107 0.003995
114 0.005982
119 0.006041
121 0.003985
125 0.002978
131 0.002977
138 0.006017
145 0.005996
156 0.006947
163 0.005949
172 0.003979
173 0.004985
142 0.003989
78 0.006016
54 0.00603
52 0.00399
60 0.003974
71 0.003988
82 0.005984
93 0.004977
107 0.00698
111 0.006013
113 0.003994
116 0.003992
122 0.003993
129 0.006975
137 0.006981
148 0.003991
155 0.003988
162 0.00299
169 0.005988
174 0.005993
118 0.00698
69 0.006943
55 0.004988
61 0.003991
71 0.004988
82 0.007018
94 0.00695
109 0.003995
117 0.003982
122 0.004975
124 0.006982
129 0.003968
136 0.006015
143 0.006981
153 0.003997
160 0.00499
167 0.003999
173 0.007008
179 0.00698
181 0.004989
142 0.003989
84 0.003979
65 0.007013
71 0.004025
81 0.004987
93 0.007029
104 0.006975
118 0.003956
125 0.003988
127 0.003985
127 0.007016
129 0.007033
136 0.005001
143 0.004018
150 0.004984
162 0.003955
169 0.004986
175 0.006972
178 0.006952
127 0.004027
75 0.004027
60 0.004989
61 0.007011
69 0.006928
83 0.003989
95 0.004972
106 0.004034
118 0.005032
120 0.004989
121 0.00797
125 0.00798
132 0.00498
139 0.005001
147 0.004988
155 0.006983
162 0.007012
172 0.004958
178 0.004987
172 0.005945
78 0.005021
58 0.004999
59 0.007978
67 0.007968
77 0.004987
87 0.005984
98 0.006001
107 0.006981
113 0.007978
113 0.006002
115 0.00597
119 0.005998
132 0.005016
141 0.004973
149 0.007961
160 0.007977
167 0.004988
175 0.005018
180 0.004988
143 0.007977
84 0.007959
64 0.005019
61 0.005018
68 0.006013
85 0.003983
96 0.004987
110 0.007991
115 0.007979
121 0.005938
122 0.004979
125 0.004943
131 0.008013
141 0.007968
149 0.004992
157 0.005003
165 0.005961
177 0.005977
183 0.005961
191 0.006981
189 0.006988
140 0.006927
86 0.006929
70 0.005982
74 0.007982
85 0.006995
96 0.00595
108 0.005005
120 0.005004
133 0.005018
136 0.005961
139 0.006984
143 0.007034
149 0.005929
155 0.005969
163 0.005972
172 0.007978
178 0.007983
184 0.005998
190 0.005983
195 0.00598
164 0.003925
97 0.004983
69 0.00795
70 0.006961
83 0.006968
90 0.005965
102 0.006979
117 0.008017
125 0.00696
129 0.005972
130 0.005986
133 0.005995
137 0.003986
144 0.005023
155 0.007975
162 0.007022
169 0.006934
178 0.00695
184 0.006977
182 0.006981
132 0.007978
78 0.006986
63 0.005984
69 0.005998
79 0.005983
91 0.005011
103 0.00499
116 0.006978
123 0.007012
126 0.005
126 0.005978
128 0.00698
135 0.005985
142 0.005992
153 0.005987
163 0.006963
170 0.004971
176 0.005021
182 0.005996
168 0.006982
102 0.006991
63 0.005992
62 0.006014
69 0.005976
80 0.006014
92 0.006002
108 0.006702
120 0.006985
126 0.005987
129 0.005984
132 0.005983
138 0.005968
145 0.006018
155 0.005979
162 0.005983
169 0.005992
175 0.006017
182 0.006015
190 0.005992
180 0.006981
115 0.005983
70 0.005979
68 0.005977
75 0.006016
86 0.006018
103 0.006963
115 0.006978
125 0.006959
132 0.006018
137 0.005939
141 0.005981
146 0.005985
154 0.005981
161 0.005981
168 0.005984
174 0.006013
179 0.005985
188 0.005996
193 0.006076
191 0.006951
153 0.004963
92 0.005985
70 0.005986
78 0.005986
94 0.005986
107 0.005975
118 0.004999
128 0.00597
135 0.006015
139 0.00599
141 0.004978
144 0.004973
149 0.005021
155 0.005026
164 0.004988
172 0.005991
180 0.006017
186 0.005979
186 0.005978
153 0.005985
89 0.006047
64 0.006027
67 0.005991
77 0.005981
89 0.005975
101 0.004965
117 0.004966
128 0.004988
134 0.004996
136 0.004983
140 0.004984
145 0.005023
151 0.006026
160 0.006012
167 0.005968
173 0.00598
179 0.005018
185 0.005016
180 0.004995
97 0.004984
59 0.004968
58 0.005975
67 0.00499
78 0.00498
91 0.004987
107 0.005995
117 0.006037
124 0.005377
127 0.004945
129 0.003989
136 0.004986
142 0.00402
151 0.005009
158 0.005036
165 0.005019
171 0.004977
177 0.005005
183 0.004999
169 0.00503
102 0.005026
66 0.004981
60 0.005023
74 0.00498
87 0.004984
100 0.005005
115 0.004023
124 0.003957
130 0.00398
134 0.004027
137 0.003953
143 0.004993
149 0.004992
156 0.005006
162 0.004985
173 0.004983
179 0.004986
186 0.004988
187 0.004981
150 0.004987
87 0.004991
64 0.004026
64 0.00402
76 0.003978
89 0.003986
101 0.00395
113 0.004022
126 0.003989
130 0.004988
132 0.004953
135 0.00498
141 0.004981
147 0.004986
153 0.004987
160 0.00399
168 0.00399
175 0.004023
179 0.004032
167 0.004022
70 0.003985
55 0.003959
57 0.003959
70 0.002988
82 0.003958
94 0.003989
106 0.005026
115 0.004022
120 0.003989
122 0.004022
124 0.004021
128 0.00399
140 0.003954
148 0.003979
155 0.00398
164 0.00399
171 0.003989
177 0.003989
174 0.002986
118 0.002992
61 0.002992
54 0.003948
59 0.004021
70 0.003989
90 0.003997
102 0.003974
112 0.003958
119 0.003971
120 0.003964
121 0.003955
124 0.003989
130 0.003949
140 0.004039
148 0.004034
154 0.003027
161 0.003949
174 0.003958
178 0.00396
160 0.002992
82 0.00299
63 0.004017
64 0.003998
73 0.002981
84 0.002991
100 0.002991
111 0.002992
120 0.002986
125 0.003958
130 0.00393
133 0.003954
138 0.003951
148 0.003986
154 0.003988
161 0.004254
167 0.003967
173 0.002993
182 0.003956
184 0.003942
161 0.003999
71 0.002955
62 0.003962
67 0.002966
77 0.002963
93 0.003027
105 0.002996
116 0.002984
124 0.002992
128 0.004038
129 0.003034
131 0.003037
137 0.003024
149 0.003953
156 0.003959
163 0.003955
168 0.002986
176 0.002996
181 0.002993
169 0.003009
104 0.003024
66 0.002993
58 0.003025
67 0.00302
78 0.001989
97 0.002038
109 0.002032
118 0.003008
123 0.001996
124 0.003012
127 0.002995
131 0.002991
138 0.002992
146 0.002991
153 0.002973
163 0.003027
170 0.003025
180 0.002013
179 0.002
130 0.001959
73 0.003016
55 0.002962
57 0.002039
66 0.00299
77 0.002982
88 0.002028
100 0.002992
112 0.003024
115 0.002021
116 0.002975
122 0.002993
128 0.002964
136 0.003029
145 0.002957
157 0.00299
165 0.003003
172 0.002042
180 0.001995
184 0.002043
154 0.002003
91 0.002029
66 0.00199
72 0.002003
83 0.002959
94 0.002018
107 0.003004
123 0.001979
130 0.00199
135 0.002003
138 0.001996
141 0.001996
147 0.002037
153 0.001986
164 0.001991
170 0.003005
176 0.002031
183 0.000994
189 0.001997
193 0.001981
172 0.001031
105 0.001954
73 0.000997
69 0.001996
80 0.002013
92 0.001999
112 0.001995
123 0.002035
130 0.001991
134 0.002025
138 0.001996
141 0.001991
146 0.001993
152 0.001995
158 0.002
165 0.000996
172 0.001995
178 0.001994
185 0.001996
178 0.001995
118 0.001995
72 0.001994
61 0.001995
66 0.001995
76 0.000997
89 0.000993
101 0.000997
112 0.001996
123 0.001031
126 0.001005
131 0.001995
136 0.002009
143 0.001985
150 0.001988
158 0.001982
168 0.001966
175 0.001992
181 0.001008
187 0.000997
187 0.001035
121 0.000997
66 0.001999
62 0.000962
71 0.001996
82 0.001995
93 0.001991
104 0.002017
116 0.00199
121 0.002004
122 0.001051
122 0.000998
127 0.000997
136 0.000997
149 0.002
159 0.002019
167 0.001989
174 0.000979
180 0.001995
186 0.0
188 0.001996
148 0.000996
85 0.000998
65 0.001996
66 0.0
79 0.000998
97 0.000944
113 0.000962
124 0.000996
131 0.000968
135 0.001964
136 0.00196
139 0.001029
145 0.000999
151 0.0
158 0.000994
165 0.001023
172 0.0
182 0.0
187 0.0
188 0.001003
149 0.000997
85 0.001008
63 0.0
63 0.0
76 0.0
89 0.0
102 0.001002
114 0.000998
123 0.000997
132 0.000961
135 0.001002
139 0.000997
145 0.0
151 0.0
157 0.0
162 0.0
170 0.0
176 0.0
182 0.0
186 0.0
180 0.0
82 0.0
60 0.0
63 0.0
73 0.0
86 0.0
98 0.000997
110 0.0
122 0.0
128 0.0
132 0.0
135 0.0
140 0.0
151 0.0
158 0.0
167 0.0
173 0.0
179 0.000959
185 0.0
190 0.000969
184 0.0
125 0.0
72 0.0
59 0.000969
66 0.0
87 0.00096
95 0.0
112 0.0
122 0.000964
130 0.0
132 0.0
135 0.00099
140 0.001022
146 0.000997
152 0.0
159 0.0
165 0.0
178 0.000991
183 0.0
189 0.0
190 0.000967
152 0.000955
87 0.000955
63 0.0
63 0.001005
72 0.003038
88 0.0
101 0.0
120 0.0
127 0.0
130 0.0
132 0.000997
134 0.002985
140 0.001014
146 0.001034
153 0.0
159 0.003044
165 0.00304
174 0.000967
179 0.0
171 0.0
108 0.0
65 0.0
56 0.00299
61 0.003014
75 0.000984
88 0.001002
100 0.000971
111 0.002
119 0.00299
124 0.0
126 0.0
133 0.001983
139 0.0
146 0.0
152 0.002991
159 0.004024
168 0.001012
174 0.0
180 0.000963
179 0.002982
132 0.002992
61 0.0
51 0.0
61 0.0
72 0.0
84 0.000963
95 0.001024
106 0.002949
113 0.002993
116 0.0
116 0.000966
119 0.001008
125 0.002027
133 0.002992
143 0.001
153 0.002996
162 0.0
169 0.0
174 0.0
169 0.003014
110 0.002992
58 0.0
54 0.0
60 0.0
70 0.003026
82 0.002029
98 0.0
111 0.001993
119 0.001003
122 0.0
124 0.0
129 0.002993
135 0.002993
145 0.0
152 0.001008
159 0.001001
166 0.003024
172 0.002991
179 0.0
178 0.002984
104 0.000997
66 0.000989
59 0.000967
65 0.001996
76 0.002991
91 0.0
103 0.0
114 0.001
121 0.00295
125 0.002988
126 0.0
131 0.002985
139 0.0
146 0.001032
153 0.0
159 0.00299
166 0.00199
174 0.0
176 0.0
153 0.0
89 0.003033
60 0.003025
58 0.0
69 0.002996
84 0.0
96 0.0
106 0.000968
114 0.001993
116 0.001977
116 0.000956
118 0.001002
124 0.001003
132 0.003027
140 0.003029
151 0.001963
160 0.002992
169 0.000957
173 0.0
155 0.0
90 0.002992
60 0.003023
54 0.0
62 0.001017
72 0.001021
83 0.001973
94 0.002029
108 0.002002
111 0.003017
111 0.0
113 0.0
119 0.0
127 0.003003
135 0.002971
146 0.0
154 0.000979
162 0.001003
169 0.002028
175 0.002983
164 0.00298
98 0.00299
60 0.0
58 0.0
65 0.0
75 0.002998
85 0.002992
100 0.0
109 0.000961
113 0.0
114 0.003027
115 0.004037
122 0.003981
129 0.003117
141 0.00305
149 0.003056
157 0.002992
164 0.0
171 0.002968
178 0.003001
185 0.001993
179 0.0
121 0.002028
75 0.002992
64 0.001994
72 0.003995
83 0.003992
99 0.002993
110 0.001996
119 0.001995
125 0.00399
126 0.003956
126 0.00301
130 0.002991
137 0.002991
144 0.002994
157 0.00299
164 0.003003
171 0.002996
179 0.001998
185 0.002004
191 0.001984
192 0.003953
167 0.004012
85 0.002991
68 0.002989
69 0.002992
77 0.00399
96 0.002027
107 0.003993
118 0.003968
127 0.002998
129 0.002992
129 0.002996
131 0.004009
137 0.004018
146 0.002996
154 0.002994
162 0.001997
169 0.004021
179 0.003957
184 0.003988
188 0.003965
164 0.002949
96 0.002982
67 0.003
63 0.003964
69 0.005009
84 0.002994
95 0.00299
107 0.001998
118 0.004027
127 0.003033
128 0.003989
129 0.004025
135 0.002023
142 0.002988
149 0.00299
156 0.003988
164 0.003991
173 0.002992
178 0.002987
184 0.002991
189 0.005018
144 0.002992
83 0.004988
63 0.004973
65 0.002994
75 0.002992
86 0.002985
98 0.003996
109 0.00493
120 0.00299
125 0.002992
125 0.003007
129 0.002999
134 0.003005
142 0.003984
150 0.003953
161 0.002989
168 0.001992
174 0.002988
181 0.003958
187 0.004013
182 0.002005
123 0.003022
77 0.002996
66 0.002991
75 0.001982
86 0.004984
99 0.004993
115 0.002993
124 0.002992
131 0.002991
136 0.004996
139 0.00498
144 0.001995
150 0.003021
157 0.002986
168 0.003
175 0.003007
181 0.004981
187 0.004985
194 0.002938
195 0.002949
168 0.002037
101 0.00502
73 0.004982
72 0.001989
82 0.002992
95 0.002009
116 0.002998
127 0.00299
135 0.00299
140 0.005971
143 0.005949
147 0.001973
152 0.002987
157 0.004012
163 0.004984
169 0.004985
177 0.002989
183 0.002986
191 0.003003
187 0.001983
140 0.002352
84 0.004985
68 0.004984
73 0.002999
84 0.001994
96 0.002983
109 0.005978
121 0.005983
132 0.002993
137 0.002989
142 0.002999
146 0.003012
151 0.002992
158 0.00599
163 0.005988
172 0.002
179 0.00299
184 0.003957
184 0.005984
161 0.005994
85 0.002993
68 0.002988
76 0.003023
87 0.003989
100 0.002997
112 0.006029
123 0.005984
133 0.003011
137 0.003031
140 0.002949
144 0.00499
148 0.005989
156 0.002991
163 0.003959
173 0.003026
178 0.002989
179 0.002924
153 0.005938
93 0.006012
63 0.003009
64 0.003006
71 0.003037
82 0.005984
95 0.005968
110 0.003941
119 0.003989
126 0.002988
127 0.003022
130 0.003988
135 0.00595
141 0.005955
150 0.002992
157 0.002992
163 0.002987
161 0.006012
115 0.005981
57 0.002993
48 0.004022
56 0.003026
65 0.003942
76 0.003942
88 0.006023
97 0.006977
102 0.002992
103 0.003087
105 0.003988
109 0.005988
115 0.006977
127 0.002993
138 0.00697
148 0.003997
155 0.003971
146 0.003959
87 0.006942
53 0.006982
44 0.004009
49 0.00294
58 0.003956
67 0.00699
77 0.006984
88 0.002966
93 0.007016
93 0.003016
96 0.00302
102 0.003989
109 0.006981
118 0.00699
130 0.003989
139 0.003025
147 0.003994
154 0.007025
160 0.007013
122 0.003046
70 0.006983
60 0.004989
66 0.003987
74 0.003994
84 0.007937
93 0.007982
103 0.003988
106 0.003972
107 0.003992
107 0.006968
109 0.007053
116 0.004022
126 0.00699
136 0.003978
143 0.00399
149 0.004995
155 0.003984
160 0.007016
167 0.007943
166 0.002949
123 0.004989
90 0.003957
82 0.007979
84 0.007983
98 0.006968
106 0.007017
116 0.004001
121 0.005025
121 0.00398
119 0.007984
118 0.007978
121 0.004962
126 0.004984
132 0.00403
139 0.007962
145 0.007978
152 0.007973
156 0.007975
161 0.00399
165 0.004935
167 0.005005
130 0.00798
106 0.00798
88 0.003995
89 0.00502
96 0.004969
108 0.007978
116 0.007979
124 0.007947
126 0.00797
123 0.00499
120 0.005007
121 0.005009
124 0.007967
130 0.00797
135 0.004991
140 0.004997
145 0.00502
150 0.007962
152 0.007974
158 0.007978
161 0.007971
143 0.004995
108 0.004979
91 0.005025
89 0.006951
96 0.006984
105 0.004979
113 0.004002
120 0.00399
125 0.007981
126 0.007989
123 0.007976
121 0.00792
124 0.003989
128 0.004943
135 0.004932
143 0.006983
148 0.006939
155 0.005002
161 0.005958
165 0.004983
172 0.006982
162 0.005953
100 0.007021
79 0.006979
77 0.004965
85 0.004963
98 0.004961
113 0.006999
120 0.007973
130 0.003988
131 0.004992
128 0.003979
123 0.006971
125 0.005971
133 0.006978
140 0.006985
147 0.003978
152 0.005022
158 0.004981
166 0.007943
171 0.006998
176 0.003975
163 0.004854
114 0.004987
79 0.006985
80 0.005989
95 0.006978
107 0.006953
117 0.005956
126 0.004978
131 0.00494
129 0.00699
126 0.005986
125 0.005964
129 0.005977
132 0.00502
141 0.006964
151 0.005943
157 0.006982
161 0.007017
165 0.004967
170 0.004989
174 0.004988
157 0.006012
108 0.005968
80 0.005989
74 0.004983
81 0.005042
93 0.004977
114 0.005988
121 0.004986
129 0.007009
129 0.006981
125 0.004982
122 0.005959
124 0.005959
128 0.005987
