62 0.035905
62 0.003959
70 0.002991
79 0.003962
88 0.003022
91 0.002992
88 0.003991
90 0.002993
96 0.002994
106 0.002992
115 0.003002
126 0.002993
140 0.00399
147 0.002992
153 0.003992
160 0.003991
167 0.00396
175 0.003957
183 0.002992
157 0.002993
111 0.002992
74 0.002993
62 0.002994
61 0.002993
71 0.00296
79 0.002947
89 0.003003
95 0.002987
97 0.002962
95 0.002993
99 0.003957
105 0.001985
120 0.002994
131 0.002987
142 0.002992
154 0.002957
165 0.002992
174 0.002992
183 0.003995
191 0.002018
198 0.001994
204 0.002029
199 0.002024
161 0.001962
104 0.001995
87 0.001957
87 0.002963
94 0.003002
101 0.002992
115 0.002992
122 0.002965
123 0.002989
120 0.002961
120 0.002047
125 0.001991
133 0.001994
145 0.001969
155 0.001993
163 0.003001
170 0.001994
175 0.002951
181 0.002993
187 0.002959
193 0.001995
198 0.001994
156 0.001969
116 0.002034
93 0.001995
83 0.002003
84 0.001995
88 0.000999
97 0.001989
103 0.001947
107 0.002008
104 0.002993
102 0.002953
105 0.001979
120 0.001946
131 0.002025
142 0.001958
154 0.001995
164 0.00199
171 0.001994
177 0.001993
183 0.001996
188 0.000998
174 0.002028
131 0.002045
87 0.00103
60 0.001994
63 0.001992
70 0.002004
85 0.002031
96 0.001995
102 0.002034
101 0.00203
101 0.001996
104 0.001997
111 0.001995
120 0.002028
132 0.001046
158 0.001995
173 0.002004
187 0.002002
201 0.000998
206 0.001001
208 0.000997
203 0.000998
169 0.001955
108 0.00198
86 0.002001
81 0.002008
86 0.001947
106 0.001964
120 0.00098
130 0.000968
130 0.000965
121 0.000952
116 0.000967
118 0.000997
122 0.000999
133 0.000983
141 0.001981
149 0.001991
158 0.000987
171 0.001966
177 0.001003
182 0.000999
155 0.000978
113 0.000967
81 0.001954
69 0.001964
68 0.000983
77 0.000999
88 0.000996
99 0.00096
108 0.00096
110 0.000967
109 0.000968
110 0.000994
114 0.000998
123 0.000998
137 0.000998
149 0.000998
158 0.000997
172 0.000998
182 0.000998
188 0.001036
178 0.000998
105 0.000997
73 0.000998
61 0.000998
60 0.000998
69 0.0
79 0.000997
89 0.001019
95 0.000998
95 0.000998
91 0.001
92 0.001058
98 0.000996
114 0.001022
125 0.000998
136 0.000998
145 0.000999
157 0.000997
165 0.0
163 0.0
132 0.0
86 0.0
47 0.00099
44 0.0
57 0.000997
70 0.001023
82 0.000988
88 0.000999
88 0.000998
84 0.001
84 0.000998
89 0.000967
97 0.000966
107 0.0
119 0.0
129 0.0
144 0.0
149 0.0
139 0.0
103 0.0
57 0.0
29 0.000966
29 0.0
37 0.0
50 0.0
64 0.0
75 0.0
76 0.0
71 0.000966
74 0.0
82 0.0
91 0.0
103 0.000967
116 0.000999
126 0.0
137 0.0
145 0.0
145 0.0
100 0.0
47 0.0
17 0.0
21 0.0
31 0.0
43 0.0
54 0.0
62 0.0
62 0.000998
60 0.0
64 0.0
69 0.000965
82 0.0
93 0.0
110 0.0
121 0.0
131 0.0
139 0.0
140 0.0
95 0.0
42 0.0
11 0.0
13 0.0
22 0.0
33 0.000998
46 0.001001
62 0.000997
64 0.000998
65 0.0
68 0.0
76 0.000999
92 0.000963
103 0.0
118 0.0
128 0.0
136 0.0
144 0.000998
152 0.000997
145 0.000997
102 0.000997
38 0.0
26 0.0
31 0.0
40 0.000997
50 0.000997
66 0.0
71 0.000995
71 0.0
70 0.000998
73 0.000998
86 0.000997
95 0.001029
108 0.0
116 0.0
121 0.0
126 0.0
133 0.001
144 0.001058
149 0.0
151 0.000965
109 0.000997
56 0.001996
20 0.000993
24 0.000998
35 0.0
41 0.00096
56 0.0
62 0.001007
63 0.000999
65 0.001011
70 0.0
79 0.0
90 0.0
110 0.0
120 0.0
129 0.001018
138 0.000997
147 0.000999
154 0.000959
161 0.000999
169 0.001995
178 0.000999
168 0.000964
119 0.0
64 0.001008
38 0.0
43 0.001035
53 0.000999
62 0.000998
73 0.000993
79 0.000998
82 0.000985
85 0.002028
89 0.002028
100 0.001041
110 0.000988
121 0.002022
136 0.001034
146 0.001051
157 0.001064
165 0.000999
175 0.0
183 0.001026
190 0.001144
198 0.002027
206 0.001995
218 0.001024
224 0.001031
207 0.000998
118 0.001028
93 0.000984
93 0.002029
99 0.001967
108 0.001029
115 0.000999
121 0.001048
122 0.001995
121 0.00203
120 0.00203
122 0.002041
128 0.002029
145 0.000998
154 0.000997
163 0.002028
169 0.001995
177 0.001032
181 0.001033
186 0.001076
191 0.001999
199 0.002992
208 0.000998
213 0.002023
194 0.002031
131 0.002026
108 0.002025
109 0.001995
116 0.001994
127 0.000997
133 0.001034
139 0.000998
141 0.002036
139 0.001995
139 0.001045
142 0.002029
150 0.00206
163 0.002034
171 0.002037
177 0.00203
184 0.002031
190 0.002046
194 0.001995
201 0.001983
206 0.003023
211 0.001995
219 0.002031
226 0.002027
225 0.002026
157 0.002026
121 0.002026
113 0.002992
117 0.001995
124 0.002026
130 0.002158
137 0.00103
141 0.002994
140 0.003041
137 0.002029
138 0.002027
140 0.002028
150 0.00201
157 0.001067
164 0.002969
172 0.003022
179 0.001985
184 0.00099
187 0.00198
193 0.00203
196 0.003031
204 0.001995
210 0.001995
211 0.002024
160 0.001997
121 0.002025
111 0.003032
112 0.002995
120 0.00203
126 0.002029
130 0.00198
133 0.002052
133 0.004026
129 0.003037
126 0.003017
132 0.003047
138 0.003044
142 0.003024
150 0.002988
158 0.003023
164 0.002992
169 0.002997
175 0.002976
179 0.001995
184 0.003026
190 0.002989
195 0.002967
168 0.003999
114 0.003023
98 0.003029
97 0.003028
101 0.003028
108 0.003022
115 0.003032
120 0.003032
120 0.001985
119 0.002992
116 0.004023
116 0.003033
123 0.00402
133 0.002844
140 0.003022
146 0.003024
153 0.003987
159 0.002992
163 0.003041
167 0.002997
172 0.002995
179 0.00399
184 0.003986
182 0.003
132 0.003024
89 0.003945
70 0.002992
71 0.003028
75 0.00399
80 0.003983
85 0.002979
89 0.002992
88 0.003014
86 0.00399
84 0.003959
89 0.004026
97 0.002982
105 0.003027
112 0.004026
122 0.002962
130 0.003993
135 0.003989
144 0.003028
149 0.003019
154 0.003026
159 0.005023
163 0.003989
138 0.004024
77 0.004037
52 0.004031
48 0.004012
53 0.00402
62 0.004022
69 0.004027
77 0.00302
77 0.002991
73 0.003991
72 0.004987
75 0.004987
83 0.003986
95 0.00502
107 0.004006
117 0.004024
125 0.004021
132 0.004021
139 0.004033
147 0.004036
155 0.002993
153 0.004025
125 0.003989
85 0.004988
59 0.00405
61 0.005021
72 0.004023
81 0.004023
88 0.004018
92 0.005022
91 0.004021
90 0.004026
89 0.004024
92 0.004988
102 0.003989
109 0.004987
120 0.004021
129 0.005024
138 0.00402
143 0.004018
148 0.00402
154 0.004987
149 0.004986
100 0.004023
69 0.004987
38 0.004025
32 0.004986
37 0.004997
48 0.004984
56 0.004997
60 0.004021
59 0.003993
59 0.004035
60 0.004987
66 0.005017
76 0.004026
86 0.004029
92 0.004996
104 0.005038
111 0.004987
122 0.005026
129 0.005018
135 0.003994
120 0.004022
73 0.004019
30 0.005023
13 0.004987
14 0.004021
20 0.005022
26 0.00504
34 0.00502
41 0.004987
43 0.005017
42 0.00499
45 0.004987
55 0.004041
64 0.003989
72 0.004989
82 0.005018
92 0.00603
103 0.005043
110 0.005034
119 0.005015
124 0.00599
99 0.005071
37 0.006015
15 0.005017
13 0.005028
26 0.003994
37 0.004019
47 0.005018
56 0.00502
59 0.004025
59 0.00498
61 0.005025
68 0.006021
84 0.005018
95 0.005984
103 0.005988
112 0.004989
123 0.004018
128 0.005017
137 0.004987
144 0.004991
131 0.005023
83 0.005017
35 0.004995
13 0.005605
20 0.005004
29 0.005984
39 0.004986
48 0.005023
55 0.003978
56 0.004995
58 0.005983
63 0.006016
73 0.004988
84 0.004981
94 0.005025
102 0.006022
115 0.006017
121 0.006013
127 0.005975
135 0.006024
140 0.006039
147 0.006018
138 0.006019
86 0.005984
29 0.006018
0 0.005014
0 0.005019
7 0.005984
25 0.005019
37 0.00599
44 0.005985
46 0.006032
48 0.006016
52 0.005973
64 0.005981
75 0.005984
87 0.00602
102 0.004972
111 0.005021
120 0.006983
132 0.00599
140 0.006945
146 0.007023
155 0.006021
164 0.006016
171 0.006015
162 0.006984
111 0.006984
51 0.005948
21 0.007017
17 0.00602
30 0.007023
52 0.004987
63 0.006016
69 0.007013
71 0.006022
72 0.006014
77 0.006016
86 0.006974
97 0.00704
112 0.00603
123 0.003035
133 0.006018
145 0.005983
152 0.006036
157 0.007002
164 0.006998
174 0.006016
181 0.006016
171 0.006011
118 0.006982
60 0.007014
27 0.007014
28 0.007003
34 0.007016
59 0.005022
66 0.007026
77 0.007016
80 0.006981
82 0.005986
87 0.006015
96 0.006027
108 0.007002
119 0.006977
132 0.005981
141 0.006018
148 0.006022
159 0.007005
163 0.007013
170 0.006989
178 0.006983
186 0.00599
195 0.005985
197 0.006001
165 0.006979
94 0.007018
45 0.006982
26 0.006985
31 0.006983
50 0.006977
62 0.006981
74 0.006955
80 0.006985
82 0.006986
85 0.005991
95 0.006018
104 0.005981
116 0.00698
128 0.007108
143 0.007034
151 0.006991
164 0.006952
170 0.007017
178 0.006991
184 0.006956
190 0.006979
197 0.006967
206 0.00599
188 0.005986
129 0.007014
79 0.007013
58 0.006983
62 0.007015
80 0.006967
91 0.006986
102 0.006964
107 0.007979
106 0.007949
105 0.006987
101 0.006014
100 0.005985
103 0.006981
109 0.007979
115 0.007022
123 0.007011
135 0.006999
143 0.006969
150 0.006981
158 0.007939
168 0.007938
180 0.006964
174 0.00698
153 0.006958
87 0.007938
64 0.007944
63 0.007979
77 0.006946
92 0.006971
101 0.006981
106 0.006984
107 0.007941
108 0.007945
110 0.006984
115 0.006982
123 0.006971
132 0.007978
143 0.007034
151 0.007048
158 0.00698
169 0.007965
174 0.007941
181 0.007977
189 0.007948
196 0.007948
202 0.007015
199 0.006982
163 0.006988
103 0.007978
68 0.007979
62 0.006993
81 0.006963
98 0.007016
110 0.006981
112 0.007945
114 0.007939
113 0.007948
114 0.006981
119 0.006958
125 0.006978
133 0.007998
143 0.007979
157 0.007013
168 0.007024
177 0.007051
181 0.007016
187 0.006973
192 0.007005
197 0.007016
202 0.007946
193 0.007001
151 0.006974
97 0.007979
65 0.007027
63 0.006986
72 0.006981
84 0.006972
90 0.007013
92 0.007012
90 0.007018
89 0.007012
90 0.006982
96 0.007018
105 0.007014
114 0.007015
123 0.006992
135 0.007022
144 0.007005
154 0.007046
158 0.006981
163 0.007928
169 0.007968
173 0.007016
133 0.006981
89 0.007014
67 0.007011
63 0.007014
68 0.007015
82 0.007015
96 0.006982
103 0.007011
103 0.006019
100 0.006015
100 0.007012
103 0.007016
113 0.006016
121 0.006017
130 0.007014
138 0.006989
146 0.007018
154 0.007017
164 0.006981
169 0.007004
165 0.006981
131 0.007014
78 0.007014
46 0.006017
38 0.006028
44 0.006048
52 0.006016
61 0.005986
69 0.006021
71 0.006025
66 0.007028
64 0.006981
70 0.007018
78 0.006979
88 0.007014
98 0.007016
107 0.006024
116 0.005969
122 0.006014
130 0.006019
138 0.006018
141 0.006036
94 0.007014
36 0.006976
0 0.007015
0 0.007014
0 0.007021
10 0.005962
18 0.005973
28 0.006017
33 0.005984
34 0.006021
35 0.00604
39 0.006036
53 0.006017
64 0.006009
78 0.007018
88 0.007021
97 0.006017
105 0.006018
113 0.006022
123 0.006017
126 0.006022
104 0.006016
47 0.006017
4 0.006018
0 0.006018
0 0.00602
0 0.005021
10 0.005023
20 0.005023
28 0.005018
32 0.006015
39 0.006015
46 0.006017
56 0.005975
66 0.006029
87 0.005984
98 0.006054
107 0.005016
116 0.006016
124 0.005018
133 0.005041
140 0.005979
135 0.005984
74 0.006014
27 0.006015
6 0.005975
6 0.006027
21 0.006178
36 0.005043
49 0.005023
57 0.005028
59 0.005018
59 0.005023
62 0.005022
71 0.005022
84 0.006025
95 0.006016
106 0.006032
117 0.005987
128 0.006073
137 0.005033
146 0.005043
156 0.006043
156 0.00601
127 0.006019
69 0.006026
34 0.005024
22 0.005025
30 0.005024
42 0.005017
57 0.005027
73 0.005019
76 0.004839
74 0.00502
76 0.005023
83 0.005019
91 0.004004
103 0.005044
115 0.005019
126 0.00502
134 0.004986
142 0.004955
147 0.005026
159 0.005022
159 0.005022
132 0.005028
54 0.004984
16 0.005027
6 0.005019
9 0.005032
17 0.003994
31 0.004988
41 0.005028
46 0.005024
48 0.004987
50 0.005022
57 0.00498
68 0.00502
80 0.005019
95 0.005022
107 0.004986
116 0.004022
124 0.004028
131 0.004025
142 0.004024
151 0.004028
157 0.004024
120 0.00403
53 0.004031
7 0.004024
0 0.003993
0 0.004043
0 0.004988
9 0.005018
22 0.005017
33 0.00502
40 0.005003
42 0.004025
49 0.00404
66 0.004022
80 0.003991
93 0.003034
106 0.00498
121 0.005039
130 0.005023
139 0.004023
147 0.00393
153 0.004027
163 0.004026
173 0.003946
183 0.004987
181 0.003992
128 0.003992
62 0.004024
25 0.004023
16 0.00399
23 0.00399
33 0.004026
48 0.00399
63 0.005029
71 0.00399
73 0.003991
81 0.003989
90 0.004028
101 0.00402
113 0.004032
127 0.004048
145 0.00399
154 0.004029
163 0.00404
171 0.00399
178 0.002989
187 0.002992
195 0.004012
210 0.003992
217 0.003992
217 0.00402
184 0.004005
114 0.003985
54 0.004026
44 0.003989
51 0.004047
63 0.004025
74 0.003007
89 0.004021
92 0.002993
92 0.002992
93 0.004063
98 0.002989
108 0.002992
121 0.003034
136 0.003024
148 0.002994
158 0.003993
166 0.003993
172 0.004023
181 0.004014
187 0.003966
200 0.003957
205 0.003954
202 0.002995
160 0.00296
92 0.002994
45 0.002992
43 0.004041
51 0.002989
62 0.002987
74 0.003026
90 0.003994
94 0.003959
95 0.002995
99 0.002996
106 0.003006
116 0.002993
127 0.003037
144 0.00303
157 0.003037
166 0.003028
176 0.002992
184 0.00303
193 0.004004
201 0.00303
212 0.00298
204 0.002992
157 0.002969
94 0.002995
59 0.002994
54 0.003041
64 0.002992
77 0.002983
90 0.003016
102 0.003022
107 0.003023
108 0.003041
108 0.003022
118 0.003025
128 0.003033
138 0.001994
149 0.001995
161 0.001995
172 0.002013
181 0.001995
190 0.002993
200 0.002992
206 0.002992
194 0.00298
122 0.002984
69 0.003002
60 0.002992
68 0.001989
81 0.001999
95 0.001995
111 0.001995
117 0.001995
115 0.002049
113 0.001992
112 0.001983
121 0.002033
135 0.001995
149 0.001995
159 0.002027
167 0.001996
177 0.002035
184 0.002027
191 0.002992
179 0.002992
128 0.003023
66 0.002027
35 0.001996
33 0.001996
50 0.002032
68 0.001995
81 0.001995
88 0.001995
88 0.001995
86 0.001995
89 0.001023
96 0.003021
104 0.002033
116 0.002026
127 0.001987
143 0.001994
151 0.001994
161 0.001995
166 0.002041
151 0.00204
93 0.001989
26 0.002046
0 0.001995
0 0.001029
1 0.001957
15 0.001994
30 0.002001
46 0.00203
48 0.001995
50 0.002012
56 0.001997
64 0.001995
75 0.002037
88 0.001995
104 0.001969
113 0.001998
123 0.000998
132 0.000998
141 0.000997
146 0.001995
113 0.001996
24 0.001989
0 0.00198
0 0.002035
0 0.001995
0 0.002037
17 0.000997
32 0.000998
42 0.000998
48 0.001031
52 0.000998
65 0.000998
76 0.001033
95 0.000997
110 0.002033
124 0.000989
135 0.001032
145 0.000998
157 0.001995
167 0.001993
176 0.001021
176 0.000998
143 0.001995
42 0.000998
20 0.000997
25 0.000963
38 0.001015
52 0.000997
68 0.000997
77 0.00101
82 0.000985
85 0.000998
88 0.000998
95 0.000999
106 0.000997
127 0.000999
139 0.000997
149 0.000998
157 0.000998
165 0.001008
171 0.00101
178 0.000997
189 0.000998
189 0.00099
162 0.000998
98 0.000998
47 0.001996
32 0.0
42 0.000998
59 0.000997
73 0.001011
82 0.000991
85 0.000997
84 0.000998
84 0.000997
93 0.00103
103 0.000998
116 0.000998
128 0.000997
146 0.0
153 0.0
158 0.0
167 0.0
173 0.000997
179 0.000997
187 0.000992
192 0.000997
153 0.000997
82 0.000998
33 0.000996
14 0.0
24 0.0
34 0.0
47 0.0
61 0.0
65 0.0
68 0.0
71 0.0
78 0.0
90 0.0
103 0.0
116 0.0
136 0.000998
144 0.0
153 0.000998
160 0.000998
169 0.000997
177 0.0
186 0.0
196 0.0
199 0.0
147 0.0
76 0.0
34 0.0
25 0.000999
35 0.0
48 0.001
62 0.000999
75 0.000999
78 0.001004
81 0.000998
86 0.001013
90 0.0
106 0.0
119 0.0
132 0.0
153 0.0
163 0.0
171 0.0
178 0.0
187 0.0
195 0.0
204 0.0
213 0.0
215 0.000997
164 0.000997
97 0.000998
60 0.000997
57 0.00099
74 0.0
84 0.000998
96 0.001
108 0.000998
109 0.000998
106 0.000995
106 0.000965
112 0.000999
125 0.000997
137 0.000997
152 0.0
164 0.001027
172 0.0
178 0.0
184 0.0
191 0.001046
197 0.000999
191 0.0
146 0.0
82 0.0
43 0.000998
36 0.000999
47 0.0
65 0.001996
78 0.000997
90 0.0
93 0.000997
93 0.002016
93 0.001041
103 0.0
114 0.0
125 0.0
138 0.001044
151 0.001039
162 0.0
172 0.001996
180 0.0
184 0.000998
194 0.000869
198 0.001997
184 0.001999
101 0.0
41 0.0
18 0.0
21 0.001024
33 0.00101
48 0.0
64 0.001031
73 0.0
75 0.0
76 0.0
81 0.001009
89 0.001006
102 0.000997
119 0.0
128 0.000977
146 0.000996
156 0.002008
168 0.0
178 0.001029
189 0.001012
197 0.0
203 0.0
192 0.0
137 0.001029
70 0.000997
35 0.0
39 0.0
51 0.0
64 0.001028
78 0.001033
95 0.001034
96 0.002032
96 0.001016
101 0.000994
110 0.00103
122 0.001995
135 0.002028
152 0.001046
163 0.000985
173 0.0
180 0.001031
192 0.000993
200 0.002046
207 0.001041
205 0.000995
165 0.001009
101 0.002001
62 0.001994
55 0.002032
67 0.000988
82 0.0
95 0.001045
108 0.001995
113 0.001996
110 0.001026
109 0.001027
115 0.001016
125 0.000998
137 0.001023
149 0.002001
160 0.002
173 0.001033
180 0.001
187 0.000994
194 0.001995
181 0.002029
127 0.001
68 0.002027
36 0.000994
40 0.000963
48 0.001995
67 0.001996
81 0.002033
94 0.001029
97 0.001034
95 0.000998
96 0.001995
105 0.001058
116 0.002992
128 0.002992
145 0.000996
155 0.001002
163 0.000994
172 0.001995
180 0.001995
185 0.000997
168 0.001028
109 0.00106
45 0.001996
12 0.00199
22 0.002992
37 0.00399
56 0.001039
69 0.001034
77 0.00099
78 0.001995
78 0.003046
82 0.000957
92 0.000998
103 0.001998
116 0.00299
137 0.001951
148 0.003028
157 0.003024
168 0.001995
176 0.001992
181 0.001995
163 0.002962
104 0.002958
35 0.001
20 0.000986
27 0.000985
41 0.002952
67 0.002043
81 0.002992
88 0.002973
88 0.000984
89 0.000998
96 0.001963
106 0.002992
117 0.002986
136 0.002029
149 0.001997
158 0.00203
168 0.002994
182 0.001991
190 0.002987
192 0.002992
150 0.00103
85 0.002003
45 0.001962
38 0.002992
48 0.002993
68 0.001992
84 0.001995
98 0.002008
104 0.002992
100 0.003021
99 0.003989
105 0.002992
118 0.002005
130 0.002999
141 0.001996
152 0.003001
161 0.004001
170 0.004024
179 0.003023
183 0.001995
168 0.001994
71 0.001996
32 0.002029
26 0.002979
38 0.002983
60 0.001953
76 0.001957
89 0.001996
95 0.002975
93 0.003025
91 0.001994
96 0.001964
113 0.002028
125 0.002991
137 0.002992
148 0.003722
159 0.00399
171 0.001984
180 0.001994
182 0.001997
149 0.003025
78 0.002988
15 0.002
6 0.003002
26 0.003023
41 0.003023
56 0.003021
67 0.004027
73 0.004042
71 0.002029
75 0.003031
83 0.001999
94 0.003025
106 0.002992
124 0.003004
135 0.002988
151 0.002993
159 0.003007
166 0.003025
169 0.00399
137 0.003983
39 0.003229
0 0.004025
0 0.004034
0 0.00399
11 0.004019
32 0.002993
46 0.003038
60 0.00296
63 0.002994
70 0.002993
77 0.004023
89 0.004027
109 0.002994
122 0.003025
134 0.003038
146 0.004032
155 0.00399
165 0.004009
174 0.002992
182 0.003032
153 0.003032
82 0.003023
30 0.004988
13 0.004987
24 0.004022
39 0.002939
55 0.002959
70 0.005028
80 0.004987
85 0.002996
86 0.003002
99 0.002992
111 0.003002
124 0.002994
137 0.004958
151 0.005027
164 0.002973
171 0.003996
178 0.003983
186 0.004987
192 0.005022
202 0.00299
203 0.003023
127 0.002992
66 0.004022
38 0.004
38 0.004985
49 0.004986
67 0.002971
82 0.003994
93 0.003987
95 0.004989
93 0.005027
94 0.004038
101 0.004025
121 0.004024
133 0.003996
145 0.004009
156 0.005024
165 0.005021
174 0.003993
182 0.003988
190 0.003996
196 0.005022
186 0.005024
111 0.004018
59 0.004986
37 0.004981
45 0.005021
59 0.003992
75 0.005028
89 0.005025
97 0.003958
97 0.00399
96 0.004008
101 0.005018
109 0.005022
126 0.004022
144 0.004988
155 0.005023
167 0.003989
174 0.003987
181 0.006016
187 0.00602
195 0.005026
204 0.003997
194 0.003038
136 0.003992
69 0.005021
36 0.005019
35 0.005984
45 0.005984
63 0.004071
76 0.005019
84 0.005022
86 0.006015
87 0.005022
93 0.00398
101 0.003998
114 0.004006
129 0.004981
143 0.004984
162 0.004988
171 0.005984
183 0.004993
190 0.005019
199 0.004983
208 0.005984
216 0.006017
187 0.005029
122 0.004002
78 0.004015
61 0.007037
63 0.005018
82 0.006021
95 0.006024
111 0.004989
116 0.005021
118 0.004956
119 0.006034
125 0.006015
137 0.004987
150 0.003945
164 0.004011
177 0.005983
188 0.006016
203 0.006016
211 0.006017
223 0.004996
231 0.004993
237 0.004987
220 0.006018
164 0.006023
113 0.005021
103 0.005016
108 0.004984
119 0.005102
133 0.006021
153 0.006985
157 0.006981
153 0.004986
153 0.004991
158 0.004992
165 0.006023
176 0.006037
192 0.004986
202 0.004978
211 0.005018
219 0.005988
228 0.007016
240 0.007017
241 0.006985
198 0.004986
144 0.005021
112 0.004996
105 0.006034
109 0.005999
126 0.004993
138 0.004993
148 0.004993
153 0.006997
152 0.007014
149 0.006983
153 0.006982
164 0.006014
174 0.006024
184 0.005002
192 0.006989
200 0.006979
209 0.004983
216 0.005979
224 0.005993
225 0.006979
198 0.006973
103 0.006982
74 0.006981
70 0.006019
77 0.006018
88 0.005986
100 0.006979
110 0.006966
114 0.005093
113 0.004986
115 0.00598
121 0.007971
129 0.007972
145 0.007014
157 0.007012
172 0.005984
180 0.005983
188 0.005985
197 0.006993
205 0.006982
193 0.005998
141 0.005984
84 0.006046
54 0.006981
52 0.005028
62 0.006984
75 0.00797
91 0.006015
100 0.004992
102 0.006011
105 0.007946
109 0.007953
118 0.007979
130 0.005974
142 0.005985
156 0.005994
176 0.005989
186 0.005984
195 0.006982
204 0.006977
210 0.005959
192 0.005987
133 0.006995
83 0.007976
62 0.00794
63 0.005992
73 0.005966
87 0.005988
105 0.00599
109 0.005981
104 0.007983
103 0.006981
107 0.005985
113 0.005985
121 0.006985
131 0.007946
142 0.007949
155 0.006989
163 0.00698
172 0.006974
185 0.007029
180 0.007033
112 0.007981
77 0.007979
41 0.006021
40 0.006011
48 0.006982
64 0.007938
83 0.007965
92 0.006991
95 0.007019
94 0.006997
98 0.007027
106 0.007015
116 0.007924
129 0.007978
146 0.005988
159 0.006982
165 0.006974
170 0.007968
178 0.007947
178 0.006988
139 0.006023
74 0.006003
21 0.006967
20 0.005986
30 0.007979
49 0.007023
68 0.006957
74 0.006951
79 0.006988
80 0.006995
85 0.006981
96 0.006981
107 0.00698
117 0.007001
139 0.007006
153 0.00702
159 0.007946
170 0.007941
183 0.007012
172 0.006985
118 0.006978
61 0.00702
33 0.007011
30 0.006969
39 0.00698
60 0.00698
81 0.006979
92 0.006951
98 0.00703
99 0.00802
106 0.006995
116 0.007014
130 0.006982
145 0.007011
158 0.007016
172 0.006975
183 0.006976
193 0.006978
206 0.006977
206 0.006958
163 0.007017
103 0.006978
68 0.006987
59 0.006977
70 0.007006
83 0.007013
96 0.007011
111 0.007011
115 0.006977
114 0.007001
118 0.006988
125 0.006017
136 0.007015
148 0.007016
162 0.006984
172 0.006981
180 0.00601
188 0.005986
197 0.006983
202 0.006017
180 0.007028
86 0.007014
57 0.006982
53 0.007014
62 0.00702
78 0.007016
96 0.006974
107 0.006998
111 0.006024
110 0.006022
108 0.00602
113 0.006015
127 0.007032
145 0.00703
160 0.007023
171 0.007013
180 0.007012
187 0.006016
194 0.006013
204 0.006018
196 0.006015
144 0.006018
81 0.005988
45 0.006014
36 0.006014
49 0.006013
64 0.006031
77 0.005974
87 0.006977
90 0.007019
90 0.007014
97 0.005984
106 0.005984
120 0.006015
133 0.006018
146 0.006015
160 0.006004
171 0.00599
182 0.005987
190 0.006017
199 0.006016
205 0.00599
198 0.005967
120 0.00602
59 0.006017
30 0.006016
26 0.005972
32 0.006018
47 0.006015
65 0.006015
79 0.006017
81 0.006021
83 0.005973
90 0.005021
101 0.005018
118 0.006017
133 0.006016
148 0.006036
160 0.006016
171 0.005944
184 0.006017
193 0.006017
204 0.006035
212 0.006011
222 0.006017
231 0.006015
235 0.006016
183 0.005019
109 0.004968
62 0.005021
47 0.005018
51 0.004982
70 0.005984
90 0.005933
103 0.005982
107 0.006018
108 0.005018
112 0.005984
118 0.005987
131 0.006024
144 0.006019
156 0.005987
166 0.004982
176 0.005028
187 0.005016
194 0.00502
199 0.005024
206 0.00501
214 0.00499
221 0.006017
226 0.00502
207 0.006031
140 0.004986
82 0.006017
58 0.006017
59 0.005982
76 0.005974
96 0.005008
112 0.005019
116 0.005001
115 0.005053
115 0.004989
118 0.005038
129 0.005021
140 0.0051
153 0.005021
165 0.00503
176 0.00503
190 0.006035
195 0.004039
203 0.004031
209 0.006019
217 0.003978
222 0.005024
221 0.005061
159 0.005023
91 0.005034
55 0.004975
51 0.00502
60 0.005021
83 0.00502
96 0.005019
110 0.005004
112 0.00499
111 0.003991
115 0.003989
123 0.00402
136 0.003963
150 0.004026
162 0.004029
174 0.004023
184 0.003988
198 0.00498
204 0.004987
212 0.005021
221 0.00499
226 0.00498
212 0.004013
157 0.004015
99 0.004029
71 0.004028
76 0.00402
88 0.004022
102 0.004032
125 0.005035
131 0.005021
130 0.005026
126 0.005024
130 0.005036
139 0.003991
148 0.004029
159 0.004027
176 0.004025
185 0.004023
193 0.004112
201 0.004032
211 0.003991
215 0.004988
201 0.003997
131 0.004019
83 0.004014
66 0.00404
70 0.003991
82 0.004024
103 0.004025
116 0.004021
125 0.003972
125 0.003999
118 0.004948
119 0.003943
125 0.003991
138 0.004934
148 0.00399
158 0.002992
167 0.004028
176 0.00399
185 0.004043
190 0.003025
180 0.004043
130 0.00402
35 0.003991
21 0.003993
27 0.003989
47 0.003989
61 0.004047
75 0.003991
83 0.004
85 0.004006
83 0.003996
86 0.003043
94 0.003023
103 0.002961
125 0.00398
136 0.003988
146 0.004016
160 0.004023
167 0.003991
169 0.003935
139 0.004042
70 0.004022
8 0.003989
0 0.003988
9 0.002991
24 0.003036
48 0.003026
59 0.003015
64 0.003028
65 0.002992
68 0.003988
75 0.004023
85 0.003026
97 0.003989
115 0.003989
126 0.003969
136 0.003989
154 0.004021
161 0.002994
157 0.003028
113 0.003033
34 0.003033
11 0.003029
14 0.003024
26 0.002995
40 0.003027
62 0.003044
73 0.003023
76 0.002947
77 0.00294
82 0.002006
93 0.002027
104 0.001996
121 0.002993
134 0.002035
145 0.003027
155 0.003024
163 0.003028
175 0.002992
175 0.002989
145 0.002987
54 0.00303
36 0.003026
38 0.003023
51 0.002954
73 0.001994
87 0.002028
95 0.001996
95 0.003001
91 0.002992
92 0.002992
99 0.001995
109 0.002026
128 0.002027
140 0.001995
148 0.003038
156 0.003034
167 0.00303
171 0.003027
155 0.003032
99 0.002961
46 0.002994
25 0.002992
29 0.003026
42 0.003029
68 0.002022
79 0.002022
81 0.00203
78 0.002003
76 0.002037
81 0.002031
91 0.001991
103 0.002043
115 0.002992
126 0.003044
138 0.001995
145 0.00199
157 0.002035
155 0.002039
117 0.002033
50 0.002035
7 0.002007
58 0.001996
63 0.001996
69 0.002021
76 0.001977
82 0.001996
88 0.001996
87 0.002043
89 0.001995
94 0.002044
100 0.001963
108 0.00204
115 0.001994
122 0.00203
127 0.002036
131 0.002008
136 0.001996
141 0.001995
141 0.001962
116 0.00205
69 0.002049
61 0.002043
63 0.002035
69 0.001954
75 0.00196
84 0.002056
89 0.001996
91 0.001983
91 0.000997
93 0.000998
100 0.001047
107 0.001002
120 0.002038
128 0.002025
134 0.002034
139 0.001996
143 0.002033
149 0.002049
154 0.001995
158 0.001996
163 0.002041
158 0.001996
117 0.000998
92 0.001041
86 0.000999
91 0.000998
97 0.001042
104 0.002039
110 0.002029
114 0.001042
112 0.002029
112 0.000995
115 0.000997
120 0.001049
127 0.000997
136 0.001043
143 0.002058
147 0.001047
150 0.000998
154 0.000995
157 0.00203
163 0.002002
167 0.000998
164 0.001992
139 0.001039
112 0.000998
98 0.001996
101 0.000998
109 0.000999
117 0.001004
124 0.000998
128 0.000998
128 0.001031
126 0.001992
129 0.001007
134 0.000998
140 0.000998
146 0.001994
155 0.001965
160 0.0
166 0.001006
168 0.001009
172 0.000998
176 0.000988
180 0.000998
182 0.000998
167 0.000997
135 0.000997
114 0.000981
108 0.000997
111 0.000998
118 0.0
125 0.0
129 0.0
130 0.0
130 0.0
129 0.000998
133 0.0
138 0.0
144 0.001006
150 0.000997
156 0.000996
162 0.000998
169 0.000999
173 0.000997
178 0.0
183 0.0
187 0.0
188 0.0
172 0.0
134 0.000998
119 0.0
116 0.0
120 0.0
125 0.0
135 0.0
139 0.000999
140 0.0
138 0.0
139 0.0
142 0.000998
146 0.0
153 0.0
160 0.0
179 0.0
185 0.0
190 0.0
198 0.0
202 0.000998
209 0.0
208 0.0
186 0.0
145 0.0
121 0.0
114 0.0
121 0.000998
130 0.000997
138 0.000998
146 0.0
148 0.0
146 0.0
146 0.001032
149 0.000999
155 0.0
163 0.000998
170 0.000999
179 0.00204
185 0.002029
190 0.000975
195 0.0
202 0.0
197 0.0
163 0.0
121 0.002031
100 0.002037
99 0.000986
107 0.000986
113 0.0
126 0.001962
133 0.0
135 0.0
135 0.001052
135 0.000998
140 0.0
147 0.0
155 0.001995
163 0.001956
171 0.0
176 0.000966
185 0.0
191 0.002005
194 0.002008
185 0.0
145 0.0
91 0.000968
87 0.0
94 0.0
104 0.00203
115 0.000997
126 0.0
131 0.0
130 0.0
128 0.001048
130 0.002017
137 0.0
144 0.000965
156 0.0
163 0.0
170 0.000958
176 0.001994
180 0.002032
185 0.0
176 0.0
140 0.000945
101 0.002062
84 0.00103
87 0.0
97 0.0
116 0.0
126 0.000967
130 0.0
129 0.001034
127 0.001995
130 0.0
133 0.000998
142 0.0
150 0.002052
159 0.002031
167 0.0
174 0.0
182 0.000967
180 0.000998
151 0.0
105 0.000963
78 0.002051
74 0.002027
86 0.000962
98 0.0
109 0.0
121 0.002036
125 0.002009
124 0.0
124 0.002013
132 0.0
138 0.000963
146 0.0
154 0.002029
162 0.002026
170 0.0
175 0.0
180 0.0
180 0.000997
156 0.001015
93 0.001994
64 0.002027
70 0.000968
81 0.002
93 0.001998
105 0.002002
112 0.002005
115 0.001995
115 0.001001
116 0.001024
121 0.00206
128 0.002042
139 0.000963
150 0.002027
160 0.001997
166 0.002016
172 0.002006
177 0.002031
172 0.00199
124 0.001988
81 0.002004
63 0.003001
66 0.002033
77 0.002044
94 0.001019
111 0.002033
117 0.000948
115 0.001993
114 0.001015
116 0.001995
121 0.002993
131 0.001999
138 0.000965
145 0.000964
152 0.002993
157 0.002032
164 0.000996
166 0.002046
132 0.001998
86 0.001994
60 0.002027
58 0.002004
68 0.001996
87 0.001962
100 0.002026
111 0.000988
116 0.003025
115 0.003038
116 0.002992
121 0.002997
132 0.001958
140 0.000997
148 0.002007
154 0.002069
160 0.002031
167 0.001999
171 0.002011
168 0.001993
135 0.002992
83 0.002992
49 0.003026
55 0.002028
74 0.001994
87 0.001964
99 0.001998
106 0.002027
106 0.00304
102 0.001994
104 0.001992
111 0.001031
120 0.003023
130 0.002992
145 0.003021
154 0.002992
163 0.000986
169 0.001988
172 0.001997
159 0.002993
112 0.004025
55 0.00199
43 0.001995
48 0.002007
62 0.002994
76 0.002992
97 0.003037
104 0.002994
105 0.000985
107 0.000999
112 0.002003
120 0.002993
129 0.004022
139 0.002026
147 0.002004
153 0.002037
158 0.002983
164 0.002988
173 0.003001
162 0.003006
102 0.001997
67 0.001981
57 0.002001
64 0.002989
76 0.00402
95 0.00195
106 0.001993
113 0.001996
113 0.004021
111 0.00399
116 0.00299
123 0.003032
131 0.002991
143 0.001982
151 0.001019
156 0.002992
163 0.004043
168 0.004053
173 0.002031
168 0.001998
132 0.002003
82 0.004021
51 0.001967
56 0.004024
68 0.00399
85 0.001992
97 0.002015
102 0.001997
104 0.003994
104 0.004025
106 0.002025
113 0.001996
122 0.001981
131 0.004989
144 0.002011
151 0.004035
157 0.003989
164 0.002023
168 0.002993
172 0.002015
157 0.004047
105 0.004036
49 0.002958
38 0.00295
43 0.002993
54 0.003989
73 0.002031
85 0.003957
90 0.003996
91 0.002989
93 0.00201
98 0.002992
106 0.005015
115 0.003989
128 0.003016
137 0.003009
145 0.002992
154 0.002988
159 0.002995
165 0.004005
170 0.00399
168 0.003034
134 0.002977
81 0.001981
51 0.004988
44 0.00399
57 0.002032
69 0.003017
80 0.002966
95 0.002984
97 0.002991
96 0.004986
97 0.003989
104 0.002994
113 0.003996
122 0.002989
130 0.003989
138 0.005027
147 0.003998
151 0.002995
156 0.003028
164 0.002986
168 0.00298
155 0.004989
110 0.003991
59 0.002999
49 0.002998
55 0.002027
68 0.004026
82 0.003989
97 0.003987
104 0.002997
105 0.002989
104 0.002977
108 0.002984
115 0.005023
123 0.004987
136 0.003002
144 0.002987
151 0.002992
158 0.004986
163 0.004987
169 0.003022
173 0.00299
161 0.002982
81 0.002991
52 0.003988
46 0.004987
54 0.004991
72 0.00302
84 0.003007
96 0.002996
101 0.004987
101 0.006017
100 0.003957
104 0.004003
111 0.004
125 0.003991
134 0.003991
143 0.004987
150 0.005024
159 0.002998
165 0.003011
169 0.002004
155 0.005984
108 0.005022
56 0.003986
45 0.003985
52 0.002989
74 0.003984
86 0.003989
97 0.004986
102 0.005019
100 0.003995
100 0.003988
104 0.003987
111 0.004986
120 0.004988
133 0.003995
141 0.004021
148 0.003025
159 0.004004
166 0.003994
165 0.005987
138 0.005984
78 0.003993
60 0.003995
60 0.003999
71 0.005022
83 0.005024
101 0.004986
109 0.003993
111 0.004038
107 0.004022
110 0.004034
116 0.004012
125 0.005984
133 0.005984
145 0.003944
153 0.003988
159 0.003989
166 0.006031
172 0.006012
165 0.004
126 0.003996
73 0.003987
69 0.003986
77 0.004989
87 0.005984
98 0.006017
111 0.004024
114 0.004021
112 0.004022
110 0.00602
112 0.005984
120 0.003987
131 0.006015
143 0.005
149 0.00499
154 0.005004
159 0.005984
164 0.006019
168 0.003979
160 0.003988
118 0.004006
81 0.006025
68 0.005985
73 0.004007
82 0.005984
93 0.004991
98 0.004996
102 0.004991
99 0.006019
98 0.005984
100 0.00598
107 0.005021
116 0.003965
124 0.006016
130 0.006983
140 0.004089
146 0.006948
152 0.004986
157 0.004987
159 0.004991
137 0.006982
98 0.005984
74 0.004999
77 0.00399
84 0.004966
91 0.005984
98 0.006017
106 0.004989
106 0.007003
100 0.004952
100 0.004956
105 0.004991
112 0.006981
119 0.005984
128 0.004981
133 0.004988
137 0.004027
142 0.006018
146 0.00602
152 0.005983
151 0.006971
107 0.005023
83 0.004982
77 0.00499
82 0.00702
88 0.007019
98 0.005978
105 0.004979
109 0.004984
107 0.006018
104 0.006021
104 0.005982
111 0.006983
121 0.00496
128 0.004984
134 0.005019
140 0.007026
146 0.007014
153 0.004986
157 0.005943
162 0.005955
161 0.006981
131 0.006981
93 0.005952
86 0.006965
95 0.00595
101 0.005018
107 0.005989
113 0.007023
117 0.007964
114 0.005985
113 0.004992
116 0.004989
120 0.007018
127 0.007014
138 0.005986
147 0.007956
156 0.005996
161 0.005987
166 0.005983
172 0.006981
179 0.006996
171 0.005019
139 0.005016
113 0.00499
105 0.007017
108 0.007976
117 0.005969
128 0.007968
134 0.006015
134 0.006009
132 0.005993
130 0.007012
132 0.007977
138 0.00695
145 0.005985
152 0.006023
161 0.007964
165 0.007981
174 0.005984
179 0.007977
184 0.007979
184 0.005985
158 0.005983
127 0.005981
114 0.00798
115 0.006981
123 0.004978
129 0.006985
136 0.006017
143 0.007962
140 0.006014
135 0.007969
136 0.007978
142 0.00598
148 0.005984
154 0.00598
159 0.00801
165 0.007983
171 0.006027
175 0.006982
179 0.006018
184 0.00798
170 0.005964
133 0.007972
103 0.007977
101 0.005995
108 0.00698
112 0.005981
119 0.007974
128 0.006983
131 0.006975
130 0.006989
127 0.006985
127 0.007979
135 0.005982
144 0.006968
149 0.007978
157 0.006001
162 0.006956
168 0.006951
172 0.00698
177 0.007019
179 0.006978
166 0.006982
114 0.006981
91 0.007019
88 0.006977
96 0.007974
102 0.007965
109 0.006017
110 0.006005
112 0.006004
106 0.007023
105 0.007988
110 0.006981
117 0.006974
123 0.006977
135 0.006985
144 0.006967
152 0.007979
158 0.007016
162 0.006978
168 0.006984
158 0.006991
115 0.008005
76 0.007013
63 0.006981
66 0.007013
74 0.006976
86 0.007978
104 0.006987
110 0.007029
106 0.007032
104 0.006987
108 0.007002
116 0.006975
126 0.007023
136 0.007012
147 0.006935
153 0.006932
161 0.006979
167 0.007023
173 0.006979
162 0.007012
116 0.007018
71 0.00698
63 0.006979
70 0.006975
79 0.00703
89 0.007014
99 0.006963
109 0.006981
108 0.006954
103 0.005973
107 0.006003
116 0.006015
125 0.006036
137 0.006991
146 0.006981
154 0.006948
161 0.006981
167 0.006975
173 0.006982
179 0.006981
175 0.006965
116 0.007021
71 0.006951
73 0.007017
82 0.006028
94 0.005965
105 0.005987
113 0.005989
114 0.006019
111 0.006045
109 0.006958
113 0.006932
120 0.006018
134 0.006981
143 0.006984
150 0.005986
155 0.006025
161 0.006018
167 0.005993
171 0.005995
176 0.006028
163 0.006018
103 0.006973
84 0.006977
73 0.006043
87 0.006976
103 0.005985
115 0.006024
125 0.006024
128 0.006014
125 0.006018
124 0.006017
129 0.006017
139 0.006069
149 0.005999
160 0.005983
169 0.005031
177 0.006985
186 0.006003
191 0.00602
194 0.006009
176 0.005981
112 0.005959
82 0.00602
76 0.005972
82 0.005019
93 0.006037
107 0.005045
116 0.00604
118 0.005015
114 0.004986
113 0.005017
120 0.005041
128 0.005027
140 0.005984
150 0.006035
158 0.006017
165 0.006017
171 0.00597
179 0.00598
179 0.006014
120 0.005978
74 0.005016
54 0.005019
53 0.005017
63 0.005025
76 0.006985
88 0.005023
95 0.00602
95 0.005034
92 0.005007
93 0.004988
100 0.005986
116 0.005038
125 0.005018
135 0.004986
143 0.004991
150 0.005035
158 0.005027
164 0.004953
161 0.004949
125 0.004955
79 0.005027
56 0.004987
60 0.00495
79 0.004987
89 0.004979
102 0.005019
108 0.005024
104 0.004954
102 0.005994
104 0.00499
115 0.006014
129 0.005943
136 0.00501
146 0.005021
154 0.005031
166 0.005017
175 0.005027
178 0.005015
159 0.005025
114 0.006023
81 0.00506
79 0.005082
87 0.004019
98 0.003999
109 0.006014
121 0.005986
124 0.004002
119 0.004027
123 0.003957
129 0.004987
138 0.004985
148 0.005028
161 0.004988
167 0.004996
174 0.005017
180 0.005021
187 0.004024
194 0.00495
181 0.003989
120 0.00397
91 0.004018
85 0.00399
92 0.004952
101 0.004987
111 0.004987
120 0.004988
123 0.004988
121 0.004988
118 0.004987
121 0.004021
130 0.00401
142 0.003991
150 0.00402
158 0.003948
165 0.00399
171 0.00399
179 0.005042
182 0.004987
173 0.00503
133 0.005033
97 0.00399
85 0.004989
94 0.00502
103 0.004987
113 0.005031
122 0.004034
124 0.004019
121 0.00399
118 0.003991
124 0.004992
131 0.003982
139 0.003991
147 0.004024
156 0.002993
168 0.003957
174 0.003989
179 0.003992
168 0.004035
127 0.003958
94 0.004027
85 0.003981
93 0.004037
104 0.004007
115 0.003992
125 0.004012
131 0.004006
126 0.003991
124 0.00399
130 0.003957
137 0.00399
145 0.004988
152 0.003989
160 0.004022
169 0.004027
174 0.004028
180 0.004999
183 0.003984
167 0.003028
100 0.003026
84 0.00399
90 0.00399
100 0.004028
110 0.004028
122 0.00399
129 0.003984
126 0.004025
122 0.003946
121 0.004028
127 0.003029
137 0.003032
154 0.002993
163 0.002974
174 0.003027
180 0.003024
188 0.003024
194 0.004019
183 0.00399
105 0.002955
61 0.003955
47 0.00399
54 0.004044
66 0.003991
87 0.002992
99 0.002989
101 0.003003
98 0.002992
96 0.003033
101 0.002985
109 0.002989
124 0.003023
136 0.003025
147 0.00295
156 0.002972
165 0.002029
178 0.002992
186 0.002992
170 0.003022
107 0.002987
52 0.003055
30 0.002995
32 0.003031
51 0.002994
65 0.002994
78 0.004023
88 0.002061
91 0.002028
90 0.002946
94 0.001995
105 0.003011
118 0.001987
129 0.002032
141 0.001991
151 0.003029
165 0.003004
172 0.00303
180 0.002994
187 0.00298
133 0.002993
71 0.002992
40 0.003002
41 0.002992
54 0.001994
68 0.001999
83 0.001946
95 0.001969
98 0.002043
93 0.00203
91 0.002028
97 0.002034
114 0.002961
125 0.002025
137 0.001951
152 0.002962
161 0.002027
170 0.003022
178 0.002993
180 0.003038
120 0.003012
58 0.001992
28 0.002054
27 0.002032
52 0.001995
68 0.00203
84 0.001996
94 0.001996
96 0.001996
93 0.002042
96 0.002974
104 0.001992
115 0.003023
132 0.002992
145 0.002996
155 0.002997
172 0.002026
179 0.002028
184 0.001995
159 0.001995
63 0.002025
20 0.002028
12 0.002011
21 0.001996
36 0.002008
58 0.003056
72 0.001042
78 0.002027
79 0.002027
80 0.000998
89 0.001994
100 0.000974
116 0.001995
129 0.002038
141 0.002029
151 0.002038
162 0.00203
174 0.001996
179 0.002041
156 0.002041
45 0.001996
17 0.001996
17 0.001996
31 0.000997
54 0.000999
70 0.002027
83 0.002048
86 0.001996
86 0.002027
86 0.001981
94 0.001003
106 0.00205
129 0.000995
143 0.002035
153 0.000997
164 0.000999
178 0.000991
187 0.002034
185 0.000998
144 0.002074
76 0.002
32 0.001995
32 0.001034
44 0.002041
71 0.00195
85 0.000998
92 0.00102
90 0.000997
86 0.001001
90 0.001051
99 0.000964
110 0.002015
122 0.000998
136 0.002034
145 0.001976
152 0.001052
162 0.002005
159 0.000999
121 0.000998
54 0.000997
4 0.000998
0 0.001044
8 0.000998
24 0.000997
40 0.001995
56 0.002031
59 0.002044
54 0.001044
54 0.002053
61 0.002029
74 0.000988
86 0.001033
103 0.000959
114 0.000998
125 0.000998
135 0.0
141 0.00199
115 0.002029
40 0.000998
0 0.002027
0 0.0
0 0.000971
0 0.000998
5 0.000998
24 0.000998
31 0.000998
30 0.000997
31 0.000997
40 0.000997
59 0.002027
75 0.0
100 0.000998
114 0.0
127 0.0
142 0.0
154 0.0
157 0.002051
104 0.000998
27 0.000998
54 0.0
49 0.000998
57 0.0
66 0.0
85 0.0
95 0.0
101 0.0
102 0.0
105 0.0
115 0.0
125 0.0
136 0.0
146 0.0
155 0.0
163 0.000998
169 0.000999
177 0.0
183 0.000987
189 0.00098
188 0.0
164 0.0
111 0.0
91 0.0
89 0.0
95 0.001
103 0.0
114 0.000998
131 0.001005
136 0.000999
136 0.0
137 0.0
140 0.0
147 0.0
155 0.0
164 0.0
169 0.0
174 0.0
176 0.0
179 0.000999
183 0.0
188 0.0
189 0.0
171 0.0
131 0.0
102 0.0
94 0.0
100 0.0
109 0.002031
118 0.0
126 0.0
129 0.0
126 0.0
124 0.0
127 0.0
133 0.002036
140 0.000999
146 0.000997
152 0.000998
158 0.0
162 0.002036
167 0.0
169 0.001002
173 0.001043
166 0.002031
124 0.0
86 0.00202
80 0.002027
86 0.0
94 0.0
102 0.0
110 0.002993
113 0.002953
114 0.000997
113 0.0
116 0.0
122 0.001035
134 0.0
141 0.001994
148 0.001995
156 0.0
161 0.0
165 0.0
169 0.001997
172 0.002032
170 0.000961
143 0.000994
101 0.000997
69 0.0
72 0.0
80 0.001031
88 0.00103
99 0.0
105 0.0
106 0.0
106 0.002032
108 0.002028
115 0.001
121 0.0
129 0.0
141 0.0
148 0.0
154 0.003026
158 0.001032
165 0.0
170 0.0
173 0.000985
167 0.002027
138 0.002002
94 0.00099
83 0.000998
85 0.0
100 0.0
110 0.0
119 0.003037
123 0.003021
123 0.0
121 0.0
123 0.000965
127 0.002036
134 0.002033
142 0.000991
149 0.000977
155 0.000978
164 0.0
168 0.0
172 0.002029
177 0.002028
174 0.0
149 0.000974
117 0.001
101 0.001995
99 0.001984
107 0.0
117 0.0
127 0.000999
136 0.0
134 0.000999
131 0.002026
131 0.00203
136 0.0
141 0.0
148 0.001017
154 0.002028
161 0.002029
168 0.00099
173 0.0
177 0.0
172 0.0
145 0.001014
113 0.0
97 0.002027
95 0.002026
103 0.0
113 0.000969
122 0.0
128 0.002993
130 0.002029
125 0.000949
124 0.0
129 0.0
135 0.000966
142 0.001003
148 0.002051
154 0.002032
162 0.0
167 0.000966
168 0.0
153 0.002032
116 0.002028
75 0.0
68 0.00096
76 0.0
85 0.0
93 0.00096
101 0.002989
102 0.002041
100 0.0
99 0.0
102 0.0
107 0.002029
114 0.002013
123 0.0
130 0.0
140 0.002002
146 0.002004
149 0.001035
139 0.00301
103 0.002987
55 0.0
42 0.0
45 0.0
54 0.001996
63 0.002993
76 0.001033
83 0.001993
86 0.002005
86 0.001987
89 0.000962
95 0.002987
103 0.002993
113 0.001998
121 0.001995
128 0.001998
134 0.002996
140 0.002993
147 0.001994
138 0.002026
88 0.002006
55 0.001962
46 0.002035
50 0.002027
60 0.002025
74 0.000969
84 0.002
91 0.001994
93 0.002993
93 0.003062
96 0.001994
104 0.002956
115 0.002003
124 0.001996
132 0.002012
140 0.002997
146 0.003049
153 0.001027
158 0.001028
163 0.001963
158 0.002988
131 0.002993
83 0.001997
70 0.003024
76 0.001992
86 0.001993
97 0.001994
107 0.002992
112 0.004055
111 0.002004
109 0.002007
111 0.003006
117 0.00299
124 0.002992
135 0.002031
145 0.003029
152 0.001997
158 0.003005
162 0.001994
167 0.003026
168 0.004047
147 0.002002
110 0.001983
84 0.000993
78 0.003026
84 0.003032
96 0.002959
111 0.002983
120 0.001995
120 0.001961
117 0.003006
116 0.003031
119 0.003991
127 0.001993
135 0.000984
142 0.001994
150 0.003024
155 0.002986
162 0.001964
168 0.004025
169 0.002012
146 0.002001
103 0.002002
74 0.00403
66 0.004006
73 0.000993
83 0.001993
94 0.001995
104 0.00399
109 0.00396
107 0.002003
105 0.00399
108 0.004025
115 0.001995
123 0.001997
131 0.001997
138 0.004031
144 0.00399
151 0.002003
156 0.002035
160 0.002992
155 0.003989
125 0.003989
58 0.004022
45 0.004021
51 0.002025
60 0.001995
70 0.001994
81 0.004038
87 0.003992
90 0.001989
90 0.002994
92 0.001983
97 0.00499
106 0.004991
120 0.003977
129 0.003982
138 0.001998
144 0.001997
149 0.001997
153 0.00399
158 0.004026
145 0.001997
105 0.00296
65 0.002974
49 0.005023
56 0.00201
67 0.003989
77 0.00402
90 0.001993
96 0.001997
97 0.002009
97 0.004019
99 0.00402
107 0.002
115 0.002971
124 0.002958
134 0.005023
146 0.002962
152 0.005019
157 0.005018
164 0.002989
169 0.001988
171 0.00199
158 0.004019
121 0.004022
78 0.001995
71 0.002961
77 0.002987
86 0.00506
105 0.003005
114 0.004954
118 0.005017
117 0.002995
116 0.001997
120 0.002986
127 0.004953
135 0.00402
146 0.001985
155 0.002003
162 0.003
168 0.004987
175 0.00299
179 0.005026
183 0.005021
182 0.002953
162 0.003
125 0.003006
102 0.005028
94 0.004993
101 0.001997
112 0.003001
123 0.002992
134 0.004986
138 0.002995
134 0.004984
132 0.00502
134 0.003003
140 0.002991
148 0.002994
155 0.004977
162 0.005018
171 0.004007
176 0.003995
180 0.002989
184 0.004987
168 0.003009
133 0.005019
104 0.005019
92 0.002995
97 0.002991
106 0.002988
117 0.005023
128 0.005981
135 0.003988
132 0.003999
127 0.003984
126 0.005984
132 0.002974
139 0.005014
146 0.005057
155 0.002027
161 0.002989
167 0.002993
172 0.006016
174 0.006004
142 0.003988
99 0.003987
73 0.003996
67 0.005982
79 0.003994
90 0.005992
101 0.005979
111 0.002975
110 0.002987
106 0.002989
105 0.003991
108 0.006018
114 0.00602
124 0.003991
133 0.003991
141 0.004
151 0.004007
156 0.004082
160 0.005991
149 0.005985
96 0.004996
59 0.004008
46 0.003957
50 0.005984
59 0.006982
74 0.00399
84 0.003993
91 0.003983
91 0.003989
90 0.003986
93 0.00599
99 0.006015
109 0.003988
117 0.002972
126 0.00499
132 0.006946
138 0.006016
146 0.003977
150 0.003955
122 0.003993
81 0.003947
52 0.003994
47 0.005988
53 0.005993
68 0.002993
80 0.004981
89 0.004971
93 0.006987
93 0.00702
92 0.00398
95 0.003993
106 0.004
114 0.003982
123 0.00399
130 0.006013
137 0.005972
144 0.004991
149 0.003975
152 0.004988
148 0.006992
120 0.006979
73 0.005004
60 0.003985
68 0.003982
80 0.003991
92 0.003987
102 0.006992
106 0.006989
103 0.004984
102 0.004974
103 0.004989
109 0.006978
116 0.00698
127 0.004999
134 0.004008
145 0.004003
150 0.00495
154 0.003987
157 0.005981
151 0.006974
111 0.004956
80 0.004992
69 0.004988
72 0.007016
81 0.007028
98 0.004991
109 0.003994
115 0.004992
110 0.003991
108 0.00598
111 0.006974
116 0.007004
126 0.004986
134 0.004976
141 0.004976
147 0.006976
152 0.00699
159 0.004987
162 0.005985
136 0.005998
97 0.004986
69 0.005977
65 0.007974
70 0.007017
85 0.004993
96 0.005952
107 0.00501
110 0.006987
109 0.006979
106 0.004989
108 0.005969
119 0.005944
126 0.00503
135 0.005985
145 0.007974
150 0.007973
155 0.004975
160 0.004993
164 0.004979
157 0.006979
124 0.006979
70 0.005994
52 0.005998
60 0.004987
71 0.005984
82 0.004983
92 0.008002
98 0.007977
99 0.004982
98 0.005002
101 0.004985
106 0.006985
114 0.007014
126 0.005954
135 0.005987
146 0.005988
151 0.005984
156 0.005987
160 0.005976
165 0.007974
157 0.007954
122 0.005986
77 0.004991
54 0.004968
52 0.007978
61 0.007978
79 0.007962
93 0.007859
99 0.005984
100 0.005985
101 0.005984
102 0.007944
111 0.007968
119 0.005987
128 0.006939
138 0.005985
146 0.007971
155 0.006993
162 0.00796
166 0.007976
173 0.005981
178 0.005966
181 0.005992
155 0.007934
111 0.00798
82 0.005987
74 0.006974
80 0.005983
94 0.006991
106 0.007017
121 0.006983
121 0.00698
119 0.005984
117 0.005987
120 0.00599
127 0.00798
136 0.007973
147 0.006016
156 0.006016
163 0.006983
170 0.006981
174 0.006987
180 0.006977
184 0.007017
188 0.005984
181 0.005967
152 0.005952
115 0.007946
96 0.008029
96 0.006001
108 0.006977
120 0.00698
133 0.006965
140 0.007013
136 0.007014
131 0.006992
131 0.006965
136 0.006982
143 0.006014
153 0.006961
161 0.006979
168 0.005988
176 0.006949
179 0.005984
185 0.006981
189 0.007013
164 0.006979
126 0.007016
100 0.006952
92 0.006022
97 0.00603
112 0.007016
124 0.007013
136 0.006013
141 0.005975
138 0.005948
133 0.007023
132 0.006025
139 0.007002
147 0.006981
156 0.006989
162 0.006982
171 0.006977
177 0.007014
181 0.006962
185 0.006983
174 0.005989
136 0.005987
95 0.006015
76 0.006027
81 0.006018
92 0.006016
104 0.006975
119 0.006979
123 0.006985
122 0.006981
117 0.007016
116 0.006977
119 0.006978
128 0.005969
136 0.006003
144 0.00502
157 0.006018
163 0.006017
169 0.005984
173 0.00695
158 0.005984
116 0.007033
75 0.007011
56 0.006981
61 0.005992
73 0.005972
84 0.006018
97 0.005992
109 0.006015
108 0.005987
105 0.005959
107 0.005975
112 0.00598
120 0.006989
128 0.006949
137 0.006966
145 0.00698
154 0.005982
160 0.005986
164 0.005967
146 0.006024
103 0.006029
68 0.006016
57 0.005981
64 0.004985
75 0.006002
88 0.006016
100 0.006015
108 0.005985
107 0.005975
105 0.005992
107 0.005969
113 0.005978
120 0.006014
129 0.006014
139 0.005948
146 0.005935
152 0.006007
156 0.006017
160 0.00602
151 0.005987
117 0.00499
79 0.00499
60 0.005984
68 0.005989
79 0.005992
92 0.006027
107 0.005988
110 0.00596
107 0.005971
102 0.006018
102 0.006023
109 0.005987
116 0.004958
123 0.004991
135 0.004985
142 0.004986
147 0.005023
152 0.00502
154 0.005995
133 0.006014
94 0.005983
65 0.006014
58 0.005995
70 0.004991
81 0.005016
95 0.005017
112 0.005017
110 0.004969
105 0.004997
103 0.004983
108 0.004971
115 0.005983
122 0.005954
130 0.006029
138 0.006032
146 0.005022
152 0.004985
156 0.004984
132 0.004981
88 0.005018
55 0.004979
46 0.005018
57 0.004985
71 0.003962
84 0.005024
96 0.00502
101 0.005039
98 0.004981
95 0.004985
98 0.00502
107 0.00502
115 0.005016
124 0.005017
131 0.004955
140 0.004985
145 0.004989
149 0.00495
143 0.003983
109 0.00402
54 0.005035
39 0.005023
44 0.005019
65 0.004981
78 0.004967
90 0.005018
95 0.00502
93 0.004989
92 0.004022
94 0.004022
100 0.004023
108 0.003991
119 0.00399
127 0.00399
134 0.00503
144 0.004988
149 0.004986
148 0.004986
123 0.004982
67 0.004988
47 0.005009
49 0.005051
59 0.005017
73 0.004988
91 0.005031
100 0.00399
98 0.004933
94 0.003994
96 0.004018
101 0.00399
108 0.00399
118 0.003989
126 0.004026
132 0.003916
138 0.004019
144 0.00399
151 0.003989
144 0.004987
87 0.005001
63 0.003995
60 0.003989
69 0.004023
81 0.004036
94 0.003991
109 0.003964
111 0.00399
106 0.00399
102 0.00399
103 0.003954
109 0.003993
116 0.003993
122 0.004022
126 0.003996
131 0.003989
135 0.00399
139 0.004039
132 0.004032
96 0.003985
55 0.004093
35 0.00399
37 0.003989
55 0.004026
77 0.002992
96 0.003025
101 0.003024
99 0.003015
97 0.004069
98 0.002996
107 0.00399
117 0.004025
128 0.004004
137 0.003989
145 0.003991
154 0.00399
161 0.00399
162 0.003029
131 0.003025
80 0.003023
46 0.002992
38 0.00304
50 0.003024
63 0.003989
77 0.003028
88 0.002958
91 0.003958
88 0.003974
85 0.004025
90 0.003038
98 0.003023
108 0.002983
118 0.002992
126 0.002993
136 0.003023
143 0.003001
149 0.002995
154 0.002992
152 0.002992
101 0.003954
42 0.003989
26 0.004005
35 0.003019
48 0.002997
62 0.002992
75 0.003042
86 0.002986
87 0.002965
87 0.003024
90 0.003023
96 0.001999
108 0.001993
124 0.002991
137 0.003038
146 0.002051
153 0.003029
159 0.002992
164 0.003019
172 0.003027
178 0.003024
173 0.00299
136 0.002993
85 0.003025
52 0.00303
58 0.002992
76 0.001995
91 0.001995
105 0.001994
112 0.001995
112 0.001959
110 0.002992
112 0.002992
118 0.003008
128 0.002962
139 0.002944
152 0.002998
163 0.002992
173 0.003001
177 0.003059
181 0.002033
187 0.001985
192 0.002029
190 0.001964
156 0.002028
108 0.002028
81 0.002017
79 0.00198
98 0.003009
113 0.00303
134 0.003027
140 0.003043
137 0.002046
131 0.002045
130 0.002029
136 0.001995
145 0.001989
155 0.002013
165 0.002068
173 0.001996
184 0.003024
189 0.001991
196 0.001995
200 0.001974
193 0.00204
157 0.001996
110 0.002027
85 0.001996
86 0.001941
98 0.001032
112 0.002048
129 0.002039
144 0.002027
141 0.002027
135 0.002028
133 0.001996
139 0.00201
147 0.002039
156 0.002044
166 0.002007
177 0.002027
184 0.001986
190 0.001002
196 0.001003
188 0.002035
145 0.002035
94 0.001995
68 0.001972
71 0.001994
83 0.001995
98 0.001996
114 0.001995
128 0.002026
128 0.002028
123 0.00204
120 0.001044
127 0.000998
136 0.001004
145 0.001006
159 0.000997
167 0.000952
175 0.000997
182 0.000999
188 0.00101
184 0.001001
144 0.000957
88 0.000962
57 0.000998
57 0.002042
70 0.002042
84 0.002049
103 0.001997
111 0.001039
112 0.001996
109 0.002019
108 0.000999
114 0.002002
123 0.00203
133 0.00205
144 0.002033
159 0.00204
166 0.002028
173 0.00103
180 0.002022
175 0.000998
138 0.001043
84 0.000997
52 0.000969
49 0.001031
61 0.000997
76 0.00203
90 0.000995
107 0.001009
108 0.001994
107 0.00204
107 0.000997
112 0.001038
121 0.000964
131 0.000997
141 0.000998
154 0.000997
162 0.000951
169 0.000998
176 0.002024
177 0.000997
146 0.000997
95 0.000998
59 0.000998
60 0.0
71 0.0
85 0.000999
101 0.001012
117 0.000997
119 0.000997
116 0.000998
114 0.000999
119 0.000997
128 0.000997
138 0.0
151 0.0
160 0.0
167 0.0
173 0.0
179 0.001004
182 0.0
162 0.000998
116 0.0
68 0.000998
69 0.0
81 0.001028
95 0.000998
117 0.0
127 0.0
127 0.0
122 0.0
119 0.0
122 0.0
130 0.0
140 0.0
155 0.0
162 0.0
169 0.0
175 0.0
182 0.000966
176 0.000997
141 0.0
93 0.0
66 0.0
65 0.0
77 0.0
92 0.0
117 0.0
123 0.000997
120 0.0
115 0.0
115 0.0
121 0.0
130 0.0
140 0.000999
149 0.0
157 0.000997
166 0.000997
172 0.000963
179 0.0
159 0.0
93 0.0
67 0.0
51 0.000998
58 0.0
73 0.002
92 0.0
105 0.000942
110 0.001004
110 0.002039
107 0.003027
110 0.002026
118 0.003
131 0.000961
140 0.0
149 0.0
157 0.00203
163 0.002025
172 0.0
175 0.0
160 0.0
115 0.002025
71 0.001993
53 0.001047
63 0.003026
82 0.000961
98 0.0
109 0.0
113 0.002996
112 0.003027
110 0.0
113 0.0
120 0.000968
129 0.002024
139 0.002028
154 0.002022
161 0.002027
169 0.0
174 0.000963
179 0.00102
169 0.003025
129 0.003039
75 0.0
61 0.0
66 0.0
79 0.003024
94 0.003023
116 0.002025
119 0.002027
114 0.0
112 0.0
113 0.00101
120 0.002032
129 0.001991
142 0.0
150 0.000966
157 0.0
164 0.002995
170 0.002993
176 0.002993
160 0.003024
100 0.0
66 0.0
58 0.0
66 0.002028
80 0.001994
101 0.0
114 0.0
118 0.000999
116 0.002027
110 0.000993
114 0.002032
121 0.002027
134 0.001012
144 0.000961
152 0.000982
158 0.002025
165 0.002026
172 0.000992
176 0.0
167 0.0
124 0.003028
53 0.000965
44 0.002027
52 0.003026
72 0.0
86 0.0
100 0.000971
107 0.001993
106 0.002008
103 0.000962
106 0.000974
113 0.0
122 0.002957
138 0.0
148 0.002028
155 0.00203
164 0.0
170 0.0
176 0.0
177 0.003025
155 0.00301
88 0.0
57 0.0
53 0.001028
62 0.002026
87 0.001961
103 0.001001
113 0.00204
116 0.002029
113 0.001968
113 0.0
117 0.0
125 0.001994
135 0.002971
149 0.0
157 0.0
165 0.0
176 0.000999
181 0.000997
187 0.001995
185 0.002028
139 0.0
93 0.0
69 0.000999
68 0.002026
79 0.003024
99 0.001014
115 0.0
125 0.0
123 0.0
118 0.0
118 0.003027
123 0.002984
135 0.0
144 0.0
153 0.000963
161 0.001992
168 0.002027
175 0.000966
181 0.000969
183 0.001015
132 0.0
85 0.0
63 0.002976
62 0.002016
79 0.000964
95 0.0
111 0.0
122 0.002992
123 0.002961
115 0.000961
113 0.0
116 0.0
130 0.002998
139 0.0
149 0.002996
158 0.002994
166 0.001994
172 0.0
178 0.002026
175 0.003002
139 0.002993
70 0.001994
47 0.001993
47 0.001995
68 0.002989
84 0.001993
99 0.002951
108 0.00299
107 0.002993
103 0.001995
104 0.001991
109 0.003004
118 0.003024
132 0.001966
142 0.002985
155 0.001988
162 0.0
168 0.003009
173 0.004027
165 0.002992
104 0.002995
60 0.000967
43 0.001008
48 0.002993
61 0.002993
82 0.00299
97 0.002011
108 0.002992
107 0.002999
106 0.002014
108 0.003989
115 0.00402
128 0.0
138 0.001995
148 0.001996
156 0.003026
163 0.003011
171 0.001989
176 0.003001
178 0.002996
146 0.002987
96 0.002014
65 0.003996
59 0.00402
73 0.002001
87 0.00299
103 0.002993
115 0.004021
119 0.003027
113 0.002
109 0.002995
115 0.002008
123 0.00302
132 0.002993
141 0.004023
149 0.003989
157 0.002995
162 0.002025
168 0.002027
172 0.00405
164 0.003992
108 0.002989
67 0.001996
53 0.002025
64 0.002993
78 0.000997
94 0.001992
107 0.004028
113 0.003998
107 0.002998
104 0.003006
106 0.00299
112 0.004046
120 0.004023
134 0.00199
146 0.004027
155 0.001966
162 0.001995
168 0.003951
173 0.004987
156 0.004985
90 0.001994
55 0.001985
44 0.001994
50 0.00403
63 0.004007
82 0.002994
99 0.00399
103 0.002995
100 0.001999
99 0.003015
102 0.005021
109 0.005034
122 0.001972
131 0.00299
141 0.001998
149 0.00396
156 0.004028
164 0.002986
171 0.003989
147 0.002993
96 0.001995
59 0.001996
49 0.005018
54 0.005019
72 0.00297
87 0.002978
101 0.001993
110 0.004983
111 0.003994
107 0.002999
110 0.005035
120 0.003017
130 0.002028
140 0.002193
150 0.005025
158 0.004975
167 0.001999
173 0.001999
179 0.001992
184 0.004999
175 0.004987
117 0.004013
71 0.004997
68 0.002998
78 0.002028
93 0.001997
109 0.003989
123 0.00502
126 0.00201
121 0.001997
118 0.003006
119 0.005039
126 0.005009
141 0.004987
150 0.005994
160 0.001957
166 0.002994
172 0.002967
177 0.004986
182 0.005028
170 0.003003
127 0.002989
84 0.002996
67 0.005037
68 0.005002
90 0.005003
106 0.005961
123 0.00398
125 0.001985
119 0.003023
115 0.006021
115 0.005952
122 0.002955
131 0.002995
141 0.002997
149 0.005177
157 0.005019
169 0.005991
175 0.004986
177 0.003018
149 0.003951
95 0.003959
58 0.00604
47 0.006016
58 0.002957
72 0.002987
87 0.00199
101 0.00598
109 0.005987
106 0.005982
104 0.006026
109 0.003029
118 0.003992
128 0.002992
139 0.004987
148 0.004992
160 0.003009
168 0.003998
175 0.003991
178 0.005985
161 0.006015
82 0.005984
62 0.005997
65 0.00303
76 0.002962
89 0.00399
102 0.006983
113 0.006968
118 0.003997
117 0.003995
118 0.003959
123 0.005993
130 0.006021
147 0.005985
157 0.005984
167 0.005984
178 0.003998
185 0.002992
193 0.002992
197 0.006982
180 0.006982
126 0.002986
106 0.00397
104 0.003995
111 0.006022
131 0.003997
144 0.00699
153 0.005987
154 0.004973
151 0.003
151 0.003995
156 0.007017
163 0.006975
175 0.00399
184 0.00399
192 0.003985
198 0.00599
209 0.004006
215 0.00602
219 0.006017
202 0.003985
166 0.003949
143 0.004995
137 0.006984
140 0.006983
153 0.003992
163 0.002998
172 0.003972
175 0.006982
169 0.003991
167 0.005983
168 0.005981
174 0.004991
181 0.004036
187 0.003976
192 0.006983
198 0.007013
204 0.003987
208 0.003989
211 0.003956
180 0.003993
148 0.003987
132 0.00798
130 0.006982
138 0.00399
146 0.00498
155 0.004951
162 0.006948
162 0.006983
156 0.003967
155 0.004002
156 0.003983
164 0.004955
171 0.003994
176 0.007016
182 0.007015
189 0.004988
194 0.00397
198 0.003993
198 0.00704
180 0.006987
131 0.004989
113 0.003983
111 0.003982
121 0.005004
128 0.004976
135 0.007021
141 0.006981
140 0.004992
135 0.00399
135 0.003981
139 0.007969
143 0.007974
151 0.004988
157 0.004985
163 0.004987
171 0.003976
175 0.005985
181 0.007972
179 0.007016
145 0.00595
115 0.004492
102 0.004981
102 0.008
108 0.006959
120 0.004985
128 0.003994
134 0.005982
132 0.004024
129 0.005048
131 0.00798
135 0.007982
141 0.004958
148 0.00402
155 0.004023
164 0.007974
170 0.007978
175 0.004987
179 0.003981
173 0.004062
125 0.004991
111 0.005998
112 0.007973
119 0.007979
128 0.005021
137 0.005022
143 0.005019
144 0.007979
141 0.007978
140 0.005951
143 0.004987
148 0.004986
158 0.004992
164 0.004989
170 0.007971
175 0.007972
179 0.005996
180 0.00502
162 0.005996
133 0.007969
117 0.007956
119 0.007941
126 0.004986
135 0.005984
149 0.004961
153 0.005986
152 0.005996
149 0.007047
149 0.007017
153 0.005974
157 0.005981
163 0.005951
170 0.007946
176 0.007974
183 0.004992
188 0.005985
170 0.005976
142 0.005934
130 0.005985
133 0.006979
140 0.007005
153 0.006004
159 0.005988
165 0.005994
165 0.007978
161 0.007961
160 0.004988
161 0.004985
167 0.005983
173 0.006978
176 0.005984
182 0.006968
186 0.007016
189 0.005985
183 0.005981
155 0.005001
129 0.00698
127 0.007939
132 0.005983
150 0.007979
172 0.006975
175 0.005018
173 0.005984
162 0.006985
158 0.007011
161 0.005991
165 0.005984
172 0.005992
182 0.006984
190 0.00698
197 0.005945
204 0.007024
161 0.006941
126 0.006985
94 0.00698
87 0.006977
94 0.006018
111 0.006972
120 0.006003
130 0.005987
133 0.005989
126 0.005986
121 0.005986
124 0.006014
134 0.006973
139 0.00698
151 0.006973
160 0.006974
169 0.007017
175 0.006002
154 0.006971
117 0.005951
58 0.00698
43 0.00602
48 0.005985
63 0.006014
82 0.005982
91 0.005953
92 0.00599
87 0.005953
85 0.007018
87 0.006027
92 0.006
102 0.006982
115 0.006018
125 0.00698
139 0.005996
151 0.005981
147 0.006984
99 0.005993
47 0.005988
22 0.005983
19 0.006983
34 0.005976
44 0.006012
66 0.005951
77 0.005983
80 0.006021
77 0.005983
78 0.006027
86 0.005951
98 0.005984
110 0.00595
121 0.006983
133 0.004986
143 0.006979
153 0.006976
162 0.005986
145 0.006016
90 0.006016
38 0.005978
30 0.005984
46 0.004986
62 0.004986
77 0.005991
88 0.005029
88 0.006009
81 0.004989
80 0.005983
85 0.005029
94 0.005984
106 0.005984
117 0.00502
136 0.006019
144 0.006025
156 0.005974
155 0.006016
120 0.005971
64 0.005019
29 0.006032
22 0.004987
34 0.004979
51 0.004984
70 0.00502
83 0.004988
86 0.006024
83 0.006029
87 0.005933
94 0.00595
105 0.005999
117 0.006029
129 0.004987
143 0.004945
154 0.004986
163 0.004982
167 0.004977
144 0.004984
49 0.005045
20 0.005037
20 0.005949
34 0.00499
51 0.005956
70 0.005987
81 0.005033
83 0.005757
80 0.004997
83 0.004987
89 0.004961
107 0.004969
120 0.005029
133 0.005038
146 0.004996
155 0.004978
165 0.004943
171 0.005024
158 0.004
82 0.005985
35 0.005987
18 0.005988
24 0.005019
49 0.004998
68 0.004988
81 0.004987
85 0.005019
85 0.00505
85 0.004988
91 0.004954
102 0.005951
119 0.003989
132 0.004952
143 0.004986
153 0.004955
168 0.004988
177 0.00396
181 0.004988
154 0.004963
95 0.004963
54 0.004987
41 0.005028
47 0.005019
68 0.004963
85 0.003945
100 0.004957
106 0.004985
98 0.004987
97 0.003991
103 0.003991
117 0.004019
128 0.00401
138 0.003958
147 0.004024
156 0.003964
165 0.004953
173 0.003988
178 0.004987
165 0.00499
76 0.004994
42 0.004986
36 0.004988
51 0.005986
67 0.003986
84 0.003965
96 0.005028
98 0.004997
92 0.004018
91 0.003954
99 0.004002
110 0.005021
130 0.005032
141 0.005031
150 0.004989
161 0.004
169 0.004028
176 0.004004
178 0.004023
149 0.003859
65 0.004041
27 0.002962
19 0.004007
27 0.003993
53 0.003991
71 0.004028
83 0.004019
84 0.003989
82 0.004967
85 0.002994
93 0.003941
104 0.002959
123 0.00399
135 0.004022
145 0.003998
155 0.003987
168 0.003983
177 0.004021
184 0.003021
183 0.002993
119 0.004021
53 0.004
19 0.004023
15 0.004024
27 0.003956
49 0.004021
68 0.004011
81 0.003958
87 0.00402
87 0.003961
91 0.00399
101 0.003025
120 0.003036
135 0.003022
148 0.002998
160 0.003058
171 0.002992
180 0.002991
187 0.003986
201 0.004025
209 0.003988
207 0.004023
162 0.003024
93 0.003026
44 0.003051
41 0.003026
53 0.002998
70 0.002956
86 0.002992
102 0.003022
103 0.001958
96 0.003948
99 0.003021
107 0.003991
120 0.003004
135 0.002991
151 0.00399
162 0.002994
171 0.003025
179 0.003023
185 0.002991
195 0.003024
202 0.003023
188 0.003024
125 0.003032
64 0.003092
39 0.002989
40 0.00302
58 0.003025
75 0.003023
93 0.002996
103 0.003038
105 0.001982
104 0.003037
106 0.002991
122 0.002993
135 0.003006
150 0.003032
163 0.003026
173 0.003028
184 0.00296
192 0.00303
198 0.002027
205 0.00303
213 0.003026
219 0.001996
189 0.003025
71 0.00399
36 0.00203
32 0.002958
42 0.003024
59 0.001962
84 0.003033
97 0.003034
101 0.003026
100 0.001999
101 0.002996
109 0.003029
122 0.001995
146 0.002037
161 0.002046
174 0.001995
185 0.00204
193 0.003028
205 0.003024
211 0.002998
218 0.002991
227 0.002027
233 0.001995
187 0.002005
111 0.001998
50 0.002985
53 0.003
67 0.002032
86 0.003027
104 0.002953
120 0.00299
120 0.002997
117 0.003018
116 0.002005
121 0.001955
135 0.002031
149 0.002029
169 0.002997
179 0.001998
188 0.002989
194 0.003027
200 0.000997
209 0.002037
216 0.002989
218 0.002995
186 0.000999
114 0.00199
52 0.002034
45 0.001971
67 0.002005
86 0.001994
102 0.003034
115 0.001996
118 0.003024
112 0.003022
111 0.002993
119 0.001028
129 0.000999
142 0.001039
157 0.001042
175 0.001959
189 0.003042
200 0.001959
207 0.001959
214 0.000953
217 0.003038
199 0.000997
104 0.002029
43 0.002038
18 0.001989
20 0.002043
35 0.00203
65 0.002032
82 0.000999
87 0.001997
86 0.000947
84 0.00203
88 0.002009
96 0.002032
114 0.001987
129 0.002041
142 0.00303
154 0.002025
165 0.002028
182 0.003022
190 0.001032
180 0.000999
121 0.001051
52 0.002029
17 0.002032
14 0.002026
36 0.003992
55 0.002025
75 0.001985
90 0.000998
95 0.002995
90 0.000998
91 0.002058
104 0.002049
116 0.001004
129 0.0
143 0.001995
155 0.000998
169 0.002026
178 0.001004
187 0.0
188 0.002045
157 0.001008
44 0.00204
15 0.001
20 0.001015
37 0.001046
58 0.00205
78 0.002036
91 0.002012
90 0.002034
85 0.002041
85 0.000998
92 0.0
102 0.000967
126 0.0
139 0.0
152 0.001046
162 0.001085
172 0.001014
175 0.000998
148 0.000997
49 0.0
4 0.0
0 0.0
3 0.001015
23 0.0
58 0.0
73 0.0
75 0.0
71 0.0
73 0.001029
79 0.0
91 0.000999
110 0.001003
124 0.000996
136 0.0
147 0.0
156 0.0
170 0.0
155 0.0
57 0.0
0 0.0
0 0.0
0 0.0
0 0.0
23 0.000996
45 0.0
57 0.0
59 0.0
58 0.0
64 0.000999
77 0.000999
97 0.000998
115 0.000965
129 0.0
142 0.0
154 0.0
168 0.0
176 0.0
173 0.0
118 0.0
39 0.0
55 0.0
58 0.0
72 0.000984
84 0.0
94 0.0
100 0.000998
100 0.000998
98 0.0
100 0.0
107 0.002029
115 0.0
129 0.002038
136 0.0
144 0.0
148 0.000994
152 0.002992
156 0.003045
160 0.0
146 0.0
108 0.0
76 0.003027
63 0.003001
66 0.0
79 0.003989
94 0.000998
102 0.0
103 0.001012
100 0.002978
99 0.003024
104 0.0
111 0.0
119 0.0
128 0.003025
135 0.003024
142 0.0
147 0.002018
153 0.001005
157 0.000996
161 0.000999
161 0.002028
136 0.003022
82 0.0
63 0.0
61 0.001023
68 0.003027
78 0.003032
94 0.0
103 0.002987
103 0.001014
102 0.000954
104 0.001975
110 0.002028
118 0.002994
129 0.0
137 0.0
143 0.0
148 0.003039
152 0.003043
158 0.0
163 0.00301
169 0.0
167 0.000996
138 0.0
96 0.003039
72 0.003026
68 0.001008
75 0.001005
86 0.0
98 0.003028
108 0.002994
112 0.0
110 0.002463
111 0.0
117 0.0
125 0.001002
133 0.002033
141 0.003028
151 0.0
156 0.000999
159 0.0
163 0.003024
167 0.003026
172 0.0
177 0.003052
161 0.001002
119 0.000973
86 0.000968
74 0.003029
77 0.002987
90 0.00097
101 0.0
111 0.0
116 0.002988
116 0.003023
112 0.0
114 0.003023
123 0.001002
131 0.000962
138 0.0
145 0.002029
151 0.003991
157 0.001002
160 0.001013
165 0.0
169 0.003026
172 0.002993
157 0.0
103 0.002987
74 0.0
72 0.0
79 0.001007
90 0.003028
102 0.002895
114 0.0
117 0.001021
116 0.0
115 0.003023
117 0.003033
125 0.000997
135 0.003028
146 0.0
152 0.0
157 0.001016
162 0.002042
166 0.003024
171 0.0
175 0.0
178 0.0
167 0.003024
125 0.003032
73 0.003025
68 0.003026
76 0.000993
86 0.000998
98 0.0
108 0.002026
113 0.002994
113 0.001996
114 0.0
116 0.0
122 0.0
130 0.003001
144 0.0
152 0.002994
158 0.003025
165 0.000964
169 0.000964
173 0.000963
177 0.003024
181 0.003989
174 0.000999
138 0.0
100 0.0
83 0.00303
87 0.0
97 0.003032
109 0.003005
123 0.000996
128 0.00096
125 0.0
122 0.002024
123 0.002993
128 0.0
135 0.000987
142 0.0
150 0.002983
159 0.0
164 0.002956
168 0.002991
174 0.0
176 0.000999
163 0.001013
126 0.003001
93 0.002993
79 0.0
84 0.00097
94 0.0
105 0.002992
121 0.0
124 0.003024
122 0.003027
119 0.000974
121 0.000997
127 0.0
134 0.003029
142 0.003023
150 0.000966
157 0.0
161 0.000962
166 0.004033
172 0.0
165 0.003991
130 0.003036
78 0.003009
64 0.0
65 0.003047
75 0.00303
85 0.003052
101 0.004028
108 0.0
110 0.00302
108 0.003991
109 0.001017
114 0.00403
122 0.00399
132 0.002991
139 0.0
146 0.0
151 0.004027
156 0.003989
163 0.003044
162 0.0
137 0.000975
94 0.003021
60 0.002042
63 0.003989
72 0.00403
87 0.003022
100 0.003003
107 0.002003
108 0.00399
107 0.003992
107 0.003037
112 0.00299
119 0.00299
128 0.004977
141 0.00299
148 0.003007
153 0.00399
160 0.001989
164 0.003027
166 0.002985
150 0.003991
110 0.004023
72 0.002996
66 0.003996
72 0.002993
