166 0.003989
169 0.003989
172 0.003981
175 0.003994
178 0.006919
181 0.007
183 0.004987
149 0.007015
68 0.004031
43 0.003989
42 0.00399
54 0.00794
61 0.007014
72 0.004991
76 0.00396
81 0.005012
84 0.006982
85 0.006982
84 0.004024
87 0.006971
95 0.003961
104 0.005041
115 0.004957
124 0.00697
133 0.007936
143 0.004955
149 0.004996
155 0.003992
159 0.006982
164 0.006981
168 0.004006
172 0.006979
176 0.003994
179 0.004967
182 0.005009
185 0.007977
185 0.007947
154 0.004022
89 0.003989
55 0.003995
48 0.007948
54 0.008004
70 0.003983
83 0.006981
94 0.004009
98 0.005007
99 0.004002
95 0.007945
92 0.007974
94 0.004997
100 0.004991
108 0.003973
118 0.007978
128 0.007978
139 0.003989
147 0.007979
154 0.004005
159 0.003985
163 0.002992
167 0.007977
171 0.007978
174 0.003958
177 0.003964
180 0.003984
182 0.007948
186 0.007029
186 0.00399
143 0.007969
66 0.00307
44 0.002992
44 0.002938
56 0.008011
65 0.007067
72 0.001969
76 0.002992
81 0.002952
83 0.006981
83 0.007973
82 0.003007
85 0.00793
93 0.003994
103 0.00399
113 0.003958
123 0.007945
132 0.007959
143 0.002985
149 0.003033
155 0.002956
161 0.007928
165 0.007952
169 0.003955
174 0.007994
177 0.003986
181 0.004036
184 0.004021
187 0.007947
189 0.007945
192 0.003953
192 0.003989
176 0.004989
91 0.006982
53 0.00798
45 0.007969
54 0.007923
70 0.004951
79 0.004042
85 0.00402
90 0.007977
94 0.007972
95 0.00407
93 0.003991
94 0.00494
100 0.006982
108 0.007016
124 0.007943
131 0.007978
142 0.00801
149 0.004942
154 0.005959
161 0.007033
165 0.007001
169 0.004926
172 0.004956
175 0.004987
179 0.006949
182 0.006982
186 0.006951
188 0.007962
191 0.004986
193 0.004987
185 0.004987
112 0.006981
76 0.007978
49 0.004004
52 0.005018
64 0.005018
83 0.006983
94 0.006982
109 0.006981
112 0.006984
109 0.005002
104 0.003994
103 0.003958
107 0.007986
114 0.007933
124 0.003958
132 0.006043
140 0.005985
148 0.006954
153 0.007
161 0.006951
164 0.006948
167 0.00492
170 0.004959
173 0.003954
176 0.006991
178 0.008
181 0.007017
177 0.005981
135 0.004988
74 0.005986
42 0.00599
45 0.00601
60 0.006981
70 0.00701
78 0.004956
85 0.005954
89 0.003929
90 0.005986
88 0.005975
87 0.004986
89 0.00502
96 0.005984
108 0.00701
121 0.004986
132 0.006949
139 0.006988
145 0.00498
151 0.004989
155 0.004987
161 0.005983
164 0.005983
168 0.005983
170 0.00505
174 0.005937
176 0.006968
180 0.005
172 0.005985
117 0.006035
61 0.004985
38 0.004986
36 0.004981
49 0.006982
58 0.006983
63 0.005053
68 0.005002
72 0.005035
74 0.006027
73 0.004956
75 0.005954
79 0.005996
86 0.005018
95 0.004957
106 0.005984
119 0.007023
128 0.00695
136 0.004989
143 0.004984
148 0.004954
158 0.005987
163 0.005951
166 0.005986
170 0.005984
173 0.005981
176 0.005934
179 0.005953
182 0.005955
185 0.006034
176 0.005907
97 0.005984
55 0.006017
42 0.005985
50 0.005984
66 0.006022
75 0.005984
81 0.00595
86 0.005985
89 0.005969
88 0.005951
86 0.005987
86 0.005985
92 0.00596
101 0.005985
113 0.005023
123 0.004983
134 0.005968
142 0.005951
147 0.005945
152 0.004977
156 0.004954
162 0.00595
165 0.005986
168 0.004982
170 0.004954
174 0.005972
177 0.005964
179 0.006013
155 0.004987
92 0.004988
48 0.005961
44 0.005975
49 0.005949
65 0.005984
74 0.005984
83 0.005954
88 0.005012
90 0.005005
85 0.004981
84 0.005953
86 0.005987
93 0.004987
105 0.005945
115 0.004987
125 0.005944
133 0.005984
140 0.005959
149 0.005935
154 0.005951
158 0.005952
164 0.004955
168 0.005952
171 0.00504
173 0.004987
177 0.004987
179 0.005988
176 0.004998
129 0.006019
69 0.005994
39 0.005943
40 0.004986
51 0.004984
65 0.005049
68 0.004947
71 0.004987
74 0.004987
76 0.005018
75 0.005018
75 0.004986
79 0.006003
86 0.005942
95 0.005021
104 0.003943
114 0.004987
129 0.003989
137 0.003997
145 0.004956
150 0.004957
157 0.004954
160 0.004987
164 0.004976
169 0.004975
173 0.004987
177 0.003959
180 0.00399
185 0.005018
189 0.004957
190 0.003993
177 0.004956
114 0.004956
54 0.004954
46 0.004956
53 0.004975
65 0.004984
75 0.004986
81 0.004987
87 0.005939
89 0.005939
88 0.004923
87 0.00502
89 0.004986
94 0.00494
102 0.004993
114 0.005021
124 0.004953
134 0.004973
142 0.004987
148 0.004043
156 0.00495
162 0.003995
167 0.004021
170 0.005019
173 0.004991
177 0.005019
179 0.004987
183 0.004989
186 0.004997
186 0.004987
165 0.005016
102 0.005024
55 0.003988
54 0.00399
70 0.003991
83 0.00497
93 0.004987
101 0.005002
107 0.004986
106 0.004995
101 0.004954
98 0.004938
99 0.004957
105 0.004956
116 0.004021
130 0.003959
141 0.003958
147 0.003993
153 0.003947
159 0.00499
162 0.00499
167 0.004983
170 0.004973
173 0.004956
176 0.004988
179 0.003989
179 0.004021
129 0.003989
60 0.00399
45 0.004021
48 0.003038
59 0.002991
70 0.002992
79 0.003992
83 0.004024
87 0.004022
89 0.004022
87 0.003989
86 0.004033
90 0.004022
100 0.004917
110 0.005017
119 0.003984
129 0.004021
137 0.003981
146 0.004022
152 0.004018
157 0.004025
161 0.003961
165 0.00402
169 0.004021
173 0.003989
178 0.004989
181 0.004942
183 0.003961
172 0.003993
112 0.00399
52 0.003958
43 0.00396
50 0.003992
61 0.003992
70 0.00399
76 0.003964
81 0.00399
85 0.003967
85 0.003905
85 0.00399
88 0.003994
93 0.004037
104 0.004016
115 0.003992
125 0.004048
135 0.003958
143 0.004021
151 0.003029
158 0.003024
164 0.004017
169 0.003023
173 0.003987
176 0.003989
179 0.00402
183 0.003988
186 0.004021
189 0.00404
191 0.003989
193 0.004027
171 0.003959
86 0.002993
53 0.003028
56 0.002994
67 0.002973
80 0.002992
90 0.00399
101 0.004021
107 0.003989
108 0.00399
106 0.003965
103 0.003994
104 0.00399
110 0.002966
122 0.00299
131 0.002951
139 0.002992
146 0.002993
152 0.003946
159 0.00399
163 0.004019
167 0.003938
170 0.003974
172 0.004019
176 0.002967
179 0.003023
182 0.002992
177 0.002962
127 0.002987
71 0.004031
48 0.002993
51 0.003039
64 0.002944
75 0.002993
84 0.003942
90 0.004016
97 0.003023
96 0.003025
94 0.003021
94 0.003024
99 0.002992
107 0.002992
116 0.002981
126 0.00296
138 0.002992
146 0.002991
152 0.003989
157 0.002955
164 0.002992
168 0.002963
172 0.002992
176 0.003027
179 0.003027
182 0.003028
184 0.002992
187 0.002992
190 0.003023
184 0.001973
132 0.002984
72 0.002029
45 0.003988
52 0.00296
65 0.002992
75 0.003988
81 0.003949
86 0.003969
88 0.00296
89 0.003024
88 0.003987
89 0.00203
93 0.002028
100 0.002027
116 0.001995
126 0.001992
135 0.002036
146 0.002947
152 0.002992
157 0.002995
161 0.002993
166 0.002982
171 0.002995
174 0.003001
178 0.002996
181 0.001995
186 0.001987
188 0.001995
191 0.001994
194 0.001995
176 0.001995
112 0.002993
64 0.003026
51 0.002992
60 0.002989
74 0.002992
87 0.002992
96 0.001994
105 0.001957
107 0.002025
105 0.002038
102 0.002027
103 0.002993
108 0.002992
117 0.001003
126 0.000999
138 0.002019
145 0.001995
152 0.002993
157 0.002028
164 0.001989
166 0.002024
169 0.001995
173 0.001994
175 0.001995
178 0.001997
180 0.001995
183 0.001995
185 0.003053
175 0.002011
118 0.001968
54 0.002022
53 0.001995
64 0.002027
78 0.001995
96 0.001998
107 0.001977
115 0.001995
117 0.001995
114 0.001996
106 0.002002
105 0.001988
110 0.001989
124 0.001995
133 0.002028
141 0.002029
148 0.001997
156 0.00203
160 0.002022
164 0.001979
167 0.002026
170 0.002021
174 0.001994
177 0.001994
179 0.000952
183 0.001004
185 0.000998
181 0.001995
138 0.001995
62 0.001994
43 0.001996
46 0.001995
57 0.002058
70 0.002026
81 0.001993
86 0.002039
90 0.001001
91 0.000998
89 0.001003
88 0.002029
91 0.002002
101 0.002028
110 0.002036
120 0.001952
130 0.001999
138 0.001995
146 0.000965
152 0.001034
157 0.000966
164 0.000973
167 0.001008
171 0.000998
173 0.001995
178 0.002038
181 0.001994
183 0.00198
186 0.002153
188 0.000997
161 0.002004
95 0.000997
56 0.000998
50 0.001007
62 0.001998
75 0.000997
85 0.002033
95 0.002036
99 0.001997
100 0.002042
99 0.001995
96 0.002056
99 0.001001
104 0.000998
113 0.001037
128 0.000999
137 0.000997
144 0.001001
150 0.000998
155 0.000998
161 0.000997
165 0.001997
167 0.000998
171 0.000997
173 0.001004
176 0.000997
179 0.00106
182 0.001008
183 0.000991
168 0.000997
111 0.000998
65 0.000997
51 0.000946
60 0.000967
74 0.001007
88 0.000997
100 0.000991
112 0.001036
115 0.000997
107 0.001
103 0.000998
104 0.001035
109 0.001017
117 0.000998
130 0.000998
138 0.000998
144 0.001001
151 0.000997
156 0.001002
161 0.000997
165 0.00103
169 0.000998
173 0.000997
175 0.000997
177 0.000997
179 0.000998
182 0.000997
176 0.0
129 0.000998
70 0.000999
46 0.0008
47 0.000998
62 0.000998
77 0.000997
83 0.0
88 0.0
91 0.0
92 0.0
90 0.000998
90 0.0
94 0.0
101 0.000999
110 0.001012
123 0.000998
134 0.000997
144 0.000997
150 0.0
154 0.001028
159 0.0
163 0.0
167 0.0
170 0.0
174 0.0
176 0.0
179 0.0
183 0.0
186 0.000998
186 0.000997
158 0.001
93 0.0
55 0.0
47 0.0
58 0.0
72 0.0
84 0.0
93 0.0
99 0.0
104 0.0
102 0.001015
100 0.000998
103 0.0
108 0.0
117 0.0
126 0.0
137 0.0
145 0.0
150 0.0
155 0.0
160 0.0
165 0.000966
169 0.0
172 0.000998
175 0.0
177 0.0
180 0.0
181 0.0
185 0.0
188 0.0
186 0.0
157 0.0
95 0.0
55 0.0
58 0.0
76 0.0
91 0.001069
103 0.0
114 0.0
119 0.0
117 0.000992
111 0.0
107 0.0
109 0.000998
115 0.000997
126 0.000998
137 0.000998
146 0.0
152 0.000999
156 0.001
160 0.000998
163 0.001004
167 0.000997
170 0.0
173 0.001027
175 0.0
177 0.001
180 0.001031
176 0.000999
115 0.001014
64 0.000999
45 0.001033
47 0.001032
58 0.001015
75 0.001008
85 0.0
92 0.0
97 0.0
99 0.001051
96 0.001004
94 0.0
100 0.001001
107 0.000998
116 0.000997
125 0.001029
133 0.0
141 0.000997
146 0.000997
151 0.001006
154 0.0
157 0.000998
163 0.001044
167 0.00099
170 0.000997
173 0.000988
175 0.000999
178 0.000997
171 0.000998
124 0.001
58 0.001009
43 0.000997
48 0.000997
60 0.0
78 0.000998
85 0.001044
91 0.000969
95 0.001033
95 0.000997
94 0.001002
95 0.00097
99 0.001016
109 0.000997
118 0.000998
128 0.001039
136 0.001995
147 0.001026
152 0.000999
156 0.001043
161 0.000998
164 0.000998
167 0.001
169 0.001036
171 0.000999
175 0.001027
177 0.001967
180 0.000997
178 0.002043
110 0.000991
65 0.001026
51 0.001047
60 0.001001
73 0.001032
85 0.000997
94 0.00101
103 0.001
105 0.000967
103 0.000997
98 0.001987
97 0.001998
104 0.001997
112 0.001034
121 0.000998
132 0.000998
138 0.001021
145 0.001028
150 0.001028
154 0.000997
158 0.001996
161 0.002003
163 0.001997
166 0.002033
167 0.002039
149 0.002013
92 0.002054
48 0.001964
44 0.000998
52 0.000998
63 0.000998
72 0.001
80 0.002035
84 0.002029
87 0.00202
86 0.002027
84 0.001997
87 0.001998
93 0.001053
105 0.000996
114 0.001037
123 0.000996
131 0.002032
140 0.001965
146 0.002047
150 0.002025
156 0.00201
158 0.002019
164 0.001956
167 0.001984
170 0.001988
173 0.002035
175 0.001024
161 0.001026
103 0.002027
58 0.000997
44 0.002019
51 0.002034
65 0.001993
69 0.00199
75 0.001995
80 0.001998
82 0.001995
82 0.001994
82 0.002005
84 0.001996
89 0.001999
97 0.001995
109 0.002029
118 0.002027
126 0.001979
138 0.001994
145 0.001992
151 0.001987
156 0.001994
160 0.002027
164 0.001993
167 0.001996
172 0.002006
176 0.002009
178 0.002993
182 0.00196
185 0.001996
188 0.002013
190 0.001995
184 0.001992
138 0.001989
67 0.001992
51 0.001997
56 0.00299
71 0.001962
81 0.001926
87 0.00301
92 0.002029
95 0.00203
94 0.002996
92 0.001991
93 0.001995
99 0.001971
107 0.002992
117 0.002994
126 0.002963
134 0.002993
142 0.002994
149 0.002964
153 0.00295
157 0.001997
161 0.002046
165 0.002013
167 0.002022
171 0.001995
173 0.002023
176 0.001987
179 0.002062
182 0.001999
182 0.001972
165 0.002979
105 0.003049
56 0.002028
52 0.003022
68 0.00198
80 0.002981
86 0.001995
96 0.002028
101 0.001994
101 0.001998
97 0.000969
94 0.000983
96 0.003026
102 0.00299
114 0.002006
126 0.003024
135 0.002992
144 0.001989
150 0.002012
155 0.001994
159 0.001999
163 0.001992
168 0.001018
170 0.000999
173 0.001003
176 0.002993
179 0.002967
182 0.002992
185 0.003019
187 0.002044
187 0.001995
165 0.001983
100 0.003968
59 0.00398
49 0.000997
58 0.001046
70 0.000999
81 0.003012
87 0.002991
95 0.002992
97 0.003028
95 0.00199
95 0.0
97 0.002008
102 0.003993
110 0.003995
124 0.001947
132 0.001016
141 0.00102
148 0.002988
154 0.00301
161 0.002985
165 0.002991
170 0.001996
172 0.002023
175 0.00105
178 0.003986
181 0.003988
184 0.00206
186 0.00203
189 0.002029
191 0.002964
193 0.002978
192 0.003042
164 0.003023
84 0.000974
58 0.000987
57 0.000991
68 0.00401
83 0.003992
101 0.001001
110 0.000962
118 0.00096
119 0.003017
112 0.001013
107 0.002993
108 0.003024
116 0.0
124 0.0
133 0.0
140 0.003986
146 0.003965
153 0.001063
157 0.000938
160 0.000999
162 0.00299
167 0.001016
169 0.003022
172 0.003023
175 0.0
177 0.0
180 0.00093
182 0.003991
182 0.003996
143 0.0
83 0.001
52 0.000995
48 0.003982
66 0.000998
79 0.00299
91 0.003988
103 0.0
108 0.0
109 0.0
106 0.003991
102 0.003975
104 0.0
110 0.0
118 0.0
127 0.003984
139 0.0
145 0.004979
151 0.004998
156 0.0
160 0.0
163 0.000832
166 0.003989
169 0.004955
172 0.000949
174 0.0
177 0.0
179 0.004947
183 0.0
179 0.004989
144 0.003992
67 0.000995
44 0.000964
45 0.001
56 0.004941
69 0.003985
83 0.00105
91 0.0
98 0.000995
102 0.004959
101 0.0
100 0.00504
103 0.004986
111 0.0
119 0.001017
127 0.0
134 0.004035
141 0.00403
148 0.0
152 0.0
156 0.0
158 0.004988
163 0.0
166 0.004986
169 0.004985
172 0.000969
174 0.001036
177 0.0
179 0.003998
181 0.003978
162 0.001017
102 0.001034
59 0.001005
46 0.005008
60 0.000999
74 0.004987
87 0.004987
99 0.001016
105 0.0
106 0.0
102 0.004996
98 0.003993
99 0.001002
104 0.001026
112 0.000995
120 0.00498
133 0.001025
139 0.004958
145 0.004988
149 0.004987
154 0.0
157 0.0
160 0.00101
162 0.004993
165 0.004005
168 0.0
170 0.0
170 0.000966
139 0.001037
80 0.0
48 0.005013
42 0.005045
54 0.001987
66 0.001019
76 0.0
84 0.004979
91 0.005987
95 0.001003
94 0.000989
92 0.002039
95 0.000995
101 0.001029
109 0.004979
118 0.005988
129 0.00104
136 0.001973
142 0.001953
147 0.005981
152 0.005981
157 0.001006
160 0.0
165 0.000977
168 0.000999
171 0.0
172 0.005016
175 0.004004
178 0.000997
177 0.000998
153 0.000984
91 0.004984
51 0.005972
43 0.001004
52 0.001985
72 0.000997
78 0.001026
83 0.001041
87 0.005019
89 0.005041
88 0.000957
88 0.000994
91 0.0
97 0.004991
106 0.005992
118 0.000998
127 0.000957
140 0.001969
145 0.001995
150 0.001004
154 0.004988
158 0.005022
163 0.002039
166 0.000999
168 0.001004
171 0.005982
174 0.005976
177 0.002002
180 0.000995
183 0.002002
185 0.001995
179 0.001043
136 0.005018
77 0.004986
50 0.001996
55 0.000997
67 0.002003
80 0.005972
91 0.005977
102 0.001995
107 0.002012
104 0.003005
99 0.001
98 0.001999
102 0.00594
108 0.005045
120 0.002018
128 0.001032
135 0.001988
141 0.005996
146 0.005985
152 0.000997
155 0.001012
160 0.002008
163 0.00101
165 0.000969
168 0.005971
170 0.006015
174 0.001973
176 0.002051
178 0.002009
175 0.006003
143 0.005975
68 0.002002
46 0.002026
53 0.001997
66 0.002079
77 0.001995
84 0.005984
90 0.005006
95 0.002002
95 0.002092
93 0.001994
92 0.00596
95 0.005986
104 0.002001
114 0.002
129 0.001995
136 0.002043
142 0.002001
148 0.005008
152 0.00701
157 0.002029
161 0.001979
164 0.001999
166 0.005966
169 0.005986
173 0.002005
176 0.005984
179 0.001998
181 0.003009
184 0.002028
185 0.007007
172 0.00699
94 0.003
55 0.002003
46 0.001981
52 0.006
64 0.006937
79 0.00197
88 0.005972
95 0.002996
97 0.00201
97 0.001997
96 0.006972
97 0.00698
103 0.003003
112 0.002011
120 0.002025
129 0.006967
137 0.00703
146 0.000993
153 0.006032
158 0.001991
162 0.000986
165 0.002036
167 0.007032
170 0.006982
174 0.002992
176 0.001942
179 0.001943
181 0.006988
183 0.006982
186 0.006027
183 0.005984
150 0.006033
75 0.001992
54 0.003028
56 0.003027
67 0.006986
82 0.006996
99 0.002965
109 0.003029
115 0.002022
117 0.007039
115 0.006986
110 0.005985
112 0.006023
119 0.00297
126 0.002986
133 0.002995
140 0.007008
146 0.007019
152 0.002996
156 0.002961
160 0.003978
162 0.006949
164 0.00695
167 0.006978
171 0.007957
172 0.003005
174 0.002972
177 0.002992
174 0.007007
141 0.006988
69 0.001987
49 0.002027
50 0.001995
61 0.006997
75 0.007974
95 0.007956
106 0.007942
109 0.003011
108 0.002992
105 0.002993
103 0.006982
105 0.007017
114 0.003008
122 0.002985
131 0.003025
138 0.006988
144 0.00698
153 0.007978
157 0.007979
161 0.003024
164 0.002973
166 0.003023
169 0.007006
171 0.007031
174 0.002997
176 0.002985
178 0.003003
179 0.006978
148 0.007974
70 0.007979
46 0.007979
48 0.003025
60 0.004002
72 0.002992
82 0.008048
90 0.007977
94 0.002933
95 0.00299
95 0.003019
93 0.006966
97 0.003992
103 0.007979
115 0.007979
124 0.004044
132 0.003954
140 0.003019
145 0.007944
151 0.007979
156 0.003002
160 0.002969
163 0.003997
166 0.006946
171 0.004029
173 0.007979
175 0.007959
178 0.004015
181 0.004017
177 0.004027
143 0.007944
84 0.007943
49 0.003028
51 0.003006
63 0.002041
80 0.007011
94 0.004057
101 0.007948
106 0.007968
104 0.00302
101 0.003062
100 0.001994
103 0.007981
111 0.007992
119 0.003
128 0.002983
135 0.00401
142 0.006931
148 0.003962
152 0.007979
156 0.007949
158 0.003989
161 0.003991
163 0.00399
166 0.007979
169 0.006958
166 0.003962
133 0.005119
78 0.005017
49 0.007012
54 0.005042
66 0.007946
79 0.00797
92 0.003933
100 0.004016
104 0.003965
102 0.007971
99 0.007982
97 0.003037
100 0.004032
107 0.003994
119 0.00698
130 0.00402
140 0.007972
146 0.007979
150 0.002951
155 0.002974
158 0.003993
162 0.00697
165 0.007008
167 0.003007
169 0.004008
172 0.001988
174 0.006969
145 0.00399
70 0.006982
47 0.006983
47 0.003946
56 0.004026
68 0.004019
76 0.004019
84 0.006985
88 0.007944
91 0.004002
91 0.004994
91 0.004996
94 0.005019
99 0.003989
110 0.006949
120 0.00701
128 0.005034
135 0.004009
142 0.005002
149 0.005926
153 0.005983
157 0.004961
160 0.004988
163 0.004966
168 0.004987
171 0.004939
175 0.006961
177 0.006945
180 0.004929
183 0.005019
181 0.005025
130 0.007002
75 0.005959
52 0.003989
52 0.005003
71 0.005012
83 0.003995
90 0.003984
98 0.006991
100 0.006958
100 0.004016
98 0.003988
98 0.003991
102 0.006937
108 0.007016
117 0.005021
126 0.004007
139 0.004987
145 0.004977
151 0.005009
157 0.007021
160 0.006983
163 0.004978
166 0.004993
168 0.005051
172 0.006987
174 0.007058
176 0.005051
178 0.005013
181 0.005947
173 0.004983
125 0.005041
65 0.006982
55 0.006953
61 0.005
73 0.005051
86 0.00596
100 0.005984
108 0.006008
111 0.005022
110 0.004962
102 0.005975
102 0.004962
107 0.004956
116 0.006998
125 0.006012
133 0.004958
140 0.004983
146 0.004027
152 0.006019
156 0.005985
159 0.005017
162 0.00502
166 0.005015
169 0.005053
171 0.00502
174 0.005964
176 0.006984
179 0.004981
180 0.005028
167 0.004042
91 0.005949
55 0.005988
47 0.005007
54 0.004987
74 0.004987
82 0.004998
88 0.004985
94 0.004935
95 0.006023
93 0.004991
92 0.004984
92 0.005002
99 0.006004
107 0.006018
116 0.005985
125 0.005972
138 0.005038
145 0.005969
150 0.005974
154 0.006011
157 0.005985
161 0.005987
164 0.004964
167 0.004984
170 0.004954
173 0.004973
176 0.00501
178 0.005972
183 0.005979
184 0.004976
161 0.005975
100 0.006038
60 0.005951
51 0.004956
57 0.004999
70 0.005989
87 0.004987
96 0.004981
103 0.005988
107 0.004999
105 0.005949
103 0.005985
104 0.005946
108 0.005976
115 0.005033
127 0.005013
132 0.004973
142 0.004953
148 0.004984
152 0.005015
156 0.004964
161 0.005003
165 0.005957
167 0.004995
170 0.005984
173 0.006017
175 0.006011
178 0.005953
181 0.004985
183 0.00498
177 0.004984
133 0.004978
78 0.004
54 0.004981
68 0.004953
82 0.004962
96 0.004985
108 0.005029
117 0.005024
121 0.005946
118 0.004988
112 0.004991
109 0.00493
111 0.004989
118 0.005021
132 0.005035
139 0.00503
147 0.004982
152 0.004985
156 0.004992
159 0.005018
163 0.005021
166 0.004937
168 0.00493
170 0.004985
172 0.005019
175 0.004994
179 0.005019
178 0.005012
133 0.00498
76 0.004971
50 0.004992
48 0.005018
58 0.004967
76 0.004956
88 0.004981
97 0.004975
104 0.005004
108 0.005015
104 0.005032
100 0.005023
102 0.00498
108 0.004986
116 0.003983
124 0.005022
133 0.005068
142 0.004946
148 0.00399
152 0.004008
157 0.005042
160 0.004984
164 0.005015
167 0.005035
171 0.004021
173 0.004985
175 0.005013
178 0.004026
180 0.004947
181 0.003957
165 0.003979
106 0.003997
60 0.003982
46 0.003989
59 0.004022
74 0.005011
91 0.004979
100 0.004985
107 0.004987
110 0.005018
108 0.004029
104 0.003973
104 0.004134
108 0.004003
115 0.004031
123 0.004025
136 0.005026
143 0.005013
150 0.004971
154 0.005
158 0.004969
162 0.004046
164 0.004022
167 0.003986
170 0.004029
172 0.003934
174 0.003985
177 0.003956
181 0.004006
183 0.005013
180 0.004999
147 0.004994
87 0.004992
56 0.004049
52 0.004002
67 0.003964
82 0.003988
95 0.004003
107 0.003997
116 0.00399
119 0.003998
114 0.004015
108 0.003986
109 0.004012
115 0.005004
123 0.005041
130 0.004029
140 0.003985
145 0.004018
150 0.004033
155 0.004025
160 0.003994
163 0.004022
165 0.004006
168 0.003987
170 0.00397
172 0.004001
174 0.003993
177 0.003961
178 0.003991
161 0.003998
104 0.003989
59 0.003993
48 0.004001
58 0.003991
73 0.004017
91 0.004029
101 0.00396
109 0.003
112 0.002994
110 0.002993
105 0.002948
104 0.002939
109 0.002961
115 0.002983
129 0.00397
136 0.00402
143 0.004018
150 0.003991
154 0.004007
158 0.003983
160 0.004004
164 0.003041
167 0.002977
170 0.003045
172 0.003026
174 0.003027
178 0.004029
180 0.004021
181 0.003023
151 0.00399
89 0.003998
52 0.003992
45 0.003976
52 0.004027
71 0.002992
85 0.003028
95 0.002988
103 0.003004
109 0.003012
107 0.004017
104 0.004036
104 0.003989
109 0.003997
117 0.00398
124 0.00404
132 0.003018
142 0.003004
147 0.003004
152 0.003026
156 0.002986
162 0.002998
165 0.002997
167 0.002998
170 0.002995
173 0.003984
176 0.003985
178 0.00299
181 0.002987
182 0.003042
183 0.003026
165 0.00317
106 0.002975
50 0.002981
52 0.003
64 0.003022
79 0.003991
98 0.004
109 0.00395
116 0.003008
120 0.002992
118 0.002994
112 0.003036
112 0.003043
116 0.003045
127 0.002024
134 0.003013
141 0.003028
146 0.003026
152 0.002012
156 0.001956
159 0.00298
161 0.003031
163 0.00303
166 0.00296
168 0.002985
170 0.002997
173 0.003053
175 0.002991
170 0.002963
133 0.001972
64 0.002992
48 0.001996
50 0.001974
63 0.002967
78 0.00302
97 0.003017
108 0.003008
115 0.00299
115 0.002988
109 0.003033
107 0.003048
109 0.002993
117 0.003005
125 0.003002
133 0.001988
139 0.002032
145 0.002023
151 0.002995
155 0.003051
160 0.002999
162 0.003028
164 0.002994
167 0.002994
168 0.003053
171 0.003038
174 0.002027
175 0.00205
174 0.003032
151 0.002993
72 0.001999
43 0.001995
46 0.00204
59 0.002031
73 0.002029
84 0.001961
92 0.002994
99 0.003035
99 0.002994
96 0.001986
93 0.001996
95 0.002993
103 0.003002
111 0.003001
125 0.001994
132 0.002001
138 0.002036
144 0.002029
147 0.003024
153 0.002024
156 0.002003
158 0.002061
162 0.002994
164 0.002963
167 0.002995
170 0.003027
174 0.002059
178 0.002027
173 0.002017
139 0.002011
80 0.002049
46 0.001999
47 0.002056
59 0.002965
73 0.002035
85 0.001996
97 0.001995
104 0.001993
104 0.002052
100 0.002
99 0.002031
102 0.001995
108 0.002031
118 0.001993
127 0.001994
134 0.001995
141 0.00205
146 0.000998
152 0.000968
155 0.000957
159 0.000998
161 0.002032
163 0.00205
165 0.002038
167 0.001994
169 0.002059
171 0.001996
158 0.002004
107 0.001971
63 0.001995
49 0.000997
58 0.001
80 0.000999
94 0.001996
105 0.001995
113 0.002003
114 0.001999
109 0.001995
105 0.001949
104 0.002007
109 0.001023
117 0.000999
128 0.000994
135 0.001032
145 0.001016
150 0.000993
154 0.001971
157 0.000997
160 0.001
163 0.000987
165 0.000996
167 0.000982
170 0.000995
172 0.000997
168 0.000995
127 0.000972
51 0.000997
43 0.000997
50 0.001005
63 0.002028
75 0.000998
84 0.001974
94 0.002004
97 0.001982
97 0.001995
94 0.000998
92 0.002039
98 0.00103
105 0.000963
118 0.000967
126 0.000973
134 0.001998
140 0.001
145 0.000995
151 0.0
155 0.000999
158 0.000992
161 0.000994
164 0.001011
167 0.000999
169 0.000989
173 0.000998
175 0.000998
162 0.000997
107 0.001013
62 0.000998
46 0.000997
54 0.000998
67 0.000995
79 0.001995
88 0.001996
99 0.00099
102 0.001005
100 0.000997
98 0.001006
99 0.000998
104 0.000999
112 0.000998
123 0.000992
131 0.000999
138 0.0
144 0.0
149 0.001997
156 0.000998
159 0.000975
163 0.001026
166 0.00101
168 0.000998
171 0.000961
173 0.000998
176 0.000997
178 0.0
179 0.0
159 0.0
102 0.0
53 0.0
56 0.0
72 0.001011
85 0.000997
98 0.000997
107 0.000996
112 0.001
111 0.000998
105 0.001005
102 0.0
103 0.0
108 0.0
122 0.0
130 0.0
140 0.000959
145 0.000998
150 0.000998
153 0.000997
157 0.0
161 0.001003
163 0.000997
166 0.0
168 0.0
170 0.0
174 0.0
172 0.0
123 0.0
70 0.0
48 0.0
48 0.000934
59 0.000935
76 0.000998
86 0.00099
94 0.0
99 0.0
100 0.0
96 0.0
94 0.0
99 0.0
106 0.000999
115 0.001003
124 0.0
133 0.0
141 0.0
146 0.000998
151 0.0
154 0.0
158 0.0
162 0.0
165 0.0
169 0.0
171 0.0
174 0.0
176 0.0
179 0.0
181 0.0
171 0.000998
119 0.0
66 0.0
47 0.0
56 0.0
70 0.0
86 0.0
94 0.0
101 0.0
103 0.0
102 0.0
99 0.000998
100 0.000999
104 0.000965
111 0.002035
125 0.0
133 0.0
141 0.0
148 0.0
153 0.0
157 0.000999
160 0.000997
163 0.002021
167 0.00102
170 0.00203
172 0.002005
174 0.002171
178 0.000997
180 0.001996
182 0.00203
185 0.001002
178 0.002037
134 0.001881
77 0.002032
54 0.001995
57 0.002027
70 0.002031
85 0.001998
99 0.001036
115 0.002003
118 0.001036
116 0.001023
109 0.001041
106 0.000994
108 0.000962
115 0.000998
123 0.00105
132 0.000959
141 0.001008
146 0.001035
151 0.002082
156 0.001984
159 0.002035
161 0.00203
164 0.002016
167 0.002036
168 0.001036
171 0.000982
174 0.000995
175 0.000999
167 0.000997
121 0.000998
69 0.001004
48 0.001982
56 0.001991
71 0.002025
84 0.002019
98 0.00199
106 0.001992
110 0.001028
108 0.001033
103 0.001022
101 0.001
105 0.000991
111 0.000998
125 0.000946
133 0.000965
140 0.000992
145 0.001994
151 0.002032
154 0.001994
157 0.002006
160 0.001028
161 0.000993
164 0.001028
167 0.001031
168 0.000998
172 0.000997
174 0.000974
172 0.002001
138 0.002019
64 0.002029
44 0.001962
45 0.002
56 0.002019
68 0.00103
80 0.001022
85 0.001009
89 0.001034
89 0.00102
87 0.000997
87 0.001996
90 0.001005
99 0.001029
108 0.001996
117 0.001986
126 0.002019
133 0.002024
141 0.001027
146 0.001024
150 0.001002
156 0.001045
158 0.000977
161 0.00103
162 0.001995
166 0.002037
168 0.002023
171 0.002947
173 0.002027
176 0.002028
171 0.001024
131 0.000997
55 0.001029
48 0.001002
56 0.002072
68 0.002026
80 0.001996
91 0.001995
96 0.002025
98 0.001968
97 0.002012
93 0.00203
92 0.002022
97 0.001985
109 0.001952
117 0.001027
125 0.00103
132 0.001966
138 0.002067
143 0.001993
147 0.002048
150 0.002041
153 0.002044
155 0.002001
159 0.00203
161 0.002036
165 0.001996
168 0.002994
171 0.001952
170 0.002038
143 0.002045
72 0.001995
51 0.001995
51 0.001996
61 0.002038
73 0.001996
85 0.002005
92 0.001996
98 0.001997
96 0.002989
92 0.001996
92 0.002043
95 0.002016
104 0.002028
113 0.002029
121 0.001998
129 0.002032
136 0.002029
143 0.001027
147 0.00202
153 0.003034
156 0.003049
160 0.001927
162 0.003004
164 0.002993
168 0.002046
170 0.001962
173 0.001989
175 0.002066
178 0.002021
174 0.001994
135 0.002996
57 0.001998
48 0.002993
55 0.002991
70 0.001989
79 0.002022
83 0.002028
87 0.001954
90 0.002048
91 0.002022
90 0.001995
91 0.002028
95 0.001995
106 0.003015
116 0.002985
127 0.002022
135 0.003002
141 0.002962
146 0.002993
150 0.00205
154 0.001995
158 0.001995
160 0.001995
164 0.001995
167 0.002992
172 0.003002
175 0.003001
177 0.002991
180 0.002991
182 0.002993
184 0.002993
186 0.003968
176 0.00404
105 0.001994
66 0.001984
57 0.002001
62 0.002994
79 0.001986
93 0.003
100 0.003042
106 0.002021
106 0.001984
102 0.002001
99 0.002985
99 0.002993
104 0.002992
111 0.002018
120 0.001995
135 0.001995
141 0.000987
146 0.002994
150 0.003022
154 0.001969
157 0.00199
159 0.002058
162 0.002992
164 0.003001
167 0.002012
170 0.002043
172 0.001995
176 0.002043
176 0.001994
155 0.002998
98 0.002996
55 0.002967
52 0.002948
61 0.002015
73 0.003992
83 0.003993
92 0.002032
96 0.00201
98 0.001969
96 0.001988
95 0.001969
97 0.002988
103 0.003047
114 0.001995
123 0.001994
131 0.00197
138 0.003989
143 0.003015
150 0.001965
153 0.001015
157 0.000997
162 0.001992
164 0.000998
167 0.002956
170 0.002957
174 0.002045
176 0.001962
179 0.002034
181 0.003032
183 0.003991
179 0.001029
141 0.001001
82 0.00197
50 0.000994
57 0.00199
69 0.002966
80 0.003021
89 0.001997
94 0.002013
97 0.002008
98 0.002992
96 0.004023
96 0.002012
100 0.000995
106 0.000998
120 0.000998
129 0.001002
137 0.003986
144 0.003949
151 0.002966
155 0.002016
159 0.000997
162 0.00399
164 0.00399
168 0.0
171 0.000998
173 0.002883
178 0.001985
180 0.001993
182 0.004007
184 0.004036
187 0.001991
188 0.00204
178 0.002074
132 0.004988
79 0.003953
57 0.001998
63 0.000998
76 0.001001
98 0.001011
106 0.002003
112 0.003993
114 0.004023
109 0.000998
104 0.001002
103 0.0
107 0.00399
113 0.004018
124 0.0
132 0.000997
139 0.001005
147 0.000959
151 0.001024
155 0.003958
157 0.00399
160 0.001031
163 0.000998
165 0.001014
167 0.003976
169 0.004985
172 0.0
175 0.0
173 0.001998
143 0.001005
86 0.001042
56 0.004003
51 0.004041
63 0.000994
76 0.002038
86 0.0
93 0.005029
99 0.00505
102 0.00099
100 0.000997
96 0.00203
99 0.001997
106 0.001963
113 0.004006
121 0.004022
132 0.000994
139 0.000972
143 0.001025
148 0.005039
152 0.004994
155 0.0
158 0.0
162 0.0
165 0.0
167 0.000986
170 0.003983
172 0.00397
175 0.004031
178 0.0
178 0.0
160 0.001051
103 0.004991
61 0.004996
49 0.000996
60 0.004986
75 0.0
82 0.000994
86 0.0
90 0.003989
93 0.003994
93 0.002
93 0.002028
95 0.002996
100 0.004987
107 0.005013
119 0.0
130 0.005004
139 0.0
144 0.0
148 0.000987
152 0.005957
155 0.004989
159 0.002036
162 0.0
164 0.000995
166 0.004988
170 0.005986
173 0.000955
176 0.004992
179 0.00103
181 0.001011
181 0.0
163 0.006019
107 0.005984
59 0.0
55 0.0
63 0.0
75 0.005029
87 0.004956
96 0.000986
103 0.005013
102 0.000999
98 0.000949
96 0.001994
97 0.005984
102 0.005984
112 0.001995
121 0.002027
129 0.001993
135 0.005003
141 0.00497
146 0.00104
151 0.004979
154 0.000963
157 0.002011
160 0.002003
162 0.005984
165 0.005985
168 0.002993
170 0.0
173 0.0
174 0.005021
158 0.004987
87 0.0
52 0.004968
55 0.000999
65 0.0
77 0.0
85 0.006018
91 0.00604
96 0.001997
97 0.0
95 0.002025
94 0.004987
95 0.006005
103 0.001993
113 0.005952
125 0.000938
133 0.001986
139 0.001997
144 0.005936
149 0.005983
154 0.001026
157 0.002033
160 0.0
162 0.004982
165 0.005017
170 0.004992
173 0.004999
176 0.001018
178 0.001988
181 0.001025
181 0.005984
160 0.006025
85 0.000972
55 0.002008
51 0.000997
59 0.005984
72 0.006033
86 0.004951
91 0.00598
96 0.000985
97 0.002014
97 0.000982
96 0.005964
99 0.005981
106 0.002962
114 0.001996
123 0.00196
131 0.005984
139 0.006982
148 0.006975
153 0.006981
157 0.001997
160 0.002032
163 0.001993
166 0.005985
169 0.005984
173 0.00104
175 0.000996
178 0.000991
180 0.006031
182 0.005984
186 0.00597
182 0.006983
129 0.002002
78 0.001018
59 0.001991
60 0.005991
72 0.005997
90 0.001999
100 0.002004
109 0.001996
115 0.006998
115 0.006942
110 0.005985
107 0.006941
111 0.00204
118 0.002024
125 0.002992
133 0.005959
140 0.006048
147 0.002025
152 0.002034
155 0.001992
158 0.007013
161 0.007007
164 0.00701
166 0.006971
169 0.001047
171 0.001025
173 0.000987
176 0.007038
178 0.006978
159 0.002
104 0.002023
63 0.001005
52 0.006017
57 0.006026
77 0.006971
89 0.007011
97 0.007014
105 0.001992
107 0.001999
105 0.001998
102 0.006981
102 0.007014
108 0.002002
115 0.001998
123 0.001992
132 0.005992
143 0.001971
148 0.006971
153 0.00698
157 0.001976
161 0.001999
163 0.001996
166 0.007008
168 0.006981
172 0.002002
174 0.003001
176 0.003001
179 0.007945
183 0.002966
185 0.006965
174 0.006968
103 0.00293
62 0.001937
51 0.003003
56 0.006971
73 0.007971
85 0.001968
94 0.000993
101 0.002001
106 0.002008
106 0.001984
104 0.006932
105 0.006982
111 0.002998
118 0.001987
125 0.002004
133 0.006981
140 0.007014
147 0.002004
152 0.00199
156 0.002025
162 0.001997
164 0.002994
167 0.006961
169 0.00695
172 0.001998
174 0.002029
177 0.002994
179 0.006987
181 0.007947
184 0.00297
184 0.002995
165 0.001966
77 0.002063
56 0.003008
61 0.007974
74 0.00797
89 0.001951
100 0.000995
110 0.00098
117 0.007995
117 0.00798
112 0.00103
109 0.002998
109 0.002993
118 0.003036
125 0.00199
133 0.007979
142 0.007961
147 0.000977
151 0.002043
155 0.001986
157 0.007008
160 0.007016
163 0.002003
165 0.003014
167 0.003042
170 0.002992
172 0.00302
176 0.007986
171 0.007969
139 0.002008
83 0.002991
54 0.002993
50 0.006967
59 0.006963
76 0.003203
88 0.002977
97 0.003033
108 0.002965
108 0.002969
106 0.00798
103 0.007982
104 0.002992
110 0.002003
117 0.00399
128 0.00698
135 0.007015
141 0.003973
146 0.00396
151 0.002992
156 0.002992
159 0.001978
161 0.007978
163 0.007978
167 0.001972
169 0.001979
171 0.00299
175 0.007949
177 0.006947
178 0.002993
168 0.002001
120 0.002997
51 0.003995
47 0.002998
55 0.007974
68 0.00798
83 0.002987
91 0.002966
97 0.002959
101 0.007947
100 0.006977
98 0.004042
98 0.004031
102 0.003991
114 0.003023
122 0.002998
133 0.006991
140 0.006981
145 0.001993
149 0.002997
153 0.00399
157 0.007943
160 0.007983
163 0.002991
166 0.003964
168 0.004987
172 0.002967
175 0.002982
178 0.006967
180 0.007004
182 0.005986
179 0.003967
152 0.002964
78 0.006988
55 0.006948
55 0.006982
66 0.004994
89 0.006935
100 0.003998
109 0.003965
114 0.002992
114 0.006981
111 0.006982
108 0.003004
109 0.003967
114 0.003962
123 0.006983
130 0.006982
137 0.002979
144 0.007978
149 0.002967
153 0.00301
156 0.003023
159 0.006988
161 0.006987
164 0.002957
165 0.00399
168 0.003997
171 0.006951
173 0.006986
175 0.003996
171 0.006981
135 0.002973
80 0.002981
53 0.002998
52 0.006982
64 0.006982
78 0.003988
90 0.003998
100 0.003958
110 0.006973
111 0.007011
109 0.004026
105 0.006011
107 0.00396
113 0.003967
120 0.003989
131 0.006979
137 0.006982
143 0.003993
148 0.004023
152 0.004016
156 0.006985
159 0.006983
162 0.003017
166 0.00595
168 0.003997
170 0.003989
173 0.003997
176 0.006944
178 0.006983
180 0.001995
176 0.004001
141 0.004025
68 0.006952
48 0.006983
49 0.004988
70 0.007041
83 0.003975
93 0.00401
101 0.003031
107 0.006959
107 0.007015
105 0.003999
103 0.004025
105 0.004005
113 0.007045
121 0.006981
128 0.003997
139 0.005952
145 0.003934
150 0.004986
154 0.002931
158 0.005998
161 0.005983
164 0.003031
166 0.00404
169 0.003986
173 0.006981
175 0.006954
177 0.004975
182 0.005985
183 0.004996
177 0.003987
139 0.003976
70 0.006009
54 0.005978
57 0.005018
70 0.00399
90 0.005879
102 0.006983
111 0.006044
118 0.005981
120 0.005984
117 0.004996
115 0.004997
117 0.004992
124 0.006011
130 0.006011
137 0.00496
145 0.005019
150 0.005022
153 0.007018
156 0.006052
160 0.006011
163 0.006017
164 0.004997
166 0.004988
168 0.004996
171 0.005981
173 0.005984
176 0.004019
176 0.004014
145 0.00497
89 0.005013
57 0.005985
57 0.006013
70 0.005986
86 0.004995
99 0.003992
110 0.004991
119 0.006008
120 0.00601
117 0.004986
113 0.004983
112 0.004984
117 0.005986
124 0.005019
136 0.005998
143 0.005998
148 0.00397
152 0.004004
156 0.004987
160 0.005984
162 0.005985
164 0.003989
167 0.004986
169 0.004999
171 0.004983
173 0.005018
176 0.005003
162 0.005967
111 0.004997
63 0.005012
46 0.004987
52 0.005971
65 0.006014
80 0.006007
95 0.004971
101 0.004981
108 0.004986
110 0.005047
105 0.004974
105 0.005018
107 0.006037
114 0.003993
121 0.003963
128 0.00499
137 0.005989
143 0.004978
149 0.004981
152 0.004952
154 0.004942
158 0.004989
161 0.004956
164 0.004952
167 0.005019
169 0.004987
171 0.004978
173 0.004983
160 0.004974
110 0.005038
54 0.004987
46 0.004989
53 0.004988
66 0.004993
88 0.004988
99 0.005018
107 0.004986
111 0.003968
110 0.004974
108 0.003929
107 0.004978
111 0.005056
119 0.005004
126 0.005014
133 0.004986
139 0.004986
148 0.004982
152 0.005021
156 0.004983
158 0.003991
162 0.004981
163 0.004985
166 0.005022
167 0.00399
170 0.00399
173 0.004948
175 0.005017
168 0.005006
94 0.005025
59 0.004986
53 0.004993
64 0.005042
74 0.00496
93 0.005068
105 0.004958
114 0.004986
118 0.003996
115 0.00399
109 0.003998
108 0.005009
113 0.003987
120 0.005015
127 0.004025
136 0.004006
142 0.004019
146 0.003982
149 0.004022
152 0.004025
155 0.004015
157 0.004024
159 0.004019
162 0.003979
165 0.005062
162 0.005022
137 0.003994
71 0.004041
49 0.003991
50 0.004012
60 0.003986
74 0.003953
91 0.003997
101 0.003991
109 0.003998
110 0.004021
106 0.004941
102 0.004983
104 0.005013
112 0.005005
120 0.00498
128 0.00396
135 0.004014
141 0.003989
147 0.003989
151 0.004021
155 0.003984
159 0.003982
162 0.004001
164 0.004031
167 0.003999
169 0.00398
172 0.00498
174 0.004971
168 0.003983
130 0.003986
63 0.003992
48 0.003996
52 0.003988
73 0.00399
86 0.003932
96 0.00398
104 0.003991
107 0.003984
106 0.004975
103 0.003995
102 0.004022
105 0.003991
114 0.003965
122 0.003962
130 0.003953
141 0.00404
146 0.003036
151 0.00399
154 0.003025
157 0.002998
160 0.002992
162 0.002989
163 0.003038
166 0.003018
168 0.004034
170 0.003023
173 0.00398
169 0.003986
132 0.003984
78 0.003984
53 0.003996
55 0.003987
67 0.003985
81 0.003995
94 0.002979
105 0.003023
114 0.002992
114 0.003002
111 0.004001
106 0.003997
109 0.004001
115 0.004016
122 0.004018
133 0.003986
140 0.004021
145 0.002998
150 0.002992
154 0.002983
157 0.003005
160 0.002933
162 0.002989
166 0.003997
168 0.003988
170 0.003982
172 0.003984
175 0.003982
177 0.00398
174 0.002993
144 0.002947
85 0.003051
52 0.003126
50 0.003015
60 0.003029
82 0.003021
92 0.002953
100 0.002998
105 0.003954
106 0.003025
103 0.003981
102 0.003021
104 0.003972
109 0.003014
116 0.003048
126 0.002986
136 0.002997
143 0.002988
148 0.002994
152 0.002989
156 0.003027
159 0.003003
163 0.004006
166 0.003965
169 0.002958
171 0.002951
175 0.003001
178 0.003015
181 0.002994
184 0.002971
174 0.003036
131 0.002965
76 0.002995
53 0.002993
57 0.002997
69 0.002975
83 0.002952
95 0.003049
104 0.003043
111 0.003005
111 0.003026
108 0.002987
107 0.002027
110 0.002026
115 0.002993
123 0.003017
132 0.002987
139 0.001976
144 0.001986
149 0.002034
154 0.002026
158 0.002955
162 0.002934
165 0.002992
167 0.003018
169 0.002992
171 0.002989
173 0.002946
175 0.002982
177 0.003014
179 0.003005
169 0.002039
125 0.002994
62 0.00203
50 0.00203
63 0.001996
77 0.002018
91 0.001991
103 0.003031
112 0.002992
116 0.002993
113 0.002967
108 0.003
105 0.001995
108 0.002045
117 0.001991
126 0.002007
136 0.001996
141 0.001998
146 0.002991
150 0.002942
153 0.002953
157 0.002993
159 0.002961
161 0.002961
164 0.002995
165 0.002071
168 0.001996
171 0.000997
174 0.001993
172 0.001994
147 0.001993
89 0.000979
53 0.001008
46 0.001987
55 0.001971
68 0.001996
80 0.000996
89 0.003021
98 0.002997
101 0.001995
97 0.001949
95 0.002018
97 0.001996
102 0.001995
108 0.002032
119 0.001995
127 0.002026
133 0.001995
138 0.002025
143 0.00201
147 0.001975
152 0.00199
155 0.002011
158 0.001997
160 0.001999
162 0.002009
164 0.002045
168 0.002015
170 0.002034
173 0.001992
175 0.002992
166 0.001995
82 0.002006
51 0.001998
48 0.002098
59 0.001997
73 0.002008
84 0.002046
93 0.002009
101 0.001953
103 0.002009
101 0.000977
98 0.001034
97 0.002029
104 0.000998
111 0.000998
122 0.00199
130 0.002014
135 0.001995
141 0.002
146 0.001982
150 0.001988
154 0.001994
157 0.001993
159 0.001988
162 0.001045
165 0.000997
168 0.000975
171 0.000965
174 0.001021
176 0.002
176 0.00199
160 0.001998
107 0.001955
59 0.002001
54 0.001031
62 0.000988
75 0.000997
96 0.000997
106 0.000997
112 0.001005
111 0.001042
106 0.000997
103 0.000998
102 0.001963
106 0.001971
117 0.001989
124 0.002021
131 0.001993
138 0.000981
146 0.001034
149 0.000992
152 0.000997
155 0.001002
157 0.000956
159 0.001027
160 0.000997
162 0.002012
165 0.0
167 0.0
169 0.00103
164 0.000984
95 0.000977
63 0.000997
56 0.000997
67 0.000997
80 0.000997
93 0.000989
103 0.000997
112 0.000997
114 0.0
110 0.0
103 0.001022
100 0.000999
106 0.001003
114 0.001001
121 0.000997
131 0.000966
137 0.000963
141 0.001002
145 0.000998
148 0.0
151 0.002011
153 0.0
155 0.0
157 0.001989
160 0.0
162 0.0
155 0.0
94 0.001019
58 0.00102
48 0.000992
53 0.000997
63 0.00103
78 0.001003
85 0.000991
91 0.000997
93 0.0
89 0.0
87 0.0
87 0.0
92 0.0
99 0.000973
108 0.000986
116 0.000954
123 0.00095
131 0.000979
135 0.000999
140 0.000989
144 0.00101
147 0.0
150 0.0
152 0.0
155 0.0
158 0.0
161 0.001019
163 0.0
154 0.0
91 0.0
57 0.0
48 0.0
60 0.0
72 0.0
79 0.0
84 0.0
89 0.0
89 0.0
87 0.0
86 0.000965
88 0.000997
94 0.000988
101 0.0
109 0.0
122 0.0
129 0.0
134 0.0
139 0.0
144 0.0
147 0.0
150 0.0
152 0.0
155 0.0
158 0.001007
161 0.001007
163 0.0
167 0.0
170 0.0
173 0.0
165 0.0
101 0.0
66 0.0
57 0.0
63 0.0
75 0.000997
89 0.0
96 0.0
101 0.0
100 0.0
96 0.002916
93 0.0
93 0.0
100 0.002028
107 0.0
115 0.000959
122 0.000998
129 0.000995
136 0.0
141 0.0
144 0.001956
149 0.0
151 0.0
153 0.0
156 0.0
159 0.0
162 0.0
164 0.0
167 0.001016
166 0.0
120 0.00199
76 0.001007
59 0.000971
66 0.001009
77 0.000987
87 0.0
94 0.0
100 0.0
102 0.0
100 0.001994
96 0.002029
95 0.000997
101 0.001997
107 0.00198
114 0.001986
127 0.001989
134 0.00199
139 0.001986
144 0.002
147 0.002031
151 0.002018
154 0.001998
157 0.001995
159 0.00203
162 0.002031
165 0.002008
168 0.00199
172 0.001968
175 0.002969
174 0.003028
141 0.002993
87 0.002993
57 0.001953
59 0.001964
69 0.001994
81 0.001997
88 0.001967
92 0.000997
96 0.002988
95 0.0
95 0.003026
94 0.001992
98 0.002987
102 0.000973
112 0.002027
120 0.001991
127 0.001994
134 0.002
139 0.002029
145 0.002021
149 0.00202
154 0.002027
156 0.001993
159 0.001994
162 0.002002
165 0.00202
169 0.002988
173 0.002016
175 0.002001
178 0.001995
181 0.001997
179 0.00199
123 0.002027
68 0.001999
60 0.001985
66 0.001974
77 0.002033
88 0.001995
97 0.002964
101 0.002962
103 0.001984
103 0.002023
100 0.000998
100 0.002002
104 0.002053
113 0.003044
120 0.001976
131 0.002986
136 0.003025
142 0.001994
149 0.001994
153 0.002029
156 0.002991
159 0.003006
162 0.001995
165 0.001998
169 0.001995
172 0.001963
175 0.001992
177 0.001994
180 0.002054
182 0.002022
182 0.002018
160 0.001982
104 0.001988
71 0.002026
64 0.001988
76 0.001986
95 0.002
108 0.001995
116 0.001994
120 0.001992
119 0.001996
113 0.001995
108 0.001997
110 0.00199
115 0.001996
123 0.002991
132 0.002008
141 0.001978
149 0.001033
154 0.002026
159 0.00199
161 0.002007
164 0.001995
166 0.001984
169 0.001995
172 0.001994
174 0.001996
176 0.00295
178 0.00302
181 0.001946
184 0.001996
177 0.001964
131 0.002994
78 0.002029
58 0.001994
59 0.001995
74 0.002013
87 0.001987
96 0.00199
102 0.001996
106 0.002967
106 0.002993
102 0.001996
101 0.001023
105 0.001999
111 0.002025
119 0.001983
128 0.001989
138 0.001995
144 0.001996
149 0.002019
154 0.002006
157 0.001988
161 0.002001
164 0.002022
168 0.002003
170 0.00201
173 0.001999
176 0.001998
178 0.002004
181 0.001986
184 0.002012
186 0.00296
183 0.002973
150 0.002966
68 0.001994
56 0.002992
66 0.002993
80 0.001992
93 0.001995
102 0.00206
108 0.001995
113 0.002047
111 0.001993
107 0.002008
106 0.002994
107 0.002956
117 0.002952
125 0.002025
136 0.002993
142 0.003008
148 0.002991
154 0.00299
158 0.00298
160 0.003002
164 0.002006
166 0.00201
168 0.001995
171 0.001995
174 0.002019
176 0.002995
178 0.002945
180 0.002992
175 0.002997
138 0.002989
85 0.003123
61 0.003021
63 0.001959
76 0.002014
91 0.002001
103 0.002026
120 0.001993
123 0.002986
119 0.001975
114 0.002991
111 0.002995
113 0.002992
122 0.002988
129 0.002986
137 0.002997
143 0.002001
148 0.002982
152 0.001982
159 0.001952
162 0.001963
163 0.002977
165 0.002945
167 0.002993
169 0.002997
171 0.002989
174 0.002983
172 0.002999
144 0.002989
72 0.00296
55 0.001993
54 0.002026
71 0.003004
80 0.002961
92 0.003959
100 0.002995
105 0.00296
104 0.003017
101 0.00301
99 0.003959
100 0.003975
107 0.003018
116 0.001989
129 0.002952
136 0.003001
141 0.002976
147 0.002988
151 0.003008
155 0.002954
158 0.002988
161 0.002991
163 0.002991
166 0.003959
170 0.001982
172 0.002011
177 0.002977
171 0.002027
149 0.002963
76 0.002992
53 0.002992
55 0.001945
67 0.002994
81 0.002966
91 0.003999
99 0.003993
106 0.001997
107 0.001976
103 0.002977
102 0.001994
104 0.001999
111 0.002997
118 0.003028
129 0.002984
137 0.001993
143 0.001993
148 0.003986
152 0.002991
157 0.001989
159 0.002001
163 0.001952
166 0.002025
168 0.003028
171 0.003989
172 0.003993
177 0.001994
178 0.002992
162 0.002003
110 0.004005
68 0.003985
57 0.001969
71 0.003991
90 0.002978
102 0.002046
111 0.002989
118 0.003986
118 0.00399
111 0.002001
106 0.002005
106 0.001999
111 0.002986
119 0.003992
130 0.001993
140 0.003997
147 0.002033
152 0.000997
156 0.001988
159 0.004013
161 0.003995
164 0.001994
166 0.001992
168 0.001996
171 0.004019
173 0.003989
175 0.001995
166 0.00399
98 0.002008
59 0.002941
49 0.001993
55 0.004946
68 0.004961
85 0.002989
94 0.001996
102 0.002009
106 0.003988
106 0.003985
102 0.002017
99 0.003988
104 0.001995
112 0.001994
120 0.001994
128 0.003997
136 0.003994
144 0.002001
149 0.001988
153 0.002002
156 0.003998
159 0.003986
162 0.003058
166 0.00399
169 0.002019
171 0.000998
173 0.00199
176 0.004003
178 0.004989
164 0.00199
110 0.000997
64 0.000998
49 0.00498
54 0.00499
71 0.00101
88 0.004003
97 0.004019
106 0.000968
108 0.001951
106 0.001938
103 0.004925
102 0.004006
106 0.002043
114 0.001985
122 0.001938
130 0.005026
138 0.004977
148 0.004974
153 0.004988
158 0.00104
161 0.002004
163 0.001984
165 0.004995
168 0.004987
171 0.001004
173 0.001
176 0.001006
178 0.004988
181 0.004982
177 0.005037
142 0.005022
74 0.002001
57 0.002997
60 0.001994
73 0.004011
88 0.004023
104 0.001012
114 0.000967
120 0.000995
119 0.00502
114 0.005008
107 0.004989
109 0.005007
118 0.002
126 0.000994
134 0.000991
141 0.004
147 0.004976
153 0.0
156 0.0
159 0.0
162 0.004976
165 0.0
167 0.005014
169 0.004987
171 0.000946
174 0.00201
176 0.002005
176 0.00598
153 0.003986
79 0.0
53 0.000939
51 0.0
61 0.005002
84 0.001001
96 0.005018
105 0.004987
111 0.001011
110 0.000998
106 0.001013
102 0.005993
103 0.006006
111 0.0
118 0.0
127 0.0
135 0.005029
145 0.0
149 0.004974
153 0.004994
157 0.0
160 0.000999
162 0.001019
164 0.005981
167 0.005992
170 0.00096
172 0.001026
175 0.0
177 0.004983
171 0.002008
126 0.005047
72 0.005984
49 0.000995
54 0.0
67 0.0
80 0.005974
91 0.006014
103 0.0
107 0.000998
108 0.0
106 0.005043
103 0.00203
106 0.005019
112 0.005992
123 0.0
131 0.0
138 0.001994
143 0.005993
149 0.005989
154 0.0
156 0.002007
159 0.0
162 0.006032
165 0.002006
167 0.004987
169 0.004987
172 0.002012
174 0.002009
177 0.0
173 0.005978
139 0.005983
72 0.002004
56 0.0
59 0.001928
71 0.007009
94 0.002011
104 0.006953
113 0.005996
117 0.002983
114 0.0
108 0.000995
106 0.005953
107 0.005952
116 0.000997
124 0.000966
132 0.000997
138 0.006018
147 0.0
151 0.005979
154 0.007016
157 0.001994
160 0.000995
163 0.0
164 0.005954
166 0.005986
170 0.0
172 0.0
172 0.0
155 0.006985
72 0.00198
52 0.006963
53 0.006981
68 0.000995
82 0.0
93 0.0
101 0.005966
108 0.005999
110 0.0
106 0.001008
103 0.0
105 0.001992
112 0.002029
120 0.002015
127 0.006016
135 0.00701
143 0.001998
148 0.002004
151 0.002009
155 0.005984
157 0.005991
160 0.0
163 0.002993
166 0.001986
169 0.001987
171 0.001991
173 0.006985
176 0.006981
166 0.000966
117 0.002949
68 0.001973
50 0.007971
52 0.006983
68 0.0
81 0.001029
97 0.001995
104 0.002
107 0.0
106 0.006988
104 0.006978
103 0.0
107 0.001996
113 0.0
121 0.00694
129 0.007015
138 0.001997
144 0.001984
152 0.001996
155 0.00204
158 0.001985
161 0.007017
163 0.007007
166 0.002007
169 0.002992
171 0.001993
173 0.006977
176 0.006982
179 0.00199
178 0.002972
118 0.00201
73 0.002001
58 0.002029
62 0.006982
74 0.006981
92 0.001996
105 0.001998
113 0.001987
119 0.00701
119 0.00701
113 0.001998
110 0.002004
113 0.002032
120 0.002028
128 0.002026
135 0.006946
141 0.007007
148 0.001997
152 0.001958
156 0.001995
158 0.006973
161 0.006983
163 0.001997
165 0.001996
169 0.002024
171 0.001987
173 0.002025
167 0.00697
129 0.006981
67 0.001992
53 0.001988
57 0.001996
69 0.006986
87 0.007967
97 0.001993
107 0.001992
114 0.001993
113 0.003017
109 0.00103
107 0.007955
109 0.007029
117 0.001978
125 0.001996
133 0.002986
142 0.007935
147 0.007972
152 0.001962
156 0.001998
160 0.003004
163 0.003009
165 0.001985
167 0.007994
170 0.007003
172 0.002955
174 0.001986
177 0.003001
169 0.007964
145 0.007977
75 0.00199
53 0.001989
60 0.002999
73 0.002967
86 0.002
100 0.007951
108 0.007965
112 0.002997
113 0.002027
111 0.001995
108 0.00798
111 0.007936
117 0.001994
130 0.007956
137 0.002957
144 0.002017
150 0.001951
155 0.008003
160 0.007973
163 0.002992
166 0.002937
168 0.002995
170 0.007019
173 0.006953
175 0.002961
179 0.007918
181 0.003038
179 0.002999
153 0.003048
83 0.007956
61 0.007958
61 0.002045
72 0.001976
87 0.002001
106 0.007947
116 0.006981
123 0.001988
124 0.007947
120 0.002013
117 0.00203
117 0.002022
124 0.00795
130 0.007964
137 0.003018
144 0.001956
148 0.002023
153 0.007005
158 0.00698
160 0.006983
164 0.006992
165 0.006981
167 0.002993
169 0.002997
171 0.002966
162 0.007979
104 0.007978
66 0.001946
56 0.001975
62 0.002956
79 0.007949
93 0.007934
109 0.008015
120 0.006935
123 0.002995
120 0.002993
116 0.003004
115 0.006947
118 0.006996
124 0.002984
131 0.001995
139 0.002997
147 0.007942
151 0.006984
158 0.006913
160 0.007034
163 0.003962
164 0.004001
166 0.003937
168 0.007014
170 0.005985
171 0.003967
162 0.002964
117 0.003958
59 0.006983
48 0.007005
61 0.007003
75 0.00703
86 0.003992
96 0.003031
103 0.003975
106 0.00698
104 0.006983
101 0.001998
100 0.002012
103 0.003013
112 0.006953
120 0.006952
132 0.00798
138 0.007013
143 0.00206
148 0.002992
151 0.002993
155 0.006981
158 0.006982
160 0.002989
162 0.001995
164 0.002992
168 0.005984
170 0.006982
137 0.006983
84 0.006984
56 0.003966
52 0.003995
60 0.003994
78 0.007016
89 0.007006
99 0.003121
105 0.003987
108 0.003965
106 0.005972
102 0.00502
104 0.006047
110 0.006971
118 0.003952
125 0.004005
132 0.003986
141 0.00701
145 0.006982
148 0.004991
151 0.002954
154 0.002969
156 0.005993
158 0.004984
161 0.006018
164 0.005988
166 0.004997
156 0.003033
114 0.001981
64 0.006042
57 0.006951
64 0.002984
76 0.002972
90 0.00297
105 0.005985
116 0.003993
117 0.007008
111 0.006019
107 0.00399
107 0.003973
112 0.004033
122 0.006986
129 0.006987
137 0.001999
143 0.003988
147 0.003989
152 0.005985
156 0.005004
159 0.005976
161 0.005961
163 0.004014
166 0.003989
168 0.004003
170 0.006011
170 0.006964
148 0.005004
95 0.004985
60 0.003987
54 0.005998
67 0.004951
83 0.006015
92 0.006018
100 0.00399
105 0.003047
106 0.00302
102 0.006014
101 0.006021
102 0.00301
108 0.001974
115 0.002975
126 0.00599
136 0.005002
143 0.006018
147 0.006005
151 0.003988
154 0.003997
157 0.003992
160 0.005022
163 0.00601
166 0.004958
167 0.005002
170 0.004985
174 0.005964
173 0.003994
128 0.005942
78 0.005984
57 0.004986
57 0.004019
68 0.004021
85 0.005011
96 0.007011
105 0.004028
111 0.004003
114 0.003996
111 0.004977
107 0.003986
109 0.004042
117 0.005991
125 0.006022
132 0.003979
139 0.004024
145 0.003997
151 0.004966
154 0.004986
157 0.004022
160 0.003989
161 0.003988
165 0.003985
167 0.004989
170 0.005973
173 0.00601
175 0.004966
168 0.004966
130 0.004978
82 0.005019
63 0.004998
66 0.00498
74 0.003991
97 0.004953
108 0.004957
120 0.004986
122 0.00503
119 0.006015
112 0.00502
111 0.004932
114 0.004937
121 0.004986
129 0.004986
136 0.004986
142 0.004987
150 0.004987
154 0.00494
158 0.004931
160 0.005042
162 0.004956
164 0.004984
166 0.005
167 0.004988
171 0.004985
166 0.004987
116 0.004986
83 0.00399
54 0.004978
60 0.004958
72 0.003966
88 0.005014
97 0.004987
106 0.004925
109 0.005018
107 0.005006
103 0.004989
102 0.00502
106 0.004983
111 0.004992
127 0.00497
135 0.004987
141 0.004978
146 0.00402
151 0.00402
155 0.004023
158 0.003983
161 0.003966
163 0.005025
164 0.005006
168 0.004968
170 0.004991
174 0.004987
152 0.005031
99 0.004985
63 0.004996
54 0.003985
64 0.003958
77 0.003993
88 0.00399
96 0.004016
103 0.004019
107 0.004983
107 0.004981
105 0.004978
107 0.004986
112 0.004977
119 0.005019
128 0.004026
138 0.003993
144 0.003977
150 0.003983
154 0.004026
158 0.004017
162 0.00398
164 0.004976
168 0.004977
171 0.004991
173 0.003986
175 0.00504
178 0.004012
176 0.003988
146 0.003992
94 0.004021
66 0.004035
63 0.003957
76 0.003964
90 0.003977
110 0.004998
119 0.005004
123 0.003962
122 0.004
118 0.004026
113 0.003989
115 0.003994
120 0.004019
127 0.004041
135 0.003995
142 0.003969
149 0.003986
156 0.004963
158 0.004959
160 0.003995
162 0.003992
164 0.003963
166 0.003974
169 0.003965
171 0.003967
173 0.003941
171 0.003999
127 0.003969
79 0.003997
59 0.003975
68 0.003952
81 0.002978
95 0.004042
107 0.00403
118 0.003963
122 0.004011
121 0.003991
115 0.004021
112 0.004022
116 0.003979
124 0.003024
132 0.003018
141 0.002963
148 0.003004
153 0.003025
157 0.004024
160 0.004034
164 0.00399
166 0.003978
168 0.003983
170 0.003998
172 0.00399
175 0.002996
178 0.002989
174 0.002993
139 0.002992
84 0.002992
57 0.003992
54 0.003992
68 0.003938
82 0.004
94 0.003966
104 0.004026
111 0.004041
114 0.003008
110 0.003036
107 0.003979
109 0.003994
114 0.004003
121 0.002991
130 0.004027
140 0.00401
146 0.003027
152 0.003017
156 0.003021
160 0.003015
164 0.003012
167 0.003059
170 0.002992
172 0.003024
175 0.001987
177 0.003953
180 0.002984
177 0.002972
145 0.003996
91 0.004004
62 0.002997
59 0.003013
78 0.002953
92 0.003025
109 0.003001
118 0.003002
123 0.002999
123 0.003012
120 0.00304
115 0.002961
116 0.002988
121 0.002993
128 0.002991
136 0.002943
146 0.003025
152 0.003023
158 0.003004
161 0.002983
163 0.002969
165 0.003023
166 0.003008
168 0.002993
170 0.002991
172 0.00197
173 0.002035
162 0.00299
87 0.002961
63 0.003959
65 0.002964
77 0.003986
92 0.004026
105 0.003028
117 0.003022
126 0.00297
127 0.00199
123 0.001987
118 0.001984
116 0.002003
124 0.002961
131 0.002992
139 0.003006
145 0.002971
150 0.002983
154 0.002992
157 0.003069
160 0.003971
162 0.001979
164 0.001996
165 0.00202
167 0.002018
169 0.003027
154 0.002993
88 0.002955
55 0.002979
49 0.002958
57 0.002991
70 0.003986
87 0.001971
97 0.002007
104 0.001999
108 0.002019
105 0.003002
100 0.002023
101 0.002017
108 0.002031
115 0.001995
123 0.002927
130 0.001995
137 0.001994
144 0.001996
148 0.002002
152 0.002036
154 0.001023
158 0.002004
160 0.00204
162 0.002018
166 0.002994
166 0.000951
148 0.003027
96 0.002018
59 0.001995
50 0.002001
59 0.002
72 0.001993
84 0.002009
99 0.002002
105 0.002024
107 0.00099
104 0.002005
101 0.001953
103 0.000998
108 0.002003
115 0.002028
126 0.002028
134 0.001993
140 0.001992
145 0.002018
152 0.001993
156 0.003016
159 0.002026
162 0.002961
164 0.00296
167 0.001944
169 0.00205
172 0.002025
165 0.002005
125 0.001997
78 0.001034
59 0.002019
67 0.00101
80 0.001981
94 0.002037
104 0.001004
116 0.002037
119 0.000984
116 0.002021
111 0.001996
109 0.001011
112 0.002044
119 0.002034
127 0.001995
139 0.001995
145 0.001997
149 0.002057
153 0.001062
156 0.001997
158 0.000975
159 0.000999
161 0.002024
163 0.002035
166 0.001012
167 0.001026
152 0.002002
78 0.001984
60 0.001963
63 0.000998
73 0.000926
92 0.000986
104 0.001005
115 0.000978
121 0.000954
121 0.00199
114 0.000972
110 0.001989
111 0.002004
121 0.002
129 0.002962
137 0.000996
143 0.001007
149 0.002033
153 0.000941
156 0.00199
159 0.002027
161 0.001996
164 0.001995
166 0.001997
167 0.001993
170 0.000996
159 0.001991
113 0.001031
68 0.000997
52 0.001983
59 0.001993
71 0.001006
83 0.000998
92 0.002002
101 0.00202
104 0.001995
103 0.001988
99 0.001989
100 0.001994
104 0.001002
112 0.001005
122 0.001005
131 0.001969
138 0.002009
144 0.00202
148 0.00203
153 0.002007
156 0.001984
160 0.001948
162 0.00201
164 0.000964
167 0.000983
169 0.002042
156 0.000962
107 0.000995
67 0.000997
55 0.000998
60 0.000997
76 0.001996
87 0.001017
101 0.000993
107 0.001997
110 0.000196
109 0.0
106 0.0
107 0.0
112 0.000998
118 0.000999
127 0.001
135 0.001025
143 0.001006
150 0.001027
156 0.000998
160 0.001001
162 0.0
165 0.0
166 0.0
169 0.0
171 0.0
174 0.0
175 0.001035
163 0.000997
99 0.000997
69 0.000962
68 0.000951
80 0.0
94 0.0
105 0.0
115 0.0
122 0.0
121 0.0
115 0.0
112 0.000998
112 0.000995
119 0.0
127 0.000998
139 0.0
145 0.0
149 0.0
153 0.0
156 0.0
158 0.0
160 0.0
163 0.0
165 0.0
165 0.0
136 0.001012
89 0.001004
63 0.0
69 0.0
81 0.0
94 0.0
106 0.0
119 0.0
123 0.0
121 0.0
115 0.0
111 0.0
114 0.0
121 0.0
133 0.0
141 0.0
146 0.0
152 0.0
155 0.0
159 0.0
162 0.0
164 0.0
166 0.0
168 0.001014
170 0.000997
156 0.002991
76 0.0
56 0.002027
56 0.0
66 0.0
77 0.0
90 0.0
97 0.0
101 0.0
103 0.0
101 0.003026
100 0.000997
100 0.000994
109 0.0
117 0.0
125 0.0
133 0.0
139 0.002995
145 0.003032
151 0.0
154 0.0
157 0.002993
160 0.001038
162 0.003032
166 0.000993
168 0.0
163 0.002023
121 0.002017
74 0.002024
56 0.003023
58 0.002028
71 0.002047
82 0.002957
90 0.003
96 0.003017
102 0.002992
103 0.003033
101 0.003024
101 0.002977
105 0.001978
112 0.003046
120 0.002029
128 0.002025
138 0.002998
144 0.002992
150 0.002029
154 0.002994
157 0.002988
162 0.00302
165 0.003035
168 0.002023
170 0.002035
173 0.002027
176 0.002024
172 0.001994
117 0.001986
74 0.002031
62 0.00203
65 0.002008
78 0.00203
97 0.002993
107 0.003025
115 0.002993
116 0.002992
114 0.002032
110 0.003027
110 0.002067
116 0.001973
123 0.001988
131 0.002029
138 0.001995
146 0.002031
154 0.002993
158 0.001995
162 0.002987
165 0.002986
167 0.003021
168 0.003051
171 0.002988
174 0.002023
176 0.002018
178 0.002026
166 0.002002
121 0.002038
69 0.00299
70 0.001994
85 0.003024
99 0.003015
112 0.003009
122 0.003041
129 0.003026
129 0.002032
124 0.003976
119 0.002026
119 0.005038
123 0.003023
135 0.003017
142 0.003037
150 0.002993
155 0.00296
158 0.002969
163 0.00296
164 0.002995
167 0.002998
168 0.00206
171 0.003001
172 0.003026
174 0.002029
156 0.002027
90 0.002958
64 0.003002
61 0.001992
70 0.002999
88 0.00297
96 0.00299
110 0.002987
117 0.002985
121 0.002977
119 0.002988
114 0.002028
113 0.002032
117 0.002032
127 0.002004
134 0.002992
141 0.002989
147 0.002028
153 0.003008
157 0.002978
160 0.002989
163 0.002984
165 0.003041
168 0.003062
170 0.002043
173 0.002038
171 0.001999
145 0.002045
92 0.002993
60 0.002995
57 0.002992
67 0.003034
79 0.003022
94 0.002999
103 0.002989
112 0.00298
112 0.002959
111 0.00296
107 0.003021
109 0.002993
113 0.002951
123 0.002997
131 0.002956
139 0.00303
144 0.001991
150 0.002994
156 0.002957
161 0.001989
163 0.002027
166 0.003016
170 0.002944
170 0.002952
173 0.002964
176 0.002945
167 0.002974
125 0.003045
77 0.001994
59 0.002028
61 0.002028
81 0.002031
94 0.002024
105 0.002021
115 0.002008
121 0.001995
121 0.002992
118 0.003006
117 0.002991
119 0.002948
125 0.003034
132 0.002987
141 0.002994
150 0.001994
154 0.001995
159 0.002037
163 0.002993
166 0.002041
168 0.001989
170 0.003023
172 0.00301
175 0.002948
176 0.002993
179 0.003026
176 0.003032
118 0.002994
77 0.002043
66 0.002996
75 0.002963
89 0.003024
104 0.002046
119 0.002951
126 0.003019
131 0.001997
131 0.00302
126 0.003025
123 0.002986
126 0.002029
132 0.001998
141 0.002993
146 0.002031
153 0.003003
158 0.003036
161 0.002993
164 0.002979
166 0.002992
168 0.003026
170 0.002993
172 0.002958
174 0.003006
154 0.002983
123 0.002029
79 0.001983
62 0.002001
68 0.002035
87 0.002987
101 0.002042
113 0.001945
122 0.003029
127 0.003024
125 0.001952
119 0.003068
118 0.002994
121 0.002998
126 0.002029
135 0.003046
143 0.003
148 0.002993
155 0.002939
158 0.002992
162 0.003026
164 0.002992
166 0.00194
169 0.002982
170 0.003992
161 0.003991
101 0.002989
64 0.003029
54 0.002992
64 0.001996
77 0.002959
91 0.003007
101 0.003024
111 0.003034
117 0.002962
115 0.003027
110 0.002985
110 0.003011
114 0.003043
120 0.00399
128 0.00403
137 0.002959
142 0.002954
147 0.002995
152 0.003025
156 0.003034
160 0.00303
162 0.003026
166 0.001998
168 0.002004
170 0.001981
165 0.004009
130 0.003994
68 0.002002
53 0.001966
57 0.002039
68 0.003047
81 0.00298
98 0.002976
106 0.00395
112 0.003063
111 0.00202
108 0.003055
107 0.00399
110 0.005019
118 0.002032
125 0.003021
133 0.002966
140 0.004996
146 0.002987
153 0.004007
157 0.00398
161 0.002068
163 0.003989
165 0.003989
167 0.004025
169 0.00398
172 0.000991
175 0.002029
177 0.001989
168 0.004065
125 0.004019
61 0.002984
58 0.003963
72 0.002022
86 0.001969
99 0.002056
110 0.004015
117 0.003935
121 0.002024
117 0.003031
114 0.002002
112 0.003993
116 0.003977
126 0.004003
135 0.005038
141 0.003024
149 0.002961
154 0.001956
158 0.00402
161 0.003988
164 0.002979
167 0.002997
168 0.001996
170 0.00399
173 0.003985
176 0.003974
179 0.004023
178 0.001956
158 0.001969
107 0.002058
71 0.00399
64 0.004033
72 0.003992
90 0.001939
105 0.001984
118 0.001996
127 0.003948
130 0.00197
127 0.005043
121 0.004987
120 0.000968
124 0.002009
130 0.002004
137 0.004909
144 0.005041
151 0.0
155 0.001024
159 0.001004
161 0.005035
163 0.001016
165 0.004024
166 0.004025
168 0.000998
170 0.000998
165 0.0
135 0.004982
87 0.004983
61 0.0
65 0.0
76 0.001002
100 0.000997
112 0.001996
122 0.004987
127 0.005989
124 0.0
119 0.001031
116 0.002959
118 0.004017
123 0.004989
133 0.000998
140 0.002005
145 0.000982
153 0.000998
157 0.002018
160 0.005014
162 0.004984
164 0.001992
167 0.001984
168 0.0
170 0.004022
170 0.004999
144 0.001013
92 0.0
58 0.0
55 0.001977
66 0.000964
80 0.005053
91 0.004993
104 0.000998
110 0.000997
111 0.0
109 0.005953
105 0.004981
105 0.0
109 0.0
116 0.0
128 0.0
135 0.000994
140 0.004989
145 0.005023
150 0.0
152 0.0
154 0.001032
156 0.005014
158 0.005014
161 0.003987
163 0.0
166 0.0
158 0.0
115 0.000989
69 0.005019
50 0.004994
55 0.000942
66 0.000961
78 0.0
88 0.005982
97 0.005994
103 0.0
104 0.00099
102 0.000982
100 0.0
103 0.0
109 0.004979
116 0.00502
127 0.00195
134 0.003028
140 0.001996
145 0.005019
149 0.006003
153 0.002994
157 0.001992
158 0.0
163 0.0
164 0.000967
167 0.005033
169 0.005955
172 0.002961
165 0.001028
124 0.0
77 0.00598
58 0.006976
63 0.0
75 0.00302
87 0.001046
105 0.0
112 0.0
115 0.005943
114 0.005954
109 0.002992
109 0.0
111 0.0
118 0.00599
124 0.005987
134 0.0
141 0.0
145 0.0
152 0.003021
155 0.0
158 0.005978
159 0.006011
162 0.001984
164 0.0
166 0.0
167 0.006016
170 0.006025
173 0.002985
167 0.002991
99 0.001994
68 0.001996
62 0.001987
69 0.006008
81 0.006009
99 0.002001
110 0.002993
118 0.003025
122 0.006033
119 0.005977
112 0.002993
110 0.002992
117 0.0
124 0.00399
131 0.0
138 0.002992
143 0.005985
148 0.006019
153 0.002007
155 0.001951
158 0.002992
160 0.006984
162 0.007026
164 0.003997
166 0.006973
170 0.002997
172 0.003014
174 0.004039
171 0.005988
145 0.005943
78 0.00299
57 0.002037
57 0.002023
67 0.005949
80 0.005979
96 0.002965
107 0.006992
113 0.003
111 0.001991
108 0.002001
105 0.00698
106 0.007017
114 0.001985
121 0.002024
129 0.002985
136 0.005986
141 0.006982
147 0.003006
152 0.006014
156 0.003004
158 0.002986
160 0.002994
163 0.007007
165 0.007011
168 0.002991
170 0.002953
172 0.003045
174 0.007039
176 0.006952
155 0.003989
86 0.005954
55 0.002988
57 0.002994
68 0.001969
82 0.006948
94 0.007021
107 0.002971
113 0.001994
114 0.002
112 0.007002
107 0.006972
106 0.003
114 0.007955
122 0.002976
130 0.002993
137 0.003003
143 0.007032
148 0.007024
153 0.002987
156 0.001993
159 0.003029
161 0.006981
163 0.007019
166 0.00299
169 0.006996
172 0.001956
174 0.001997
176 0.002027
179 0.006983
180 0.00802
153 0.002994
99 0.003025
64 0.003026
57 0.007015
64 0.007019
82 0.003013
100 0.006982
114 0.002991
120 0.002992
120 0.003018
118 0.006969
113 0.007955
114 0.002998
118 0.004989
124 0.003982
131 0.007074
140 0.007968
146 0.003993
152 0.007018
157 0.002002
159 0.002002
162 0.004032
164 0.007995
166 0.007945
168 0.002991
170 0.004019
171 0.003015
173 0.007051
176 0.006966
172 0.007002
143 0.006991
82 0.001995
64 0.002004
67 0.003007
79 0.007956
93 0.00797
111 0.003014
122 0.002031
129 0.003059
129 0.007974
144 0.006034
146 0.003055
149 0.007955
155 0.002952
157 0.001954
159 0.001992
161 0.007974
162 0.007978
164 0.007001
166 0.007013
168 0.002992
159 0.00299
122 0.002991
77 0.007951
56 0.007977
61 0.002957
73 0.002993
87 0.003026
100 0.007978
114 0.00798
121 0.007948
119 0.007969
112 0.00196
110 0.002991
112 0.002931
117 0.00794
127 0.007966
134 0.004187
140 0.002993
145 0.00299
149 0.006948
152 0.007013
156 0.007949
157 0.007969
159 0.00402
161 0.002999
163 0.002994
156 0.00795
120 0.006978
71 0.003956
50 0.00295
50 0.003047
59 0.007974
76 0.007976
90 0.002994
98 0.007949
104 0.007958
103 0.003018
100 0.002992
97 0.002992
98 0.007978
106 0.006959
113 0.003854
121 0.003022
128 0.002978
137 0.006986
143 0.003027
146 0.007919
150 0.00795
152 0.002998
154 0.002999
156 0.002993
159 0.007992
161 0.00798
163 0.00299
150 0.004015
103 0.004048
57 0.006988
52 0.002995
66 0.006983
78 0.006965
88 0.002982
96 0.003031
102 0.002999
104 0.007946
101 0.006995
99 0.003955
99 0.003959
104 0.003992
113 0.006983
124 0.002965
133 0.006986
139 0.004989
144 0.002993
147 0.003
150 0.003032
154 0.006981
156 0.007942
157 0.003933
160 0.002944
162 0.003002
166 0.003014
169 0.003029
171 0.006991
156 0.006933
108 0.003011
71 0.002975
60 0.003022
70 0.006977
83 0.007949
95 0.004015
106 0.003996
115 0.002987
117 0.002998
112 0.00299
106 0.006995
107 0.006944
111 0.003992
119 0.004013
127 0.004016
136 0.006955
141 0.005986
146 0.004987
150 0.002951
152 0.002994
156 0.003984
157 0.003027
160 0.005968
162 0.006942
164 0.003025
167 0.003936
168 0.003979
150 0.006989
102 0.00698
68 0.00404
59 0.003977
65 0.004987
86 0.00299
97 0.003989
109 0.005975
115 0.00601
115 0.002992
111 0.004008
107 0.003979
107 0.006926
111 0.006943
118 0.003985
126 0.00399
133 0.003971
143 0.002988
148 0.003021
153 0.00598
155 0.005998
158 0.00399
160 0.004032
162 0.003989
164 0.006963
166 0.006977
168 0.004988
170 0.003961
173 0.004957
158 0.005061
109 0.003985
60 0.007033
55 0.006983
62 0.003991
74 0.004014
87 0.003975
98 0.006018
105 0.006027
109 0.003984
108 0.003038
105 0.003966
103 0.003992
108 0.002981
117 0.005979
125 0.006028
132 0.003023
139 0.003981
144 0.004987
150 0.006033
153 0.006004
156 0.003008
158 0.004033
161 0.005025
164 0.00399
166 0.003963
169 0.005979
172 0.005007
175 0.004939
173 0.004939
151 0.004961
84 0.006037
61 0.006017
60 0.004019
70 0.004986
83 0.004026
102 0.003973
111 0.003975
116 0.004001
116 0.005017
112 0.005009
109 0.004987
111 0.004958
115 0.004026
124 0.004962
132 0.006033
139 0.004959
145 0.004992
152 0.004973
155 0.004974
158 0.005013
160 0.005984
162 0.006004
163 0.004986
165 0.003992
168 0.004969
170 0.004992
165 0.004015
116 0.005005
69 0.005979
63 0.005048
75 0.005032
89 0.00503
102 0.005018
114 0.00502
124 0.004986
125 0.005021
123 0.004991
115 0.004021
112 0.004989
116 0.003988
125 0.004986
135 0.00495
139 0.004993
145 0.004982
150 0.004987
154 0.004992
156 0.004953
159 0.004926
160 0.004949
162 0.004983
164 0.004989
165 0.00498
169 0.004979
167 0.003983
142 0.004045
90 0.004035
56 0.005966
56 0.004974
70 0.004959
83 0.005003
94 0.004958
103 0.004962
109 0.004991
110 0.004971
105 0.004972
101 0.004974
104 0.004986
110 0.004985
118 0.005995
126 0.004954
135 0.004922
141 0.004944
144 0.004987
149 0.005021
153 0.005026
