161 0.005983
164 0.006024
161 0.005979
136 0.005977
130 0.005985
135 0.005984
146 0.004986
151 0.00399
153 0.003991
148 0.003989
139 0.003989
142 0.003027
147 0.003993
152 0.002001
158 0.001028
161 0.001013
160 0.000961
147 0.000979
121 0.000998
115 0.0
124 0.000997
140 0.000957
151 0.00098
153 0.000998
151 0.002971
150 0.002993
152 0.003004
158 0.004023
159 0.004986
162 0.004987
167 0.00798
168 0.007015
154 0.005985
138 0.006015
134 0.005984
142 0.004982
154 0.003025
158 0.002977
158 0.003013
152 0.001993
150 0.001994
150 0.001981
151 0.001994
152 0.0
158 0.001003
163 0.0
168 0.001008
158 0.000993
149 0.0
145 0.001995
153 0.002035
163 0.00203
173 0.002
180 0.001989
182 0.002959
181 0.003992
182 0.003985
187 0.004026
192 0.003996
196 0.004032
237 0.005049
243 0.006699
238 0.006912
207 0.006939
195 0.006978
199 0.006981
210 0.006015
219 0.005984
84 0.005985
229 0.004982
224 0.004986
218 0.005133
220 0.002992
221 0.003024
226 0.001995
231 0.0
233 0.00103
226 0.0
193 0.000996
182 0.002028
186 0.00399
198 0.004986
205 0.004993
212 0.004987
208 0.006989
204 0.006924
199 0.007978
202 0.007981
207 0.006984
214 0.006948
215 0.006947
211 0.005006
182 0.005983
163 0.005023
162 0.006018
168 0.004988
180 0.006982
188 0.003989
185 0.0
183 0.001996
179 0.002991
179 0.000998
183 0.001001
188 0.0
191 0.0
183 0.0
152 0.000998
138 0.002992
136 0.005984
147 0.005986
154 0.005985
160 0.006981
162 0.006083
157 0.00502
151 0.004018
153 0.003988
156 0.003976
161 0.001994
165 0.000998
164 0.000998
136 0.000992
111 0.001033
110 0.000998
120 0.002959
132 0.002995
137 0.004987
137 0.005018
129 0.006942
129 0.007968
130 0.007931
139 0.020944
140 0.000996
149 0.000996
131 0.008978
94 0.001995
94 0.0
100 0.0
114 0.0
121 0.000998
118 0.002996
112 0.004986
111 0.004987
114 0.004987
120 0.004947
124 0.004991
130 0.006982
131 0.006982
112 0.006982
82 0.006076
74 0.004989
80 0.004987
92 0.005023
104 0.005028
105 0.004991
100 0.005094
97 0.005023
99 0.004987
106 0.005029
112 0.004022
118 0.004986
123 0.00502
125 0.003024
89 0.002993
64 0.0
65 0.000997
77 0.0
85 0.0
95 0.0
96 0.000997
92 0.0
92 0.0
95 0.001046
102 0.0
111 0.000997
115 0.001995
122 0.002992
125 0.004987
109 0.00502
71 0.004572
65 0.005949
72 0.007012
47 0.007015
68 0.006982
75 0.007016
71 0.008014
69 0.007974
70 0.005987
81 0.004989
94 0.004991
110 0.003026
120 0.003014
128 0.003034
142 0.001936
96 0.001995
55 0.002028
35 0.001026
51 0.000998
67 0.000998
92 0.001009
101 0.0
97 0.000998
91 0.000998
92 0.002993
106 0.002994
119 0.002992
133 0.00399
143 0.004748
156 0.006019
163 0.005984
144 0.007979
77 0.007015
61 0.007485
70 0.007022
94 0.004986
114 0.003988
126 0.003995
123 0.003993
113 0.004023
116 0.004163
121 0.004024
134 0.00399
148 0.002992
156 0.002027
168 0.002028
168 0.000984
120 0.002034
71 0.001995
69 0.001995
90 0.001995
114 0.0
126 0.0
131 0.002019
122 0.002994
119 0.002993
126 0.002988
134 0.002993
149 0.002993
162 0.002993
171 0.003986
177 0.005986
117 0.006029
103 0.007935
72 0.007495
86 0.007978
105 0.006951
123 0.007023
134 0.00599
134 0.005985
127 0.005984
127 0.005018
139 0.00399
153 0.003006
161 0.003024
175 0.001996
186 0.000999
185 0.0
123 0.0
84 0.0
88 0.0
108 0.000997
132 0.001995
144 0.001994
148 0.002995
143 0.002962
138 0.002993
147 0.003958
156 0.002961
170 0.002993
181 0.004987
189 0.005021
194 0.00695
155 0.007979
119 0.007972
98 0.007177
108 0.007042
132 0.005987
152 0.006019
161 0.005984
153 0.005769
144 0.004986
147 0.004985
158 0.004079
170 0.001995
177 0.000996
186 0.000993
180 0.0
145 0.0
94 0.0
91 0.00104
109 0.001995
131 0.003992
143 0.004993
146 0.005032
138 0.004956
136 0.005033
139 0.004981
151 0.006532
158 0.007024
169 0.006992
177 0.006959
152 0.007012
91 0.00698
79 0.006984
85 0.007023
107 0.006022
119 0.004964
134 0.00399
131 0.004985
125 0.003993
123 0.00499
131 0.004043
142 0.004004
155 0.002029
161 0.003024
163 0.002031
114 0.0
74 0.0
71 0.001995
90 0.003991
102 0.002956
122 0.004987
123 0.004998
117 0.005005
114 0.005985
122 0.006982
131 0.007038
143 0.006981
151 0.006972
160 0.007982
138 0.00798
84 0.006935
62 0.008011
74 0.005971
88 0.005984
110 0.005986
119 0.005985
113 0.006014
103 0.006018
105 0.005995
115 0.006018
129 0.005019
134 0.00602
145 0.004029
148 0.003024
97 0.002992
55 0.00203
49 0.00104
66 0.001034
89 0.0
102 0.0
103 0.0
94 0.001996
94 0.001993
103 0.002015
117 0.004021
124 0.003017
136 0.004954
142 0.005019
143 0.005001
96 0.005984
51 0.005984
47 0.005987
65 0.006979
74 0.006982
94 0.006021
100 0.003023
94 0.002987
90 0.002026
98 0.001028
108 0.0
120 0.0
132 0.0
139 0.0
148 0.000998
139 0.001959
98 0.004508
49 0.005568
52 0.007374
65 0.007019
88 0.007961
102 0.007979
105 0.00604
99 0.006018
96 0.004015
101 0.003025
112 0.002997
127 0.000996
136 0.000998
150 0.0
157 0.0
164 0.0
144 0.0
102 0.0
61 0.0
74 0.0
88 0.0
109 0.0
119 0.0
116 0.000967
107 0.002006
108 0.001002
118 0.002031
129 0.003991
140 0.004003
150 0.003993
156 0.004003
164 0.003085
162 0.003992
126 0.003981
71 0.004635
71 0.006035
80 0.007937
104 0.006982
124 0.006986
125 0.006986
118 0.006987
110 0.00598
115 0.006021
128 0.005979
137 0.006028
149 0.006015
157 0.006981
166 0.004027
169 0.004988
134 0.004023
81 0.003989
66 0.003962
75 0.002989
97 0.002992
117 0.001029
122 0.000997
118 0.0
110 0.0
110 0.000997
121 0.003046
135 0.003986
143 0.004028
154 0.005017
164 0.004987
169 0.005985
154 0.005979
85 0.006013
62 0.006022
69 0.005983
87 0.005021
104 0.00399
117 0.00399
121 0.004988
113 0.001995
110 0.001029
116 0.002035
131 0.001001
144 0.001006
149 0.000999
161 0.001009
170 0.0
172 0.0
115 0.0
80 0.0
69 0.001024
90 0.000998
104 0.000998
126 0.000998
129 0.001995
123 0.001991
116 0.001995
121 0.001994
134 0.002986
144 0.002952
154 0.003991
164 0.003992
175 0.005982
170 0.00697
107 0.006987
72 0.006981
77 0.006978
100 0.006982
114 0.00698
132 0.006007
132 0.004988
123 0.005027
118 0.004029
125 0.003024
132 0.002047
146 0.002026
155 0.003024
164 0.002028
167 0.00298
129 0.002029
77 0.000998
62 0.000993
73 0.000998
98 0.0
115 0.0
122 0.0
115 0.000997
105 0.002949
106 0.003988
117 0.00296
124 0.004079
137 0.005988
149 0.006014
155 0.006037
123 0.006952
56 0.006983
49 0.007935
45 0.007018
66 0.006006
83 0.004962
97 0.005002
93 0.004988
84 0.002997
82 0.003989
91 0.001995
101 0.001989
115 0.001997
123 0.001993
135 0.001987
136 0.0
104 0.000997
36 0.000995
25 0.000965
34 0.000998
57 0.000848
67 0.000997
77 0.000997
69 0.001033
66 0.001007
71 0.000997
86 0.002992
96 0.002993
111 0.002941
118 0.002953
130 0.003025
130 0.00299
80 0.00402
31 0.005944
21 0.006039
33 0.005985
56 0.006954
76 0.007115
73 0.007013
38 0.005954
26 0.006976
21 0.004987
31 0.001995
51 0.000997
62 0.0
77 0.0
87 0.0
94 0.001014
37 0.001037
0 0.000967
0 0.000965
0 0.002994
12 0.003001
38 0.002988
39 0.004026
34 0.003991
33 0.003991
40 0.004388
56 0.005021
74 0.005028
84 0.005844
100 0.005985
116 0.007003
115 0.007042
52 0.006988
18 0.006981
7 0.006925
25 0.005963
41 0.005983
63 0.00599
70 0.005986
65 0.006027
60 0.006043
65 0.005009
79 0.004018
94 0.003987
104 0.003973
119 0.004021
131 0.002988
138 0.001937
122 0.001975
48 0.0
24 0.001031
28 0.0
46 0.000964
60 0.001955
77 0.001997
77 0.003964
69 0.004987
68 0.004985
79 0.005018
90 0.005039
109 0.005985
118 0.00695
132 0.006981
141 0.006982
148 0.006985
142 0.007034
86 0.006981
49 0.007948
37 0.005992
58 0.003976
71 0.005022
92 0.003998
94 0.004024
83 0.000997
80 0.000998
84 0.001012
99 0.0
114 0.000956
123 0.001965
136 0.003853
148 0.003979
152 0.004008
158 0.005985
103 0.006985
74 0.007014
48 0.007009
59 0.006937
76 0.006126
97 0.00698
109 0.006981
103 0.006983
92 0.00499
96 0.002974
105 0.004031
121 0.002991
132 0.003032
147 0.000992
158 0.0
164 0.000955
172 0.0
159 0.001012
116 0.001982
60 0.00399
62 0.003436
75 0.003863
95 0.003992
111 0.005018
111 0.004989
102 0.003987
99 0.004985
108 0.005032
120 0.006041
135 0.005987
144 0.007979
158 0.007948
165 0.007973
179 0.007979
181 0.007978
162 0.005983
90 0.002011
63 0.002973
71 0.002975
92 0.002217
105 0.000996
122 0.001031
120 0.001024
111 0.0
107 0.0
119 0.0
127 0.0
144 0.001996
159 0.001986
171 0.002992
182 0.003952
194 0.00296
197 0.003992
137 0.004638
98 0.004999
79 0.004972
94 0.007011
109 0.006952
133 0.006981
138 0.006979
132 0.00698
121 0.006982
129 0.006982
143 0.005984
147 0.00598
145 0.005992
147 0.005027
157 0.004925
138 0.003115
87 0.002992
15 0.002974
10 0.002989
49 0.002
80 0.002031
116 0.002
139 0.00099
140 0.002028
127 0.001039
132 0.0
140 0.0
154 0.0
166 0.001983
173 0.001999
187 0.001995
185 0.002032
129 0.001991
98 0.001995
102 0.001995
115 0.002994
127 0.002992
151 0.003012
153 0.002992
148 0.002998
146 0.00299
152 0.002987
165 0.002849
180 0.004015
191 0.00399
198 0.005017
162 0.00602
119 0.00602
86 0.008014
93 0.006968
108 0.007938
132 0.006374
148 0.007933
153 0.007032
135 0.006103
127 0.006002
127 0.006016
135 0.006981
145 0.005976
156 0.006982
167 0.004985
145 0.005988
74 0.005024
52 0.003958
52 0.00399
75 0.003001
94 0.003992
121 0.003013
122 0.003025
118 0.001992
124 0.001997
131 0.001994
141 0.001994
152 0.001001
157 0.0
162 0.0
121 0.001067
78 0.001884
50 0.003014
61 0.00399
75 0.004037
98 0.00399
107 0.004017
104 0.005019
98 0.005025
100 0.004766
114 0.005986
135 0.00598
146 0.005984
164 0.006016
178 0.006025
185 0.007013
193 0.002996
138 0.00296
99 0.003024
84 0.002035
95 0.001992
119 0.001999
148 0.001995
160 0.001051
154 0.000995
140 0.002031
137 0.003002
147 0.003041
164 0.002998
174 0.002988
194 0.002993
207 0.004041
216 0.004949
224 0.005033
147 0.005021
234 0.006949
204 0.006982
157 0.006982
120 0.007978
122 0.00595
135 0.006981
163 0.005967
188 0.006026
192 0.005937
178 0.004978
172 0.005037
171 0.003955
179 0.005021
190 0.003986
206 0.001999
220 0.002032
229 0.001995
240 0.002024
240 0.0
203 0.001002
152 0.0
133 0.0
149 0.001023
174 0.0
190 0.0
213 0.001011
212 0.003017
203 0.002991
197 0.002991
203 0.002998
213 0.002993
227 0.003024
234 0.004042
246 0.00596
255 0.006018
255 0.007012
213 0.007632
165 0.006014
155 0.004985
166 0.006486
192 0.003958
208 0.002989
227 0.002001
220 0.001043
209 0.001995
203 0.000999
208 0.0
216 0.0
227 0.000997
238 0.002024
188 0.001991
192 0.002025
189 0.001997
157 0.002031
140 0.001912
143 0.002992
154 0.00399
166 0.005035
174 0.00502
174 0.004972
168 0.005018
162 0.006963
163 0.007009
166 0.006981
172 0.007021
177 0.007014
179 0.007015
183 0.00698
183 0.006984
168 0.007979
137 0.006987
132 0.007952
139 0.00695
147 0.00798
159 0.007141
165 0.006989
162 0.007003
153 0.007015
152 0.006016
154 0.00616
160 0.005981
163 0.005985
167 0.005988
171 0.006982
171 0.005008
155 0.00502
125 0.003045
121 0.003025
130 0.00203
138 0.003026
149 0.001996
153 0.00203
150 0.002026
142 0.001979
142 0.000998
144 0.0
149 0.000997
155 0.001996
157 0.001998
160 0.002992
188 0.00399
155 0.004991
98 0.005019
96 0.007961
107 0.005999
127 0.00602
150 0.004637
158 0.004987
148 0.004987
139 0.004986
133 0.005016
140 0.002027
147 0.002992
156 0.000952
166 0.000958
170 0.000997
173 0.002962
165 0.001995
128 0.002007
79 0.001996
83 0.003001
99 0.002997
123 0.002989
135 0.003038
136 0.002991
119 0.002995
111 0.004027
116 0.005349
126 0.00599
136 0.005839
146 0.006977
154 0.006981
156 0.006982
160 0.006982
157 0.007978
100 0.006981
62 0.004022
74 0.001962
90 0.000986
113 0.000997
123 0.001034
120 0.002028
105 0.001045
102 0.0
106 0.0
118 0.001966
127 0.001994
138 0.003014
144 0.003984
145 0.004984
142 0.005989
99 0.007987
67 0.007013
52 0.007979
76 0.007978
91 0.007971
113 0.007976
118 0.006982
111 0.003967
97 0.003995
96 0.003982
105 0.001995
117 0.0
125 0.0
136 0.0
141 0.000997
145 0.0
143 0.00101
83 0.002973
59 0.002964
61 0.004183
78 0.006973
98 0.006835
112 0.007016
112 0.007981
104 0.007978
95 0.007979
96 0.00798
105 0.007968
118 0.007019
125 0.007978
135 0.005018
144 0.004973
146 0.00499
122 0.005022
83 0.005022
52 0.00399
63 0.003988
78 0.003988
100 0.003986
111 0.004986
109 0.00399
95 0.004021
91 0.002992
95 0.003026
107 0.001995
114 0.001022
127 0.000969
134 0.0
143 0.001006
151 0.001013
111 0.000999
59 0.001
20 0.002008
26 0.002032
54 0.00191
82 0.002031
95 0.002027
90 0.002995
73 0.004022
70 0.004026
79 0.006001
97 0.007019
108 0.006982
120 0.006981
131 0.005985
140 0.003995
144 0.004991
80 0.00399
35 0.003019
0 0.002993
0 0.002992
6 0.001962
9 0.0
0 0.000997
0 0.0
0 0.000998
0 0.000909
0 0.002023
0 0.001999
0 0.002992
0 0.002993
0 0.002985
0 0.002983
0 0.003951
0 0.003994
0 0.003966
0 0.004034
0 0.00476
0 0.004987
0 0.004987
0 0.004986
0 0.004987
0 0.004987
0 0.004981
30 0.005981
37 0.006981
50 0.007016
53 0.004986
54 0.004996
62 0.003999
41 0.003987
3 0.003991
8 0.002953
17 0.001994
38 0.002024
46 0.001963
46 0.0
40 0.0
35 0.0
35 0.001996
43 0.001995
50 0.00295
67 0.002962
89 0.003002
94 0.003005
72 0.002993
21 0.002991
7 0.002992
12 0.00304
11 0.003879
16 0.004988
24 0.0052
21 0.006982
27 0.006984
26 0.00695
31 0.006983
41 0.006971
42 0.006979
36 0.006979
46 0.006971
54 0.006977
16 0.005981
60 0.006021
63 0.005017
70 0.006012
78 0.003989
82 0.00399
86 0.003025
84 0.002033
84 0.002992
84 0.002031
89 0.0
93 0.0
98 0.000997
101 0.000999
101 0.000998
84 0.000998
74 0.000997
71 0.001996
77 0.001998
85 0.002033
87 0.001964
84 0.001994
65 0.002032
60 0.001995
60 0.00199
61 0.001993
62 0.002992
61 0.002992
59 0.003959
51 0.004031
26 0.004038
8 0.003992
8 0.003992
10 0.003949
11 0.003986
15 0.004024
15 0.003955
15 0.004991
14 0.004988
18 0.004987
21 0.00599
27 0.007029
33 0.006994
41 0.004991
46 0.005984
44 0.004997
33 0.005979
30 0.006951
35 0.005996
45 0.005018
55 0.003983
34 0.004989
37 0.003032
38 0.004987
45 0.002
53 0.00199
59 0.001007
69 0.001061
80 0.0
83 0.0
83 0.0
58 0.001011
48 0.000956
51 0.000998
59 0.000998
72 0.000998
84 0.001042
88 0.002025
87 0.000968
87 0.001995
88 0.003984
91 0.004024
96 0.005995
102 0.005987
113 0.006019
118 0.005983
101 0.005988
82 0.006019
83 0.005989
92 0.006016
99 0.006018
113 0.005995
118 0.007037
117 0.007028
117 0.006948
120 0.007014
126 0.006984
132 0.00697
138 0.00599
144 0.004987
150 0.003989
139 0.000997
120 0.000998
107 0.00101
110 0.000998
116 0.002029
125 0.002993
133 0.003991
133 0.004024
128 0.00399
126 0.004031
132 0.003996
139 0.004015
143 0.003991
149 0.005029
154 0.00503
153 0.005019
124 0.005945
110 0.006258
107 0.006995
114 0.007992
119 0.007014
129 0.00794
130 0.007953
129 0.007015
123 0.006025
124 0.003989
128 0.004987
136 0.001995
143 0.002138
148 0.001032
151 0.000965
141 0.000964
111 0.0
105 0.001006
107 0.000983
117 0.001996
125 0.004023
130 0.005986
129 0.005983
125 0.004955
125 0.006022
130 0.004979
136 0.005983
142 0.003996
147 0.00399
152 0.003989
146 0.003989
117 0.001956
108 0.0
112 0.00203
122 0.0
130 0.0
134 0.00191
134 0.003989
132 0.004988
132 0.004995
136 0.006975
142 0.006024
146 0.006017
185 0.00599
188 0.006022
158 0.005147
104 0.006981
92 0.006013
105 0.005022
131 0.00502
147 0.00399
159 0.004005
149 0.002003
141 0.004021
144 0.000999
160 0.001987
170 0.000967
185 0.0
196 0.000993
202 0.001021
156 0.000998
121 0.000998
108 0.000997
130 0.001995
144 0.002993
170 0.002992
177 0.004014
172 0.004046
166 0.003029
170 0.005992
181 0.005008
195 0.006984
208 0.007982
215 0.006017
222 0.005986
162 0.004052
135 0.006019
134 0.003938
147 0.005984
175 0.002997
196 0.002001
197 0.001991
184 0.002033
180 0.001996
185 0.001993
197 0.001001
207 0.001014
220 0.0
228 0.001995
200 0.000997
150 0.000905
129 0.0
137 0.0
162 0.0
179 0.0
193 0.0
185 0.0
174 0.000985
177 0.001993
188 0.000998
195 0.001995
211 0.001997
219 0.001931
219 0.002994
156 0.003961
127 0.004986
125 0.005043
148 0.004986
161 0.00602
179 0.006994
180 0.006981
171 0.006971
164 0.006967
167 0.005998
179 0.004949
193 0.005077
201 0.003988
212 0.003994
188 0.002991
142 0.003988
105 0.001084
117 0.000984
132 0.001011
157 0.000987
168 0.0
165 0.000997
152 0.002046
152 0.002994
160 0.003027
175 0.005022
188 0.00499
199 0.004989
208 0.004981
195 0.004979
127 0.006024
101 0.007002
107 0.007023
129 0.00798
146 0.007651
160 0.007977
161 0.006981
151 0.007979
146 0.006982
155 0.005076
162 0.004987
178 0.003026
191 0.001026
199 0.001002
208 0.000985
163 0.000988
122 0.00099
97 0.001986
106 0.001985
129 0.0
148 0.0
159 0.0
153 0.0
142 0.001044
140 0.001002
150 0.000865
157 0.000998
173 0.000999
184 0.001984
193 0.0
200 0.001965
166 0.001997
123 0.00199
91 0.002992
97 0.00399
121 0.004987
145 0.005988
155 0.006979
151 0.005982
138 0.005013
136 0.006015
143 0.004975
160 0.005024
168 0.004992
181 0.004988
191 0.00498
197 0.002992
180 0.004021
110 0.002003
88 0.002043
93 0.002031
107 0.00204
133 0.0
150 0.0
150 0.000967
135 0.0
129 0.000997
135 0.000998
149 0.001004
159 0.002002
175 0.001004
187 0.00399
193 0.003995
165 0.003993
96 0.00396
80 0.004045
91 0.00399
112 0.005019
132 0.005074
148 0.006021
144 0.005996
131 0.007984
126 0.007947
132 0.007951
147 0.006982
161 0.003982
170 0.006019
182 0.003964
186 0.004035
153 0.003024
86 0.001975
75 0.000992
87 0.0
115 0.000952
126 0.000989
143 0.000998
134 0.0
123 0.000998
121 0.000999
134 0.000998
143 0.000999
158 0.001032
166 0.00203
179 0.002028
163 0.002
106 0.002037
66 0.002001
68 0.001995
84 0.001996
111 0.003025
130 0.004987
129 0.004978
113 0.006039
108 0.006023
113 0.006961
125 0.005983
138 0.005969
152 0.006102
167 0.002982
167 0.003998
103 0.004025
57 0.005021
47 0.003012
61 0.004975
91 0.001995
106 0.001994
113 0.000999
102 0.001032
92 0.002993
94 0.003991
107 0.004986
118 0.006995
133 0.007015
147 0.006979
154 0.006875
103 0.006979
60 0.007028
30 0.004986
40 0.005985
57 0.004982
86 0.005018
97 0.006016
94 0.004215
80 0.003989
79 0.004014
87 0.004021
103 0.004024
115 0.004031
131 0.004023
143 0.003026
128 0.004102
51 0.001998
23 0.003989
20 0.00197
46 0.001964
65 0.001993
84 0.002042
78 0.002021
67 0.0
64 0.000952
70 0.0
85 0.0
105 0.0
115 0.0
130 0.0
114 0.001996
65 0.002032
5 0.002963
4 0.002993
23 0.003025
46 0.00296
69 0.002994
72 0.002959
57 0.002992
53 0.005051
60 0.004956
79 0.00502
90 0.004988
109 0.004993
118 0.004987
128 0.006977
97 0.006977
44 0.006016
0 0.005633
4 0.005982
20 0.005985
52 0.005205
68 0.005984
63 0.004006
52 0.005026
50 0.00399
57 0.005019
78 0.004984
91 0.005019
109 0.003025
124 0.002007
134 0.002987
93 0.002036
39 0.001996
62 0.002054
68 0.00203
76 0.0
92 0.001018
99 0.0
100 0.0
93 0.002001
93 0.0
99 0.001029
110 0.001238
120 0.001049
131 0.001024
136 0.002044
148 0.000959
144 0.0
120 0.000997
93 0.002001
89 0.001994
94 0.001996
107 0.001997
115 0.001997
123 0.001996
117 0.001995
115 0.002992
117 0.003004
127 0.002991
134 0.002993
143 0.003005
149 0.004003
154 0.003989
130 0.00399
106 0.005989
92 0.005982
101 0.005984
113 0.005904
128 0.006939
136 0.006963
136 0.007735
129 0.007979
127 0.007348
131 0.007018
139 0.004953
145 0.004961
154 0.00399
158 0.003957
141 0.003985
101 0.004021
92 0.004022
97 0.00099
114 0.001082
123 0.000997
135 0.000993
130 0.001986
121 0.000992
121 0.001996
129 0.0
140 0.001989
155 0.001995
166 0.001996
169 0.000998
117 0.001026
69 0.002955
56 0.002993
72 0.002956
87 0.003983
113 0.003959
121 0.004039
114 0.004974
105 0.003989
109 0.004947
122 0.004979
141 0.005989
146 0.006968
163 0.006993
165 0.006942
102 0.006937
58 0.007978
48 0.006981
63 0.007978
89 0.007979
108 0.00799
113 0.007947
107 0.007979
103 0.007968
110 0.00399
119 0.005984
136 0.00399
153 0.001945
160 0.002042
120 0.001017
65 0.00102
57 0.000981
74 0.000996
92 0.00095
119 0.0
130 0.000951
127 0.0
120 0.0
126 0.000998
136 0.001995
153 0.002951
165 0.004024
179 0.003765
159 0.003959
110 0.003992
88 0.005034
100 0.004983
116 0.005019
146 0.004869
159 0.005023
155 0.00499
146 0.003989
148 0.004986
160 0.006019
175 0.006984
181 0.005005
195 0.004972
202 0.00399
176 0.002992
116 0.002989
105 0.003988
118 0.002985
139 0.00402
163 0.003025
174 0.003957
167 0.004023
160 0.003991
161 0.003989
173 0.001994
182 0.002989
197 0.002032
203 0.003
213 0.001991
204 0.002026
167 0.002034
122 0.002028
120 0.00199
135 0.000996
161 0.000998
176 0.000997
184 0.001956
170 0.001996
164 0.0
169 0.001009
175 0.000997
188 0.001009
200 0.000997
209 0.000997
216 0.001993
219 0.003991
190 0.005974
136 0.005984
127 0.005985
138 0.005942
158 0.005982
182 0.005984
187 0.005982
178 0.005985
170 0.006013
168 0.004986
179 0.004988
186 0.003985
200 0.003028
209 0.004992
217 0.002992
220 0.003989
170 0.002992
139 0.002993
128 0.000997
145 0.0
160 0.0
180 0.0
187 0.0
179 0.000967
167 0.000998
166 0.000967
175 0.001998
187 0.004038
194 0.00508
205 0.005991
211 0.006023
199 0.006981
141 0.007126
116 0.006986
122 0.006982
144 0.005995
158 0.005978
173 0.004037
168 0.00602
155 0.002992
149 0.002992
155 0.001995
160 0.00099
172 0.001028
182 0.0
188 0.0
180 0.000995
120 0.000997
96 0.000997
95 0.001989
105 0.002031
128 0.00096
142 0.002958
140 0.00395
123 0.00495
120 0.006017
125 0.005985
137 0.005983
144 0.007948
153 0.006976
160 0.00798
152 0.007948
119 0.007979
69 0.00599
67 0.002968
79 0.003996
103 0.001994
113 0.002992
114 0.001995
99 0.001997
96 0.001
101 0.0
113 0.0
120 0.0
133 0.003954
144 0.003995
146 0.004042
99 0.003948
54 0.005014
51 0.005984
69 0.006031
86 0.005896
99 0.006975
106 0.007691
96 0.005972
89 0.005984
92 0.004989
105 0.002991
114 0.004025
128 0.001972
136 0.001996
146 0.000965
132 0.0
95 0.000996
59 0.000997
62 0.000798
74 0.0
98 0.000965
109 0.000965
107 0.000991
96 0.0
93 0.001009
100 0.001978
115 0.001995
123 0.001995
137 0.002993
144 0.003969
150 0.005018
119 0.00499
73 0.005021
59 0.007017
73 0.008008
90 0.004987
106 0.007016
117 0.004227
107 0.001995
102 0.000965
106 0.001031
113 0.001997
129 0.001995
143 0.001995
149 0.001995
158 0.002004
158 0.001996
128 0.002028
71 0.001982
61 0.000964
73 0.002017
91 0.002005
109 0.001995
116 0.002992
109 0.003037
103 0.002992
104 0.002954
112 0.003022
128 0.002992
142 0.002976
149 0.004892
159 0.004974
165 0.006968
154 0.005978
92 0.005983
64 0.005023
70 0.004971
91 0.005983
110 0.005988
121 0.00399
118 0.005987
109 0.004987
106 0.005983
116 0.003988
126 0.003964
141 0.003989
154 0.000976
162 0.002026
171 0.0
173 0.001028
152 0.0
92 0.002945
74 0.003996
83 0.003989
107 0.003969
121 0.004029
133 0.004988
125 0.006003
117 0.006041
117 0.006512
127 0.006942
137 0.00594
152 0.004994
163 0.004997
171 0.001995
178 0.00399
161 0.002993
122 0.002996
82 0.003053
89 0.000998
104 0.0
124 0.001009
142 0.000998
143 0.000861
128 0.000978
124 0.0
130 0.000986
144 0.000998
154 0.000997
166 0.000956
173 0.000998
182 0.001008
145 0.002989
107 0.003996
80 0.003989
89 0.005037
107 0.004953
126 0.007013
140 0.006951
136 0.006985
126 0.007014
123 0.004987
128 0.005986
141 0.004987
155 0.003991
163 0.001996
174 0.001991
173 0.001981
115 0.001999
71 0.00299
69 0.002
88 0.002103
108 0.001988
122 0.001964
125 0.002049
115 0.0
107 0.001997
114 0.001989
122 0.0
137 0.001996
149 0.002058
158 0.002007
165 0.004035
140 0.00399
99 0.004034
59 0.004034
63 0.004028
83 0.005983
108 0.005984
118 0.005986
117 0.004984
103 0.003998
103 0.003255
109 0.002003
125 0.001996
134 0.002032
148 0.001052
158 0.003025
162 0.001002
128 0.002036
72 0.0
62 0.000998
76 0.001995
98 0.001026
118 0.003986
127 0.003832
115 0.003958
107 0.003961
110 0.003961
118 0.004283
134 0.00498
149 0.005045
158 0.005023
168 0.004987
135 0.004986
95 0.004987
66 0.005981
70 0.005891
93 0.006027
115 0.006964
127 0.006977
124 0.007946
111 0.008001
111 0.007979
121 0.00795
130 0.007962
143 0.006003
157 0.003964
164 0.005021
173 0.001953
137 0.000965
93 0.001007
59 0.0
64 0.0
78 0.0
100 0.000998
114 0.002
112 0.003027
102 0.00598
101 0.006951
107 0.006982
124 0.006981
133 0.007979
145 0.004986
154 0.006983
163 0.006609
152 0.007552
84 0.004024
49 0.001999
53 0.001996
75 0.001983
88 0.002004
105 0.001994
102 0.001972
96 0.0
92 0.0
103 0.0
113 0.000944
130 0.0
138 0.0
149 0.0
155 0.002025
152 0.0
106 0.002041
59 0.0
49 0.002001
67 0.0
81 0.0
105 0.001994
108 0.004987
97 0.004988
88 0.005023
93 0.006955
102 0.006974
119 0.007013
131 0.006969
142 0.006938
149 0.006258
154 0.004986
128 0.004983
65 0.003978
50 0.004986
60 0.003986
85 0.004988
100 0.003987
112 0.004019
105 0.004024
95 0.002044
97 0.003038
103 0.002989
119 0.003029
136 0.00199
144 0.001023
153 0.000997
164 0.0
159 0.000993
79 0.0
57 0.0
45 0.000997
65 0.000998
81 0.001996
103 0.001959
105 0.003016
96 0.004031
90 0.00399
99 0.00598
106 0.006016
123 0.005983
135 0.007013
147 0.004984
155 0.006542
164 0.007006
153 0.007026
82 0.007013
51 0.006018
47 0.005025
69 0.003002
84 0.004946
105 0.003021
105 0.002997
97 0.001995
93 0.001995
98 0.002118
113 0.002001
132 0.002946
141 0.001974
154 0.001978
160 0.001994
168 0.001992
142 0.002042
96 0.0
51 0.0
59 0.002039
74 0.001995
103 0.003987
120 0.003991
120 0.004988
106 0.006942
101 0.007975
109 0.003974
118 0.006016
135 0.003
151 0.001988
160 0.001993
170 0.003017
166 0.001999
101 0.001995
60 0.001996
61 0.000999
83 0.0
105 0.0
123 0.000991
131 0.001995
116 0.003995
110 0.004773
114 0.005031
126 0.005021
139 0.004999
153 0.004989
161 0.005024
172 0.004975
120 0.005985
78 0.006981
53 0.006978
62 0.006976
83 0.006977
107 0.00698
123 0.006967
118 0.006978
103 0.007128
103 0.006021
112 0.004024
123 0.00599
138 0.003989
151 0.003986
164 0.00403
155 0.001995
78 0.002958
35 0.0
28 0.000962
45 0.000989
65 0.000997
87 0.001012
89 0.001999
79 0.000998
71 0.000999
79 0.001996
88 0.002993
107 0.00399
116 0.003992
131 0.003989
123 0.003683
79 0.004573
16 0.004989
12 0.006015
26 0.00698
49 0.005996
69 0.00698
80 0.004939
72 0.005984
63 0.004988
67 0.004992
81 0.003986
91 0.00399
110 0.004023
126 0.00199
132 0.00399
96 0.002
26 0.000997
12 0.0
25 0.0
54 0.0
67 0.000992
87 0.0
81 0.003029
74 0.003956
77 0.004088
86 0.003992
104 0.004986
123 0.00502
133 0.005984
146 0.006961
146 0.007016
107 0.00694
51 0.007979
32 0.004987
44 0.005985
73 0.002991
103 0.002987
110 0.002964
99 0.001955
91 0.002009
95 0.002006
107 0.0
126 0.000997
136 0.000993
152 0.002958
164 0.003957
155 0.003975
86 0.004987
58 0.005016
56 0.005988
76 0.006954
97 0.007008
124 0.008001
123 0.007819
116 0.006961
106 0.007015
115 0.006097
125 0.007041
144 0.004986
155 0.007137
170 0.003986
176 0.00199
146 0.001994
75 0.001993
59 0.003009
70 0.000987
100 0.0
124 0.0
133 0.0
126 0.0
115 0.001009
119 0.002961
133 0.003989
148 0.004954
164 0.004975
174 0.006825
187 0.006953
190 0.006979
131 0.007012
89 0.007014
68 0.006986
83 0.006975
107 0.006986
129 0.005985
141 0.004989
135 0.002993
123 0.002991
128 0.001996
137 0.001996
154 0.0
169 0.0
176 0.0
189 0.002035
195 0.002988
168 0.003992
98 0.004038
81 0.004024
91 0.002992
111 0.003957
134 0.00396
147 0.003991
144 0.004007
135 0.003988
132 0.004024
139 0.006022
154 0.006976
168 0.006981
181 0.006973
191 0.006981
202 0.005966
205 0.003987
161 0.002993
108 0.004987
91 0.001996
103 0.002993
128 0.00303
144 0.002992
161 0.001998
157 0.002
142 0.002026
141 0.000956
147 0.002002
159 0.0
175 0.0
183 0.000997
196 0.002991
203 0.003989
186 0.004991
120 0.005984
95 0.004983
97 0.005981
120 0.003984
149 0.003995
162 0.001997
160 0.001995
144 0.004029
139 0.002022
145 0.003983
154 0.001986
167 0.00299
181 0.002993
188 0.002992
197 0.002985
146 0.00103
100 0.003001
71 0.0
78 0.002024
97 0.000963
126 0.001965
142 0.002996
137 0.004445
120 0.005021
118 0.005023
125 0.006017
136 0.005992
148 0.004993
155 0.004004
155 0.004036
130 0.00402
77 0.001964
42 0.004021
43 0.00199
60 0.004098
83 0.003989
96 0.003989
99 0.002044
85 0.0
80 0.000998
84 0.0
92 0.001001
105 0.0
118 0.000988
126 0.000997
137 0.000997
96 0.00101
54 0.000995
14 0.000997
19 0.002026
42 0.003954
76 0.005131
89 0.00698
91 0.005982
83 0.007977
84 0.005972
89 0.006019
103 0.004988
114 0.002006
123 0.003024
109 0.0
59 0.000956
33 0.000993
31 0.002032
54 0.003984
72 0.005984
90 0.005984
90 0.006981
82 0.005984
77 0.003988
86 0.002996
95 0.002992
111 0.002992
120 0.002997
106 0.000996
55 0.002028
19 0.002028
21 0.00203
48 0.001982
72 0.002059
87 0.001996
88 0.001985
77 0.001981
72 0.003036
82 0.002994
90 0.003026
109 0.003955
123 0.003991
113 0.00399
54 0.003987
36 0.00399
43 0.004989
72 0.004987
91 0.004988
112 0.004986
110 0.006001
105 0.00698
103 0.006975
112 0.006977
126 0.005019
143 0.006981
157 0.004986
160 0.005982
101 0.004987
70 0.004983
68 0.004006
94 0.001999
113 0.001995
136 0.000971
132 0.001007
125 0.0
119 0.0
131 0.002018
141 0.002036
161 0.004009
175 0.005033
165 0.003821
99 0.003987
75 0.004988
80 0.00599
102 0.005984
121 0.006997
139 0.006014
135 0.007028
128 0.006571
126 0.006981
134 0.007067
150 0.006949
165 0.006909
177 0.008033
177 0.004988
148 0.007979
86 0.005988
80 0.005324
93 0.004946
116 0.004977
136 0.003023
136 0.001032
126 0.002006
125 0.002029
131 0.0
146 0.0
156 0.0
165 0.0
180 0.000998
176 0.001994
132 0.001993
73 0.003031
78 0.003956
97 0.004027
108 0.004969
128 0.004955
133 0.005969
123 0.005954
122 0.005996
127 0.005975
145 0.006953
151 0.006949
169 0.006944
176 0.006977
186 0.006895
158 0.006975
130 0.004959
86 0.00498
91 0.006026
108 0.005023
129 0.006159
149 0.004023
150 0.003989
136 0.003986
132 0.004033
139 0.003989
154 0.001999
162 0.002993
176 0.0
184 0.000998
188 0.001995
188 0.003036
139 0.002993
102 0.003992
86 0.003894
106 0.005984
114 0.006929
140 0.006027
147 0.005951
140 0.003988
129 0.004983
130 0.003996
139 0.002989
154 0.00197
165 0.0
175 0.0
182 0.000997
189 0.001994
183 0.001961
117 0.002992
78 0.00399
81 0.002939
105 0.004988
129 0.004988
139 0.005984
140 0.004987
127 0.005015
121 0.00499
126 0.004969
135 0.005125
152 0.003946
160 0.004987
169 0.002996
168 0.005048
165 0.004108
140 0.002039
74 0.002011
57 0.0
68 0.001997
87 0.0
100 0.002028
115 0.0
98 0.0
81 0.0
73 0.000937
91 0.000965
105 0.000983
124 0.002008
144 0.002964
153 0.002992
163 0.002992
139 0.002988
89 0.005019
86 0.004941
101 0.004949
131 0.004975
154 0.004957
162 0.004957
155 0.006019
149 0.00698
150 0.006981
162 0.007947
169 0.007948
183 0.007973
195 0.003988
196 0.006001
152 0.002953
120 0.002002
122 0.001992
144 0.001993
162 0.002014
186 0.001993
188 0.001997
178 0.002053
170 0.001002
173 0.002992
182 0.001996
192 0.001994
201 0.002
205 0.002993
166 0.0
130 0.0
124 0.001972
142 0.004037
158 0.00399
182 0.006076
188 0.006943
179 0.006948
171 0.005012
171 0.003991
180 0.001997
188 0.002024
201 0.002995
196 0.002004
138 0.001995
109 0.003985
111 0.001967
126 0.002992
150 0.002025
163 0.000969
162 0.00099
150 0.001997
144 0.001997
147 0.000999
159 0.003873
167 0.003957
176 0.004026
156 0.005257
95 0.005954
83 0.004988
91 0.00699
109 0.004985
132 0.005917
137 0.00593
127 0.005942
118 0.005943
117 0.005982
128 0.003988
136 0.003993
148 0.003026
147 0.004988
98 0.003996
57 0.005046
55 0.003989
67 0.00399
90 0.002166
106 0.0
104 0.000962
92 0.0
90 0.0
95 0.0
108 0.0
117 0.0
129 0.000966
137 0.001996
111 0.001995
46 0.002005
30 0.00204
42 0.001993
62 0.001992
74 0.002957
82 0.004989
75 0.003956
72 0.00502
75 0.006986
88 0.005941
97 0.005975
112 0.007032
122 0.003989
127 0.004987
136 0.002009
113 0.002044
71 0.001024
35 0.001021
49 0.0
61 0.0
80 0.0
87 0.0
87 0.001
79 0.002034
78 0.00203
88 0.00199
104 0.001995
113 0.002904
126 0.003963
136 0.005016
141 0.004941
148 0.006978
155 0.007978
159 0.006991
168 0.007107
170 0.007012
118 0.00798
68 0.003999
71 0.007976
88 0.002992
107 0.004001
116 0.003025
114 0.00293
106 0.002961
102 0.003025
112 0.001987
120 0.001994
136 0.001993
146 0.00399
154 0.001994
161 0.003988
166 0.002965
170 0.004026
176 0.003017
181 0.000941
190 0.0
185 0.0
140 0.001865
98 0.0
97 0.001995
109 0.002031
130 0.002989
144 0.004977
142 0.00598
132 0.006019
123 0.006005
128 0.006007
141 0.005986
156 0.00399
162 0.003986
173 0.003988
177 0.003989
182 0.003985
187 0.005984
190 0.005985
196 0.004992
201 0.001003
181 0.002028
134 0.0
104 0.0
107 0.0
128 0.0
145 0.0
156 0.0
152 0.0
144 0.000998
139 0.0
145 0.00399
153 0.00399
168 0.003989
179 0.004987
184 0.004987
192 0.005019
196 0.004985
204 0.004997
212 0.006019
208 0.005982
164 0.006978
100 0.007979
88 0.006977
88 0.006981
98 0.006983
118 0.00698
133 0.004982
131 0.006016
111 0.003971
108 0.00399
108 0.002992
118 0.001965
130 0.002021
135 0.002002
145 0.002017
149 0.001946
153 0.002996
158 0.003025
148 0.001
102 0.0
59 0.000965
57 0.001993
74 0.001964
93 0.001995
109 0.001996
114 0.001995
100 0.004988
92 0.006008
90 0.007979
100 0.004987
108 0.006982
123 0.004983
132 0.006981
141 0.005059
149 0.004988
150 0.003989
104 0.00299
53 0.003957
44 0.003988
58 0.003988
73 0.003024
96 0.002009
106 0.003016
100 0.0
87 0.001987
83 0.0
90 0.0
100 0.0
115 0.00296
123 0.00396
135 0.003988
142 0.00399
129 0.004022
66 0.00696
35 0.006982
36 0.004983
56 0.004986
81 0.002993
94 0.002992
97 0.002991
84 0.004991
79 0.001991
82 0.004023
91 0.002
104 0.002984
119 0.002028
126 0.002009
138 0.001962
136 0.0
102 0.001996
42 0.0
30 0.000954
38 0.000997
63 0.001996
88 0.002997
97 0.002993
89 0.003989
80 0.00399
78 0.005984
85 0.005983
95 0.005979
111 0.006086
126 0.005985
135 0.004985
144 0.003986
139 0.00598
89 0.003942
42 0.004025
30 0.003994
43 0.003978
69 0.004022
95 0.000997
99 0.002962
91 0.0
79 0.002027
79 0.000997
90 0.002989
107 0.004985
115 0.005988
131 0.005985
138 0.006043
147 0.005981
129 0.00698
100 0.005981
40 0.004024
32 0.003995
45 0.004007
72 0.003991
93 0.003985
102 0.001995
91 0.001995
79 0.0
80 0.0
87 0.0
104 0.0
116 0.000997
131 0.00203
142 0.00299
148 0.002972
146 0.002986
111 0.002985
44 0.002991
29 0.002956
40 0.004057
67 0.004989
92 0.004976
98 0.005017
86 0.004987
78 0.005986
74 0.005998
84 0.006019
100 0.003991
111 0.002991
126 0.002978
137 0.0
144 0.001995
150 0.0
116 0.001028
70 0.000966
26 0.000997
28 0.001996
50 0.000998
79 0.001995
92 0.002005
91 0.002967
76 0.004023
72 0.00499
82 0.004984
99 0.005984
106 0.006979
124 0.005981
133 0.005984
143 0.004988
151 0.007976
148 0.005944
103 0.006979
30 0.007976
24 0.006985
39 0.005982
57 0.00598
86 0.005013
99 0.002992
95 0.003988
81 0.001996
82 0.000994
86 0.0
105 0.0
122 0.001963
133 0.001988
146 0.003
154 0.004034
159 0.003987
131 0.004986
55 0.004961
32 0.005017
38 0.00499
55 0.004988
85 0.004978
104 0.004933
106 0.004987
92 0.006977
85 0.006982
89 0.005983
100 0.005984
116 0.006981
136 0.005984
148 0.002992
155 0.003989
164 0.000998
167 0.002992
140 0.001995
62 0.001994
34 0.001138
38 0.0
64 0.0
96 0.000997
110 0.0
108 0.001017
94 0.000995
88 0.001042
94 0.000954
107 0.001
122 0.000959
140 0.001995
150 0.001991
161 0.001976
166 0.001981
167 0.002044
100 0.002959
58 0.004025
34 0.004986
55 0.004951
73 0.005945
103 0.006009
112 0.006946
108 0.006977
91 0.006981
89 0.00598
99 0.004994
114 0.006979
129 0.003988
143 0.00499
156 0.004989
162 0.004997
164 0.004023
98 0.00201
54 0.001987
32 0.0
48 0.001995
67 0.002995
100 0.003043
114 0.002995
109 0.003027
92 0.005031
94 0.006005
101 0.005971
116 0.006692
136 0.00597
147 0.005976
160 0.003993
166 0.005
141 0.002958
75 0.004987
33 0.002991
34 0.004986
61 0.004982
81 0.005047
107 0.004987
109 0.004989
93 0.002954
85 0.001995
90 0.004986
108 0.001994
128 0.000997
138 0.000997
150 0.0
160 0.000996
161 0.0
113 0.001994
37 0.00299
20 0.000998
37 0.001995
53 0.001995
86 0.002992
101 0.004988
91 0.007978
81 0.006986
75 0.00594
89 0.002025
99 0.005984
119 0.0
133 0.0
142 0.0
152 0.0
148 0.000961
107 0.000999
30 0.000998
12 0.001003
26 0.00101
58 0.000998
78 0.001997
90 0.002999
76 0.005023
70 0.005985
70 0.005989
83 0.006982
99 0.004974
116 0.004984
132 0.004022
141 0.00302
151 0.002034
156 0.0
119 0.0
51 0.0
14 0.00205
22 0.001992
53 0.002043
87 0.002993
100 0.003989
92 0.005983
79 0.005978
78 0.005984
91 0.004984
112 0.003991
126 0.002999
143 0.003007
154 0.004998
161 0.003023
169 0.005984
166 0.003989
113 0.002959
41 0.002033
32 0.0
50 0.002992
78 0.003988
109 0.007027
115 0.007026
102 0.006958
92 0.00698
96 0.007975
110 0.004016
133 0.004028
145 0.004961
162 0.003987
170 0.003988
179 0.003989
185 0.005984
188 0.003989
144 0.006981
65 0.005983
47 0.005984
60 0.004988
81 0.00399
115 0.003032
132 0.0
127 0.002992
111 0.0
110 0.0
116 0.0
136 0.000998
158 0.002986
168 0.002995
182 0.002995
190 0.00502
194 0.00502
201 0.005993
177 0.004004
127 0.00399
63 0.00399
61 0.003989
82 0.001995
109 0.003991
138 0.003989
143 0.003989
125 0.004029
115 0.004031
118 0.002993
137 0.0
149 0.003033
166 0.0
182 0.001999
190 0.002002
199 0.002038
204 0.001995
187 0.00304
107 0.003988
66 0.004948
70 0.004943
99 0.00499
122 0.004955
151 0.006945
151 0.004988
136 0.004953
122 0.004983
125 0.007118
138 0.00399
153 0.006026
171 0.004987
182 0.003989
195 0.00399
197 0.003989
140 0.004025
75 0.001995
66 0.003563
84 0.002032
120 0.002995
142 0.0
156 0.000967
149 0.0
129 0.000936
129 0.0
139 0.0
161 0.0
174 0.001962
187 0.002987
199 0.00205
180 0.002028
98 0.002046
59 0.000997
56 0.002002
77 0.003816
110 0.004034
129 0.003945
130 0.005422
110 0.005984
106 0.005984
112 0.005984
129 0.004988
141 0.005017
160 0.00399
171 0.003981
140 0.002029
56 0.002028
32 0.001993
36 0.003
59 0.003989
88 0.001997
108 0.004021
105 0.001994
96 0.002031
92 0.003024
103 0.000957
113 0.003008
132 0.0
142 0.003048
153 0.0
115 0.004003
68 0.004023
26 0.00397
34 0.00399
51 0.003992
86 0.00598
104 0.005987
99 0.005984
87 0.00595
83 0.00497
90 0.004995
109 0.00298
126 0.00419
142 0.002993
156 0.001996
153 0.0
108 0.002005
32 0.001999
18 0.001033
34 0.001026
59 0.000998
89 0.001988
104 0.001872
94 0.005024
87 0.005981
94 0.006986
111 0.006553
126 0.006977
143 0.004991
160 0.004938
169 0.004992
180 0.004
188 0.004986
193 0.001995
202 0.002992
183 0.00399
118 0.001995
78 0.002992
76 0.004956
104 0.003956
123 0.005022
153 0.003958
159 0.005018
146 0.004989
139 0.004954
142 0.006016
157 0.005978
177 0.003989
188 0.003991
205 0.004023
217 0.003988
221 0.003986
187 0.001989
236 0.001973
245 0.002994
253 0.004989
255 0.001983
255 0.002997
196 0.002993
167 0.002992
159 0.001997
173 0.0
195 0.0
217 0.0
228 0.0
224 0.0
212 0.0
212 0.0
223 0.0
187 0.0
246 0.001963
255 0.002914
255 0.003958
255 0.002992
255 0.003989
255 0.00399
255 0.005276
255 0.006016
214 0.006016
190 0.005868
174 0.006326
167 0.006983
173 0.007001
179 0.005965
188 0.00595
196 0.004987
194 0.001996
189 0.001994
185 0.000833
186 0.002025
193 0.0
200 0.0
205 0.0
210 0.000953
213 0.000967
215 0.001949
216 0.002957
219 0.003009
220 0.002979
204 0.002992
188 0.002992
176 0.002963
181 0.002992
187 0.003988
196 0.003991
204 0.004986
204 0.006979
199 0.00798
193 0.005039
193 0.007025
197 0.003014
202 0.002993
205 0.001995
209 0.0
211 0.0
213 0.0
213 0.0
214 0.0
207 0.000998
180 0.000998
171 0.001996
172 0.004025
183 0.005017
188 0.004993
195 0.006957
196 0.007014
191 0.006974
185 0.00601
255 0.00402
255 0.001995
255 0.004023
207 0.002954
210 0.002954
213 0.000966
213 0.000995
215 0.001013
212 0.0
182 0.0
167 0.0
164 0.0
175 0.002991
182 0.002992
193 0.004024
195 0.004983
188 0.005984
180 0.006014
178 0.006933
180 0.006982
184 0.007847
187 0.005946
192 0.007978
195 0.00797
196 0.006981
197 0.006981
189 0.003992
169 0.006981
148 0.002992
148 0.004986
157 0.00299
169 0.003989
176 0.003026
179 0.00201
169 0.002993
163 0.002998
162 0.002969
164 0.002993
170 0.002992
175 0.001994
177 0.001999
179 0.0
181 0.001023
178 0.000994
154 0.001963
132 0.001993
131 0.001979
141 0.002025
149 0.002042
160 0.001995
163 0.003947
157 0.003989
148 0.004987
156 0.006022
160 0.005951
165 0.006981
173 0.006981
177 0.006978
182 0.006979
184 0.00698
158 0.00499
120 0.007013
107 0.004986
114 0.006941
132 0.004986
142 0.004986
152 0.005108
144 0.001985
134 0.005015
128 0.001964
131 0.003025
139 0.00202
147 0.001994
151 0.0
156 0.0
159 0.0
147 0.002003
97 0.003021
79 0.00399
84 0.003936
101 0.004788
119 0.004883
124 0.00499
117 0.004988
108 0.005983
101 0.005957
103 0.006999
111 0.006015
116 0.006951
125 0.006018
128 0.005985
134 0.005984
119 0.003985
87 0.005989
52 0.003002
54 0.005981
69 0.003997
87 0.003002
96 0.002994
97 0.001996
82 0.002982
77 0.001996
78 0.000998
86 0.002033
93 0.001
101 0.0
109 0.001995
113 0.001997
113 0.002942
79 0.002995
40 0.003029
29 0.003912
37 0.002993
55 0.003987
74 0.004031
78 0.004027
70 0.00399
61 0.003989
58 0.00399
65 0.003986
70 0.00399
81 0.005018
87 0.005993
94 0.006962
101 0.006965
101 0.006945
57 0.006979
15 0.006983
11 0.005985
26 0.007944
38 0.005988
58 0.007972
63 0.005988
59 0.004987
44 0.003021
43 0.0
51 0.0
60 0.0
69 0.0
76 0.0
86 0.0
93 0.00204
96 0.001969
61 0.001996
12 0.001995
4 0.001994
15 0.001804
27 0.001996
48 0.002011
59 0.001964
55 0.002992
41 0.003989
39 0.003981
46 0.004951
56 0.003901
69 0.006015
78 0.006013
88 0.007082
92 0.006978
99 0.006981
95 0.005985
64 0.006967
14 0.003975
6 0.003994
15 0.002996
37 0.002996
49 0.002989
63 0.00198
52 0.002993
45 0.001995
44 0.0
50 0.001995
62 0.0
73 0.002039
86 0.003052
94 0.0
103 0.0
108 0.0
107 0.0
66 0.0
33 0.0
11 0.0
24 0.000966
36 0.000997
59 0.001994
72 0.003028
67 0.004003
53 0.003989
51 0.004056
57 0.003957
70 0.003962
80 0.004983
94 0.005018
103 0.006982
108 0.005979
116 0.005983
120 0.006981
105 0.004987
44 0.00399
16 0.000963
20 0.003025
40 0.0
64 0.000964
76 0.001013
76 0.0
69 0.0
56 0.0
58 0.002033
65 0.001011
79 0.0
94 0.002982
101 0.003989
111 0.004987
118 0.00503
120 0.004871
69 0.004966
35 0.004562
15 0.005934
24 0.00594
42 0.005984
63 0.005985
77 0.005989
75 0.005985
60 0.005982
56 0.005984
60 0.007978
71 0.004946
81 0.007956
93 0.004987
107 0.003982
112 0.003989
119 0.003986
104 0.002978
41 0.002959
11 0.001995
15 0.002992
36 0.0
56 0.0
74 0.000998
74 0.002025
60 0.002018
54 0.002996
58 0.003036
67 0.003005
80 0.002989
93 0.003034
103 0.003988
112 0.002898
120 0.004023
101 0.002991
37 0.003989
8 0.004987
12 0.004986
33 0.005984
55 0.004983
69 0.004996
73 0.004991
62 0.004949
54 0.002986
57 0.004987
66 0.002991
78 0.004949
94 0.003955
103 0.002993
114 0.003029
122 0.0
101 0.002992
33 0.0
7 0.0
8 0.001014
28 0.001995
56 0.001993
70 0.003029
73 0.004987
57 0.004983
55 0.005983
57 0.004989
70 0.00199
80 0.002994
96 0.001998
107 0.003018
115 0.0
124 0.0
97 0.002041
54 0.002022
7 0.00399
7 0.006013
23 0.006016
46 0.005908
70 0.007983
75 0.007968
60 0.008
51 0.005023
53 0.007016
63 0.002992
80 0.003188
90 0.002996
106 0.002959
112 0.003984
123 0.003982
112 0.00299
72 0.001996
11 0.001994
0 0.002992
12 0.0
34 0.001998
63 0.002027
71 0.000997
60 0.000953
48 0.002028
45 0.003027
54 0.00596
71 0.006027
82 0.006948
96 0.007966
110 0.005979
115 0.005983
121 0.003985
109 0.003991
37 0.001979
0 0.001997
0 0.002996
18 0.0
42 0.002023
62 0.0
64 0.002994
47 0.003024
41 0.0
46 0.001993
59 0.000998
75 0.001996
88 0.001891
103 0.002027
109 0.002047
118 0.003963
118 0.004989
62 0.005036
4 0.004978
63 0.005017
71 0.005956
87 0.00594
92 0.005
101 0.005145
95 0.004956
91 0.005021
91 0.004982
97 0.006001
105 0.003957
112 0.006
120 0.002956
125 0.004967
129 0.005021
132 0.005007
120 0.004993
99 0.004979
74 0.004987
76 0.002993
83 0.002996
99 0.0
111 0.0
111 0.0
106 0.0
102 0.0
104 0.002032
113 0.00196
123 0.002986
128 0.003029
136 0.002996
140 0.002992
144 0.002969
143 0.002997
124 0.003987
96 0.006958
85 0.007979
90 0.004991
101 0.007964
117 0.006986
125 0.006977
124 0.007026
119 0.006027
116 0.007012
121 0.003049
126 0.005985
136 0.002994
145 0.002992
149 0.002987
153 0.004001
156 0.003992
174 0.002993
157 0.003025
113 0.000998
84 0.003022
85 0.002003
95 0.003128
118 0.003028
132 0.002031
139 0.002956
128 0.0
123 0.00304
125 0.0
135 0.001014
143 0.000858
157 0.002026
170 0.003041
173 0.003033
179 0.004985
184 0.004977
175 0.004979
123 0.005812
101 0.004988
92 0.004988
107 0.005985
121 0.006116
144 0.004953
151 0.007978
145 0.003974
135 0.005984
134 0.003943
141 0.003941
154 0.003037
167 0.0
174 0.002993
182 0.0
186 0.002996
190 0.000946
161 0.0
127 0.001985
97 0.000984
98 0.0
115 0.002002
139 0.0
151 0.000966
153 0.0
142 0.001032
136 0.002032
139 0.000993
145 0.000996
158 0.001
170 0.002002
177 0.003765
184 0.005953
190 0.004998
179 0.004987
136 0.007986
103 0.006257
95 0.006018
108 0.007006
131 0.002949
144 0.005952
155 0.003001
146 0.001995
141 0.002993
142 0.0
150 0.0
154 0.00087
166 0.001002
176 0.001034
181 0.003025
187 0.003006
165 0.003034
124 0.003029
101 0.002842
103 0.002992
118 0.004986
142 0.006986
154 0.006984
155 0.008007
145 0.005995
140 0.007975
142 0.005065
152 0.004993
159 0.00299
172 0.002991
180 0.002002
183 0.0
142 0.0
103 0.003989
92 0.0
100 0.001005
120 0.00199
132 0.002029
145 0.003985
138 0.004987
129 0.005974
127 0.006981
136 0.007985
148 0.007958
161 0.006982
175 0.003016
181 0.004987
171 0.002991
132 0.004986
76 0.001989
74 0.002993
88 0.002999
115 0.003009
130 0.002998
139 0.003004
125 0.002985
120 0.003007
123 0.000968
133 0.002993
146 0.0
157 0.002992
170 0.003041
176 0.000988
138 0.001951
87 0.002038
68 0.002999
76 0.004001
101 0.004956
116 0.006004
132 0.006026
135 0.006014
124 0.00599
120 0.005984
130 0.007978
142 0.006981
157 0.004986
166 0.005982
177 0.004971
177 0.004991
125 0.003995
83 0.004993
76 0.003024
89 0.003027
117 0.003001
133 0.004038
145 0.002015
133 0.0
128 0.001994
128 0.0
140 0.001953
148 0.003032
163 0.003983
175 0.004023
180 0.005978
134 0.006017
83 0.005855
77 0.005982
89 0.00499
117 0.004992
134 0.004988
149 0.003989
144 0.004988
131 0.004993
130 0.006982
139 0.002992
152 0.005058
168 0.003026
175 0.004042
184 0.002984
134 0.0
93 0.003024
70 0.0
79 0.002991
99 0.000984
127 0.001001
142 0.0
137 0.0
124 0.000998
123 0.001963
132 0.003005
147 0.003048
158 0.00301
172 0.002962
180 0.00299
147 0.002992
82 0.002992
66 0.004986
74 0.005983
100 0.007016
116 0.005973
138 0.007013
136 0.006979
126 0.006942
120 0.005021
129 0.000949
138 0.002994
154 0.0
168 0.0
176 0.0
175 0.0
139 0.0
79 0.0
71 0.0
78 0.0
105 0.0
132 0.000998
140 0.00204
130 0.003951
119 0.003991
121 0.005037
131 0.00503
142 0.00501
154 0.005021
169 0.004986
176 0.004987
171 0.004987
106 0.005982
78 0.006985
70 0.005963
85 0.006979
106 0.005988
132 0.004986
138 0.002995
125 0.002028
115 0.002994
118 0.001994
130 0.002026
141 0.003958
152 0.00301
162 0.003986
169 0.002995
143 0.003996
83 0.003063
67 0.002951
75 0.003026
101 0.0
117 0.002986
132 0.0
126 0.003048
114 0.0
114 0.0
122 0.0
137 0.0
148 0.0
156 0.0
168 0.0
167 0.0
113 0.002031
65 0.003962
62 0.00399
81 0.005981
104 0.00499
122 0.00798
128 0.004995
118 0.007019
110 0.004001
113 0.005972
126 0.005953
136 0.006017
151 0.005022
163 0.000997
168 0.002029
141 0.000998
91 0.0
69 0.0
71 0.000998
96 0.000996
113 0.001993
133 0.003028
132 0.002992
119 0.002987
118 0.005953
125 0.005976
134 0.00499
150 0.004996
160 0.006015
169 0.002958
144 0.006
107 0.005136
73 0.004984
83 0.003004
97 0.004987
124 0.003942
139 0.00301
135 0.002989
123 0.000977
123 0.0
131 0.0
145 0.001009
154 0.0
168 0.0
162 0.002949
115 0.0
81 0.001003
78 0.001996
92 0.001986
119 0.00399
136 0.00498
139 0.005984
129 0.007941
121 0.007984
123 0.007006
135 0.005027
149 0.001993
158 0.00402
171 0.0
152 0.0
114 0.001999
74 0.002996
78 0.005979
97 0.006017
114 0.005018
136 0.004996
132 0.003989
123 0.002995
120 0.002988
123 0.002992
135 0.002992
147 0.004987
159 0.002991
168 0.003993
135 0.002995
96 0.003001
67 0.002993
80 0.0
95 0.000998
119 0.001989
136 0.002027
132 0.002041
117 0.002041
113 0.001917
120 0.000997
134 0.002991
143 0.00403
157 0.006026
151 0.005984
112 0.005985
70 0.004993
59 0.005997
70 0.004167
99 0.002947
119 0.004987
129 0.002993
119 0.002986
108 0.002993
110 0.0
121 0.000994
132 0.000997
141 0.003003
156 0.002989
144 0.00396
101 0.003954
47 0.004859
40 0.00399
57 0.005025
81 0.005954
97 0.005936
108 0.006932
96 0.006977
88 0.006024
90 0.006024
104 0.007925
114 0.004987
127 0.007973
139 0.003986
142 0.007979
86 0.008003
46 0.006981
23 0.0064
32 0.00697
60 0.006982
88 0.00399
95 0.006981
86 0.002996
77 0.002992
77 0.003037
90 0.002981
107 0.0
117 0.0
131 0.0
139 0.0
120 0.0
60 0.002989
25 0.000992
24 0.001927
50 0.0
69 0.001995
95 0.005021
96 0.004108
84 0.004419
79 0.004934
86 0.005044
94 0.004199
112 0.005979
121 0.005989
136 0.004988
147 0.006984
135 0.00794
81 0.003988
35 0.002992
33 0.002992
55 0.002974
87 0.002992
104 0.002989
108 0.003021
99 0.003007
89 0.003003
92 0.004993
104 0.002963
118 0.004987
130 0.003023
143 0.00399
154 0.002992
140 0.00304
71 0.0
41 0.000997
42 0.000957
62 0.001875
97 0.003024
114 0.004048
116 0.004983
104 0.006949
98 0.005945
101 0.003993
116 0.005085
127 0.004983
143 0.004986
155 0.007937
149 0.003989
78 0.00798
45 0.005003
35 0.00698
55 0.007014
75 0.005017
108 0.003027
117 0.000974
108 0.002992
96 0.0
99 0.000947
106 0.0
124 0.0
135 0.0
150 0.0
157 0.000995
126 0.001992
50 0.000995
24 0.002028
34 0.003991
65 0.004986
97 0.004955
108 0.004986
101 0.004987
88 0.007978
87 0.002994
93 0.006162
110 0.004986
121 0.005958
139 0.005021
152 0.002949
144 0.004986
69 0.001994
28 0.0
25 0.000999
47 0.001005
82 0.001003
101 0.001991
109 0.003996
93 0.005022
89 0.005019
94 0.004995
103 0.00499
121 0.005947
136 0.005984
145 0.004986
154 0.00506
112 0.004979
44 0.003989
29 0.002991
44 0.002992
71 0.000997
98 0.002993
116 0.002992
107 0.002936
96 0.003018
92 0.004981
104 0.005949
112 0.00599
130 0.005949
140 0.005945
154 0.005952
114 0.006058
69 0.004987
31 0.005756
39 0.006018
65 0.002991
95 0.004947
120 0.005022
118 0.005026
102 0.004999
98 0.004985
106 0.00399
123 0.003028
134 0.004012
152 0.002992
161 0.003989
135 0.002992
54 0.003996
28 0.0
33 0.0
66 0.0
89 0.000997
111 0.0
111 0.001996
100 0.001996
92 0.002033
103 0.003989
112 0.005984
128 0.005985
147 0.007978
157 0.006013
149 0.007002
69 0.006979
32 0.007019
21 0.006983
50 0.002993
72 0.003024
105 0.00095
106 0.0
95 0.0
86 0.000977
90 0.0
104 0.000997
124 0.000997
136 0.003021
153 0.004987
154 0.004987
113 0.004987
37 0.004988
23 0.004986
38 0.005549
74 0.005987
96 0.005982
115 0.005981
104 0.005983
91 0.005982
92 0.007944
102 0.007024
114 0.006022
136 0.004986
153 0.002983
162 0.003983
160 0.000998
98 0.000998
54 0.002039
30 0.001969
54 0.001993
76 0.000998
114 0.000998
123 0.001993
111 0.011968
104 0.001996
97 0.001992
113 0.004987
125 0.004987
145 0.004948
155 0.00424
168 0.004029
113 0.002993
63 0.003988
29 0.002997
37 0.003944
70 0.000999
111 0.000997
126 0.001994
119 0.016955
114 0.001995
103 0.003988
111 0.005984
126 0.005984
147 0.004986
159 0.004986
174 0.005983
174 0.005986
97 0.003987
35 0.006982
21 0.00399
40 0.00599
77 0.006009
100 0.005989
117 0.002987
102 0.000955
94 0.003028
97 0.0
110 0.0
123 0.002006
144 0.002951
163 0.003893
170 0.005019
153 0.005988
63 0.005025
28 0.005952
25 0.004991
58 0.003024
82 0.003004
114 0.003006
116 0.003035
102 0.0
94 0.003029
102 0.002992
113 0.002957
136 0.001994
153 0.004988
165 0.004987
174 0.007978
140 0.007021
66 0.003983
31 0.005024
28 0.002996
63 0.0
87 0.0
119 0.0
120 0.003982
100 0.0
90 0.000995
96 0.000992
110 0.0
131 0.000998
144 0.000999
161 0.001014
165 0.002044
121 0.001996
52 0.001978
20 0.002007
29 0.004024
66 0.00402
91 0.00396
118 0.003953
105 0.00399
92 0.004987
88 0.004986
96 0.004983
117 0.004958
137 0.00499
148 0.004953
162 0.006012
125 0.005986
86 0.005976
17 0.005942
10 0.005984
37 0.005011
76 0.007979
98 0.002967
108 0.005985
92 0.005019
83 0.005019
88 0.004988
107 0.000966
120 0.002988
140 0.0
155 0.0
162 0.001993
148 0.00195
59 0.00399
22 0.003988
21 0.003989
57 0.003989
81 0.003989
111 0.003988
112 0.004593
96 0.005068
90 0.005957
95 0.004989
115 0.003975
133 0.007013
152 0.003955
163 0.007028
175 0.005981
180 0.00601
128 0.00402
51 0.0
38 0.002985
57 0.0
78 0.003018
116 0.000999
131 0.000978
124 0.0
109 0.0
114 0.001
120 0.0
141 0.0
154 0.0
172 0.0
184 0.000993
190 0.001995
195 0.001995
154 0.002987
91 0.004986
63 0.005988
78 0.004992
98 0.005999
134 0.007941
151 0.005021
143 0.007947
128 0.003954
125 0.002959
132 0.0
152 0.001999
170 0.000968
178 0.000982
192 0.0
201 0.0
194 0.0
125 0.0
89 0.0
80 0.0
107 0.001965
129 0.000997
160 0.001994
160 0.0
150 0.0
140 0.003988
147 0.005983
157 0.005985
175 0.005984
186 0.005984
197 0.007978
208 0.005022
211 0.007974
173 0.004003
101 0.003989
84 0.003023
95 0.003001
127 0.002053
145 0.002992
162 0.002983
157 0.002975
141 0.002991
139 0.003013
