190 0.023979
192 0.006985
152 0.006979
99 0.006981
74 0.007978
77 0.007979
94 0.006986
112 0.00598
119 0.006965
128 0.006981
132 0.006948
132 0.007011
131 0.007978
134 0.006984
145 0.007025
152 0.006987
161 0.007974
166 0.007945
170 0.007025
174 0.007031
178 0.007046
182 0.00793
186 0.007999
189 0.007027
191 0.007028
196 0.007978
189 0.007979
131 0.007973
72 0.007948
72 0.007979
97 0.007977
104 0.007003
111 0.006946
118 0.007016
124 0.007037
126 0.007031
127 0.007006
129 0.006963
133 0.007978
139 0.007978
149 0.00798
154 0.007979
161 0.006981
166 0.007006
170 0.007014
175 0.007947
177 0.007947
182 0.007004
184 0.007025
187 0.007024
194 0.00703
165 0.006981
103 0.007027
67 0.007979
60 0.007977
68 0.007979
94 0.007978
100 0.006969
105 0.007978
112 0.007979
117 0.006981
117 0.006981
120 0.006965
126 0.006981
134 0.006981
143 0.006982
150 0.006982
154 0.007979
163 0.007978
165 0.007941
169 0.007934
172 0.007937
176 0.007022
178 0.007981
185 0.00698
189 0.007015
164 0.007006
102 0.007016
65 0.007032
63 0.007036
80 0.006975
96 0.006949
106 0.006986
114 0.006998
120 0.007986
119 0.007978
117 0.007012
121 0.007022
129 0.007012
138 0.007028
146 0.007027
156 0.006979
161 0.006979
165 0.006986
169 0.007025
172 0.005949
176 0.006016
180 0.007979
184 0.007018
187 0.007019
152 0.007026
90 0.006982
56 0.00698
54 0.007028
69 0.006941
83 0.006998
91 0.006947
96 0.007028
102 0.00698
104 0.006004
105 0.005986
108 0.007017
114 0.006982
122 0.006997
130 0.007015
139 0.007016
145 0.006986
149 0.006946
154 0.006984
157 0.007017
163 0.006987
167 0.006018
172 0.006033
177 0.005971
169 0.006956
111 0.007014
62 0.007026
43 0.006948
55 0.006981
70 0.006981
79 0.006978
84 0.006992
92 0.006084
96 0.005984
96 0.006029
98 0.006027
103 0.006027
112 0.006982
120 0.007021
129 0.006964
135 0.007027
139 0.006977
142 0.00701
145 0.006969
150 0.006964
155 0.006044
161 0.006019
164 0.006066
129 0.005976
78 0.005979
48 0.005977
51 0.005984
67 0.005998
80 0.005965
86 0.005987
93 0.006023
99 0.006982
100 0.006981
101 0.005984
106 0.006022
114 0.005979
122 0.006032
129 0.005986
137 0.005983
141 0.006017
145 0.005983
150 0.005985
154 0.005984
159 0.006005
164 0.006033
171 0.007013
175 0.005984
149 0.006014
91 0.006037
51 0.005984
44 0.00601
57 0.005954
69 0.005986
75 0.005974
80 0.006018
89 0.005947
94 0.006982
96 0.006046
98 0.005984
103 0.005984
110 0.006012
118 0.005983
126 0.005984
132 0.006025
137 0.00593
142 0.006016
146 0.005933
152 0.005956
156 0.005996
163 0.005955
169 0.00596
174 0.005032
154 0.004986
96 0.005018
54 0.005017
44 0.004956
57 0.006054
68 0.006015
72 0.005993
82 0.005984
90 0.006031
94 0.006026
95 0.005984
98 0.004987
103 0.005029
111 0.004986
119 0.00498
128 0.004987
132 0.004986
137 0.004985
140 0.004927
146 0.004985
150 0.005989
155 0.00598
161 0.005983
166 0.005023
162 0.004971
118 0.005021
71 0.005024
48 0.005023
58 0.004953
72 0.004973
81 0.005003
91 0.004987
98 0.004975
101 0.005016
101 0.00503
103 0.005022
109 0.005024
116 0.00498
126 0.004958
135 0.004977
139 0.005984
144 0.004985
148 0.005017
155 0.004978
158 0.00502
161 0.004987
167 0.005019
172 0.004976
176 0.004987
155 0.005018
99 0.00502
52 0.004966
49 0.004998
63 0.00494
74 0.004984
81 0.005014
88 0.004987
95 0.004987
100 0.004987
101 0.00502
103 0.004976
108 0.005003
116 0.00497
126 0.004942
132 0.004986
137 0.004987
141 0.003974
149 0.00399
152 0.004998
156 0.005019
162 0.005022
166 0.005018
171 0.005018
177 0.005037
183 0.004999
140 0.004991
81 0.00498
48 0.003998
45 0.004046
70 0.005022
79 0.00399
82 0.004987
91 0.004987
98 0.004987
102 0.004986
103 0.005053
106 0.004951
115 0.005012
123 0.004004
133 0.003991
140 0.004037
148 0.004034
152 0.00399
157 0.004032
164 0.004987
169 0.005037
174 0.004986
178 0.005021
183 0.003955
189 0.004004
188 0.00387
134 0.003993
77 0.004033
50 0.00399
64 0.00399
81 0.004031
93 0.004046
100 0.003031
107 0.003988
109 0.004987
109 0.003979
110 0.003955
115 0.004005
124 0.003989
141 0.004012
150 0.002992
156 0.004029
161 0.004026
167 0.004037
171 0.00399
174 0.004021
178 0.004036
183 0.004036
188 0.004002
158 0.00395
94 0.003977
45 0.003989
53 0.003975
70 0.002992
81 0.004043
89 0.004031
96 0.00399
102 0.004033
105 0.00399
106 0.003939
109 0.003986
115 0.003995
126 0.003994
142 0.004025
149 0.004028
156 0.003059
162 0.003035
167 0.003018
172 0.003992
177 0.003987
181 0.003992
184 0.003997
188 0.003959
195 0.003952
171 0.004006
65 0.00399
41 0.003007
47 0.003027
65 0.00399
80 0.002993
89 0.002993
97 0.002992
103 0.002992
105 0.003938
105 0.003988
109 0.003956
116 0.003948
131 0.004029
141 0.003028
150 0.00298
158 0.002993
164 0.003044
169 0.002996
173 0.003034
177 0.003006
180 0.003005
185 0.003021
192 0.002992
191 0.00398
97 0.004021
54 0.002993
45 0.002992
58 0.002928
75 0.004005
91 0.002993
100 0.002993
107 0.00295
111 0.00297
111 0.00296
111 0.002975
116 0.003013
133 0.001995
145 0.002959
155 0.003958
163 0.003026
168 0.003026
174 0.003
178 0.00294
182 0.003
187 0.002947
191 0.002934
192 0.002975
141 0.002986
52 0.001962
43 0.002993
56 0.001994
74 0.002992
87 0.002994
96 0.003042
104 0.002993
109 0.002994
109 0.002985
109 0.002959
114 0.002999
124 0.002954
142 0.002031
151 0.001994
158 0.001994
165 0.002993
170 0.003024
175 0.002992
179 0.002992
182 0.003008
186 0.002979
191 0.003069
196 0.003012
161 0.002943
55 0.001995
36 0.00199
45 0.001995
63 0.001992
78 0.001995
88 0.002997
96 0.001995
102 0.002996
104 0.002966
104 0.002994
109 0.002972
119 0.001997
133 0.001994
144 0.00199
152 0.002027
159 0.002048
164 0.001992
170 0.001995
175 0.002994
178 0.001995
183 0.001981
188 0.002038
194 0.002999
150 0.001995
65 0.001995
41 0.002978
46 0.00197
63 0.002042
78 0.001994
90 0.001984
98 0.00203
103 0.002023
104 0.002008
102 0.001952
105 0.002991
115 0.001994
130 0.003001
142 0.002993
150 0.001995
157 0.001994
161 0.001995
165 0.001982
169 0.001995
174 0.001994
180 0.001988
175 0.001985
99 0.001956
48 0.001994
51 0.001995
68 0.001995
83 0.001023
93 0.000995
102 0.000949
110 0.001995
109 0.002034
108 0.001995
110 0.002022
117 0.001994
131 0.001969
144 0.001981
155 0.000999
160 0.002018
164 0.001995
168 0.000997
171 0.001061
175 0.000997
181 0.000997
185 0.001995
177 0.001973
117 0.001934
66 0.001953
47 0.002029
62 0.001995
80 0.001994
86 0.001995
93 0.000992
99 0.000993
103 0.000983
103 0.001
105 0.000997
111 0.001011
119 0.000989
128 0.000953
141 0.001995
148 0.001986
153 0.001995
157 0.001995
162 0.000997
165 0.000999
169 0.000999
176 0.000998
180 0.000997
162 0.00101
103 0.000995
60 0.001003
51 0.000998
66 0.000997
80 0.001997
85 0.000998
92 0.000997
98 0.001028
101 0.000995
102 0.000998
105 0.000997
112 0.001019
120 0.001028
130 0.000996
141 0.000997
147 0.000998
153 0.001995
157 0.000983
161 0.000968
164 0.001005
169 0.001
176 0.000963
180 0.000965
178 0.001019
128 0.000961
57 0.000997
52 0.000997
65 0.000998
82 0.000956
88 0.0
94 0.000997
101 0.0
106 0.000998
107 0.000997
108 0.000997
113 0.000992
120 0.000999
134 0.000997
140 0.000998
147 0.000998
152 0.0
156 0.0
159 0.0
162 0.0
167 0.000997
174 0.000997
179 0.000998
164 0.001
110 0.000985
57 0.000997
60 0.0
76 0.0
92 0.0
99 0.0
107 0.0
112 0.0
112 0.0
112 0.000997
115 0.0
122 0.001039
131 0.000995
144 0.000998
150 0.0
155 0.0
160 0.0
164 0.0
168 0.0
171 0.0
174 0.0
181 0.0
185 0.0
181 0.0
130 0.0
57 0.000997
51 0.0
64 0.0
80 0.0
85 0.0
90 0.0
97 0.0
101 0.0
104 0.0
105 0.0
110 0.0
117 0.0
132 0.001
139 0.0
144 0.0
151 0.0
155 0.0
160 0.0
163 0.0
168 0.0
172 0.0
176 0.0
181 0.0
188 0.0
162 0.0
83 0.000953
58 0.0
49 0.0
63 0.0
75 0.0
81 0.0
87 0.0
96 0.0
102 0.000997
104 0.0
107 0.0
115 0.000997
128 0.0
137 0.0
141 0.0
148 0.0
154 0.0
158 0.0
162 0.0
167 0.0
172 0.001003
176 0.0
182 0.0
189 0.001045
196 0.0
199 0.0
171 0.0
107 0.001
66 0.000997
56 0.0
73 0.0
83 0.0
96 0.0
102 0.001003
111 0.0
114 0.0
114 0.0
117 0.0
123 0.0
131 0.000978
141 0.000999
150 0.0
155 0.0
161 0.0
164 0.001007
168 0.001965
174 0.000997
179 0.000999
186 0.0
190 0.0
196 0.0
184 0.001032
124 0.001024
66 0.0
57 0.0
69 0.0
84 0.000997
95 0.001005
106 0.001995
112 0.002004
115 0.000965
115 0.000983
115 0.000999
123 0.001014
132 0.001032
144 0.0
151 0.001036
158 0.00103
163 0.001011
168 0.000998
174 0.001961
178 0.001995
182 0.000998
184 0.000997
190 0.0
194 0.000998
198 0.00106
153 0.0
89 0.001039
53 0.001018
48 0.000998
62 0.000998
83 0.002031
88 0.001995
96 0.000997
101 0.000998
104 0.000999
104 0.000998
107 0.001004
116 0.0
125 0.0
136 0.0
144 0.000999
150 0.001988
159 0.002032
164 0.002079
170 0.001023
174 0.000999
178 0.000999
182 0.001003
186 0.001036
192 0.0
195 0.000933
167 0.0
103 0.001995
64 0.001983
63 0.001995
79 0.001996
95 0.001003
101 0.000998
107 0.000999
113 0.001997
115 0.001995
115 0.000998
117 0.0
124 0.001033
132 0.001997
140 0.00195
152 0.001995
157 0.001995
162 0.000991
165 0.000997
169 0.000998
173 0.002003
178 0.002001
185 0.000992
188 0.002032
180 0.002046
109 0.001976
73 0.002001
73 0.001997
89 0.001996
106 0.001035
112 0.001039
119 0.000986
123 0.002044
123 0.002025
121 0.000999
124 0.001992
131 0.002002
139 0.002038
147 0.002007
158 0.00204
163 0.001995
168 0.001042
171 0.000985
174 0.001028
177 0.000999
180 0.002027
183 0.003029
189 0.002023
193 0.002028
169 0.002024
89 0.002035
59 0.002042
61 0.001995
77 0.002029
93 0.001029
97 0.001043
101 0.001048
108 0.002992
110 0.003032
110 0.002039
112 0.002044
117 0.002061
129 0.002068
136 0.001996
141 0.011031
147 0.002057
152 0.00103
156 0.001001
160 0.001997
164 0.003044
169 0.002992
174 0.001996
177 0.001995
181 0.00202
188 0.002066
161 0.002022
96 0.002025
56 0.002031
48 0.002044
63 0.001035
77 0.002035
84 0.003011
88 0.003045
97 0.002006
101 0.002032
101 0.001964
103 0.00199
108 0.002057
116 0.002992
125 0.002992
132 0.002025
140 0.001989
144 0.002026
148 0.002993
152 0.003035
157 0.002049
161 0.002035
165 0.002033
173 0.002023
178 0.00204
181 0.003024
154 0.002992
77 0.003054
48 0.003034
45 0.003028
61 0.003029
76 0.002992
88 0.002027
95 0.002054
100 0.002026
101 0.002053
100 0.00204
105 0.003989
112 0.004025
124 0.003057
133 0.003032
140 0.003034
145 0.003038
149 0.003041
155 0.001994
158 0.002008
161 0.001957
171 0.001961
176 0.00204
178 0.002992
138 0.003989
65 0.00199
41 0.002036
43 0.003033
59 0.004003
73 0.004001
81 0.003003
88 0.002036
94 0.00206
99 0.002027
99 0.002035
103 0.002995
109 0.002987
122 0.001976
132 0.003006
139 0.002991
146 0.00403
151 0.003989
156 0.003019
160 0.003036
164 0.003024
172 0.003025
178 0.003023
182 0.003037
174 0.002992
93 0.001994
49 0.003009
38 0.003028
50 0.00399
67 0.003989
79 0.003002
85 0.003015
92 0.00303
100 0.003055
101 0.003039
104 0.00399
109 0.003038
119 0.004007
133 0.003016
142 0.003005
149 0.003989
154 0.003989
159 0.002993
163 0.002989
171 0.003065
175 0.003033
181 0.00304
186 0.004988
165 0.004057
103 0.004088
51 0.003032
48 0.002986
62 0.004023
78 0.003989
90 0.003029
99 0.003023
108 0.00403
109 0.001994
109 0.002036
112 0.00304
119 0.004986
129 0.005021
143 0.002975
151 0.002989
158 0.003034
163 0.00399
169 0.003974
174 0.003039
179 0.004004
186 0.003013
191 0.004041
194 0.003981
157 0.004965
91 0.004987
51 0.004032
43 0.004037
56 0.00398
76 0.004069
83 0.003989
91 0.002999
102 0.004987
106 0.004046
106 0.003988
109 0.004039
116 0.00502
127 0.004987
141 0.003949
149 0.00403
156 0.003939
161 0.00404
166 0.003992
172 0.002986
179 0.003974
184 0.003008
188 0.003971
192 0.004015
198 0.004997
190 0.004987
101 0.004032
53 0.00407
39 0.00399
50 0.00499
68 0.003989
84 0.003039
92 0.004986
102 0.00403
105 0.003028
107 0.004032
109 0.005029
115 0.004987
128 0.00404
139 0.004067
148 0.004042
157 0.005018
164 0.006012
171 0.00402
176 0.004988
181 0.004034
185 0.00396
190 0.004011
195 0.005028
200 0.005046
200 0.004077
145 0.004021
80 0.004019
48 0.005034
50 0.005984
72 0.004987
93 0.006041
105 0.005046
113 0.004018
115 0.004004
113 0.005063
111 0.005985
119 0.003989
128 0.003993
140 0.003989
151 0.004986
161 0.005003
170 0.004036
177 0.005034
183 0.005019
186 0.005001
190 0.005036
195 0.005985
200 0.006012
198 0.004995
138 0.004013
76 0.004017
47 0.004987
49 0.004967
77 0.005035
92 0.006012
104 0.005051
112 0.005029
114 0.005005
111 0.006005
110 0.006027
117 0.005041
127 0.005037
140 0.004982
151 0.004957
160 0.004987
169 0.00504
173 0.00602
179 0.005033
182 0.005027
186 0.005019
191 0.006023
195 0.005984
154 0.005031
85 0.005017
45 0.004976
36 0.004987
49 0.005033
73 0.005035
81 0.006
92 0.005
98 0.005048
99 0.004987
99 0.005969
103 0.005952
114 0.00499
124 0.005019
136 0.00505
145 0.005984
153 0.006016
162 0.005011
167 0.006035
172 0.005029
177 0.005005
181 0.004993
186 0.006026
186 0.006028
110 0.005017
57 0.005042
36 0.004988
41 0.005984
58 0.007018
77 0.006043
84 0.005985
93 0.006025
99 0.004998
100 0.004989
102 0.004986
107 0.005995
116 0.005987
131 0.005033
141 0.005036
150 0.006018
157 0.005968
164 0.005007
169 0.006985
173 0.006981
179 0.005031
184 0.004991
188 0.005006
193 0.005984
182 0.006983
95 0.006032
54 0.004987
44 0.004955
55 0.006983
81 0.004998
90 0.006022
98 0.005984
106 0.005034
105 0.004986
102 0.006038
105 0.006981
112 0.007027
126 0.006012
138 0.005035
148 0.006066
155 0.006981
164 0.005017
168 0.005984
172 0.00603
178 0.005044
183 0.005002
188 0.00604
174 0.007014
110 0.007018
54 0.006022
47 0.006016
58 0.005973
74 0.007018
88 0.005015
98 0.007008
104 0.006019
104 0.00599
104 0.006019
107 0.005981
115 0.007013
126 0.006982
141 0.006017
150 0.00602
157 0.006034
161 0.006981
168 0.006031
173 0.007045
176 0.007013
182 0.00498
186 0.006018
190 0.00593
138 0.007978
93 0.00803
45 0.005989
42 0.005986
53 0.005985
71 0.00599
77 0.006013
85 0.006966
92 0.007012
96 0.006029
97 0.00603
101 0.005983
110 0.007979
120 0.007979
134 0.006983
141 0.005983
149 0.005978
158 0.005988
164 0.006026
168 0.007049
172 0.006985
176 0.005984
181 0.00603
186 0.006034
186 0.007028
139 0.007948
62 0.00695
40 0.006983
44 0.006027
67 0.005959
76 0.005969
81 0.007013
89 0.006982
97 0.00597
99 0.006031
100 0.006033
106 0.007978
114 0.007994
127 0.007045
137 0.007023
145 0.007008
156 0.005981
161 0.007027
165 0.007012
170 0.006981
176 0.006984
179 0.006006
183 0.007041
188 0.007979
193 0.007979
199 0.007023
171 0.006629
101 0.007035
47 0.006013
52 0.006028
67 0.006981
80 0.007027
89 0.005997
98 0.006985
103 0.007011
105 0.007979
104 0.008001
108 0.007021
116 0.007013
127 0.007012
145 0.007065
153 0.007014
160 0.007946
166 0.007979
172 0.007028
176 0.007043
180 0.006981
184 0.007934
187 0.007995
195 0.006986
199 0.006956
178 0.006987
76 0.006982
51 0.00698
52 0.007979
67 0.007979
81 0.007933
93 0.007011
102 0.006961
107 0.006994
108 0.007013
108 0.007021
110 0.006966
118 0.006991
137 0.006977
148 0.007029
157 0.007013
163 0.007947
170 0.006997
175 0.007025
180 0.007016
185 0.007022
188 0.006989
191 0.007009
195 0.006987
199 0.00701
208 0.006992
204 0.006973
114 0.007021
75 0.007979
46 0.007979
53 0.007013
69 0.007017
79 0.007028
85 0.00703
93 0.007015
99 0.006983
101 0.007963
103 0.006945
108 0.006955
118 0.006998
133 0.007031
144 0.006953
155 0.006988
161 0.007017
166 0.007016
170 0.006972
175 0.006972
182 0.006964
189 0.006991
194 0.006997
199 0.006996
205 0.006992
213 0.007949
208 0.007008
120 0.007014
71 0.006977
55 0.006989
61 0.007017
76 0.00703
93 0.006982
106 0.006977
115 0.006957
118 0.007031
117 0.007029
117 0.006983
123 0.007016
137 0.007031
149 0.006984
159 0.007015
167 0.007024
173 0.007015
176 0.006936
178 0.006952
182 0.006996
186 0.005972
190 0.006986
194 0.007033
172 0.00703
85 0.007015
53 0.007031
47 0.00703
57 0.007016
70 0.007014
81 0.007014
94 0.006978
102 0.005964
102 0.005962
100 0.006021
103 0.006029
111 0.007018
127 0.007017
139 0.007015
149 0.007016
155 0.007029
159 0.006018
164 0.00702
169 0.006031
175 0.006006
180 0.006031
184 0.006033
156 0.005993
93 0.006031
50 0.006011
48 0.007017
58 0.007015
69 0.007016
75 0.006018
84 0.007028
94 0.005985
99 0.00596
100 0.005981
103 0.006019
111 0.006032
119 0.006018
132 0.006017
140 0.006019
146 0.00697
151 0.006023
156 0.007046
161 0.007014
167 0.00598
172 0.005987
178 0.005976
183 0.006017
165 0.006033
105 0.00603
56 0.005954
48 0.006016
57 0.006053
70 0.006028
76 0.006982
82 0.006975
93 0.005981
101 0.005986
103 0.006009
104 0.006023
109 0.00602
116 0.006037
127 0.006036
134 0.006048
141 0.005997
146 0.005985
151 0.005017
155 0.00601
161 0.005993
166 0.005997
173 0.00599
177 0.00602
181 0.006037
185 0.005897
189 0.005955
175 0.006031
113 0.006014
68 0.006033
52 0.00603
66 0.004948
78 0.004982
84 0.004968
91 0.005988
99 0.006011
104 0.006014
107 0.006032
108 0.004989
113 0.006016
120 0.005022
128 0.005024
136 0.005019
145 0.005007
149 0.005004
154 0.005007
159 0.004976
164 0.005017
167 0.006005
171 0.006029
175 0.006027
181 0.006017
185 0.005968
190 0.006036
192 0.005021
109 0.00499
64 0.004986
50 0.004984
62 0.004998
76 0.005035
85 0.00502
89 0.006026
96 0.005973
106 0.006014
109 0.006031
109 0.005019
111 0.005032
121 0.004976
131 0.004986
139 0.004989
148 0.004988
152 0.005021
156 0.005018
160 0.004989
165 0.005018
171 0.006016
175 0.005031
178 0.00502
181 0.005022
188 0.004954
193 0.005002
191 0.004987
111 0.004954
63 0.005044
47 0.005056
55 0.005037
71 0.00502
87 0.003996
92 0.004035
99 0.005025
105 0.005021
108 0.004992
109 0.004978
112 0.00499
121 0.005004
130 0.005016
139 0.005025
147 0.004033
154 0.003973
160 0.004016
163 0.004026
168 0.003991
171 0.005027
178 0.005056
181 0.004975
185 0.005001
190 0.004977
180 0.005036
117 0.005002
69 0.005019
50 0.004024
60 0.004019
77 0.003987
90 0.004027
99 0.004034
112 0.004942
113 0.004985
111 0.004978
111 0.004975
118 0.00502
127 0.00404
139 0.004036
149 0.003988
160 0.00403
165 0.004034
170 0.004024
173 0.003979
178 0.003952
181 0.004994
185 0.00498
190 0.004988
194 0.004987
196 0.004026
148 0.004038
80 0.004023
42 0.003992
46 0.004037
61 0.00402
83 0.003974
90 0.003969
99 0.003958
104 0.004943
105 0.004985
105 0.00402
108 0.004021
116 0.004014
127 0.004022
143 0.004025
152 0.003991
159 0.004022
167 0.002991
171 0.003992
176 0.003945
179 0.003989
184 0.003958
188 0.003029
193 0.00403
197 0.004022
173 0.00403
96 0.004021
41 0.004022
37 0.003989
63 0.003993
78 0.003001
87 0.003013
95 0.003997
102 0.002988
103 0.002991
102 0.003971
105 0.004032
113 0.004048
124 0.00399
141 0.004011
150 0.004045
163 0.004033
168 0.002977
172 0.003951
176 0.002968
179 0.002994
184 0.002992
189 0.002992
194 0.004017
192 0.00297
132 0.004036
53 0.004069
34 0.004039
52 0.002984
69 0.002992
81 0.002988
89 0.002993
98 0.002961
100 0.003003
99 0.002991
101 0.003025
106 0.003005
116 0.003991
132 0.004032
143 0.004049
155 0.003001
161 0.002936
165 0.00294
169 0.002961
172 0.002928
178 0.003016
182 0.002992
187 0.002992
186 0.002992
131 0.003027
53 0.004018
32 0.003991
49 0.002975
66 0.002938
78 0.002956
86 0.002944
95 0.00296
98 0.002992
97 0.002994
97 0.003026
103 0.003042
114 0.002992
130 0.002992
141 0.003991
153 0.002992
158 0.001994
162 0.002909
166 0.002972
170 0.002993
176 0.002992
180 0.002992
185 0.002992
180 0.003005
118 0.002992
51 0.001995
36 0.002993
57 0.003028
75 0.002025
86 0.001988
95 0.002952
102 0.003014
102 0.002982
99 0.002998
102 0.002991
109 0.003024
121 0.002987
137 0.002993
148 0.002992
158 0.001992
163 0.002001
167 0.002959
172 0.002034
176 0.002957
183 0.002992
184 0.003004
136 0.002984
75 0.003023
45 0.002992
46 0.001995
68 0.001982
84 0.001993
93 0.002007
102 0.001986
105 0.00295
105 0.001991
106 0.001976
113 0.002992
123 0.003018
135 0.003023
145 0.003
156 0.001994
163 0.002999
169 0.001999
172 0.002001
176 0.001992
181 0.001989
186 0.001998
152 0.001995
86 0.002027
47 0.002029
39 0.002028
50 0.001994
69 0.001995
79 0.001986
90 0.002042
97 0.002018
99 0.001982
99 0.00299
104 0.001987
114 0.001992
125 0.001994
135 0.001995
144 0.002036
151 0.002027
157 0.001996
164 0.001978
169 0.001985
174 0.001963
180 0.001969
183 0.000997
149 0.000998
85 0.000997
43 0.002044
44 0.000997
58 0.002037
71 0.002029
77 0.001995
90 0.001986
96 0.001993
99 0.001961
100 0.001984
104 0.001983
113 0.002001
123 0.000998
134 0.000999
142 0.000998
145 0.011979
152 0.00204
157 0.001994
165 0.00197
170 0.001993
179 0.001989
178 0.002021
131 0.00196
76 0.000955
48 0.000997
52 0.000998
66 0.000998
77 0.001995
83 0.001855
91 0.002029
103 0.001948
104 0.002001
106 0.001962
112 0.002024
121 0.001
132 0.000988
141 0.000999
150 0.000997
155 0.001039
160 0.001044
165 0.000995
170 0.000998
178 0.001972
182 0.001969
186 0.002004
190 0.001994
195 0.000968
200 0.000998
198 0.000993
115 0.001027
60 0.000998
38 0.000997
44 0.000997
59 0.000983
72 0.000982
77 0.002019
89 0.001973
96 0.002007
99 0.001
101 0.001008
104 0.000997
116 0.000998
126 0.000997
136 0.001
144 0.000998
154 0.000998
159 0.001
164 0.001003
171 0.000997
177 0.000996
182 0.000998
186 0.001006
189 0.000998
195 0.000997
201 0.000997
204 0.000998
166 0.000997
62 0.000997
42 0.000999
48 0.000989
69 0.001017
79 0.0
84 0.0
93 0.0
100 0.001009
105 0.000998
107 0.000997
111 0.000998
119 0.000997
137 0.000999
147 0.000996
156 0.00097
166 0.0
171 0.0
176 0.001019
180 0.0
184 0.0
190 0.0
194 0.0
198 0.0
204 0.0
211 0.00103
186 0.000989
110 0.000983
57 0.000997
52 0.000998
65 0.000995
83 0.0
94 0.0
106 0.0
115 0.0
116 0.0
114 0.0
118 0.0
127 0.0
140 0.0
156 0.000991
166 0.0
173 0.0
177 0.0
181 0.0
187 0.0
191 0.0
194 0.000998
199 0.0
207 0.0
202 0.00095
138 0.001
61 0.001018
44 0.0
50 0.0
67 0.0
84 0.0
90 0.0
99 0.0
105 0.001029
107 0.0
110 0.0
116 0.000995
127 0.000973
144 0.000979
155 0.001998
163 0.001001
171 0.000998
176 0.0
180 0.0
184 0.0
188 0.001033
193 0.000997
201 0.000997
208 0.0
193 0.0
115 0.000963
58 0.000998
38 0.001995
49 0.0
66 0.0
78 0.0
85 0.001042
94 0.001029
102 0.000966
105 0.000977
108 0.0
112 0.000974
121 0.00099
138 0.001987
147 0.014959
163 0.0
169 0.0
174 0.0
178 0.001048
183 0.001038
188 0.0
195 0.000997
202 0.0
205 0.000945
209 0.000971
166 0.001019
86 0.001006
43 0.0
44 0.0
59 0.000228
77 0.000966
89 0.001012
105 0.001996
109 0.002059
108 0.001025
108 0.0
112 0.0
123 0.001964
137 0.000964
153 0.0
163 0.0
170 0.000948
175 0.001067
178 0.000999
184 0.000991
189 0.001004
194 0.00099
200 0.0
169 0.0
91 0.002003
48 0.000999
38 0.0
52 0.0
67 0.0
78 0.001025
85 0.001082
99 0.00099
102 0.001003
102 0.000985
106 0.0
114 0.0
126 0.001999
139 0.001999
153 0.0
161 0.0
166 0.0
171 0.001031
175 0.001031
183 0.001948
188 0.000979
195 0.000964
198 0.001007
200 0.0
147 0.001991
69 0.001994
31 0.0
34 0.0
49 0.0
65 0.001041
73 0.001037
87 0.001984
94 0.001986
98 0.0
100 0.0
104 0.0
115 0.002008
128 0.001984
144 0.0
153 0.001004
161 0.001028
167 0.002053
173 0.001979
181 0.000996
186 0.00099
192 0.001023
195 0.000967
199 0.000998
204 0.002003
196 0.002008
97 0.001997
49 0.000997
36 0.000998
46 0.001996
63 0.001995
85 0.002977
93 0.001992
103 0.000966
105 0.000973
104 0.001032
107 0.002008
114 0.001993
129 0.001017
142 0.002028
152 0.000926
160 0.001998
166 0.002028
175 0.001
180 0.003036
185 0.003011
191 0.000992
196 0.001018
201 0.001002
187 0.002003
115 0.001979
50 0.000966
40 0.002067
50 0.001995
67 0.002993
89 0.000998
99 0.003003
107 0.002991
107 0.001021
106 0.0
110 0.000969
118 0.001999
130 0.002014
147 0.002034
157 0.002014
164 0.002039
172 0.000942
177 0.002022
182 0.003014
187 0.002956
192 0.001993
197 0.000999
201 0.001001
205 0.001989
179 0.001956
74 0.001015
38 0.000967
34 0.002015
57 0.001999
71 0.001061
77 0.002962
86 0.002996
95 0.001016
98 0.000981
99 0.001008
103 0.001997
113 0.002993
129 0.00099
141 0.00102
151 0.001965
163 0.002935
169 0.002009
174 0.002997
179 0.002985
185 0.001976
190 0.001017
194 0.001016
199 0.002993
205 0.002999
204 0.000997
105 0.001979
52 0.001961
38 0.001965
51 0.001963
67 0.002992
78 0.002992
90 0.001957
98 0.001977
103 0.002021
104 0.002991
107 0.002991
117 0.002027
130 0.000971
142 0.001009
159 0.000995
166 0.000999
172 0.002988
177 0.003
184 0.001996
188 0.002009
193 0.00203
197 0.003001
201 0.003003
207 0.002029
203 0.002027
147 0.002027
50 0.000961
41 0.002004
51 0.003012
69 0.004023
88 0.002017
99 0.002014
110 0.002011
111 0.003002
107 0.002983
108 0.002953
114 0.002047
125 0.002027
146 0.002002
157 0.001977
165 0.003983
171 0.003981
176 0.002016
180 0.001004
185 0.001995
190 0.002986
195 0.002994
191 0.001995
130 0.002992
66 0.003006
41 0.002989
52 0.000988
68 0.003978
81 0.003035
95 0.001947
104 0.001986
107 0.00191
105 0.004019
106 0.004016
114 0.001996
126 0.001953
138 0.001996
155 0.002012
162 0.00201
168 0.003939
173 0.003973
179 0.003011
183 0.002965
187 0.001991
191 0.00401
196 0.003989
154 0.002021
77 0.002013
41 0.001965
39 0.002029
52 0.001992
64 0.003997
71 0.003989
83 0.002989
89 0.002006
93 0.002
94 0.004021
99 0.003976
112 0.002014
125 0.002024
144 0.00201
151 0.002015
158 0.002991
164 0.004007
169 0.003993
175 0.002996
180 0.003004
185 0.002993
191 0.002996
170 0.004008
98 0.004003
46 0.002027
42 0.004988
59 0.002989
70 0.002981
78 0.003033
87 0.004007
94 0.003993
97 0.003047
99 0.002996
103 0.003049
111 0.003984
123 0.003992
140 0.00305
152 0.004006
160 0.001999
166 0.002994
170 0.003001
175 0.004978
181 0.003983
189 0.003003
191 0.003
154 0.002998
86 0.003991
53 0.004037
49 0.002996
69 0.004987
85 0.002996
95 0.002981
104 0.003009
107 0.00502
107 0.004021
108 0.00315
114 0.002984
124 0.003024
137 0.00497
149 0.003989
160 0.004032
167 0.004987
172 0.00302
177 0.002956
181 0.002963
186 0.005022
191 0.004983
198 0.002954
197 0.00302
150 0.003009
79 0.004036
46 0.003989
41 0.003991
56 0.005035
68 0.003987
75 0.004
84 0.002992
92 0.004988
95 0.004978
97 0.003033
103 0.003023
113 0.002971
125 0.004001
137 0.004987
149 0.002991
157 0.004023
164 0.004058
169 0.003013
175 0.002012
180 0.005021
185 0.005021
191 0.003002
196 0.002966
200 0.003001
172 0.00402
93 0.005035
42 0.004006
38 0.005038
55 0.002022
66 0.004001
72 0.003996
80 0.004989
88 0.00496
94 0.003941
98 0.0
103 0.0
112 0.005018
124 0.004962
141 0.004042
154 0.005034
163 0.003988
169 0.003997
175 0.003996
180 0.005017
185 0.004989
191 0.002983
195 0.003048
199 0.003007
204 0.005031
209 0.004986
148 0.006014
75 0.005993
42 0.004009
46 0.003991
60 0.004
75 0.006017
84 0.005003
98 0.003015
105 0.002994
107 0.003003
107 0.004979
110 0.004964
125 0.00495
137 0.005983
153 0.003989
163 0.003987
169 0.004001
174 0.005989
178 0.006024
184 0.004033
190 0.002967
196 0.003033
202 0.005034
197 0.006011
89 0.006009
54 0.006029
50 0.004021
64 0.003992
82 0.004031
96 0.006018
109 0.006017
120 0.003998
120 0.004002
117 0.004009
119 0.004968
127 0.006031
146 0.006016
158 0.005976
171 0.004945
178 0.003982
183 0.004019
187 0.00599
191 0.005962
197 0.004982
201 0.004962
206 0.004013
199 0.004984
132 0.006982
43 0.003996
36 0.006021
46 0.00603
65 0.004046
75 0.004048
84 0.004985
94 0.006039
100 0.005983
103 0.003985
105 0.005034
112 0.005007
122 0.006981
142 0.004005
154 0.006017
162 0.006017
170 0.002974
175 0.005007
179 0.004997
184 0.006032
189 0.005999
196 0.004028
190 0.005032
125 0.003979
60 0.006003
33 0.005032
43 0.005974
58 0.007013
74 0.004991
83 0.004979
93 0.004997
99 0.007028
102 0.00702
105 0.003986
111 0.004018
122 0.004
136 0.006024
155 0.004026
162 0.007015
168 0.007024
176 0.005001
181 0.004981
185 0.004981
191 0.007024
196 0.007009
200 0.004999
174 0.004987
95 0.00402
51 0.007014
42 0.00399
55 0.006982
72 0.006984
90 0.00504
102 0.006034
109 0.004978
108 0.006993
106 0.007981
110 0.004977
119 0.005018
132 0.005015
144 0.007979
159 0.004025
165 0.007034
171 0.006039
178 0.004975
184 0.004994
189 0.004961
180 0.007024
114 0.007007
54 0.005
43 0.004991
51 0.005006
79 0.004939
92 0.004999
109 0.00798
113 0.007027
112 0.004956
110 0.004967
114 0.005027
123 0.007016
135 0.007023
150 0.005013
158 0.004003
164 0.005003
172 0.005009
178 0.005996
185 0.007996
190 0.007992
174 0.005016
102 0.005998
53 0.004973
35 0.007066
38 0.007013
56 0.004988
67 0.00497
77 0.004988
92 0.004992
97 0.006002
98 0.007988
101 0.007979
110 0.005955
123 0.005008
136 0.00499
146 0.007033
155 0.006971
164 0.00495
169 0.006991
176 0.005999
163 0.004046
96 0.005983
43 0.007989
35 0.00795
46 0.006014
61 0.006008
72 0.005983
86 0.007957
96 0.007977
100 0.005027
102 0.005968
104 0.005022
117 0.005982
128 0.005024
143 0.007968
153 0.007979
161 0.006011
168 0.005972
175 0.00603
174 0.007979
118 0.00796
64 0.005984
42 0.005991
42 0.00694
65 0.006987
76 0.006965
86 0.007017
100 0.007979
105 0.006984
106 0.006986
108 0.00698
117 0.00797
129 0.007971
142 0.007979
155 0.00604
163 0.005991
175 0.005984
180 0.005982
187 0.006988
165 0.007977
97 0.006979
57 0.00699
45 0.007006
53 0.005986
73 0.007945
85 0.007961
97 0.006022
108 0.006941
109 0.005994
111 0.006971
114 0.006982
127 0.006976
139 0.006946
154 0.006941
159 0.006983
167 0.006998
172 0.007959
180 0.007973
185 0.006015
189 0.006994
119 0.006006
70 0.006075
51 0.006008
59 0.007988
75 0.006998
92 0.006986
101 0.006983
114 0.006966
116 0.006984
114 0.006972
115 0.006976
125 0.007978
141 0.006988
153 0.005975
166 0.006988
172 0.006983
177 0.007035
181 0.006949
186 0.006928
191 0.006976
198 0.007005
177 0.006977
106 0.006981
46 0.006972
47 0.007017
60 0.006983
73 0.006993
85 0.007982
95 0.006983
104 0.006985
108 0.006956
109 0.00697
114 0.00699
122 0.006988
138 0.006974
153 0.007008
164 0.006974
171 0.006973
177 0.006984
182 0.006957
186 0.00695
193 0.006978
198 0.006971
203 0.006952
205 0.006979
155 0.006971
83 0.006972
41 0.00703
50 0.005952
70 0.006943
81 0.00595
90 0.006991
100 0.006982
109 0.006977
111 0.007
114 0.006981
121 0.006975
131 0.006981
148 0.006989
163 0.007026
173 0.006037
179 0.005978
184 0.005944
190 0.006949
195 0.006969
201 0.006967
205 0.006981
210 0.006978
215 0.006014
219 0.006964
169 0.006976
74 0.007033
48 0.005969
56 0.005988
73 0.005992
90 0.005987
101 0.005973
115 0.006973
119 0.006984
119 0.006996
116 0.007006
121 0.006981
139 0.006011
160 0.006014
174 0.006032
174 0.005971
162 0.005995
155 0.005989
163 0.005983
185 0.005986
200 0.005982
209 0.005977
211 0.006971
209 0.006982
209 0.005984
212 0.006018
218 0.006004
224 0.005987
228 0.005994
232 0.005976
234 0.006946
237 0.005936
238 0.005984
239 0.006943
240 0.006946
241 0.00698
242 0.007019
243 0.006021
181 0.005981
67 0.005996
19 0.005987
10 0.005983
24 0.005994
54 0.00595
71 0.005978
84 0.005995
93 0.005949
94 0.005985
94 0.004995
100 0.005986
109 0.005997
126 0.005966
138 0.005977
150 0.005983
159 0.005965
166 0.005948
174 0.005984
179 0.005987
184 0.005028
190 0.005969
198 0.005976
167 0.006022
78 0.005981
26 0.005966
22 0.005965
35 0.005983
54 0.005983
70 0.00598
90 0.004982
101 0.005042
105 0.004952
103 0.004988
108 0.005019
117 0.004974
129 0.005986
145 0.005963
155 0.005983
164 0.005972
171 0.005965
177 0.005979
183 0.004997
188 0.004974
192 0.004979
189 0.004985
73 0.004968
35 0.005019
29 0.005007
47 0.005985
68 0.00599
85 0.006028
102 0.005965
111 0.005968
109 0.004962
106 0.00494
108 0.004985
116 0.004986
135 0.005035
147 0.005033
157 0.004984
166 0.005
172 0.005955
178 0.005994
182 0.005988
187 0.005978
178 0.004956
105 0.005003
48 0.004969
28 0.004967
39 0.005034
55 0.005046
69 0.004958
85 0.004998
93 0.004989
95 0.005955
93 0.005983
94 0.00497
105 0.00399
118 0.004957
131 0.004987
141 0.004978
153 0.00497
159 0.005017
164 0.00499
171 0.005015
177 0.004963
183 0.004973
170 0.004992
99 0.004981
35 0.004062
24 0.003985
33 0.004976
47 0.004995
64 0.005019
75 0.004991
84 0.005037
90 0.004969
91 0.004988
95 0.004976
103 0.004984
115 0.004992
132 0.003975
143 0.003988
152 0.003957
158 0.00394
167 0.004974
171 0.005029
177 0.00499
184 0.005037
190 0.004954
188 0.004976
128 0.004986
64 0.00397
33 0.003935
37 0.004009
51 0.003947
64 0.004013
81 0.004043
91 0.004034
96 0.00403
99 0.004979
101 0.004989
108 0.004989
119 0.004002
131 0.00499
147 0.004022
156 0.003957
163 0.003959
172 0.004031
177 0.00399
182 0.003989
187 0.003948
192 0.003959
197 0.00395
202 0.004035
207 0.003988
207 0.00498
127 0.003975
64 0.003989
42 0.003938
53 0.004022
70 0.004023
83 0.003989
95 0.003991
104 0.003989
107 0.004035
106 0.003943
107 0.003956
113 0.002954
125 0.002941
143 0.003949
153 0.003991
167 0.004031
172 0.004041
177 0.00399
183 0.003954
187 0.003943
194 0.004009
198 0.00396
202 0.003975
206 0.002959
179 0.002959
79 0.002978
46 0.003959
46 0.003948
62 0.003978
76 0.004025
86 0.003957
97 0.003957
105 0.003942
106 0.003966
107 0.003986
112 0.002942
121 0.003015
137 0.002963
149 0.003004
165 0.002993
172 0.00399
178 0.003991
183 0.003953
187 0.004001
192 0.003987
198 0.004001
202 0.00397
206 0.002895
208 0.003013
142 0.002982
69 0.002973
35 0.002992
43 0.003027
58 0.002994
70 0.002969
78 0.00299
91 0.003994
98 0.003989
100 0.003992
101 0.003002
105 0.002968
118 0.002977
131 0.00295
151 0.003045
160 0.003109
167 0.002996
172 0.002975
177 0.002964
184 0.00399
189 0.00299
193 0.002949
197 0.002947
202 0.002973
187 0.003942
111 0.002992
42 0.002992
40 0.003024
51 0.003006
66 0.002993
77 0.002988
91 0.002981
99 0.002979
101 0.001959
100 0.002956
101 0.002979
111 0.00199
123 0.002987
144 0.003027
153 0.001991
160 0.002006
164 0.00296
169 0.003016
175 0.002967
180 0.002948
185 0.002977
192 0.003012
197 0.002984
163 0.002029
73 0.002004
43 0.002041
48 0.002027
62 0.002027
77 0.001994
88 0.001994
104 0.002948
109 0.002027
109 0.001994
108 0.001996
111 0.00197
123 0.00297
140 0.002992
154 0.002992
161 0.002992
167 0.00297
172 0.001995
176 0.003
183 0.001987
187 0.001995
191 0.001999
195 0.001977
199 0.002
203 0.001965
131 0.002029
52 0.001996
34 0.003025
38 0.001995
52 0.002996
65 0.002974
76 0.001949
86 0.001996
92 0.001992
96 0.001989
97 0.00199
104 0.002
116 0.002
133 0.001991
143 0.002994
153 0.001984
160 0.001997
166 0.002004
173 0.001994
178 0.001996
182 0.001999
187 0.001997
191 0.002023
196 0.002015
203 0.001995
208 0.001992
175 0.001988
91 0.000998
46 0.00098
33 0.002001
40 0.001994
60 0.001987
71 0.001982
80 0.001962
91 0.001993
97 0.002009
100 0.001995
104 0.001996
115 0.001996
129 0.002031
141 0.001988
152 0.001033
161 0.002005
172 0.002002
178 0.002043
184 0.001993
189 0.001985
194 0.002022
200 0.001996
204 0.002004
210 0.001996
213 0.002028
215 0.001001
181 0.000989
98 0.000995
49 0.000999
46 0.000997
60 0.001006
78 0.001041
94 0.002171
118 0.002034
125 0.001028
124 0.001031
121 0.000998
123 0.00095
132 0.000957
145 0.001073
160 0.00101
169 0.001004
175 0.001011
179 0.001969
182 0.002006
188 0.001054
194 0.002022
200 0.000998
202 0.000997
172 0.001003
94 0.000966
51 0.000998
40 0.001
51 0.001011
67 0.000977
80 0.000985
94 0.000991
110 0.002055
111 0.002001
108 0.000966
112 0.000995
122 0.001002
134 0.001005
147 0.001002
161 0.000994
168 0.002011
174 0.000999
178 0.001987
187 0.002037
193 0.000997
185 0.000997
93 0.000998
48 0.000999
35 0.000977
40 0.001021
53 0.001031
67 0.001012
75 0.000996
86 0.001013
93 0.000998
97 0.000998
100 0.000998
107 0.002027
120 0.000998
132 0.0
141 0.00098
149 0.0
157 0.0
163 0.00101
167 0.001015
172 0.001002
177 0.000999
174 0.000998
109 0.000998
54 0.001028
29 0.0
33 0.0
44 0.0
52 0.000989
57 0.0
70 0.00099
78 0.0
83 0.001002
86 0.000998
95 0.000983
104 0.001003
114 0.000997
128 0.0
136 0.0
143 0.0
148 0.0
152 0.0
158 0.0
163 0.0
170 0.0
174 0.000992
104 0.000998
57 0.0
36 0.000998
42 0.0
52 0.0
60 0.0
65 0.0
74 0.0
85 0.0
90 0.0
93 0.0
96 0.0
108 0.001014
117 0.0
127 0.0
138 0.0
145 0.0
151 0.0
155 0.0
160 0.0
164 0.0
171 0.0
176 0.0
181 0.0
187 0.0
143 0.0
84 0.0
51 0.0
48 0.0
61 0.0
72 0.0
78 0.0
85 0.0
97 0.0
102 0.0
103 0.0
108 0.0
114 0.0
126 0.0
135 0.0
143 0.002028
149 0.001001
153 0.001001
158 0.00101
164 0.000994
169 0.0
174 0.0
179 0.0
185 0.002007
192 0.0
194 0.000998
148 0.000963
89 0.002029
57 0.00296
57 0.0
73 0.0
88 0.0
98 0.001998
107 0.001995
117 0.001034
117 0.001029
118 0.0
122 0.0
126 0.000997
138 0.002015
146 0.002004
156 0.0
161 0.0
166 0.0
170 0.001996
175 0.001997
181 0.001995
185 0.00196
190 0.001
194 0.000995
198 0.0
202 0.001032
176 0.001972
105 0.000994
59 0.000982
46 0.0
58 0.001991
74 0.002004
89 0.001994
98 0.001995
107 0.0
110 0.0
111 0.0
112 0.000997
117 0.001995
125 0.000998
138 0.000966
147 0.000997
156 0.000994
162 0.002031
170 0.001994
174 0.001993
180 0.0
184 0.0
189 0.0
193 0.00203
197 0.002026
202 0.0
206 0.0
207 0.0
155 0.000974
81 0.001004
36 0.001028
43 0.002025
67 0.0
80 0.0
88 0.0
97 0.00203
102 0.002036
105 0.0
106 0.0
109 0.0
115 0.00199
125 0.00199
142 0.002039
152 0.001998
162 0.000981
167 0.000964
172 0.0
175 0.002028
179 0.001992
186 0.0
189 0.000954
193 0.001012
197 0.002001
201 0.001996
199 0.002029
129 0.002021
52 0.0
34 0.0
40 0.0
57 0.00103
74 0.002
87 0.0
96 0.0
102 0.0
104 0.001989
103 0.00197
109 0.002039
118 0.002008
134 0.0
146 0.0
155 0.0
163 0.000975
168 0.002002
175 0.0
179 0.0
183 0.0
187 0.001996
190 0.001992
198 0.000997
202 0.002028
206 0.002029
157 0.0
79 0.001993
42 0.000953
35 0.001993
47 0.002961
71 0.000966
84 0.0
93 0.0
102 0.001986
104 0.001973
102 0.002001
104 0.002025
114 0.001996
126 0.001998
138 0.001009
150 0.002958
159 0.002958
167 0.0
171 0.001023
175 0.000986
182 0.000988
186 0.001021
191 0.002025
196 0.002988
180 0.00199
102 0.002007
51 0.001996
30 0.002993
35 0.00296
59 0.002002
73 0.002004
82 0.001046
96 0.001034
99 0.001028
99 0.002026
99 0.002993
107 0.002007
118 0.001989
131 0.001992
143 0.00299
152 0.003003
161 0.001995
166 0.001995
171 0.001996
178 0.001017
182 0.001033
186 0.003009
191 0.002077
197 0.000965
191 0.001992
118 0.000954
54 0.003012
26 0.003028
32 0.001991
48 0.0
62 0.0
75 0.0
85 0.001995
90 0.003004
92 0.003034
94 0.000978
99 0.002012
108 0.001999
119 0.00296
132 0.002954
146 0.001997
154 0.002021
158 0.000995
166 0.000997
169 0.001975
175 0.003012
180 0.002992
187 0.001992
173 0.001998
102 0.002004
50 0.002967
29 0.003041
39 0.002001
54 0.001995
66 0.000943
80 0.002014
89 0.000993
94 0.003025
96 0.002992
98 0.001992
104 0.001994
114 0.001988
127 0.003029
138 0.002993
150 0.001996
156 0.001998
162 0.002018
170 0.001996
174 0.002007
179 0.003047
185 0.002992
191 0.001994
189 0.001036
128 0.001992
67 0.002989
37 0.00401
41 0.001996
57 0.002008
71 0.001996
84 0.002022
94 0.001992
99 0.004038
100 0.003993
100 0.001042
106 0.001026
115 0.00199
126 0.002987
137 0.002988
149 0.001999
155 0.001996
161 0.001041
169 0.001996
175 0.002015
181 0.003989
186 0.003985
186 0.001996
129 0.002001
72 0.001995
43 0.003975
43 0.004019
63 0.001995
76 0.001996
89 0.001994
98 0.001996
103 0.001996
103 0.004025
104 0.00399
110 0.00399
123 0.002008
134 0.002012
145 0.001997
153 0.003987
159 0.00402
166 0.002004
173 0.004987
179 0.002952
184 0.003001
188 0.002959
192 0.003989
197 0.003992
204 0.002021
202 0.001993
139 0.002003
72 0.004019
38 0.004019
39 0.002983
59 0.005055
69 0.002962
74 0.002963
84 0.003008
93 0.004023
97 0.003989
100 0.001995
105 0.001969
114 0.002015
125 0.004004
136 0.004021
149 0.001988
159 0.004987
167 0.002955
172 0.003008
177 0.003009
183 0.005031
187 0.004987
193 0.002036
197 0.004031
201 0.002007
206 0.004038
211 0.004022
216 0.002996
146 0.004987
58 0.002026
35 0.003021
39 0.002993
53 0.004996
67 0.004999
75 0.003035
84 0.002993
93 0.002002
98 0.003979
101 0.004003
106 0.001997
117 0.004995
133 0.003065
145 0.003036
156 0.003044
164 0.004967
170 0.004952
178 0.003003
182 0.003002
187 0.002994
192 0.005012
197 0.005006
202 0.003033
209 0.004041
215 0.003011
221 0.002999
215 0.003026
145 0.004987
74 0.004999
41 0.004
46 0.003037
63 0.003008
78 0.003949
87 0.005985
99 0.003992
107 0.006044
108 0.004
108 0.003024
113 0.003004
123 0.004987
136 0.004987
153 0.003019
163 0.002966
170 0.004016
175 0.005966
179 0.005022
185 0.003998
192 0.005984
200 0.003993
206 0.003032
210 0.003043
182 0.004987
103 0.004987
51 0.002982
46 0.002982
59 0.003983
76 0.004982
89 0.004985
104 0.003038
115 0.006053
116 0.00399
114 0.00399
117 0.00398
126 0.006017
139 0.006016
157 0.004014
168 0.003043
175 0.002998
181 0.00499
185 0.00502
192 0.005984
197 0.006037
203 0.003983
208 0.004003
212 0.004002
187 0.006018
101 0.00603
42 0.003987
33 0.00399
44 0.004025
60 0.00502
73 0.005019
87 0.005985
97 0.006018
103 0.004005
104 0.00396
107 0.004003
114 0.006023
127 0.006015
141 0.007016
157 0.003998
166 0.003039
173 0.004028
180 0.005985
189 0.004006
193 0.006018
198 0.005984
204 0.004016
210 0.004009
214 0.003987
189 0.006048
99 0.005984
39 0.002989
33 0.003983
44 0.003981
61 0.007004
79 0.003997
88 0.005981
96 0.005888
101 0.003957
102 0.003958
105 0.003981
112 0.006025
125 0.006034
143 0.003962
155 0.00403
165 0.00499
172 0.007011
180 0.00497
183 0.006003
188 0.006002
196 0.003979
202 0.004035
202 0.003989
145 0.006017
73 0.006032
39 0.004009
43 0.004998
59 0.005027
76 0.006982
97 0.004996
109 0.007023
113 0.005984
109 0.005031
109 0.003967
115 0.004022
126 0.006034
140 0.005955
158 0.003993
167 0.005006
174 0.004986
179 0.007026
186 0.00511
191 0.007001
197 0.007029
198 0.004992
144 0.004985
70 0.00399
38 0.006017
32 0.006983
51 0.005021
66 0.004061
75 0.004015
84 0.007023
97 0.004996
100 0.007032
100 0.007065
106 0.004975
117 0.004995
130 0.004996
143 0.007979
154 0.007027
165 0.003989
170 0.00498
175 0.003992
181 0.007027
191 0.005006
197 0.00701
201 0.007023
150 0.004973
72 0.004014
36 0.004029
30 0.007013
42 0.007016
62 0.003967
70 0.004955
79 0.004987
95 0.004998
100 0.004998
102 0.006983
105 0.007014
117 0.004984
131 0.004984
143 0.004995
155 0.006988
164 0.008011
172 0.005987
177 0.004984
182 0.004999
190 0.004986
195 0.005995
202 0.006982
206 0.006981
148 0.004985
74 0.00498
43 0.00502
41 0.006981
53 0.006975
74 0.004985
85 0.004954
95 0.004963
107 0.005995
106 0.006004
107 0.007974
111 0.007022
124 0.006014
138 0.004992
150 0.004995
161 0.007019
169 0.007017
178 0.005992
183 0.004992
189 0.00499
198 0.005998
200 0.005016
152 0.007979
81 0.007978
44 0.004988
47 0.004986
62 0.005944
79 0.007015
96 0.007976
108 0.006026
115 0.005019
114 0.004996
114 0.006012
121 0.005984
137 0.007977
150 0.007957
161 0.004952
171 0.00503
178 0.00498
183 0.004991
190 0.008002
194 0.00798
198 0.005992
204 0.005985
175 0.005986
90 0.005992
45 0.004994
34 0.007972
41 0.007979
62 0.004961
73 0.005032
82 0.006008
92 0.007979
101 0.007997
104 0.005983
107 0.005077
121 0.004978
133 0.006005
146 0.005989
162 0.007991
171 0.007982
178 0.005999
184 0.006
190 0.005997
196 0.00703
202 0.007018
208 0.006009
210 0.005955
106 0.006986
54 0.006035
38 0.005985
50 0.007979
66 0.007987
79 0.005988
89 0.006012
100 0.005986
107 0.007979
110 0.007027
112 0.00698
117 0.006979
141 0.006975
153 0.006983
161 0.006981
173 0.006972
179 0.007979
185 0.005999
190 0.005982
196 0.005986
203 0.007981
207 0.007948
173 0.006981
76 0.006979
46 0.006959
51 0.006952
75 0.006965
92 0.007012
107 0.007021
121 0.005981
125 0.006016
124 0.005986
123 0.007008
129 0.007017
144 0.006976
161 0.006985
176 0.006979
184 0.006962
189 0.006963
194 0.006961
198 0.007029
203 0.005996
208 0.005984
210 0.006017
133 0.007011
65 0.007014
40 0.006975
48 0.007014
66 0.006088
84 0.006977
96 0.006986
107 0.007013
111 0.00703
112 0.006988
113 0.005985
120 0.005979
136 0.006021
147 0.007004
160 0.006
176 0.005968
183 0.006957
190 0.006937
194 0.006988
200 0.006976
204 0.007022
211 0.006949
202 0.006973
129 0.006978
48 0.006986
34 0.007029
46 0.005971
70 0.00602
86 0.00596
99 0.006059
105 0.006939
110 0.007026
112 0.007029
117 0.006983
130 0.00594
141 0.00594
154 0.006032
166 0.007014
179 0.006968
189 0.006984
195 0.006015
199 0.005962
203 0.006055
208 0.006009
212 0.006017
193 0.006015
109 0.005988
54 0.005983
39 0.006017
45 0.006033
67 0.005994
89 0.005983
103 0.006981
113 0.006984
115 0.005983
114 0.005964
116 0.00603
128 0.005971
140 0.005989
153 0.005987
164 0.005968
172 0.006016
180 0.005993
187 0.007027
194 0.006956
199 0.006971
188 0.005973
118 0.006018
62 0.006015
43 0.005988
53 0.005983
72 0.005977
91 0.006015
108 0.005967
124 0.006002
122 0.00602
119 0.007034
122 0.005981
131 0.005965
143 0.005986
156 0.006014
166 0.006034
176 0.005967
182 0.005949
187 0.005988
192 0.006016
197 0.004978
156 0.006017
78 0.005025
35 0.004978
36 0.005943
49 0.004949
65 0.005017
78 0.006024
94 0.00497
101 0.005953
103 0.005974
104 0.006016
112 0.005981
122 0.006016
136 0.006016
152 0.005954
161 0.005968
168 0.005984
174 0.005024
179 0.005017
186 0.005017
192 0.004993
188 0.005987
125 0.006017
40 0.005967
33 0.005017
43 0.006017
63 0.005985
75 0.005018
87 0.004984
98 0.005019
103 0.005019
105 0.00499
108 0.00498
117 0.004992
130 0.005033
150 0.005969
160 0.006019
168 0.006017
177 0.005976
182 0.005038
186 0.00495
190 0.005021
195 0.004984
196 0.004984
144 0.004978
73 0.004985
43 0.004986
47 0.005982
63 0.004987
78 0.005021
95 0.005017
106 0.005018
109 0.004975
107 0.005018
107 0.005033
116 0.005032
127 0.004976
140 0.004987
152 0.005035
167 0.00497
171 0.004988
177 0.004044
184 0.00598
189 0.005034
195 0.005012
173 0.005019
101 0.005036
53 0.004979
49 0.005008
60 0.005019
78 0.00502
104 0.005033
118 0.005021
123 0.00392
118 0.003906
117 0.004031
123 0.005013
134 0.004982
147 0.004988
163 0.004984
172 0.004987
179 0.004987
184 0.004986
192 0.004985
196 0.00399
202 0.003994
175 0.00399
96 0.003999
52 0.003993
39 0.005028
45 0.005049
65 0.005018
78 0.004985
89 0.005036
99 0.005034
106 0.005025
107 0.005018
112 0.003986
124 0.003978
137 0.003992
148 0.003989
158 0.00402
167 0.004992
177 0.005033
182 0.00502
186 0.005024
191 0.004994
201 0.005035
205 0.005007
171 0.005033
71 0.003986
40 0.004032
36 0.003963
48 0.003991
65 0.004027
80 0.004024
92 0.003967
100 0.003941
104 0.004026
108 0.005038
113 0.005023
123 0.005035
140 0.005028
152 0.003997
162 0.003991
171 0.004028
179 0.004041
186 0.003991
190 0.005027
195 0.003992
204 0.00504
209 0.004034
210 0.005028
169 0.005016
87 0.004025
43 0.00402
42 0.004026
56 0.004022
73 0.003991
86 0.004026
103 0.00399
111 0.00399
112 0.003989
113 0.003991
120 0.005036
130 0.002993
143 0.003991
159 0.004028
169 0.00404
177 0.00399
183 0.003995
187 0.00404
194 0.003987
198 0.003991
203 0.003028
167 0.004022
92 0.004039
56 0.00399
48 0.003024
65 0.003022
86 0.003027
103 0.004048
119 0.004037
128 0.003961
127 0.004031
123 0.004021
130 0.004022
141 0.00399
154 0.00294
165 0.002974
174 0.003036
184 0.003055
189 0.00296
193 0.002993
198 0.002998
203 0.002992
207 0.004033
175 0.003985
58 0.00399
38 0.003961
40 0.004023
54 0.003991
70 0.003958
87 0.002944
100 0.002993
107 0.003034
109 0.002992
109 0.003023
116 0.002994
126 0.002992
146 0.002992
157 0.003996
166 0.004052
174 0.003957
180 0.003034
186 0.003023
191 0.002992
197 0.002968
201 0.002988
171 0.002992
69 0.003017
39 0.002995
42 0.003989
58 0.003986
73 0.00399
87 0.002993
101 0.002993
108 0.003016
109 0.002984
110 0.002992
115 0.002992
125 0.003027
143 0.003004
154 0.003027
169 0.002992
176 0.004024
181 0.001995
186 0.003027
192 0.00304
198 0.003026
196 0.002992
137 0.003027
69 0.003027
43 0.004021
45 0.003018
60 0.003024
88 0.003026
103 0.002026
113 0.002038
114 0.002019
109 0.002996
109 0.003006
117 0.003007
129 0.001995
141 0.002992
151 0.003025
162 0.002992
169 0.001999
177 0.001988
183 0.002
189 0.001995
171 0.002025
98 0.002029
47 0.002015
41 0.001995
51 0.001995
69 0.001995
87 0.001956
108 0.002991
118 0.002998
113 0.002992
111 0.002992
115 0.003063
126 0.002992
138 0.002026
154 0.001995
163 0.001995
171 0.001984
176 0.002088
182 0.001995
189 0.001999
195 0.002007
145 0.002993
71 0.002992
37 0.002992
27 0.002992
37 0.002046
58 0.002012
72 0.001994
85 0.001995
95 0.001995
99 0.002027
100 0.002027
104 0.001993
114 0.002022
131 0.001012
143 0.002025
153 0.001963
161 0.002052
167 0.001995
176 0.001995
183 0.002027
189 0.00203
188 0.002053
130 0.001992
40 0.002037
29 0.001996
44 0.001997
61 0.001996
75 0.002002
90 0.002029
102 0.000998
107 0.001995
105 0.001996
107 0.002049
112 0.001995
123 0.001996
146 0.002004
158 0.002028
169 0.003034
174 0.002025
180 0.001038
186 0.000998
192 0.00205
198 0.002054
155 0.000997
81 0.002002
45 0.002053
39 0.001993
63 0.001004
81 0.001037
102 0.00101
115 0.002029
118 0.001989
114 0.001041
112 0.000998
118 0.000998
129 0.001022
144 0.001003
157 0.002005
168 0.002034
180 0.00199
186 0.002026
195 0.001985
198 0.001994
153 0.000998
82 0.000998
48 0.001003
42 0.001988
57 0.001004
75 0.002031
92 0.001997
109 0.001988
120 0.001991
117 0.002004
117 0.002026
124 0.000996
134 0.001027
147 0.001003
158 0.000998
170 0.001995
177 0.000997
184 0.000965
191 0.000998
197 0.002029
200 0.002026
139 0.002037
55 0.002028
34 0.0
38 0.001002
54 0.000997
71 0.000998
89 0.000998
102 0.000997
110 0.002001
112 0.000997
114 0.002005
120 0.001994
132 0.000998
150 0.001
163 0.0
173 0.000997
181 0.0
187 0.0
196 0.000998
202 0.000997
208 0.000998
202 0.001036
82 0.000986
47 0.0
42 0.001006
60 0.000998
80 0.0
96 0.0
112 0.0
122 0.0
124 0.000997
122 0.0
125 0.00103
134 0.000997
154 0.000964
166 0.000998
176 0.0
187 0.000988
193 0.0
199 0.0
203 0.0
208 0.0
201 0.0
128 0.0
68 0.000998
48 0.000989
62 0.001001
84 0.000996
105 0.0
130 0.0
137 0.0
134 0.0
129 0.0
130 0.0
141 0.0
153 0.0
166 0.0
176 0.0
189 0.000976
195 9.6e-05
201 0.0
206 0.0
211 0.0
211 0.0
155 0.0
75 0.0
41 0.0
39 0.0
55 0.0
75 0.0
104 0.0
118 0.0
122 0.0
121 0.000997
120 0.000997
127 0.001007
139 0.000954
152 0.000997
168 0.0
177 0.0
185 0.0
190 0.0
199 0.0
204 0.0
210 0.000996
209 0.0
123 0.0
57 0.000999
35 0.000993
44 0.0
63 0.0
83 0.000999
101 0.003027
120 0.000995
122 0.002996
120 0.001001
122 0.0
131 0.0
142 0.0
156 0.0
170 0.0
178 0.0
186 0.001994
191 0.002029
197 0.002027
204 0.0
208 0.002989
136 0.0
67 0.0
44 0.0
45 0.003034
62 0.002027
92 0.0
112 0.0
127 0.0
128 0.002037
124 0.001997
119 0.001976
127 0.002016
143 0.0
155 0.0
167 0.000997
175 0.002025
183 0.002019
191 0.000997
196 0.000997
195 0.0
140 0.001998
69 0.002032
37 0.002
47 0.002007
72 0.0
90 0.0
108 0.0
119 0.002027
119 0.002027
114 0.0
116 0.0
124 0.000965
135 0.002032
147 0.002027
164 0.003009
172 0.001995
180 0.0
186 0.0
190 0.0
153 0.00198
76 0.001988
32 0.0
31 0.0
44 0.0
62 0.002029
76 0.002027
98 0.003021
103 0.002985
103 0.0
103 0.0
110 0.0
121 0.003029
134 0.002036
148 0.0
157 0.0
164 0.0
170 0.002036
176 0.002001
184 0.001989
144 0.001993
57 0.0
33 0.00096
33 0.001
47 0.00204
64 0.003038
83 0.000998
96 0.001977
102 0.0
102 0.002028
101 0.002025
110 0.00202
121 0.001977
138 0.000969
148 0.0
157 0.0
163 0.003
168 0.002039
176 0.000996
183 0.0
168 0.0
101 0.001966
56 0.002055
41 0.001996
56 0.002
78 0.0
92 0.0
105 0.0
109 0.002025
108 0.002039
105 0.001996
108 0.00099
116 0.000964
127 0.0
138 0.002985
154 0.0
160 0.001981
166 0.002007
173 0.0
180 0.0
171 0.0
107 0.002002
58 0.002026
35 0.0
45 0.001004
63 0.001006
80 0.002029
103 0.0
107 0.001985
106 0.001962
104 0.0
108 0.0
117 0.0
127 0.002045
138 0.002026
150 0.0
158 0.000963
165 0.000966
170 0.002029
178 0.0
183 0.002966
187 0.003005
122 0.001007
61 0.0
31 0.0
28 0.002003
43 0.002028
64 0.000931
75 0.0
87 0.000955
98 0.0
99 0.0
100 0.003009
105 0.00296
118 0.0
129 0.0
140 0.0
150 0.003023
157 0.003034
166 0.0
172 0.0
177 0.001031
185 0.0
190 0.0
195 0.002003
176 0.002001
79 0.0
38 0.0
29 0.001988
41 0.002992
59 0.002992
78 0.0
90 0.000955
99 0.002047
106 0.001978
107 0.002003
112 0.002993
122 0.003005
140 0.002018
152 0.001996
161 0.000958
167 0.002991
171 0.002992
184 0.001998
196 0.002975
201 0.003054
203 0.001997
203 0.002004
205 0.003014
209 0.003012
215 0.001998
221 0.002011
226 0.001999
152 0.002992
233 0.002992
236 0.002005
238 0.001991
239 0.002
241 0.001999
243 0.003018
245 0.003038
245 0.003006
246 0.002991
239 0.00202
141 0.002025
48 0.003995
13 0.004003
19 0.001987
43 0.002003
70 0.001999
106 0.001996
114 0.002991
110 0.002989
102 0.002961
100 0.002989
107 0.003012
120 0.002034
135 0.004024
148 0.003989
161 0.002003
169 0.001989
176 0.001995
185 0.001992
190 0.001992
194 0.002992
199 0.003024
202 0.002994
141 0.002015
57 0.002028
19 0.003996
13 0.004023
34 0.002026
56 0.001996
73 0.001986
97 0.001995
104 0.002999
104 0.002953
103 0.003963
108 0.0
118 0.002986
133 0.002992
146 0.004023
157 0.00402
169 0.002017
176 0.001975
181 0.001997
191 0.001996
196 0.003004
200 0.002972
203 0.004006
157 0.003989
51 0.002054
21 0.001981
20 0.002987
35 0.00399
56 0.00399
78 0.003015
97 0.004053
102 0.003025
100 0.001975
100 0.001988
104 0.003993
113 0.005035
131 0.002026
143 0.002008
153 0.001998
161 0.004046
167 0.004022
173 0.002
179 0.004037
186 0.001997
191 0.001986
178 0.002992
99 0.002959
44 0.004987
23 0.002005
33 0.002012
52 0.002003
69 0.004031
84 0.003989
98 0.002006
98 0.004111
94 0.001995
96 0.002993
104 0.002994
114 0.005023
126 0.005041
140 0.00204
148 0.002027
154 0.002047
160 0.004986
166 0.004982
174 0.001987
138 0.003948
58 0.003009
30 0.003021
30 0.002012
46 0.005019
63 0.004988
82 0.003002
96 0.001987
101 0.002007
99 0.004987
97 0.004986
102 0.002009
114 0.004024
130 0.002995
139 0.002992
148 0.003008
154 0.004993
160 0.004021
168 0.003014
173 0.002992
178 0.002987
150 0.005031
82 0.005028
29 0.001931
26 0.004958
45 0.002989
57 0.001952
66 0.001994
78 0.004987
88 0.005034
93 0.00296
93 0.002029
98 0.00299
104 0.005014
115 0.004986
129 0.002018
141 0.005041
148 0.001994
154 0.00199
161 0.003024
167 0.004984
172 0.004987
179 0.002995
140 0.003012
76 0.002984
36 0.004997
27 0.004949
42 0.002968
60 0.005023
73 0.002003
86 0.00198
94 0.002988
97 0.005034
98 0.006025
103 0.002027
111 0.003005
122 0.002984
132 0.005981
141 0.004986
151 0.003013
160 0.00503
167 0.001987
171 0.002983
175 0.00199
180 0.005029
187 0.006026
194 0.003033
164 0.002997
94 0.003978
48 0.006981
35 0.006017
51 0.002963
72 0.004964
84 0.00302
96 0.004017
103 0.002886
106 0.004986
107 0.005985
110 0.003018
118 0.002981
130 0.003021
140 0.006023
150 0.006017
162 0.006016
168 0.005935
175 0.003038
179 0.00399
184 0.001986
190 0.006031
196 0.006039
202 0.006048
155 0.004001
86 0.003996
46 0.004023
37 0.005994
62 0.002029
75 0.006027
84 0.005982
98 0.001994
106 0.00298
111 0.002982
112 0.006015
114 0.006002
124 0.004001
136 0.004009
147 0.004001
159 0.005984
172 0.003041
179 0.005998
185 0.005985
192 0.002982
196 0.003988
201 0.003008
204 0.007029
209 0.005979
217 0.003998
216 0.00399
151 0.00398
78 0.006983
36 0.003028
47 0.006945
64 0.005982
80 0.004006
89 0.003999
101 0.003981
110 0.006993
114 0.006032
116 0.004011
121 0.004013
130 0.003947
142 0.006981
164 0.003024
174 0.006011
181 0.005983
189 0.004026
195 0.003029
199 0.003975
204 0.006018
208 0.005955
214 0.005009
219 0.003993
224 0.003951
229 0.006951
147 0.004003
76 0.005984
46 0.005976
51 0.004046
69 0.003977
87 0.003021
100 0.007044
113 0.006981
123 0.003991
123 0.003995
120 0.003988
121 0.006996
136 0.003042
151 0.006027
166 0.007011
180 0.00303
188 0.003036
194 0.003038
199 0.007014
203 0.006982
210 0.003989
215 0.004004
220 0.003994
224 0.006018
125 0.002961
67 0.006015
44 0.006955
53 0.003994
75 0.004029
94 0.003001
107 0.006981
122 0.007014
130 0.005006
128 0.004006
124 0.00499
128 0.008021
147 0.003989
162 0.007029
174 0.007023
186 0.004022
193 0.003027
198 0.003961
203 0.007029
210 0.007976
213 0.004993
216 0.005012
220 0.004987
212 0.004015
128 0.004021
59 0.007008
33 0.006996
39 0.003981
58 0.003
77 0.003958
95 0.007968
104 0.00793
115 0.005978
116 0.005015
115 0.004985
124 0.004021
136 0.003991
153 0.007935
161 0.007027
176 0.003998
184 0.003059
190 0.004016
196 0.007015
201 0.007962
205 0.005968
209 0.004975
214 0.004949
221 0.003931
218 0.003957
150 0.003985
52 0.007976
32 0.007977
36 0.004937
55 0.005005
76 0.005989
97 0.007959
111 0.007972
118 0.005035
116 0.005016
112 0.005019
119 0.004992
131 0.00394
145 0.007015
162 0.007984
173 0.003988
181 0.006016
188 0.004924
194 0.007017
199 0.007922
203 0.005994
207 0.005984
212 0.00598
162 0.005027
74 0.005987
30 0.007967
31 0.007978
47 0.004991
69 0.005979
87 0.006002
106 0.006963
115 0.006999
114 0.005984
110 0.005997
115 0.005994
126 0.006011
140 0.006
156 0.007958
164 0.00798
176 0.006008
182 0.005985
187 0.006021
194 0.006973
197 0.006968
201 0.005985
206 0.005985
212 0.005972
213 0.006025
166 0.005946
52 0.007978
23 0.006977
22 0.005963
36 0.005952
55 0.006014
74 0.006982
86 0.006986
94 0.00599
95 0.005992
95 0.006003
100 0.006953
111 0.006992
124 0.008002
141 0.008002
152 0.006951
159 0.006951
166 0.006939
174 0.007015
177 0.006971
183 0.006945
186 0.00599
193 0.005965
197 0.006003
186 0.005983
82 0.006939
38 0.008004
26 0.005991
35 0.006969
52 0.006977
72 0.006981
84 0.007015
95 0.005944
97 0.006978
93 0.005966
97 0.005986
102 0.005957
117 0.006969
129 0.005987
144 0.005958
149 0.005985
155 0.006966
161 0.007015
166 0.00702
171 0.006014
180 0.00697
183 0.005979
134 0.005984
69 0.005983
32 0.006974
35 0.006972
52 0.006026
75 0.005984
84 0.005975
101 0.006982
106 0.006018
102 0.005987
99 0.006001
104 0.00695
114 0.006978
126 0.005983
142 0.006962
150 0.006971
157 0.005983
161 0.00602
165 0.004991
171 0.006098
175 0.007015
179 0.00501
168 0.006012
74 0.00597
43 0.006936
21 0.005924
31 0.006984
49 0.006974
63 0.006031
74 0.006952
87 0.006959
92 0.006019
92 0.00698
92 0.005984
98 0.006029
111 0.005985
123 0.005985
133 0.006037
142 0.005984
148 0.006949
155 0.006945
161 0.006963
164 0.006965
169 0.006005
172 0.005985
177 0.006017
186 0.005972
166 0.005986
68 0.00599
26 0.005914
18 0.005957
30 0.005978
48 0.006
65 0.00597
71 0.006982
82 0.005986
88 0.006024
90 0.006033
92 0.006007
97 0.005966
110 0.005944
121 0.005983
131 0.006015
139 0.00595
145 0.005987
152 0.005985
156 0.004978
162 0.00595
166 0.006024
171 0.006018
179 0.005963
185 0.005974
174 0.005978
100 0.005979
45 0.004942
21 0.005995
25 0.005021
48 0.005033
64 0.005024
73 0.005027
84 0.005017
91 0.006014
95 0.005991
95 0.005955
103 0.005002
113 0.00597
124 0.005985
135 0.005991
146 0.00502
154 0.004958
159 0.005
164 0.004987
169 0.005017
175 0.005043
175 0.004986
117 0.005009
49 0.005002
32 0.004986
41 0.004981
60 0.005979
77 0.006003
95 0.005988
105 0.006017
108 0.005943
107 0.006021
107 0.004987
114 0.004986
124 0.004983
140 0.004994
151 0.005044
160 0.004952
167 0.004957
173 0.005979
180 0.00599
185 0.006003
182 0.005981
123 0.005019
45 0.004989
38 0.00499
52 0.004988
77 0.00498
91 0.004983
104 0.004973
112 0.004986
112 0.004946
109 0.004978
110 0.004982
117 0.004988
128 0.006011
147 0.005053
155 0.004986
161 0.004985
167 0.004982
172 0.005019
177 0.004959
184 0.004934
185 0.004976
112 0.004986
60 0.004956
39 0.004982
46 0.005022
78 0.005
91 0.003994
104 0.004004
113 0.004972
113 0.004975
111 0.004956
112 0.004988
119 0.005019
132 0.004986
143 0.004991
153 0.004972
161 0.005022
171 0.004987
176 0.004974
179 0.004934
185 0.003955
191 0.004988
197 0.003988
201 0.005025
160 0.00499
68 0.00499
37 0.004975
38 0.003983
54 0.00502
80 0.003955
88 0.003988
97 0.003988
106 0.003988
107 0.004024
109 0.004038
113 0.003961
120 0.00394
134 0.004955
146 0.005004
155 0.004984
163 0.005038
172 0.004987
176 0.004976
181 0.004995
187 0.003955
193 0.003958
199 0.003949
205 0.003998
193 0.003948
119 0.00399
51 0.003992
38 0.003972
49 0.003989
78 0.003934
88 0.004979
99 0.00496
107 0.004953
111 0.003979
111 0.004008
112 0.00399
118 0.003962
129 0.003963
145 0.003987
156 0.004027
165 0.004021
176 0.003953
181 0.003962
185 0.004962
189 0.003909
195 0.003962
200 0.003993
205 0.003983
207 0.004005
156 0.003984
69 0.003993
44 0.003991
60 0.003952
80 0.00399
94 0.003032
105 0.002991
115 0.002991
118 0.003991
115 0.003047
114 0.002994
119 0.003998
130 0.003964
147 0.004034
159 0.003994
173 0.003949
179 0.003004
183 0.002967
187 0.003991
191 0.002982
197 0.003988
202 0.003
207 0.003993
201 0.002998
130 0.004015
51 0.00299
34 0.004024
54 0.003996
71 0.002957
81 0.002986
91 0.003024
101 0.002967
107 0.003949
108 0.002991
109 0.003007
114 0.00299
124 0.002989
140 0.004035
151 0.003992
166 0.003948
173 0.004002
179 0.003974
183 0.002959
188 0.002926
193 0.002993
198 0.002987
202 0.003007
166 0.002981
91 0.00399
40 0.003957
37 0.002991
64 0.003008
77 0.003957
86 0.003992
97 0.003977
104 0.003961
108 0.003978
108 0.003958
110 0.003008
118 0.002991
130 0.002992
147 0.002992
158 0.003022
171 0.002959
177 0.002994
183 0.002993
189 0.003956
196 0.00396
170 0.003965
99 0.002963
55 0.002994
42 0.002971
52 0.002962
77 0.002982
92 0.003052
112 0.002993
119 0.002993
117 0.002992
115 0.002998
116 0.003004
128 0.003986
140 0.003992
152 0.001993
163 0.001963
171 0.003022
180 0.002987
186 0.001997
181 0.003014
119 0.00296
70 0.002985
50 0.003013
56 0.002981
82 0.002987
99 0.002994
116 0.00203
130 0.002031
131 0.001993
123 0.001995
121 0.001997
132 0.001994
145 0.001995
158 0.001001
170 0.001997
179 0.002002
188 0.002991
195 0.002996
183 0.002992
115 0.002982
63 0.002993
44 0.002037
57 0.001995
88 0.002
101 0.001991
115 0.002015
123 0.001996
123 0.001999
120 0.001992
121 0.002968
129 0.002998
142 0.002996
154 0.003005
166 0.001995
179 0.001996
186 0.002003
193 0.002015
156 0.001994
84 0.002006
39 0.00197
28 0.002003
47 0.001977
66 0.001996
78 0.002
89 0.001977
100 0.001014
108 0.002993
109 0.002004
114 0.001995
123 0.001995
134 0.001986
146 0.00201
157 0.001998
168 0.001993
175 0.001981
182 0.001992
188 0.000997
191 0.001001
90 0.000991
40 0.00103
27 0.001962
44 0.002012
63 0.00199
74 0.001994
84 0.001966
100 0.001985
107 0.00199
109 0.001001
110 0.000997
115 0.001996
134 0.001996
146 0.000985
162 0.001995
170 0.001044
176 0.000964
183 0.000999
189 0.000991
195 0.000996
200 0.001998
204 0.001998
210 0.00195
216 0.001035
209 0.002995
121 0.00196
40 0.000998
26 0.000994
40 0.000987
61 0.001983
78 0.00199
90 0.001982
100 0.001991
106 0.001969
109 0.002021
110 0.001994
120 0.001987
131 0.001989
148 0.000956
160 0.000983
170 0.001006
178 0.000993
183 0.002013
189 0.002005
194 0.002004
198 0.002011
203 0.001998
209 0.001994
217 0.001999
223 0.000998
155 0.001005
78 0.000997
42 0.000996
38 0.001009
56 0.000998
87 0.002028
102 0.000965
115 0.001997
122 0.001987
121 0.001995
117 0.001987
123 0.001961
138 0.001996
153 0.001012
167 0.000998
178 0.000963
185 0.001001
193 0.000989
198 0.000999
202 0.000996
206 0.001012
210 0.000997
217 0.00096
222 0.0
228 0.001007
227 0.001008
155 0.00102
71 0.001004
33 0.000983
33 0.001988
52 0.001017
73 0.001001
88 0.001
107 0.0
111 0.0
109 0.001003
110 0.001042
116 0.0
127 0.000979
142 0.0
157 0.001026
171 0.000996
179 0.001002
186 0.0
191 0.0
198 0.000954
201 0.0
205 0.0
212 0.0
218 0.0
223 0.0
193 0.0
97 0.0
33 0.001052
26 0.000959
40 0.000992
61 0.0
86 0.0
99 0.0
107 0.0
109 0.0
106 0.0
108 0.0
118 0.0
131 0.0
147 0.0
164 0.000982
173 0.000992
179 0.001004
188 0.000991
193 0.0
197 0.0
201 0.0
207 0.0
212 0.0
213 0.0
156 0.0
73 0.0
31 0.0
32 0.0
49 0.0
82 0.001016
96 0.001021
109 0.0
111 0.0
104 0.0
101 0.0
107 0.0
119 0.0
135 0.0
152 0.002978
161 0.0
167 0.0
174 0.0
179 0.001023
184 0.001012
188 0.000994
197 0.001993
178 0.001994
100 0.0
40 0.0
31 0.0
43 0.0
64 0.003003
88 0.0
109 0.00299
112 0.0
106 0.0
102 0.0
105 0.003029
115 0.002013
130 0.0
149 0.001002
159 0.000954
166 0.001975
172 0.002997
177 0.0
182 0.003001
188 0.0
194 0.0
194 0.0
141 0.003
66 0.001988
21 0.000999
21 0.0
38 0.0
56 0.002997
68 0.001988
83 0.0
92 0.00299
91 0.0
91 0.0
97 0.0
108 0.002995
121 0.003005
138 0.0
148 0.0
156 0.000992
163 0.001995
168 0.001999
174 0.0
179 0.003003
187 0.0
193 0.0
187 0.0
116 0.002986
52 0.002988
19 0.000968
26 0.0
45 0.0
60 0.002973
70 0.001988
86 0.002026
91 0.003025
92 0.0
95 0.0
103 0.0
114 0.002995
128 0.003006
144 0.0
154 0.000968
161 0.0
167 0.002993
172 0.002995
179 0.003023
183 0.00399
190 0.000998
197 0.000994
202 0.001
173 0.002977
91 0.003045
33 0.001018
27 0.0
41 0.0
59 0.002992
73 0.002987
90 0.003036
97 0.003996
98 0.0
97 0.0
101 0.0
110 0.00199
123 0.003002
142 0.0
152 0.0
160 0.0
165 0.002988
169 0.002993
177 0.003026
183 0.003008
192 0.0
198 0.0
176 0.0
102 0.003004
55 0.002033
40 0.0
54 0.0
73 0.000958
88 0.000998
102 0.003003
115 0.0
113 0.002982
109 0.003003
114 0.0
124 0.0
138 0.0
152 0.002993
163 0.002984
172 0.000959
177 0.0
182 0.000988
186 0.001996
194 0.00105
198 0.003006
203 0.002982
153 0.0
79 0.0
40 0.0
32 0.002987
45 0.002982
66 0.0
75 0.0
84 0.0
94 0.002984
101 0.000968
102 0.001993
106 0.001997
117 0.0
130 0.0
143 0.0
155 0.002998
163 0.002992
172 0.0
176 0.0
181 0.0
185 0.002995
193 0.0
198 0.002993
204 0.002992
162 0.00102
84 0.0
42 0.001
31 0.001974
41 0.002997
61 0.0
69 0.0
77 0.0
88 0.002989
96 0.0
98 0.002993
101 0.002991
111 0.0
124 0.0
137 0.0
148 0.00299
156 0.002013
165 0.0
170 0.001007
176 0.0
183 0.000998
187 0.0
192 0.002997
197 0.002992
205 0.0
179 0.0
101 0.0
55 0.003044
39 0.003035
53 0.001013
70 0.00096
80 0.001005
94 0.0
101 0.0
103 0.003038
102 0.00299
106 0.0
114 0.0
125 0.0
137 0.003023
148 0.003001
158 0.0
163 0.0
168 0.000971
176 0.000966
182 0.0
187 0.002984
194 0.003025
187 0.0
122 0.0
70 0.0
48 0.003
52 0.002987
75 0.0
89 0.000958
98 0.000969
113 0.001028
114 0.000965
112 0.002986
112 0.003923
120 0.000968
131 0.0
144 0.0
155 0.00298
164 0.002995
172 0.000954
176 0.0
181 0.0
186 0.003049
191 0.003035
197 0.003952
201 0.003958
137 0.002991
72 0.002994
39 0.000968
36 0.003001
50 0.004025
70 0.003034
77 0.00298
85 0.001001
98 0.002956
102 0.00199
103 0.002974
106 0.004029
116 0.002987
129 0.002987
140 0.002983
151 0.003994
159 0.003989
167 0.002974
172 0.002984
177 0.00299
184 0.002018
190 0.002992
196 0.002982
201 0.002991
175 0.002984
78 0.00299
39 0.002992
32 0.002991
45 0.003973
62 0.00401
75 0.002993
83 0.003001
99 0.001993
102 0.001973
103 0.004016
106 0.003979
114 0.003982
130 0.002998
142 0.002991
154 0.003965
164 0.003987
169 0.003999
176 0.002992
181 0.003023
188 0.003025
193 0.003009
198 0.002993
204 0.00502
209 0.003997
149 0.0
79 0.001996
44 0.001983
40 0.003953
55 0.003996
78 0.002979
89 0.003014
107 0.002991
112 0.00299
112 0.0
111 0.003025
114 0.003979
127 0.002997
142 0.002984
156 0.002996
167 0.003942
174 0.003979
182 0.002992
188 0.004
