190 0.031957
190 0.0
185 0.0
133 0.0
87 0.000845
72 0.0
82 0.000799
108 0.000996
117 0.0
128 0.000968
132 0.000998
132 0.0
131 0.0
132 0.0
140 0.0
147 0.0
155 0.0
161 0.0
166 0.0
173 0.0
177 0.0
182 0.0
185 0.0
187 0.0
191 0.000997
196 0.0
197 0.0
151 0.0
97 0.0
72 0.0
75 0.0
100 0.0
110 0.0
116 0.0
121 0.0
126 0.0
127 0.0
127 0.0
131 0.0
137 0.0
144 0.0
150 0.0
156 0.0
164 0.0
169 0.0
174 0.0
177 0.0
182 0.0
184 0.0
187 0.0
191 0.000998
194 0.000983
143 0.0
88 0.0
67 0.0
68 0.0
86 0.0
97 0.0
105 0.0
112 0.0
117 0.0
116 0.0
117 0.0
120 0.000998
126 0.000998
137 0.0
145 0.0
154 0.0
159 0.0
165 0.0
169 0.0
172 0.0
175 0.0
178 0.0
181 0.0
186 0.0
189 0.000993
142 0.0
86 0.0
59 0.0
74 0.0
91 0.0
103 0.000989
111 0.000999
118 0.0
121 0.000998
119 0.001007
117 0.000991
121 0.00099
129 0.000982
140 0.0
154 0.0
160 0.0
164 0.0
168 0.000997
171 0.000997
175 0.001004
178 0.000962
180 0.001036
184 0.000961
187 0.00099
152 0.000991
90 0.001007
51 0.0
64 0.0
79 0.0
88 0.001005
94 0.001006
101 0.000985
103 0.000963
104 0.000993
105 0.001962
108 0.000993
114 0.000997
122 0.000999
138 0.0
143 0.0
148 0.0
152 0.000997
156 0.001996
161 0.001009
165 0.000998
169 0.00093
172 0.001947
177 0.001969
169 0.000995
111 0.001047
43 0.0
49 0.0
65 0.0
77 0.000997
83 0.001995
90 0.00099
95 0.00102
97 0.000997
96 0.001999
98 0.001984
106 0.000956
112 0.001003
125 0.001034
131 0.000964
136 0.001055
141 0.001001
144 0.000998
148 0.000972
152 0.001045
156 0.001047
161 0.00201
164 0.002008
111 0.000959
64 0.000998
47 0.000996
61 0.000989
76 0.001032
84 0.001995
91 0.001961
97 0.001041
100 0.001025
100 0.001998
101 0.001995
106 0.002012
116 0.000981
124 0.000966
136 0.001023
140 0.000971
144 0.000992
148 0.002042
152 0.001994
158 0.001994
161 0.002033
166 0.000998
171 0.002005
175 0.001996
149 0.002008
91 0.002008
41 0.002071
47 0.002041
66 0.000885
73 0.001995
78 0.001995
87 0.001037
92 0.001061
94 0.001042
96 0.001972
98 0.003005
103 0.002029
110 0.002009
122 0.001995
129 0.002006
134 0.002006
140 0.002014
144 0.002028
150 0.001047
154 0.001035
158 0.000992
163 0.002043
169 0.002991
174 0.00299
135 0.001992
64 0.002992
42 0.002024
47 0.002004
61 0.002015
72 0.001995
75 0.001995
85 0.001061
92 0.000992
94 0.000974
95 0.002041
98 0.002047
105 0.001985
116 0.002992
125 0.001995
131 0.001981
134 0.001995
139 0.003016
142 0.00199
146 0.00199
150 0.00196
155 0.001968
161 0.002993
166 0.001989
151 0.002046
85 0.002992
49 0.002045
53 0.002042
67 0.002048
79 0.003025
84 0.002992
93 0.002028
99 0.002006
101 0.002009
101 0.002994
103 0.003009
111 0.001989
123 0.002993
133 0.002021
138 0.001996
142 0.002032
146 0.00299
150 0.002992
155 0.002999
158 0.002985
162 0.001995
167 0.002986
172 0.002995
175 0.001995
118 0.002992
59 0.001994
48 0.002027
57 0.003022
71 0.003038
78 0.00399
81 0.002996
88 0.002992
95 0.002993
100 0.003076
101 0.003019
105 0.002075
113 0.002996
124 0.002027
130 0.002026
135 0.00304
140 0.003994
144 0.00399
150 0.003031
152 0.003014
156 0.003
162 0.002992
166 0.003001
173 0.001975
181 0.002991
161 0.003002
99 0.002993
55 0.00305
44 0.00399
54 0.003989
70 0.003033
80 0.002992
82 0.002992
91 0.002993
98 0.002995
102 0.002024
105 0.003038
112 0.002026
120 0.001983
130 0.002992
138 0.003989
144 0.004013
150 0.002977
154 0.00304
158 0.001969
164 0.003029
169 0.003001
174 0.003039
181 0.003039
186 0.003039
191 0.004004
158 0.002996
94 0.00399
55 0.003989
53 0.003042
70 0.003052
84 0.002924
93 0.003973
100 0.003995
107 0.003039
110 0.003982
109 0.003986
113 0.002992
121 0.00296
131 0.004028
141 0.004526
152 0.002998
156 0.002998
161 0.003983
167 0.003975
171 0.004039
174 0.004031
181 0.004019
188 0.002992
176 0.003039
114 0.00399
63 0.004988
45 0.004044
58 0.004003
74 0.00399
81 0.003936
89 0.003982
96 0.004016
102 0.00398
105 0.00399
107 0.003064
112 0.003036
122 0.003021
132 0.003037
142 0.004997
149 0.003976
158 0.003972
164 0.003983
169 0.003957
172 0.003988
177 0.003981
183 0.00399
187 0.003955
192 0.00402
186 0.002998
123 0.003031
65 0.004022
41 0.004021
53 0.003038
71 0.003031
83 0.00402
89 0.005027
97 0.005038
105 0.00502
105 0.004022
106 0.003975
110 0.004022
118 0.004035
131 0.003997
141 0.004996
153 0.004055
160 0.004001
166 0.003987
169 0.004984
173 0.004974
179 0.005021
184 0.005019
191 0.004037
193 0.004022
183 0.004021
97 0.003994
54 0.00502
47 0.004018
63 0.004001
80 0.003975
91 0.005018
100 0.005016
110 0.005063
111 0.004987
110 0.004008
114 0.004023
122 0.003968
133 0.005032
145 0.005033
155 0.004047
163 0.004994
168 0.005003
174 0.004979
178 0.005027
185 0.004986
190 0.004987
195 0.00404
165 0.003982
95 0.003992
52 0.005021
43 0.00505
63 0.005006
74 0.005027
89 0.003992
96 0.004962
104 0.005021
109 0.006016
109 0.005041
112 0.003995
120 0.004033
131 0.005017
142 0.005992
151 0.005025
161 0.005025
165 0.004986
170 0.004955
175 0.005024
179 0.005027
184 0.005022
190 0.004987
195 0.004029
181 0.004036
110 0.005019
55 0.005033
36 0.005073
51 0.005046
69 0.004988
81 0.005037
88 0.005021
96 0.006012
104 0.005022
104 0.005026
106 0.005021
111 0.005018
123 0.004039
133 0.005033
144 0.005032
155 0.005051
161 0.004979
166 0.005027
170 0.006015
175 0.005016
181 0.005984
186 0.005984
193 0.004957
194 0.005026
150 0.005022
65 0.005018
41 0.005991
51 0.004999
68 0.005002
82 0.005013
90 0.005943
98 0.005992
104 0.005983
102 0.005997
104 0.005032
109 0.005038
119 0.004032
130 0.004963
142 0.005033
150 0.005019
157 0.006043
162 0.005036
165 0.00598
169 0.006017
178 0.005989
181 0.005984
119 0.005016
66 0.004984
45 0.005016
51 0.006029
68 0.00603
87 0.006026
96 0.005997
105 0.006031
110 0.006015
109 0.005951
109 0.005984
114 0.00604
127 0.004944
138 0.005041
147 0.005013
155 0.006021
160 0.006023
164 0.007015
168 0.006012
172 0.006003
176 0.006025
181 0.007028
186 0.006034
140 0.005984
80 0.005984
49 0.006065
52 0.005042
68 0.005011
80 0.006031
86 0.006029
95 0.006039
100 0.005983
103 0.006047
103 0.007031
108 0.006026
116 0.006982
125 0.007008
137 0.004966
144 0.005034
148 0.006016
153 0.006015
157 0.006017
162 0.006004
165 0.007004
170 0.005981
176 0.007019
175 0.006035
122 0.007011
70 0.007013
46 0.006029
56 0.006018
70 0.005031
80 0.006038
85 0.006014
92 0.007029
100 0.005962
102 0.006019
102 0.007015
109 0.006018
117 0.007017
126 0.006982
137 0.00598
143 0.006033
148 0.006016
153 0.007012
157 0.005985
161 0.006969
164 0.007007
170 0.006002
176 0.007024
182 0.00603
148 0.007017
91 0.007979
52 0.00601
55 0.006014
70 0.006012
82 0.007016
90 0.007969
94 0.007016
103 0.006023
106 0.006034
107 0.006984
110 0.005985
117 0.006982
126 0.007029
136 0.006009
143 0.006017
148 0.007041
153 0.007983
157 0.007977
160 0.007017
164 0.007017
167 0.007016
174 0.007017
179 0.00702
128 0.006981
79 0.006982
55 0.004963
65 0.006006
81 0.00604
94 0.007989
102 0.007971
109 0.006017
112 0.005999
111 0.006043
112 0.007014
117 0.007033
128 0.007018
137 0.007021
147 0.005976
152 0.006014
156 0.006015
161 0.007979
165 0.007974
168 0.007008
172 0.006024
175 0.006024
181 0.008007
187 0.007014
151 0.006982
92 0.006981
57 0.007032
54 0.005991
68 0.006984
82 0.007975
85 0.007978
92 0.00703
99 0.007019
103 0.007016
104 0.007953
108 0.007012
114 0.007949
123 0.007947
132 0.007009
142 0.007968
145 0.006966
152 0.007975
156 0.007986
161 0.00702
165 0.006978
169 0.00705
173 0.007983
180 0.006973
188 0.007018
188 0.007015
119 0.006955
83 0.007035
48 0.007992
52 0.00798
68 0.007978
78 0.007013
83 0.007011
89 0.00698
99 0.007964
103 0.00701
105 0.007978
110 0.007028
118 0.006994
131 0.006997
138 0.006978
145 0.007958
148 0.00801
155 0.007984
158 0.008009
163 0.006961
168 0.007023
175 0.007026
179 0.007012
185 0.007932
191 0.007946
197 0.006993
197 0.006982
149 0.006973
90 0.006965
59 0.00699
62 0.007011
79 0.007983
88 0.007027
99 0.007
107 0.007025
112 0.007979
114 0.007978
114 0.006983
118 0.00699
125 0.006977
135 0.006971
142 0.006997
152 0.006996
157 0.006896
161 0.006971
168 0.007019
172 0.006977
176 0.007999
179 0.007979
187 0.006953
193 0.006986
196 0.006997
166 0.006982
105 0.006956
59 0.006964
59 0.006973
74 0.006996
95 0.007015
99 0.00793
109 0.006963
114 0.00698
115 0.00698
115 0.006984
118 0.00696
125 0.007038
134 0.006998
147 0.006942
153 0.006008
160 0.006971
168 0.007015
172 0.006033
175 0.00598
178 0.005975
184 0.00602
187 0.007004
191 0.006967
196 0.00698
197 0.00698
129 0.006974
73 0.006979
48 0.006977
62 0.006981
77 0.00698
85 0.005971
89 0.006014
98 0.005981
102 0.006002
104 0.005965
105 0.006969
109 0.006994
119 0.006972
130 0.006973
138 0.006969
150 0.006974
156 0.006016
160 0.005984
165 0.005984
171 0.005963
176 0.005987
179 0.005984
183 0.007016
187 0.006979
194 0.006995
193 0.00696
144 0.006964
64 0.006049
55 0.006027
68 0.005995
85 0.005996
97 0.005978
103 0.00599
110 0.005978
114 0.005997
114 0.005984
116 0.006983
119 0.006987
126 0.006981
140 0.006061
148 0.006012
154 0.005951
158 0.00595
163 0.005988
167 0.005999
170 0.005982
175 0.005959
179 0.006008
186 0.00597
187 0.006932
146 0.00597
73 0.006018
66 0.005984
78 0.005988
94 0.005985
108 0.005996
115 0.00594
120 0.005986
123 0.005968
122 0.005008
122 0.005963
126 0.004964
134 0.004982
147 0.006017
155 0.006028
160 0.005979
163 0.005981
169 0.005979
172 0.005936
175 0.005997
178 0.005984
181 0.005981
185 0.004975
191 0.004979
192 0.004993
107 0.005998
66 0.005963
56 0.005991
66 0.006001
83 0.006002
94 0.005969
98 0.005987
104 0.005982
109 0.004962
111 0.00495
111 0.004991
113 0.004989
124 0.005036
132 0.004965
138 0.005993
141 0.003053
149 0.005972
153 0.005982
157 0.005011
162 0.005008
166 0.004996
170 0.004954
175 0.004995
178 0.004994
186 0.005036
186 0.004975
138 0.00495
80 0.005982
51 0.00602
53 0.005024
69 0.00597
80 0.004996
85 0.004958
90 0.004971
99 0.005018
100 0.004992
101 0.004987
104 0.004981
111 0.004994
119 0.004973
127 0.00503
136 0.00597
141 0.005987
146 0.004988
149 0.004963
153 0.005005
158 0.004989
162 0.004975
170 0.005034
175 0.004958
180 0.004974
179 0.004974
132 0.004975
64 0.00503
45 0.004994
50 0.004986
67 0.004986
81 0.00499
90 0.004987
97 0.004988
102 0.00498
101 0.004972
101 0.004974
106 0.004988
115 0.00502
127 0.004003
136 0.004001
143 0.003983
147 0.00502
151 0.004975
156 0.004981
159 0.005007
167 0.005017
172 0.004976
178 0.004968
172 0.004984
118 0.004039
53 0.003976
39 0.004018
48 0.004936
64 0.00399
76 0.00399
83 0.003969
90 0.005008
98 0.005018
98 0.004019
100 0.00493
105 0.004989
114 0.004993
125 0.004975
134 0.003978
142 0.003971
147 0.003988
152 0.003996
158 0.00399
161 0.003988
169 0.003992
173 0.003938
179 0.00497
184 0.004992
158 0.004999
75 0.004957
43 0.003992
40 0.004014
56 0.003984
71 0.003984
81 0.003997
87 0.003988
98 0.004022
101 0.003996
102 0.003975
105 0.00397
112 0.005029
126 0.003968
136 0.004006
144 0.004074
150 0.003991
155 0.003991
160 0.00405
165 0.003981
172 0.00398
177 0.003983
184 0.004005
185 0.003982
144 0.003999
71 0.004007
47 0.003999
51 0.003976
68 0.003985
82 0.003985
92 0.003948
102 0.003986
109 0.004019
110 0.004019
110 0.003989
114 0.002985
122 0.002973
133 0.002992
145 0.003986
154 0.004004
160 0.003994
165 0.003985
170 0.004003
175 0.003996
181 0.004043
188 0.002992
193 0.004981
189 0.002872
134 0.002988
74 0.00298
42 0.004027
50 0.003994
67 0.003988
79 0.002948
84 0.002992
94 0.003991
103 0.00296
106 0.003977
107 0.002991
111 0.00298
120 0.00298
131 0.002992
144 0.003964
152 0.003949
157 0.002992
162 0.003974
167 0.003992
174 0.004018
180 0.003985
184 0.00299
189 0.002982
195 0.002993
200 0.003006
173 0.002993
82 0.002995
45 0.002956
41 0.002989
56 0.003974
73 0.004012
86 0.00396
95 0.002981
103 0.003003
106 0.002998
108 0.002997
111 0.002964
118 0.003011
132 0.002967
142 0.002955
151 0.002994
160 0.00299
167 0.003966
172 0.002993
177 0.003017
182 0.002993
187 0.002991
191 0.002999
196 0.002983
201 0.002998
189 0.003019
119 0.002971
66 0.002994
46 0.002993
54 0.002977
78 0.002996
96 0.001996
108 0.002968
114 0.002994
114 0.003035
112 0.002992
112 0.002994
121 0.002992
132 0.002997
143 0.002992
155 0.002994
164 0.001994
172 0.002989
178 0.001983
184 0.001985
187 0.001946
192 0.001976
197 0.001996
202 0.001981
185 0.00295
114 0.002977
63 0.002958
45 0.002956
53 0.002953
77 0.002992
95 0.002974
107 0.002946
113 0.001982
113 0.002958
111 0.001963
111 0.001992
120 0.00296
131 0.002952
144 0.003008
154 0.00296
162 0.003029
169 0.001995
174 0.002005
180 0.001965
184 0.002034
188 0.001994
192 0.001992
194 0.001994
129 0.001959
68 0.001971
39 0.001987
39 0.00303
54 0.002992
73 0.001995
84 0.001997
94 0.001955
99 0.001949
99 0.00196
100 0.002016
104 0.001996
117 0.001958
128 0.001999
139 0.001995
148 0.00198
156 0.001965
162 0.002002
168 0.001989
174 0.002028
178 0.002023
182 0.001999
188 0.001981
176 0.001922
89 0.001997
46 0.00201
35 0.002005
47 0.001049
63 0.001002
77 0.001995
87 0.001971
95 0.00198
99 0.001961
100 0.001993
103 0.001924
110 0.001999
120 0.002016
134 0.001968
144 0.002009
152 0.001006
158 0.000957
162 0.00097
170 0.001016
174 0.001021
181 0.001994
185 0.001985
190 0.001988
194 0.001975
165 0.001982
78 0.002061
47 0.002006
46 0.001026
60 0.002024
77 0.001995
93 0.001996
102 0.001994
106 0.002008
104 0.001994
103 0.001002
107 0.000967
115 0.001007
131 0.000979
141 0.000949
150 0.001019
157 0.001005
162 0.002008
169 0.002042
174 0.002048
180 0.002022
185 0.000999
188 0.001002
155 0.000992
91 0.001006
49 0.000989
49 0.001001
63 0.001
78 0.0
87 0.000997
101 0.002026
105 0.000992
104 0.000994
104 0.001008
109 0.001046
118 0.001006
130 0.001006
144 0.001034
152 0.001027
159 0.000959
163 0.000986
167 0.001005
174 0.000983
177 0.000999
183 0.000985
188 0.0
187 0.000997
138 0.0
76 0.000998
41 0.001002
45 0.000972
58 0.001023
69 0.000997
75 0.000998
87 0.000995
93 0.001024
96 0.000997
98 0.001005
103 0.0
113 0.000998
124 0.0
137 0.0
144 0.000967
151 0.000997
156 0.000985
162 0.000997
169 0.001004
173 0.000998
178 0.000997
183 0.000998
188 0.0
178 0.001023
115 0.0
51 0.0
39 0.0
49 0.0
63 0.0
74 0.000997
84 0.00099
92 0.000998
97 0.000984
99 0.000989
102 0.001005
108 0.0
117 0.0
131 0.0
140 0.0
147 0.0
154 0.000998
159 0.0
167 0.001004
172 0.000997
177 0.0
181 0.000999
185 0.0
190 0.0
195 0.0
196 0.0
147 0.0
83 0.000952
51 0.00101
49 0.0
72 0.0
83 0.001008
92 0.000992
100 0.0
104 0.0
104 0.0
104 0.0
110 0.0
119 0.0
131 0.0
141 0.0
151 0.0
162 0.0
167 0.0
174 0.0
177 0.000952
180 0.0
184 0.0
189 0.0
196 0.0
198 0.0
157 0.0
91 0.0
56 0.0
57 0.0
71 0.0
84 0.0
93 0.001065
102 0.001006
107 0.000962
108 0.000993
108 0.001006
112 0.0
122 0.0
137 0.0
148 0.0
162 0.0
167 0.0
172 0.0
175 0.00098
180 0.001006
185 0.000993
188 0.000984
192 0.000974
197 0.000988
201 0.0
208 0.0
204 0.0
93 0.0
52 0.0
43 0.0
53 0.001012
69 0.000988
81 0.0
88 0.000982
93 0.000969
101 0.001
101 0.0
103 0.0
108 0.0
125 0.0
136 0.0
147 0.0
155 0.000976
161 0.001004
168 0.0
172 0.0
177 0.001005
182 0.001001
187 0.000997
194 0.0
199 0.0
209 0.0
214 0.0
195 0.0
120 0.000992
71 0.000967
56 0.0
66 0.0
76 0.000975
93 0.002008
103 0.000997
115 0.0
118 0.0
117 0.0
119 0.0
127 0.0
137 0.001002
149 0.001021
163 0.0
169 0.0
173 0.0
176 0.001054
178 0.001968
180 0.000998
184 0.0
192 0.0
193 0.0
149 0.0
85 0.000995
53 0.001
50 0.0
61 0.0
73 0.0
81 0.001022
91 0.001995
101 0.00102
102 0.0
101 0.0
106 0.0
115 0.0
127 0.000991
139 0.001033
151 0.0
156 0.000967
160 0.0
164 0.000991
168 0.001997
173 0.001032
178 0.002004
181 0.000984
134 0.000986
78 0.0
50 0.002018
48 0.001004
61 0.000996
71 0.000999
77 0.000997
84 0.000986
92 0.002048
98 0.000997
100 0.001007
105 0.001035
113 0.000967
123 0.000941
132 0.001962
140 0.002016
148 0.000999
153 0.001018
157 0.001047
161 0.001997
164 0.002031
170 0.001028
176 0.001001
182 0.001014
145 0.000971
88 0.001008
56 0.002035
48 0.001964
62 0.000998
73 0.0
78 0.000974
82 0.002004
91 0.001999
100 0.001035
102 0.000993
105 0.001017
112 0.000966
120 0.000959
127 0.001944
134 0.001933
143 0.000981
148 0.000962
152 0.000965
155 0.002004
160 0.001994
164 0.001995
171 0.000948
177 0.00201
183 0.002039
186 0.001023
190 0.000998
175 0.00198
113 0.001995
59 0.001035
52 0.001942
62 0.001996
75 0.003004
83 0.003022
88 0.001036
99 0.002015
105 0.001014
107 0.001025
108 0.000999
113 0.002014
120 0.002006
130 0.001999
137 0.001964
143 0.001994
148 0.002992
152 0.002992
159 0.001007
164 0.003014
168 0.001045
172 0.000999
177 0.000989
181 0.002007
185 0.001995
191 0.002047
188 0.002019
130 0.001995
76 0.002992
51 0.003027
58 0.002029
76 0.002987
86 0.000985
91 0.000997
99 0.001985
106 0.003013
109 0.002984
109 0.001991
112 0.002035
119 0.001996
127 0.003038
137 0.003045
146 0.002047
152 0.002988
157 0.000971
161 0.000994
167 0.000991
171 0.002005
175 0.003019
179 0.002047
182 0.002009
186 0.001993
192 0.002992
195 0.002978
134 0.002013
63 0.002972
48 0.002991
60 0.002033
76 0.000971
87 0.00407
92 0.003991
101 0.001987
106 0.002032
108 0.002039
108 0.003021
111 0.002993
118 0.001993
130 0.003009
143 0.003002
150 0.002984
156 0.001974
160 0.004028
163 0.004005
168 0.001993
172 0.001992
176 0.001992
180 0.002992
184 0.002992
189 0.001995
180 0.002996
97 0.003017
59 0.003053
49 0.002978
60 0.00401
77 0.004009
93 0.003018
102 0.002008
111 0.002018
113 0.003032
111 0.003027
111 0.002006
118 0.003005
131 0.002986
142 0.00304
152 0.002997
160 0.00398
165 0.003975
171 0.00204
175 0.003004
177 0.002022
180 0.002992
183 0.003038
188 0.001995
194 0.003026
188 0.003026
121 0.00299
65 0.002962
42 0.00404
46 0.003975
67 0.003036
80 0.001995
88 0.002982
96 0.00402
103 0.003989
105 0.002998
105 0.004
110 0.002995
119 0.0
132 0.002991
143 0.00398
152 0.004022
161 0.003028
165 0.00303
170 0.004015
174 0.00401
179 0.003989
182 0.003023
188 0.005001
195 0.003022
196 0.003001
148 0.003017
76 0.003005
41 0.004026
37 0.004019
57 0.002978
74 0.004023
84 0.003022
93 0.003989
101 0.005
103 0.005017
102 0.003989
107 0.003014
117 0.003004
128 0.003019
141 0.003985
150 0.003965
160 0.003031
166 0.003046
171 0.002993
175 0.005029
178 0.004987
184 0.005025
189 0.005032
195 0.003001
180 0.002985
105 0.003007
53 0.003958
34 0.003984
46 0.002973
64 0.004031
78 0.004026
86 0.004986
96 0.004987
100 0.005024
99 0.004987
102 0.002997
109 0.003035
120 0.002996
132 0.003978
143 0.004931
153 0.003959
159 0.003006
164 0.00402
167 0.004986
171 0.005024
178 0.004987
182 0.005019
188 0.003051
176 0.002995
105 0.003003
53 0.003999
32 0.004021
43 0.003039
61 0.003009
74 0.002984
83 0.005022
92 0.004987
98 0.00502
97 0.005018
99 0.004023
107 0.003033
118 0.004027
130 0.005033
141 0.004044
151 0.003025
156 0.003989
161 0.004005
165 0.004987
169 0.004958
176 0.005028
180 0.00504
186 0.004025
166 0.004022
95 0.003035
51 0.005017
36 0.00502
51 0.005019
70 0.005044
83 0.004002
92 0.005931
100 0.005984
102 0.005009
99 0.005012
104 0.00301
113 0.004008
124 0.00301
137 0.004032
148 0.00504
156 0.005008
161 0.004001
166 0.004042
171 0.006036
174 0.00605
183 0.00502
184 0.00498
112 0.003987
61 0.004037
41 0.004006
46 0.005019
62 0.006011
81 0.005042
90 0.005017
100 0.005018
105 0.005985
105 0.006036
106 0.005977
113 0.00502
127 0.004009
138 0.004024
148 0.004014
156 0.005017
162 0.004987
167 0.00501
171 0.005022
175 0.005038
179 0.006053
184 0.005998
152 0.006022
86 0.005982
41 0.004001
41 0.003985
55 0.00402
69 0.006019
76 0.006015
87 0.004015
95 0.004987
98 0.004995
99 0.005985
102 0.00603
114 0.005995
125 0.005983
138 0.005005
147 0.005039
153 0.004027
157 0.006015
162 0.005984
168 0.005046
172 0.004031
177 0.004041
183 0.006956
168 0.006946
70 0.004931
43 0.005966
44 0.007012
63 0.005018
73 0.004982
79 0.005008
87 0.005984
95 0.006016
99 0.005014
99 0.004986
103 0.005038
110 0.005985
126 0.005053
134 0.007023
142 0.007014
145 0.004001
153 0.004984
158 0.003971
163 0.006011
169 0.006014
177 0.005006
181 0.005032
153 0.005033
92 0.006018
45 0.005002
52 0.007011
66 0.007013
79 0.004991
86 0.005017
95 0.004977
102 0.006014
104 0.005985
106 0.005009
110 0.005005
118 0.005984
128 0.00699
144 0.005037
150 0.007015
155 0.006975
162 0.004952
167 0.005004
172 0.005005
177 0.006969
181 0.006006
185 0.005986
188 0.005
193 0.006024
198 0.006974
187 0.005986
115 0.006939
60 0.007012
38 0.006013
49 0.004975
63 0.005028
71 0.006982
75 0.007012
86 0.005
93 0.004995
98 0.005981
101 0.007015
107 0.006015
116 0.007012
126 0.007017
139 0.004973
146 0.005001
152 0.006985
157 0.007979
164 0.007963
169 0.005952
175 0.005959
180 0.00599
184 0.00702
191 0.005992
195 0.007038
201 0.007007
200 0.005965
140 0.004973
76 0.00604
45 0.007014
45 0.00798
64 0.007031
76 0.006012
83 0.005987
90 0.007979
102 0.005957
105 0.006969
107 0.007016
113 0.005004
122 0.00498
134 0.007014
144 0.00798
153 0.007979
163 0.006981
170 0.005984
175 0.007026
180 0.007941
185 0.006017
191 0.00798
195 0.007978
200 0.005969
205 0.005995
210 0.005982
202 0.006981
134 0.007014
65 0.005945
51 0.005982
60 0.007006
83 0.008006
97 0.006025
110 0.007983
115 0.007991
116 0.006016
113 0.005979
116 0.00602
127 0.007947
135 0.007979
153 0.005991
163 0.005962
170 0.006965
175 0.007979
183 0.005985
188 0.007992
192 0.007984
196 0.005986
201 0.005988
206 0.007022
208 0.007979
166 0.007013
61 0.00696
46 0.006967
47 0.006985
61 0.007979
84 0.006981
93 0.007979
102 0.007964
107 0.007975
108 0.007037
109 0.006986
114 0.005973
123 0.007979
140 0.007028
152 0.006978
163 0.006942
168 0.006951
176 0.00697
181 0.006953
186 0.007977
189 0.007974
194 0.006018
199 0.007012
204 0.007036
204 0.007017
144 0.007012
72 0.006963
38 0.006984
44 0.006942
66 0.006978
78 0.006992
87 0.007965
96 0.007979
102 0.00603
105 0.007023
106 0.006022
112 0.006965
121 0.006986
134 0.00696
147 0.006981
154 0.000985
171 0.006978
176 0.006978
180 0.007944
184 0.007963
188 0.006982
195 0.006982
199 0.00699
205 0.007035
209 0.007034
166 0.006983
86 0.006994
49 0.007002
48 0.00696
66 0.00698
81 0.006981
92 0.006981
105 0.006982
109 0.006977
109 0.006984
107 0.007015
110 0.005971
123 0.006016
137 0.007017
150 0.007016
165 0.006988
171 0.00699
176 0.007028
179 0.007013
184 0.006989
189 0.006966
194 0.00697
200 0.006981
187 0.006015
91 0.006014
48 0.007013
37 0.006982
57 0.006973
71 0.006995
80 0.00698
89 0.006981
99 0.006993
102 0.006961
102 0.006986
104 0.007028
111 0.006016
126 0.005986
139 0.006014
150 0.006018
163 0.006985
168 0.006983
173 0.006981
177 0.006984
183 0.00703
188 0.006983
193 0.006016
198 0.005951
202 0.00602
147 0.006021
69 0.006018
35 0.005985
38 0.006961
55 0.006951
68 0.006989
76 0.006972
87 0.007033
94 0.00697
97 0.006974
98 0.00602
102 0.006031
115 0.005969
128 0.006036
140 0.006064
156 0.005993
164 0.005962
169 0.005983
174 0.006014
181 0.007015
186 0.007025
190 0.006031
194 0.006014
198 0.006017
204 0.006003
196 0.006035
124 0.006017
42 0.005974
38 0.005979
50 0.004988
69 0.006018
85 0.006032
93 0.006017
102 0.005015
105 0.007013
105 0.006017
107 0.006016
114 0.006019
125 0.005967
145 0.005982
155 0.005994
162 0.005987
168 0.005985
174 0.006032
180 0.00597
185 0.005018
190 0.00502
195 0.006025
199 0.005982
187 0.006019
115 0.006031
43 0.005985
41 0.00601
55 0.005983
73 0.00597
85 0.00603
99 0.005034
107 0.005019
107 0.004986
106 0.005036
107 0.006029
118 0.00602
130 0.005979
150 0.005963
160 0.005996
167 0.006122
172 0.006031
176 0.006034
182 0.005017
187 0.005024
191 0.005051
195 0.00504
199 0.005035
205 0.006027
179 0.006024
58 0.005955
35 0.005965
36 0.005969
51 0.006015
66 0.005038
77 0.005064
86 0.005016
93 0.00502
97 0.005019
99 0.005985
103 0.00602
113 0.00502
133 0.005978
145 0.005988
153 0.005995
161 0.005033
167 0.005018
174 0.005033
179 0.005024
183 0.005033
188 0.005034
193 0.005018
199 0.005027
205 0.005018
204 0.000997
81 0.004974
43 0.004987
36 0.005954
46 0.004985
67 0.004987
78 0.004955
87 0.005035
97 0.004985
102 0.005024
104 0.004993
107 0.005025
121 0.004948
134 0.004989
146 0.004991
156 0.00498
164 0.004032
172 0.004024
177 0.005021
183 0.004973
187 0.004974
191 0.005041
197 0.005021
201 0.004999
207 0.004984
192 0.004987
117 0.004965
59 0.005017
41 0.004019
51 0.003975
69 0.003993
85 0.004027
96 0.00502
107 0.004989
111 0.004979
107 0.005023
109 0.004969
118 0.004983
130 0.004985
143 0.005001
154 0.003993
165 0.004047
171 0.004039
174 0.004046
179 0.00402
183 0.004026
190 0.005037
195 0.005014
178 0.004979
103 0.004999
55 0.004955
41 0.005035
47 0.005018
68 0.004019
81 0.00394
90 0.004031
102 0.004022
107 0.004029
105 0.00399
106 0.004023
118 0.005014
130 0.004965
142 0.005005
152 0.005016
160 0.005017
168 0.004043
173 0.004046
178 0.004018
182 0.004022
186 0.004032
191 0.004017
196 0.004024
126 0.004977
60 0.004019
36 0.003959
35 0.005028
47 0.004021
64 0.004033
71 0.004033
80 0.004036
88 0.00302
92 0.003991
94 0.003991
99 0.004033
116 0.003949
129 0.003992
140 0.002991
149 0.004033
156 0.004021
164 0.00402
169 0.004018
174 0.004053
179 0.004056
183 0.004061
189 0.004002
170 0.004023
79 0.003989
41 0.003946
42 0.003025
54 0.002993
67 0.002967
75 0.004059
87 0.004021
94 0.00402
96 0.003966
98 0.004002
101 0.003991
111 0.004027
128 0.003994
143 0.003957
152 0.003008
159 0.003003
164 0.002993
168 0.002992
175 0.002984
181 0.00398
186 0.004029
191 0.004031
174 0.003958
86 0.003988
48 0.003998
53 0.003946
69 0.003024
82 0.002984
91 0.002964
101 0.004004
107 0.002992
107 0.003991
107 0.003991
111 0.003996
120 0.003991
137 0.004032
152 0.003974
162 0.00399
167 0.002982
171 0.002994
175 0.002992
180 0.002992
186 0.002992
191 0.002973
196 0.002985
199 0.002992
173 0.004035
79 0.003959
41 0.003001
44 0.002992
56 0.002993
66 0.002993
72 0.003036
82 0.003028
92 0.002992
95 0.003001
97 0.002993
100 0.003128
108 0.002992
125 0.004027
141 0.00298
151 0.003942
157 0.002994
162 0.002994
168 0.002994
173 0.003033
180 0.002992
185 0.003026
189 0.002993
195 0.002993
200 0.002992
172 0.003991
74 0.002972
37 0.003958
38 0.002993
51 0.001995
63 0.001995
70 0.002992
80 0.003042
88 0.003053
93 0.002993
96 0.002993
98 0.01496
112 0.001994
129 0.002959
144 0.002041
154 0.001995
161 0.002986
167 0.001996
172 0.002026
180 0.002992
185 0.003022
190 0.002992
193 0.00299
198 0.002994
204 0.002993
209 0.002979
148 0.002992
75 0.002027
46 0.003006
42 0.002036
54 0.002028
75 0.001996
84 0.00297
95 0.002995
103 0.002992
107 0.002992
107 0.002974
111 0.002997
125 0.002032
137 0.002003
149 0.002026
159 0.001996
167 0.001987
174 0.001971
178 0.001994
183 0.001995
188 0.002026
194 0.003032
202 0.002992
183 0.002998
89 0.002024
54 0.001994
48 0.001995
58 0.001994
77 0.001995
96 0.001996
109 0.001995
119 0.001955
120 0.002001
118 0.001995
119 0.002051
130 0.001996
146 0.001995
158 0.001986
168 0.001995
177 0.002027
182 0.001996
187 0.001979
191 0.002006
195 0.001995
200 0.001995
204 0.001994
205 0.001992
104 0.002015
52 0.001993
36 0.001995
46 0.00203
60 0.001994
72 0.002025
80 0.002022
94 0.001995
100 0.002023
103 0.002036
104 0.001045
109 0.000997
127 0.000996
138 0.000998
154 0.001995
162 0.001995
169 0.002005
173 0.001997
178 0.001995
184 0.001995
189 0.001042
195 0.002042
197 0.002011
154 0.001971
48 0.001967
33 0.001026
43 0.001003
58 0.000998
71 0.000998
79 0.000998
90 0.001004
99 0.000998
102 0.000998
104 0.001995
109 0.001993
118 0.001995
139 0.001998
151 0.00203
162 0.000998
168 0.000998
174 0.001021
179 0.000998
184 0.001001
191 0.000998
196 0.000995
199 0.001959
190 0.002021
120 0.002033
44 0.001984
39 0.001996
55 0.000997
72 0.001028
86 0.000997
99 0.000998
107 0.001004
108 0.000995
106 0.000995
108 0.000997
115 0.000998
127 0.002017
147 0.001994
156 0.0
165 0.000998
171 0.000989
177 0.000946
182 0.001011
187 0.000998
180 0.000997
114 0.000997
62 0.001005
44 0.000997
47 0.000997
74 0.002026
88 0.0
105 0.0
113 0.000998
113 0.001004
110 0.000997
112 0.000998
123 0.000997
135 0.000997
146 0.000986
155 0.000997
163 0.000997
171 0.000997
176 0.0
183 0.0
189 0.0
186 0.000997
127 0.000997
65 0.001066
35 0.000997
38 0.000997
51 0.000998
65 0.0
73 0.000997
90 0.0
96 0.0
98 0.0
100 0.0
107 0.0
118 0.0
132 0.0
146 0.000997
155 0.00104
162 0.000979
168 0.001031
174 0.000997
175 0.000963
119 0.001017
51 0.0
35 0.0
41 0.0
56 0.0
69 0.0
83 0.0
93 0.0
99 0.0
101 0.000997
102 0.000999
113 0.000982
124 0.000994
140 0.0
150 0.0
159 0.0
166 0.0
173 0.0
179 0.0
142 0.0
78 0.0
46 0.0
40 0.0
60 0.0
73 0.0
86 0.0
97 0.0
104 0.0
106 0.0
107 0.0
115 0.0
125 0.0
138 0.0
151 0.0
161 0.0
173 0.0
178 0.000997
185 0.000998
180 0.000998
118 0.0
67 0.0
45 0.0
49 0.0
68 0.000998
81 0.0
97 0.000997
107 0.0
109 0.0
110 0.0
112 0.000998
123 0.000997
135 0.0
147 0.000999
159 0.0
167 0.0
172 0.00098
178 0.000988
184 0.000999
189 0.0
119 0.0
82 0.000998
51 0.000954
55 0.000998
70 0.000999
89 0.0
101 0.0
112 0.0
116 0.002025
115 0.002026
115 0.0
122 0.0
141 0.0
153 0.000998
163 0.0
170 0.000999
176 0.000999
181 0.0
186 0.0
191 0.0
197 0.001989
192 0.00202
106 0.0
60 0.0
47 0.0
60 0.0
73 0.0
82 0.00104
92 0.001035
102 0.0
107 0.0
109 0.0
112 0.002026
119 0.002026
134 0.0
146 0.0
162 0.0
169 0.0
175 0.00096
180 0.00103
185 0.001031
191 0.0
196 0.0
200 0.000999
206 0.001995
181 0.000999
83 0.0
48 0.0
50 0.001063
65 0.0
78 0.0
87 0.001042
97 0.001047
108 0.0
111 0.0
112 0.000998
118 0.001009
127 0.000997
139 0.000998
155 0.0
170 0.0
177 0.0
183 0.0
188 0.002023
194 0.002019
200 0.0
204 0.0
208 0.0
213 0.001039
218 0.001038
194 0.000971
138 0.001002
50 0.0
52 0.0
68 0.0
86 0.002018
98 0.001998
113 0.0
119 0.0
119 0.0
117 0.000964
119 0.000996
133 0.0
145 0.000999
172 0.0
176 0.0
166 0.0
155 0.002033
158 0.002048
180 0.0
195 0.0
207 0.0
211 0.001032
210 0.001995
208 0.0
210 0.0
217 0.0
222 0.0
227 0.0
231 0.0
233 0.002029
236 0.0
238 0.0
239 0.000998
240 0.001958
241 0.001954
242 0.000999
242 0.0
214 0.001025
98 0.001994
29 0.001994
10 0.001987
18 0.001963
47 0.001028
66 0.0
80 0.00101
91 0.000997
94 0.002001
94 0.000969
96 0.001024
105 0.001979
121 0.001987
134 0.001987
146 0.001999
156 0.001995
164 0.001995
172 0.001038
177 0.000996
183 0.001993
188 0.001995
193 0.001962
195 0.001993
107 0.002008
32 0.002026
21 0.001035
31 0.001032
48 0.001997
65 0.002008
85 0.001024
99 0.000955
104 0.000998
104 0.003026
104 0.002992
111 0.001012
125 0.001995
141 0.001996
153 0.002001
161 0.001993
168 0.002044
174 0.001995
182 0.00096
186 0.000993
191 0.000996
194 0.002992
153 0.003032
56 0.001965
29 0.002993
42 0.001993
62 0.002001
80 0.001999
97 0.001995
109 0.001995
110 0.001052
107 0.001052
106 0.001027
113 0.002992
123 0.002992
140 0.001999
153 0.003043
164 0.000967
170 0.002004
175 0.001939
180 0.00199
186 0.002992
186 0.001991
134 0.002003
62 0.001991
32 0.003011
27 0.002992
44 0.00098
64 0.002992
81 0.00094
91 0.001989
95 0.00199
94 0.00299
94 0.003026
102 0.001988
114 0.002002
127 0.002033
138 0.002998
147 0.002993
155 0.002014
162 0.002993
169 0.001028
175 0.000997
181 0.000997
181 0.00299
126 0.002987
45 0.002016
25 0.001992
28 0.002006
42 0.002998
55 0.002992
67 0.001997
82 0.002992
89 0.001992
91 0.000995
94 0.000999
100 0.002992
111 0.003989
128 0.001966
140 0.001979
149 0.002008
156 0.003989
162 0.002992
168 0.002021
175 0.002953
182 0.001028
189 0.001995
192 0.002
155 0.00399
80 0.003042
36 0.002001
34 0.001963
46 0.00201
61 0.004054
71 0.004021
84 0.001997
95 0.004019
98 0.002004
100 0.001995
105 0.001996
115 0.003047
127 0.002992
143 0.00299
153 0.002023
161 0.00201
167 0.003989
172 0.003982
179 0.001954
185 0.00399
191 0.002006
195 0.001996
200 0.002013
205 0.003989
209 0.002992
156 0.003028
80 0.00303
47 0.003011
41 0.003989
53 0.003987
70 0.004002
91 0.004019
101 0.004027
107 0.001969
106 0.002027
107 0.002985
111 0.004999
121 0.004987
139 0.002993
150 0.003011
159 0.00299
167 0.003999
172 0.003991
181 0.00402
186 0.003989
192 0.002005
197 0.001996
201 0.002985
206 0.005037
195 0.005038
99 0.002998
54 0.00311
39 0.003014
46 0.004021
62 0.003999
83 0.004041
94 0.004988
104 0.002001
106 0.002012
107 0.003014
109 0.005066
117 0.004987
133 0.00301
145 0.002994
156 0.003011
165 0.005051
172 0.00399
181 0.004023
186 0.003989
192 0.002992
196 0.002045
200 0.003046
204 0.004989
208 0.005027
170 0.002991
88 0.00296
46 0.002031
35 0.00503
43 0.004983
67 0.005024
75 0.005031
88 0.002965
96 0.003041
100 0.002979
100 0.005019
104 0.005053
115 0.003958
126 0.003988
140 0.003042
151 0.004966
160 0.005096
170 0.00502
175 0.005026
183 0.003044
187 0.003012
192 0.002996
196 0.005018
200 0.004987
198 0.003009
140 0.002998
70 0.003992
42 0.005074
40 0.004983
61 0.004987
74 0.004987
86 0.003023
97 0.003003
101 0.002985
100 0.004986
100 0.005037
108 0.002994
119 0.003006
132 0.003991
144 0.005017
153 0.006073
163 0.005984
168 0.005005
174 0.003985
178 0.003985
184 0.003009
190 0.004988
195 0.004987
182 0.003045
111 0.002992
60 0.002039
43 0.004983
48 0.005004
73 0.006003
84 0.005984
101 0.004009
109 0.004054
110 0.003996
108 0.005984
109 0.005984
120 0.003959
131 0.00398
144 0.002979
154 0.005017
161 0.005068
170 0.005035
175 0.004992
182 0.002994
186 0.003992
190 0.003992
194 0.005984
198 0.005983
203 0.004024
183 0.004019
103 0.002951
52 0.005988
34 0.004984
47 0.004988
61 0.004987
73 0.00405
82 0.004039
90 0.004001
94 0.006015
97 0.005984
102 0.00399
109 0.003995
121 0.002991
133 0.006014
143 0.005036
157 0.004987
164 0.005984
172 0.005005
176 0.004024
181 0.004033
186 0.006016
190 0.006039
195 0.006023
201 0.004006
205 0.002977
207 0.004036
175 0.005991
56 0.005013
35 0.006016
37 0.005986
55 0.003985
68 0.00499
76 0.004068
88 0.005985
95 0.005992
99 0.004005
101 0.003986
106 0.003962
115 0.007021
137 0.004993
149 0.006982
158 0.006982
170 0.00501
176 0.004947
182 0.004947
187 0.006045
192 0.006016
198 0.003989
201 0.003998
205 0.003992
210 0.006023
216 0.003992
201 0.007035
124 0.007033
55 0.005001
45 0.005016
54 0.005013
71 0.007015
89 0.00603
108 0.004977
122 0.004996
126 0.003032
124 0.005999
121 0.005002
129 0.007012
140 0.007013
157 0.005028
166 0.004976
173 0.003993
178 0.006983
182 0.007014
186 0.004016
191 0.003993
196 0.003993
200 0.00603
190 0.005034
118 0.006981
61 0.006979
39 0.004986
46 0.004996
61 0.004977
77 0.006953
89 0.006971
106 0.004983
112 0.005024
111 0.004019
108 0.007019
118 0.004968
130 0.007012
147 0.007987
157 0.00499
167 0.005024
173 0.004988
177 0.00703
182 0.006981
189 0.004027
194 0.00499
168 0.005062
93 0.007023
36 0.006005
37 0.006981
48 0.007022
64 0.004995
72 0.004978
83 0.005008
91 0.007024
95 0.007048
98 0.003973
102 0.004984
110 0.004017
124 0.007981
138 0.006011
149 0.007957
157 0.007985
162 0.004977
166 0.006002
170 0.005987
175 0.007022
181 0.007012
158 0.004985
86 0.004023
43 0.004035
29 0.007961
40 0.00599
50 0.00801
55 0.007979
67 0.005984
76 0.006
81 0.006024
85 0.006982
89 0.007979
97 0.004983
107 0.005967
118 0.006019
130 0.007972
140 0.005987
148 0.007967
152 0.007978
156 0.005987
161 0.005977
167 0.005985
173 0.006941
164 0.006976
85 0.004996
47 0.005033
35 0.005062
42 0.007963
58 0.006001
63 0.00798
71 0.007979
83 0.005982
89 0.005996
92 0.005994
96 0.007013
102 0.007016
111 0.005971
121 0.005042
130 0.006982
138 0.007979
148 0.005984
153 0.00598
160 0.007996
163 0.007951
169 0.005954
174 0.006007
179 0.005988
187 0.007977
181 0.008011
101 0.006981
69 0.005031
47 0.006005
56 0.006973
69 0.006034
78 0.007992
85 0.00797
95 0.006006
101 0.005013
103 0.005983
105 0.007981
108 0.00801
117 0.004994
130 0.00695
135 0.006949
147 0.006988
153 0.006979
158 0.007013
162 0.006966
167 0.007003
172 0.006985
177 0.006985
182 0.007989
187 0.007977
192 0.005967
194 0.005979
148 0.006015
65 0.005982
54 0.006968
67 0.006975
84 0.006982
98 0.006986
107 0.006977
114 0.006956
117 0.007969
116 0.007949
118 0.006974
122 0.00698
129 0.005967
143 0.005991
153 0.00697
160 0.007016
164 0.006983
170 0.00698
175 0.006947
178 0.006979
182 0.006969
186 0.006983
190 0.00602
194 0.006025
198 0.006977
176 0.006987
126 0.006964
59 0.00703
45 0.00702
53 0.006985
74 0.006977
85 0.006952
92 0.006926
100 0.006968
108 0.006962
110 0.006943
111 0.00698
117 0.00695
122 0.006981
135 0.006965
144 0.006984
156 0.006951
162 0.006945
165 0.006983
171 0.005978
176 0.006981
180 0.006988
186 0.006978
190 0.006941
197 0.005958
200 0.006011
204 0.006033
208 0.007015
183 0.00699
81 0.006968
44 0.006982
37 0.006939
49 0.006979
72 0.006981
84 0.00697
91 0.006978
101 0.006967
104 0.005977
105 0.006032
107 0.005938
115 0.005992
125 0.005975
135 0.005968
146 0.005975
155 0.006967
164 0.006966
169 0.006981
173 0.006989
179 0.005984
182 0.006967
188 0.006021
192 0.006019
197 0.00598
201 0.005972
205 0.005977
184 0.005959
102 0.006173
42 0.005968
33 0.006973
45 0.006945
74 0.005964
84 0.006932
94 0.006018
101 0.006012
104 0.005989
103 0.006017
105 0.005981
111 0.005985
122 0.005961
138 0.006949
149 0.00695
158 0.006985
168 0.006031
173 0.006026
178 0.006018
182 0.005986
187 0.006016
190 0.005987
194 0.005983
199 0.005994
203 0.006001
205 0.004964
127 0.005993
64 0.004952
35 0.005019
47 0.005028
65 0.00603
80 0.006011
90 0.00602
102 0.006019
105 0.005794
104 0.005984
103 0.005966
106 0.005983
118 0.005017
130 0.004977
150 0.005022
159 0.005022
165 0.006015
170 0.005965
174 0.005985
179 0.006021
183 0.005994
188 0.005953
193 0.00598
197 0.005981
158 0.005984
81 0.004963
30 0.005018
35 0.004967
52 0.004986
68 0.006017
79 0.006031
92 0.005978
98 0.005966
99 0.005982
99 0.005967
100 0.005975
110 0.005946
122 0.004983
143 0.004926
152 0.005035
159 0.005034
165 0.004978
170 0.004987
175 0.00507
179 0.004995
183 0.00499
187 0.00497
192 0.006
199 0.005968
175 0.004987
54 0.005
26 0.004981
28 0.005019
43 0.005013
59 0.005088
70 0.005037
78 0.004929
87 0.004952
91 0.006028
92 0.00496
95 0.004968
101 0.005015
119 0.005033
132 0.005027
143 0.003991
152 0.005025
157 0.005035
162 0.004988
166 0.004956
171 0.004967
176 0.004969
182 0.004935
188 0.005005
153 0.004888
50 0.004013
29 0.00399
34 0.004023
49 0.002994
62 0.005021
73 0.005023
83 0.004985
91 0.00499
95 0.004973
96 0.004992
100 0.005052
107 0.004998
127 0.00502
138 0.004982
147 0.004989
154 0.004031
160 0.004019
167 0.003957
171 0.004011
176 0.003992
181 0.003931
186 0.00499
193 0.004978
176 0.00498
67 0.004992
37 0.005019
37 0.004028
51 0.003994
67 0.003992
79 0.003991
88 0.003986
96 0.004016
100 0.003991
100 0.004
101 0.004985
108 0.004984
126 0.005043
137 0.004987
146 0.005019
154 0.005018
159 0.005029
166 0.004024
171 0.004004
177 0.004006
182 0.003959
188 0.003959
173 0.004022
106 0.003958
43 0.004036
43 0.002993
58 0.004034
72 0.004039
80 0.005019
93 0.003955
100 0.003977
103 0.003977
103 0.003991
105 0.003919
113 0.003958
126 0.00396
141 0.004039
153 0.004023
159 0.003991
165 0.003996
170 0.00404
175 0.002971
180 0.003974
185 0.003973
189 0.003971
194 0.00396
198 0.003996
205 0.003983
167 0.00399
72 0.003959
38 0.003961
35 0.003992
49 0.002992
63 0.002989
70 0.002991
78 0.003946
88 0.003955
95 0.003956
98 0.004
102 0.003946
111 0.00394
125 0.004014
136 0.00399
146 0.003995
154 0.003976
161 0.00298
168 0.002959
174 0.002958
179 0.003005
184 0.003017
188 0.002968
194 0.00398
199 0.00399
206 0.003959
211 0.003953
216 0.00399
200 0.003047
116 0.002992
46 0.003012
34 0.002991
43 0.003988
58 0.004052
69 0.002993
77 0.00395
90 0.00399
98 0.003033
101 0.004023
104 0.004025
111 0.002987
121 0.003051
138 0.002957
149 0.002975
159 0.003025
167 0.002989
172 0.003013
179 0.002976
185 0.003061
192 0.003026
197 0.003026
201 0.003965
205 0.004044
210 0.004018
217 0.002953
222 0.002981
201 0.002993
115 0.002961
61 0.002991
40 0.002988
57 0.003024
78 0.004028
87 0.002992
95 0.002992
104 0.001995
107 0.002968
107 0.002953
109 0.003032
116 0.003014
128 0.00299
141 0.002986
157 0.00299
168 0.003027
175 0.003037
179 0.002992
183 0.003018
188 0.002035
194 0.002993
201 0.002959
208 0.003008
209 0.003051
155 0.002967
83 0.003017
47 0.002992
53 0.002992
76 0.002992
89 0.003024
100 0.003035
111 0.002025
116 0.001987
115 0.002056
115 0.001927
119 0.002046
130 0.001978
143 0.002992
161 0.003032
173 0.003026
181 0.002992
185 0.002992
189 0.001995
194 0.001989
198 0.001983
205 0.002006
210 0.001966
211 0.00201
160 0.001969
80 0.00201
36 0.001976
40 0.002992
60 0.002992
73 0.001995
80 0.001979
90 0.001995
99 0.001971
104 0.001952
104 0.002008
108 0.001953
119 0.002005
132 0.002031
146 0.001981
164 0.002027
171 0.000998
180 0.001994
185 0.001996
190 0.001993
195 0.001999
199 0.001996
206 0.002008
211 0.001987
213 0.001989
162 0.001976
77 0.001002
32 0.001002
39 0.000998
61 0.001034
74 0.001996
81 0.002001
91 0.001996
99 0.002001
102 0.001972
102 0.001956
107 0.001979
116 0.001975
129 0.001996
151 0.002031
162 0.001002
172 0.000993
177 0.000998
181 0.00197
185 0.002002
191 0.001994
198 0.001045
204 0.002014
192 0.002008
116 0.001992
60 0.000948
40 0.002026
53 0.001031
76 0.001029
89 0.000999
101 0.001012
111 0.000986
113 0.001961
109 0.001983
110 0.002021
118 0.001984
131 0.002012
145 0.001993
164 0.001029
172 0.000997
179 0.000998
183 0.000994
188 0.000999
193 0.001008
199 0.001997
189 0.001971
114 0.002001
55 0.000999
34 0.002017
36 0.001996
62 0.000991
73 0.000997
84 0.000998
94 0.000998
99 0.00099
99 0.001004
101 0.000958
109 0.001953
120 0.002
135 0.001977
147 0.001964
158 0.001996
169 0.000998
174 0.001029
181 0.000997
187 0.001032
193 0.001001
198 0.001004
200 0.000997
118 0.001986
56 0.001996
32 0.00099
34 0.001994
48 0.000989
68 0.000999
75 0.000998
89 0.000997
97 0.0
100 0.000998
103 0.00098
108 0.001033
121 0.0
135 0.002012
148 0.001002
158 0.002
166 0.001974
175 0.0
180 0.0
186 0.000998
191 0.000995
198 0.001004
204 0.000948
204 0.001003
118 0.000986
60 0.000997
40 0.000997
43 0.000981
58 0.001
81 0.0
91 0.0
104 0.0
107 0.0
106 0.0
107 0.0
114 0.001007
129 0.000974
142 0.000995
154 0.0
163 0.001
172 0.0
181 0.0
187 0.0
195 0.0
200 0.0
193 0.0
124 0.0
66 0.0
43 0.000992
51 0.001026
68 0.001001
84 0.000991
96 0.0
114 0.0
115 0.0
113 0.0
116 0.0
125 0.0
137 0.0
150 0.0
165 0.001015
173 0.0
180 0.001008
185 0.0
190 0.0
197 0.0
202 0.0
206 0.0
147 0.0
71 0.0
38 0.0
34 0.0
46 0.000962
67 0.001026
76 0.001007
85 0.0
95 0.0
103 0.0
106 0.0
114 0.0
125 0.0
137 0.0
154 0.0
162 0.0
173 0.0
181 0.000955
187 0.001011
193 0.0
196 0.001002
208 0.000967
210 0.000992
165 0.001
82 0.000992
45 0.001988
41 0.0
55 0.0
71 0.0
82 0.001998
93 0.001994
106 0.0
110 0.0
112 0.0
117 0.0
127 0.0
141 0.002011
153 0.001993
167 0.0
175 0.0
179 0.001006
186 0.00202
192 0.00199
199 0.0
205 0.0
173 0.0
94 0.0
55 0.0
46 0.002005
56 0.001993
81 0.000975
97 0.001015
112 0.000955
123 0.003005
125 0.000981
123 0.000996
125 0.0
140 0.0
152 0.0
165 0.0
176 0.002011
184 0.00199
191 0.0
196 0.0
200 0.001015
204 0.001988
210 0.003009
188 0.0
103 0.0
40 0.0
41 0.0
54 0.0
71 0.001986
84 0.001988
101 0.0
107 0.001996
112 0.0
112 0.001977
115 0.001991
127 0.0
140 0.0
160 0.000984
167 0.000997
179 0.0
185 0.001996
190 0.00203
197 0.0
201 0.0
206 0.000959
211 0.002989
186 0.001993
76 0.0
40 0.0
41 0.00096
58 0.0
75 0.000999
86 0.002005
99 0.002046
109 0.0
111 0.001024
113 0.0
119 0.001992
130 0.001996
146 0.000924
158 0.000977
176 0.0
184 0.0
190 0.0
195 0.001996
199 0.001993
204 0.0
209 0.0
214 0.0
193 0.002016
109 0.002012
46 0.000966
39 0.00098
61 0.000972
79 0.0
93 0.0
107 0.001996
115 0.001992
115 0.0
114 0.0
119 0.0
128 0.002017
140 0.002035
157 0.000961
167 0.0
178 0.001019
183 0.0
189 0.0
194 0.001963
199 0.001998
171 0.0
94 0.000999
53 0.0
43 0.002027
53 0.002999
79 0.001006
97 0.0
122 0.0
125 0.000963
121 0.0
118 0.000953
122 0.002004
131 0.001989
147 0.0
159 0.00102
169 0.0
176 0.001998
182 0.002
188 0.0
195 0.002027
192 0.000963
128 0.0
61 0.0
35 0.002981
36 0.002056
55 0.0
70 0.0
82 0.0
94 0.003004
101 0.002023
103 0.0
105 0.001987
115 0.0
127 0.0
139 0.0
152 0.002027
161 0.002964
170 0.00093
176 0.000967
181 0.0
186 0.002963
192 0.002981
175 0.0
76 0.002054
35 0.001952
35 0.0
47 0.0
63 0.001992
75 0.003004
91 0.000955
100 0.001992
103 0.001997
105 0.002963
108 0.002955
121 0.001997
138 0.002025
153 0.001982
162 0.001994
170 0.000968
177 0.001992
182 0.00299
187 0.002001
192 0.002022
197 0.002004
196 0.00296
144 0.003035
59 0.001994
39 0.002992
51 0.001999
69 0.002002
83 0.001998
95 0.003006
106 0.003017
109 0.002025
107 0.000965
108 0.000972
116 0.002998
127 0.002992
144 0.002003
159 0.003038
168 0.001995
173 0.001997
178 0.001994
184 0.001995
189 0.002948
194 0.001998
151 0.002023
82 0.001994
53 0.002997
49 0.003008
66 0.001994
89 0.002997
110 0.001997
121 0.001933
122 0.001997
118 0.004022
117 0.003997
126 0.001992
138 0.002002
151 0.001995
163 0.002992
172 0.002991
180 0.001995
187 0.002992
194 0.0
198 0.001994
202 0.001995
175 0.003989
96 0.003988
44 0.001991
39 0.0
50 0.001984
65 0.003013
78 0.002997
93 0.002002
103 0.003025
106 0.002012
108 0.002008
114 0.002959
124 0.00398
137 0.004018
152 0.001997
162 0.001993
170 0.001993
177 0.003943
182 0.003991
188 0.002036
195 0.003991
202 0.001995
201 0.001999
144 0.001995
71 0.003989
40 0.003995
39 0.001947
55 0.002018
70 0.001961
80 0.003988
92 0.003955
102 0.002012
105 0.002992
109 0.001994
116 0.001997
127 0.001989
140 0.00396
152 0.004024
166 0.002007
174 0.002006
180 0.001992
186 0.004026
190 0.003021
195 0.004021
204 0.003009
209 0.003992
205 0.001995
140 0.002008
70 0.001996
43 0.004011
42 0.003986
61 0.002013
78 0.002033
90 0.001997
103 0.004025
111 0.004024
112 0.004025
113 0.00402
123 0.002011
134 0.00201
147 0.002006
159 0.004008
169 0.003979
179 0.002031
184 0.002015
189 0.001994
194 0.004041
198 0.00407
203 0.003989
167 0.00399
76 0.002993
50 0.002953
50 0.001979
65 0.005002
86 0.005
109 0.00202
124 0.001996
129 0.002001
127 0.003985
123 0.003993
130 0.003996
141 0.004023
157 0.002041
168 0.002953
177 0.001994
184 0.005051
189 0.00502
195 0.003027
199 0.001987
204 0.001999
207 0.003978
175 0.004016
58 0.004087
38 0.004024
43 0.002012
59 0.002962
75 0.002958
87 0.005043
100 0.005025
108 0.002948
109 0.002967
110 0.003012
116 0.005032
126 0.005031
146 0.005036
157 0.004018
169 0.00203
176 0.002945
181 0.002997
186 0.004988
191 0.005019
199 0.003046
198 0.003007
145 0.002003
69 0.005213
39 0.004986
42 0.004025
58 0.00399
78 0.00296
92 0.002972
104 0.002968
108 0.005012
109 0.005015
111 0.003012
118 0.00302
130 0.001994
143 0.005015
154 0.004953
169 0.005984
176 0.004953
183 0.002999
188 0.00296
193 0.002968
198 0.004979
196 0.005021
108 0.002034
56 0.003012
41 0.002964
45 0.005005
60 0.004988
88 0.004985
103 0.004987
114 0.002991
112 0.002989
108 0.002967
109 0.005004
117 0.005032
133 0.002963
145 0.003002
155 0.003006
162 0.005034
167 0.004991
177 0.005017
183 0.00597
189 0.002986
149 0.00304
79 0.003005
47 0.005978
41 0.006012
56 0.003075
75 0.003054
92 0.00305
108 0.005034
118 0.005078
113 0.005045
111 0.005018
118 0.002993
130 0.002967
143 0.003999
154 0.006016
163 0.006038
173 0.002992
178 0.00399
183 0.004032
189 0.006016
194 0.006021
145 0.005035
71 0.004985
31 0.00401
29 0.002967
42 0.003992
58 0.006018
72 0.00599
89 0.003956
97 0.003038
100 0.003057
100 0.002999
103 0.006022
117 0.004036
131 0.007037
143 0.006006
156 0.004016
164 0.003957
169 0.003974
176 0.006016
183 0.005983
191 0.003023
178 0.002973
102 0.004031
49 0.005984
31 0.003027
44 0.006034
61 0.007015
80 0.003031
94 0.002989
104 0.004024
107 0.006018
105 0.006014
108 0.002992
116 0.003957
128 0.002995
142 0.006027
161 0.003024
169 0.004979
174 0.006003
182 0.004999
188 0.004015
194 0.003977
198 0.005958
155 0.007012
66 0.003989
40 0.003026
41 0.002997
56 0.005984
86 0.002964
102 0.006003
115 0.006981
116 0.004009
113 0.004031
113 0.005004
118 0.007011
129 0.006975
149 0.003019
161 0.003035
171 0.003982
178 0.005966
188 0.00399
195 0.005995
198 0.006984
126 0.004026
68 0.004039
42 0.003026
42 0.005983
57 0.007001
81 0.003993
97 0.004958
113 0.005
120 0.00798
117 0.00404
117 0.007018
124 0.007049
139 0.003966
151 0.00403
161 0.004022
170 0.006063
177 0.007024
186 0.004015
193 0.004054
199 0.004008
204 0.007014
110 0.00398
55 0.006998
33 0.007977
43 0.002987
60 0.00398
76 0.003023
89 0.007032
102 0.007029
111 0.003997
112 0.00399
113 0.004986
118 0.00703
137 0.004967
150 0.007007
163 0.007974
176 0.004022
183 0.004022
189 0.002993
196 0.007015
202 0.00703
210 0.004985
187 0.003988
103 0.004974
55 0.006981
44 0.004014
60 0.007027
80 0.007034
101 0.004984
116 0.003959
123 0.003988
124 0.00702
122 0.007978
128 0.003985
138 0.004
150 0.004952
162 0.006982
179 0.004028
187 0.00698
193 0.007951
200 0.005002
205 0.004031
210 0.00502
184 0.007974
102 0.007957
58 0.004956
47 0.005007
56 0.004988
77 0.00798
111 0.003972
134 0.007975
137 0.007968
133 0.004954
129 0.004973
132 0.005956
145 0.00798
158 0.007966
169 0.005011
179 0.003965
187 0.004952
193 0.006982
203 0.00396
207 0.003916
211 0.007026
202 0.007977
123 0.004977
59 0.004977
37 0.00599
44 0.007977
62 0.007974
81 0.005998
98 0.005982
115 0.005985
122 0.005968
120 0.00595
122 0.007022
131 0.006981
143 0.005989
155 0.005933
168 0.006973
180 0.007979
186 0.007948
192 0.005984
198 0.00598
203 0.005997
210 0.005022
200 0.005971
94 0.007976
47 0.00796
35 0.005959
50 0.006974
63 0.006974
89 0.006981
106 0.006983
120 0.005995
123 0.006014
121 0.006023
122 0.005982
131 0.005929
147 0.007015
159 0.007005
170 0.006004
178 0.006
186 0.004981
194 0.006969
199 0.006951
205 0.006978
208 0.005972
188 0.005987
67 0.006005
44 0.005987
50 0.007947
69 0.006981
92 0.00599
112 0.005986
127 0.006983
127 0.00797
122 0.00697
119 0.006985
123 0.006981
134 0.006982
155 0.006968
167 0.006002
178 0.006981
185 0.006982
191 0.005984
196 0.005983
195 0.005952
112 0.006955
55 0.007946
37 0.006956
47 0.006955
65 0.006972
96 0.00698
108 0.006966
120 0.00698
118 0.006982
114 0.006965
118 0.006978
128 0.005958
139 0.005982
150 0.006982
164 0.005954
169 0.006969
177 0.006998
188 0.005977
190 0.006932
126 0.006975
59 0.006985
29 0.006958
31 0.006945
50 0.005982
67 0.006978
80 0.005984
98 0.006013
103 0.005988
103 0.005985
105 0.005977
113 0.005982
126 0.005983
138 0.006991
152 0.006971
160 0.006978
166 0.006032
172 0.007013
178 0.007009
184 0.006986
144 0.006966
92 0.00697
31 0.005978
33 0.005983
53 0.005985
69 0.006014
88 0.005977
96 0.004992
102 0.006967
101 0.006996
102 0.006952
107 0.005975
117 0.006975
129 0.006986
152 0.005943
159 0.005996
165 0.005991
170 0.005992
176 0.005985
183 0.005995
149 0.005947
82 0.005993
48 0.006937
41 0.005982
56 0.00698
73 0.005973
98 0.005985
108 0.005967
109 0.005984
106 0.005968
105 0.005987
111 0.005989
120 0.005024
131 0.005969
142 0.004981
151 0.007012
160 0.006024
166 0.005973
175 0.006019
181 0.005985
153 0.00597
88 0.005979
47 0.005982
37 0.00599
51 0.005957
69 0.005998
84 0.00599
99 0.005983
107 0.006009
106 0.006011
105 0.005986
111 0.005983
120 0.005994
131 0.005983
142 0.005984
153 0.005983
161 0.005017
167 0.006005
171 0.005017
177 0.005039
183 0.005022
187 0.004984
99 0.005976
48 0.006017
28 0.005956
32 0.005953
48 0.005983
68 0.005972
79 0.005982
90 0.00604
97 0.006017
99 0.005987
100 0.005979
105 0.004977
122 0.004987
133 0.004987
143 0.005001
152 0.00499
160 0.004975
168 0.006023
173 0.005988
178 0.005977
183 0.00603
188 0.006025
195 0.005987
176 0.005985
62 0.005954
32 0.005997
31 0.005971
47 0.005968
65 0.00597
81 0.004976
93 0.004992
101 0.00494
106 0.005011
107 0.005031
112 0.004988
122 0.004979
144 0.005968
155 0.005985
163 0.006018
168 0.005982
174 0.004991
189 0.00498
198 0.00498
202 0.004998
203 0.003975
202 0.003998
205 0.00497
209 0.004986
217 0.004988
222 0.005007
228 0.004029
231 0.003982
234 0.004947
237 0.00498
239 0.005021
240 0.005023
241 0.00502
242 0.005021
245 0.004986
245 0.005017
246 0.005036
221 0.005006
100 0.003955
31 0.004021
10 0.004008
26 0.004998
52 0.004985
79 0.004977
99 0.005021
113 0.004983
110 0.004987
102 0.004985
101 0.004955
111 0.004954
125 0.003972
140 0.003997
152 0.003963
164 0.003966
171 0.004001
178 0.005018
184 0.005003
188 0.005019
194 0.004969
199 0.004949
193 0.00497
107 0.004987
40 0.003999
14 0.003987
16 0.003994
42 0.00396
62 0.003952
78 0.00499
93 0.005012
103 0.004985
104 0.004973
103 0.004984
111 0.005004
123 0.004006
137 0.003987
150 0.003963
160 0.003953
171 0.003942
178 0.003988
184 0.003948
189 0.003998
194 0.004021
198 0.005021
203 0.004984
123 0.004997
37 0.003955
17 0.00397
23 0.00399
42 0.003991
62 0.003954
83 0.003957
97 0.003974
102 0.003989
101 0.003989
100 0.003985
104 0.005027
117 0.002999
135 0.003957
147 0.003996
156 0.003989
163 0.004008
169 0.003978
174 0.004956
179 0.003991
184 0.00399
189 0.003991
188 0.004014
99 0.004021
34 0.004969
24 0.002989
39 0.003965
59 0.003979
74 0.003943
88 0.003955
99 0.003976
98 0.003992
94 0.00299
94 0.004032
101 0.004024
114 0.003992
130 0.003965
143 0.002973
151 0.002997
156 0.002981
162 0.002992
168 0.003965
174 0.003957
138 0.004066
74 0.003991
36 0.003991
28 0.003956
46 0.003992
68 0.003976
88 0.00296
98 0.002975
100 0.002992
98 0.002992
97 0.002993
104 0.003997
114 0.003992
126 0.003958
137 0.004037
145 0.004045
154 0.004025
161 0.003963
169 0.002937
175 0.00296
176 0.002959
127 0.00296
64 0.003009
24 0.003948
26 0.003022
41 0.00305
54 0.00399
63 0.003992
78 0.00399
90 0.003968
93 0.002953
94 0.002963
99 0.002991
108 0.00299
119 0.004006
132 0.003983
141 0.002993
146 0.003019
152 0.001983
158 0.002026
167 0.003056
175 0.001958
173 0.002947
117 0.002992
59 0.002016
30 0.001994
29 0.003054
47 0.003047
60 0.002992
69 0.001942
81 0.003029
92 0.002993
97 0.002992
99 0.003023
105 0.004004
114 0.001995
125 0.00296
135 0.001966
143 0.003044
154 0.002972
160 0.002991
165 0.003023
169 0.002992
174 0.003014
180 0.002992
189 0.002985
192 0.00199
140 0.001996
75 0.001978
40 0.001992
36 0.002008
57 0.001983
72 0.003056
81 0.002999
92 0.002993
101 0.002993
106 0.00203
107 0.001996
113 0.001998
122 0.002001
133 0.002021
143 0.002011
152 0.002004
162 0.002025
168 0.002047
173 0.003025
178 0.002992
183 0.003025
190 0.002003
198 0.00204
201 0.001942
130 0.002
69 0.002027
40 0.001989
41 0.001946
57 0.0
75 0.001996
84 0.002028
94 0.001995
104 0.002059
109 0.001995
112 0.001978
116 0.001999
128 0.002011
140 0.002026
152 0.002033
162 0.00202
170 0.002025
179 0.001993
185 0.001994
190 0.002029
194 0.001967
199 0.001032
206 0.001999
212 0.001994
219 0.002032
204 0.002039
122 0.001998
62 0.001987
37 0.001983
47 0.002031
64 0.002045
77 0.001997
86 0.001996
98 0.000997
112 0.000997
115 0.000981
117 0.001013
124 0.002006
134 0.001014
146 0.001025
160 0.002059
174 0.00201
181 0.002015
187 0.002035
193 0.002042
198 0.002042
205 0.002004
209 0.001995
215 0.001961
220 0.001001
225 0.001995
228 0.000998
180 0.00205
76 0.001995
46 0.002042
46 0.000998
63 0.001996
82 0.002038
104 0.001997
117 0.000999
124 0.001996
122 0.000997
119 0.001031
123 0.000995
133 0.001043
151 0.001996
166 0.000998
177 0.002003
186 0.002034
192 0.002058
200 0.001976
205 0.001987
211 0.001997
216 0.0
222 0.00199
220 0.001972
156 0.000996
67 0.001958
44 0.001031
48 0.001006
67 0.000998
89 0.002012
112 0.001996
126 0.00199
130 0.002028
127 0.001994
125 0.0
130 0.000997
143 0.001029
162 0.000998
174 0.000997
184 0.000997
191 0.001022
197 0.000997
205 0.001
210 0.000993
214 0.0
217 0.0
221 0.0
221 0.0
163 0.0
59 0.000997
33 0.000995
34 0.000997
51 0.000998
71 0.000997
95 0.000988
108 0.000996
116 0.0
116 0.0
115 0.0
120 0.0
132 0.0
149 0.0
161 0.000997
173 0.000998
182 0.000997
188 0.000997
197 0.0
201 0.0
207 0.0
211 0.0
215 0.0
219 0.0
222 0.0
183 0.0
67 0.0
36 0.0
33 0.000997
48 0.0
82 0.000995
97 0.0
111 0.0
118 0.0
115 0.0
111 0.0
116 0.0
127 0.0
145 0.0
159 0.0
169 0.000998
178 0.0
189 0.0
194 0.000975
199 0.0
204 0.0
208 0.0
213 0.0
188 0.0
98 0.0
36 0.0
28 0.0
41 0.0
62 0.0
91 0.001018
106 0.000996
115 0.001007
113 0.000998
110 0.0
115 0.0
126 0.0
140 0.0
152 0.001993
164 0.001994
176 0.0
182 0.000967
190 0.0
194 0.001028
197 0.001012
203 0.002992
207 0.003011
212 0.0
213 0.0
166 0.0
71 0.002027
28 0.002028
22 0.000987
36 0.000997
66 0.0
78 0.0
90 0.0
96 0.002989
95 0.00299
95 0.0
100 0.0
111 0.0
124 0.002039
138 0.002024
152 0.0
159 0.0
170 0.0
175 0.0
179 0.000991
183 0.002993
186 0.00299
193 0.0
197 0.0
186 0.0
107 0.003034
48 0.003023
26 0.0
35 0.0
63 0.0
76 0.000973
89 0.000961
97 0.002005
97 0.002024
93 0.0
95 0.0
102 0.0
113 0.003024
126 0.003025
141 0.0
149 0.000963
159 0.001006
163 0.000998
168 0.0
172 0.001994
178 0.002029
183 0.001011
134 0.000998
69 0.000941
37 0.002026
32 0.002038
52 0.000965
70 0.0
93 0.0
104 0.0
105 0.0
102 0.003959
99 0.003039
104 0.0
114 0.0
126 0.000967
138 0.002025
148 0.002026
157 0.001
161 0.0
168 0.001022
171 0.000961
176 0.001
181 0.002996
180 0.003002
95 0.0
43 0.0
22 0.0
26 0.002027
43 0.002024
63 0.000961
74 0.0
89 0.0
93 0.000982
92 0.001005
92 0.003023
96 0.002942
108 0.0
119 0.0
130 0.0
139 0.002024
146 0.002032
154 0.0
158 0.0
165 0.0
169 0.0
174 0.0
179 0.000956
184 0.00204
180 0.002997
89 0.000988
36 0.0
18 0.0
24 0.003022
43 0.002992
62 0.0
73 0.00199
85 0.0
89 0.0
90 0.000935
90 0.002014
95 0.002025
106 0.001033
117 0.0
128 0.0
137 0.003022
143 0.003021
150 0.0
156 0.002995
163 0.0
168 0.0
172 0.0
177 0.002024
183 0.002025
184 0.000983
125 0.000995
60 0.000995
26 0.002994
22 0.002997
43 0.0
64 0.002999
77 0.0
87 0.0
93 0.00098
95 0.001984
95 0.002013
100 0.000955
109 0.000963
120 0.001019
132 0.002995
142 0.002028
152 0.0
159 0.002993
165 0.0
171 0.0
177 0.0
181 0.003049
140 0.003049
62 0.0
35 0.0
36 0.0
53 0.002029
72 0.002028
90 0.0
105 0.002958
108 0.001007
106 0.0
107 0.0
112 0.003023
120 0.003017
136 0.0
148 0.0
157 0.0
165 0.00303
171 0.002031
177 0.0
185 0.002943
169 0.000962
102 0.002988
54 0.0
38 0.002992
46 0.003002
72 0.0
87 0.0
100 0.0
110 0.003025
113 0.003028
109 0.0
110 0.002977
120 0.0
132 0.000994
143 0.002987
152 0.002992
159 0.003037
165 0.003015
170 0.00205
175 0.003028
182 0.002992
187 0.004044
135 0.001856
60 0.002991
39 0.000921
51 0.002993
71 0.000966
87 0.004022
100 0.003031
112 0.002982
113 0.002993
112 0.002993
111 0.002994
116 0.003032
129 0.002992
143 0.002994
156 0.00299
163 0.002001
169 0.001981
174 0.00296
178 0.002959
184 0.002963
189 0.002961
195 0.003024
201 0.002992
182 0.002995
87 0.003021
37 0.003039
42 0.001994
61 0.001991
76 0.002027
85 0.002985
94 0.003983
104 0.00203
108 0.001986
108 0.001987
111 0.004001
117 0.003999
130 0.001993
146 0.002978
158 0.002995
165 0.002983
171 0.002987
175 0.002993
179 0.00399
186 0.002985
191 0.002028
197 0.002994
203 0.001985
203 0.003989
145 0.004052
51 0.004036
38 0.004006
56 0.002958
73 0.001995
85 0.002946
95 0.004023
104 0.003992
110 0.00301
111 0.002991
111 0.002992
116 0.004021
125 0.004039
145 0.003989
156 0.003966
168 0.001994
174 0.001967
179 0.002934
184 0.004991
187 0.005033
193 0.002994
198 0.002994
204 0.002993
208 0.003989
182 0.00399
69 0.004034
44 0.004044
53 0.002025
73 0.001994
90 0.002022
102 0.003989
112 0.00502
118 0.002004
116 0.001993
114 0.001995
117 0.003989
126 0.004023
147 0.003997
159 0.004029
171 0.002998
178 0.002027
182 0.002012
186 0.003958
190 0.005005
196 0.001988
200 0.002015
206 0.002989
207 0.005004
158 0.00495
51 0.00396
34 0.003992
47 0.002988
66 0.001987
79 0.002002
87 0.004986
98 0.004987
106 0.002012
108 0.001998
108 0.001995
112 0.004987
120 0.004987
140 0.003976
151 0.004001
163 0.002993
171 0.002016
177 0.00299
182 0.005035
186 0.004993
192 0.002006
196 0.002012
202 0.002017
187 0.004988
114 0.004997
40 0.004097
37 0.00502
58 0.001996
74 0.002964
83 0.002942
93 0.005989
102 0.006026
108 0.00299
108 0.002993
109 0.002951
115 0.004959
125 0.004954
147 0.005047
158 0.00499
169 0.002012
175 0.002823
180 0.003029
187 0.004988
194 0.004992
187 0.001994
120 0.002983
67 0.001961
43 0.005017
47 0.005023
77 0.00501
92 0.004969
109 0.002976
117 0.002013
118 0.002002
116 0.005042
115 0.005033
124 0.001995
136 0.001997
148 0.001996
160 0.003967
168 0.00503
180 0.004988
186 0.006017
189 0.002982
141 0.00202
84 0.002006
53 0.005019
52 0.005016
76 0.003024
94 0.001992
111 0.002026
126 0.004958
132 0.004955
123 0.005983
121 0.005983
128 0.002992
140 0.002993
154 0.003043
167 0.005984
177 0.006014
186 0.00301
193 0.003003
193 0.002989
138 0.005972
77 0.004976
44 0.005975
57 0.005036
83 0.003011
97 0.002956
111 0.003012
121 0.003023
123 0.006015
120 0.006055
119 0.002999
126 0.003001
137 0.002992
151 0.004987
169 0.003984
177 0.005984
183 0.005984
192 0.002956
178 0.00296
106 0.002979
50 0.006017
29 0.006005
40 0.002991
60 0.003024
75 0.003047
85 0.005991
103 0.001986
107 0.005023
108 0.005984
112 0.003991
119 0.003988
130 0.003025
142 0.007042
153 0.005984
165 0.003011
173 0.003029
180 0.003958
186 0.006989
183 0.002991
113 0.007061
52 0.006031
25 0.004009
37 0.004976
57 0.005001
71 0.006037
81 0.006048
97 0.003991
105 0.003959
109 0.003993
109 0.005988
118 0.002986
129 0.006029
142 0.007008
158 0.003931
167 0.003991
174 0.004008
181 0.006982
186 0.007034
194 0.00401
199 0.004006
202 0.004023
208 0.006008
219 0.003018
220 0.005984
152 0.006039
53 0.00397
28 0.003989
34 0.004007
54 0.006982
73 0.007029
87 0.004006
97 0.004002
104 0.00398
108 0.007033
112 0.002995
117 0.005984
127 0.005981
144 0.004025
156 0.004022
167 0.003997
175 0.007021
181 0.007013
187 0.004009
192 0.003987
197 0.003981
202 0.007009
211 0.003
216 0.005984
221 0.007001
187 0.004949
99 0.004956
49 0.004036
36 0.007012
49 0.007012
79 0.003937
97 0.004009
111 0.00401
121 0.007017
120 0.003942
117 0.007978
120 0.007014
133 0.004001
148 0.005
162 0.004946
174 0.006982
183 0.006943
191 0.00501
197 0.005004
200 0.004038
204 0.006999
211 0.003049
216 0.008021
220 0.007979
226 0.005017
197 0.004988
190 0.004037
92 0.007014
42 0.007061
29 0.004025
45 0.003981
67 0.004948
83 0.007021
104 0.003971
111 0.007972
110 0.008017
109 0.004958
113 0.004978
123 0.004027
137 0.007061
152 0.007015
168 0.00404
177 0.004025
183 0.003962
189 0.007942
196 0.005001
201 0.007985
205 0.007976
211 0.004954
216 0.005017
222 0.005006
193 0.007978
128 0.007974
42 0.005015
25 0.004988
34 0.004974
54 0.006985
82 0.004978
95 0.004982
106 0.007996
109 0.007971
106 0.00501
107 0.005007
114 0.005055
126 0.007977
147 0.007982
160 0.005
170 0.004983
178 0.004988
187 0.006001
192 0.005064
197 0.007988
201 0.007973
206 0.005005
210 0.005007
214 0.004989
186 0.007949
95 0.007964
35 0.006007
29 0.004995
43 0.004994
76 0.005003
91 0.003975
109 0.007993
111 0.007973
105 0.005987
101 0.005004
105 0.004999
119 0.007987
135 0.00796
148 0.004996
159 0.004991
165 0.005956
173 0.005951
177 0.005956
184 0.006978
188 0.007014
195 0.005996
192 0.006033
126 0.005021
50 0.007941
34 0.007966
38 0.004994
57 0.005023
77 0.001997
104 0.005996
113 0.006006
108 0.006977
102 0.006983
103 0.005984
112 0.005986
124 0.005045
145 0.007968
156 0.007987
164 0.004988
169 0.004984
175 0.003995
181 0.005992
186 0.005994
191 0.006965
196 0.006934
168 0.005982
86 0.006013
36 0.00599
19 0.007952
32 0.007975
50 0.004987
64 0.004972
76 0.006054
90 0.005984
92 0.005976
91 0.006978
95 0.006967
104 0.005978
117 0.005998
130 0.005998
145 0.006959
154 0.007975
161 0.006953
166 0.005016
171 0.006015
179 0.005998
183 0.005998
191 0.006952
194 0.006985
145 0.006006
69 0.005977
21 0.006015
22 0.00697
38 0.006978
60 0.005993
70 0.006961
77 0.006006
90 0.00601
91 0.005972
94 0.00698
100 0.006979
110 0.005985
123 0.00595
137 0.005988
151 0.006981
159 0.006968
167 0.005959
172 0.005977
176 0.005953
183 0.005932
188 0.005966
195 0.007004
201 0.006981
191 0.005993
116 0.005997
55 0.005988
26 0.006976
35 0.006977
59 0.005978
69 0.005996
83 0.005945
97 0.005961
98 0.005964
97 0.007009
99 0.006982
107 0.006978
119 0.005982
133 0.006026
149 0.007012
158 0.007002
164 0.005986
169 0.00598
173 0.005933
183 0.005967
190 0.005935
196 0.006015
191 0.006015
102 0.005995
67 0.006016
41 0.006939
49 0.006948
67 0.006729
84 0.005985
102 0.006015
113 0.005983
113 0.005983
109 0.005966
112 0.005936
120 0.004985
133 0.006017
152 0.005967
163 0.005959
171 0.00596
176 0.00598
181 0.007016
185 0.005968
191 0.005968
198 0.005985
203 0.00594
179 0.005972
99 0.006013
49 0.006021
32 0.005988
45 0.005996
61 0.005973
72 0.005022
80 0.00504
94 0.00502
100 0.004956
102 0.005962
106 0.005981
114 0.005985
126 0.006025
139 0.005996
155 0.005939
163 0.005984
169 0.005984
174 0.005986
179 0.005018
185 0.004974
189 0.005005
198 0.004977
204 0.004939
185 0.004966
106 0.005019
52 0.006015
31 0.00599
41 0.005976
56 0.005989
67 0.006018
74 0.005983
88 0.005992
95 0.005986
98 0.004985
101 0.004987
108 0.004963
120 0.004987
133 0.004986
145 0.006016
156 0.005971
163 0.006002
169 0.00598
174 0.006033
180 0.005004
184 0.005022
192 0.005985
197 0.004989
203 0.004971
196 0.004989
126 0.005017
55 0.004934
39 0.004935
48 0.004953
65 0.006014
77 0.006018
87 0.005983
97 0.005019
103 0.004941
102 0.004989
104 0.004972
111 0.005018
121 0.005017
137 0.004976
148 0.005065
156 0.005019
161 0.005023
166 0.004992
172 0.004988
178 0.005003
187 0.004992
194 0.004988
196 0.004975
146 0.00494
85 0.005021
48 0.00496
52 0.004995
69 0.004968
84 0.00502
95 0.005046
109 0.004988
114 0.003989
112 0.003995
112 0.004021
118 0.00499
128 0.005023
140 0.00502
155 0.00499
164 0.004984
170 0.005
175 0.005023
179 0.004983
184 0.004996
188 0.004981
197 0.004991
201 0.003988
164 0.004987
89 0.005013
46 0.004028
36 0.004982
50 0.003953
66 0.003973
76 0.005027
82 0.004989
94 0.004949
100 0.004999
103 0.00499
106 0.004949
113 0.003944
124 0.00398
136 0.004023
151 0.004034
159 0.00399
166 0.003996
171 0.004022
175 0.003988
181 0.003937
186 0.004061
196 0.005027
201 0.004994
175 0.003992
98 0.004989
49 0.004028
32 0.003988
45 0.003986
62 0.003998
73 0.003976
80 0.004013
90 0.004018
100 0.004008
103 0.004027
106 0.004996
114 0.004986
126 0.004008
138 0.004027
151 0.004045
164 0.003971
169 0.003993
174 0.003993
179 0.00399
183 0.004025
189 0.003963
196 0.003991
204 0.002961
209 0.004977
177 0.003981
98 0.003992
51 0.004029
40 0.004028
55 0.003987
73 0.003963
86 0.003991
97 0.004026
109 0.003954
112 0.003992
111 0.004955
114 0.003998
123 0.002992
137 0.003991
151 0.00404
167 0.004069
174 0.004031
180 0.002955
185 0.00403
189 0.003994
194 0.003994
200 0.003955
208 0.004029
213 0.002981
202 0.002978
123 0.00399
61 0.002992
