181 0.018982
181 0.003004
186 0.003988
190 0.00399
197 0.003931
198 0.003935
204 0.003992
207 0.003988
167 0.003991
127 0.003956
119 0.002991
130 0.003019
139 0.002994
148 0.00299
151 0.002969
159 0.002993
163 0.002993
159 0.002961
156 0.002992
159 0.002993
170 0.002984
177 0.003937
186 0.002991
193 0.002994
196 0.002992
203 0.002991
202 0.003012
206 0.002993
212 0.002992
184 0.002992
144 0.002993
123 0.002986
129 0.002992
140 0.002958
148 0.001994
156 0.001998
160 0.001994
166 0.002007
162 0.001994
159 0.001996
161 0.002947
167 0.002034
174 0.001965
182 0.001962
191 0.001994
196 0.00199
198 0.001995
200 0.001992
203 0.001995
209 0.000997
185 0.002991
130 0.002004
112 0.001995
113 0.001993
124 0.002044
131 0.001997
137 0.002009
141 0.002004
145 0.002993
145 0.001995
142 0.001995
142 0.001003
149 0.001996
153 0.000999
160 0.001958
167 0.000989
172 0.001953
177 0.001952
186 0.001993
187 0.001995
189 0.000982
191 0.001996
197 0.000997
190 0.00099
144 0.000996
107 0.000995
98 0.000966
106 0.000974
117 0.000966
121 0.000997
130 0.001032
134 0.001995
132 0.000998
128 0.00099
130 0.001009
134 0.000998
142 0.000952
151 0.001002
155 0.001003
162 0.000998
164 0.001001
162 0.000967
169 0.000997
160 0.000997
120 0.000997
85 0.000998
87 0.0
98 0.0
106 0.0
110 0.000997
125 0.000998
126 0.0
124 0.001002
119 0.0
118 0.0
125 0.0
134 0.0
138 0.0
143 0.000994
150 0.000998
151 0.000982
154 0.000953
151 0.0
113 0.0
73 0.0
62 0.0
74 0.0
81 0.0
82 0.0
87 0.0
94 0.0
91 0.0
86 0.0
86 0.0
92 0.0
99 0.000997
106 0.00097
114 0.0
123 0.0
125 0.0
130 0.0
130 0.0
135 0.0
134 0.000996
105 0.0
62 0.0
38 0.0
38 0.000998
49 0.000997
56 0.0
60 0.00101
67 0.0
72 0.0
69 0.0
65 0.001997
64 0.000998
75 0.0
81 0.000994
87 0.0
90 0.000997
96 0.000997
101 0.0
106 0.000998
105 0.001012
113 0.0
113 0.00101
78 0.00099
40 0.000998
29 0.001008
33 0.000999
41 0.001013
51 0.000992
51 0.000968
55 0.000957
56 0.000928
50 0.000989
50 0.000995
56 0.000997
62 0.001952
73 0.001935
80 0.001009
87 0.000998
93 0.000997
95 0.002044
97 0.002013
95 0.001029
36 0.001995
15 0.000998
16 0.001976
23 0.002006
31 0.001939
35 0.001995
41 0.001006
44 0.000998
40 0.001002
38 0.001995
36 0.001995
43 0.001995
56 0.002993
63 0.002993
69 0.001996
73 0.002013
78 0.001986
82 0.001927
84 0.001991
90 0.001995
94 0.001995
88 0.001995
52 0.002001
17 0.001965
7 0.002953
16 0.002962
23 0.001988
24 0.002007
29 0.001956
36 0.00296
39 0.002951
35 0.001997
35 0.002044
42 0.001971
48 0.001995
57 0.001994
67 0.002995
70 0.003018
73 0.003046
80 0.002995
88 0.001994
88 0.002972
97 0.002992
103 0.001979
107 0.001992
115 0.001995
97 0.002999
53 0.002993
23 0.00402
27 0.00399
43 0.002956
45 0.002994
47 0.002989
55 0.002992
62 0.003001
58 0.003002
58 0.002992
59 0.00304
70 0.002998
75 0.003023
87 0.003989
95 0.00399
101 0.002993
104 0.003005
111 0.002995
116 0.003997
122 0.003982
128 0.00299
139 0.003042
137 0.003068
98 0.004986
66 0.003991
62 0.003983
72 0.003991
82 0.004068
86 0.00399
88 0.003991
94 0.003991
93 0.00399
88 0.003989
93 0.003016
102 0.002991
108 0.003041
118 0.003989
128 0.004004
135 0.004989
136 0.005064
142 0.003997
146 0.00399
149 0.003989
149 0.004952
121 0.004036
81 0.00404
65 0.004041
70 0.003989
86 0.00401
92 0.004017
98 0.005047
108 0.004987
115 0.003988
111 0.00399
108 0.004021
112 0.00504
120 0.004953
131 0.003951
141 0.004031
145 0.004052
152 0.004999
160 0.005017
165 0.005984
162 0.006014
171 0.004975
176 0.005043
181 0.00501
186 0.004987
191 0.004987
196 0.004989
181 0.00398
132 0.004054
101 0.005038
103 0.004986
114 0.005991
123 0.006026
128 0.005035
135 0.004975
143 0.005029
143 0.006018
135 0.005984
140 0.005044
146 0.005006
150 0.00503
158 0.005027
170 0.005986
176 0.005987
178 0.005995
181 0.00501
190 0.00502
190 0.006019
197 0.006034
203 0.006035
208 0.006
191 0.005022
150 0.005
123 0.005015
131 0.005985
144 0.005984
155 0.006982
163 0.006982
168 0.006034
173 0.005945
171 0.006032
165 0.005985
170 0.00601
174 0.005984
182 0.006024
191 0.005051
199 0.005953
206 0.005983
207 0.006982
209 0.005984
210 0.006021
200 0.006043
161 0.006037
123 0.006981
126 0.006966
139 0.005985
150 0.005986
156 0.005935
166 0.005944
168 0.006011
166 0.006982
163 0.006984
167 0.00605
172 0.006015
175 0.006032
182 0.007932
191 0.007948
197 0.00703
197 0.007014
199 0.006986
207 0.006982
210 0.006981
209 0.006981
214 0.007993
177 0.006973
132 0.005984
120 0.005977
125 0.007014
135 0.007949
147 0.007024
150 0.006976
157 0.006942
162 0.006927
155 0.006964
154 0.007979
160 0.007949
166 0.007038
172 0.007015
176 0.006969
185 0.006967
191 0.007975
191 0.007948
195 0.006928
201 0.006924
188 0.00698
147 0.007011
120 0.007026
121 0.007979
137 0.007013
144 0.007031
152 0.006951
161 0.006981
165 0.006982
160 0.007016
155 0.007017
159 0.006981
165 0.007929
175 0.007073
180 0.006981
186 0.007034
191 0.007017
194 0.00702
199 0.007933
191 0.007946
150 0.007979
125 0.007942
110 0.007906
119 0.00703
134 0.007016
138 0.006989
144 0.006989
147 0.00703
146 0.007012
140 0.007015
140 0.007031
147 0.007013
150 0.007014
158 0.006982
166 0.006017
167 0.006017
176 0.006022
175 0.006977
181 0.007028
183 0.007012
185 0.00698
161 0.007028
114 0.007011
88 0.006982
87 0.007034
100 0.007015
109 0.006019
109 0.006019
116 0.006004
121 0.006017
120 0.006026
113 0.006019
115 0.006985
125 0.007016
130 0.006017
139 0.007078
141 0.007051
145 0.006976
149 0.006029
154 0.006018
161 0.005963
162 0.006016
167 0.006
171 0.005023
175 0.006019
152 0.006036
94 0.005984
79 0.004988
86 0.00603
99 0.005011
104 0.004988
104 0.005962
110 0.00499
117 0.006027
112 0.005974
107 0.006018
116 0.005943
120 0.00598
128 0.006018
137 0.005021
144 0.005985
146 0.004988
150 0.004987
154 0.004981
161 0.005034
164 0.004988
168 0.004993
175 0.003992
155 0.005023
112 0.005985
83 0.004932
91 0.006017
100 0.005018
110 0.004988
113 0.005033
124 0.005019
128 0.005014
125 0.005021
123 0.005019
127 0.004014
138 0.005034
141 0.005034
145 0.004017
155 0.00402
156 0.004037
161 0.003994
163 0.004022
166 0.003992
170 0.003921
149 0.004989
108 0.004988
81 0.004031
79 0.005019
87 0.005033
98 0.004021
102 0.004056
103 0.003966
111 0.003994
112 0.004016
107 0.00406
109 0.004038
114 0.003941
122 0.00399
129 0.002962
134 0.00399
138 0.00399
144 0.003037
149 0.00399
149 0.003989
154 0.004023
160 0.003996
160 0.004038
166 0.004025
165 0.004051
112 0.00399
77 0.003017
68 0.00399
76 0.003956
86 0.003029
88 0.003033
91 0.002992
96 0.003001
100 0.00399
93 0.003023
89 0.003991
94 0.002995
102 0.003992
108 0.004033
118 0.002992
123 0.002989
130 0.002999
132 0.002954
137 0.002959
139 0.002993
141 0.002992
142 0.002996
149 0.003035
114 0.002967
62 0.002993
53 0.002992
62 0.003026
73 0.004015
79 0.002976
88 0.001995
94 0.002993
92 0.002999
86 0.002994
86 0.002992
95 0.003022
103 0.002991
108 0.002992
113 0.003007
123 0.003021
124 0.003024
126 0.001995
130 0.001995
127 0.002026
101 0.001994
64 0.001996
45 0.001995
52 0.003039
61 0.001996
65 0.002003
69 0.002983
76 0.001995
79 0.002993
74 0.002993
75 0.001994
79 0.001995
87 0.001995
94 0.001995
104 0.001995
112 0.001996
115 0.000966
117 0.001029
124 0.001995
130 0.001996
133 0.001995
137 0.001001
142 0.001002
138 0.000997
101 0.002
62 0.001026
45 0.001963
58 0.00106
65 0.001068
68 0.001995
73 0.000973
81 0.001019
84 0.001995
82 0.001995
79 0.001029
87 0.000996
97 0.000998
100 0.000997
109 0.000997
116 0.000965
122 0.000997
126 0.000998
133 0.000997
139 0.000992
141 0.000998
150 0.000997
156 0.000998
149 0.000996
107 0.000998
77 0.0
72 0.000997
90 0.0
99 0.001033
102 0.001027
111 0.001013
117 0.000998
116 0.000998
113 0.000994
115 0.000997
130 0.0
138 0.0
144 0.0
153 0.0
161 0.0
167 0.001038
168 0.001024
174 0.000963
166 0.000998
124 0.001003
94 0.001036
90 0.0
102 0.0
112 0.0
117 0.0
124 0.0
137 0.0
137 0.0
134 0.001028
135 0.0
143 0.0
153 0.000966
163 0.0
167 0.0
171 0.0
177 0.000968
181 0.001003
185 0.0
194 0.002055
200 0.0
200 0.0
206 0.0
207 0.0
161 0.001041
115 0.0
111 0.0
120 0.0
132 0.000998
135 0.000998
135 0.0
147 0.000997
149 0.0
150 0.0
147 0.000998
152 0.000996
159 0.001996
169 0.0
175 0.0
182 0.0
189 0.000999
191 0.000998
196 0.0
201 0.000998
209 0.000996
211 0.001009
216 0.000998
225 0.000965
196 0.001566
141 0.000942
129 0.0
137 0.0
151 0.000999
158 0.000997
166 0.000999
169 0.000999
173 0.00096
171 0.0
171 0.0
176 0.001995
187 0.001031
195 0.001042
202 0.001063
207 0.000993
212 0.002026
212 0.002021
216 0.001001
219 0.003044
187 0.002955
140 0.000997
135 0.00099
144 0.002062
153 0.002022
160 0.001995
169 0.000992
175 0.001008
177 0.001022
175 0.001995
172 0.001995
177 0.001997
184 0.003045
192 0.00101
198 0.002009
203 0.001996
205 0.003019
207 0.002031
215 0.001994
219 0.002031
220 0.002047
224 0.002992
218 0.002053
149 0.002963
127 0.002992
134 0.00107
145 0.002036
152 0.002005
153 0.002992
159 0.002994
167 0.002018
165 0.001951
160 0.002028
163 0.002992
168 0.003046
178 0.002991
182 0.002949
193 0.002046
196 0.002043
197 0.001955
203 0.002992
208 0.003023
210 0.003054
216 0.003057
217 0.00302
202 0.00304
158 0.002992
125 0.002992
133 0.003017
148 0.002066
151 0.00203
155 0.002026
163 0.002992
168 0.003037
162 0.003023
160 0.002992
164 0.003047
171 0.004022
176 0.003991
188 0.004037
197 0.004037
201 0.003068
204 0.003018
210 0.003026
195 0.004043
155 0.003042
127 0.003989
125 0.003991
141 0.002988
148 0.003044
155 0.003989
169 0.002999
170 0.00399
165 0.004
164 0.003035
166 0.003073
170 0.00304
173 0.003989
178 0.004987
185 0.003976
188 0.004044
193 0.004038
194 0.004986
200 0.004051
187 0.005013
144 0.00399
108 0.003034
108 0.003015
119 0.002996
126 0.004036
131 0.004988
135 0.004009
139 0.004032
142 0.00402
139 0.004986
140 0.005023
143 0.004987
150 0.00504
161 0.004033
165 0.00498
166 0.005042
171 0.004987
176 0.006017
177 0.004988
181 0.004015
187 0.004036
192 0.005034
153 0.004009
110 0.004986
95 0.004989
104 0.003991
112 0.004035
118 0.004024
117 0.004986
127 0.006017
131 0.005023
129 0.005036
123 0.00499
125 0.006033
133 0.004979
142 0.004986
148 0.004995
151 0.004004
155 0.003949
159 0.004969
163 0.006034
164 0.005984
171 0.004998
172 0.005011
139 0.005034
98 0.00501
86 0.005053
101 0.005037
110 0.005984
113 0.006032
122 0.005986
131 0.006044
122 0.005955
115 0.005984
115 0.005985
123 0.004929
131 0.004987
138 0.004957
150 0.006014
154 0.005984
156 0.007008
159 0.006982
163 0.006016
133 0.005986
91 0.006017
71 0.007034
72 0.006989
83 0.006032
89 0.006055
89 0.006041
99 0.005982
101 0.005007
98 0.006016
95 0.007019
99 0.005972
106 0.006013
112 0.005989
119 0.006981
124 0.007056
125 0.006033
130 0.006029
134 0.006017
142 0.006043
146 0.006011
150 0.007024
152 0.007948
157 0.007034
158 0.007033
109 0.005993
68 0.00703
53 0.007032
61 0.005995
72 0.005982
74 0.006016
76 0.006012
82 0.006018
85 0.007946
79 0.007933
74 0.006978
79 0.007029
86 0.007011
94 0.007934
100 0.007967
108 0.005967
113 0.006002
117 0.005963
123 0.006983
124 0.006999
127 0.007949
135 0.007945
139 0.007949
146 0.006981
152 0.006979
143 0.007033
97 0.007949
62 0.007942
54 0.006981
62 0.007047
71 0.006997
71 0.006992
78 0.007085
84 0.007978
84 0.00794
80 0.006981
81 0.007007
87 0.006981
94 0.007948
100 0.007948
110 0.007005
113 0.006985
119 0.007041
123 0.00701
128 0.00702
134 0.007981
140 0.006984
144 0.007014
154 0.007018
139 0.007012
94 0.006982
63 0.007013
64 0.006981
71 0.007013
82 0.007029
87 0.006949
95 0.005987
98 0.007016
95 0.007028
91 0.007013
98 0.006981
103 0.006983
112 0.006983
117 0.007014
125 0.006982
127 0.007021
133 0.007027
139 0.00598
139 0.005984
148 0.005984
152 0.006019
154 0.005941
159 0.006017
126 0.007039
84 0.007015
64 0.007018
69 0.005982
76 0.007013
81 0.006018
86 0.005984
93 0.006019
97 0.005981
94 0.006031
91 0.006014
93 0.006031
99 0.005962
109 0.005989
114 0.006031
125 0.00602
137 0.005997
144 0.005979
149 0.005993
150 0.005984
153 0.006019
155 0.006016
157 0.005986
160 0.005973
165 0.005984
151 0.005984
108 0.005986
76 0.005985
73 0.005036
85 0.005035
92 0.005035
92 0.005037
97 0.004971
103 0.00502
105 0.006019
99 0.005985
104 0.006017
112 0.006034
116 0.006017
123 0.004986
135 0.005036
140 0.005028
147 0.005021
147 0.004988
151 0.004988
156 0.00504
162 0.005034
165 0.005023
170 0.004989
177 0.005021
159 0.00399
115 0.005043
81 0.005023
94 0.004986
107 0.005018
115 0.004987
122 0.005017
127 0.005017
131 0.003969
124 0.005017
118 0.005034
125 0.004023
130 0.004016
139 0.00403
146 0.004027
154 0.004037
158 0.004052
162 0.003991
168 0.004977
169 0.004986
172 0.005024
155 0.005025
113 0.003972
87 0.003991
86 0.004025
97 0.004033
106 0.004022
107 0.004023
111 0.004018
118 0.003927
114 0.004
108 0.004023
111 0.004043
116 0.00399
125 0.004021
134 0.004036
138 0.002994
143 0.004023
147 0.002993
151 0.004026
149 0.004022
161 0.004052
164 0.004029
164 0.004029
169 0.004041
163 0.004043
105 0.004065
78 0.003991
76 0.003991
85 0.00399
96 0.00399
94 0.002999
99 0.002992
107 0.003023
106 0.002988
101 0.002992
105 0.002992
104 0.002979
112 0.001993
122 0.004014
123 0.003989
125 0.003032
130 0.003033
137 0.002992
138 0.002988
143 0.002992
151 0.002993
157 0.002994
160 0.002981
163 0.002998
160 0.002992
115 0.002994
78 0.002996
68 0.003023
81 0.003958
90 0.001995
92 0.001995
93 0.001993
101 0.002926
100 0.001995
98 0.002998
96 0.002995
102 0.003025
111 0.003023
117 0.002992
125 0.003026
130 0.002992
137 0.002031
139 0.001995
142 0.001994
151 0.00203
153 0.001995
157 0.002064
164 0.001995
173 0.002016
143 0.001992
105 0.002001
88 0.000947
97 0.000998
106 0.002033
111 0.001995
115 0.001995
124 0.001978
124 0.001997
124 0.001995
122 0.002028
128 0.001985
137 0.002002
144 0.001995
152 0.000999
156 0.001
161 0.000997
162 0.001025
166 0.000967
170 0.000998
171 0.000997
175 0.000998
180 0.000923
160 0.001995
104 0.002005
89 0.001995
93 0.000998
107 0.000998
111 0.000997
112 0.000997
121 0.00101
123 0.000998
122 0.000997
123 0.001994
123 0.000998
131 0.0
141 0.00101
148 0.0
150 0.0
157 0.0
162 0.000998
161 0.000997
167 0.001005
170 0.001033
174 0.000998
177 0.000997
179 0.0
149 0.0
100 0.0
90 0.0
97 0.0
111 0.0
112 0.0
114 0.0
121 0.0
119 0.000997
114 0.0
115 0.000997
118 0.000997
128 0.0
134 0.0
140 0.0
145 0.0
150 0.0
155 0.0
157 0.0
164 0.0
165 0.0
172 0.000996
178 0.0
142 0.000997
104 0.0
94 0.000997
99 0.000998
113 0.0
122 0.000997
126 0.000997
133 0.000997
132 0.0
126 0.001002
121 0.001041
128 0.001028
141 0.0
145 0.0
153 0.0
158 0.001008
164 0.001
164 0.000997
167 0.000996
172 0.0
143 0.0
118 0.000997
86 0.000994
90 0.00101
99 0.000933
106 0.000993
108 0.000942
112 0.001005
116 0.002033
114 0.000975
109 0.001024
115 0.0
124 0.0
129 0.0
137 0.000999
145 0.000989
149 0.000999
153 0.000956
160 0.000997
162 0.001995
163 0.001995
167 0.001997
160 0.001977
105 0.001942
80 0.001058
81 0.000948
91 0.001032
97 0.000966
97 0.001007
104 0.000959
111 0.000965
114 0.002012
108 0.001992
107 0.00199
111 0.001995
117 0.001994
126 0.000997
132 0.001034
140 0.001035
143 0.002021
143 0.001995
150 0.000979
154 0.001018
154 0.000969
162 0.002025
167 0.001053
143 0.001995
99 0.00206
81 0.001049
89 0.001053
99 0.002042
104 0.002038
107 0.003046
112 0.001996
117 0.001996
117 0.001011
112 0.002993
119 0.000991
125 0.001984
132 0.002009
141 0.000958
145 0.001994
149 0.002041
155 0.002992
157 0.002993
162 0.002042
167 0.002026
140 0.002062
103 0.003042
90 0.002033
102 0.00307
108 0.002992
115 0.002014
123 0.001963
126 0.001991
127 0.002992
123 0.003005
123 0.002003
130 0.002017
137 0.001987
144 0.003022
153 0.002001
156 0.003025
162 0.003024
165 0.002045
169 0.002987
172 0.003053
176 0.004032
177 0.003989
151 0.002004
110 0.00304
89 0.001977
88 0.00299
99 0.001984
106 0.003042
105 0.002992
113 0.002028
120 0.002992
119 0.003065
114 0.004062
115 0.003989
118 0.004015
128 0.00303
135 0.003027
139 0.003986
142 0.004025
147 0.003025
151 0.004987
154 0.003991
157 0.002998
162 0.002961
168 0.002996
154 0.003992
112 0.004001
77 0.003022
79 0.003061
89 0.004038
97 0.003039
98 0.002984
104 0.00502
106 0.004987
106 0.004041
102 0.003024
104 0.002999
112 0.004987
120 0.004986
127 0.003008
130 0.002985
138 0.00396
144 0.003998
143 0.003994
148 0.004986
150 0.004972
159 0.004022
133 0.00402
93 0.004016
74 0.004988
81 0.004985
93 0.004021
98 0.004988
102 0.004955
114 0.004078
114 0.00399
105 0.00502
106 0.004986
113 0.00401
120 0.004005
129 0.004005
136 0.005047
140 0.005984
145 0.004022
148 0.004981
148 0.005019
142 0.005014
103 0.005041
75 0.006039
71 0.006016
78 0.003993
86 0.00399
90 0.004014
92 0.005049
96 0.005025
103 0.003987
99 0.004988
96 0.004953
103 0.004028
111 0.004997
116 0.005041
127 0.005984
131 0.005942
141 0.004986
143 0.004987
147 0.004986
149 0.005983
155 0.005984
160 0.005985
161 0.005029
162 0.005021
126 0.004034
87 0.004979
71 0.006013
76 0.006033
93 0.004987
95 0.005039
92 0.004987
102 0.006035
109 0.005991
106 0.006036
104 0.005969
111 0.00596
120 0.005966
124 0.006017
130 0.006981
136 0.006977
144 0.006034
145 0.005048
149 0.005
155 0.007009
161 0.007975
167 0.005961
171 0.005978
182 0.005966
166 0.006033
121 0.006003
91 0.00701
93 0.007034
108 0.006009
120 0.006009
123 0.005971
131 0.007015
139 0.007016
137 0.006985
136 0.005984
141 0.005995
149 0.006035
157 0.006052
164 0.007018
172 0.006976
176 0.005988
180 0.005952
186 0.005983
188 0.006985
175 0.007943
138 0.006979
113 0.007017
116 0.00699
125 0.006974
138 0.007028
146 0.007952
151 0.007962
157 0.007945
156 0.005964
153 0.006004
155 0.005987
159 0.007894
169 0.007988
172 0.006978
180 0.007927
186 0.00696
191 0.006965
198 0.007012
200 0.007945
205 0.007966
208 0.006016
183 0.005976
134 0.006952
118 0.006973
127 0.007193
136 0.006961
145 0.00798
149 0.007034
156 0.006999
160 0.007001
158 0.007972
158 0.007948
160 0.007023
169 0.007015
173 0.006962
180 0.007013
184 0.007025
193 0.007012
196 0.007014
201 0.006981
202 0.006972
189 0.006947
137 0.007026
120 0.007013
123 0.006961
144 0.006984
151 0.007018
148 0.007015
158 0.007026
163 0.007024
158 0.007027
155 0.007016
161 0.006948
170 0.007008
175 0.007014
181 0.007017
193 0.005988
192 0.006019
194 0.006019
199 0.005992
198 0.006014
148 0.006017
122 0.007023
135 0.007012
146 0.007014
154 0.006981
161 0.006984
165 0.006017
168 0.006019
161 0.005981
160 0.005995
167 0.006014
174 0.006016
179 0.005995
189 0.006031
193 0.005981
197 0.005974
200 0.007032
192 0.005029
158 0.005989
125 0.005975
115 0.006015
125 0.006015
137 0.005978
143 0.005927
146 0.006027
157 0.006016
157 0.00604
154 0.006018
156 0.005018
162 0.005023
169 0.004988
172 0.005023
179 0.00502
187 0.005018
186 0.005985
188 0.006048
188 0.00602
140 0.005871
109 0.006022
106 0.005022
117 0.005031
122 0.005011
129 0.005031
129 0.00502
139 0.005031
140 0.00502
133 0.005023
131 0.00403
137 0.004016
149 0.004022
155 0.003977
158 0.005037
163 0.005038
166 0.00502
170 0.005007
170 0.005032
178 0.005017
159 0.005029
115 0.003979
93 0.004025
96 0.003989
118 0.005034
119 0.004037
123 0.00399
133 0.003986
131 0.00402
124 0.00402
123 0.004021
130 0.005027
137 0.005016
140 0.005027
149 0.004018
155 0.003989
160 0.004049
163 0.004023
171 0.004037
161 0.004016
123 0.00403
99 0.004105
99 0.003992
111 0.00399
121 0.004022
126 0.003012
137 0.003974
138 0.002989
138 0.00399
134 0.002957
141 0.002975
147 0.002948
151 0.002992
161 0.003989
164 0.002988
168 0.00404
172 0.004014
171 0.003991
176 0.002991
165 0.002994
104 0.003019
93 0.003035
103 0.002993
116 0.004064
120 0.002993
123 0.002992
131 0.003021
138 0.002994
136 0.00304
131 0.002992
135 0.001977
140 0.00299
151 0.003033
158 0.003008
167 0.002992
171 0.002996
170 0.002937
174 0.002935
176 0.002968
177 0.002932
186 0.003028
188 0.00294
192 0.002998
195 0.003031
202 0.002992
204 0.002986
167 0.003023
111 0.002994
103 0.002987
114 0.002965
122 0.002989
132 0.002974
133 0.001973
136 0.001994
145 0.001978
143 0.002025
141 0.002046
143 0.001985
152 0.001995
156 0.001999
166 0.002029
172 0.001995
173 0.002061
181 0.002996
185 0.001066
190 0.001994
195 0.001987
196 0.001962
204 0.001995
200 0.001996
159 0.002041
126 0.002046
120 0.002025
135 0.001966
146 0.002005
157 0.002055
161 0.00103
171 0.001052
173 0.001033
166 0.001034
169 0.000997
171 0.000998
180 0.000994
186 0.000997
190 0.002002
196 0.002069
204 0.001991
205 0.001981
206 0.001028
211 0.001037
186 0.001
144 0.001044
121 0.000997
133 0.000997
144 0.000999
151 0.000997
156 0.000997
165 0.000998
170 0.001995
167 0.000997
161 0.0
167 0.0
174 0.0
178 0.0
190 0.000997
196 0.000997
202 0.000998
203 0.000997
206 0.000997
212 0.000997
213 0.000987
205 0.0
163 0.0
124 0.0
123 0.0
136 0.0
149 0.0
152 0.0
159 0.0
165 0.000992
164 0.000997
160 0.001008
160 0.001001
166 0.0
173 0.0
180 0.0
188 0.0
192 0.0
201 0.0
201 0.0
206 0.0
209 0.0
215 0.0
172 0.0
133 0.000997
123 0.0
134 0.001
146 0.001006
156 0.0
162 0.000998
173 0.0
167 0.0
162 0.000938
166 0.000997
172 0.0
176 0.001044
181 0.000999
191 0.0
196 0.0
200 0.0
206 0.000998
205 0.002057
144 0.002022
122 0.002041
130 0.0
141 0.0
148 0.0
156 0.000966
165 0.001039
169 0.000947
167 0.000926
164 0.0
164 0.001035
168 0.000999
178 0.000998
183 0.001
193 0.0
195 0.00095
197 0.000998
202 0.000997
169 0.002003
119 0.0
111 0.0
118 0.0
131 0.002028
138 0.000997
150 0.001049
157 0.001047
152 0.0
148 0.0
148 0.0
155 0.001996
159 0.001995
167 0.0
177 0.0
182 0.000999
183 0.001038
188 0.003054
187 0.001001
145 0.001995
108 0.002048
100 0.001002
112 0.000996
125 0.000991
129 0.002992
134 0.002993
145 0.001967
142 0.000957
139 0.001967
137 0.002043
145 0.000954
150 0.001995
158 0.002042
168 0.001983
171 0.000991
174 0.001003
174 0.003002
185 0.001965
156 0.001951
116 0.002074
96 0.001999
103 0.003039
122 0.000998
127 0.003043
131 0.003042
143 0.000943
137 0.001047
130 0.001006
130 0.003035
137 0.002993
146 0.000998
155 0.001966
164 0.001963
167 0.002992
173 0.001963
174 0.003039
154 0.003042
99 0.002026
83 0.002
88 0.002058
100 0.003043
109 0.003061
118 0.003042
127 0.003031
129 0.002984
122 0.002992
117 0.000988
120 0.004032
128 0.003989
134 0.001997
141 0.000995
146 0.002022
151 0.003041
153 0.002992
157 0.002961
129 0.003006
84 0.001956
59 0.004066
69 0.00202
76 0.003043
82 0.003989
83 0.003033
90 0.002982
93 0.002952
87 0.003057
82 0.004011
85 0.003975
91 0.002023
94 0.001972
101 0.003026
110 0.001998
113 0.001998
116 0.004988
124 0.003989
127 0.003006
131 0.003009
125 0.00299
82 0.003989
42 0.003989
27 0.003007
38 0.003023
48 0.002949
51 0.002993
58 0.003038
63 0.00399
60 0.005062
55 0.00299
57 0.003041
60 0.003042
68 0.004991
74 0.00504
82 0.002986
86 0.003994
94 0.002976
97 0.003976
101 0.004006
106 0.005015
110 0.005002
64 0.004039
30 0.004022
24 0.004027
34 0.005032
43 0.004988
50 0.004077
56 0.004959
62 0.003988
56 0.00301
51 0.003973
58 0.004988
64 0.005985
75 0.004002
84 0.003996
91 0.001995
95 0.004986
101 0.004986
108 0.004018
110 0.00494
91 0.00501
32 0.004034
23 0.005048
30 0.006032
42 0.005958
47 0.004008
51 0.004011
61 0.004005
62 0.005992
56 0.006006
57 0.005985
62 0.004951
67 0.004956
80 0.004981
89 0.005015
96 0.005009
98 0.006013
103 0.006035
107 0.005018
110 0.006022
107 0.006038
74 0.006982
35 0.006982
24 0.004957
35 0.004955
46 0.004995
48 0.003073
53 0.00499
60 0.006018
60 0.00603
58 0.004973
60 0.00499
65 0.005991
71 0.006981
78 0.007017
88 0.00598
96 0.006014
106 0.005001
109 0.005072
113 0.005039
116 0.007013
124 0.007012
130 0.004985
134 0.005011
140 0.005003
145 0.00798
151 0.006981
157 0.005956
126 0.006
60 0.006012
58 0.006001
68 0.005985
81 0.007041
85 0.007042
88 0.005981
98 0.006019
99 0.006982
96 0.007979
94 0.007955
100 0.006982
109 0.007045
124 0.005981
130 0.005982
137 0.005996
142 0.007973
147 0.007026
151 0.005993
153 0.005989
158 0.005989
164 0.007981
146 0.007979
93 0.00701
78 0.007017
87 0.007944
98 0.006977
105 0.007014
113 0.006048
121 0.007948
122 0.007979
121 0.006002
118 0.00695
123 0.006953
134 0.006968
144 0.007012
149 0.007006
158 0.007941
164 0.007007
169 0.006945
174 0.007027
175 0.007949
178 0.00798
185 0.00701
159 0.006959
127 0.00695
92 0.007028
91 0.007011
108 0.006951
118 0.007018
120 0.006968
125 0.006962
133 0.007014
134 0.007988
130 0.007012
137 0.007011
145 0.006972
151 0.007011
156 0.007002
162 0.007007
169 0.006963
175 0.007012
181 0.006973
183 0.006981
189 0.006977
195 0.007001
203 0.00599
175 0.005953
129 0.006003
109 0.006984
113 0.006981
126 0.006983
137 0.007016
147 0.007012
156 0.00696
156 0.006948
152 0.006968
150 0.006015
153 0.006036
164 0.006007
171 0.006019
175 0.005974
184 0.006029
192 0.006008
193 0.006014
198 0.00602
204 0.006018
179 0.006022
139 0.006012
121 0.006051
128 0.006023
139 0.005992
151 0.005972
156 0.006017
166 0.006016
168 0.005955
167 0.005992
159 0.005989
163 0.005985
171 0.006014
176 0.006017
182 0.005018
188 0.004989
195 0.005033
198 0.004988
199 0.005012
195 0.004995
156 0.005019
120 0.006022
115 0.006014
130 0.006022
140 0.006015
140 0.005985
148 0.005031
154 0.005016
153 0.005037
147 0.00495
148 0.004966
153 0.005034
157 0.005037
165 0.004031
173 0.005034
180 0.004989
180 0.005018
184 0.00502
189 0.003986
190 0.005029
191 0.005058
146 0.005048
106 0.00499
93 0.004988
101 0.00502
112 0.004965
119 0.005025
125 0.005023
132 0.00502
133 0.005025
130 0.003993
128 0.004957
132 0.005041
140 0.003962
146 0.00399
151 0.004988
154 0.004991
162 0.005043
165 0.005017
167 0.005019
169 0.00399
173 0.00399
178 0.004016
152 0.00399
112 0.003996
89 0.002991
93 0.003992
106 0.00399
112 0.004039
115 0.002985
122 0.003953
122 0.003959
116 0.003992
114 0.004051
120 0.003987
128 0.003937
136 0.003989
142 0.004031
145 0.004052
154 0.004025
153 0.003991
157 0.004025
150 0.004016
110 0.00403
80 0.00402
73 0.002994
83 0.003024
88 0.003003
98 0.003004
98 0.003989
106 0.00399
109 0.003991
102 0.004038
100 0.00399
108 0.003991
116 0.004108
123 0.004
127 0.004015
135 0.003023
139 0.002997
143 0.002994
144 0.002991
150 0.003043
153 0.003026
126 0.002994
85 0.001987
63 0.003042
73 0.002992
79 0.002992
84 0.003005
90 0.003018
95 0.001996
103 0.002029
97 0.002008
96 0.001965
99 0.001972
103 0.001972
111 0.00204
121 0.003001
130 0.002996
132 0.002012
138 0.002976
142 0.001995
144 0.002993
150 0.002991
155 0.001964
161 0.002994
164 0.001994
166 0.001935
174 0.002022
179 0.003027
150 0.002027
99 0.002027
80 0.002022
87 0.001997
96 0.001996
106 0.000999
108 0.002041
114 0.001996
121 0.002043
121 0.002023
116 0.001025
119 0.001001
128 0.001994
134 0.001995
142 0.001957
149 0.002013
156 0.002032
161 0.00203
162 0.000928
167 0.000996
174 0.00099
177 0.001011
182 0.001054
192 0.000997
193 0.001036
158 0.000983
122 0.000997
107 0.001032
115 0.001975
129 0.002
135 0.000998
141 0.000998
154 0.001996
154 0.001039
148 0.001031
147 0.000997
154 0.000997
161 0.000998
167 0.001006
177 0.001008
181 0.001044
184 0.0
186 0.001053
192 0.002033
194 0.0
194 0.0
200 0.0
142 0.000999
113 0.001001
107 0.001
119 0.001034
133 0.000999
137 0.0
144 0.001032
150 0.0
155 0.0
150 0.0
146 0.0
149 0.0
161 0.0
172 0.0
175 0.0
179 0.0
184 0.0
189 0.0
193 0.0
195 0.0
200 0.0
201 0.000939
162 0.0
124 0.0
111 0.0
121 0.0
130 0.0
135 0.0
137 0.000996
146 0.0
150 0.0
145 0.000972
146 0.000995
150 0.000999
160 0.001
164 0.000997
175 0.0
179 0.002014
183 0.000964
188 0.000999
190 0.001005
193 0.001007
198 0.002991
172 0.000998
120 0.0
109 0.0
117 0.00199
132 0.00102
143 0.000999
149 0.001032
158 0.0
152 0.0
149 0.0
148 0.001996
157 0.00203
166 0.0
169 0.000997
179 0.0
182 0.002043
186 0.00203
189 0.002026
195 0.002029
151 0.000947
115 0.0
106 0.0
114 0.00103
122 0.001996
132 0.00101
136 0.0
142 0.001001
143 0.002027
142 0.001997
135 0.000992
143 0.001994
150 0.0
156 0.0
163 0.0
167 0.001028
175 0.001995
178 0.000972
177 0.0
175 0.0
137 0.001031
97 0.001996
86 0.000971
99 0.002006
106 0.002043
108 0.0
114 0.0
121 0.001994
123 0.001996
119 0.002001
118 0.001977
122 0.000963
125 0.001962
133 0.002949
144 0.001007
147 0.002989
147 0.002021
155 0.002002
157 0.00201
159 0.00197
167 0.003079
160 0.002057
100 0.001995
74 0.000986
73 0.00104
84 0.002981
97 0.001012
97 0.002992
100 0.002993
107 0.001002
103 0.001057
98 0.001971
103 0.003
111 0.004
119 0.003015
127 0.002003
131 0.000952
136 0.003
140 0.00095
142 0.003025
147 0.003046
142 0.001984
105 0.001985
74 0.002007
71 0.004036
79 0.00395
90 0.002052
99 0.001069
103 0.001981
110 0.003994
105 0.000983
102 0.003959
106 0.00399
114 0.00195
123 0.00202
131 0.003002
137 0.003994
138 0.004046
144 0.001996
144 0.001982
144 0.002962
137 0.003991
70 0.001996
56 0.002959
60 0.004011
71 0.004021
79 0.002994
81 0.002962
88 0.00204
88 0.003995
90 0.004877
85 0.003027
85 0.00295
91 0.002962
103 0.002007
111 0.002958
114 0.004988
117 0.005023
125 0.002998
131 0.001988
130 0.001984
133 0.00405
139 0.003989
109 0.003018
67 0.003984
46 0.003991
54 0.003
64 0.003948
65 0.004989
67 0.004986
76 0.00296
77 0.002979
77 0.003003
75 0.004986
79 0.005019
85 0.003013
94 0.003007
100 0.003959
110 0.002997
117 0.003959
117 0.00497
121 0.004988
125 0.003958
131 0.003995
138 0.003997
134 0.004987
92 0.005034
54 0.003972
55 0.003998
67 0.004992
80 0.003015
82 0.003989
91 0.006015
97 0.006015
90 0.003999
87 0.003961
93 0.003992
99 0.005046
106 0.00599
117 0.00402
122 0.004024
130 0.004029
138 0.004047
142 0.005009
147 0.006009
115 0.005978
68 0.004025
64 0.00504
70 0.004003
78 0.003994
85 0.005984
92 0.005984
101 0.004941
103 0.004987
98 0.003991
99 0.004962
104 0.005035
113 0.006032
119 0.005993
130 0.004992
138 0.005033
141 0.004988
147 0.006028
150 0.005984
152 0.004962
150 0.004001
84 0.003991
65 0.004988
65 0.004986
76 0.007007
87 0.007016
93 0.005
98 0.004951
108 0.004988
110 0.006012
106 0.007018
105 0.005944
112 0.004988
124 0.005003
129 0.004999
136 0.004985
142 0.007014
147 0.006981
152 0.005016
155 0.004985
160 0.005979
164 0.007981
167 0.007979
172 0.005968
176 0.005003
183 0.005002
155 0.005
104 0.005976
81 0.006982
86 0.007027
100 0.005023
111 0.00505
114 0.005005
118 0.006984
124 0.007958
124 0.005972
120 0.00599
123 0.006002
130 0.005956
138 0.005983
148 0.007979
155 0.007964
162 0.004987
169 0.005984
170 0.005984
172 0.007979
176 0.007979
184 0.005985
168 0.005996
117 0.007977
96 0.005987
107 0.006013
118 0.005989
131 0.007979
142 0.007976
151 0.005978
154 0.006979
149 0.006961
145 0.006988
149 0.00703
159 0.006983
168 0.007979
175 0.006973
184 0.006997
188 0.006977
190 0.007016
193 0.00798
170 0.006048
120 0.006976
106 0.006949
111 0.00698
119 0.006982
129 0.006947
141 0.007012
148 0.006939
149 0.006016
143 0.006974
143 0.007978
144 0.006939
157 0.006947
164 0.007001
168 0.006988
173 0.007026
181 0.006982
182 0.006985
189 0.00698
150 0.006974
107 0.006979
92 0.005974
94 0.005982
104 0.005997
115 0.005979
117 0.006015
121 0.005978
129 0.005973
126 0.007003
119 0.006974
124 0.006981
132 0.006923
139 0.006977
142 0.00697
148 0.005986
152 0.00601
155 0.006005
155 0.005987
163 0.005943
159 0.006046
118 0.006029
74 0.006029
76 0.005008
92 0.006019
96 0.004971
100 0.004987
104 0.004985
108 0.006007
107 0.005019
97 0.005943
101 0.005974
108 0.006014
115 0.006012
119 0.005997
131 0.006
136 0.00603
138 0.004977
141 0.006017
145 0.005029
123 0.004981
81 0.005013
62 0.004983
69 0.005032
76 0.00493
83 0.005032
88 0.006022
99 0.006047
96 0.005981
90 0.005946
94 0.006028
99 0.004983
105 0.004976
110 0.004982
119 0.004982
122 0.005028
126 0.005036
128 0.00505
131 0.005032
99 0.004987
60 0.005037
38 0.005027
45 0.005012
52 0.004986
57 0.004983
58 0.005068
70 0.005017
75 0.005036
69 0.004951
67 0.005012
68 0.005023
79 0.005009
84 0.004014
90 0.004025
99 0.003989
98 0.00397
100 0.00394
104 0.003989
112 0.003991
114 0.00399
119 0.003974
128 0.004959
118 0.005011
50 0.005035
30 0.003956
39 0.004985
49 0.003932
53 0.003962
57 0.004022
62 0.003994
70 0.004034
70 0.00402
65 0.003989
69 0.003968
74 0.003991
90 0.004027
94 0.00405
105 0.004029
114 0.003977
113 0.002999
119 0.002967
122 0.003956
127 0.002994
133 0.003991
139 0.00404
144 0.003991
110 0.004033
59 0.003991
59 0.003957
73 0.004032
85 0.003995
91 0.003991
100 0.004014
104 0.00402
104 0.00302
100 0.002976
98 0.002968
107 0.003009
117 0.00303
132 0.002977
136 0.002996
146 0.003037
153 0.002992
154 0.002007
159 0.002992
165 0.003019
151 0.002992
100 0.002992
80 0.002991
85 0.003028
94 0.002992
109 0.003028
117 0.002992
126 0.002993
131 0.002993
128 0.001984
127 0.001993
128 0.002993
137 0.001995
147 0.002001
152 0.002985
159 0.002028
164 0.001993
176 0.002992
176 0.002994
184 0.003029
189 0.002992
188 0.001995
189 0.001946
164 0.002035
120 0.001963
90 0.001935
96 0.001995
109 0.001989
114 0.001989
125 0.002038
132 0.00201
135 0.002032
131 0.001031
126 0.001969
130 0.000996
137 0.000977
147 0.001056
151 0.001015
158 0.002006
165 0.00195
167 0.002003
175 0.001997
177 0.002029
184 0.001017
189 0.001998
188 0.002042
157 0.001055
113 0.002006
94 0.001976
93 0.001043
113 0.001037
119 0.000981
118 0.001964
131 0.001004
131 0.001962
128 0.00099
123 0.000997
129 0.000976
141 0.001987
146 0.000996
154 0.002048
156 0.000982
165 0.001029
168 0.001025
171 0.000998
176 0.000999
179 0.001015
190 0.001023
169 0.001005
113 0.001996
99 0.001006
103 0.0
114 0.001028
123 0.0
135 0.0
143 0.001033
146 0.000996
138 0.0
135 0.0
140 0.000982
146 0.001012
162 0.001035
168 0.001
171 0.001025
179 0.0
183 0.0
184 0.0
192 0.0
197 0.0
141 0.0
105 0.0
102 0.001062
109 0.0
120 0.001023
129 0.0
134 0.0
143 0.0
147 0.0
142 0.0
141 0.000997
146 0.000998
160 0.0
167 0.0
172 0.0
178 0.001014
184 0.000997
186 0.000998
191 0.001054
197 0.0
195 0.001005
200 0.0
173 0.0
129 0.000997
108 0.0
118 0.002031
133 0.000991
137 0.000997
140 0.0
151 0.0
155 0.000998
150 0.0
150 0.0
153 0.000935
159 0.001021
162 0.001034
175 0.001999
183 0.002044
189 0.0
193 0.001026
196 0.001007
203 0.002042
204 0.002041
209 0.001057
215 0.0
217 0.000965
221 0.002058
224 0.002035
233 0.001967
238 0.002039
213 0.0
164 0.0
132 0.0
135 0.00202
144 0.001994
158 0.0
165 0.000953
168 0.0
173 0.001
172 0.00204
165 0.00204
167 0.002029
172 0.0
182 0.0
190 0.0
196 0.002045
200 0.002023
204 0.002021
209 0.000996
211 0.000961
216 0.00097
220 0.001052
227 0.000964
231 0.002035
226 0.002049
170 0.0
142 0.0
139 0.0
149 0.002047
157 0.003032
165 0.00199
170 0.000971
176 0.002003
178 0.002034
170 0.002
172 0.002994
178 0.002998
186 0.001043
192 0.001035
196 0.0
199 0.003041
205 0.002051
205 0.002003
207 0.001002
211 0.0
211 0.001993
214 0.001999
179 0.003066
139 0.002996
124 0.001976
128 0.002018
139 0.002011
144 0.003991
144 0.003994
153 0.002001
157 0.001997
154 0.002008
147 0.002995
151 0.001998
156 0.002982
163 0.002992
171 0.001983
177 0.001982
183 0.002011
184 0.003
188 0.003026
190 0.001073
191 0.002015
197 0.001995
197 0.002993
201 0.001952
203 0.00399
175 0.003991
119 0.002
104 0.001996
111 0.001995
118 0.002012
123 0.004026
121 0.004035
127 0.00296
129 0.001031
127 0.002965
123 0.002996
128 0.00202
135 0.004029
139 0.004016
148 0.001974
152 0.00196
155 0.00197
160 0.004988
160 0.003989
163 0.002044
169 0.001993
172 0.002039
177 0.000992
179 0.001953
185 0.005033
175 0.004987
118 0.00296
90 0.002964
88 0.002994
96 0.003991
107 0.004954
109 0.003025
113 0.002008
118 0.001996
117 0.003982
113 0.002992
113 0.004956
121 0.004957
133 0.003029
139 0.003027
143 0.003031
148 0.005045
149 0.004987
152 0.002997
157 0.003979
159 0.003027
165 0.004033
166 0.003958
170 0.004988
160 0.004988
99 0.003008
75 0.003
76 0.002956
83 0.006057
90 0.005985
92 0.002987
94 0.003985
99 0.00297
98 0.004061
94 0.003977
95 0.006042
104 0.005986
113 0.003949
121 0.003985
126 0.004014
133 0.004987
134 0.006053
139 0.005036
145 0.002981
146 0.003974
153 0.004007
159 0.003979
165 0.003986
166 0.006024
169 0.006028
142 0.003974
94 0.004
64 0.004987
66 0.005985
77 0.006022
83 0.003004
85 0.00297
89 0.003047
97 0.004015
94 0.004994
91 0.005981
92 0.00596
100 0.004016
105 0.004015
112 0.005029
120 0.005997
127 0.007008
134 0.005007
139 0.00499
146 0.006025
147 0.004971
152 0.004957
156 0.007001
162 0.007007
166 0.004984
173 0.005991
178 0.00499
156 0.006017
105 0.006015
73 0.004005
77 0.004978
96 0.004958
101 0.004986
103 0.005027
114 0.006982
118 0.006982
107 0.005989
104 0.005951
109 0.006007
116 0.006981
125 0.00797
139 0.006039
144 0.005979
150 0.004997
153 0.005977
159 0.005025
164 0.007026
168 0.007978
176 0.00599
183 0.006003
173 0.006
126 0.007027
88 0.007923
79 0.005985
90 0.005984
101 0.006001
108 0.006003
114 0.00602
120 0.005971
116 0.007033
112 0.007982
111 0.005992
117 0.00698
125 0.005017
139 0.007951
145 0.007973
151 0.006007
158 0.007973
165 0.006
169 0.006981
171 0.00699
175 0.006936
183 0.007949
175 0.006951
125 0.006975
87 0.006983
78 0.007954
86 0.007959
95 0.006984
105 0.007941
112 0.006
115 0.006983
116 0.005982
112 0.006984
109 0.006986
114 0.006951
122 0.006978
131 0.006951
138 0.007011
147 0.007012
153 0.006974
159 0.007013
164 0.006972
169 0.005961
175 0.006971
177 0.006979
182 0.006955
168 0.006955
106 0.006979
79 0.006945
82 0.007013
92 0.007007
102 0.006982
107 0.007028
114 0.00603
119 0.006
112 0.005979
111 0.005982
110 0.006014
121 0.006988
128 0.005984
137 0.006993
144 0.00699
151 0.007014
154 0.006953
160 0.006004
164 0.006012
171 0.005975
172 0.005987
169 0.006034
131 0.006027
86 0.005975
86 0.005993
93 0.006017
108 0.006046
111 0.005986
116 0.005975
126 0.004985
125 0.004981
117 0.005994
114 0.006021
124 0.006014
130 0.006017
138 0.006026
147 0.006032
153 0.00598
158 0.006005
159 0.006013
163 0.006014
161 0.004979
125 0.004954
77 0.00502
71 0.004936
82 0.00596
92 0.004986
95 0.004987
101 0.004988
108 0.00502
110 0.005041
105 0.006026
104 0.00602
109 0.006008
119 0.005014
124 0.004957
133 0.004984
139 0.004986
141 0.005024
144 0.004987
152 0.004987
150 0.005022
153 0.005023
145 0.004019
104 0.00502
63 0.003989
65 0.003984
79 0.004023
84 0.003988
83 0.005058
88 0.005022
94 0.004987
91 0.005048
87 0.004981
91 0.004991
98 0.005021
107 0.005038
115 0.003992
122 0.004001
128 0.003988
131 0.003991
135 0.004045
137 0.004022
143 0.00414
148 0.003991
154 0.004059
145 0.004024
105 0.005063
72 0.005036
71 0.003997
84 0.003951
92 0.003977
93 0.004015
100 0.00405
105 0.00394
106 0.003961
98 0.004033
102 0.004017
111 0.003917
116 0.003991
125 0.00399
135 0.00399
143 0.003015
144 0.003063
145 0.003952
153 0.003005
155 0.004029
131 0.00399
89 0.004024
69 0.00399
74 0.004023
83 0.004038
87 0.00399
92 0.003048
99 0.003025
105 0.002944
97 0.003027
96 0.003022
100 0.002992
107 0.002953
113 0.004043
123 0.002992
127 0.003991
131 0.002964
139 0.004022
144 0.002942
150 0.003028
149 0.002989
156 0.00298
147 0.003027
102 0.002996
70 0.002992
63 0.00305
73 0.003993
80 0.004036
80 0.003038
86 0.002992
95 0.001955
97 0.002089
93 0.001965
94 0.002
97 0.002001
102 0.003025
110 0.001995
115 0.002995
124 0.001996
132 0.003019
133 0.003049
139 0.002963
144 0.001981
150 0.001995
150 0.001994
157 0.001995
167 0.001999
154 0.001995
112 0.001995
80 0.001995
73 0.001996
86 0.002064
94 0.00206
96 0.002001
102 0.001006
105 0.000957
104 0.002034
100 0.001994
102 0.001995
111 0.002029
121 0.001995
125 0.002014
134 0.001995
144 0.001996
145 0.002028
149 0.00189
157 0.000953
160 0.002012
165 0.000998
169 0.002053
120 0.002023
87 0.002024
80 0.001007
86 0.001002
94 0.000997
103 0.000997
110 0.001004
115 0.001039
117 0.000953
113 0.001036
113 0.002038
118 0.0
127 0.0
135 0.0
144 0.002026
145 0.001996
154 0.002025
162 0.002044
163 0.000998
168 0.000997
172 0.0
165 0.001028
118 0.001007
85 0.000999
81 0.001062
88 0.0
97 0.001032
104 0.000996
108 0.000997
116 0.0
120 0.0
118 0.0
117 0.0
125 0.0
132 0.000967
138 0.001014
148 0.0
154 0.000997
159 0.0
164 0.000997
173 0.000998
174 0.000996
179 0.000997
189 0.0
146 0.0
106 0.0
92 0.0
104 0.000998
119 0.0
126 0.0
133 0.0
141 0.0
148 0.0
144 0.000997
141 0.0
144 0.0
155 0.0
162 0.000997
170 0.001027
178 0.001017
185 0.000998
187 0.0
195 0.0
198 0.0
167 0.0
131 0.0
112 0.002005
121 0.002027
141 0.001002
152 0.001993
160 0.001003
170 0.0
172 0.0
167 0.002035
167 0.002024
172 0.000999
180 0.000982
188 0.000965
195 0.001028
200 0.001032
204 0.002992
211 0.002038
213 0.000979
180 0.001022
141 0.000979
122 0.001999
126 0.002025
140 0.000951
149 0.000902
154 0.000956
159 0.002036
168 0.003028
164 0.001995
163 0.003066
164 0.0
172 0.0
182 0.000945
184 0.002023
189 0.002025
199 0.0
200 0.0
203 0.000963
206 0.002038
212 0.002036
201 0.002029
157 0.002052
125 0.002033
125 0.000951
135 0.0
144 0.0
146 0.00204
151 0.002026
157 0.0
159 0.0
154 0.0
157 0.002004
164 0.000998
169 0.001998
172 0.001962
185 0.000995
191 0.0
194 0.000998
200 0.001954
203 0.002061
202 0.0
200 0.0
168 0.0
127 0.002992
111 0.001016
125 0.002992
135 0.002992
142 0.0
145 0.002047
151 0.003006
151 0.002993
147 0.002999
146 0.0
157 0.002959
161 0.000959
168 0.002072
178 0.001992
185 0.002992
184 0.003018
185 0.000987
186 0.000982
160 0.00202
126 0.003
107 0.002978
119 0.001995
129 0.001994
137 0.001994
141 0.002992
152 0.002993
154 0.002999
148 0.004023
147 0.002008
155 0.002961
161 0.00192
165 0.003989
170 0.004042
181 0.002023
186 0.002009
186 0.001033
172 0.003042
116 0.001995
109 0.001059
118 0.004031
133 0.00399
143 0.001994
145 0.00199
153 0.002003
153 0.004019
148 0.003992
148 0.002002
153 0.002025
159 0.001995
174 0.001995
176 0.001995
180 0.00502
184 0.00399
185 0.001977
149 0.00193
121 0.002992
117 0.004987
128 0.004916
143 0.002971
151 0.002007
166 0.003006
167 0.002957
158 0.002969
153 0.00502
159 0.005027
169 0.001995
174 0.002028
182 0.002076
188 0.004015
189 0.004049
193 0.001996
159 0.001956
123 0.002953
113 0.002995
124 0.003011
137 0.004977
143 0.005039
151 0.002999
156 0.003046
152 0.002994
151 0.005047
152 0.004987
159 0.002999
165 0.002987
175 0.00199
180 0.002951
184 0.00398
181 0.005018
146 0.00499
102 0.003012
99 0.003013
112 0.002992
122 0.004987
127 0.005003
137 0.002988
145 0.003959
143 0.002992
139 0.004007
143 0.003999
151 0.005984
155 0.005987
162 0.002974
171 0.004012
175 0.003047
176 0.003017
182 0.004987
169 0.00502
110 0.003009
91 0.004022
106 0.003965
118 0.00396
120 0.004006
126 0.00602
134 0.006032
136 0.003972
134 0.003991
133 0.003987
137 0.006019
145 0.006976
156 0.004012
163 0.004007
173 0.004034
175 0.003984
179 0.004016
183 0.007007
167 0.006035
113 0.004014
97 0.003992
103 0.003992
118 0.006041
124 0.005984
133 0.004956
146 0.005048
145 0.005972
137 0.004978
135 0.003988
145 0.006982
157 0.006981
165 0.003982
176 0.00401
183 0.003996
184 0.006014
190 0.006028
158 0.005007
117 0.004999
105 0.004956
114 0.004953
128 0.00501
138 0.007992
146 0.007006
154 0.00502
151 0.004967
148 0.004994
147 0.007959
150 0.007955
158 0.005988
167 0.004997
175 0.004963
180 0.005964
182 0.005953
160 0.007039
118 0.007003
93 0.004988
102 0.003992
115 0.004993
123 0.007966
133 0.007946
143 0.007947
146 0.006016
142 0.007825
140 0.00502
147 0.005028
153 0.005028
159 0.006974
164 0.006981
174 0.004024
175 0.004986
180 0.005985
182 0.007979
173 0.007978
113 0.005984
91 0.006987
101 0.00601
115 0.006976
124 0.006031
133 0.007973
138 0.007959
143 0.006966
137 0.006002
135 0.005965
140 0.006985
149 0.006957
154 0.005988
168 0.006983
173 0.005988
176 0.006984
175 0.005986
184 0.007965
190 0.007967
145 0.006977
103 0.006966
100 0.006976
110 0.007018
122 0.007018
132 0.006955
146 0.006013
152 0.006951
145 0.005983
140 0.005955
140 0.007014
148 0.006968
157 0.006966
170 0.006972
172 0.006978
182 0.006983
186 0.006988
190 0.006979
165 0.006964
113 0.006018
104 0.005986
110 0.006983
120 0.007022
134 0.007013
144 0.005984
151 0.005991
153 0.005962
149 0.006013
143 0.00602
147 0.005988
159 0.006016
165 0.005998
174 0.005995
180 0.005976
183 0.005986
186 0.006016
183 0.006015
127 0.005981
96 0.005979
91 0.006028
103 0.00597
115 0.006014
124 0.006047
135 0.005012
143 0.004988
137 0.005982
133 0.006014
137 0.004995
140 0.005017
148 0.005969
158 0.005963
162 0.005976
167 0.006015
171 0.006019
179 0.004983
183 0.005003
132 0.004987
92 0.006007
81 0.005019
89 0.005023
102 0.005
113 0.004994
120 0.005953
126 0.004976
132 0.005065
124 0.006029
123 0.005019
129 0.005003
137 0.005998
147 0.005988
152 0.004991
162 0.004989
165 0.005031
167 0.005023
176 0.005021
168 0.003995
129 0.004987
96 0.005021
96 0.004994
107 0.004021
116 0.005989
125 0.004988
135 0.005023
137 0.005032
133 0.004981
128 0.005018
133 0.004954
142 0.005019
152 0.005018
159 0.005018
169 0.003996
172 0.00401
180 0.003959
149 0.004021
104 0.004018
88 0.003975
89 0.003974
101 0.00399
111 0.005038
119 0.005019
130 0.00497
131 0.00502
123 0.003967
120 0.003957
125 0.004026
135 0.004046
140 0.004027
150 0.00402
153 0.004029
157 0.00399
160 0.003994
126 0.00398
84 0.004018
63 0.003991
77 0.002956
87 0.002969
93 0.004035
100 0.004028
107 0.00404
110 0.004025
100 0.004027
100 0.003992
108 0.004026
110 0.003989
117 0.003984
124 0.004021
139 0.002966
142 0.003024
144 0.003008
137 0.003056
93 0.002999
57 0.002996
47 0.002992
58 0.002992
73 0.004053
73 0.003909
81 0.003989
90 0.003023
86 0.001994
82 0.001964
86 0.004006
96 0.002992
102 0.003042
109 0.002992
114 0.003034
123 0.003007
126 0.002992
128 0.002994
131 0.002992
100 0.003089
46 0.001964
43 0.001941
54 0.002993
71 0.002992
74 0.00303
82 0.003025
89 0.002047
85 0.00204
76 0.002041
80 0.002031
93 0.001957
100 0.002044
113 0.002984
115 0.001952
122 0.003033
125 0.003035
107 0.001992
68 0.002065
40 0.002058
40 0.001995
48 0.002005
60 0.001995
65 0.001995
73 0.001995
78 0.001007
69 0.000998
70 0.001995
74 0.001996
81 0.001995
89 0.001968
95 0.001962
100 0.002031
102 0.002019
111 0.001003
111 0.000999
76 0.002066
25 0.000955
23 0.002053
36 0.000998
41 0.001996
44 0.002043
55 0.002031
58 0.001948
59 0.002047
54 0.002038
54 0.000996
61 0.00104
68 0.000999
79 0.001994
84 0.000997
90 0.001002
97 0.002015
102 0.001993
104 0.001997
110 0.001997
95 0.001972
51 0.002028
21 0.002037
28 0.002038
36 0.000998
45 0.000998
50 0.000997
60 0.000998
61 0.000998
56 0.000997
58 0.000997
60 0.0
72 0.00105
79 0.002041
84 0.000998
94 0.0
98 0.0
104 0.000966
109 0.0
112 0.0
120 0.0
127 0.0
90 0.001005
56 0.000997
47 0.000998
52 0.000969
67 0.0
76 0.0
80 0.0
93 0.0
87 0.0
84 0.0
84 0.0
95 0.0
108 0.000942
114 0.0
122 0.0
129 0.000998
131 0.0
136 0.000997
139 0.000952
95 0.0
62 0.0
58 0.0
72 0.0
80 0.0
89 0.001992
96 0.0
104 0.0
105 0.0
100 0.0
101 0.000998
105 0.002027
119 0.001006
127 0.002027
136 0.000991
141 0.0
147 0.000957
153 0.002036
153 0.002035
155 0.0
123 0.0
81 0.0
67 0.002043
74 0.002035
91 0.003038
94 0.002033
99 0.000954
111 0.0
113 0.0
107 0.001962
105 0.001995
114 0.000997
123 0.000963
128 0.000955
138 0.003006
144 0.00199
153 0.002038
156 0.00301
155 0.0
161 0.0
165 0.0
145 0.002025
96 0.002027
71 0.0
81 0.001043
92 0.0
101 0.0
104 0.002029
119 0.000972
117 0.002028
111 0.002996
113 0.0
117 0.0
123 0.0
132 0.001993
142 0.002026
147 0.0
156 0.0
158 0.0
160 0.002061
170 0.0
134 0.002043
98 0.001996
89 0.0
99 0.000998
114 0.0
119 0.003005
130 0.002027
141 0.0
140 0.0
136 0.0
134 0.002047
143 0.000978
148 0.002043
158 0.002022
167 0.001017
168 0.000956
172 0.0
176 0.002044
162 0.002961
107 0.0
90 0.00199
93 0.0
101 0.003008
118 0.001986
123 0.002992
136 0.002992
135 0.001973
130 0.00203
131 0.001998
133 0.001982
139 0.002022
152 0.002006
155 0.001966
163 0.002001
168 0.002993
173 0.001998
174 0.002999
142 0.00307
96 0.001992
89 0.001994
100 0.001999
111 0.003024
117 0.003042
123 0.00192
132 0.001992
136 0.002019
130 0.003025
132 0.001992
140 0.003017
145 0.003054
148 0.003064
157 0.001969
163 0.002013
164 0.002982
170 0.003991
176 0.003991
179 0.001995
184 0.00196
189 0.003058
127 0.002037
95 0.002046
93 0.00405
107 0.004045
122 0.001992
124 0.001989
133 0.002004
142 0.004044
143 0.004045
134 0.001992
138 0.002018
144 0.00202
157 0.002013
161 0.002017
166 0.004019
172 0.004008
177 0.002992
187 0.002002
192 0.002045
190 0.005005
150 0.005015
117 0.002013
121 0.002022
133 0.001953
147 0.001973
151 0.001985
164 0.004022
166 0.005019
157 0.001994
158 0.002995
164 0.003028
173 0.005041
178 0.005026
186 0.003009
193 0.002961
194 0.003022
201 0.002996
201 0.002028
168 0.005036
128 0.005022
115 0.001998
128 0.001996
136 0.002026
143 0.004997
149 0.005967
161 0.003003
161 0.003001
155 0.00296
155 0.003012
161 0.002998
170 0.006016
177 0.005022
185 0.00299
192 0.002
197 0.003006
197 0.005984
199 0.006034
198 0.002994
160 0.003011
121 0.00301
114 0.003008
127 0.003033
136 0.002988
140 0.004988
146 0.005045
156 0.003011
153 0.002989
151 0.00299
151 0.006024
155 0.005985
163 0.003997
169 0.003996
179 0.004015
182 0.00403
186 0.00401
192 0.006013
194 0.006051
200 0.002984
203 0.002987
166 0.003995
128 0.007036
112 0.007021
127 0.004003
139 0.00399
147 0.004004
155 0.004011
161 0.004011
157 0.006036
153 0.006036
152 0.004013
159 0.003987
170 0.003996
174 0.005983
180 0.005984
193 0.004982
194 0.004024
200 0.003968
204 0.003983
187 0.003957
146 0.006999
123 0.007021
132 0.004008
145 0.003996
154 0.003992
159 0.006013
170 0.005977
174 0.005007
167 0.004992
166 0.005006
174 0.004982
184 0.005004
189 0.006957
196 0.007008
202 0.005008
202 0.003973
206 0.003982
210 0.007968
180 0.007911
138 0.00499
119 0.004928
131 0.004999
141 0.004957
148 0.005008
153 0.006989
161 0.006981
161 0.007044
156 0.005019
154 0.005
158 0.004989
167 0.006975
172 0.007867
180 0.005985
187 0.007937
191 0.005996
196 0.005004
196 0.005981
202 0.007968
206 0.007935
183 0.005925
138 0.004985
110 0.005973
108 0.007976
122 0.007972
132 0.005993
138 0.00742
142 0.005984
145 0.005981
142 0.006027
138 0.007978
140 0.007945
147 0.004985
153 0.005983
158 0.005943
165 0.007988
166 0.007978
173 0.00695
179 0.007951
183 0.006948
186 0.006951
176 0.006955
130 0.006986
99 0.006985
92 0.005991
105 0.006001
116 0.006098
121 0.006998
129 0.007002
137 0.005983
134 0.006981
129 0.005953
133 0.004958
141 0.00694
148 0.008025
155 0.007018
159 0.00698
163 0.006972
169 0.006942
171 0.007029
175 0.007014
180 0.005983
133 0.007014
97 0.005972
98 0.006985
107 0.005985
123 0.005987
130 0.005984
137 0.006018
143 0.005961
143 0.00594
134 0.005994
133 0.005977
139 0.006016
151 0.007015
157 0.007014
166 0.006964
170 0.006015
173 0.006013
175 0.006017
177 0.006017
132 0.00602
96 0.006016
86 0.005979
93 0.006017
104 0.004976
112 0.006018
119 0.005977
129 0.006951
124 0.005985
122 0.005983
122 0.005985
127 0.006017
139 0.005974
146 0.005987
152 0.005982
160 0.006015
167 0.00498
172 0.005984
175 0.005972
178 0.006006
159 0.004967
112 0.005982
82 0.005791
84 0.005949
98 0.006014
105 0.006013
111 0.005941
116 0.006017
123 0.005018
124 0.005019
121 0.005019
125 0.005021
128 0.00498
135 0.004992
144 0.004939
150 0.005019
156 0.004972
162 0.004948
165 0.004988
171 0.004989
175 0.003988
184 0.004983
180 0.004961
121 0.004984
92 0.004986
87 0.004976
101 0.004955
116 0.00504
124 0.004961
132 0.004986
142 0.004988
140 0.005026
132 0.003982
131 0.004022
138 0.003986
149 0.004986
155 0.003954
164 0.005072
173 0.004988
176 0.005019
182 0.004957
189 0.004932
156 0.00499
117 0.003986
102 0.003964
112 0.00399
123 0.00399
134 0.004016
145 0.004047
150 0.003992
147 0.003992
141 0.003989
137 0.003992
145 0.003968
153 0.003957
159 0.002999
165 0.003989
173 0.003947
178 0.002975
180 0.003993
147 0.004042
107 0.004015
87 0.003992
90 0.004021
104 0.003992
116 0.003952
118 0.003946
131 0.002994
137 0.002914
129 0.002994
125 0.003009
127 0.003005
140 0.003994
145 0.003991
147 0.003992
156 0.003931
163 0.003957
163 0.003992
169 0.003992
151 0.002959
105 0.002992
72 0.002997
79 0.002998
85 0.003043
97 0.003027
100 0.002992
108 0.002978
110 0.002992
106 0.00402
100 0.00302
104 0.002994
112 0.001996
119 0.001936
131 0.002036
136 0.002992
139 0.002992
142 0.003
147 0.003025
135 0.003025
93 0.002988
61 0.002992
60 0.002992
75 0.002993
83 0.001993
83 0.001943
93 0.003024
95 0.001993
88 0.001994
86 0.00203
90 0.001997
102 0.001995
109 0.001995
116 0.001995
122 0.002029
130 0.001995
132 0.001995
137 0.001995
83 0.002996
55 0.001996
52 0.002992
58 0.002031
71 0.001972
76 0.000909
83 0.002024
87 0.002021
86 0.001983
81 0.000998
80 0.001966
86 0.001995
99 0.000998
107 0.002002
110 0.002027
114 0.00199
122 0.002047
123 0.002044
98 0.001981
60 0.001995
40 0.002045
42 0.002028
51 0.001954
62 0.001052
67 0.001965
74 0.000954
77 0.000997
73 0.000998
74 0.001033
77 0.00098
87 0.002038
91 0.002039
102 0.002009
107 0.001946
112 0.0
117 0.0
121 0.000998
127 0.000998
130 0.001001
105 0.001031
49 0.000998
38 0.002013
46 0.000997
58 0.001959
64 0.000973
66 0.0
76 0.0
81 0.0
77 0.000998
76 0.000948
83 0.0
92 0.0
101 0.0
107 0.0
117 0.0
119 0.0
124 0.0
127 0.001003
134 0.0
139 0.0
122 0.000932
83 0.000997
61 0.000998
64 0.0
78 0.0
92 0.0
96 0.0
103 0.0
107 0.0
105 0.0
98 0.0
103 0.0
118 0.0
129 0.000974
138 0.0
147 0.0
148 0.0
153 0.002035
156 0.0
158 0.0
139 0.0
97 0.0
75 0.0
85 0.001029
99 0.0
108 0.002027
116 0.000967
121 0.000965
123 0.0
118 0.003025
118 0.002027
130 0.0
136 0.0
141 0.0
148 0.001039
156 0.002028
164 0.001996
167 0.002038
172 0.0
176 0.00097
145 0.000997
101 0.002029
88 0.002028
97 0.001012
106 0.000997
115 0.00197
118 0.003021
128 0.003002
135 0.002028
133 0.001992
134 0.001
136 0.000998
146 0.000966
150 0.002991
157 0.002993
164 0.0
169 0.0
175 0.0
181 0.0
187 0.002031
193 0.0
197 0.002021
183 0.002029
125 0.0
103 0.0
109 0.000955
124 0.002033
134 0.002004
140 0.0
152 0.001945
157 0.000948
155 0.003033
149 0.0
156 0.00203
163 0.002007
174 0.0
183 0.0
190 0.0
196 0.003023
199 0.001995
204 0.0
210 0.000962
200 0.001005
160 0.002021
125 0.000998
136 0.003044
150 0.002016
164 0.00101
172 0.0
184 0.0
189 0.003049
181 0.003039
179 0.0
184 0.0
190 0.0
199 0.002992
209 0.0
217 0.002045
219 0.00199
223 0.0
221 0.000973
178 0.003012
144 0.002999
135 0.002962
149 0.002971
159 0.002039
168 0.001014
180 0.00399
192 0.0
190 0.002994
184 0.001995
188 0.001995
194 0.001992
200 0.000998
209 0.002992
210 0.003973
219 0.001994
225 0.002032
226 0.003033
227 0.005022
159 0.001995
139 0.00302
138 0.003024
153 0.003013
166 0.002999
168 0.00299
179 0.003022
187 0.00296
185 0.003959
179 0.002026
179 0.002027
183 0.002989
192 0.001995
197 0.001996
206 0.004009
214 0.003954
218 0.002113
221 0.002
214 0.002957
165 0.004051
134 0.004
134 0.002996
148 0.002958
161 0.002982
169 0.002991
181 0.003013
184 0.004041
177 0.004048
173 0.00199
179 0.002999
184 0.001966
190 0.004029
197 0.005029
207 0.00299
208 0.002006
215 0.001969
202 0.002001
161 0.001993
134 0.004062
134 0.003999
152 0.003
162 0.002008
171 0.002992
177 0.004953
186 0.004981
179 0.002992
169 0.002992
175 0.001963
186 0.002997
195 0.001987
203 0.005027
205 0.005034
214 0.001996
215 0.001966
189 0.001995
147 0.00502
128 0.006083
132 0.00296
143 0.002987
153 0.003001
166 0.003018
171 0.003
168 0.005034
161 0.005003
161 0.003046
163 0.00203
172 0.002028
176 0.005969
186 0.005985
192 0.00295
194 0.003025
200 0.003006
171 0.003
130 0.002925
104 0.002991
111 0.005038
124 0.005019
132 0.00299
140 0.003035
148 0.003924
154 0.006018
148 0.006027
146 0.00399
146 0.003023
156 0.003056
162 0.00196
168 0.002989
176 0.005975
179 0.006014
184 0.002994
192 0.002957
192 0.00398
194 0.00704
197 0.007042
163 0.003984
117 0.004012
95 0.00401
109 0.003036
116 0.003026
124 0.005984
127 0.006022
140 0.003008
140 0.004007
133 0.003959
129 0.006989
134 0.006982
144 0.004021
151 0.004984
160 0.004019
167 0.004956
170 0.004035
171 0.006017
172 0.007015
180 0.003976
187 0.00294
185 0.004955
190 0.007982
198 0.007992
201 0.004953
206 0.004983
134 0.002953
104 0.004022
96 0.00399
110 0.006014
121 0.007978
131 0.004991
137 0.004992
144 0.004949
144 0.006984
137 0.007981
137 0.006
144 0.005992
155 0.004007
163 0.004011
167 0.003999
171 0.006981
178 0.00703
183 0.006984
185 0.005035
188 0.004957
196 0.005059
196 0.007979
151 0.007971
117 0.004961
111 0.007973
123 0.005027
132 0.005
140 0.004986
150 0.006985
153 0.007948
149 0.006001
144 0.005985
144 0.006007
150 0.006984
157 0.006951
167 0.006969
172 0.006976
177 0.005003
184 0.005073
189 0.005983
190 0.007011
195 0.006963
175 0.006009
111 0.00695
93 0.007012
95 0.007922
107 0.006944
116 0.006924
123 0.007938
131 0.004988
133 0.006947
130 0.004987
123 0.006981
126 0.007021
134 0.005975
140 0.00598
146 0.00598
157 0.00599
160 0.005981
167 0.005971
168 0.00702
171 0.006029
174 0.006031
155 0.00602
95 0.005988
74 0.007948
74 0.006939
82 0.006926
91 0.006983
95 0.007018
97 0.007021
104 0.006983
96 0.007015
92 0.006979
94 0.006008
102 0.006004
110 0.006022
116 0.006986
120 0.005934
128 0.00598
129 0.004965
133 0.006038
136 0.00595
142 0.005967
148 0.006956
111 0.007002
60 0.006963
49 0.006982
56 0.005983
64 0.005945
72 0.005982
77 0.005997
80 0.005926
81 0.00499
74 0.005994
75 0.006034
82 0.006016
91 0.006013
104 0.005981
107 0.006004
113 0.005984
114 0.006015
118 0.004973
124 0.005984
115 0.00599
75 0.005982
42 0.004987
34 0.005032
48 0.005984
55 0.006018
64 0.005987
70 0.005996
74 0.005045
72 0.006014
70 0.00499
72 0.004987
79 0.004954
87 0.004985
90 0.004987
95 0.004019
103 0.00485
112 0.004986
119 0.004987
120 0.005984
129 0.004023
126 0.00493
83 0.004991
38 0.005015
36 0.005009
47 0.00495
53 0.005023
57 0.004992
63 0.005021
71 0.005021
71 0.004996
68 0.004994
70 0.004944
78 0.004987
86 0.003991
99 0.003987
107 0.004048
114 0.003991
118 0.003958
125 0.005026
134 0.003942
141 0.00499
144 0.005027
147 0.004991
152 0.004973
154 0.004947
159 0.004012
163 0.003993
170 0.00399
162 0.00398
110 0.00399
72 0.004011
70 0.003941
79 0.003941
85 0.003939
90 0.00395
92 0.004019
100 0.003988
101 0.002953
100 0.003988
99 0.003004
109 0.002991
119 0.002987
128 0.00299
139 0.00399
147 0.003958
147 0.003989
154 0.004024
160 0.004032
163 0.003941
172 0.00296
176 0.002961
178 0.002961
184 0.002982
169 0.002995
122 0.002945
90 0.00299
101 0.002996
113 0.003038
127 0.003009
136 0.002967
147 0.001982
151 0.003047
142 0.003008
138 0.001972
145 0.001978
152 0.002962
161 0.002964
172 0.00399
177 0.003044
181 0.004024
185 0.003037
188 0.003025
190 0.002051
196 0.001995
176 0.002965
123 0.003989
102 0.001976
108 0.002009
117 0.001981
133 0.002992
140 0.001963
148 0.001915
151 0.001989
146 0.002025
146 0.001978
151 0.002041
154 0.001047
164 0.002045
175 0.001984
178 0.000997
186 0.001987
191 0.003069
197 0.003035
197 0.002992
200 0.002992
195 0.002028
150 0.001985
114 0.002022
107 0.002004
115 0.002038
127 0.001995
136 0.001001
138 0.000968
150 0.002022
149 0.001941
145 0.002029
141 0.000997
149 0.002034
156 0.001982
162 0.001029
167 0.000997
177 0.002044
180 0.001933
182 0.000933
187 0.000961
194 0.002031
196 0.002043
199 0.000999
207 0.000995
180 0.002021
133 0.000996
110 0.00202
114 0.0
123 0.000999
137 0.0
139 0.0
143 0.000998
146 0.002024
142 0.002027
141 0.001981
144 0.002033
152 0.001064
160 0.001008
169 0.000994
174 0.001007
177 0.001036
180 0.000997
182 0.0
186 0.0
195 0.002012
195 0.001996
163 0.001996
128 0.000997
114 0.001959
121 0.0
135 0.0
141 0.000999
143 0.001039
151 0.00102
152 0.0
145 0.0
142 0.001025
148 0.000997
160 0.000968
163 0.0
167 0.0
176 0.0
179 0.000997
181 0.0
187 0.001018
188 0.0
190 0.0
193 0.0
129 0.0
103 0.0
102 0.001043
112 0.0
118 0.0
127 0.0
130 0.0
138 0.0
141 0.0
138 0.0
134 0.0
138 0.0
153 0.0
160 0.000998
164 0.000998
168 0.001003
173 0.0
175 0.00201
176 0.002012
180 0.002046
184 0.001039
188 0.00201
190 0.001028
198 0.001028
191 0.002026
143 0.002996
104 0.0
96 0.000964
111 0.001961
121 0.001996
125 0.003005
130 0.000997
136 0.000965
141 0.000998
138 0.003018
133 0.003038
138 0.002993
146 0.002025
159 0.000964
163 0.0
166 0.001004
173 0.004057
179 0.003022
181 0.002027
185 0.0
190 0.0
194 0.003034
201 0.003043
171 0.00303
129 0.003025
111 0.0
118 0.0
132 0.002012
144 0.003035
152 0.003025
160 0.003955
165 0.000987
157 0.0
150 0.000966
148 0.002025
164 0.000995
172 0.001993
180 0.001966
186 0.0
190 0.0
195 0.0
196 0.003025
197 0.003037
193 0.0
150 0.000956
116 0.000954
108 0.002992
124 0.0
134 0.003022
138 0.002997
148 0.000947
155 0.00097
150 0.000963
143 0.002027
143 0.002046
150 0.0
157 0.0
163 0.000994
171 0.003025
181 0.0
183 0.003036
187 0.003009
192 0.0
194 0.0
171 0.0
124 0.003006
94 0.003047
95 0.0
104 0.0
111 0.001001
118 0.002026
129 0.00098
131 0.003025
125 0.003078
123 0.000995
125 0.000968
129 0.000963
138 0.002992
146 0.003027
149 0.0
154 0.000961
159 0.000968
161 0.003039
165 0.0
167 0.002959
172 0.002991
156 0.0
105 0.000998
77 0.000999
74 0.004968
85 0.003991
94 0.004989
100 0.003011
103 0.002959
109 0.002966
101 0.002024
95 0.002992
96 0.002994
103 0.004031
111 0.00203
118 0.003052
126 0.002987
132 0.00399
132 0.005022
140 0.002967
144 0.003013
142 0.003004
86 0.002961
59 0.003984
60 0.00404
68 0.004983
80 0.002037
88 0.0
95 0.002985
98 0.00499
98 0.005022
89 0.002995
88 0.002981
95 0.002978
106 0.003024
113 0.002991
115 0.003991
120 0.005047
125 0.003037
128 0.002999
114 0.00296
76 0.003951
41 0.005019
34 0.002007
42 0.002981
50 0.003
57 0.002992
64 0.003032
68 0.005009
62 0.004991
58 0.002992
60 0.001969
64 0.002031
73 0.00502
83 0.004958
89 0.002042
94 0.001995
103 0.002011
104 0.002044
107 0.002018
96 0.004986
56 0.005997
17 0.002993
12 0.002996
21 0.002868
29 0.004985
28 0.006019
31 0.002992
38 0.003007
35 0.002999
32 0.002041
32 0.003012
39 0.002054
44 0.006034
54 0.006026
63 0.002946
69 0.002961
73 0.002962
76 0.006026
78 0.006982
86 0.002988
90 0.002992
99 0.002031
102 0.003959
107 0.003957
117 0.005986
110 0.00601
50 0.003995
19 0.003004
15 0.004958
23 0.006019
35 0.006033
36 0.002957
36 0.004011
44 0.003006
41 0.003041
39 0.002981
39 0.00702
44 0.007014
58 0.00395
65 0.003954
70 0.003991
79 0.007013
85 0.007039
91 0.003955
95 0.005016
103 0.003021
109 0.002979
108 0.002976
73 0.007007
35 0.007005
23 0.004018
28 0.004013
38 0.00499
41 0.006985
46 0.006947
54 0.004983
51 0.003001
45 0.003996
48 0.004003
54 0.003994
62 0.007042
71 0.007015
82 0.004062
85 0.004
92 0.003958
98 0.007992
100 0.006981
108 0.004955
113 0.004007
121 0.004013
118 0.004018
77 0.003021
32 0.007969
28 0.007976
35 0.004985
44 0.004035
50 0.006016
49 0.006982
61 0.007977
62 0.007979
60 0.005032
58 0.007042
63 0.003981
73 0.005055
81 0.004968
91 0.007981
99 0.007978
105 0.004981
110 0.006016
115 0.004042
121 0.006994
125 0.006992
131 0.006022
138 0.007969
142 0.004981
149 0.005953
151 0.005017
90 0.007979
55 0.007961
49 0.004978
58 0.004981
70 0.00601
76 0.007026
80 0.007018
86 0.005045
90 0.007975
86 0.006008
87 0.005984
95 0.005962
103 0.006966
114 0.006986
118 0.00599
125 0.005984
131 0.006035
138 0.006957
140 0.006979
146 0.005992
155 0.00798
162 0.00499
167 0.005952
176 0.005981
146 0.006994
100 0.00699
78 0.006005
82 0.005945
101 0.006015
108 0.005961
117 0.005985
124 0.006985
130 0.006969
124 0.005986
120 0.005994
121 0.006977
137 0.006967
146 0.007019
155 0.006028
161 0.005993
168 0.005973
171 0.00598
176 0.006
178 0.005982
190 0.006019
178 0.006016
133 0.005964
98 0.005991
87 0.004979
97 0.006016
109 0.004993
119 0.006013
124 0.005971
134 0.005933
139 0.006016
132 0.005971
129 0.006103
131 0.007015
145 0.006028
153 0.005991
158 0.005974
167 0.006025
173 0.004988
179 0.004954
186 0.004992
193 0.004991
197 0.004997
199 0.005025
205 0.006975
167 0.005985
109 0.005989
97 0.005984
104 0.004947
115 0.005965
124 0.006003
130 0.004971
138 0.004956
143 0.005022
141 0.004958
132 0.00503
135 0.00502
143 0.004992
153 0.004967
160 0.003979
169 0.003983
175 0.004988
177 0.004009
181 0.003975
188 0.003962
191 0.003951
193 0.004993
198 0.003951
206 0.006026
168 0.004983
108 0.004977
101 0.005032
112 0.004988
122 0.004952
128 0.005017
136 0.004039
145 0.004986
142 0.004985
139 0.003939
134 0.00399
142 0.005028
151 0.003936
163 0.004991
173 0.005018
177 0.003977
183 0.002992
184 0.004018
189 0.003957
192 0.004976
198 0.002973
202 0.004991
175 0.003986
113 0.004978
108 0.00399
118 0.003954
133 0.004065
140 0.00399
147 0.003994
154 0.003999
153 0.003989
142 0.003994
139 0.003989
145 0.002983
150 0.002981
161 0.003998
168 0.003946
174 0.002992
179 0.002962
185 0.00296
188 0.00296
189 0.002961
195 0.002958
182 0.002955
138 0.002964
99 0.00195
86 0.002975
101 0.004032
105 0.002988
110 0.002923
114 0.002949
120 0.00302
118 0.002959
112 0.003011
110 0.002963
118 0.00304
128 0.002994
135 0.002984
140 0.002967
149 0.003027
152 0.001996
157 0.002993
161 0.001959
164 0.001938
169 0.001959
168 0.00201
172 0.001962
136 0.001963
84 0.001995
60 0.002958
60 0.002991
76 0.00306
79 0.003035
80 0.00196
88 0.003048
88 0.002971
82 0.002036
75 0.001971
76 0.002023
85 0.002965
89 0.003021
98 0.001961
103 0.001968
112 0.00302
116 0.001938
123 0.001995
126 0.001016
135 0.002027
140 0.001993
144 0.001997
140 0.001959
97 0.001994
48 0.001942
47 0.001963
55 0.001011
68 0.002966
68 0.001993
74 0.001991
78 0.002006
67 0.002023
62 0.00204
64 0.002015
73 0.001996
80 0.002994
92 0.001964
101 0.00196
104 0.001989
113 0.002995
113 0.001018
118 0.001995
122 0.001995
109 0.002007
67 0.002034
31 0.002036
22 0.000968
26 0.00093
34 0.001045
39 0.001005
42 0.000963
49 0.000997
41 0.000998
36 0.001049
35 0.001033
40 0.0
47 0.001043
57 0.0
62 0.001047
67 0.0
75 0.0
82 0.001003
83 0.0
91 0.0
94 0.0
71 0.000994
23 0.000946
0 0.0
0 0.000996
0 0.0
1 0.0
1 0.0
7 0.0
9 0.0
9 0.0
3 0.0
5 0.0
13 0.000998
17 0.0
23 0.000995
34 0.0
39 0.0
47 0.0
50 0.0
57 0.0
64 0.000999
69 0.0
79 0.0
88 0.0
78 0.000998
30 0.0
0 0.0
0 0.0
0 0.0
3 0.0
3 0.0
4 0.0
9 0.0
8 0.0
56 0.0
58 0.0
61 0.0
65 0.00105
71 0.0
76 0.001035
80 0.0
84 0.0
85 0.0
89 0.0
95 0.0
96 0.001041
106 0.000998
103 0.000999
83 0.001064
59 0.000998
54 0.000949
61 0.002041
65 0.001996
70 0.002083
75 0.000959
78 0.00101
79 0.002983
76 0.000997
78 0.000998
81 0.002992
89 0.001993
94 0.0
98 0.001978
101 0.003024
106 0.003042
110 0.001001
113 0.0
117 0.000965
121 0.003025
124 0.003025
118 0.003031
95 0.003024
77 0.00299
72 0.00097
77 0.000965
81 0.000999
82 0.002998
83 0.002027
90 0.0
90 0.000999
89 0.000965
90 0.003023
97 0.001003
104 0.002027
109 0.002027
114 0.001013
118 0.000995
121 0.0
124 0.002959
127 0.003963
132 0.000979
135 0.000965
141 0.0
145 0.003037
150 0.0
155 0.004027
148 0.002987
112 0.0
95 0.0
93 0.0
97 0.00303
104 0.003023
106 0.000963
107 0.0
112 0.0
113 0.003024
112 0.000964
112 0.003046
117 0.003023
127 0.001015
132 0.0
136 0.000947
