111 0.004985
112 0.005023
118 0.002659
126 0.000998
137 0.0
144 0.002442
152 0.00399
163 0.005901
155 0.006135
100 0.00798
63 0.005312
71 0.003988
81 0.00299
99 0.00203
108 0.002032
112 0.00103
114 0.001999
119 0.002
128 0.0
141 0.001003
148 0.002004
160 0.003935
164 0.004758
130 0.005475
79 0.006981
75 0.006984
85 0.007187
100 0.006267
119 0.004287
127 0.002226
128 0.001
130 0.000844
140 0.0
148 0.0
159 0.001889
169 0.003992
176 0.003995
175 0.006926
121 0.006985
86 0.006406
75 0.003951
89 0.003073
98 0.002001
115 0.000994
121 0.0
124 0.000997
127 0.002995
136 0.003991
145 0.00628
152 0.007401
159 0.006387
169 0.006867
175 0.005796
182 0.00544
127 0.002057
90 0.00245
73 0.0
83 0.000914
92 0.001748
107 0.002997
116 0.004526
117 0.005258
118 0.006402
125 0.005799
136 0.004018
143 0.002958
153 0.000996
160 0.002036
167 0.000667
155 0.001042
94 0.001999
77 0.002995
84 0.005041
97 0.007075
108 0.00694
121 0.007053
126 0.006982
127 0.005995
133 0.005949
144 0.001994
152 0.003035
162 0.001997
172 0.0
175 0.001
179 0.000998
115 0.004835
74 0.006896
73 0.006867
87 0.006941
101 0.004234
112 0.003985
119 0.005107
122 0.003035
125 0.00199
133 0.001
145 0.0
152 0.001047
164 0.002953
171 0.0053
179 0.00615
150 0.007175
92 0.008028
66 0.004082
70 0.004003
84 0.0
100 0.000999
105 0.0
111 0.001177
112 0.002998
116 0.005022
127 0.00615
136 0.00739
143 0.007491
153 0.004714
163 0.005066
170 0.004114
141 0.00196
85 0.002256
65 0.002256
66 0.0
79 0.001001
95 0.003024
104 0.004137
108 0.007034
109 0.005387
112 0.005288
122 0.00378
137 0.002992
143 0.002917
157 0.0
162 0.0
115 0.000949
80 0.000995
66 0.004587
80 0.006509
86 0.007679
104 0.005009
111 0.005022
111 0.003014
112 0.00361
122 0.002992
131 0.002086
144 0.00122
155 0.0
165 0.003033
166 0.004498
101 0.00548
65 0.007752
63 0.007305
76 0.00567
92 0.003808
103 0.002994
113 0.001958
113 0.0
116 0.0
126 0.001994
139 0.003738
146 0.003894
158 0.004635
168 0.007018
175 0.006682
171 0.005012
117 0.0035
69 0.003026
66 0.001313
79 0.0
94 0.0
103 0.000998
112 0.002901
114 0.005458
116 0.00607
123 0.007438
136 0.005985
148 0.003535
154 0.002258
163 0.000963
173 0.0
173 0.0
114 0.002053
76 0.002992
77 0.004502
94 0.006961
107 0.006891
118 0.006285
126 0.005526
127 0.004016
133 0.00204
140 0.001059
152 0.001
161 0.000963
170 0.001997
179 0.003976
177 0.004986
138 0.005498
87 0.00737
84 0.006985
91 0.005715
106 0.004129
120 0.002039
130 0.0
132 0.00104
136 0.00299
146 0.00502
153 0.005179
165 0.007129
175 0.006632
180 0.007011
189 0.006307
179 0.00542
122 0.004158
85 0.003644
83 0.003035
91 0.003049
104 0.001187
116 0.0
122 0.001958
124 0.003034
128 0.005499
134 0.005983
143 0.007734
154 0.006025
163 0.004596
168 0.003029
177 0.001998
181 0.002364
143 0.001971
92 0.0
74 0.001002
80 0.00302
96 0.004438
109 0.006901
116 0.007979
118 0.006967
118 0.004883
126 0.002961
135 0.002905
147 0.001017
156 0.0
163 0.000663
174 0.002996
154 0.005666
115 0.006799
84 0.007844
85 0.006048
95 0.006021
116 0.005055
131 0.003246
133 0.002886
135 0.002031
141 0.0
152 0.001999
160 0.003029
171 0.005334
180 0.004457
189 0.005779
187 0.005478
134 0.007563
95 0.007926
90 0.006492
104 0.005324
112 0.004309
128 0.003607
137 0.002107
138 0.002116
142 0.0
149 0.0
155 0.001055
166 0.001951
175 0.003003
180 0.005389
189 0.007044
172 0.007006
118 0.005626
87 0.00388
92 0.003225
102 0.001048
112 0.000997
125 0.0
128 0.001046
128 0.003621
133 0.005021
142 0.006112
149 0.006085
157 0.007878
166 0.005994
172 0.005315
180 0.003129
128 0.002027
99 0.0
89 0.0
102 0.0
110 0.001001
126 0.002991
134 0.005042
134 0.006028
137 0.007791
145 0.004985
153 0.007002
163 0.005135
171 0.004383
181 0.00304
185 0.002355
137 0.002305
95 0.0
86 0.001047
95 0.002038
108 0.004031
117 0.00619
126 0.007934
129 0.005972
130 0.007127
138 0.003096
148 0.000994
155 0.000972
165 0.001999
174 0.001999
181 0.001419
147 0.0
97 0.001005
80 0.001018
82 0.003996
93 0.005443
102 0.00638
114 0.007604
117 0.006606
119 0.004676
121 0.003252
131 0.002448
142 0.0
148 0.00104
156 0.001998
164 0.002994
169 0.004864
178 0.00601
130 0.007663
106 0.008006
81 0.006047
92 0.003946
102 0.003054
114 0.002086
124 0.002364
125 0.000963
126 0.001427
133 0.0
140 0.001039
152 0.00295
160 0.003992
170 0.006394
176 0.006964
153 0.006135
119 0.007781
94 0.007583
99 0.003046
113 0.003782
122 0.003163
134 0.000994
137 0.0
139 0.002032
144 0.002996
155 0.005361
161 0.00667
172 0.006983
181 0.007761
185 0.006097
192 0.003792
158 0.003023
106 0.002492
97 0.002366
105 0.002001
111 0.002604
122 0.002097
131 0.0
134 0.0
134 0.000997
140 0.001994
146 0.002129
156 0.003988
166 0.004982
171 0.006006
176 0.006117
184 0.004059
187 0.003013
150 0.003136
97 0.002232
95 0.000143
101 0.001029
111 0.001997
122 0.003991
127 0.005025
127 0.00669
130 0.007694
134 0.005832
147 0.004121
162 0.003172
170 0.00219
182 0.001
194 0.0
187 0.000996
143 0.003985
91 0.005949
93 0.00695
100 0.00798
117 0.007038
134 0.00498
139 0.003212
140 0.002089
147 0.002317
154 0.001133
168 0.001222
177 0.0
185 0.000957
197 0.002031
206 0.00499
175 0.00505
102 0.004966
82 0.00559
87 0.007204
97 0.007506
111 0.0043
126 0.001952
129 0.002259
132 0.0
139 0.0
144 0.0
158 0.001995
171 0.00199
179 0.004985
188 0.004988
199 0.007244
200 0.007574
133 0.005962
75 0.004094
69 0.00489
78 0.00384
91 0.002369
101 0.002071
114 0.0
116 0.001991
118 0.001957
123 0.005
137 0.006017
148 0.006982
155 0.006831
166 0.00497
176 0.002017
184 0.000951
164 0.000998
87 0.0
70 0.0
69 0.0
86 0.001039
99 0.001998
115 0.001952
120 0.004944
120 0.003007
127 0.006229
137 0.005985
149 0.006016
155 0.006561
168 0.00405
176 0.003271
183 0.001019
131 0.0
64 0.001125
55 0.001037
68 0.002946
86 0.005024
97 0.004987
110 0.005947
112 0.007169
114 0.005375
126 0.005024
140 0.003733
150 0.002009
163 0.000998
171 0.001642
180 0.0
170 0.000961
87 0.004047
59 0.005608
57 0.005026
70 0.006196
79 0.007698
94 0.006012
104 0.00502
106 0.001995
110 0.002997
121 0.001003
133 0.0
141 0.0
154 0.002033
166 0.002949
173 0.002996
129 0.004977
62 0.005993
54 0.007601
64 0.00588
82 0.004123
97 0.004062
111 0.004041
112 0.00315
114 0.002002
122 0.00146
137 0.0
147 0.001037
161 0.002987
171 0.002895
172 0.003995
116 0.005945
63 0.007904
60 0.007987
72 0.006631
90 0.004239
104 0.003824
116 0.000996
119 0.0
123 0.000997
130 0.001992
145 0.003621
159 0.003992
168 0.004988
180 0.006987
142 0.007441
92 0.007103
60 0.006257
62 0.00515
75 0.001996
87 0.002385
105 0.00203
111 0.000961
114 0.000886
119 0.003282
129 0.004847
141 0.006981
151 0.008163
162 0.003932
169 0.004743
181 0.001964
147 0.001994
98 0.001145
58 0.0
63 0.0
74 0.000995
90 0.001984
106 0.004012
109 0.004979
109 0.006373
113 0.007173
120 0.006033
135 0.003818
150 0.003024
163 0.0
171 0.00099
177 0.0
119 0.001998
81 0.002741
68 0.004955
85 0.006023
96 0.005931
115 0.00676
121 0.005792
123 0.00506
128 0.00412
141 0.001997
151 0.001996
165 0.002403
175 0.001648
185 0.0
194 0.002027
140 0.000997
97 0.00303
74 0.004455
84 0.005969
94 0.005991
104 0.008114
121 0.006081
127 0.00495
130 0.002992
140 0.0
149 0.0
158 0.0
171 0.001994
183 0.003025
190 0.005019
201 0.00499
194 0.007092
149 0.006176
89 0.004293
86 0.002998
94 0.002076
107 0.0
120 0.0
129 0.0
130 0.001994
135 0.003028
143 0.003954
154 0.004982
165 0.007067
173 0.006395
181 0.006105
191 0.004009
200 0.000969
184 0.001999
115 0.0
94 0.0
99 0.000988
113 0.002992
130 0.003
142 0.004998
144 0.005985
146 0.007343
155 0.006039
163 0.003792
176 0.00103
185 0.002583
195 0.0
203 0.001994
213 0.000994
199 0.0
126 0.002994
99 0.004993
103 0.006022
114 0.005982
128 0.005986
138 0.007038
145 0.008085
147 0.006439
150 0.004985
161 0.001987
174 0.003435
181 0.00099
191 0.001994
201 0.000907
206 0.000977
215 0.000965
168 0.002002
123 0.002992
95 0.005927
104 0.006877
109 0.007592
121 0.005501
132 0.006014
135 0.002991
136 0.003969
141 0.002995
147 0.001997
159 0.0
169 0.001168
180 0.001995
184 0.003973
195 0.004396
179 0.006027
150 0.006971
95 0.004983
94 0.004008
104 0.003075
120 0.001996
133 0.002027
140 0.0
141 0.0
147 0.001994
153 0.001994
166 0.00399
176 0.006029
185 0.007887
192 0.006172
205 0.004988
170 0.003939
126 0.003489
91 0.000997
100 0.0
109 0.0
122 0.00194
137 0.001961
140 0.004986
142 0.00399
149 0.003985
156 0.005986
168 0.006744
179 0.005157
186 0.003743
197 0.000956
204 0.002045
153 0.002029
108 0.0
83 0.001995
90 0.003722
102 0.004072
114 0.006017
123 0.007971
126 0.00693
127 0.00539
132 0.002028
139 0.002996
150 0.0
159 0.000839
171 0.000995
176 0.000997
187 0.002583
138 0.005003
96 0.005937
72 0.007009
82 0.004171
93 0.003247
110 0.003219
120 0.003994
121 0.0
122 0.001998
131 0.0
141 0.003035
151 0.004017
162 0.005931
174 0.006124
179 0.005956
117 0.007964
74 0.004149
68 0.004585
81 0.002992
99 0.0
110 0.0
119 0.0
121 0.00103
123 0.002994
134 0.004815
147 0.004992
155 0.006985
168 0.006827
179 0.004907
181 0.005067
111 0.003945
63 0.004064
55 0.000997
66 0.001001
81 0.000995
95 0.001925
103 0.002991
105 0.00499
108 0.007281
115 0.007876
125 0.007031
138 0.005035
147 0.00589
159 0.003031
172 0.003914
155 0.002306
74 0.0
43 0.0
45 0.000925
61 0.003043
79 0.002995
91 0.004006
96 0.004986
97 0.005761
101 0.007019
109 0.007061
123 0.005019
133 0.005139
148 0.003022
162 0.002028
141 0.002993
66 0.0
44 0.001997
50 0.0
72 0.002252
94 0.00399
107 0.005459
107 0.006684
110 0.007391
121 0.00617
129 0.00573
143 0.004057
155 0.003223
166 0.000979
160 0.002039
75 0.001
42 0.0
38 0.0
52 0.002026
67 0.004033
85 0.005041
95 0.007006
96 0.008023
101 0.005006
114 0.003891
123 0.004152
138 0.0
152 0.0
163 0.001002
141 0.001001
54 0.002
22 0.003989
27 0.004967
43 0.005951
60 0.007397
70 0.005985
78 0.005375
80 0.006239
86 0.00426
97 0.003992
113 0.002402
122 0.001058
136 0.000856
148 0.001212
135 0.003261
66 0.003989
17 0.005606
18 0.005941
36 0.007863
59 0.004988
78 0.001982
84 0.001033
86 0.002031
97 0.000961
106 0.0
121 0.0
137 0.0
146 0.001946
157 0.002994
84 0.005364
44 0.006711
31 0.00711
43 0.007984
60 0.003971
80 0.004036
97 0.001993
101 0.00198
104 0.0
117 0.0
134 0.002998
143 0.002995
159 0.005213
174 0.005988
182 0.007602
148 0.004951
66 0.004271
49 0.001988
58 0.0
76 0.000998
84 0.0
102 0.001999
111 0.003032
115 0.006461
120 0.006016
137 0.006998
151 0.007522
160 0.006188
171 0.005979
183 0.004481
191 0.003027
182 0.002039
114 0.000696
70 0.000993
69 0.000948
88 0.001999
98 0.003993
117 0.003941
123 0.00503
123 0.006511
128 0.007112
142 0.004899
152 0.004378
167 0.005026
180 0.003315
189 0.001958
198 0.002036
139 0.001997
99 0.0
86 0.002028
101 0.003991
119 0.006262
133 0.006891
143 0.007868
147 0.004954
148 0.005988
160 0.002995
176 0.0
183 0.0
196 0.000997
207 0.000517
214 0.002046
209 0.002992
128 0.002988
97 0.003765
94 0.006574
106 0.00598
114 0.00496
130 0.003984
139 0.005602
141 0.003735
144 0.00303
154 0.002293
161 0.00203
175 0.0
184 0.000979
193 0.00201
200 0.0031
210 0.004984
156 0.006333
108 0.007158
79 0.007086
88 0.002995
96 0.00399
111 0.005023
124 0.001993
127 0.0
127 0.000978
133 0.0
141 0.0
154 0.0
169 0.001999
176 0.001966
187 0.001997
194 0.002963
194 0.003991
136 0.003994
92 0.005277
88 0.006606
106 0.007407
112 0.007268
131 0.006012
141 0.004307
142 0.004074
144 0.001993
155 0.0
162 0.000603
176 0.0
189 0.001724
200 0.002968
206 0.003992
183 0.006365
103 0.00687
80 0.007139
82 0.006982
94 0.00647
105 0.002986
120 0.004015
130 0.004028
130 0.002999
136 0.002092
146 0.0
157 0.0
169 0.000999
181 0.002041
187 0.00293
198 0.004597
197 0.005984
149 0.006954
89 0.006785
71 0.002937
78 0.003227
93 0.002931
108 0.003053
117 0.0
120 0.002999
121 0.00165
125 0.0
138 0.002087
149 0.005026
160 0.006083
169 0.008359
179 0.00692
186 0.006934
169 0.005027
90 0.002974
65 0.001952
72 0.001071
92 0.000953
105 0.000958
121 0.0
124 0.000999
123 0.001953
130 0.003051
145 0.003978
160 0.005862
167 0.006978
182 0.004912
193 0.004473
154 0.001027
91 0.003203
68 0.001056
74 0.002031
92 0.0
110 0.001997
121 0.003519
126 0.005047
129 0.005376
133 0.006143
144 0.008209
158 0.005019
165 0.005428
179 0.002979
177 0.001987
94 0.0
70 0.000464
54 0.001949
68 0.002041
76 0.003029
96 0.004918
105 0.00582
106 0.006476
108 0.006604
117 0.005797
127 0.003023
138 0.004442
150 0.003334
157 0.00324
170 0.002159
125 0.0
74 0.001999
36 0.000993
39 0.001216
53 0.000969
73 0.002035
89 0.002995
91 0.00407
91 0.005172
99 0.006891
108 0.007063
124 0.005984
139 0.005119
148 0.003412
164 0.000998
138 0.000727
88 0.0
42 0.001
51 0.001997
65 0.002994
89 0.004879
102 0.006042
107 0.006942
107 0.007974
114 0.006324
131 0.003022
141 0.003411
155 0.0
165 0.0
176 0.0
150 0.000997
66 0.001962
43 0.003023
50 0.00399
68 0.004681
81 0.004508
99 0.006288
105 0.007075
107 0.006489
115 0.004907
126 0.005422
135 0.00226
152 0.001748
163 0.0
175 0.001003
184 0.00303
180 0.004986
92 0.006345
56 0.006728
47 0.006527
63 0.005479
73 0.003602
93 0.0021
102 0.001993
104 0.002945
106 0.0
117 0.000997
127 0.003001
143 0.004584
158 0.006238
164 0.006266
175 0.007163
178 0.007029
103 0.004646
65 0.004342
58 0.002975
78 0.0
91 0.000326
109 0.001057
119 0.003006
121 0.004281
126 0.006151
140 0.005099
150 0.006333
161 0.005948
176 0.005917
185 0.005253
198 0.002975
136 0.003339
89 0.002994
62 0.001957
73 0.000998
85 0.0
106 0.001862
123 0.003995
126 0.005249
129 0.005094
137 0.006631
149 0.006778
157 0.006999
173 0.005745
186 0.002127
194 0.003339
206 0.0
146 0.0
91 0.0
57 0.001041
64 0.002888
76 0.004833
93 0.00612
107 0.006917
112 0.005776
113 0.003016
119 0.002713
131 0.002035
143 0.000997
156 0.0
170 0.001001
177 0.002034
189 0.003033
197 0.00572
184 0.006347
106 0.007861
56 0.006839
49 0.005696
66 0.004057
85 0.001971
99 0.002645
109 0.0
108 0.0
110 0.0
122 0.0
139 0.002029
149 0.00289
165 0.00475
178 0.006591
183 0.005817
111 0.007532
59 0.005247
50 0.004395
67 0.003074
86 0.003684
112 0.002001
120 0.002014
124 0.0
128 0.001001
137 0.003052
150 0.00562
167 0.00651
172 0.007721
188 0.007107
194 0.003996
146 0.002184
59 0.002036
43 0.0
59 0.000901
72 0.00095
96 0.002008
111 0.003997
115 0.006142
116 0.007077
126 0.007804
138 0.005491
149 0.00446
165 0.003567
173 0.002224
187 0.0
150 0.0
70 0.001479
29 0.002962
36 0.004571
56 0.006196
71 0.007437
87 0.007013
94 0.003858
96 0.003995
102 0.002409
117 0.001035
126 0.0
139 0.0
154 0.001996
163 0.001992
147 0.00331
54 0.004267
26 0.004947
33 0.006379
52 0.007621
69 0.006739
90 0.005422
99 0.003646
102 0.0
107 0.000473
119 0.001027
138 0.003015
149 0.003884
166 0.00522
181 0.005904
154 0.005018
76 0.007461
34 0.004573
40 0.003065
62 0.003427
89 0.002281
103 0.003018
112 0.000985
114 0.001225
120 0.0
137 0.0
154 0.001953
164 0.002916
179 0.00358
192 0.005121
192 0.007042
121 0.0075
61 0.007946
49 0.007411
64 0.005114
85 0.002151
108 0.000962
115 0.0
118 0.000996
122 0.002039
130 0.002994
146 0.003979
162 0.005993
170 0.007212
181 0.006357
195 0.004174
202 0.001993
133 0.00212
77 0.001999
69 0.001003
81 0.000879
103 0.002013
121 0.003034
128 0.002994
129 0.003999
134 0.006465
142 0.006667
155 0.007369
171 0.004449
180 0.005462
195 0.003001
203 0.002292
163 0.0
93 0.000992
83 0.000997
94 0.000994
117 0.001955
140 0.004691
147 0.00536
149 0.006546
153 0.004658
158 0.004618
171 0.003348
186 0.003231
200 0.0
209 0.0
220 0.000946
180 0.000998
126 0.000967
84 0.002551
87 0.002823
103 0.003993
120 0.004988
134 0.007044
138 0.005532
140 0.003795
148 0.001048
155 0.001006
169 0.0
181 0.001994
189 0.0
201 0.000965
211 0.0
179 0.001997
93 0.003953
69 0.004032
76 0.005299
90 0.006018
108 0.007881
118 0.00776
123 0.006469
123 0.001995
127 0.004028
138 0.000997
153 0.001034
161 0.000986
172 0.001
184 0.0
193 0.001131
143 0.004016
76 0.003025
67 0.002991
83 0.003987
106 0.005846
119 0.006889
129 0.005933
131 0.006096
133 0.003093
140 0.003375
156 0.003763
164 0.002956
178 0.0
190 0.001034
197 0.000935
140 0.001998
76 0.004831
69 0.005032
84 0.0075
101 0.005986
123 0.005654
129 0.004939
132 0.00396
138 0.001998
145 0.0
156 0.000955
171 0.002029
180 0.00296
194 0.004057
206 0.004984
183 0.005994
109 0.006543
69 0.00535
69 0.00412
81 0.003994
99 0.001302
118 0.0
123 0.000971
124 0.001035
129 0.002618
136 0.003992
150 0.004991
165 0.006762
175 0.007973
184 0.004546
196 0.003987
203 0.002992
181 0.002188
91 0.000999
64 0.0
64 0.0
79 0.0
91 0.000996
111 0.001994
116 0.00398
116 0.00554
121 0.006664
126 0.007989
144 0.005061
154 0.004973
167 0.003878
181 0.0
189 0.0
193 0.000655
117 0.000969
75 0.000999
60 0.003054
81 0.003995
96 0.003992
119 0.006078
127 0.006557
127 0.005236
130 0.006006
140 0.005243
151 0.001993
163 0.004308
179 0.003972
188 0.002032
200 0.0
151 0.0
80 0.001003
51 0.000885
62 0.001992
75 0.001894
98 0.003989
115 0.006011
118 0.006402
121 0.007149
128 0.004939
136 0.003556
153 0.00348
168 0.001994
177 0.001994
191 0.000958
199 0.00103
164 0.0
70 0.002006
41 0.003989
48 0.003946
69 0.004953
88 0.007025
101 0.006467
104 0.00646
104 0.005201
112 0.003372
121 0.004025
136 0.001995
152 0.0
161 0.000983
170 0.000961
183 0.001991
180 0.00299
88 0.00399
35 0.007256
37 0.007249
54 0.006164
82 0.002979
97 0.002036
105 0.0
104 0.001964
106 0.000996
118 0.000999
136 0.000896
146 0.000997
163 0.000998
177 0.002947
164 0.002989
91 0.005644
38 0.006986
36 0.007279
57 0.005446
86 0.00201
108 0.001028
113 0.0
113 0.0
120 0.0
128 0.000997
146 0.001967
161 0.003949
171 0.004989
187 0.006617
167 0.007296
125 0.007207
40 0.004062
27 0.0063
43 0.003095
63 0.002994
88 0.002034
98 0.001954
101 0.0
104 0.0
111 0.000966
124 0.002958
142 0.003022
152 0.001993
166 0.003956
181 0.005747
182 0.007766
108 0.004038
28 0.002587
17 0.002953
35 0.001006
60 0.000997
77 0.001007
91 0.000996
91 0.000998
91 0.001025
102 0.001745
119 0.003998
131 0.005353
149 0.006984
159 0.00686
174 0.007147
145 0.006495
51 0.003994
24 0.001994
35 0.002237
65 0.000997
90 0.0
101 0.0
107 0.001029
107 0.000995
117 0.001993
133 0.00413
152 0.005986
158 0.006497
175 0.006341
187 0.007428
135 0.004982
53 0.005309
19 0.004256
28 0.003842
55 0.003994
85 0.000997
97 0.002993
102 0.0
103 0.002991
113 0.0
127 0.000959
139 0.0
155 0.001989
171 0.001956
181 0.003995
167 0.005581
59 0.005653
11 0.002992
15 0.001989
38 0.001958
61 0.002001
76 0.000999
88 0.0
90 0.002003
94 0.003995
108 0.005954
122 0.005987
134 0.006304
148 0.006873
165 0.005027
169 0.001984
113 0.002962
24 0.000955
9 0.0
20 0.0
51 0.001994
80 0.003958
91 0.004928
94 0.005982
99 0.007005
105 0.006472
122 0.005308
141 0.003061
153 0.003061
172 0.001965
163 0.003034
80 0.000969
24 0.001995
24 0.0
41 0.001001
72 0.002991
96 0.002994
104 0.004777
106 0.007225
110 0.00698
125 0.004695
137 0.006092
156 0.000959
173 0.002004
183 0.002009
152 0.000995
80 0.000997
12 0.0
21 0.00099
33 0.000998
59 0.001038
84 0.003942
89 0.003912
93 0.004239
101 0.005984
110 0.006985
125 0.005101
141 0.006397
158 0.004965
169 0.004004
174 0.003026
68 0.0
19 0.0
7 0.001994
32 0.001999
48 0.003992
78 0.00557
89 0.005824
89 0.007831
92 0.003089
105 0.002963
123 0.0
134 0.0
152 0.0
166 0.0
173 0.0
80 0.002006
23 0.004027
19 0.004989
41 0.005024
76 0.007503
95 0.007795
108 0.00742
111 0.003059
113 0.005039
127 0.002992
146 0.0
157 0.0
171 0.0
189 0.0
171 0.002995
58 0.003991
12 0.005939
20 0.00599
49 0.006203
76 0.004062
92 0.003991
102 0.004016
105 0.004995
111 0.002988
124 0.002027
144 0.001997
155 0.0
173 0.002028
188 0.003994
124 0.005023
54 0.006553
6 0.006217
20 0.005363
38 0.006259
67 0.001997
90 0.002027
94 0.001036
97 0.0
104 0.000969
114 0.001929
132 0.002995
152 0.004183
169 0.005998
180 0.006382
179 0.006673
91 0.006251
18 0.002026
6 0.004997
32 0.003989
50 0.002992
81 0.002995
90 0.001997
92 0.001996
96 0.001947
112 0.002995
125 0.004032
145 0.005013
157 0.004985
167 0.008174
169 0.003949
63 0.003041
21 0.002992
132 0.002029
131 0.000999
131 0.002037
130 0.0
130 0.001042
130 0.001034
130 0.00399
130 0.005446
130 0.005819
130 0.005955
130 0.007867
130 0.005971
118 0.003993
0 0.003037
0 0.0
0 0.001062
0 0.0
0 0.002
9 0.002996
31 0.00499
37 0.005879
45 0.00664
64 0.006149
91 0.004987
109 0.00299
134 0.004038
158 0.004171
175 0.002988
100 0.003989
0 0.003991
0 0.001995
0 0.002981
0 0.0
20 0.002263
53 0.002981
58 0.002035
61 0.0
71 0.002033
91 0.002286
115 0.004024
143 0.00603
160 0.005727
180 0.00508
164 0.003988
18 0.002937
0 0.001995
0 0.0
16 0.001998
55 0.0
88 0.001048
97 0.002998
97 0.005016
109 0.005416
130 0.005176
151 0.006272
167 0.008243
192 0.005986
208 0.005279
211 0.004028
55 0.002026
0 0.002026
50 0.0
68 0.001864
88 0.001865
101 0.004176
112 0.005046
113 0.006887
116 0.005999
125 0.005056
138 0.002986
145 0.002021
158 0.000993
167 0.001998
173 0.001998
134 0.001999
65 0.00403
53 0.006337
62 0.005945
77 0.007159
97 0.005193
107 0.003992
113 0.002883
114 0.00096
119 0.001997
128 0.001999
141 0.00429
154 0.006253
161 0.00709
168 0.005085
176 0.004028
142 0.00313
74 0.002992
63 0.002074
78 0.0
91 0.001001
114 0.002157
123 0.003839
123 0.004412
124 0.006009
132 0.007546
141 0.006941
151 0.0058
163 0.003995
171 0.004039
176 0.003823
110 0.001995
80 0.002042
74 0.0
89 0.001028
101 0.001002
123 0.003162
131 0.004992
132 0.004991
136 0.00702
144 0.007048
152 0.005969
164 0.00299
176 0.005026
183 0.002976
181 0.001996
122 0.00321
82 0.0
78 0.0
95 0.001031
109 0.003235
125 0.004615
132 0.006656
133 0.007376
136 0.007026
144 0.007024
156 0.002963
163 0.004402
174 0.002993
187 0.0
192 0.0
159 0.0
96 0.002031
86 0.002996
96 0.004791
115 0.006823
122 0.006015
136 0.006484
139 0.003946
140 0.003736
146 0.001983
154 0.001995
164 0.0
174 0.001999
183 0.00296
194 0.003808
186 0.005937
125 0.0076
100 0.00457
108 0.004026
120 0.003989
141 0.0
153 0.0
154 0.0
154 0.000849
160 0.001996
167 0.003026
178 0.00545
189 0.006983
193 0.006052
204 0.005772
194 0.006188
140 0.00463
104 0.00523
104 0.004029
113 0.002026
131 0.001
146 0.0
150 0.0
150 0.000996
153 0.002997
158 0.003027
170 0.0048
180 0.00662
186 0.007333
197 0.00721
199 0.004024
167 0.003429
106 0.003027
93 0.003017
104 0.001994
118 0.0
132 0.000937
140 0.002582
141 0.004019
143 0.006306
149 0.006813
158 0.007257
164 0.007352
174 0.006291
180 0.005269
189 0.003997
183 0.001954
144 0.003033
94 0.002006
93 0.0
103 0.0
118 0.001035
136 0.001999
139 0.003281
138 0.005567
140 0.006942
149 0.00502
156 0.002979
167 0.002985
173 0.002988
183 0.003007
187 0.003564
144 0.0
99 0.001508
88 0.001
100 0.001899
116 0.002994
132 0.004378
139 0.005304
139 0.00614
141 0.007077
147 0.005133
154 0.005817
165 0.004133
175 0.002003
180 0.001993
188 0.0
157 0.001034
112 0.002
76 0.004685
84 0.006031
98 0.00571
109 0.005291
124 0.005139
126 0.006005
127 0.002959
131 0.004117
141 0.002368
147 0.002381
157 0.002242
164 0.0
172 0.000547
180 0.002998
134 0.003764
93 0.005673
67 0.007802
75 0.003948
87 0.005031
105 0.000963
117 0.0
118 0.0
118 0.0
124 0.002001
135 0.004036
143 0.005631
153 0.005981
162 0.007547
172 0.00401
181 0.005141
127 0.004044
96 0.003634
83 0.002048
99 0.001027
110 0.002201
128 0.001953
132 0.0
131 0.0
133 0.0
142 0.001001
148 0.002001
159 0.002595
170 0.004633
175 0.006087
177 0.006477
113 0.004994
80 0.004964
71 0.001981
84 0.003993
99 0.001959
114 0.003031
123 0.001297
123 0.000907
126 0.002041
133 0.002956
143 0.003876
152 0.00551
163 0.007938
173 0.004007
178 0.006981
123 0.002955
68 0.002955
62 0.002021
76 0.000982
88 0.0
106 0.0
117 0.000999
117 0.0
118 0.001536
125 0.003013
137 0.00468
143 0.005583
154 0.006977
160 0.006494
168 0.003954
166 0.004146
96 0.002994
64 0.002922
57 0.001006
72 0.003637
92 0.004989
103 0.006683
110 0.007932
110 0.004636
110 0.006624
119 0.004057
131 0.004028
139 0.002996
151 0.002031
162 0.0
167 0.0
114 0.0
69 0.001035
59 0.002939
73 0.00456
95 0.004892
108 0.004938
118 0.006763
119 0.007957
120 0.006042
126 0.004918
138 0.004284
146 0.004385
157 0.002996
166 0.0
177 0.001002
162 0.003004
87 0.004979
60 0.006052
61 0.006753
79 0.003945
98 0.000997
115 0.000995
116 0.000999
118 0.000901
124 0.002979
131 0.003988
143 0.004854
155 0.006937
160 0.005522
171 0.005758
177 0.006697
134 0.002958
79 0.004021
60 0.004059
68 0.004138
86 0.002734
106 0.001936
112 0.001303
115 0.0
117 0.001861
120 0.001994
132 0.00299
144 0.005984
151 0.006563
160 0.005983
171 0.006982
176 0.005213
129 0.002986
79 0.004624
66 0.002127
77 0.003277
98 0.0
115 0.000961
124 0.001997
125 0.001953
125 0.002642
131 0.002988
144 0.004648
151 0.00404
163 0.00406
174 0.006156
181 0.00717
161 0.007172
92 0.004401
72 0.002002
79 0.001995
98 0.000989
115 0.0
125 0.001001
129 0.002032
130 0.003957
135 0.003921
145 0.004877
154 0.007445
162 0.006026
170 0.006528
181 0.006039
187 0.004072
138 0.003256
76 0.000961
68 0.00098
78 0.000997
96 0.001035
108 0.001935
122 0.002774
124 0.004988
125 0.006125
129 0.004023
141 0.004539
153 0.00347
160 0.001995
170 0.0
177 0.001372
183 0.0
135 0.002001
75 0.003025
67 0.004018
81 0.005416
97 0.005982
113 0.007436
120 0.007562
121 0.005783
121 0.00444
126 0.003991
137 0.002371
145 0.001215
155 0.0
167 0.003018
178 0.003956
162 0.005983
95 0.00723
72 0.005022
77 0.00307
98 0.0029
121 0.0
131 0.0
133 0.001955
132 0.003038
136 0.000996
144 0.0
157 0.002011
163 0.00199
175 0.00399
184 0.004985
158 0.006662
97 0.00743
67 0.00546
74 0.002031
87 0.002492
107 0.001959
122 0.000995
125 0.0
124 0.0
129 0.000967
136 0.001996
148 0.004004
160 0.006195
166 0.006842
176 0.006253
153 0.00399
106 0.004315
62 0.003083
65 0.002358
77 0.003031
96 0.001254
113 0.000999
116 0.0
116 0.001001
120 0.000998
126 0.002
138 0.002974
149 0.003987
155 0.004006
167 0.005056
146 0.003991
115 0.006353
62 0.00535
65 0.004726
76 0.003147
98 0.001992
112 0.003117
116 0.002038
116 0.002037
120 0.0
126 0.000994
139 0.002008
149 0.001958
159 0.002894
168 0.003958
130 0.004951
87 0.006502
61 0.007369
71 0.00411
83 0.005738
107 0.0
120 0.001995
121 0.0
121 0.0
127 0.000913
135 0.001034
146 0.003955
158 0.00561
168 0.005957
171 0.005433
106 0.004157
63 0.00517
55 0.001995
69 0.002992
88 0.001141
100 0.001999
111 0.001002
113 0.001994
115 0.002991
122 0.002999
135 0.005021
142 0.006002
153 0.006981
164 0.004319
165 0.007218
102 0.002981
58 0.003989
59 0.002992
76 0.002991
96 0.000959
107 0.0
113 0.0
114 0.000684
117 0.00193
128 0.002987
140 0.005359
150 0.006984
157 0.00499
166 0.007198
162 0.004987
122 0.003994
76 0.002302
79 0.0
91 0.002994
113 0.0
127 0.001995
131 0.002958
132 0.00499
138 0.005949
144 0.007016
154 0.00448
165 0.001997
175 0.002068
184 0.001
157 0.0
105 0.000764
84 0.001968
88 0.001001
105 0.004619
116 0.005032
132 0.006073
135 0.007676
135 0.005452
139 0.006081
149 0.003348
156 0.002993
167 0.00299
177 0.0
184 0.0
189 0.0
129 0.0
107 0.0
88 0.002945
101 0.003993
110 0.004985
126 0.006234
135 0.005468
137 0.005464
139 0.00374
145 0.003989
156 0.002336
162 0.002254
172 0.0
180 0.002028
186 0.002993
193 0.003989
186 0.00499
150 0.005753
111 0.007904
105 0.002971
120 0.002008
128 0.00201
143 0.001995
147 0.0
147 0.000994
149 0.001994
158 0.001962
165 0.00296
176 0.004034
184 0.00611
189 0.005684
199 0.004044
201 0.005157
163 0.001919
131 0.00205
127 0.00205
135 0.002991
149 0.000751
161 0.0
166 0.001039
167 0.003987
169 0.004092
175 0.004696
186 0.006985
194 0.004121
203 0.002979
208 0.00204
217 0.00313
217 0.000957
188 0.000998
145 0.0
140 0.0
147 0.001995
157 0.003036
169 0.004989
174 0.005989
175 0.007103
175 0.006954
179 0.002007
185 0.004057
194 0.002967
203 0.0
208 0.0
214 0.001956
221 0.002974
212 0.004549
163 0.007161
145 0.004549
145 0.007124
153 0.00299
163 0.001985
167 0.00295
170 0.00101
169 0.001994
170 0.00196
194 0.000997
202 0.0
208 0.0
218 0.002996
226 0.003955
233 0.005659
239 0.004991
189 0.00701
153 0.005987
146 0.006417
159 0.003947
173 0.002004
183 0.001997
189 0.0
188 0.000972
187 0.001999
194 0.004993
202 0.005205
212 0.004167
218 0.002957
227 0.00226
237 0.0
222 0.0
170 0.000482
138 0.000957
139 0.001998
153 0.003028
163 0.004949
174 0.005989
176 0.006995
176 0.006884
175 0.005866
182 0.004426
192 0.0
201 0.0
205 0.0
214 0.0
219 0.001961
187 0.002996
128 0.003807
116 0.00499
122 0.005914
132 0.005682
145 0.003136
149 0.002347
149 0.002423
149 0.002262
152 0.001
159 0.003985
168 0.000996
173 0.000998
182 0.00076
190 0.001995
188 0.004021
137 0.003146
90 0.005986
87 0.006985
96 0.007576
109 0.003042
121 0.00299
122 0.0
119 0.000998
121 0.000612
125 0.0
136 0.001995
147 0.001805
153 0.002834
164 0.004988
149 0.006013
123 0.006603
74 0.003956
71 0.005087
81 0.002009
95 0.004989
111 0.002052
113 0.001995
112 0.000961
114 0.000951
121 0.001999
130 0.002995
141 0.004991
149 0.00502
160 0.00677
141 0.005084
72 0.003
50 0.00409
51 0.002026
64 0.001949
74 0.002001
88 0.0
91 0.000968
91 0.000998
95 0.0
106 0.002012
113 0.002996
126 0.004999
134 0.005457
141 0.006708
108 0.006985
52 0.007117
28 0.00695
29 0.004988
43 0.001953
53 0.004123
69 0.001996
73 0.0
73 0.0
79 0.001955
91 0.002033
99 0.00197
112 0.002806
124 0.005022
132 0.006046
134 0.003956
67 0.004074
34 0.002978
25 0.002991
37 0.004987
51 0.002024
68 0.002322
78 0.001967
78 0.0
83 0.0
93 0.001984
105 0.002991
116 0.003996
130 0.004943
139 0.006444
147 0.007978
94 0.002991
57 0.003026
39 0.002979
56 0.0
73 0.0
86 0.001921
99 0.004051
101 0.004302
103 0.005031
112 0.005953
123 0.006968
135 0.003786
146 0.004934
158 0.00339
167 0.000995
136 0.001986
64 0.0
46 0.000705
52 0.002758
70 0.005989
89 0.005941
99 0.006726
105 0.006201
107 0.00395
113 0.004041
127 0.002992
142 0.001993
150 0.0
162 0.000999
171 0.002079
178 0.001996
173 0.004882
94 0.004745
57 0.005991
55 0.006395
66 0.008189
82 0.006017
95 0.004989
106 0.004994
108 0.00312
111 0.002995
121 0.0
131 0.0
140 0.0
153 0.003036
164 0.003037
171 0.004645
180 0.005866
140 0.004975
93 0.002941
58 0.004452
72 0.002991
83 0.003057
103 0.0
113 0.003022
114 0.001001
116 0.001998
126 0.003042
137 0.004989
149 0.005033
161 0.00728
174 0.007003
178 0.006316
189 0.005023
127 0.002004
85 0.002991
64 0.0
76 0.001038
87 0.0
107 0.001952
121 0.003021
124 0.002995
125 0.005118
136 0.006538
145 0.007248
157 0.005139
170 0.001995
179 0.003989
189 0.001993
197 0.004023
133 0.0
86 0.0
59 0.002994
70 0.003994
84 0.004706
100 0.007658
112 0.007724
117 0.006683
117 0.00695
124 0.002983
132 0.003957
147 0.000999
160 0.0
167 0.000961
176 0.0
187 0.001998
142 0.002917
90 0.004904
52 0.005814
56 0.008118
72 0.003982
88 0.006224
109 0.004257
113 0.003364
113 0.003028
117 0.0
129 0.001996
141 0.003087
156 0.005398
170 0.004923
180 0.006041
169 0.005985
90 0.005019
61 0.003036
63 0.001951
86 0.000997
101 0.002994
122 0.0
127 0.0
127 0.00103
133 0.002035
147 0.004438
153 0.005986
168 0.006407
178 0.006983
192 0.004373
199 0.003167
139 0.003028
67 0.0
57 0.002062
74 0.001001
87 0.001998
101 0.002
118 0.004182
121 0.006026
123 0.007891
130 0.004025
144 0.004123
152 0.003008
167 0.001037
180 0.002987
188 0.0
158 0.0
89 0.001995
60 0.0
59 0.001999
77 0.003991
88 0.004025
104 0.006444
111 0.006939
112 0.006067
115 0.004911
127 0.003045
140 0.0
149 0.0
159 0.0
173 0.001039
178 0.001051
114 0.002998
63 0.005986
55 0.006693
69 0.005975
91 0.004023
112 0.003022
118 0.0
120 0.000963
124 0.001017
132 0.001995
147 0.002556
162 0.003981
171 0.005585
187 0.006447
173 0.006983
95 0.005138
67 0.005
69 0.002999
88 0.0
101 0.0
119 0.002
129 0.002875
130 0.003977
138 0.005609
153 0.006016
162 0.006153
174 0.005984
189 0.00351
199 0.002952
182 0.0
109 0.0
90 0.000996
96 0.0
108 0.003006
119 0.0
138 0.001997
145 0.002843
148 0.004694
153 0.005197
165 0.00639
177 0.004992
184 0.00669
198 0.002993
209 0.002249
217 0.003383
172 0.000963
134 0.0
113 0.0
124 0.0
140 0.00206
149 0.004321
162 0.004956
164 0.007108
164 0.004778
173 0.002959
183 0.004699
196 0.003524
203 0.0023
215 0.002547
223 0.0032
195 0.0
151 0.001032
139 0.001
149 0.002994
165 0.003823
176 0.004444
188 0.0077
189 0.00632
190 0.003145
196 0.002807
207 0.002003
218 0.001995
225 0.002951
235 0.0
241 0.0
217 0.000985
161 0.002037
153 0.002998
160 0.005098
172 0.006632
180 0.007486
190 0.005119
192 0.00707
191 0.005337
194 0.004318
203 0.004304
213 0.000951
218 0.002673
225 0.000999
234 0.002942
205 0.003981
169 0.00575
144 0.005496
148 0.002992
156 0.003989
166 0.002948
175 0.001995
176 0.002986
174 0.002994
176 0.00376
182 0.0
189 0.002995
197 0.001015
200 0.00103
208 0.003034
211 0.005404
184 0.005948
141 0.00769
130 0.005789
143 0.002992
150 0.0034
162 0.0
165 0.0
164 0.0
164 0.0
171 0.002995
177 0.002964
186 0.005816
192 0.005937
197 0.004986
206 0.003822
170 0.0
141 0.0
129 0.002077
138 0.002217
147 0.000998
155 0.001041
163 0.0019
163 0.002005
162 0.002961
167 0.005656
176 0.007639
179 0.006491
187 0.005343
196 0.001993
201 0.003266
200 0.0
147 0.000971
132 0.0
126 0.00104
136 0.00402
141 0.003012
150 0.005018
153 0.00699
151 0.007443
151 0.003461
166 0.006091
176 0.002961
184 0.00416
195 0.003995
201 0.002287
211 0.001998
217 0.0
158 0.001029
119 0.001997
103 0.004024
116 0.005896
123 0.007245
134 0.004941
141 0.003071
140 0.003067
139 0.003027
146 0.002942
154 0.0
166 0.0
174 0.001038
182 0.001033
194 0.000897
192 0.001061
148 0.002031
97 0.004437
96 0.004029
108 0.00671
117 0.007053
131 0.005288
137 0.003064
137 0.00315
139 0.000996
146 0.0
154 0.001019
167 0.002996
179 0.002992
185 0.003987
195 0.006655
181 0.005558
131 0.00535
79 0.003008
82 0.002243
91 0.002554
102 0.00203
114 0.00207
118 0.0
118 0.001038
123 0.003174
132 0.004989
143 0.004987
153 0.007003
162 0.00631
168 0.005503
180 0.004403
169 0.003024
119 0.002449
60 0.0
59 0.0
67 0.0
77 0.0
92 0.001995
95 0.001962
95 0.002031
98 0.005014
104 0.004905
115 0.004946
129 0.004215
135 0.003173
148 0.002991
158 0.004079
162 0.0
113 0.002197
52 0.001042
47 0.002769
62 0.00399
77 0.0051
95 0.006261
97 0.007772
99 0.006884
102 0.002024
109 0.004265
125 0.001955
139 0.000984
149 0.000965
160 0.001031
173 0.000972
146 0.002049
69 0.002958
47 0.005779
60 0.005687
72 0.004895
90 0.003947
102 0.005187
104 0.002995
105 0.003676
115 0.004035
123 0.003029
138 0.001124
150 0.002004
160 0.003035
173 0.003959
166 0.005465
113 0.005974
48 0.007158
43 0.004421
51 0.00633
66 0.002488
85 0.000954
90 0.0
91 0.000986
95 0.0
100 0.001066
114 0.002029
129 0.004039
136 0.003945
151 0.005645
163 0.007532
154 0.007375
102 0.007218
36 0.004944
35 0.001947
45 0.002051
63 0.0
78 0.000893
84 0.001945
85 0.001994
89 0.00296
97 0.004075
112 0.003821
128 0.006121
134 0.006073
150 0.003955
163 0.003937
130 0.00302
52 0.001948
36 0.004026
49 0.001
69 0.001047
94 0.00204
106 0.003993
105 0.004911
108 0.006001
120 0.007913
128 0.007625
144 0.005461
160 0.00198
168 0.0032
181 0.000997
127 0.0
75 0.0
42 0.003003
57 0.002962
79 0.004994
94 0.006732
107 0.005681
110 0.003941
112 0.004036
122 0.002944
135 0.002245
148 0.0
162 0.0
179 0.000987
188 0.001997
120 0.004928
59 0.006331
43 0.005708
56 0.006602
71 0.007319
84 0.007236
100 0.005724
101 0.002959
104 0.001986
109 0.0
121 0.001009
137 0.002995
146 0.003027
161 0.005373
175 0.006733
164 0.006044
78 0.005806
41 0.003387
50 0.003306
70 0.001981
91 0.003986
108 0.0
111 0.0
111 0.001564
120 0.002045
135 0.003989
151 0.005371
167 0.006988
176 0.007948
189 0.005675
137 0.002986
89 0.003326
60 0.0
79 0.0
93 0.0
114 0.0
129 0.001996
131 0.004174
132 0.005723
140 0.006009
158 0.005013
168 0.005984
183 0.004986
192 0.004987
198 0.005039
131 0.004893
65 0.00316
59 0.003189
76 0.00096
89 0.003262
111 0.0
122 0.0
122 0.002
125 0.003366
136 0.004972
148 0.006369
158 0.00684
172 0.00399
186 0.003171
192 0.002979
122 0.000992
59 0.000263
43 0.0
57 0.001997
76 0.00399
93 0.006281
103 0.006981
105 0.007657
107 0.005943
112 0.004326
128 0.003317
143 0.0
152 0.002298
165 0.0
178 0.001
153 0.000866
70 0.002175
48 0.004949
60 0.006004
80 0.006107
106 0.003917
119 0.002404
119 0.001992
123 0.001006
134 0.0
144 0.001026
161 0.001955
177 0.003059
186 0.00491
188 0.005705
117 0.007566
61 0.005957
52 0.00441
71 0.003039
94 0.0
111 0.0
121 0.001919
122 0.002994
125 0.004054
137 0.005716
150 0.004645
168 0.005032
178 0.004197
195 0.004072
182 0.002391
122 0.0
55 0.002024
49 0.001995
67 0.0
85 0.000922
108 0.002
114 0.004476
114 0.003008
117 0.006372
127 0.006923
137 0.008259
152 0.006195
162 0.005296
177 0.005014
185 0.001995
140 0.003243
54 0.001975
38 0.0
50 0.0
71 0.001002
97 0.000968
106 0.002959
107 0.003062
111 0.002997
119 0.00385
137 0.006139
152 0.006065
162 0.005973
181 0.003147
168 0.004066
93 0.001978
48 0.002047
52 0.0
74 0.001983
98 0.001709
118 0.00499
123 0.005688
121 0.005574
127 0.007494
143 0.003518
154 0.004987
171 0.001991
190 0.002977
194 0.002035
110 0.002003
59 0.003
39 0.001951
62 0.001023
78 0.0
100 0.0
114 0.001001
115 0.001997
120 0.003966
131 0.005982
147 0.00738
155 0.00712
170 0.00571
186 0.002054
186 0.003127
91 0.0
39 0.0
32 0.000995
55 0.003025
81 0.00399
100 0.00614
107 0.0058
108 0.004035
114 0.00314
123 0.003023
141 0.001987
155 0.002278
167 0.00202
182 0.003481
147 0.001879
87 0.001393
40 0.000946
50 0.001962
74 0.002993
99 0.004152
119 0.005987
119 0.006983
119 0.005964
129 0.002006
139 0.003532
156 0.001963
173 0.0
183 0.000941
196 0.0
130 0.0
76 0.001776
50 0.003017
74 0.004982
91 0.003951
118 0.006685
129 0.005632
129 0.007286
132 0.00358
143 0.005057
160 0.003402
169 0.00327
186 0.002986
196 0.002025
187 0.0
110 0.0
60 0.0
59 0.001006
81 0.003038
96 0.004048
120 0.004947
128 0.006967
128 0.004795
132 0.004486
147 0.001992
165 0.002961
174 0.002013
189 0.0
201 0.002006
174 0.000993
96 0.001005
55 0.001999
61 0.00399
83 0.003991
103 0.004001
117 0.00499
118 0.006984
116 0.00683
120 0.0059
132 0.005198
147 0.000976
157 0.002029
172 0.0
181 0.0
140 0.00104
61 0.000997
48 0.0
61 0.001776
88 0.002992
114 0.005226
121 0.006049
122 0.0061
124 0.00338
131 0.004505
146 0.003199
160 0.005276
173 0.001994
188 0.001987
160 0.0
99 0.0
47 0.002964
52 0.003736
77 0.006762
86 0.007671
109 0.00738
117 0.002805
118 0.00399
125 0.0
138 0.0
156 0.001972
166 0.003042
183 0.005019
192 0.006276
169 0.005472
76 0.003991
49 0.00545
64 0.003022
76 0.002014
100 0.000485
116 0.00295
119 0.002995
120 0.001996
131 0.005052
141 0.004894
157 0.007014
169 0.002992
176 0.005515
192 0.002987
178 0.0
120 0.000961
60 0.0
65 0.000761
75 0.000998
97 0.0003
119 0.001051
123 0.001995
125 0.004006
132 0.004496
141 0.005433
159 0.005824
170 0.007185
184 0.0051
197 0.006269
210 0.004136
189 0.003993
107 0.001985
89 0.0
106 0.001015
122 0.000957
148 0.003996
161 0.005526
162 0.006929
163 0.004145
174 0.00458
185 0.0
201 0.000964
216 0.0
226 0.0
237 0.0
202 0.0
149 0.001995
111 0.001969
125 0.003993
138 0.00271
158 0.004991
170 0.0076
174 0.004992
174 0.005642
180 0.00397
195 0.001993
204 0.003539
219 0.000967
228 0.0
236 0.001003
249 0.0
233 0.0
148 0.000964
117 0.004033
134 0.006769
140 0.006165
156 0.003967
169 0.00415
169 0.002991
168 0.002992
173 0.004007
183 0.002004
195 0.003032
207 0.002988
214 0.001993
225 0.002026
234 0.000998
222 0.0036
155 0.004951
116 0.007229
121 0.007153
138 0.007871
159 0.001
169 0.005706
173 0.002011
172 0.000996
174 0.0
187 0.001001
202 0.0
211 0.0
221 0.000997
235 0.002996
185 0.003991
160 0.005286
127 0.005959
123 0.007342
129 0.003558
138 0.003779
147 0.003406
150 0.00399
151 0.002953
151 0.001034
153 0.0
159 0.001956
166 0.00403
170 0.005054
176 0.005597
181 0.004988
184 0.002962
173 0.002028
129 0.000968
116 0.0
116 0.0
123 0.002035
129 0.000953
135 0.0
136 0.001033
134 0.001997
136 0.004012
141 0.005834
147 0.007576
150 0.00734
155 0.005373
162 0.002186
165 0.003991
152 0.0
110 0.000969
98 0.000997
99 0.0
108 0.00199
113 0.003052
121 0.004986
121 0.00668
121 0.005687
122 0.003916
127 0.00399
133 0.004616
138 0.00296
144 0.00399
150 0.002023
155 0.003023
144 0.0
102 0.001004
77 0.00205
81 0.004564
97 0.006956
106 0.007027
119 0.008281
121 0.004155
120 0.006128
123 0.002988
133 0.002987
139 0.002995
151 0.0
161 0.000943
168 0.000997
171 0.000894
111 0.002995
81 0.004027
70 0.004925
81 0.006409
90 0.005828
106 0.003993
114 0.00563
113 0.00295
114 0.002995
121 0.002
130 0.0
139 0.001119
148 0.00304
158 0.004652
165 0.004878
149 0.007561
92 0.002998
64 0.006267
59 0.001055
73 0.0
89 0.0
96 0.000949
100 0.0
99 0.001999
100 0.003992
109 0.004033
118 0.005936
125 0.001998
136 0.002945
145 0.003002
155 0.001995
136 0.002028
66 0.00204
45 0.001864
47 0.0
61 0.001001
80 0.003016
88 0.003991
89 0.005611
89 0.006627
94 0.008278
103 0.003012
117 0.0
125 0.002992
138 0.0
148 0.001034
148 0.0
85 0.001965
45 0.00299
45 0.004294
64 0.006884
80 0.007932
95 0.006264
99 0.005388
98 0.004992
103 0.000979
108 0.003027
121 0.000997
131 0.00033
139 0.001
152 0.002997
143 0.003959
96 0.003414
48 0.004946
37 0.005955
46 0.004029
63 0.001994
82 0.002946
88 0.002258
87 0.0
90 0.0
100 0.002996
109 0.003036
120 0.004525
130 0.006987
137 0.004986
146 0.007217
112 0.006021
65 0.005214
22 0.003043
30 0.000998
40 0.003304
59 0.000956
71 0.0
74 0.0
74 0.002
81 0.003719
89 0.00436
103 0.005586
115 0.005983
128 0.005559
136 0.004945
140 0.003987
99 0.002992
35 0.00495
26 0.003236
44 0.004046
56 0.0
79 0.001995
86 0.001994
86 0.002578
88 0.004026
101 0.005343
109 0.006399
125 0.007197
139 0.005011
146 0.006139
156 0.003005
92 0.003034
52 0.0
37 0.0
52 0.0
66 0.000997
88 0.001997
100 0.003046
100 0.005357
102 0.006188
112 0.004984
124 0.006984
137 0.00404
148 0.005302
161 0.004733
169 0.002994
155 0.002826
102 0.002206
40 0.002954
37 0.0
49 0.001637
64 0.002076
85 0.003415
93 0.006007
94 0.006771
97 0.005273
108 0.0
117 0.002991
131 0.0
144 0.0
152 0.0
162 0.0
120 0.0
67 0.002037
24 0.002621
35 0.003025
47 0.005231
69 0.006079
82 0.007612
85 0.004988
87 0.006981
92 0.005988
99 0.006024
114 0.003001
130 0.001995
139 0.002209
154 0.00096
141 0.001006
92 0.000495
34 0.002994
37 0.00469
60 0.006767
69 0.005941
92 0.003985
97 0.007135
98 0.00299
102 0.00577
116 0.003954
127 0.003146
143 0.002251
158 0.0
168 0.0
143 0.001722
60 0.001997
37 0.002993
43 0.005039
65 0.006553
81 0.007983
97 0.004052
104 0.00399
104 0.003994
112 0.00299
127 0.0
137 0.00096
152 0.0
165 0.002033
174 0.0
111 0.001998
38 0.004027
28 0.005572
43 0.005666
60 0.006972
79 0.0062
90 0.006985
95 0.004996
100 0.0
107 0.002285
121 0.0
134 0.001131
144 0.001997
159 0.002994
150 0.005202
96 0.006557
38 0.005528
30 0.003031
42 0.002982
65 0.002992
89 0.001995
96 0.002985
98 0.002992
103 0.003059
112 0.0
128 0.001052
144 0.003804
156 0.00536
166 0.006985
138 0.007727
55 0.00518
35 0.004267
44 0.003989
66 0.003018
82 0.003334
99 0.0
102 0.0
102 0.0
112 0.000604
127 0.003029
137 0.004364
154 0.005095
163 0.005982
115 0.006272
56 0.005156
41 0.004987
52 0.004566
78 0.003007
100 0.003172
112 0.001032
114 0.002154
119 0.0
128 0.002027
141 0.003902
155 0.006124
172 0.007547
176 0.007016
115 0.004858
50 0.002992
45 0.003137
64 0.0
91 0.0
106 0.000957
116 0.0
116 0.000967
118 0.000758
128 0.001997
142 0.002944
152 0.003759
168 0.006584
178 0.004984
141 0.005039
61 0.003888
44 0.004988
64 0.002331
80 0.002268
107 0.000995
117 0.001002
116 0.001054
117 0.002973
129 0.004238
138 0.00576
151 0.006071
169 0.006016
180 0.004957
139 0.00296
67 0.0
56 0.000118
68 0.0
96 0.002062
125 0.00448
132 0.005441
132 0.005084
134 0.007722
142 0.002456
154 0.006285
169 0.004986
179 0.004989
190 0.004257
114 0.002016
67 0.003352
51 0.0
66 0.0
81 0.001
109 0.003055
122 0.003232
124 0.004258
126 0.00678
136 0.005316
145 0.005993
161 0.004994
178 0.002547
186 0.003097
123 0.002996
60 0.0023
44 0.0
57 0.003605
82 0.001036
103 0.002566
114 0.002978
116 0.00554
120 0.007498
126 0.007979
138 0.007013
154 0.003986
163 0.005147
179 0.0
167 0.0
109 0.000976
50 0.000998
52 0.000947
65 0.002518
92 0.005294
116 0.005889
119 0.006469
119 0.005982
125 0.006947
132 0.006068
148 0.004987
162 0.00642
175 0.002989
187 0.004417
137 0.002471
91 0.002028
69 0.0
84 0.00227
107 0.002519
129 0.005188
145 0.004985
145 0.006555
148 0.007745
158 0.004844
174 0.002991
182 0.003024
197 0.003007
208 0.0
171 0.000996
107 0.0
81 0.001997
89 0.003015
111 0.005951
132 0.00596
146 0.007386
149 0.004945
152 0.005849
157 0.00397
167 0.003232
183 0.003425
192 0.003192
208 0.003025
186 0.0
137 0.0
94 0.000665
92 0.001996
102 0.001996
123 0.003042
142 0.003992
147 0.005156
148 0.006177
152 0.00528
161 0.00513
172 0.002032
183 0.00333
196 0.002028
204 0.0
180 0.001997
119 0.002992
89 0.002992
92 0.00403
111 0.004931
125 0.005417
144 0.007724
144 0.00512
143 0.006621
147 0.002952
159 0.001986
168 0.002011
181 0.0
195 0.0
203 0.0
151 0.0
105 0.0
94 0.001994
108 0.001998
131 0.004178
145 0.004693
154 0.005066
154 0.007074
155 0.00518
160 0.00771
173 0.004989
180 0.004231
194 0.002289
208 0.0
195 0.001891
132 0.000528
86 0.001982
89 0.003991
100 0.005497
120 0.005821
131 0.006074
138 0.006596
138 0.005878
141 0.004944
152 0.002264
165 0.00291
175 0.001996
187 0.0
195 0.0
135 0.000697
92 0.001933
68 0.002047
76 0.003456
91 0.004771
107 0.004986
119 0.007365
123 0.007827
124 0.006542
133 0.003043
141 0.005028
153 0.002992
167 0.001992
174 0.0
188 0.000998
150 0.0
103 0.0
67 0.001998
72 0.002426
83 0.004442
104 0.005511
120 0.005399
123 0.005998
123 0.005161
128 0.005856
135 0.002945
147 0.004521
161 0.004473
169 0.0034
183 0.002258
166 0.0
122 0.001946
82 0.000837
82 0.001869
93 0.002073
117 0.00399
136 0.006468
139 0.007033
139 0.005567
145 0.00299
152 0.003021
166 0.002523
179 0.001989
186 0.002966
200 0.002896
180 0.002272
116 0.0
78 0.002623
80 0.0
92 0.000999
112 0.003034
127 0.00396
134 0.004068
134 0.006847
138 0.00443
144 0.006376
156 0.003978
170 0.002683
178 0.001999
191 0.000917
165 0.0
99 0.001998
69 0.000999
65 0.003008
81 0.004475
94 0.004559
112 0.00651
115 0.007656
114 0.005155
115 0.005421
124 0.004066
132 0.004219
146 0.003407
158 0.0
167 0.003251
177 0.0
132 0.000959
86 0.001994
54 0.002993
66 0.004855
80 0.004946
98 0.006041
114 0.005975
116 0.005661
116 0.005001
126 0.003182
134 0.003002
149 0.002992
161 0.002261
173 0.0
180 0.002969
119 0.0
81 0.001987
66 0.002757
80 0.004986
98 0.006224
117 0.007081
127 0.0073
128 0.006957
130 0.004398
140 0.003962
149 0.003948
164 0.0
176 0.000995
187 0.0
190 0.00294
123 0.004616
70 0.004988
68 0.005987
84 0.006683
101 0.003947
115 0.002047
126 0.002023
128 0.002981
130 0.000969
138 0.003039
151 0.000966
162 0.002041
172 0.00265
182 0.00499
189 0.007805
163 0.007146
90 0.005275
69 0.002989
77 0.004139
95 0.0
116 0.0
120 0.0
124 0.0
124 0.000444
128 0.001585
140 0.002943
154 0.002999
161 0.004584
174 0.006573
185 0.00494
161 0.005189
104 0.001983
78 0.003067
87 0.002037
99 0.001986
123 0.001036
135 0.00304
136 0.003684
138 0.002992
144 0.005885
152 0.006117
162 0.00768
175 0.003455
183 0.00698
196 0.003024
165 0.002994
119 0.003063
79 0.002996
85 0.002004
97 0.0
114 0.002991
130 0.001996
132 0.002031
132 0.00293
138 0.004548
147 0.00401
158 0.005521
171 0.005987
176 0.007914
188 0.007679
189 0.003952
148 0.005351
81 0.000919
70 0.000993
79 0.0
93 0.0
111 0.000929
117 0.000998
119 0.001688
122 0.0
127 0.003993
139 0.005378
152 0.006025
157 0.005951
170 0.003941
179 0.004041
169 0.002197
124 0.002167
68 0.000998
65 0.002209
79 0.003033
95 0.005028
115 0.007202
118 0.00668
117 0.006214
121 0.004043
127 0.006776
141 0.002965
155 0.00398
164 0.003057
178 0.000947
171 0.0
128 0.0
74 0.0
70 0.0
80 0.0
103 0.001869
124 0.001003
129 0.0
129 0.001994
130 0.002994
141 0.004637
152 0.007602
162 0.006155
170 0.005824
183 0.004323
179 0.0
132 0.003024
73 0.0
56 0.0
65 0.002023
85 0.004043
106 0.005802
114 0.005831
114 0.004975
115 0.002946
125 0.002989
134 0.002946
148 0.000996
157 0.00225
168 0.00097
171 0.003022
96 0.000956
56 0.001994
40 0.00399
53 0.003991
70 0.005436
88 0.007653
98 0.006495
99 0.005066
99 0.003987
110 0.001008
125 0.0
135 0.0
146 0.000254
153 0.0
169 0.000997
125 0.001013
78 0.002953
45 0.004994
57 0.00514
81 0.004051
97 0.003397
114 0.0
114 0.003393
116 0.0
124 0.0
136 0.001965
151 0.003058
161 0.00401
175 0.005991
187 0.00533
172 0.006979
94 0.002697
61 0.000997
68 0.000965
89 0.0
112 0.001032
123 0.000945
128 0.001891
129 0.001996
135 0.002894
148 0.003016
164 0.006196
172 0.006816
182 0.005395
193 0.00609
202 0.004002
163 0.005414
91 0.004131
76 0.002982
86 0.003989
100 0.001001
121 0.002001
130 0.002993
133 0.004934
135 0.005954
140 0.006765
150 0.005155
164 0.002948
171 0.003463
183 0.003704
194 0.00096
202 0.002295
172 0.002938
124 0.002996
81 0.0
86 0.0
106 0.0
117 0.0
133 0.002994
134 0.004024
132 0.004916
138 0.006625
147 0.006528
155 0.006068
170 0.004118
182 0.0
189 0.004948
200 0.001026
176 0.0
129 0.0
92 0.0
93 0.000943
104 0.001995
126 0.002996
142 0.005269
143 0.005194
141 0.004711
144 0.002992
154 0.006025
164 0.000995
176 0.002735
187 0.004988
192 0.003992
203 0.002992
201 0.001
140 0.003023
88 0.004899
77 0.005955
87 0.004946
103 0.005284
121 0.002989
127 0.007942
128 0.002023
129 0.002543
133 0.0
147 0.0
160 0.0
166 0.0
177 0.001044
187 0.001966
193 0.003991
180 0.004468
98 0.005579
74 0.005063
62 0.00344
75 0.006739
89 0.002961
106 0.004025
114 0.002929
114 0.0
114 0.0
122 0.0
135 0.001001
144 0.002958
156 0.003733
167 0.004986
174 0.005985
181 0.006701
184 0.004025
140 0.001963
67 0.000966
56 0.0
69 0.0
90 0.0
108 0.0
115 0.001995
114 0.002731
115 0.005023
124 0.006105
131 0.007208
146 0.005988
161 0.003997
169 0.002273
184 0.0
183 0.000998
138 0.000971
68 0.002931
57 0.003618
78 0.006029
87 0.004972
111 0.004843
120 0.003022
118 0.001
120 0.001991
129 0.002022
139 0.0
152 0.0
165 0.000947
172 0.001998
185 0.003008
187 0.00512
141 0.003948
60 0.007413
41 0.006018
58 0.00299
71 0.004992
94 0.0
105 0.0
105 0.00101
104 0.000998
110 0.0
121 0.0
135 0.001999
144 0.002996
157 0.004022
171 0.00578
166 0.004001
115 0.003991
41 0.003988
30 0.005988
45 0.003028
64 0.003325
89 0.003966
95 0.002953
93 0.0
94 0.001998
103 0.002995
115 0.004022
133 0.005172
142 0.006408
158 0.006805
167 0.0
135 0.007775
53 0.003958
32 0.003012
43 0.0
69 0.0
97 0.000967
104 0.0
104 0.0
105 0.00055
112 0.001033
128 0.004924
143 0.006271
149 0.005071
164 0.004958
177 0.006133
128 0.0054
69 0.004933
23 0.002238
35 0.000998
50 0.003016
71 0.0
91 0.001997
93 0.00104
93 0.003026
101 0.005021
110 0.005988
123 0.006189
139 0.000998
148 0.003959
163 0.002954
164 0.0
111 0.000999
27 0.002988
12 0.003011
23 0.0
46 0.001002
68 0.003412
76 0.00548
77 0.005776
76 0.007216
86 0.003057
96 0.006039
114 0.0
132 0.00097
141 0.0
153 0.001995
160 0.001997
76 0.003892
43 0.004044
14 0.004988
35 0.0032
49 0.002029
77 0.002992
89 0.004988
88 0.0
89 0.003957
102 0.0
112 0.001996
131 0.001943
144 0.002853
156 0.005171
168 0.006115
135 0.007498
75 0.007933
26 0.006981
30 0.004999
57 0.002956
73 0.0
97 0.0
100 0.000963
100 0.000956
108 0.0
119 0.001004
133 0.001035
150 0.002995
159 0.004013
174 0.004954
185 0.003952
129 0.007712
67 0.002921
25 0.005044
33 0.003961
47 0.002038
72 0.004024
93 0.0
97 0.002961
97 0.0
102 0.003049
111 0.004432
128 0.004954
142 0.005984
155 0.006775
164 0.0
179 0.004294
179 0.002989
86 0.0
22 0.0
22 0.0
46 0.00193
68 0.003984
88 0.0
97 0.000141
94 0.000708
96 0.002189
109 0.004047
122 0.004985
134 0.005941
152 0.007887
164 0.006294
174 0.006019
168 0.004995
73 0.0
33 0.0
35 0.0
62 0.002163
94 0.00402
110 0.003991
