110 0.018997
126 0.003964
137 0.003991
134 0.003989
122 0.003988
115 0.003987
118 0.002962
124 0.003969
133 0.003957
138 0.002989
141 0.002993
143 0.002991
145 0.003039
148 0.002961
149 0.002989
151 0.00299
137 0.002992
79 0.003989
43 0.003989
48 0.003947
86 0.003989
108 0.004003
122 0.002994
129 0.002992
129 0.002993
114 0.003023
112 0.003974
119 0.003027
127 0.003995
133 0.002992
137 0.002992
140 0.002992
143 0.002991
145 0.001994
146 0.002992
148 0.001994
151 0.001994
89 0.002992
45 0.002992
48 0.002993
77 0.002993
102 0.001995
116 0.002994
125 0.002993
126 0.001995
118 0.001996
111 0.001983
114 0.001995
120 0.001994
132 0.002993
137 0.002991
141 0.003019
143 0.001995
145 0.001987
146 0.001993
148 0.001982
150 0.001994
133 0.001994
73 0.001999
41 0.001995
48 0.002028
94 0.00198
111 0.001995
124 0.000998
126 0.001959
122 0.00199
115 0.000996
114 0.00105
121 0.001998
128 0.001994
134 0.001995
138 0.001996
141 0.001996
144 0.001954
146 0.00196
147 0.001958
149 0.000996
152 0.000997
146 0.001017
97 0.000999
48 0.000997
50 0.000997
79 0.001021
104 0.001995
118 0.000998
128 0.001996
125 0.002001
115 0.001996
113 0.000998
118 0.000998
126 0.000997
132 0.000998
137 0.000998
141 0.000997
144 0.001037
144 0.000997
145 0.000997
147 0.0
150 0.000997
151 0.000997
109 0.001014
58 0.001022
49 0.001031
70 0.001027
99 0.000981
122 0.000997
132 0.0
133 0.0
124 0.0
113 0.0
117 0.0
125 0.0
135 0.0
139 0.001
142 0.000996
144 0.0
146 0.000997
147 0.000998
149 0.0
152 0.0
150 0.0
71 0.0
46 0.0
56 0.0
95 0.0
114 0.0
126 0.0
132 0.0
130 0.0
117 0.0
114 0.0
120 0.0
128 0.0
138 0.0
141 0.0
144 0.0
147 0.0
149 0.0
150 0.0
153 0.0
151 0.0
111 0.0
57 0.0
44 0.000999
72 0.0
107 0.000998
124 0.0
130 0.0
129 0.0
121 0.000998
115 0.000957
119 0.0
127 0.0
132 0.0
139 0.000964
142 0.0
146 0.0
148 0.000968
151 0.0
152 0.0
154 0.0
139 0.000969
122 0.016946
80 0.0
47 0.0
133 0.0
127 0.000993
119 0.000999
118 0.001003
123 0.001035
134 0.000951
139 0.000999
143 0.001003
148 0.0
150 0.0
151 0.001006
152 0.000997
154 0.0
157 0.001995
130 0.000946
71 0.000963
50 0.000998
65 0.001995
95 0.002069
124 0.000997
134 0.000997
138 0.000997
134 0.001995
123 0.000998
117 0.000991
128 0.001009
136 0.001997
141 0.001997
145 0.001994
147 0.002
149 0.002033
151 0.002994
152 0.000997
154 0.001
156 0.001995
150 0.001995
80 0.00104
56 0.002992
85 0.00199
115 0.00096
131 0.001999
141 0.002001
143 0.001995
134 0.002009
123 0.001991
121 0.00196
130 0.001991
137 0.002024
143 0.002012
148 0.002963
151 0.002684
153 0.002038
153 0.001944
156 0.001944
159 0.001999
157 0.003024
114 0.001994
55 0.001023
57 0.000998
83 0.00295
111 0.003032
132 0.002993
137 0.002991
131 0.001995
122 0.001994
120 0.001997
124 0.002964
132 0.002956
140 0.002021
144 0.001984
146 0.002
148 0.002992
150 0.002992
152 0.002993
154 0.002961
150 0.002036
103 0.003033
55 0.003032
49 0.003932
70 0.003025
99 0.003022
117 0.003025
127 0.003025
132 0.003041
127 0.003032
117 0.00399
120 0.002992
129 0.002975
136 0.00301
140 0.002992
143 0.00399
146 0.004021
148 0.002993
149 0.003023
151 0.003027
154 0.004023
150 0.003989
68 0.004024
50 0.003995
76 0.003041
105 0.002992
121 0.003991
131 0.003992
135 0.003977
131 0.003991
120 0.004039
116 0.003989
123 0.00399
131 0.004024
141 0.004024
143 0.003989
145 0.003989
147 0.002993
149 0.004034
152 0.004017
153 0.004031
134 0.003982
79 0.003982
54 0.003991
67 0.004025
105 0.003989
128 0.004989
139 0.004975
137 0.004988
121 0.003981
117 0.004047
123 0.003988
130 0.004987
137 0.004987
143 0.003989
146 0.004021
148 0.004012
150 0.004954
153 0.004987
152 0.004987
116 0.00499
61 0.004988
49 0.004987
77 0.004023
105 0.004987
120 0.005024
131 0.005019
133 0.004034
125 0.003989
117 0.005987
121 0.004033
129 0.006035
136 0.005946
142 0.005023
145 0.00502
147 0.005015
149 0.006017
150 0.005984
153 0.005016
154 0.005019
147 0.00502
75 0.005018
42 0.005986
68 0.005986
96 0.005985
112 0.005986
124 0.005015
126 0.005021
122 0.005985
115 0.005985
115 0.004977
121 0.005019
129 0.00502
132 0.021941
140 0.000997
145 0.000995
130 0.00399
130 0.006952
119 0.006018
117 0.005984
122 0.00601
129 0.005984
136 0.006022
142 0.006016
145 0.006025
148 0.005984
150 0.006018
152 0.005968
153 0.007016
154 0.006981
158 0.006017
154 0.006024
112 0.006023
64 0.006982
58 0.006981
93 0.006031
109 0.006025
125 0.006967
140 0.006005
137 0.007015
122 0.006982
118 0.007024
126 0.006016
134 0.006037
141 0.006019
146 0.006981
148 0.007019
150 0.005961
151 0.005982
152 0.007004
156 0.007014
156 0.007014
129 0.007935
75 0.006982
56 0.007009
72 0.007981
101 0.006971
126 0.007937
137 0.007978
140 0.005971
131 0.006983
123 0.006983
122 0.006984
129 0.007967
138 0.00793
143 0.006981
146 0.007979
149 0.007978
151 0.007986
152 0.007979
153 0.007978
156 0.006931
147 0.006986
97 0.00697
48 0.006985
72 0.007014
99 0.007018
114 0.007973
125 0.007965
126 0.007979
125 0.006969
117 0.007978
113 0.007978
118 0.00694
126 0.007037
132 0.006943
141 0.006957
144 0.007022
146 0.007016
147 0.007021
148 0.00703
152 0.00702
152 0.007019
112 0.006977
60 0.007003
47 0.006981
75 0.00701
100 0.007013
121 0.006984
128 0.006985
126 0.007009
119 0.006985
114 0.006968
118 0.006981
125 0.007018
133 0.006982
138 0.007029
143 0.007018
146 0.007011
148 0.006981
150 0.007022
151 0.007012
153 0.007004
156 0.006983
149 0.006028
85 0.006026
53 0.006025
61 0.007005
88 0.00598
111 0.007022
128 0.007015
135 0.005988
128 0.006017
119 0.005986
117 0.006024
123 0.006011
132 0.006034
140 0.007024
145 0.006029
148 0.007023
150 0.006023
150 0.006981
152 0.006016
153 0.00602
157 0.006016
153 0.006026
114 0.006021
69 0.006023
65 0.006018
97 0.006015
119 0.00604
134 0.006024
142 0.004986
143 0.004984
128 0.005019
119 0.005016
128 0.006018
136 0.006037
143 0.006024
146 0.006024
149 0.006031
151 0.006023
153 0.006017
155 0.005992
156 0.00595
155 0.006022
125 0.006024
64 0.005982
68 0.005003
104 0.005029
124 0.005034
136 0.005025
142 0.004994
139 0.005032
125 0.00502
121 0.005026
125 0.005984
133 0.005026
140 0.00602
146 0.006018
146 0.042854
149 0.0
155 0.005012
156 0.005068
137 0.005019
64 0.005028
50 0.004987
66 0.004013
95 0.004706
115 0.004053
130 0.003989
134 0.004022
124 0.005013
116 0.005027
118 0.00504
124 0.004998
132 0.004986
140 0.003986
144 0.005027
146 0.004213
148 0.005047
149 0.004997
151 0.005029
154 0.004979
134 0.004023
76 0.00399
49 0.00399
58 0.004027
86 0.004024
116 0.00399
128 0.004003
134 0.004037
132 0.004035
124 0.00399
116 0.004986
122 0.00404
132 0.004027
139 0.004046
143 0.004042
146 0.004015
148 0.003992
150 0.00399
151 0.00399
151 0.004021
153 0.00403
156 0.003023
140 0.002994
68 0.002994
54 0.004025
78 0.003976
106 0.002994
123 0.002997
133 0.00402
136 0.003025
127 0.002994
117 0.003005
115 0.004038
121 0.002988
130 0.004023
140 0.002993
144 0.002992
147 0.002993
148 0.002986
148 0.002998
150 0.002992
152 0.002991
154 0.002995
136 0.003001
85 0.003027
59 0.002993
70 0.002959
113 0.002992
129 0.002994
141 0.00299
139 0.003025
128 0.002028
118 0.002035
118 0.00298
128 0.001995
135 0.003007
141 0.001963
144 0.002948
146 0.003
149 0.002994
150 0.003032
153 0.002993
149 0.003027
108 0.002993
60 0.00203
52 0.001995
82 0.002992
107 0.002992
123 0.001995
132 0.001995
135 0.001996
119 0.002013
114 0.001995
119 0.003005
127 0.002003
134 0.001999
138 0.001003
141 0.001029
145 0.00198
146 0.001995
148 0.001995
150 0.001996
152 0.002048
103 0.001964
54 0.002033
50 0.001992
76 0.00105
101 0.001995
116 0.001001
125 0.001005
127 0.000997
120 0.000998
112 0.000999
112 0.000997
118 0.000997
131 0.001012
136 0.002019
140 0.000967
143 0.000998
145 0.001995
146 0.002001
148 0.001995
150 0.002001
150 0.001011
117 0.001995
64 0.001996
48 0.001996
84 0.000987
107 0.001002
121 0.001014
131 0.000998
129 0.000998
121 0.00104
115 0.000998
116 0.000998
125 0.000998
133 0.000999
138 0.000996
142 0.000958
146 0.000994
148 0.000953
149 0.000962
150 0.000999
153 0.001006
155 0.000999
133 0.001031
81 0.000999
57 0.000965
78 0.000962
87 0.00099
119 0.0
127 0.000962
135 0.0
141 0.000998
146 0.0
147 0.0
149 0.0
150 0.0
154 0.0
141 0.000997
111 0.0
60 0.000999
66 0.0
92 0.0
115 0.0
130 0.0
142 0.0
139 0.0
127 0.0
119 0.0
126 0.0
134 0.0
142 0.0
145 0.0
148 0.001029
150 0.0
151 0.0
153 0.0
156 0.001029
142 0.0
87 0.000999
48 0.0
71 0.000997
98 0.000998
121 0.0
131 0.0
133 0.001996
127 0.001029
117 0.0
114 0.0
122 0.0
129 0.0
136 0.000997
142 0.0
146 0.000999
148 0.0
150 0.0
152 0.0
154 0.000999
149 0.001
87 0.0
48 0.0
51 0.0
78 0.001004
102 0.001003
121 0.0
130 0.001998
125 0.000998
116 0.000999
113 0.001034
117 0.000997
125 0.000998
133 0.001002
140 0.0
144 0.0
146 0.001029
148 0.001045
149 0.0
150 0.001008
154 0.000998
154 0.0
128 0.000997
73 0.001995
49 0.002024
71 0.001044
97 0.001043
115 0.000998
126 0.002032
132 0.001995
127 0.000992
115 0.002995
116 0.000989
123 0.002021
130 0.001993
138 0.001995
142 0.002029
144 0.002027
147 0.001001
149 0.000952
149 0.001995
151 0.001995
155 0.001001
138 0.002048
75 0.001998
60 0.001939
78 0.002008
101 0.002993
119 0.003021
135 0.001025
139 0.00205
131 0.002024
118 0.002027
114 0.001987
119 0.001952
133 0.003005
139 0.002992
144 0.002022
146 0.001945
148 0.001986
150 0.002992
152 0.003028
153 0.00203
126 0.002028
77 0.002022
59 0.002036
73 0.002037
111 0.003038
126 0.002992
139 0.002067
137 0.001996
125 0.001964
118 0.002992
119 0.003034
129 0.001996
136 0.002054
142 0.002032
145 0.002992
147 0.003845
151 0.003991
153 0.004002
155 0.003028
150 0.003019
90 0.002028
53 0.00302
56 0.002992
90 0.00203
112 0.001994
124 0.002997
133 0.004022
133 0.003989
119 0.003033
116 0.003025
123 0.002001
131 0.00298
138 0.002994
143 0.003032
146 0.003989
149 0.00299
152 0.002988
154 0.003032
156 0.00399
142 0.003992
64 0.004017
56 0.005008
86 0.003048
110 0.003032
126 0.004022
135 0.004021
138 0.004987
129 0.003015
122 0.004023
119 0.004021
127 0.004021
134 0.003989
144 0.003989
147 0.00399
150 0.003989
153 0.003034
155 0.003997
156 0.004987
138 0.005018
89 0.005018
63 0.004022
82 0.003032
107 0.004017
125 0.004023
143 0.003008
143 0.003989
131 0.005019
119 0.004006
123 0.003989
131 0.00399
138 0.005025
144 0.004988
148 0.004002
151 0.004032
154 0.003998
156 0.004987
116 0.003994
69 0.004987
61 0.005985
80 0.005025
106 0.004982
128 0.003985
139 0.005021
141 0.00502
127 0.003993
119 0.003991
121 0.00402
128 0.006018
139 0.004036
143 0.004987
146 0.006018
150 0.005034
153 0.005026
152 0.005019
121 0.005984
67 0.005979
49 0.005034
73 0.004023
99 0.004007
116 0.00502
131 0.004984
130 0.006037
121 0.005987
114 0.005012
118 0.004988
126 0.003958
133 0.005985
138 0.006011
143 0.005015
146 0.004995
148 0.004993
152 0.006018
126 0.004987
73 0.007012
53 0.006982
75 0.005977
93 0.006023
114 0.00601
130 0.006009
135 0.005983
128 0.004941
118 0.004985
117 0.005021
123 0.006977
136 0.006018
141 0.006994
145 0.006984
147 0.007021
150 0.006018
153 0.005983
155 0.005974
142 0.006037
93 0.006018
58 0.004953
73 0.004983
101 0.005948
131 0.005948
141 0.005954
140 0.006992
130 0.006982
118 0.006016
121 0.006049
130 0.006021
138 0.007004
144 0.006981
148 0.00501
150 0.006013
152 0.006009
156 0.005984
155 0.007017
102 0.007959
69 0.007015
59 0.006013
82 0.005945
109 0.006022
126 0.006987
138 0.006987
140 0.005985
130 0.006018
118 0.006014
124 0.007015
133 0.006992
140 0.007979
145 0.007979
148 0.006963
150 0.006977
152 0.006968
153 0.00794
155 0.006978
147 0.006983
114 0.006988
56 0.006976
53 0.006017
85 0.006015
109 0.007979
119 0.00794
125 0.006948
121 0.007011
111 0.007014
108 0.007933
116 0.007949
130 0.007005
139 0.006987
145 0.006979
150 0.006998
151 0.007024
153 0.006942
156 0.007969
155 0.006966
120 0.006981
67 0.006998
56 0.007976
69 0.00795
105 0.006987
122 0.006988
132 0.006971
131 0.00699
121 0.006988
118 0.007019
123 0.007023
131 0.006985
138 0.006999
145 0.006967
148 0.007013
150 0.007946
154 0.000941
157 0.0
75 0.007032
58 0.007019
73 0.007023
101 0.007012
122 0.007045
138 0.007013
141 0.007008
135 0.007013
123 0.007023
120 0.007016
127 0.006984
136 0.005983
145 0.006942
148 0.007019
151 0.007023
154 0.007014
156 0.007016
146 0.00698
99 0.007028
65 0.007012
69 0.006016
96 0.007012
126 0.005982
140 0.006016
143 0.005982
131 0.006013
119 0.006026
121 0.006019
130 0.005974
141 0.006019
146 0.007009
149 0.007019
153 0.006984
156 0.006028
156 0.006017
128 0.006019
66 0.006029
74 0.006021
101 0.005968
125 0.005984
140 0.006025
148 0.005942
141 0.00601
128 0.005991
123 0.006022
129 0.005027
141 0.00603
147 0.006031
152 0.006032
155 0.006018
158 0.006017
159 0.006028
129 0.006028
63 0.006024
59 0.006022
81 0.005028
109 0.00502
127 0.00503
138 0.005022
140 0.005022
127 0.005027
120 0.005024
126 0.006018
136 0.005014
144 0.006019
148 0.006023
152 0.005026
154 0.005029
156 0.005023
158 0.005035
148 0.005034
76 0.005085
57 0.005026
86 0.004994
113 0.005011
129 0.005018
138 0.004982
140 0.005027
130 0.006034
122 0.004988
124 0.003988
133 0.004042
142 0.004036
149 0.004038
153 0.00502
156 0.005014
157 0.005019
159 0.004987
161 0.004986
160 0.00502
101 0.005029
62 0.005028
65 0.003992
91 0.004022
120 0.004026
139 0.003989
145 0.004027
137 0.003991
125 0.003996
122 0.004021
131 0.003991
142 0.005025
151 0.005038
154 0.00403
156 0.004033
157 0.004027
158 0.004035
160 0.004034
163 0.004021
160 0.003992
114 0.003992
71 0.00399
70 0.003991
94 0.003991
132 0.003976
146 0.004033
153 0.005031
151 0.003024
137 0.002995
124 0.002992
135 0.004031
149 0.004066
155 0.004022
158 0.003958
160 0.003959
162 0.003962
163 0.003955
166 0.004026
167 0.00399
144 0.00399
88 0.003989
67 0.002992
98 0.003031
127 0.003034
147 0.002918
153 0.002993
150 0.002992
140 0.003049
130 0.002993
136 0.003023
145 0.002992
153 0.003991
157 0.00199
160 0.002958
163 0.001986
164 0.003042
166 0.002963
167 0.002994
158 0.002993
103 0.002961
63 0.00295
69 0.003003
96 0.002993
121 0.002993
134 0.002961
140 0.00296
136 0.00199
126 0.001994
124 0.001994
131 0.001991
140 0.001995
146 0.001995
150 0.00296
153 0.001992
155 0.002992
156 0.002028
157 0.001982
158 0.001999
158 0.002015
125 0.002039
61 0.003035
60 0.003029
84 0.003024
113 0.001995
129 0.00203
139 0.002033
140 0.001994
132 0.002027
123 0.001991
122 0.001995
134 0.001973
141 0.002045
147 0.001987
150 0.002026
151 0.00203
152 0.001995
152 0.001995
154 0.001995
156 0.002009
157 0.000999
142 0.000997
88 0.000998
64 0.001996
91 0.000997
125 0.000992
138 0.000998
145 0.002001
143 0.001964
133 0.001963
121 0.001995
123 0.00204
132 0.00199
140 0.001955
146 0.000998
150 0.001028
152 0.001001
153 0.001003
155 0.000999
156 0.000998
141 0.000998
89 0.000998
61 0.001003
77 0.000994
107 0.000997
127 0.000997
139 0.000998
142 0.0
133 0.0
123 0.000997
125 0.0
132 0.0
139 0.0
144 0.0
147 0.0
149 0.001002
151 0.0
153 0.0
153 0.0
155 0.0
137 0.0
80 0.0
49 0.0
65 0.0
95 0.0
116 0.0
126 0.0
132 0.0
130 0.0
121 0.0
117 0.0
124 0.000996
131 0.001008
138 0.0
142 0.0
145 0.0
147 0.0
148 0.0
149 0.0
151 0.0
152 0.0
142 0.001
92 0.0
55 0.0
70 0.0
98 0.0
120 0.001003
128 0.0
132 0.0
125 0.0
119 0.0
116 0.000999
122 0.000992
132 0.0
139 0.0
143 0.000999
146 0.0
148 0.0
150 0.000966
152 0.000999
139 0.000997
92 0.000997
58 0.000963
71 0.000997
99 0.000975
118 0.000999
133 0.0
137 0.002063
127 0.0
122 0.000999
121 0.000998
128 0.001004
135 0.001028
142 0.0
145 0.0
148 0.0
150 0.001032
153 0.000999
152 0.0
107 0.000999
64 0.0
74 0.0
101 0.000952
121 0.000999
134 0.002005
142 0.0
139 0.0
129 0.0
124 0.000998
126 0.000998
134 0.0
138 0.029919
140 0.000996
149 0.0
151 0.000997
153 0.001996
155 0.001962
137 0.0
92 0.0
70 0.0
82 0.001957
106 0.001996
129 0.000983
142 0.000999
141 0.000965
130 0.001004
121 0.000999
124 0.001995
130 0.00199
139 0.00103
143 0.000967
146 0.000997
149 0.001984
152 0.001996
153 0.001024
118 0.001995
74 0.000997
80 0.001005
102 0.001013
122 0.002992
136 0.003024
146 0.00205
140 0.000984
129 0.001033
124 0.001997
127 0.002015
136 0.000985
143 0.002028
147 0.001996
150 0.001994
152 0.001029
154 0.002029
139 0.003026
89 0.002994
59 0.002028
75 0.002011
101 0.002025
119 0.00299
130 0.002992
134 0.003033
126 0.002047
117 0.002005
121 0.002027
127 0.001991
134 0.002992
139 0.002992
143 0.00199
146 0.002031
154 0.001996
157 0.002992
154 0.002992
61 0.002992
27 0.003024
52 0.002048
87 0.002051
109 0.002042
122 0.002992
130 0.003989
123 0.001978
112 0.001981
110 0.00199
116 0.003028
126 0.003051
139 0.003039
143 0.004036
148 0.003033
150 0.002025
151 0.002982
154 0.00399
157 0.003989
133 0.003023
65 0.003025
28 0.003014
39 0.003983
75 0.004025
113 0.00303
124 0.002992
128 0.001984
119 0.002961
110 0.002998
110 0.003989
118 0.003984
130 0.003027
138 0.003025
144 0.003022
147 0.003989
149 0.004024
151 0.00399
153 0.004025
154 0.003047
157 0.003023
160 0.004021
136 0.003989
72 0.003971
34 0.002959
58 0.002963
90 0.002996
112 0.004021
124 0.003983
129 0.002995
120 0.004987
109 0.005017
112 0.004027
121 0.003977
132 0.004022
139 0.004987
144 0.005029
148 0.003995
149 0.002982
150 0.003025
152 0.005021
155 0.003027
160 0.005018
159 0.004988
101 0.003987
57 0.004061
58 0.004023
84 0.005041
110 0.005019
132 0.00399
141 0.004024
138 0.004023
124 0.005026
113 0.005012
121 0.006018
131 0.006017
143 0.003958
147 0.003987
150 0.00396
152 0.005021
154 0.005021
155 0.003994
159 0.003986
162 0.003987
147 0.006017
59 0.005045
47 0.006016
70 0.006017
105 0.004982
121 0.004966
134 0.00503
136 0.006016
125 0.006005
111 0.003978
113 0.003988
122 0.00399
132 0.00597
142 0.00499
146 0.006016
148 0.006022
151 0.004987
153 0.005003
156 0.004938
158 0.006021
131 0.006014
51 0.005017
35 0.005018
56 0.004979
85 0.006972
113 0.004981
122 0.005984
123 0.006987
112 0.004981
106 0.004985
109 0.004989
117 0.006016
126 0.006022
136 0.004986
140 0.00498
143 0.004984
146 0.006011
149 0.006005
152 0.006019
155 0.006989
144 0.006979
73 0.005979
38 0.005984
47 0.005949
77 0.006973
100 0.006977
118 0.004991
125 0.004983
123 0.004987
110 0.006006
110 0.006001
117 0.006978
126 0.007011
137 0.005977
143 0.005989
146 0.006981
149 0.006989
151 0.006977
152 0.005975
154 0.006945
158 0.006986
139 0.005962
82 0.006077
46 0.007014
56 0.00794
96 0.005937
116 0.005952
130 0.005949
137 0.00702
133 0.006998
115 0.005979
112 0.005982
119 0.005984
136 0.00595
143 0.005994
148 0.007978
150 0.007974
153 0.00698
155 0.005946
159 0.006933
162 0.007026
139 0.008012
84 0.005975
52 0.006986
63 0.006949
111 0.006981
129 0.006985
142 0.007937
145 0.007946
129 0.00698
117 0.006999
120 0.006985
129 0.007946
138 0.007941
149 0.006966
153 0.006978
155 0.006975
159 0.006971
160 0.006988
163 0.007938
161 0.007974
103 0.00698
47 0.006982
37 0.006983
63 0.00602
103 0.007021
119 0.007024
131 0.006983
131 0.00698
112 0.006981
110 0.006981
117 0.006979
128 0.007015
138 0.007014
143 0.006971
147 0.006984
151 0.007013
151 0.007029
153 0.007011
156 0.007012
159 0.007023
123 0.007013
57 0.007014
30 0.006971
46 0.007021
79 0.007015
108 0.006984
120 0.006014
126 0.006023
122 0.006019
112 0.006015
108 0.007016
114 0.007012
130 0.006901
138 0.007014
143 0.006022
147 0.006009
149 0.007022
150 0.007013
152 0.007016
153 0.005969
157 0.006022
157 0.005987
109 0.005987
50 0.006019
50 0.005964
83 0.006016
107 0.006026
121 0.006015
130 0.006016
126 0.005981
114 0.006019
108 0.006014
113 0.006015
124 0.00596
136 0.006018
143 0.006026
148 0.006019
151 0.006031
151 0.005988
152 0.006016
154 0.006018
160 0.006017
160 0.006008
135 0.005986
75 0.005028
45 0.005023
70 0.00502
102 0.00502
133 0.005021
142 0.006012
139 0.00602
123 0.006013
113 0.006014
117 0.006015
131 0.005983
142 0.006016
149 0.004987
149 0.026928
151 0.0
156 0.004988
158 0.005022
161 0.005023
163 0.005027
148 0.005032
88 0.004987
42 0.005032
50 0.00402
83 0.004031
110 0.004029
125 0.004987
134 0.003993
131 0.005023
115 0.005028
112 0.005021
122 0.005019
133 0.00501
141 0.005018
146 0.005049
151 0.005028
153 0.003993
155 0.004023
156 0.004023
159 0.004042
161 0.004028
117 0.004027
39 0.004024
34 0.00399
61 0.003993
94 0.005022
112 0.004958
128 0.004049
130 0.005019
121 0.005032
112 0.003982
111 0.004042
121 0.004022
135 0.00402
144 0.00396
149 0.004021
152 0.004025
153 0.003991
154 0.003992
157 0.004026
160 0.004026
158 0.003992
119 0.003991
57 0.003991
41 0.004025
82 0.002994
117 0.002996
130 0.004014
138 0.002993
134 0.004045
123 0.003991
114 0.003971
121 0.004026
131 0.004034
140 0.003998
147 0.003008
152 0.003024
155 0.002994
158 0.002986
162 0.002992
165 0.003027
166 0.003032
146 0.003038
89 0.002992
52 0.003026
74 0.003024
104 0.003068
125 0.003026
141 0.002994
149 0.003026
136 0.002992
121 0.00302
126 0.003031
136 0.00305
147 0.002961
154 0.002992
160 0.002994
163 0.003043
166 0.002988
168 0.003023
165 0.002001
99 0.00202
68 0.002024
84 0.003972
109 0.00203
130 0.002998
147 0.001997
155 0.002026
147 0.002029
133 0.001995
128 0.001994
134 0.001992
144 0.001996
157 0.002042
162 0.003023
167 0.003006
171 0.003005
157 0.002003
104 0.002992
63 0.002024
75 0.003022
100 0.001995
122 0.001995
139 0.002026
148 0.002042
138 0.001996
124 0.002031
124 0.001995
132 0.001991
141 0.001996
148 0.002004
154 0.000994
159 0.000998
154 0.000998
113 0.000997
59 0.001997
49 0.002012
94 0.002036
118 0.001996
141 0.00204
146 0.001819
137 0.000991
123 0.000995
121 0.001011
131 0.000998
140 0.000999
147 0.000968
152 0.000997
157 0.000998
145 0.000998
83 0.000998
35 0.00101
43 0.001996
78 0.000997
106 0.000998
123 0.001995
134 0.00204
131 0.000997
119 0.000999
115 0.0
120 0.000999
136 0.0
144 0.001004
150 0.000998
157 0.000999
159 0.001041
124 0.001009
52 0.001002
26 0.000998
56 0.000998
92 0.0
115 0.0
131 0.000998
139 0.000995
131 0.000997
123 0.001002
127 0.000997
136 0.000998
145 0.0
152 0.0
158 0.0
163 0.0
168 0.0
166 0.0
115 0.0
29 0.0
43 0.0
81 0.0
120 0.0
136 0.0
144 0.000998
143 0.0
135 0.000998
128 0.0
133 0.0
142 0.0
151 0.0
163 0.0
167 0.0
169 0.0
172 0.0
175 0.0
164 0.0
95 0.0
40 0.0
51 0.0
91 0.001007
133 0.0
149 0.0
156 0.0
150 0.000999
135 0.0
134 0.002045
142 0.001004
155 0.0
163 0.0
167 0.000997
170 0.00099
173 0.000998
175 0.002
178 0.0
178 0.002037
116 0.001005
53 0.0
47 0.0
79 0.000997
121 0.000996
148 0.000999
165 0.0
167 0.001
154 0.000985
140 0.001996
139 0.0
151 0.00203
164 0.0
170 0.0
173 0.0
175 0.002044
176 0.002029
178 0.0
180 0.0
182 0.000998
174 0.001995
114 0.001995
51 0.0
75 0.002026
130 0.0
154 0.0
169 0.0
173 0.001041
165 0.001051
143 0.0
140 0.000964
147 0.0
157 0.001984
166 0.001998
173 0.001996
177 0.001996
178 0.002036
179 0.00104
181 0.001001
184 0.003023
174 0.001995
91 0.001034
56 0.001044
71 0.002004
112 0.003034
145 0.003027
168 0.000986
175 0.001955
161 0.000959
145 0.000975
142 0.000997
148 0.001995
157 0.001997
167 0.000966
171 0.001003
174 0.001959
177 0.002994
180 0.002998
179 0.002004
125 0.002992
64 0.001029
76 0.001002
113 0.000999
143 0.001004
164 0.003025
175 0.003026
170 0.001009
155 0.000998
143 0.001943
145 0.003003
150 0.002992
162 0.002992
167 0.003024
172 0.002017
176 0.002016
177 0.002026
165 0.002995
108 0.003028
60 0.000994
80 0.00197
115 0.002024
142 0.004025
161 0.003992
167 0.003024
155 0.003089
137 0.001996
137 0.001996
143 0.001965
150 0.003005
156 0.003028
162 0.002048
165 0.002028
168 0.002995
168 0.003991
138 0.003989
56 0.003979
66 0.004024
109 0.001999
134 0.00199
152 0.002992
158 0.00399
151 0.004025
131 0.002995
124 0.002994
127 0.002992
135 0.00399
141 0.004027
149 0.004024
153 0.003988
157 0.002002
153 0.002006
130 0.003991
72 0.0
55 0.001998
92 0.003026
110 0.0
137 0.002987
147 0.003992
144 0.00399
120 0.00397
115 0.004028
122 0.002991
130 0.003032
137 0.003026
142 0.004027
146 0.00499
151 0.003009
146 0.003015
107 0.002993
61 0.004987
57 0.005986
99 0.003989
121 0.004021
138 0.005019
142 0.003993
130 0.003995
115 0.003994
112 0.005025
118 0.004989
128 0.003959
136 0.00402
141 0.003023
145 0.004987
135 0.002971
83 0.004988
44 0.005031
59 0.002975
89 0.002997
113 0.004015
130 0.006025
137 0.006019
126 0.003993
111 0.003992
107 0.003985
114 0.005022
128 0.003979
135 0.005018
141 0.005042
146 0.003983
134 0.002969
77 0.003973
35 0.006018
40 0.005984
83 0.003981
107 0.003951
123 0.003984
131 0.00599
116 0.003982
106 0.004997
107 0.006015
118 0.003985
128 0.004989
135 0.005016
140 0.005979
145 0.00599
148 0.004984
114 0.005022
50 0.004026
27 0.005984
72 0.003991
101 0.007014
119 0.006018
132 0.004989
126 0.004996
112 0.004958
106 0.006018
111 0.005984
124 0.004985
133 0.004954
140 0.005006
143 0.006982
149 0.004989
153 0.00598
146 0.007001
67 0.005018
27 0.005025
36 0.004988
71 0.006989
103 0.007012
122 0.00498
131 0.00498
126 0.004996
113 0.005015
108 0.004992
117 0.004988
129 0.006977
138 0.006979
144 0.005986
147 0.005982
149 0.006015
151 0.006981
153 0.006982
155 0.00595
115 0.00599
45 0.005979
37 0.005984
73 0.005985
105 0.006988
122 0.006997
133 0.006024
130 0.006033
117 0.006016
109 0.00798
117 0.00798
127 0.006016
137 0.006018
144 0.005988
150 0.005992
152 0.005989
153 0.007984
154 0.008035
158 0.005985
161 0.005986
146 0.004973
82 0.007979
35 0.007979
49 0.006983
86 0.006983
112 0.00702
135 0.006975
136 0.006013
121 0.007975
114 0.007972
116 0.005982
126 0.005986
136 0.006984
145 0.007981
151 0.008017
153 0.006982
155 0.006976
156 0.006984
159 0.007016
161 0.00698
162 0.00701
130 0.007012
50 0.006999
40 0.005975
61 0.006973
105 0.007019
125 0.007031
139 0.006976
142 0.006984
134 0.00698
113 0.00699
118 0.00695
129 0.007932
140 0.007942
150 0.006979
154 0.006979
157 0.006964
157 0.00696
160 0.007025
163 0.006975
162 0.006986
128 0.006972
57 0.006974
62 0.006974
84 0.006981
122 0.007044
139 0.006982
144 0.022978
150 0.0
128 0.00696
120 0.006034
126 0.007005
140 0.006966
149 0.006016
158 0.00698
159 0.00597
163 0.005976
164 0.006949
165 0.006014
168 0.005981
162 0.006984
112 0.007003
49 0.006982
37 0.006982
77 0.006032
108 0.005982
135 0.006017
141 0.006016
135 0.006015
121 0.006017
114 0.006018
122 0.00601
133 0.006019
144 0.005027
151 0.006023
154 0.005019
158 0.006016
159 0.006024
162 0.005983
164 0.005985
162 0.006013
122 0.00598
56 0.006017
36 0.006014
67 0.004982
98 0.005982
117 0.00499
129 0.00502
135 0.005018
126 0.004981
112 0.005019
117 0.005994
128 0.005992
138 0.00588
146 0.00598
152 0.005949
155 0.004993
156 0.005021
157 0.00502
159 0.005015
162 0.00502
163 0.005139
115 0.004995
45 0.00503
48 0.00502
78 0.005024
106 0.006022
123 0.004988
137 0.003991
137 0.005035
126 0.004987
116 0.004988
116 0.004987
126 0.005033
139 0.00502
148 0.005019
152 0.004982
154 0.005029
157 0.005026
160 0.005023
163 0.00398
166 0.003995
167 0.004023
140 0.004014
78 0.004996
52 0.004955
85 0.004992
118 0.005018
134 0.00502
143 0.005029
141 0.005018
128 0.005022
115 0.004016
119 0.003991
129 0.00403
139 0.004085
146 0.005027
153 0.004018
158 0.004988
163 0.004988
167 0.004058
170 0.003991
168 0.003991
135 0.004021
71 0.00399
69 0.004988
90 0.003992
115 0.003989
134 0.003998
151 0.00404
149 0.004021
128 0.004014
121 0.003998
126 0.003998
135 0.002992
144 0.004038
153 0.003024
158 0.003027
162 0.003999
166 0.00396
171 0.002992
161 0.002933
88 0.002989
55 0.003041
74 0.002954
100 0.003033
121 0.002965
136 0.00402
146 0.003995
139 0.00303
123 0.00299
117 0.003025
122 0.003034
131 0.004069
144 0.002992
150 0.003981
157 0.002993
161 0.002998
165 0.002992
165 0.002055
130 0.002994
55 0.002993
47 0.003029
69 0.003023
96 0.003025
115 0.003023
134 0.003027
132 0.003023
118 0.002992
111 0.003025
114 0.003027
122 0.002037
132 0.001998
140 0.001993
147 0.002029
152 0.001994
156 0.001961
159 0.001997
158 0.001995
113 0.002992
46 0.002003
47 0.001997
72 0.003027
97 0.002054
114 0.002027
129 0.002023
129 0.001996
120 0.002029
110 0.002047
109 0.001995
121 0.001995
131 0.002006
140 0.002003
146 0.001995
151 0.001995
155 0.001
158 0.001002
163 0.002026
162 0.000997
128 0.001976
68 0.002023
46 0.002029
79 0.001988
102 0.00199
121 0.001995
131 0.001995
130 0.002029
119 0.002049
109 0.000998
112 0.002048
120 0.001033
129 0.000997
137 0.000998
144 0.002067
152 0.000998
155 0.000999
159 0.000999
162 0.000997
162 0.002044
135 0.001048
81 0.001034
56 0.000987
75 0.001008
99 0.000998
118 0.001033
133 0.000998
140 0.000998
128 0.002025
114 0.000998
115 0.002045
123 0.000997
133 0.0
141 0.0
147 0.0
152 0.0
155 0.0
159 0.0
162 0.001031
139 0.000997
88 0.000998
64 0.00099
79 0.000962
101 0.000998
121 0.0
138 0.0
145 0.0
136 0.0
122 0.0
117 0.0
121 0.0
136 0.0
144 0.0
149 0.000998
153 0.0
156 0.000999
160 0.000998
161 0.0
141 0.0
70 0.0
52 0.0
65 0.001018
88 0.000999
119 0.0
132 0.0
135 0.0
119 0.0
108 0.001005
111 0.000997
120 0.0
129 0.0
138 0.001992
143 0.00203
149 0.0
152 0.0
157 0.0
156 0.0
127 0.0
70 0.001031
44 0.001021
61 0.000953
84 0.000965
103 0.000997
117 0.001044
126 0.001032
123 0.001031
107 0.0
104 0.002033
110 0.000966
123 0.000997
129 0.000998
139 0.001996
144 0.002992
149 0.0
151 0.0
154 0.0
156 0.002026
147 0.002031
79 0.0
44 0.001027
65 0.0
88 0.0
104 0.0
117 0.001029
123 0.001029
116 0.000995
105 0.0
103 0.0
109 0.002051
118 0.001996
129 0.0
140 0.002027
146 0.0
150 0.0
152 0.0
155 0.001032
157 0.001959
125 0.0
73 0.0
53 0.000966
65 0.001985
87 0.001962
111 0.002027
128 0.001996
130 0.001032
118 0.0
107 0.0
108 0.003022
116 0.002992
128 0.001002
136 0.002001
143 0.001995
147 0.003009
151 0.001995
155 0.001993
158 0.001995
144 0.001021
96 0.001993
64 0.002024
66 0.001995
86 0.002993
113 0.001969
130 0.001944
140 0.000986
137 0.002992
122 0.002992
111 0.0
118 0.002993
129 0.002002
138 0.00097
145 0.001943
149 0.002067
153 0.004025
157 0.002993
160 0.001993
139 0.002003
85 0.002
57 0.002994
63 0.003025
99 0.002992
117 0.003031
133 0.001028
134 0.002008
122 0.001995
116 0.018949
110 0.001008
120 0.001997
128 0.001992
136 0.002031
142 0.003028
148 0.004021
155 0.003028
159 0.003028
145 0.001989
89 0.001946
49 0.001964
49 0.003993
71 0.004015
99 0.001958
114 0.001982
123 0.001992
122 0.003991
112 0.003991
104 0.003991
110 0.003989
122 0.001989
130 0.002992
135 0.002998
140 0.004
146 0.003992
152 0.003023
157 0.002009
155 0.002029
116 0.003989
62 0.004025
52 0.004042
75 0.003989
102 0.001948
115 0.00196
124 0.001997
122 0.004987
112 0.005011
106 0.002992
111 0.003009
120 0.002992
128 0.004019
135 0.00402
145 0.004001
150 0.004025
155 0.002993
159 0.002999
162 0.002974
147 0.004991
92 0.004987
52 0.003023
63 0.00299
86 0.002992
107 0.004987
123 0.004987
134 0.002997
126 0.004981
113 0.004985
111 0.003976
119 0.003945
128 0.003985
137 0.005029
144 0.004989
150 0.003952
154 0.003986
157 0.003984
161 0.004987
164 0.003027
145 0.005036
92 0.004988
62 0.003022
76 0.004001
99 0.003959
118 0.005986
134 0.005984
143 0.003992
135 0.00399
119 0.003958
115 0.005984
126 0.003024
135 0.005029
143 0.005021
151 0.002991
155 0.003993
159 0.00499
163 0.005987
166 0.006003
155 0.00499
104 0.00402
61 0.004023
58 0.005984
93 0.003996
112 0.005991
128 0.005985
139 0.004985
132 0.004987
117 0.004995
112 0.005994
117 0.005984
129 0.004979
137 0.004988
144 0.004991
150 0.005985
157 0.00399
161 0.005978
164 0.00598
146 0.004955
90 0.004994
54 0.005
58 0.006981
81 0.006981
110 0.004989
125 0.005
136 0.004996
136 0.006981
117 0.004995
114 0.005986
119 0.006015
131 0.005952
139 0.005955
147 0.005034
152 0.006982
157 0.007014
161 0.007021
166 0.004983
155 0.004988
108 0.005938
58 0.004995
73 0.00496
96 0.007022
116 0.007979
138 0.005989
144 0.00599
138 0.006004
126 0.007028
118 0.006981
124 0.004983
134 0.005014
143 0.005994
153 0.00498
156 0.005033
160 0.007955
164 0.007945
165 0.006011
139 0.006007
88 0.005984
66 0.007976
77 0.007978
106 0.005991
126 0.005993
144 0.006004
147 0.006982
136 0.004976
127 0.00798
127 0.007979
137 0.007031
145 0.005952
151 0.005948
157 0.007975
159 0.007978
165 0.00598
166 0.005986
143 0.005985
69 0.005989
67 0.005995
94 0.00702
108 0.007939
134 0.006944
145 0.002962
143 0.006979
135 0.007979
124 0.007943
126 0.006979
132 0.005976
140 0.005985
151 0.006971
156 0.006981
160 0.007008
160 0.007019
112 0.006977
61 0.006986
50 0.006983
66 0.007988
81 0.007979
108 0.006984
124 0.006975
133 0.006985
121 0.005972
110 0.006949
111 0.006986
118 0.00702
128 0.007027
139 0.006961
143 0.00694
151 0.006955
155 0.00602
146 0.006963
79 0.006981
54 0.006973
61 0.006971
92 0.007026
109 0.006985
124 0.007021
130 0.007034
120 0.006963
110 0.00604
109 0.00701
115 0.006014
124 0.006013
136 0.006045
143 0.005987
153 0.005965
156 0.005968
147 0.005984
101 0.00602
60 0.00602
61 0.005975
83 0.006989
104 0.006986
122 0.006013
134 0.006033
131 0.006979
119 0.005982
112 0.005962
119 0.006017
129 0.006028
137 0.006015
144 0.006021
151 0.006024
156 0.005017
158 0.006017
139 0.005017
91 0.005006
63 0.005023
77 0.005017
113 0.006017
134 0.006042
145 0.005988
141 0.005985
127 0.006011
116 0.005986
120 0.00502
129 0.005028
138 0.004987
146 0.004987
153 0.005019
158 0.005021
141 0.005017
89 0.004987
59 0.005022
65 0.004989
87 0.005023
115 0.005023
133 0.005985
140 0.00456
133 0.004987
118 0.005026
112 0.004951
120 0.005011
131 0.004985
143 0.004033
149 0.004987
155 0.005004
157 0.004988
125 0.00398
54 0.003979
44 0.003999
64 0.004994
88 0.004986
107 0.005021
125 0.004986
121 0.004986
107 0.005017
104 0.003956
110 0.005047
120 0.004035
128 0.005037
137 0.003958
144 0.003953
151 0.00399
155 0.003989
134 0.004989
54 0.004985
34 0.004993
65 0.003989
89 0.004956
106 0.003989
118 0.003991
118 0.003989
107 0.003999
102 0.004022
105 0.003989
114 0.00399
124 0.004037
133 0.003979
141 0.003992
148 0.003991
155 0.002991
159 0.003025
139 0.003024
75 0.004021
28 0.004022
42 0.003048
71 0.002993
92 0.003037
107 0.003999
118 0.003041
112 0.004049
103 0.004029
106 0.003022
114 0.003023
127 0.003001
141 0.002983
156 0.003023
163 0.00399
166 0.003029
167 0.002981
168 0.002996
171 0.004002
172 0.028891
170 0.000998
67 0.0
49 0.002963
74 0.002026
97 0.002998
114 0.002039
127 0.002994
124 0.003026
115 0.003029
108 0.003027
110 0.003018
126 0.003031
136 0.002995
147 0.003034
153 0.002052
157 0.002022
161 0.002029
163 0.00199
168 0.001991
170 0.002039
148 0.002004
91 0.002005
61 0.002967
85 0.002015
108 0.003011
133 0.003011
145 0.002002
145 0.002969
131 0.001989
118 0.001987
122 0.001949
131 0.001986
141 0.001996
150 0.002029
155 0.002006
163 0.000997
167 0.00302
172 0.002032
173 0.003033
155 0.00204
98 0.00203
59 0.002034
69 0.002039
95 0.002048
116 0.002041
134 0.002013
146 0.00204
134 0.002183
118 0.002049
119 0.002993
129 0.002004
140 0.002027
148 0.002053
155 0.002026
162 0.000998
166 0.000998
171 0.002034
173 0.000997
154 0.002045
63 0.001996
53 0.002021
80 0.001996
103 0.001981
121 0.001993
135 0.002034
139 0.00201
125 0.001994
116 0.001995
118 0.002041
126 0.000999
135 0.001013
150 0.002041
156 0.000999
162 0.000998
168 0.0
165 0.001996
125 0.0
72 0.0
57 0.0
79 0.000998
103 0.000998
121 0.001039
137 0.0
141 0.0
128 0.0
121 0.0
126 0.0
135 0.0
145 0.0
153 0.000998
158 0.000998
165 0.000989
169 0.0
170 0.0
150 0.000998
64 0.0
58 0.0
78 0.0
110 0.000998
128 0.0
142 0.000997
145 0.000992
135 0.0
121 0.0
122 0.0
130 0.0
139 0.0
154 0.0
159 0.0
163 0.0
169 0.0
171 0.0
153 0.000968
96 0.000998
62 0.001
73 0.000997
97 0.0
125 0.0
137 0.0
144 0.0
133 0.0
122 0.0
123 0.002027
131 0.002037
144 0.0
151 0.0
157 0.0
161 0.002027
165 0.002033
170 0.0
164 0.000961
88 0.0
63 0.0
74 0.000997
97 0.002028
119 0.002996
144 0.001003
151 0.001019
145 0.0
133 0.000993
126 0.002029
129 0.002037
140 0.000963
150 0.002034
156 0.0
160 0.0
163 0.0
167 0.002033
169 0.001988
149 0.0
100 0.0
71 0.001016
77 0.002021
99 0.002048
130 0.0
151 0.002029
152 0.000958
142 0.0
131 0.0
130 0.002029
137 0.002033
147 0.0
154 0.0
159 0.0
163 0.001998
167 0.002028
168 0.0
125 0.002041
72 0.000987
72 0.0
92 0.001001
115 0.002992
136 0.002997
151 0.0
149 0.000984
137 0.001967
129 0.002029
129 0.002992
138 0.000964
148 0.002994
155 0.001974
159 0.0
164 0.002007
164 0.001964
135 0.001995
65 0.001995
53 0.001022
70 0.002015
93 0.001995
114 0.002993
135 0.000993
138 0.001989
122 0.000997
114 0.002016
116 0.001993
123 0.003027
133 0.001995
144 0.001997
150 0.001994
154 0.000999
159 0.002993
151 0.002954
86 0.000998
50 0.002966
62 0.003024
92 0.002027
112 0.001999
128 0.001958
135 0.001995
129 0.00399
113 0.001992
111 0.000982
117 0.001996
125 0.002992
134 0.002992
146 0.00303
151 0.002993
157 0.002007
152 0.000991
114 0.001987
66 0.00399
54 0.004059
76 0.001997
98 0.00201
118 0.001989
132 0.002992
135 0.003
118 0.002992
111 0.003012
116 0.002
125 0.001963
134 0.001023
142 0.004037
146 0.003988
152 0.001995
157 0.001992
158 0.002991
138 0.003989
87 0.00399
61 0.003977
79 0.004987
108 0.002958
128 0.002961
140 0.002947
138 0.003962
125 0.005021
112 0.002003
116 0.001995
124 0.003023
133 0.003987
141 0.004023
150 0.00399
155 0.004985
160 0.003009
162 0.002997
140 0.002998
86 0.004027
59 0.006018
73 0.003991
96 0.002993
117 0.003028
135 0.003989
142 0.00502
125 0.004986
114 0.003991
117 0.002946
125 0.002993
134 0.002993
141 0.004986
147 0.004987
153 0.003011
156 0.002987
160 0.00305
164 0.002976
156 0.005025
67 0.003975
44 0.005984
57 0.005999
91 0.004006
110 0.00399
125 0.003022
130 0.004972
123 0.005012
108 0.003994
107 0.004028
113 0.003002
122 0.004987
137 0.004021
142 0.005985
148 0.006023
154 0.004003
157 0.003996
161 0.003994
160 0.005955
126 0.005984
58 0.003982
51 0.003006
70 0.002995
95 0.005031
125 0.00395
135 0.005985
134 0.006025
115 0.003983
110 0.003975
115 0.003986
124 0.005984
133 0.005974
144 0.004005
149 0.003989
153 0.003994
157 0.005981
163 0.004988
165 0.007039
148 0.006996
79 0.004974
60 0.004983
72 0.003979
96 0.00597
118 0.007015
140 0.004029
146 0.003991
138 0.003987
121 0.006948
117 0.004997
127 0.007011
136 0.006982
147 0.004979
153 0.004981
157 0.004987
161 0.007018
166 0.007051
168 0.004998
149 0.005988
93 0.005017
58 0.005971
63 0.001002
78 0.005988
122 0.006954
139 0.007016
144 0.005996
132 0.005982
118 0.004988
117 0.007956
123 0.007987
135 0.005948
144 0.004983
150 0.004999
157 0.005054
161 0.00502
165 0.006981
167 0.007039
143 0.004985
80 0.005985
45 0.005982
58 0.007978
85 0.007986
107 0.006008
124 0.005978
134 0.005983
124 0.006006
110 0.005976
108 0.00698
115 0.006963
128 0.005038
138 0.006016
146 0.006016
153 0.007972
155 0.007979
161 0.005962
164 0.005986
166 0.005982
114 0.005986
59 0.00601
49 0.007015
72 0.007008
104 0.006979
121 0.006955
130 0.005983
135 0.007979
129 0.007979
113 0.005983
111 0.005981
119 0.00595
135 0.006005
145 0.005971
153 0.007982
157 0.007016
161 0.006941
164 0.006977
168 0.006976
161 0.007016
118 0.007025
58 0.006981
56 0.006017
74 0.005984
114 0.00696
133 0.00695
146 0.006986
143 0.006972
130 0.006982
119 0.006969
120 0.006966
134 0.006968
144 0.007014
150 0.006994
157 0.006976
160 0.006014
166 0.005984
170 0.005986
167 0.00698
138 0.007011
84 0.007018
65 0.006969
86 0.006971
110 0.006937
131 0.006985
148 0.007014
153 0.006982
147 0.006987
125 0.005953
128 0.005952
138 0.005988
146 0.006017
152 0.006044
159 0.005981
162 0.005984
166 0.005952
169 0.005991
160 0.007046
94 0.007053
67 0.006955
77 0.006988
93 0.006986
122 0.006012
139 0.005986
147 0.006006
139 0.005988
127 0.006002
123 0.005986
128 0.006017
137 0.006021
147 0.00598
152 0.005994
161 0.005976
165 0.005946
163 0.005986
131 0.005023
75 0.00598
56 0.006001
74 0.006015
97 0.006018
118 0.006014
134 0.005981
143 0.005986
137 0.005983
122 0.005972
124 0.005981
132 0.005025
141 0.005022
147 0.004989
154 0.004986
159 0.004991
163 0.004954
155 0.00499
109 0.005026
57 0.005978
62 0.005995
99 0.005023
120 0.005019
138 0.005025
145 0.005041
142 0.004986
130 0.005021
127 0.004988
131 0.005034
138 0.005017
145 0.005031
150 0.004987
157 0.004987
162 0.004024
139 0.00399
89 0.003986
63 0.00399
69 0.004982
89 0.004989
119 0.005034
137 0.00502
144 0.005032
139 0.005019
130 0.005026
124 0.005033
130 0.005025
140 0.003991
147 0.004004
154 0.002995
158 0.00399
156 0.003992
114 0.004015
74 0.00396
68 0.00403
84 0.004035
106 0.003956
134 0.004956
145 0.003992
136 0.003948
127 0.004028
125 0.004022
129 0.004032
136 0.00399
146 0.003991
152 0.004025
157 0.003956
157 0.003955
129 0.003989
73 0.004018
72 0.003993
99 0.003997
121 0.004035
138 0.003991
144 0.00399
139 0.003992
125 0.003991
121 0.003992
125 0.004031
133 0.003989
140 0.003991
151 0.004055
157 0.00304
144 0.002963
99 0.00303
69 0.003985
72 0.003025
92 0.002989
121 0.002998
140 0.003031
145 0.003032
139 0.003951
126 0.002988
118 0.002992
125 0.00399
136 0.002993
145 0.002999
152 0.002993
158 0.003004
150 0.003033
95 0.003041
69 0.003032
74 0.003023
95 0.002993
119 0.002992
140 0.002992
147 0.003048
133 0.003024
119 0.002009
121 0.003049
128 0.002035
136 0.002031
144 0.001996
153 0.002989
154 0.003007
122 0.003041
68 0.002992
49 0.002979
82 0.002
107 0.003018
133 0.00203
139 0.002029
129 0.001983
115 0.00194
110 0.001996
116 0.002023
126 0.001996
134 0.001977
141 0.002037
148 0.001995
139 0.002034
82 0.003019
33 0.001971
45 0.001994
74 0.001994
100 0.002036
119 0.001995
129 0.002
121 0.001997
109 0.002038
105 0.00204
110 0.002025
126 0.000998
134 0.002033
142 0.001995
148 0.001983
152 0.002978
129 0.001994
64 0.001
23 0.000998
43 0.000998
75 0.000997
100 0.001006
119 0.000998
124 0.002012
113 0.002039
103 0.002039
108 0.002993
118 0.001986
128 0.000999
136 0.002034
143 0.000998
146 0.000998
149 0.000999
153 0.000997
156 0.000997
95 0.0
36 0.001006
31 0.0
64 0.00104
95 0.0
115 0.0
128 0.0
129 0.0
114 0.002028
105 0.002029
108 0.0
118 0.0
135 0.001003
142 0.001037
147 0.000998
151 0.001029
154 0.001003
158 0.001
162 0.0
162 0.000998
104 0.000998
53 0.000994
49 0.0
75 0.0
119 0.0
137 0.0
144 0.0
131 0.001015
115 0.001003
112 0.000998
121 0.0
133 0.001011
145 0.0
151 0.0
155 0.0
158 0.0
163 0.0
166 0.0
167 0.0
121 0.0
65 0.0
50 0.0
72 0.0
92 0.000997
132 0.0
148 0.0
135 0.0
116 0.0
125 0.0
136 0.0
145 0.002029
152 0.0
158 0.0
161 0.00101
163 0.0
166 0.001999
170 0.002028
158 0.000987
96 0.0
38 0.0
59 0.001011
90 0.0
114 0.002028
132 0.00206
139 0.0
131 0.0
117 0.0
114 0.002026
120 0.002024
135 0.0
144 0.000955
154 0.00099
158 0.001001
161 0.0
163 0.002029
168 0.001984
171 0.002996
170 0.000965
127 0.0
62 0.001002
40 0.002027
59 0.002046
98 0.0
125 0.002027
139 0.0
136 0.0
124 0.000965
115 0.001996
116 0.001996
129 0.0
141 0.000964
148 0.0
155 0.002027
160 0.002026
165 0.001018
168 0.003037
172 0.0
176 0.0
174 0.0
138 0.002027
74 0.002015
52 0.0
73 0.0
101 0.0
122 0.002012
139 0.001006
146 0.001004
133 0.002029
120 0.0
122 0.0
132 0.0
142 0.001996
151 0.003044
161 0.0
165 0.0
168 0.0
171 0.002025
173 0.00196
176 0.0
174 0.001991
121 0.0
71 0.0
64 0.000957
84 0.002993
111 0.003032
138 0.001994
153 0.0
156 0.003014
147 0.003072
131 0.002995
126 0.0
137 0.00196
151 0.000983
159 0.001996
165 0.001996
170 0.002993
173 0.001994
176 0.000995
178 0.002013
180 0.001994
163 0.002993
105 0.001995
69 0.002002
90 0.002992
123 0.002001
143 0.002994
158 0.001995
161 0.001996
154 0.003958
142 0.00303
138 0.001979
144 0.001972
153 0.001028
161 0.003021
166 0.003023
172 0.003026
174 0.004033
175 0.002023
178 0.001994
179 0.002001
165 0.003988
110 0.004023
58 0.002003
64 0.001985
87 0.001997
112 0.002991
132 0.003041
149 0.004011
145 0.003989
132 0.001962
127 0.001957
132 0.00198
140 0.003989
148 0.00399
155 0.002001
160 0.002076
163 0.001995
165 0.004027
166 0.004024
170 0.004988
161 0.00502
97 0.002979
57 0.002035
57 0.001985
79 0.004021
104 0.003989
129 0.001989
142 0.001993
144 0.002016
137 0.003993
127 0.004005
128 0.004954
136 0.004988
145 0.00297
150 0.002958
154 0.00296
157 0.004987
159 0.004986
162 0.003005
164 0.002014
157 0.001991
116 0.005035
68 0.004029
66 0.005058
89 0.005019
119 0.002013
136 0.002982
145 0.002934
141 0.004987
130 0.004986
125 0.0
129 0.002027
135 0.002993
142 0.003006
147 0.004973
153 0.002988
157 0.006018
161 0.005985
162 0.003988
142 0.003982
95 0.002979
66 0.005022
71 0.005021
99 0.002982
121 0.002999
139 0.003025
148 0.004986
139 0.003984
131 0.005984
129 0.005986
136 0.003965
142 0.003942
147 0.003991
152 0.006019
156 0.005982
161 0.003989
161 0.003992
131 0.002978
76 0.004967
56 0.003957
76 0.005985
100 0.005987
127 0.004987
139 0.003988
139 0.003983
131 0.006048
123 0.005943
123 0.003988
129 0.003969
137 0.002939
143 0.005953
150 0.003958
155 0.007023
157 0.006018
121 0.004958
63 0.004022
42 0.003987
52 0.006988
75 0.005964
105 0.003989
123 0.003994
130 0.003985
127 0.005981
114 0.003983
113 0.006016
120 0.006985
130 0.004989
137 0.004972
143 0.004984
147 0.006987
151 0.006983
150 0.004998
113 0.00396
59 0.003986
43 0.006999
73 0.00399
96 0.006983
117 0.007001
132 0.004993
129 0.004965
121 0.004987
115 0.006951
116 0.006979
124 0.006983
135 0.003981
140 0.004955
145 0.00402
150 0.005032
155 0.005987
155 0.007982
133 0.006929
66 0.005026
50 0.00499
64 0.004989
88 0.006988
112 0.00699
133 0.004987
138 0.004987
131 0.00499
117 0.005981
120 0.005985
128 0.007979
136 0.007981
144 0.005982
148 0.005982
152 0.006948
157 0.00797
158 0.007971
136 0.004987
85 0.004941
57 0.004003
78 0.005986
102 0.005977
123 0.007979
140 0.007978
142 0.00598
131 0.005968
123 0.005985
124 0.007979
132 0.007979
140 0.005005
147 0.005979
151 0.005993
157 0.006949
160 0.005984
154 0.007964
128 0.007958
53 0.005993
42 0.005982
59 0.005976
91 0.00796
105 0.007978
131 0.006979
131 0.006972
124 0.006979
109 0.006011
111 0.005985
124 0.007016
133 0.007016
140 0.005993
146 0.005975
150 0.006932
155 0.007975
158 0.007959
131 0.006978
71 0.006978
40 0.006981
52 0.006979
77 0.006972
104 0.007022
121 0.006973
129 0.006981
126 0.005962
116 0.005985
110 0.005984
116 0.006978
126 0.006014
139 0.006013
145 0.006988
151 0.006977
154 0.006978
158 0.006971
160 0.007014
148 0.006982
97 0.006007
46 0.006951
52 0.005947
75 0.00602
98 0.006016
123 0.005986
133 0.004987
126 0.00601
117 0.005021
115 0.006918
121 0.005984
130 0.006018
139 0.006927
145 0.006966
148 0.0
152 0.00195
157 0.00602
159 0.005987
154 0.005983
115 0.005943
66 0.005999
53 0.006
69 0.006022
101 0.005985
121 0.006019
136 0.005986
139 0.006036
129 0.006017
114 0.005008
115 0.004988
130 0.005998
139 0.005984
146 0.005976
150 0.006016
152 0.006082
156 0.005982
159 0.005017
160 0.006017
150 0.006018
107 0.005027
58 0.004966
62 0.004975
98 0.004982
120 0.005035
136 0.004961
142 0.005019
135 0.004982
120 0.004989
117 0.004983
124 0.005995
134 0.005986
141 0.006036
149 0.005024
153 0.005017
158 0.004987
160 0.00502
160 0.004989
137 0.004987
77 0.005023
41 0.004986
52 0.00402
77 0.005019
98 0.004987
115 0.004021
127 0.004034
125 0.005017
109 0.003991
105 0.004999
113 0.004989
123 0.005032
133 0.00503
140 0.004988
147 0.00399
152 0.004987
156 0.004012
158 0.004026
151 0.004022
83 0.004044
39 0.00399
57 0.004023
83 0.00399
104 0.003992
121 0.003992
130 0.004038
126 0.004026
112 0.003958
106 0.00301
112 0.003991
121 0.004022
134 0.003991
145 0.003989
151 0.003035
156 0.003989
159 0.003991
161 0.004022
146 0.00396
73 0.004858
45 0.003992
55 0.004025
80 0.002998
104 0.002974
129 0.003027
138 0.002995
126 0.003035
114 0.004025
113 0.003966
120 0.003955
130 0.003996
143 0.003992
148 0.003968
152 0.002962
158 0.003992
163 0.002991
158 0.004031
103 0.003039
57 0.002959
65 0.003025
89 0.002992
113 0.002993
136 0.003029
149 0.003027
142 0.002993
126 0.002994
116 0.003036
119 0.002992
128 0.002066
144 0.003026
149 0.001995
155 0.003032
161 0.001995
162 0.002032
138 0.001993
77 0.001995
43 0.002037
59 0.002031
85 0.001995
107 0.001996
126 0.001995
137 0.003042
125 0.002992
109 0.001999
110 0.00299
120 0.002992
130 0.001995
138 0.003024
148 0.002951
154 0.002027
159 0.002026
158 0.002028
120 0.002029
37 0.003022
42 0.001027
77 0.002002
100 0.002001
118 0.002033
128 0.002011
127 0.000959
112 0.002031
108 0.002035
113 0.000999
121 0.001976
130 0.000997
142 0.001996
151 0.002005
159 0.001994
162 0.002043
141 0.001993
78 0.002008
39 0.002031
56 0.002024
84 0.001988
108 0.002027
127 0.001036
136 0.000998
125 0.001963
115 0.00203
115 0.001964
123 0.001996
132 0.000997
140 0.000997
146 0.002001
149 0.000967
157 0.002026
162 0.002041
162 0.00203
125 0.000999
48 0.001022
57 0.000997
94 0.000998
117 0.000998
136 0.001043
147 0.001996
144 0.002026
122 0.002028
117 0.002031
122 0.001952
132 0.002027
141 0.00103
154 0.0
160 0.0
166 0.0
169 0.0
149 0.00104
92 0.000997
60 0.000997
70 0.000998
106 0.000997
130 0.000998
149 0.000999
157 0.000997
139 0.0
127 0.0
128 0.0
138 0.0
146 0.0
152 0.0
157 0.0
163 0.0
169 0.0
163 0.0
108 0.001011
50 0.000995
55 0.0
86 0.0
112 0.0
137 0.0
144 0.0
137 0.0
123 0.0
116 0.0
124 0.0
133 0.0
142 0.0
150 0.0
160 0.000998
166 0.000998
161 0.0
108 0.003026
46 0.002027
38 0.0
68 0.0
97 0.0
118 0.002026
133 0.002029
135 0.0
125 0.0
116 0.000988
123 0.001008
131 0.00098
140 0.002029
148 0.002003
155 0.001018
160 0.000952
165 0.000965
168 0.002986
140 0.002996
53 0.0
38 0.0
81 0.0
108 0.0
129 0.0
141 0.002024
141 0.002028
126 0.0
119 0.0
121 0.001011
131 0.0
141 0.002029
149 0.00203
156 0.0
163 0.002027
170 0.0
174 0.000986
165 0.0
111 0.003035
59 0.002025
63 0.0
91 0.0
118 0.0
139 0.003022
152 0.003027
150 0.0
129 0.003032
124 0.0
132 0.0
143 0.0
151 0.001962
158 0.001994
166 0.0
172 0.0
175 0.002005
162 0.001975
104 0.002044
56 0.0
78 0.002026
113 0.0
136 0.0
152 0.0
155 0.002033
144 0.002028
126 0.000999
127 0.000971
135 0.000963
145 0.003026
152 0.002996
160 0.0
167 0.003025
172 0.0
156 0.0
88 0.0
42 0.002026
45 0.00202
85 0.0
111 0.0
130 0.000965
142 0.002992
140 0.002992
124 0.001994
119 0.002992
129 0.002025
139 0.0
146 0.0
151 0.002968
157 0.002962
164 0.001979
168 0.001991
156 0.002
91 0.002992
39 0.002027
48 0.002001
89 0.002993
113 0.00298
136 0.0
141 0.001993
133 0.001993
122 0.002976
119 0.003003
126 0.001993
136 0.001964
145 0.002008
151 0.004008
155 0.004036
162 0.003942
167 0.00399
169 0.001994
132 0.001998
63 0.001946
38 0.003023
56 0.003024
66 0.01895
87 0.0
113 0.000993
145 0.004003
139 0.004023
120 0.003988
121 0.004021
132 0.003008
142 0.001985
150 0.003005
155 0.00399
159 0.004023
164 0.001989
167 0.001994
171 0.002005
171 0.004024
139 0.004023
52 0.00399
57 0.004037
95 0.001993
121 0.001993
141 0.002999
152 0.00503
149 0.004031
128 0.001991
120 0.001965
126 0.001981
136 0.005017
145 0.005023
157 0.005013
162 0.00399
167 0.001989
172 0.002001
175 0.002022
164 0.004024
110 0.004025
59 0.001994
69 0.001954
97 0.001992
123 0.004023
145 0.004021
159 0.004944
149 0.00398
129 0.003002
128 0.002963
134 0.003008
144 0.004981
152 0.005021
160 0.003017
166 0.003005
171 0.002996
174 0.005023
176 0.00503
123 0.002045
58 0.004987
43 0.006015
75 0.00301
103 0.002998
125 0.002997
142 0.006017
148 0.004986
137 0.002989
121 0.003982
119 0.00296
125 0.004984
141 0.002961
150 0.00499
157 0.006036
163 0.004006
167 0.003992
171 0.003048
159 0.005984
100 0.006015
43 0.002988
52 0.002924
79 0.002965
106 0.005045
137 0.003997
144 0.005017
138 0.00502
120 0.003989
118 0.003984
124 0.003997
132 0.006016
142 0.005985
152 0.003977
157 0.002946
163 0.003999
167 0.005968
166 0.006
91 0.005976
51 0.00699
63 0.003988
89 0.003992
114 0.003985
133 0.00598
144 0.006011
139 0.003988
127 0.003987
119 0.003983
123 0.005989
131 0.006968
145 0.006919
151 0.007018
159 0.003986
163 0.003988
166 0.004002
156 0.006956
110 0.007003
61 0.003982
69 0.003988
93 0.003989
118 0.005975
139 0.006986
150 0.006995
139 0.006981
123 0.004039
122 0.003971
130 0.004985
140 0.006986
149 0.006981
156 0.003989
163 0.00399
167 0.004995
159 0.00498
111 0.007984
54 0.00498
69 0.006986
95 0.006982
126 0.004982
143 0.004983
147 0.005029
137 0.007012
121 0.006977
119 0.004987
127 0.00399
135 0.00598
145 0.007973
153 0.005996
161 0.007978
164 0.007977
145 0.004965
79 0.005988
38 0.004981
52 0.007978
83 0.00797
107 0.005977
126 0.005953
136 0.005979
127 0.00797
111 0.005981
112 0.007978
118 0.007979
124 0.000996
138 0.006003
144 0.00499
152 0.007978
154 0.007979
157 0.004987
132 0.004987
68 0.004987
35 0.006981
66 0.005987
104 0.006975
123 0.006975
135 0.005985
133 0.005979
120 0.005987
111 0.007937
113 0.007979
125 0.00597
134 0.005985
141 0.005972
147 0.007015
154 0.005982
160 0.006986
162 0.006977
140 0.005974
76 0.006003
38 0.005985
57 0.007954
88 0.007001
114 0.006976
137 0.006982
141 0.006003
129 0.006963
110 0.006975
115 0.006989
125 0.007014
135 0.005995
143 0.005975
148 0.00599
152 0.007044
156 0.00699
161 0.006991
165 0.005982
161 0.005966
118 0.00698
50 0.006979
61 0.00599
91 0.005977
117 0.006019
143 0.005992
148 0.005954
138 0.005989
120 0.007027
114 0.006982
124 0.006948
136 0.005984
144 0.006021
151 0.005984
155 0.005984
159 0.006024
163 0.006017
167 0.005988
154 0.005984
94 0.004987
44 0.004985
43 0.006018
84 0.005986
110 0.005973
130 0.004978
142 0.006017
130 0.006026
115 0.00602
113 0.006019
123 0.006005
134 0.005978
143 0.005986
148 0.006015
152 0.00598
157 0.005983
160 0.005979
164 0.004987
160 0.005985
107 0.005985
45 0.006013
31 0.005024
67 0.005017
97 0.004991
117 0.004982
132 0.005992
135 0.004945
121 0.005983
109 0.005983
110 0.004938
127 0.005985
138 0.005989
145 0.005017
150 0.005022
155 0.00499
157 0.004988
160 0.004992
163 0.005019
167 0.005021
160 0.004991
102 0.004986
43 0.005028
50 0.004972
83 0.004968
108 0.005025
125 0.004981
137 0.004986
130 0.004999
117 0.004988
111 0.004982
116 0.005
126 0.005032
140 0.004949
148 0.004021
156 0.003991
159 0.004028
161 0.003934
164 0.004024
166 0.003989
170 0.00399
162 0.003989
110 0.003991
55 0.004045
47 0.005032
83 0.004993
109 0.004
139 0.003987
145 0.00399
137 0.004056
120 0.00399
115 0.003981
123 0.003959
134 0.004027
143 0.00398
150 0.003953
155 0.003991
160 0.002992
163 0.00399
170 0.004016
171 0.002992
157 0.003952
102 0.004027
63 0.004026
74 0.003926
101 0.003954
126 0.003954
146 0.00399
156 0.002993
148 0.003022
130 0.003943
125 0.002955
134 0.003035
144 0.002967
152 0.002992
157 0.004027
163 0.002997
167 0.003989
170 0.003029
172 0.002993
150 0.00399
68 0.00399
47 0.003995
86 0.003956
113 0.003985
134 0.003995
148 0.002957
148 0.003027
130 0.003042
120 0.003027
122 0.002995
131 0.002989
141 0.004029
149 0.003042
155 0.003048
163 0.003028
168 0.003026
169 0.001959
140 0.002999
72 0.001995
39 0.002028
60 0.001994
92 0.002961
116 0.003029
134 0.002992
144 0.002995
135 0.003069
117 0.002993
119 0.00301
128 0.003028
138 0.003033
145 0.002998
151 0.003033
158 0.002038
163 0.001985
168 0.003006
160 0.001988
104 0.002032
42 0.002936
57 0.002993
97 0.003043
119 0.001948
136 0.002025
143 0.001993
135 0.001995
118 0.001959
116 0.001989
122 0.001996
132 0.002026
140 0.002029
149 0.001995
156 0.000962
162 0.000996
166 0.002033
161 0.000998
114 0.000988
57 0.000998
53 0.002014
80 0.002056
107 0.001996
128 0.001989
142 0.001009
141 0.002029
120 0.001001
113 0.000998
122 0.001027
132 0.000999
141 0.001032
147 0.000998
155 0.001037
161 0.001037
165 0.001045
163 0.001995
126 0.002029
58 0.002029
63 0.001036
100 0.002008
125 0.00095
144 0.000997
151 0.000997
142 0.000998
121 0.000999
119 0.00103
127 0.00199
137 0.001009
146 0.000998
153 0.001042
158 0.001038
163 0.0
160 0.000998
107 0.0
48 0.0
38 0.000998
63 0.000998
104 0.000997
125 0.000998
139 0.001007
140 0.000999
127 0.000997
113 0.000995
120 0.0
133 0.0
142 0.0
149 0.0
154 0.0
158 0.0
163 0.0
159 0.0
110 0.0
46 0.0
31 0.0
78 0.000999
107 0.0
131 0.0
138 0.0
132 0.0
118 0.0
112 0.0
121 0.0
131 0.0
140 0.001052
147 0.0
154 0.0
159 0.000997
162 0.0
162 0.0
125 0.0
42 0.000955
33 0.0
61 0.001012
95 0.002029
118 0.003047
139 0.000992
139 0.001018
127 0.0
112 0.0
118 0.0
129 0.002031
139 0.003029
148 0.0
153 0.0
157 0.001028
160 0.001993
163 0.002026
158 0.000959
107 0.0
52 0.0
60 0.0
93 0.0
120 0.003022
140 0.002992
149 0.0
136 0.0
119 0.0
115 0.002025
123 0.001995
130 0.0
147 0.0
153 0.000983
160 0.0
165 0.000965
168 0.001007
162 0.002028
115 0.003037
48 0.0
52 0.00101
84 0.0
115 0.003024
139 0.003053
154 0.0
148 0.000972
122 0.0
122 0.001005
128 0.002027
141 0.002027
150 0.002036
157 0.001
161 0.0
165 0.0
169 0.002029
170 0.003007
118 0.000999
48 0.000998
41 0.0
77 0.0
107 0.0
129 0.002982
142 0.003024
137 0.0
122 0.0
114 0.0
118 0.001976
128 0.002031
143 0.0
150 0.0
157 0.0
160 0.00102
165 0.0
166 0.003028
136 0.003027
44 0.0
27 0.000951
52 0.000985
87 0.003027
113 0.003028
136 0.0
140 0.000994
123 0.000962
115 0.0
118 0.0
129 0.002994
140 0.002993
151 0.000959
156 0.0
161 0.002037
164 0.002964
168 0.002965
159 0.002992
100 0.0
34 0.001981
56 0.002024
91 0.00199
118 0.00303
137 0.003026
147 0.0
137 0.002992
121 0.002992
117 0.003
124 0.003989
134 0.004034
146 0.001991
155 0.003981
161 0.002995
165 0.003992
170 0.003013
169 0.003025
132 0.002959
54 0.002014
52 0.001979
80 0.002021
112 0.003993
136 0.003027
156 0.002985
150 0.004022
127 0.002993
123 0.002976
131 0.002992
141 0.004037
151 0.005017
158 0.002992
163 0.002998
167 0.002994
171 0.003992
175 0.00399
164 0.001996
75 0.003987
38 0.002988
62 0.00199
97 0.001995
123 0.004005
143 0.003983
151 0.003011
139 0.002992
123 0.002983
118 0.005023
124 0.00502
139 0.003999
151 0.004958
158 0.001999
164 0.002991
168 0.00299
170 0.003988
173 0.004022
163 0.002986
96 0.002988
38 0.001996
35 0.004996
66 0.004987
107 0.002993
134 0.004994
143 0.001973
135 0.001988
119 0.001995
114 0.005018
119 0.004987
134 0.002986
143 0.001996
150 0.003836
156 0.005984
161 0.006023
166 0.002986
172 0.005022
165 0.004954
86 0.002992
41 0.002
46 0.002992
77 0.004992
107 0.004999
134 0.001992
146 0.002959
146 0.002962
131 0.006019
117 0.005984
123 0.005984
133 0.006023
145 0.003015
152 0.002993
158 0.002994
163 0.007005
169 0.005983
170 0.00299
141 0.002986
78 0.003941
54 0.005985
69 0.006022
114 0.005995
137 0.005986
153 0.003034
149 0.003894
134 0.002983
122 0.005984
124 0.006
135 0.003956
144 0.005029
151 0.003978
157 0.007016
164 0.006982
169 0.006982
142 0.006974
66 0.002998
56 0.002959
78 0.002999
107 0.00597
132 0.007015
153 0.003949
153 0.002992
138 0.003945
124 0.005984
123 0.005983
138 0.005992
147 0.005969
155 0.003999
160 0.003983
165 0.003994
164 0.006982
122 0.006977
43 0.003983
38 0.003993
67 0.003985
98 0.007124
127 0.007983
143 0.005981
136 0.006925
117 0.004987
113 0.004002
120 0.003984
129 0.006981
139 0.007974
149 0.005953
154 0.003974
160 0.004984
152 0.007979
119 0.006981
30 0.004987
38 0.007979
72 0.007976
111 0.003987
130 0.003989
139 0.004986
135 0.007014
121 0.006976
113 0.003983
120 0.004989
130 0.004988
139 0.007976
150 0.005
157 0.007974
161 0.007978
163 0.004989
141 0.004978
71 0.004989
27 0.00698
49 0.006978
87 0.004986
115 0.004994
134 0.005985
142 0.007707
127 0.004996
115 0.007978
115 0.007971
127 0.00499
138 0.004956
147 0.003993
152 0.007978
157 0.006981
160 0.005021
163 0.005952
165 0.005986
131 0.007989
47 0.005984
38 0.007947
79 0.007978
112 0.005993
134 0.004976
148 0.005944
142 0.007975
124 0.006948
113 0.005971
117 0.006044
129 0.005989
143 0.006979
152 0.005983
158 0.006971
161 0.006968
165 0.005989
167 0.005978
163 0.00695
94 0.006986
46 0.006984
48 0.006964
81 0.006001
114 0.005998
145 0.007012
155 0.006979
137 0.007048
122 0.006964
120 0.00698
129 0.005992
139 0.006031
151 0.007025
158 0.006976
163 0.00595
165 0.005988
166 0.005983
168 0.006017
139 0.005985
64 0.005982
26 0.005998
38 0.00599
75 0.006977
108 0.006983
133 0.006016
141 0.006033
134 0.006019
113 0.005962
109 0.005989
117 0.006014
134 0.006016
143 0.006017
150 0.005983
153 0.006016
159 0.006016
162 0.005988
163 0.005987
147 0.006019
85 0.006018
29 0.005997
45 0.005981
83 0.005979
126 0.005983
141 0.005987
143 0.005984
133 0.005981
117 0.005981
117 0.005984
126 0.005984
137 0.005981
146 0.005949
153 0.005945
158 0.005011
162 0.004987
165 0.005011
164 0.004951
129 0.005021
61 0.005019
36 0.00498
64 0.004965
99 0.005034
124 0.006022
141 0.006021
144 0.006002
131 0.00502
116 0.004986
120 0.004989
131 0.004981
142 0.005027
150 0.004982
155 0.00499
159 0.004986
163 0.005969
166 0.005952
166 0.005986
161 0.014983
68 0.002942
48 0.005009
100 0.005039
128 0.004991
149 0.004986
159 0.004987
145 0.004981
127 0.004976
122 0.004994
130 0.004004
141 0.003988
151 0.004025
160 0.004009
164 0.003988
172 0.003989
173 0.004988
145 0.005029
74 0.005035
38 0.004036
66 0.004014
102 0.003976
128 0.003991
148 0.00399
156 0.00399
141 0.004951
126 0.003984
127 0.004
137 0.003983
147 0.004997
155 0.005002
161 0.004038
167 0.003993
170 0.00399
169 0.003997
122 0.004037
49 0.004023
36 0.003978
71 0.002998
124 0.003976
143 0.00396
152 0.003993
148 0.003979
134 0.003024
124 0.003989
130 0.00399
140 0.003947
150 0.003028
157 0.003028
164 0.003027
168 0.00399
171 0.00303
134 0.004025
61 0.003943
37 0.004066
60 0.002992
109 0.002991
134 0.003007
152 0.002993
155 0.002984
145 0.003033
126 0.003027
125 0.002992
140 0.002991
149 0.004025
157 0.002985
162 0.003026
167 0.003027
172 0.003026
162 0.002995
105 0.002028
53 0.001995
55 0.001994
101 0.00299
131 0.003029
163 0.002985
162 0.003023
147 0.003033
132 0.003025
130 0.003032
142 0.00399
151 0.004082
159 0.003031
165 0.003028
169 0.004015
175 0.003024
162 0.002993
73 0.001995
41 0.001996
70 0.001996
108 0.002039
135 0.001995
154 0.003036
158 0.003023
143 0.002993
127 0.000998
126 0.001996
135 0.002992
148 0.001961
158 0.002046
164 0.001995
169 0.001997
172 0.00203
148 0.002036
73 0.001998
32 0.001995
56 0.003027
96 0.003024
125 0.003039
144 0.002993
151 0.002034
134 0.002029
121 0.002045
126 0.002051
136 0.001988
146 0.002032
154 0.002033
160 0.002024
165 0.000999
170 0.003035
170 0.000998
132 0.00287
40 0.002993
39 0.001997
90 0.001993
118 0.002023
138 0.001997
148 0.002036
144 0.000996
124 0.00204
120 0.000989
126 0.002025
136 0.002992
146 0.002028
155 0.001963
161 0.001
164 0.001996
167 0.00199
170 0.002024
163 0.001995
108 0.0
31 0.002032
37 0.0
75 0.000999
108 0.001014
129 0.000998
146 0.000998
139 0.002029
120 0.002028
118 0.000993
126 0.000999
137 0.000997
146 0.0
152 0.0
158 0.0
161 0.0
163 0.0
166 0.0
168 0.0
142 0.0
74 0.0
42 0.0
68 0.0
101 0.0
125 0.0
143 0.000999
148 0.0
136 0.0
124 0.008975
117 0.0
125 0.0
143 0.0
149 0.0
156 0.0
160 0.0
164 0.0
168 0.0
172 0.0
158 0.001069
101 0.000998
60 0.001046
66 0.001007
93 0.00101
137 0.000997
153 0.000998
157 0.0
144 0.0
125 0.000997
127 0.000962
136 0.000989
146 0.002028
154 0.002043
160 0.0
165 0.000971
170 0.000952
174 0.0
151 0.000967
84 0.002992
49 0.003023
71 0.0
92 0.002006
125 0.0
144 0.003025
152 0.003024
143 0.000961
126 0.0
120 0.0
133 0.000972
142 0.001015
149 0.002027
155 0.002997
161 0.000959
165 0.0
171 0.0
168 0.002991
123 0.00304
43 0.000963
39 0.000966
68 0.001008
114 0.0
133 0.0
143 0.0
140 0.003028
124 0.002013
113 0.001014
119 0.00095
130 0.000953
140 0.002031
146 0.002026
153 0.000952
158 0.000962
166 0.00096
167 0.0
143 0.0
72 0.002992
33 0.003025
54 0.0
86 0.001012
111 0.000966
130 0.003024
139 0.004023
132 0.000959
119 0.0
116 0.001003
125 0.0
134 0.000959
141 0.00404
147 0.003026
155 0.0
159 0.000963
164 0.0
166 0.003034
143 0.003027
59 0.000994
42 0.000999
84 0.000962
110 0.001009
130 0.0
142 0.003026
142 0.002996
123 0.000964
114 0.000993
117 0.001019
126 0.002992
134 0.001985
144 0.000965
151 0.000967
161 0.0
165 0.0
162 0.0
126 0.003029
70 0.002993
60 0.0
84 0.0
110 0.001004
133 0.003047
147 0.003054
148 0.0
135 0.0
120 0.000989
126 0.000987
136 0.000967
144 0.002993
151 0.003039
157 0.002027
164 0.003045
167 0.002003
148 0.003028
84 0.002992
47 0.004024
64 0.00204
103 0.004037
132 0.002993
145 0.002991
145 0.002015
132 0.004038
117 0.00399
120 0.002983
128 0.00298
136 0.0
144 0.004031
151 0.00399
158 0.003002
164 0.00399
118 0.002993
50 0.003024
29 0.003007
48 0.004004
79 0.00399
110 0.002994
127 0.002995
133 0.002043
125 0.003989
112 0.003987
108 0.002002
119 0.003982
133 0.002987
140 0.002993
147 0.002997
149 0.019901
154 0.0
162 0.0
75 0.002992
31 0.003953
37 0.004025
67 0.004038
101 0.001995
124 0.004035
129 0.002012
119 0.002993
108 0.001969
108 0.004986
116 0.004987
127 0.003974
136 0.002989
143 0.003001
148 0.005984
154 0.004988
158 0.004991
104 0.004984
32 0.003981
35 0.002993
64 0.002986
93 0.004987
115 0.005019
132 0.001996
130 0.001995
116 0.002985
107 0.004986
110 0.004992
123 0.002989
135 0.004985
143 0.002994
149 0.00299
155 0.002977
160 0.004987
157 0.005018
94 0.00299
46 0.001983
47 0.002028
75 0.002046
105 0.005984
128 0.006018
147 0.006026
136 0.005948
115 0.002992
116 0.00296
125 0.003983
137 0.005978
146 0.005985
153 0.003959
157 0.002992
162 0.00399
166 0.005009
150 0.005991
51 0.006039
38 0.006979
76 0.003002
106 0.003033
128 0.003018
144 0.006021
143 0.006013
125 0.002989
116 0.003004
120 0.003984
131 0.006982
141 0.00695
153 0.005984
155 0.007014
160 0.002991
163 0.002933
165 0.003945
144 0.006977
72 0.007017
19 0.003991
37 0.003978
75 0.003993
103 0.006967
122 0.008016
133 0.005952
123 0.005945
109 0.003993
112 0.002996
122 0.003992
134 0.006982
143 0.006982
149 0.00399
153 0.003989
156 0.003966
159 0.00699
162 0.006982
113 0.006981
45 0.006981
28 0.003981
60 0.004985
94 0.003978
116 0.00701
132 0.006982
136 0.003989
124 0.005974
114 0.004985
115 0.006981
124 0.007033
141 0.006975
148 0.006981
153 0.005001
155 0.004987
157 0.004976
161 0.005001
163 0.007981
140 0.007973
73 0.004987
30 0.004992
41 0.004018
77 0.007025
123 0.003994
139 0.006981
143 0.007981
128 0.004987
115 0.004966
116 0.00496
127 0.007939
142 0.007962
149 0.005952
153 0.003958
156 0.004971
159 0.008009
165 0.004988
168 0.007948
150 0.007978
68 0.004987
43 0.005984
63 0.006001
109 0.007016
134 0.00698
152 0.005999
156 0.005019
144 0.004988
124 0.007023
128 0.004987
139 0.007959
150 0.007981
159 0.005986
162 0.004986
164 0.005043
167 0.007981
172 0.007985
172 0.005988
141 0.00598
67 0.005952
31 0.007019
69 0.005951
114 0.00698
136 0.006987
148 0.005952
147 0.004984
134 0.005971
119 0.006962
124 0.007991
135 0.006984
146 0.006017
154 0.006013
160 0.00698
164 0.005983
167 0.006978
169 0.006981
170 0.00599
146 0.005949
96 0.008977
33 0.0
44 0.006971
83 0.005955
111 0.005985
136 0.005998
142 0.005987
126 0.005981
116 0.005977
119 0.006021
129 0.006021
144 0.005983
152 0.005957
157 0.006972
160 0.007025
162 0.006071
165 0.005987
168 0.005968
170 0.006
81 0.005973
29 0.005979
33 0.006028
70 0.005976
111 0.005997
132 0.005989
145 0.005983
