115 0.020971
125 0.004995
134 0.00405
129 0.003991
114 0.00399
106 0.003992
111 0.00399
121 0.00399
133 0.003989
144 0.003975
151 0.003924
158 0.003952
165 0.004923
152 0.004928
108 0.004957
80 0.003913
74 0.00395
81 0.003947
96 0.003958
109 0.003943
120 0.003944
120 0.003957
109 0.003917
99 0.003952
104 0.003958
118 0.00399
129 0.003
139 0.002941
146 0.002961
153 0.002943
155 0.003932
121 0.003933
82 0.003954
65 0.003984
64 0.003026
75 0.003924
85 0.00299
93 0.003959
93 0.002954
89 0.002991
86 0.003028
87 0.002941
96 0.004001
105 0.002952
114 0.002993
121 0.002955
126 0.002992
134 0.003964
135 0.002931
93 0.00299
68 0.002991
60 0.002955
64 0.002963
72 0.002962
78 0.002991
86 0.002938
88 0.002938
86 0.002959
83 0.002991
84 0.002992
94 0.002035
103 0.001964
113 0.003025
118 0.002993
122 0.002953
126 0.003022
132 0.002991
125 0.002993
94 0.002962
71 0.003004
66 0.002004
71 0.001993
84 0.001998
91 0.001995
97 0.001999
93 0.001996
89 0.001993
88 0.001995
93 0.001995
104 0.001996
113 0.001995
120 0.001999
124 0.001992
127 0.001012
134 0.001958
139 0.000999
137 0.001995
105 0.001986
78 0.001994
68 0.002026
71 0.001995
80 0.002013
86 0.002019
91 0.001994
94 0.001962
92 0.002
89 0.002003
94 0.000997
103 0.002038
111 0.001001
119 0.000998
124 0.000998
128 0.000997
133 0.000998
136 0.001014
140 0.000998
145 0.001995
154 0.001999
161 0.001995
167 0.00195
175 0.000923
182 0.000998
187 0.000997
161 0.000966
107 0.001004
75 0.001005
73 0.000997
79 0.000998
83 0.000998
85 0.000997
88 0.000997
89 0.000998
89 0.000998
90 0.000997
94 0.001032
100 0.000997
108 0.000998
116 0.000997
125 0.000997
129 0.000998
132 0.0
139 0.0
144 0.0
150 0.0
157 0.000991
166 0.000951
173 0.000997
181 0.001017
188 0.000965
172 0.000964
107 0.0
86 0.0
83 0.0
96 0.0
102 0.0
107 0.0
111 0.000938
109 0.0
105 0.0
106 0.0
111 0.0
121 0.0
132 0.0
141 0.0
147 0.0
152 0.0
155 0.0
158 0.0
163 0.0
170 0.001007
176 0.000972
184 0.0
194 0.0
185 0.0
135 0.0
99 0.0
88 0.0
98 0.0
111 0.0
121 0.0
127 0.0
124 0.000954
116 0.00095
113 0.0
118 0.0
127 0.0
139 0.001015
150 0.000997
160 0.0
166 0.0
171 0.00101
172 0.000987
176 0.000998
180 0.000998
187 0.000998
194 0.00096
202 0.0
184 0.000968
124 0.001037
89 0.001993
80 0.001887
91 0.000934
99 0.000987
104 0.00102
109 0.000989
111 0.000998
107 0.000998
105 0.000998
110 0.000999
119 0.000997
130 0.000997
141 0.000956
150 0.001127
161 0.001994
165 0.001995
169 0.001031
173 0.000998
178 0.001996
185 0.001996
192 0.001995
199 0.001998
203 0.000998
156 0.000999
102 0.001996
82 0.000983
90 0.001996
101 0.002045
113 0.0
122 0.000996
125 0.001995
119 0.003031
113 0.002992
113 0.002043
120 0.002028
133 0.00099
146 0.002992
159 0.001995
169 0.001995
173 0.002011
175 0.001994
180 0.001
184 0.001955
189 0.001925
195 0.00193
202 0.00202
204 0.002015
167 0.002992
101 0.002028
90 0.001994
100 0.003076
116 0.002977
137 0.001994
148 0.001995
146 0.002024
131 0.003006
121 0.003025
121 0.002992
135 0.002036
148 0.001979
160 0.001945
173 0.002991
176 0.002992
179 0.002992
180 0.002992
183 0.003024
188 0.002992
194 0.002025
170 0.002992
110 0.003042
79 0.002943
75 0.002039
85 0.002028
105 0.002037
117 0.002039
122 0.003941
115 0.003989
103 0.003032
102 0.003017
109 0.002943
121 0.003973
134 0.002992
149 0.003037
156 0.002983
160 0.003007
165 0.002005
168 0.004002
175 0.00402
180 0.003989
145 0.002991
90 0.003023
64 0.002977
60 0.00399
67 0.004044
79 0.003025
84 0.003025
90 0.003033
89 0.004073
87 0.004022
86 0.004992
91 0.005018
100 0.003991
111 0.00403
123 0.004006
135 0.004047
140 0.004993
145 0.003027
151 0.002992
158 0.002999
135 0.004052
90 0.004018
66 0.005019
62 0.004987
73 0.00399
82 0.004016
91 0.003991
99 0.006045
100 0.004987
92 0.004043
88 0.003996
90 0.004989
109 0.003043
120 0.003991
127 0.004033
137 0.005018
143 0.005007
150 0.004068
153 0.005028
132 0.003987
92 0.005036
70 0.005035
69 0.00397
78 0.003989
97 0.003989
109 0.004044
113 0.004011
105 0.005988
95 0.005984
95 0.005019
103 0.005021
110 0.005031
126 0.005017
136 0.005023
143 0.004976
151 0.005021
154 0.004028
143 0.005971
89 0.005018
66 0.005984
61 0.005983
71 0.004973
80 0.005015
87 0.005027
94 0.005984
93 0.005982
86 0.005027
85 0.006006
93 0.005917
100 0.005971
111 0.006026
123 0.006113
128 0.006028
131 0.006016
135 0.005008
139 0.004995
146 0.006949
152 0.00702
118 0.004988
70 0.006018
56 0.005979
60 0.00602
66 0.005985
70 0.006984
73 0.006965
78 0.006052
78 0.006018
77 0.006027
79 0.006018
84 0.006011
92 0.006993
100 0.006019
110 0.007089
121 0.006034
126 0.005978
131 0.007012
138 0.007014
146 0.006982
158 0.006048
168 0.006033
178 0.006016
188 0.007031
196 0.006972
210 0.006981
219 0.007979
175 0.007009
93 0.007018
54 0.00703
47 0.007979
54 0.006981
65 0.007021
71 0.006004
76 0.006016
79 0.007043
78 0.007926
76 0.006984
83 0.00792
94 0.007014
106 0.006982
119 0.007012
129 0.007975
136 0.007981
139 0.007012
143 0.007015
149 0.007017
160 0.00798
169 0.007963
180 0.007031
190 0.007978
201 0.007977
210 0.007978
214 0.007929
138 0.007979
80 0.007979
60 0.006931
67 0.006961
81 0.006946
95 0.007978
108 0.007946
107 0.006982
97 0.00702
94 0.007016
103 0.007016
117 0.007016
134 0.007029
150 0.007015
163 0.00702
166 0.007979
171 0.007967
177 0.00702
181 0.007914
193 0.007015
201 0.007034
214 0.007028
224 0.007011
232 0.007033
205 0.007034
118 0.006025
70 0.007028
60 0.007029
70 0.007014
83 0.00598
100 0.006028
106 0.006019
103 0.006021
96 0.005987
94 0.006035
101 0.007025
114 0.006032
130 0.007014
146 0.007041
163 0.006993
171 0.006026
175 0.007025
183 0.00605
189 0.006033
196 0.006019
205 0.006006
218 0.00603
228 0.006013
231 0.006035
176 0.005973
97 0.00598
62 0.006016
67 0.006034
85 0.00599
120 0.00604
139 0.006014
142 0.006029
128 0.006025
105 0.006028
102 0.006005
111 0.005943
128 0.00604
147 0.006025
167 0.005985
177 0.005976
184 0.006036
189 0.005932
191 0.005022
196 0.004988
204 0.005019
217 0.005022
226 0.005023
211 0.004987
134 0.006038
79 0.006021
66 0.006035
80 0.005986
100 0.006047
138 0.006037
149 0.005051
140 0.005032
119 0.005059
109 0.005026
117 0.005033
135 0.005031
153 0.004989
168 0.004989
184 0.005046
192 0.004995
196 0.005986
203 0.004984
207 0.00502
215 0.00499
222 0.004988
213 0.005019
106 0.004989
57 0.005017
46 0.004988
55 0.005039
69 0.003989
88 0.00403
102 0.004987
97 0.00399
86 0.00399
81 0.003992
87 0.00396
100 0.004004
122 0.004035
139 0.003991
150 0.003991
158 0.005034
162 0.003986
165 0.003993
170 0.003965
185 0.004022
188 0.00398
140 0.00494
73 0.00399
43 0.00399
43 0.004949
55 0.00396
68 0.004043
80 0.004046
89 0.003989
85 0.00397
77 0.003981
77 0.003986
88 0.00402
103 0.00399
119 0.003973
133 0.003006
146 0.003024
150 0.002994
153 0.002992
158 0.003007
166 0.002992
178 0.004016
161 0.004051
80 0.003991
50 0.00399
46 0.004046
56 0.004023
71 0.004021
88 0.002993
96 0.003028
94 0.002997
85 0.002993
80 0.002993
84 0.003029
101 0.002994
122 0.002992
135 0.003004
143 0.004026
147 0.002041
150 0.003998
156 0.00203
166 0.003009
173 0.002993
146 0.003027
90 0.003053
58 0.003029
58 0.003028
70 0.002993
87 0.002996
100 0.002998
102 0.002993
93 0.001996
84 0.001986
86 0.002005
96 0.001995
110 0.002993
124 0.002031
136 0.001995
148 0.002992
151 0.001995
155 0.001995
163 0.002993
173 0.001995
176 0.002963
135 0.001996
74 0.002997
60 0.001987
65 0.001951
78 0.002028
93 0.001964
113 0.001964
109 0.002028
91 0.001995
87 0.001995
92 0.001993
104 0.002012
119 0.000998
136 0.000997
143 0.000997
147 0.000998
150 0.000997
155 0.000998
166 0.001996
154 0.001995
95 0.001992
69 0.002046
67 0.001994
76 0.000997
91 0.000997
114 0.000997
123 0.000997
115 0.000998
100 0.000997
92 0.000998
104 0.000998
118 0.000997
140 0.001996
150 0.000997
154 0.001998
158 0.000999
162 0.000998
168 0.000998
171 0.000998
132 0.000998
83 0.001009
60 0.0
66 0.000998
80 0.000998
91 0.000998
104 0.000997
102 0.0
93 0.0
87 0.0
89 0.0
103 0.0
118 0.0
132 0.0
142 0.000998
151 0.000998
154 0.000997
159 0.000998
170 0.000995
171 0.000998
129 0.000998
79 0.000998
56 0.0
57 0.0
69 0.0
78 0.0
86 0.0
91 0.0
86 0.0
83 0.0
87 0.0
96 0.0
109 0.0
123 0.0
135 0.0
143 0.000998
146 0.0
151 0.000971
161 0.0
172 0.0
179 0.0
145 0.0
77 0.0
56 0.0
56 0.0
71 0.0
77 0.0
88 0.000997
93 0.000997
89 0.0
85 0.001009
91 0.0
102 0.000985
116 0.0
130 0.0
141 0.0
148 0.0
153 0.0
158 0.0
163 0.001064
169 0.000982
185 0.0
204 0.000997
193 0.001027
105 0.0
71 0.0
65 0.0
74 0.001046
89 0.000999
104 0.0
114 0.001002
113 0.000998
104 0.002002
97 0.001995
104 0.001054
117 0.001041
141 0.0
155 0.0
164 0.001054
170 0.000998
173 0.000997
178 0.000998
185 0.001002
195 0.000998
205 0.001996
197 0.002025
104 0.001995
81 0.002051
86 0.000995
101 0.000998
114 0.00102
140 0.000989
150 0.002063
134 0.00099
117 0.000997
113 0.000998
121 0.001996
137 0.002021
166 0.001991
178 0.001995
185 0.000997
187 0.001023
189 0.001062
196 0.000979
204 0.001996
187 0.001041
143 0.001043
78 0.002014
67 0.002035
74 0.001995
97 0.001995
111 0.002037
122 0.001017
115 0.000967
104 0.001059
101 0.002029
107 0.001989
125 0.001001
143 0.001062
158 0.000998
169 0.002946
176 0.00299
181 0.002978
187 0.002982
199 0.002045
203 0.002062
171 0.001997
86 0.002047
60 0.001994
58 0.002039
74 0.000998
85 0.002039
93 0.002992
100 0.003022
96 0.003026
91 0.002992
92 0.003023
105 0.002026
119 0.002037
135 0.002039
149 0.003032
160 0.003989
166 0.003067
169 0.003026
176 0.002025
193 0.002025
192 0.001997
135 0.003027
81 0.003042
58 0.001988
65 0.001982
79 0.002029
92 0.00399
104 0.00399
112 0.003069
106 0.003011
99 0.001997
103 0.002981
115 0.002029
132 0.004023
150 0.00399
167 0.002042
175 0.001991
180 0.001993
183 0.00408
189 0.003989
202 0.002993
209 0.003024
169 0.003021
78 0.003048
68 0.003036
77 0.003968
95 0.00403
120 0.003016
137 0.003013
140 0.003034
123 0.004037
107 0.004035
107 0.004061
120 0.004019
139 0.003019
169 0.003993
180 0.003053
187 0.004045
191 0.003984
197 0.004027
201 0.004027
164 0.003
101 0.00403
70 0.004991
71 0.004044
87 0.004014
106 0.004019
138 0.003973
140 0.002952
123 0.005018
107 0.004987
105 0.004964
121 0.004022
140 0.004039
159 0.004028
174 0.004985
183 0.005984
188 0.005016
194 0.004042
204 0.003987
177 0.004006
103 0.004025
61 0.004987
51 0.005022
64 0.00404
78 0.003965
90 0.003975
100 0.005991
101 0.005984
91 0.005
87 0.005036
97 0.004996
110 0.004963
128 0.003982
144 0.004987
156 0.005001
165 0.003965
169 0.004035
176 0.003992
185 0.00601
183 0.005995
106 0.004982
64 0.00498
55 0.005018
69 0.005
84 0.004953
98 0.005988
110 0.005984
105 0.005024
97 0.005022
94 0.005021
98 0.005984
111 0.005984
136 0.004968
153 0.004986
172 0.005003
177 0.004987
181 0.005017
187 0.007033
197 0.005984
195 0.005013
132 0.005985
79 0.005937
61 0.007022
67 0.006982
90 0.005983
108 0.006027
134 0.004985
129 0.005917
111 0.004986
100 0.005984
103 0.005996
123 0.006016
143 0.005992
161 0.005034
173 0.006981
182 0.007014
188 0.006005
197 0.006982
196 0.006981
127 0.005984
79 0.006017
63 0.006049
69 0.006982
86 0.006982
113 0.006034
135 0.006061
139 0.006035
123 0.007055
104 0.006976
105 0.006975
119 0.007
146 0.005991
162 0.00602
174 0.006018
180 0.006982
184 0.007039
191 0.006032
199 0.007007
187 0.007055
117 0.007032
56 0.007995
53 0.007985
61 0.007948
80 0.006982
91 0.006981
98 0.006013
94 0.007027
87 0.007841
84 0.005985
91 0.006034
104 0.006031
121 0.007979
137 0.007979
156 0.007919
161 0.007947
168 0.007025
175 0.007019
185 0.007011
187 0.007979
112 0.007986
65 0.007034
50 0.007034
60 0.007023
75 0.007008
89 0.007015
107 0.007033
103 0.007013
94 0.007026
92 0.006993
97 0.006975
109 0.007922
128 0.007979
152 0.006994
166 0.007028
175 0.006985
181 0.007037
185 0.007027
197 0.007034
209 0.007012
221 0.007023
177 0.007034
100 0.007025
66 0.007038
63 0.006018
76 0.007044
101 0.007013
121 0.006023
134 0.00604
127 0.007015
100 0.007012
98 0.007015
108 0.007032
133 0.007031
154 0.007027
170 0.007029
178 0.00601
182 0.005985
185 0.006915
191 0.007029
201 0.007026
210 0.006037
155 0.006984
90 0.005987
64 0.006029
70 0.006027
87 0.005952
108 0.005952
130 0.005943
141 0.006032
125 0.005985
109 0.005985
106 0.006034
117 0.006033
149 0.006034
169 0.007013
183 0.006039
195 0.006989
201 0.006042
204 0.006028
207 0.006025
214 0.006026
226 0.006023
237 0.006028
173 0.006029
90 0.006033
59 0.00603
58 0.005038
74 0.004987
100 0.00502
118 0.005018
129 0.004986
120 0.005984
103 0.005983
92 0.006017
100 0.006035
118 0.005984
153 0.006034
170 0.005996
180 0.005032
186 0.005016
190 0.004986
194 0.005039
200 0.004987
211 0.005027
222 0.005037
226 0.00502
138 0.005984
78 0.005028
66 0.003989
83 0.004039
107 0.00502
133 0.004959
154 0.003991
145 0.005025
119 0.005013
104 0.004989
108 0.004985
126 0.005019
157 0.004989
175 0.004978
194 0.005033
199 0.005036
203 0.004969
208 0.005037
216 0.004988
203 0.004055
124 0.004049
69 0.003991
56 0.004032
63 0.00402
91 0.004046
115 0.005033
142 0.004039
129 0.004987
106 0.003991
95 0.005033
101 0.004994
125 0.00403
147 0.004
165 0.003991
177 0.003947
185 0.003992
190 0.003991
192 0.004051
204 0.004052
206 0.004024
145 0.003986
66 0.00399
33 0.003004
33 0.002994
46 0.002982
58 0.00295
67 0.002992
74 0.002992
70 0.003981
64 0.003991
65 0.003996
76 0.004025
90 0.004023
108 0.004053
123 0.003935
136 0.003942
141 0.002998
144 0.002992
150 0.002949
161 0.002961
172 0.003991
131 0.003055
52 0.002993
29 0.002992
35 0.002984
49 0.002953
61 0.001995
71 0.004027
77 0.001995
72 0.002994
66 0.002994
66 0.002994
73 0.002992
93 0.003029
115 0.003035
132 0.002995
137 0.002992
141 0.002992
145 0.003046
153 0.002995
169 0.00303
177 0.003051
141 0.001995
80 0.002031
50 0.00205
50 0.001999
69 0.001996
90 0.002996
106 0.001995
108 0.002035
96 0.002051
83 0.001979
84 0.003002
97 0.003056
114 0.002005
132 0.001995
146 0.002993
156 0.00199
158 0.002034
162 0.00203
171 0.002046
182 0.001995
175 0.001995
117 0.002044
65 0.001996
57 0.001996
66 0.001
81 0.000998
95 0.001001
113 0.000997
108 0.001001
95 0.002008
95 0.001995
102 0.001995
115 0.001991
132 0.002002
152 0.001996
160 0.001995
166 0.001996
170 0.001949
173 0.000999
181 0.00096
188 0.000998
200 0.002052
211 0.001006
222 0.001984
215 0.000998
137 0.000998
80 0.000998
60 0.000999
68 0.000994
82 0.000998
90 0.000998
99 0.000998
98 0.000998
95 0.000983
93 0.000997
97 0.001
107 0.0
119 0.00102
131 0.0
146 0.0
153 0.0
156 0.001051
158 0.000968
166 0.000991
173 0.000997
182 0.000998
193 0.000998
203 0.000937
213 0.000949
224 0.0
228 0.0
149 0.0
91 0.0
72 0.0
75 0.0
96 0.0
106 0.0
113 0.0
114 0.0
108 0.0
103 0.0
104 0.000999
112 0.000997
129 0.000983
143 0.0
158 0.0
163 0.0
169 0.0
172 0.0
176 0.0
183 0.0
191 0.000999
203 0.0
213 0.0
225 0.0
232 0.0
212 0.000997
133 0.000997
89 0.000998
84 0.000998
98 0.000997
118 0.0
131 0.001042
138 0.002048
127 0.000997
118 0.0
113 0.0
119 0.001037
132 0.001052
149 0.001032
168 0.0
181 0.000998
186 0.0
187 0.000998
189 0.000998
194 0.000998
202 0.001
216 0.000998
224 0.000998
199 0.0
127 0.002062
91 0.001995
91 0.002033
106 0.001045
130 0.0
148 0.0
154 0.0
141 0.001057
124 0.002032
119 0.000998
128 0.000998
145 0.000985
163 0.002032
177 0.002019
192 0.001984
195 0.001995
198 0.0
203 0.000986
209 0.001983
217 0.001975
207 0.001995
127 0.000986
94 0.001087
90 0.001945
100 0.001996
119 0.001991
153 0.001995
165 0.001993
149 0.00094
129 0.000997
123 0.00095
130 0.001994
145 0.001969
168 0.000987
181 0.000998
191 0.001069
196 0.001996
200 0.001995
207 0.002002
207 0.002992
153 0.001996
104 0.002046
88 0.00199
93 0.002995
108 0.003023
135 0.001071
155 0.001029
164 0.000999
153 0.001994
133 0.003007
126 0.002992
137 0.002992
152 0.002989
171 0.002003
181 0.002057
189 0.002065
197 0.002991
201 0.002998
186 0.002029
130 0.001031
92 0.001047
83 0.003025
103 0.002018
124 0.003039
146 0.003023
159 0.001995
146 0.002024
123 0.001987
112 0.003018
117 0.002993
136 0.002043
152 0.003018
164 0.002021
175 0.003989
184 0.003022
172 0.004046
123 0.003899
78 0.003023
75 0.003027
85 0.001984
103 0.002994
125 0.004022
144 0.002046
137 0.002024
115 0.002006
102 0.002992
109 0.001982
123 0.003007
139 0.003997
156 0.003006
164 0.003007
165 0.002995
128 0.004021
77 0.003989
48 0.003025
51 0.003064
63 0.003029
77 0.004039
97 0.001948
93 0.005015
82 0.004872
73 0.002957
76 0.002992
86 0.002961
99 0.00399
111 0.003989
123 0.002995
131 0.003023
136 0.002996
88 0.00303
49 0.004037
32 0.004013
34 0.003959
48 0.003997
57 0.004017
66 0.004031
68 0.004987
63 0.00497
58 0.003966
59 0.00402
66 0.00402
84 0.003994
95 0.00402
103 0.003963
107 0.00499
111 0.004967
120 0.003994
121 0.004045
91 0.00399
54 0.004987
34 0.005021
35 0.003989
46 0.004026
62 0.003992
68 0.00402
67 0.004023
62 0.004986
59 0.004974
65 0.004947
75 0.004023
87 0.005045
99 0.005985
107 0.005988
113 0.00402
117 0.004038
122 0.003984
128 0.003986
135 0.004009
145 0.004981
158 0.005984
163 0.003985
117 0.004985
71 0.004984
51 0.005984
53 0.005984
68 0.005025
81 0.005018
95 0.004987
90 0.003969
81 0.004958
77 0.005981
80 0.005986
93 0.005005
107 0.004965
119 0.004991
128 0.005984
132 0.006014
133 0.004971
136 0.00497
144 0.004972
151 0.005998
158 0.006005
166 0.005982
175 0.006974
188 0.005993
195 0.005974
177 0.006028
114 0.007015
73 0.007054
61 0.006024
70 0.006015
86 0.006981
96 0.004987
100 0.005984
95 0.005984
88 0.006982
86 0.006981
95 0.005984
106 0.005975
120 0.006029
132 0.00699
139 0.007036
144 0.006033
148 0.006968
153 0.005986
160 0.006982
167 0.006964
178 0.007969
187 0.007956
196 0.005998
206 0.005984
208 0.005998
163 0.007003
97 0.007011
59 0.005975
62 0.00793
74 0.005955
78 0.006967
81 0.006046
84 0.007948
83 0.007941
82 0.006986
84 0.005991
91 0.005942
106 0.007947
114 0.006981
133 0.006975
140 0.007944
147 0.007014
151 0.006988
156 0.007011
163 0.007946
171 0.007946
184 0.006972
196 0.007015
207 0.007023
215 0.007979
194 0.007936
80 0.007029
68 0.007045
75 0.007008
89 0.006976
100 0.006953
109 0.007938
115 0.007944
109 0.006955
102 0.006981
100 0.006969
110 0.00702
125 0.00709
153 0.007026
164 0.007017
172 0.006981
175 0.006984
177 0.006986
181 0.007015
186 0.007013
197 0.006979
206 0.006984
218 0.006984
225 0.006984
199 0.00703
93 0.006941
76 0.007045
80 0.006951
102 0.006952
118 0.006975
134 0.006979
142 0.006985
133 0.006984
114 0.007012
113 0.007026
122 0.006998
139 0.006028
169 0.006026
182 0.006029
191 0.006031
197 0.006054
199 0.006013
203 0.005994
207 0.006029
213 0.006018
224 0.006017
234 0.006047
239 0.006019
201 0.007028
80 0.007027
62 0.007028
67 0.006016
85 0.005964
97 0.006015
106 0.006031
111 0.006028
107 0.00599
99 0.006015
97 0.006015
105 0.006015
118 0.005018
147 0.006035
162 0.005026
173 0.005032
179 0.006033
183 0.006035
187 0.006005
192 0.005989
198 0.006028
210 0.006033
220 0.005979
228 0.005989
211 0.006015
87 0.006034
62 0.006029
63 0.006032
82 0.005987
99 0.004986
112 0.004991
122 0.005033
118 0.004994
104 0.004987
99 0.005003
105 0.004988
119 0.004974
149 0.005019
164 0.004967
175 0.004986
181 0.005034
186 0.005029
188 0.005034
191 0.004989
197 0.005035
204 0.005027
216 0.004988
224 0.004958
214 0.005044
94 0.004966
67 0.00503
68 0.005035
82 0.005021
106 0.00497
120 0.004038
131 0.004032
124 0.005022
109 0.00502
101 0.00399
107 0.003996
132 0.004025
149 0.004032
163 0.00405
172 0.00397
176 0.003982
178 0.003997
180 0.004023
185 0.004015
193 0.003998
202 0.003992
204 0.004994
151 0.004946
78 0.004028
75 0.004034
86 0.003988
103 0.00402
120 0.004038
139 0.004023
135 0.004021
117 0.004056
105 0.004056
105 0.003991
121 0.00399
138 0.003993
163 0.004021
170 0.004022
173 0.002992
173 0.002993
176 0.002961
184 0.002994
191 0.002992
191 0.002992
149 0.003989
99 0.003992
79 0.003991
86 0.003991
112 0.004051
131 0.003992
144 0.002993
139 0.002993
119 0.002995
105 0.002992
109 0.002994
121 0.002992
138 0.003056
153 0.004062
164 0.003027
171 0.003
175 0.002993
181 0.002022
174 0.00304
124 0.002994
82 0.002996
68 0.003034
75 0.002993
89 0.003001
102 0.003048
115 0.003001
119 0.001993
106 0.002994
95 0.002025
100 0.003033
110 0.002981
126 0.001994
139 0.002042
150 0.002056
157 0.002026
162 0.002072
168 0.002047
171 0.001996
146 0.003009
82 0.002954
57 0.001964
66 0.002066
77 0.002031
89 0.002053
98 0.002003
101 0.001995
92 0.001995
86 0.001954
86 0.001923
94 0.001993
106 0.001992
124 0.002016
137 0.001982
144 0.002037
147 0.002006
151 0.000999
159 0.001972
165 0.000965
123 0.000998
78 0.000997
57 0.001014
58 0.000998
69 0.000997
86 0.000997
99 0.000998
99 0.002001
90 0.000981
84 0.001933
84 0.002025
92 0.001995
110 0.001952
124 0.000998
134 0.000997
140 0.000998
143 0.000997
147 0.000998
154 0.000998
139 0.000992
83 0.000997
62 0.000998
61 0.000998
71 0.000998
85 0.002034
102 0.000996
110 0.000989
104 0.000997
91 0.000998
87 0.000997
95 0.000997
108 0.001007
128 0.000997
138 0.001212
143 0.000997
145 0.000998
146 0.0
151 0.0
159 0.0
160 0.0
116 0.0
56 0.0
49 0.0
58 0.000998
73 0.0
79 0.0
86 0.001
85 0.000997
81 0.0
77 0.0
82 0.000996
91 0.0
104 0.0
123 0.0
131 0.0
135 0.0
138 0.0
141 0.0
146 0.0
155 0.0
166 0.0
179 0.0
141 0.0
85 0.000989
53 0.0
57 0.0
71 0.0
78 0.0
84 0.000999
86 0.0
82 0.000997
80 0.000998
82 0.0
90 0.001042
101 0.001014
118 0.0
125 0.000998
138 0.000993
143 0.0
146 0.000982
150 0.000998
160 0.002029
169 0.001963
182 0.0
193 0.0
203 0.0
213 0.001964
222 0.002005
162 0.0
82 0.002051
65 0.0
75 0.0
89 0.0
99 0.001001
107 0.000966
110 0.0
104 0.0
97 0.0
96 0.001
103 0.000998
120 0.0
142 0.001997
157 0.000997
163 0.0
166 0.0
168 0.002052
170 0.002054
178 0.000949
185 0.0
192 0.001022
201 0.001026
212 0.001049
225 0.000978
231 0.001994
151 0.001007
98 0.00095
84 0.000966
91 0.001995
107 0.001991
133 0.001053
151 0.000996
158 0.000996
142 0.001989
122 0.001951
116 0.001032
131 0.003027
156 0.001012
173 0.000984
186 0.001027
193 0.003024
196 0.003025
196 0.000995
197 0.000953
201 0.001022
208 0.002029
218 0.001995
232 0.000993
199 0.001995
118 0.002028
74 0.002025
74 0.002006
87 0.002054
103 0.003042
115 0.003026
128 0.002033
126 0.002039
115 0.000977
106 0.002992
113 0.000989
128 0.004059
146 0.004044
166 0.002013
177 0.001949
183 0.001995
185 0.003045
186 0.003025
192 0.002001
200 0.001995
210 0.002005
213 0.003046
112 0.002033
73 0.003024
66 0.003066
80 0.001986
96 0.001946
107 0.002008
117 0.004022
120 0.004034
108 0.003012
100 0.002986
100 0.002023
109 0.003041
136 0.003032
152 0.003877
164 0.004022
171 0.002992
175 0.002992
179 0.002952
185 0.004034
189 0.003992
139 0.003098
89 0.001999
69 0.003025
71 0.004021
94 0.001995
109 0.005049
125 0.005017
130 0.002988
114 0.003003
98 0.002986
97 0.004022
106 0.004036
128 0.002998
146 0.002966
158 0.003023
166 0.004024
175 0.002976
178 0.005021
168 0.004974
99 0.002969
66 0.004032
59 0.002991
66 0.00298
81 0.004991
96 0.005021
114 0.002993
115 0.002993
101 0.003008
85 0.003997
90 0.003984
102 0.005017
118 0.005011
137 0.003999
145 0.00399
150 0.003987
155 0.00502
158 0.005025
137 0.003995
85 0.003976
49 0.003027
40 0.003993
50 0.003985
61 0.006017
66 0.005991
72 0.003993
70 0.003991
66 0.004079
64 0.004986
67 0.004988
80 0.003991
92 0.003993
104 0.003985
115 0.005016
118 0.004986
122 0.005985
128 0.005983
134 0.005017
105 0.00399
63 0.003992
36 0.005969
30 0.005965
40 0.003984
48 0.003994
56 0.004032
59 0.004985
58 0.004983
56 0.005983
57 0.005985
66 0.004994
76 0.005985
87 0.004982
97 0.005998
105 0.005994
110 0.004973
113 0.004987
121 0.005927
129 0.00501
138 0.004993
150 0.006976
158 0.007004
106 0.004986
60 0.00497
40 0.004984
40 0.006982
50 0.007001
60 0.004983
66 0.003991
71 0.004977
68 0.004988
66 0.005993
68 0.005996
76 0.006976
87 0.006992
103 0.005029
112 0.004997
119 0.005992
122 0.006973
125 0.006012
132 0.005024
141 0.005967
153 0.005967
162 0.006003
171 0.005967
179 0.006947
186 0.006972
197 0.006008
208 0.005982
216 0.005985
186 0.006988
116 0.006981
72 0.004993
78 0.007956
92 0.005949
103 0.005979
112 0.005981
113 0.007972
108 0.006972
97 0.005986
95 0.005985
102 0.006963
114 0.006984
129 0.007948
145 0.007007
151 0.007947
152 0.006982
153 0.006993
157 0.006976
164 0.007971
169 0.007978
182 0.00599
194 0.005992
208 0.006968
214 0.007017
174 0.006973
114 0.006978
82 0.007986
90 0.006988
105 0.006985
117 0.00699
129 0.007979
135 0.007978
123 0.006981
113 0.006997
112 0.005991
123 0.00701
138 0.007011
159 0.006969
172 0.00701
177 0.006972
177 0.006989
178 0.006978
181 0.007936
185 0.00793
195 0.007965
206 0.007
222 0.007015
223 0.006979
163 0.006973
101 0.006984
74 0.006983
81 0.006985
96 0.006956
100 0.006972
105 0.006972
108 0.006981
105 0.007012
102 0.006978
103 0.005975
111 0.006963
123 0.007005
137 0.007012
156 0.007014
162 0.007026
167 0.006981
170 0.006981
174 0.006982
180 0.006031
188 0.006012
203 0.006012
216 0.005988
223 0.006014
187 0.006013
90 0.006033
76 0.006014
80 0.00598
97 0.006976
106 0.007012
112 0.007011
118 0.007006
115 0.005968
109 0.006022
109 0.006015
115 0.006014
127 0.005984
152 0.005982
164 0.005988
173 0.006029
180 0.006014
182 0.006018
186 0.005985
191 0.006016
199 0.005018
213 0.005021
225 0.004986
234 0.005033
220 0.006027
112 0.006018
89 0.006017
91 0.006031
110 0.005985
125 0.006031
139 0.006013
148 0.006047
144 0.006018
125 0.006028
120 0.00501
125 0.004984
138 0.005017
168 0.005021
182 0.005018
190 0.005096
193 0.005076
195 0.005036
199 0.005034
206 0.004988
213 0.004987
215 0.005033
155 0.004961
108 0.005019
93 0.004039
107 0.005023
123 0.004042
141 0.003991
157 0.005028
154 0.003994
136 0.004022
123 0.004023
125 0.004026
137 0.004028
159 0.004018
175 0.005019
186 0.005022
195 0.005032
198 0.003991
203 0.003991
207 0.003966
172 0.003989
112 0.003988
78 0.003944
72 0.004018
82 0.003951
99 0.003989
110 0.003948
120 0.003947
110 0.003991
101 0.00396
98 0.004021
104 0.004039
120 0.004031
135 0.004014
149 0.004021
158 0.002993
163 0.003054
169 0.003992
174 0.00402
166 0.004033
90 0.00402
65 0.003937
62 0.00399
72 0.003982
88 0.004027
99 0.004032
107 0.00402
103 0.003989
93 0.003969
88 0.00296
93 0.002993
105 0.002978
127 0.002994
137 0.003021
143 0.003049
149 0.002993
157 0.003034
160 0.002981
142 0.004032
99 0.003067
72 0.003026
67 0.003025
80 0.003039
98 0.003024
114 0.003012
116 0.002993
106 0.002994
96 0.0031
94 0.00294
106 0.003026
118 0.002992
131 0.003036
141 0.002992
147 0.003024
153 0.003047
156 0.003045
132 0.001996
96 0.002932
76 0.001995
76 0.002031
86 0.001997
103 0.001995
114 0.00196
121 0.002043
116 0.002993
107 0.001995
103 0.00302
113 0.002994
128 0.001962
140 0.002933
147 0.001995
151 0.002994
153 0.001948
158 0.001965
162 0.001995
156 0.001996
119 0.002995
86 0.00296
75 0.001995
86 0.002008
98 0.001996
103 0.001996
106 0.001995
105 0.001998
102 0.001995
101 0.001993
107 0.001995
115 0.001965
124 0.001968
133 0.002027
141 0.001995
143 0.002005
146 0.001995
149 0.00205
155 0.001999
164 0.001995
172 0.002035
138 0.001041
100 0.000997
83 0.000997
85 0.000998
95 0.001041
106 0.00201
113 0.002067
116 0.000998
110 0.000997
107 0.002036
109 0.001964
116 0.001995
124 0.001996
137 0.00099
143 0.001059
146 0.000997
148 0.000997
149 0.000998
153 0.000998
158 0.000998
169 0.001011
179 0.000997
185 0.000998
162 0.000997
118 0.000998
93 0.0
96 0.0
107 0.000998
117 0.0
125 0.0
131 0.0
123 0.000998
116 0.000998
118 0.0
126 0.000998
135 0.0
145 0.0
153 0.0
155 0.0
156 0.0
157 0.0
159 0.0
166 0.0
171 0.0
180 0.0
187 0.0
196 0.0
203 0.000999
179 0.0
109 0.0
89 0.002037
89 0.000972
99 0.000998
110 0.0
113 0.000999
116 0.0
112 0.0
110 0.0
112 0.0
118 0.0
126 0.0
135 0.000998
143 0.001033
148 0.000997
150 0.0
153 0.000999
155 0.000998
160 0.000982
169 0.00202
176 0.00206
183 0.002066
193 0.0
202 0.0
211 0.0
214 0.001965
167 0.001993
101 0.0
86 0.002013
98 0.0
108 0.0
113 0.0
118 0.000966
120 0.001031
115 0.0
112 0.000999
113 0.000989
118 0.000998
128 0.002008
144 0.0
158 0.000999
164 0.000996
165 0.0
167 0.000997
170 0.002004
175 0.002084
184 0.0
192 0.0
201 0.0
212 0.00203
222 0.002028
227 0.0
152 0.002026
97 0.0
93 0.0
103 0.000953
119 0.002027
132 0.001994
149 0.000947
151 0.000971
139 0.002004
125 0.002026
121 0.001995
131 0.001989
153 0.001984
175 0.0
187 0.00198
193 0.001001
194 0.001996
194 0.002006
196 0.000977
200 0.001001
207 0.002
217 0.002992
226 0.002034
202 0.002041
113 0.003058
89 0.001031
96 0.0
110 0.000947
126 0.00099
144 0.003026
158 0.003043
151 0.002017
131 0.000997
120 0.001003
123 0.001992
137 0.002067
168 0.002029
183 0.003031
195 0.001036
198 0.001996
199 0.001992
198 0.003033
200 0.002992
207 0.001991
214 0.002026
213 0.001994
149 0.003025
86 0.002994
66 0.002992
76 0.003019
94 0.00198
105 0.002005
114 0.000994
117 0.003025
107 0.002993
97 0.001996
99 0.001992
107 0.002013
122 0.003985
141 0.003981
164 0.004011
172 0.00399
176 0.001997
179 0.002017
185 0.001999
192 0.002959
191 0.003989
110 0.003026
66 0.003006
54 0.00299
60 0.004024
82 0.003001
91 0.004052
101 0.00399
103 0.001991
95 0.00198
89 0.002006
90 0.005049
99 0.005038
121 0.002986
139 0.003038
154 0.002996
164 0.003992
173 0.002945
179 0.003994
186 0.00404
181 0.004004
121 0.003023
72 0.002994
56 0.003985
60 0.004987
74 0.004022
93 0.002953
107 0.001995
116 0.002991
98 0.003998
87 0.002999
87 0.004987
98 0.004986
120 0.002981
138 0.00298
152 0.002919
161 0.005021
167 0.004997
174 0.003003
176 0.00301
138 0.002952
63 0.003974
56 0.003973
63 0.004986
79 0.004973
101 0.002984
117 0.002987
119 0.004022
103 0.004943
87 0.004987
86 0.002993
97 0.002971
114 0.004012
142 0.003985
152 0.003998
160 0.006024
166 0.006031
168 0.003987
132 0.003947
76 0.003932
49 0.00495
44 0.005021
59 0.003985
73 0.005063
85 0.00399
96 0.004981
86 0.004975
76 0.005984
75 0.006025
87 0.00399
103 0.004024
118 0.003989
132 0.005978
141 0.006003
149 0.005033
154 0.003988
159 0.004998
98 0.004974
57 0.004977
41 0.005995
43 0.006024
59 0.005019
68 0.004997
77 0.004996
82 0.005985
79 0.005984
72 0.005018
72 0.004972
80 0.004985
102 0.004985
117 0.004995
128 0.007013
134 0.006981
139 0.006968
144 0.004987
152 0.005001
162 0.004993
143 0.005984
90 0.006999
53 0.005995
52 0.005985
71 0.005937
81 0.004977
91 0.005993
95 0.007023
90 0.006991
80 0.004983
81 0.00498
90 0.004987
103 0.006983
119 0.006977
134 0.00597
139 0.005976
144 0.005953
149 0.005945
157 0.005978
164 0.00701
141 0.007017
85 0.005979
68 0.006003
71 0.005986
82 0.006985
95 0.006979
114 0.006993
120 0.007979
104 0.005974
97 0.005988
100 0.00598
111 0.007979
131 0.007971
147 0.006001
159 0.005996
166 0.005994
167 0.007978
168 0.006985
171 0.006995
182 0.007967
195 0.006995
207 0.006967
186 0.00601
97 0.007947
76 0.007977
67 0.005977
77 0.005994
89 0.005969
96 0.007978
104 0.007013
101 0.006984
94 0.007032
94 0.006964
101 0.006974
112 0.006962
126 0.007978
138 0.007947
151 0.005968
155 0.006979
157 0.006985
160 0.006982
166 0.007014
173 0.007033
190 0.007008
203 0.007027
216 0.006968
202 0.006965
107 0.006939
74 0.007021
69 0.007015
77 0.006979
90 0.006979
103 0.006969
110 0.007014
111 0.007014
101 0.007034
100 0.007027
108 0.006966
116 0.006961
137 0.006979
151 0.007013
161 0.007013
166 0.006981
170 0.005865
173 0.005985
178 0.006017
185 0.006018
203 0.006017
215 0.006039
229 0.006036
219 0.006982
140 0.006985
90 0.00701
77 0.006018
88 0.006018
104 0.006015
119 0.006028
134 0.005966
141 0.006015
119 0.006031
109 0.006017
114 0.006008
128 0.005965
148 0.005958
165 0.005026
179 0.005034
187 0.006039
188 0.005984
189 0.00599
193 0.00603
201 0.006018
216 0.006018
206 0.006027
117 0.006001
83 0.005989
77 0.006033
88 0.006027
104 0.005984
125 0.005988
140 0.005018
141 0.005019
124 0.004983
110 0.004991
115 0.005949
130 0.005974
156 0.006017
172 0.006016
183 0.005987
189 0.005985
192 0.005034
193 0.005035
197 0.005018
205 0.005054
215 0.004957
205 0.004955
121 0.005023
70 0.005033
56 0.005028
64 0.004992
77 0.005032
87 0.005027
94 0.00502
98 0.004986
92 0.004038
87 0.004021
87 0.004029
101 0.005038
117 0.005021
135 0.004946
148 0.005034
159 0.005024
162 0.005033
164 0.004972
168 0.005034
174 0.005038
188 0.005019
199 0.004987
203 0.004971
94 0.003997
58 0.004023
51 0.004005
60 0.004034
78 0.004013
87 0.003991
96 0.003991
98 0.004024
91 0.004024
84 0.004973
86 0.004054
96 0.004021
123 0.003991
140 0.004024
152 0.003991
159 0.004019
163 0.004023
166 0.004023
170 0.004079
176 0.004021
186 0.004035
201 0.00403
212 0.004022
216 0.004003
101 0.003999
60 0.004023
53 0.004033
62 0.004028
82 0.002993
95 0.003032
106 0.003993
106 0.003035
95 0.003992
85 0.004019
88 0.003987
99 0.004071
126 0.003044
142 0.003035
155 0.002995
161 0.003029
165 0.003036
167 0.00303
170 0.002993
176 0.003048
184 0.002007
195 0.003033
211 0.003034
216 0.002993
110 0.003042
66 0.001996
57 0.002985
66 0.002963
82 0.003025
102 0.003043
116 0.002954
117 0.002012
103 0.002993
93 0.002992
93 0.002963
104 0.003003
133 0.002999
150 0.002983
163 0.003033
171 0.002992
174 0.001947
176 0.002994
179 0.001995
185 0.001995
195 0.00203
206 0.001997
220 0.002033
202 0.002045
87 0.001996
69 0.002013
74 0.00301
90 0.002036
109 0.000998
135 0.002035
146 0.000998
134 0.002076
113 0.001995
104 0.002003
113 0.002025
138 0.002064
164 0.002063
178 0.002045
187 0.001996
190 0.002046
191 0.001995
198 0.002035
204 0.000999
209 0.000997
186 0.001006
122 0.000997
84 0.000998
90 0.000997
115 0.001996
138 0.001995
163 0.00201
171 0.002039
152 0.001995
125 0.00099
115 0.000998
127 0.001009
146 0.000998
168 0.000998
183 0.000997
199 0.001995
204 0.001995
207 0.002033
189 0.002026
122 0.0
79 0.000997
70 0.000997
83 0.000998
103 0.001057
125 0.000998
147 0.000997
152 0.001005
113 0.000998
101 0.000997
107 0.000976
124 0.000998
144 0.000998
161 0.000968
173 0.0
184 0.000998
189 0.000998
182 0.000998
121 0.001009
65 0.001048
43 0.001016
52 0.000997
71 0.0
81 0.0
90 0.0
89 0.0
79 0.0
72 0.0
74 0.0
84 0.0
97 0.0
113 0.0
130 0.0
136 0.0
143 0.0
142 0.0
102 0.0
57 0.0
34 0.0
35 0.0
45 0.0
55 0.0
63 0.0
69 0.0
66 0.0
61 0.0
64 0.00205
73 0.002048
89 0.0
102 0.000962
112 0.0
119 0.002027
123 0.002031
131 0.000966
138 0.000958
136 0.0
77 0.000999
40 0.0
37 0.000999
46 0.002037
58 0.002029
70 0.0
77 0.0
75 0.0
69 0.002025
65 0.002044
70 0.0
81 0.0
104 0.0
115 0.0
121 0.0
124 0.002045
126 0.002042
135 0.0
145 0.0
147 0.000972
112 0.001054
72 0.002025
52 0.0
59 0.0
80 0.0
93 0.0
104 0.0
102 0.002029
91 0.002038
81 0.0
87 0.0
99 0.0
114 0.002029
128 0.002029
141 0.0
144 0.002035
144 0.0
148 0.0
156 0.0
167 0.002968
165 0.002025
102 0.0
67 0.0
57 0.0
62 0.002032
74 0.002044
88 0.0
99 0.001974
93 0.001985
85 0.001988
83 0.001052
88 0.002101
99 0.001999
118 0.000986
130 0.000996
138 0.002007
141 0.002992
142 0.003028
146 0.001993
153 0.002991
163 0.001994
172 0.001997
182 0.002044
190 0.002021
199 0.001995
214 0.002037
214 0.001047
147 0.001007
81 0.001046
52 0.002992
49 0.003061
63 0.002998
67 0.002992
69 0.000997
71 0.001992
70 0.000993
69 0.002993
71 0.003023
78 0.001981
88 0.001994
99 0.001989
110 0.002993
118 0.003023
126 0.003023
129 0.002985
136 0.002006
144 0.001983
152 0.002021
161 0.002994
173 0.004018
190 0.001045
201 0.002014
190 0.002024
121 0.004045
72 0.003025
55 0.00399
67 0.003989
81 0.002003
86 0.002968
92 0.002004
93 0.003989
88 0.003989
86 0.001972
91 0.002028
101 0.001996
114 0.003955
128 0.003946
146 0.003989
152 0.00401
157 0.001997
163 0.001996
169 0.001953
177 0.004047
187 0.004015
201 0.002023
213 0.002024
226 0.001991
237 0.003997
234 0.005016
112 0.003995
79 0.004987
79 0.002986
93 0.002992
109 0.003034
122 0.004004
133 0.004028
129 0.001999
115 0.001986
106 0.002031
110 0.004039
122 0.005031
154 0.002999
171 0.004987
182 0.004958
189 0.002974
189 0.002988
190 0.002968
194 0.004983
201 0.004986
213 0.002958
225 0.002989
237 0.002991
248 0.003003
204 0.003008
122 0.005018
88 0.004987
91 0.003978
108 0.003974
131 0.002963
155 0.005018
175 0.00502
166 0.002959
139 0.004001
125 0.003979
136 0.004008
155 0.003939
177 0.006019
196 0.005984
211 0.003973
217 0.002942
220 0.004021
223 0.005028
225 0.00504
231 0.002969
238 0.00299
187 0.002967
181 0.004028
132 0.004009
101 0.006027
94 0.006025
100 0.003973
108 0.003965
116 0.00396
123 0.006037
126 0.005984
121 0.003987
114 0.003991
113 0.00403
121 0.004008
131 0.003974
141 0.005984
150 0.005984
158 0.00402
161 0.004003
162 0.004007
163 0.006024
165 0.005984
171 0.00399
176 0.003993
180 0.003998
132 0.004971
100 0.005
92 0.006981
95 0.00701
107 0.004982
117 0.00402
126 0.003965
131 0.004974
126 0.005987
117 0.005981
112 0.004003
117 0.004986
134 0.00497
145 0.00497
154 0.004964
159 0.006981
161 0.006989
162 0.004983
163 0.004986
166 0.005024
170 0.006981
174 0.006984
163 0.005016
121 0.006041
95 0.005994
98 0.005969
107 0.005015
117 0.006978
130 0.006974
139 0.004962
133 0.004986
119 0.005006
113 0.006981
115 0.007024
126 0.004982
138 0.005994
152 0.005973
170 0.00599
173 0.005979
177 0.007979
180 0.007965
167 0.005969
114 0.006014
78 0.005984
69 0.007983
74 0.007978
91 0.005953
106 0.005943
126 0.005985
119 0.005982
103 0.005942
94 0.007982
98 0.007982
111 0.00695
126 0.006934
140 0.00693
153 0.007987
159 0.007011
163 0.006952
167 0.007012
111 0.006993
82 0.00697
60 0.006981
59 0.007957
65 0.007979
80 0.006008
90 0.005975
99 0.006001
96 0.007025
88 0.007015
84 0.006967
93 0.007018
104 0.006976
122 0.006956
130 0.006929
139 0.006965
146 0.007028
151 0.007015
156 0.006932
149 0.006929
106 0.006983
64 0.007019
57 0.007024
69 0.007028
80 0.005947
93 0.007013
99 0.007008
96 0.006981
90 0.007086
87 0.006023
91 0.006972
105 0.006977
118 0.006971
131 0.006995
141 0.006013
150 0.005935
155 0.006016
162 0.005954
163 0.005993
127 0.005983
85 0.007025
67 0.007008
70 0.006963
81 0.006984
93 0.006987
105 0.006024
113 0.006019
100 0.006031
92 0.006008
94 0.005984
104 0.005952
117 0.005982
132 0.005982
142 0.005998
150 0.005993
155 0.005968
160 0.005998
163 0.005953
153 0.006032
90 0.005949
74 0.005985
79 0.005985
90 0.006042
103 0.005988
117 0.005987
124 0.005977
111 0.006017
100 0.005992
99 0.005966
106 0.006017
118 0.006021
141 0.004988
150 0.005042
156 0.004988
159 0.005043
162 0.004994
168 0.004988
170 0.004988
136 0.00602
81 0.005985
68 0.005994
70 0.005982
79 0.006032
94 0.005983
101 0.004987
101 0.004995
94 0.004987
90 0.005036
93 0.004987
102 0.004989
114 0.005057
130 0.005003
140 0.005035
145 0.004032
148 0.004987
152 0.00399
159 0.004025
168 0.005043
159 0.003977
111 0.003951
79 0.004986
69 0.003991
72 0.004995
85 0.004929
93 0.004036
100 0.004939
103 0.004042
96 0.004997
95 0.004945
98 0.005013
111 0.005031
124 0.004988
135 0.00402
145 0.003956
152 0.004972
156 0.004035
158 0.00402
162 0.003998
176 0.004027
187 0.004027
196 0.003991
177 0.004022
103 0.003991
79 0.003958
77 0.00395
86 0.003996
99 0.00399
113 0.003955
121 0.004008
118 0.00396
105 0.00399
104 0.004047
111 0.003991
123 0.003944
144 0.00296
156 0.004026
165 0.003028
169 0.002988
171 0.002989
174 0.003992
181 0.003993
190 0.004025
201 0.003991
173 0.003938
119 0.003939
93 0.003006
91 0.002993
105 0.00302
122 0.002994
141 0.00303
155 0.003035
152 0.003025
129 0.002946
120 0.003028
132 0.002994
148 0.003044
165 0.002994
177 0.003037
185 0.002046
191 0.002998
195 0.00312
199 0.003042
202 0.003047
182 0.003074
110 0.002992
86 0.003028
91 0.003001
104 0.003018
120 0.003047
137 0.003008
143 0.002993
128 0.001996
115 0.002994
113 0.001988
121 0.00205
136 0.002037
158 0.001995
169 0.002047
181 0.003035
185 0.002036
189 0.002047
193 0.00206
195 0.002996
135 0.002968
87 0.002039
71 0.002048
72 0.001996
83 0.001
97 0.001995
108 0.001953
111 0.002059
104 0.002035
99 0.002031
100 0.001995
107 0.002037
125 0.002061
140 0.001997
151 0.002009
158 0.001976
163 0.001996
166 0.000998
172 0.000998
181 0.000998
153 0.001995
102 0.001969
78 0.00205
75 0.002023
83 0.002035
99 0.002009
111 0.000997
120 0.002022
117 0.002056
107 0.002009
100 0.001001
106 0.001011
122 0.001
136 0.001996
147 0.001995
154 0.001996
159 0.002001
164 0.002029
169 0.002043
169 0.0
138 0.0
100 0.0
83 0.000991
91 0.001001
107 0.001004
120 0.0
132 0.00101
131 0.0
120 0.0
110 0.0
114 0.0
123 0.0
136 0.000997
149 0.000982
164 0.000997
168 0.0
171 0.000997
176 0.0
180 0.0
177 0.0
134 0.0
91 0.0
85 0.0
91 0.0
102 0.0
111 0.0
124 0.0
123 0.000998
114 0.000997
111 0.0
115 0.0
124 0.0
134 0.0
150 0.0
157 0.0
161 0.0
163 0.0
166 0.0
175 0.0
180 0.000998
157 0.002098
115 0.002003
92 0.000972
94 0.001007
104 0.0
115 0.001995
125 0.00196
133 0.002059
128 0.0
118 0.001021
115 0.0
122 0.0
134 0.0
145 0.00205
155 0.002037
161 0.0
163 0.0
174 0.0
179 0.002028
186 0.001994
175 0.0
126 0.0
85 0.000967
88 0.000932
100 0.000998
114 0.001991
128 0.001991
138 0.0
129 0.0
117 0.000991
112 0.001954
118 0.001028
134 0.0
149 0.0
169 0.0
175 0.0
177 0.0
177 0.002027
180 0.002042
188 0.0
195 0.0
170 0.0
115 0.002041
84 0.002028
80 0.0
91 0.0
109 0.000967
118 0.000935
120 0.00096
114 0.001043
107 0.00103
106 0.0
113 0.0
124 0.0
136 0.00203
147 0.002025
157 0.0
160 0.0
161 0.0
163 0.0
169 0.0
179 0.002029
191 0.002043
172 0.001989
116 0.002009
84 0.002002
78 0.003018
85 0.003025
98 0.003022
113 0.001992
124 0.002066
116 0.002043
107 0.00201
105 0.001993
110 0.003024
120 0.002993
138 0.002
150 0.00199
159 0.002001
164 0.002993
168 0.002992
171 0.002994
175 0.003997
184 0.001979
195 0.002034
207 0.002098
218 0.002993
205 0.003019
116 0.002049
86 0.002006
83 0.001969
95 0.002995
111 0.003024
135 0.003024
141 0.003049
127 0.001995
114 0.003029
110 0.002982
117 0.003987
129 0.003989
150 0.002072
163 0.001971
171 0.001979
175 0.00402
175 0.003986
175 0.003991
178 0.003029
190 0.001004
201 0.001007
211 0.001003
198 0.004029
135 0.004031
91 0.001974
90 0.001971
103 0.00197
120 0.004019
140 0.004038
163 0.00398
150 0.003989
125 0.00199
122 0.002
130 0.001999
144 0.003034
162 0.003989
183 0.001982
193 0.001972
198 0.002985
199 0.004021
200 0.00399
203 0.00399
209 0.00403
220 0.00199
222 0.001993
169 0.003014
105 0.004987
82 0.004982
87 0.002947
101 0.002978
117 0.002944
131 0.003015
141 0.004029
125 0.001994
113 0.003927
111 0.003965
122 0.002941
138 0.002003
154 0.001999
167 0.004987
176 0.005019
181 0.001987
181 0.003044
183 0.002977
186 0.004987
199 0.002974
203 0.00503
171 0.004986
97 0.002002
78 0.00299
81 0.003001
94 0.005017
109 0.005018
128 0.003039
136 0.002998
129 0.00299
114 0.005044
107 0.00299
115 0.00502
129 0.005984
149 0.002989
161 0.004004
168 0.003996
172 0.005985
174 0.006015
176 0.003985
181 0.004036
188 0.004035
190 0.005953
114 0.002999
81 0.006016
75 0.005984
89 0.002992
104 0.002967
119 0.004056
133 0.005952
131 0.006019
109 0.00397
100 0.003998
102 0.003985
122 0.003985
137 0.003972
149 0.006019
158 0.005987
162 0.003983
163 0.003978
165 0.004994
170 0.006036
175 0.006976
161 0.004968
111 0.00405
79 0.003972
76 0.003994
89 0.003997
104 0.005984
121 0.005984
130 0.005976
116 0.00399
100 0.003988
95 0.005031
100 0.006982
112 0.006963
132 0.00498
143 0.004973
154 0.005006
156 0.005001
158 0.004988
162 0.006976
167 0.006943
157 0.003954
108 0.005034
73 0.004986
62 0.006987
68 0.006981
85 0.004983
98 0.004994
112 0.00499
103 0.004998
91 0.004991
85 0.006981
89 0.007978
104 0.004033
117 0.005939
130 0.004967
138 0.006981
142 0.006981
144 0.005037
147 0.005012
157 0.004994
159 0.004981
128 0.004977
84 0.006981
62 0.006982
63 0.006001
75 0.005977
88 0.005977
103 0.00795
107 0.007979
92 0.006978
86 0.006006
85 0.005984
95 0.005945
109 0.005999
122 0.007979
133 0.006982
140 0.00503
141 0.005994
142 0.005977
146 0.00798
156 0.007996
163 0.005991
146 0.005982
75 0.005984
60 0.00594
64 0.00602
81 0.007012
93 0.007027
105 0.006004
107 0.005928
97 0.006009
89 0.007979
85 0.007993
94 0.007976
107 0.005989
126 0.007974
138 0.005979
143 0.005997
144 0.006979
146 0.006956
148 0.007024
156 0.006969
166 0.006981
173 0.006052
175 0.006976
125 0.007028
78 0.00698
60 0.007046
69 0.005992
82 0.005949
95 0.006964
102 0.007013
97 0.007036
88 0.006963
82 0.006946
87 0.006961
98 0.007029
111 0.007021
124 0.006982
137 0.00702
140 0.006964
141 0.006962
143 0.006897
147 0.005985
152 0.00595
164 0.005985
176 0.005984
185 0.005984
177 0.006063
121 0.006018
64 0.006031
63 0.006023
77 0.006995
86 0.006979
96 0.006968
105 0.006018
99 0.006032
88 0.005982
86 0.005983
91 0.005983
102 0.006002
115 0.006017
135 0.005919
142 0.00595
145 0.006031
146 0.005952
148 0.005992
152 0.006026
157 0.006015
169 0.005018
181 0.004979
192 0.004995
197 0.004988
157 0.004986
77 0.00502
67 0.005017
74 0.004989
94 0.005989
107 0.005974
117 0.005974
116 0.005965
106 0.005018
95 0.004986
97 0.00499
107 0.004991
121 0.004989
145 0.004966
155 0.005038
160 0.004995
162 0.005988
163 0.005969
167 0.006023
172 0.004988
179 0.004976
192 0.004933
202 0.004024
209 0.00399
187 0.004987
87 0.005046
67 0.004985
71 0.004959
88 0.004985
102 0.004988
113 0.005021
119 0.004938
111 0.004036
98 0.004988
96 0.004024
103 0.004004
116 0.00399
142 0.004001
156 0.004022
164 0.00403
168 0.004987
170 0.004952
174 0.004988
179 0.005023
185 0.00399
199 0.003943
209 0.003987
216 0.003992
191 0.003986
90 0.003989
73 0.003989
76 0.004987
97 0.004981
113 0.00399
128 0.003993
134 0.00399
124 0.003956
104 0.004045
100 0.004029
108 0.003959
123 0.003999
153 0.003988
165 0.004028
171 0.004975
172 0.00399
173 0.003991
176 0.004024
183 0.003034
191 0.002992
196 0.004025
150 0.002992
99 0.002993
79 0.003038
87 0.003023
102 0.002992
118 0.003029
135 0.003025
134 0.003072
115 0.003053
102 0.003026
102 0.002993
111 0.00301
131 0.003033
147 0.003999
164 0.003024
168 0.003035
171 0.003027
174 0.002988
176 0.003063
131 0.002994
82 0.003054
58 0.003005
55 0.003027
64 0.003034
80 0.003047
89 0.002942
94 0.003025
86 0.002993
78 0.003025
78 0.003035
86 0.003055
102 0.003025
116 0.00296
128 0.003055
135 0.001997
138 0.00204
144 0.002999
149 0.001996
139 0.002039
90 0.002046
57 0.002032
44 0.002029
48 0.002037
61 0.002061
68 0.002993
75 0.002002
77 0.001999
73 0.002055
68 0.002044
69 0.002036
85 0.00201
98 0.001996
110 0.00204
120 0.00206
126 0.001995
129 0.002027
133 0.001031
141 0.002007
149 0.002038
143 0.002046
85 0.001996
57 0.001961
54 0.001992
64 0.002014
75 0.000998
84 0.002066
90 0.002041
87 0.002034
78 0.002042
76 0.001993
83 0.001993
95 0.001998
109 0.001946
124 0.002037
131 0.00204
134 0.002029
138 0.000954
144 0.001916
152 0.001995
154 0.000998
109 0.002034
80 0.000993
70 0.000999
75 0.000985
86 0.002044
103 0.000998
117 0.000997
111 0.000961
100 0.000997
96 0.000998
100 0.0
112 0.0
130 0.0
140 0.0
145 0.0
146 0.0
146 0.0
153 0.000987
160 0.000998
140 0.000997
99 0.000966
73 0.000998
67 0.0
74 0.0
87 0.0
95 0.0
101 0.0
100 0.0
96 0.0
92 0.0
100 0.0
114 0.000969
127 0.001
139 0.000998
147 0.000998
153 0.0
157 0.000998
162 0.000998
171 0.0
182 0.0
183 0.0
93 0.0
73 0.00096
74 0.0
84 0.002027
94 0.0
100 0.000951
104 0.000995
103 0.0
99 0.002045
97 0.002047
104 0.0
113 0.001007
132 0.0
141 0.000997
146 0.000997
150 0.001996
151 0.001998
155 0.0
160 0.0
167 0.000989
178 0.002005
191 0.003041
202 0.0
163 0.0
84 0.0
73 0.0
79 0.0
91 0.001965
100 0.002039
110 0.0
111 0.0
103 0.0
98 0.002037
97 0.002028
106 0.0
118 0.0
139 0.000988
147 0.0
149 0.0
150 0.002031
151 0.003005
157 0.0
165 0.0
177 0.0
188 0.002992
184 0.002038
115 0.0
82 0.0
78 0.0
90 0.0
101 0.0
108 0.002026
115 0.00202
111 0.0
105 0.0
103 0.0
109 0.002029
119 0.002049
137 0.001001
150 0.001023
162 0.0
165 0.0
166 0.0
169 0.003076
174 0.003027
186 0.0
199 0.0
211 0.0
189 0.002028
124 0.002027
87 0.002033
78 0.000867
92 0.002994
105 0.0
113 0.000964
118 0.0
115 0.002992
108 0.002997
107 0.002989
113 0.002045
125 0.001972
138 0.003061
152 0.003023
165 0.002044
171 0.003077
173 0.001999
177 0.001993
182 0.001998
190 0.002962
201 0.003024
219 0.00296
229 0.002989
196 0.001989
124 0.003042
88 0.002993
84 0.002037
101 0.003021
119 0.002028
131 0.002993
135 0.001993
126 0.00405
116 0.004025
114 0.002066
121 0.002042
135 0.001982
153 0.00399
169 0.003053
183 0.001997
189 0.00399
190 0.001979
191 0.001998
196 0.002002
205 0.003989
216 0.002992
154 0.002004
223 0.002013
151 0.001992
99 0.003989
84 0.003989
101 0.004022
119 0.003988
145 0.002002
158 0.003002
149 0.003053
130 0.004035
119 0.003986
123 0.002038
140 0.00196
160 0.001941
178 0.004988
193 0.005023
204 0.003958
207 0.004022
209 0.001993
213 0.001992
222 0.001991
231 0.002
154 0.004023
169 0.003989
87 0.001993
73 0.001992
80 0.001995
96 0.005062
124 0.003032
140 0.004975
143 0.00498
123 0.003
112 0.001993
114 0.002004
126 0.005017
145 0.00402
173 0.002944
189 0.002984
198 0.003001
204 0.005036
207 0.002988
212 0.004996
219 0.006033
225 0.003004
183 0.00301
106 0.003979
74 0.006029
72 0.005984
92 0.00301
111 0.003996
133 0.003041
150 0.005984
129 0.002998
107 0.005981
100 0.005979
115 0.003005
134 0.003023
155 0.002992
172 0.005037
182 0.005022
192 0.003
198 0.003005
200 0.002994
178 0.005984
77 0.003992
59 0.005988
63 0.006022
85 0.003985
105 0.004001
127 0.003974
139 0.006018
128 0.005974
100 0.003037
94 0.00302
103 0.002994
120 0.006014
153 0.003975
168 0.005979
178 0.005987
189 0.00399
194 0.002986
194 0.003979
146 0.005984
79 0.006981
49 0.004999
54 0.004
70 0.003957
88 0.003963
117 0.003997
118 0.003996
101 0.00597
86 0.005983
85 0.003979
98 0.003968
116 0.003987
135 0.00598
150 0.006014
162 0.004989
167 0.005
173 0.004994
172 0.004983
122 0.004015
70 0.00698
50 0.00697
56 0.004005
72 0.003977
89 0.004981
107 0.007978
113 0.007995
95 0.004955
78 0.004942
80 0.00499
94 0.004956
112 0.005954
132 0.007956
143 0.007978
150 0.005985
154 0.005985
155 0.004987
125 0.007021
74 0.007044
40 0.005
41 0.004996
62 0.004992
77 0.004956
90 0.004931
92 0.007978
81 0.007977
69 0.004985
70 0.00499
81 0.004973
95 0.007023
115 0.007993
127 0.004988
134 0.005989
143 0.005994
147 0.005968
132 0.005986
82 0.007974
40 0.007963
34 0.00498
42 0.00499
54 0.00502
67 0.00702
75 0.00698
72 0.006012
66 0.005989
62 0.005026
70 0.005994
81 0.005988
95 0.006008
108 0.007987
117 0.007948
121 0.00596
123 0.006043
128 0.005013
139 0.007014
145 0.006973
116 0.006979
49 0.007013
37 0.005987
43 0.005988
58 0.006949
67 0.00695
76 0.006996
76 0.005954
70 0.005985
66 0.005976
70 0.006023
79 0.007024
92 0.006965
112 0.007012
122 0.006969
125 0.006988
127 0.006987
129 0.007028
134 0.006017
144 0.006034
153 0.006019
167 0.006986
182 0.00698
149 0.006008
77 0.005933
54 0.006018
64 0.005986
78 0.006008
89 0.006977
99 0.006978
101 0.007015
91 0.006965
80 0.005941
81 0.006961
92 0.006021
106 0.006043
124 0.005992
134 0.006019
136 0.005985
136 0.005984
138 0.005984
142 0.006015
148 0.005985
160 0.00619
174 0.005959
187 0.005992
194 0.005939
154 0.005971
81 0.006992
60 0.00606
71 0.006017
85 0.005999
97 0.006008
107 0.005988
107 0.006018
94 0.005995
89 0.005982
92 0.005935
102 0.006024
116 0.004982
132 0.004919
149 0.004928
153 0.004987
155 0.004933
157 0.004956
161 0.004922
167 0.005017
176 0.004989
193 0.004986
207 0.004985
215 0.004986
172 0.004993
74 0.005016
59 0.004949
63 0.004986
81 0.004968
89 0.005114
95 0.004035
98 0.004027
93 0.00399
86 0.004998
88 0.004007
96 0.004986
108 0.004989
133 0.004987
143 0.004982
150 0.005027
153 0.004987
155 0.004986
160 0.005046
166 0.005024
175 0.005022
190 0.004991
203 0.005035
217 0.003991
228 0.004024
140 0.004024
83 0.004025
64 0.00396
72 0.003998
86 0.003995
97 0.003957
108 0.004003
113 0.004071
104 0.005024
97 0.005043
96 0.00399
103 0.003991
129 0.003991
147 0.002993
162 0.003002
174 0.003977
178 0.00401
181 0.002992
184 0.002992
190 0.003988
202 0.003031
213 0.003017
226 0.003044
240 0.002992
251 0.003029
191 0.003991
107 0.003991
75 0.003979
79 0.003992
96 0.003958
114 0.004
130 0.004001
143 0.003964
133 0.002994
114 0.00396
105 0.003036
118 0.003059
138 0.002992
159 0.002938
176 0.002993
190 0.003064
192 0.002995
191 0.002992
192 0.002995
196 0.002993
209 0.003037
220 0.002986
229 0.004
148 0.002998
89 0.003027
72 0.003062
78 0.002994
101 0.002031
122 0.002043
144 0.001958
151 0.003045
134 0.00295
108 0.003039
107 0.003026
118 0.002039
152 0.003047
172 0.00302
186 0.002974
195 0.002992
197 0.003033
199 0.003037
201 0.00301
209 0.002057
218 0.001996
205 0.002045
123 0.002002
68 0.002001
54 0.001999
65 0.002025
79 0.002034
90 0.002035
100 0.001949
95 0.001972
86 0.001996
80 0.001996
82 0.00205
98 0.002042
115 0.001996
140 0.002053
149 0.002024
153 0.002037
153 0.002026
156 0.001067
167 0.001995
177 0.001995
175 0.000999
122 0.000998
71 0.001027
50 0.000997
54 0.001996
72 0.002037
87 0.00203
97 0.002038
94 0.002029
85 0.001983
79 0.001996
84 0.001055
96 0.001028
111 0.00202
126 0.002044
139 0.002043
145 0.002014
147 0.000988
152 0.00199
161 0.002027
171 0.002025
174 0.0
132 0.001968
74 0.000997
61 0.000998
68 0.000997
82 0.001019
96 0.001016
113 0.001005
115 0.000997
100 0.002027
94 0.000997
98 0.000999
110 0.000972
125 0.000997
143 0.0
152 0.001004
156 0.0
157 0.0
159 0.0
168 0.0
175 0.0
142 0.0
102 0.0
83 0.0
84 0.0
97 0.0
117 0.0
133 0.0
141 0.0
132 0.000999
115 0.0
109 0.0
121 0.0
141 0.0
154 0.0
164 0.0
167 0.0
167 0.0
171 0.0
175 0.0
169 0.000997
144 0.0
95 0.0
82 0.000947
95 0.00095
108 0.0
118 0.003001
128 0.003035
123 0.000965
113 0.0
109 0.0
113 0.003018
122 0.003026
140 0.0
151 0.0
157 0.0
160 0.0
160 0.0
162 0.003027
168 0.003027
179 0.0
180 0.000989
140 0.002025
96 0.002029
76 0.002055
80 0.000987
91 0.001014
99 0.000931
107 0.0
107 0.000962
103 0.002027
99 0.003068
102 0.001006
110 0.0
120 0.0
131 0.003028
139 0.003975
144 0.0
144 0.001003
145 0.0
148 0.0
155 0.0
164 0.002032
175 0.001996
180 0.001003
136 0.0
92 0.001013
74 0.002
76 0.003044
91 0.0
99 0.0
107 0.0
107 0.0
101 0.0
98 0.002064
99 0.002029
109 0.0
119 0.0
129 0.001001
137 0.002027
141 0.001978
143 0.0
144 0.0
151 0.001014
156 0.000965
163 0.0
171 0.002999
181 0.002997
197 0.0
205 0.0
174 0.0
112 0.0
80 0.003037
75 0.003037
88 0.0
101 0.002027
105 0.0
108 0.0
106 0.0
102 0.002032
100 0.003024
105 0.001019
115 0.0
125 0.00096
135 0.003036
141 0.00399
143 0.0
145 0.004033
148 0.0
153 0.002025
160 0.0
167 0.004033
173 0.004058
184 0.002988
194 0.002992
203 0.002992
203 0.003041
153 0.003024
97 0.002989
90 0.003017
104 0.002987
117 0.002999
125 0.0
131 0.003062
130 0.003045
122 0.002988
118 0.000997
121 0.002991
130 0.004034
141 0.003989
157 0.001975
168 0.004005
172 0.001966
173 0.001996
173 0.001998
176 0.003025
181 0.004027
191 0.001993
200 0.002008
213 0.00296
224 0.003006
228 0.003987
157 0.001987
110 0.00402
109 0.002975
121 0.002992
134 0.002002
141 0.004018
148 0.004022
146 0.002996
138 0.001967
133 0.001997
134 0.004987
141 0.004986
152 0.005021
170 0.004986
177 0.004982
180 0.001999
180 0.00198
180 0.002005
183 0.003997
188 0.003988
199 0.002989
211 0.003017
215 0.002984
181 0.005038
136 0.004987
117 0.004986
124 0.004985
140 0.001993
147 0.002994
154 0.002031
156 0.005015
149 0.004988
143 0.00199
144 0.001994
151 0.001975
160 0.005037
176 0.00399
183 0.00502
187 0.004993
188 0.002957
189 0.00303
192 0.003036
195 0.004957
201 0.004992
213 0.002034
220 0.002988
206 0.002001
155 0.004987
116 0.003007
119 0.005995
129 0.005986
139 0.003003
144 0.002998
146 0.003018
143 0.005986
138 0.005972
134 0.002993
137 0.002998
144 0.003981
152 0.005024
164 0.00296
167 0.004978
168 0.005958
168 0.003995
169 0.002958
171 0.003989
176 0.005966
183 0.005982
190 0.002996
179 0.003008
140 0.002984
115 0.006982
111 0.002987
120 0.007022
127 0.006983
134 0.004026
136 0.003985
133 0.003987
129 0.003988
127 0.006986
129 0.006988
137 0.003992
145 0.003979
151 0.004
156 0.004002
156 0.003987
157 0.005988
158 0.00698
162 0.004986
168 0.004986
175 0.004985
179 0.006978
163 0.006979
122 0.00398
107 0.003973
108 0.004004
123 0.003986
131 0.004002
136 0.006979
137 0.007997
131 0.004968
126 0.005015
127 0.005011
132 0.006968
139 0.006979
149 0.004987
155 0.004985
158 0.003972
158 0.004988
159 0.003991
161 0.007979
167 0.007977
173 0.004979
179 0.00499
168 0.004987
126 0.007977
114 0.006965
111 0.004982
119 0.006022
129 0.00495
142 0.005988
144 0.004987
139 0.007974
129 0.007967
129 0.005009
134 0.004998
142 0.005016
152 0.007949
158 0.00795
159 0.005951
159 0.004981
160 0.004985
162 0.005962
167 0.005953
173 0.006985
170 0.007039
143 0.005954
120 0.00595
112 0.005983
116 0.005984
130 0.006976
148 0.007009
162 0.005998
160 0.007967
137 0.004943
129 0.004992
134 0.004966
147 0.007996
164 0.007978
182 0.005952
190 0.005985
194 0.007025
191 0.006967
191 0.007005
196 0.006934
208 0.007006
214 0.006019
173 0.005971
113 0.005983
80 0.007009
84 0.007011
101 0.005967
120 0.00698
126 0.00698
136 0.00703
129 0.006982
113 0.006965
112 0.007021
122 0.006973
143 0.006973
152 0.006966
164 0.006965
168 0.006947
168 0.006979
170 0.005953
175 0.005956
181 0.006028
174 0.006019
112 0.005993
74 0.005987
77 0.005984
91 0.00599
105 0.005984
119 0.007026
127 0.006979
121 0.006026
106 0.006981
97 0.006978
105 0.006988
118 0.006025
139 0.00602
152 0.005985
159 0.005959
160 0.005947
162 0.005974
168 0.005981
172 0.006036
132 0.00599
77 0.005984
49 0.005983
48 0.006027
61 0.007025
82 0.00599
94 0.005021
97 0.004923
85 0.005991
77 0.005001
77 0.006004
84 0.006025
98 0.005979
119 0.005969
128 0.005987
134 0.005987
136 0.005023
138 0.004989
148 0.005034
153 0.004987
105 0.004968
57 0.005003
34 0.004985
36 0.005038
50 0.004993
68 0.004989
77 0.004996
82 0.004997
76 0.004989
67 0.004989
65 0.004991
74 0.005019
93 0.004991
106 0.004997
114 0.004978
116 0.005018
118 0.005021
119 0.004955
123 0.004986
129 0.004987
131 0.005025
97 0.004985
30 0.004957
18 0.005003
30 0.004986
41 0.005038
49 0.004999
59 0.005015
57 0.004985
47 0.004028
48 0.00406
56 0.004072
67 0.003991
79 0.003993
92 0.004001
93 0.004024
99 0.003977
105 0.003968
112 0.003982
121 0.004025
133 0.004027
140 0.004027
101 0.003989
47 0.003993
16 0.003026
23 0.00404
37 0.004026
46 0.003948
54 0.003995
54 0.003958
48 0.004035
44 0.00402
47 0.003998
56 0.003993
75 0.00399
88 0.003997
98 0.00399
109 0.003035
113 0.003028
120 0.002992
128 0.002994
143 0.003002
149 0.003023
110 0.003996
56 0.003024
26 0.003991
27 0.00399
40 0.004004
51 0.004003
65 0.004022
67 0.003271
60 0.002992
53 0.00303
58 0.002999
70 0.003055
85 0.003034
97 0.003028
107 0.002995
113 0.003033
117 0.003076
124 0.003013
135 0.001996
120 0.001945
75 0.001996
40 0.002994
33 0.002046
45 0.001955
59 0.001963
71 0.002993
81 0.002027
80 0.001976
73 0.003023
71 0.002002
84 0.002034
98 0.002018
112 0.002035
124 0.002993
135 0.003027
137 0.003019
140 0.002028
146 0.001995
156 0.001995
163 0.002039
129 0.001995
75 0.001965
39 0.001996
49 0.002025
63 0.002025
71 0.001988
82 0.002027
85 0.002026
79 0.002027
74 0.001996
74 0.001027
88 0.001003
102 0.001057
115 0.001045
129 0.000998
132 0.001023
135 0.000998
141 0.000997
148 0.002027
162 0.001981
163 0.001991
120 0.002027
73 0.000994
55 0.001994
65 0.000986
79 0.000998
97 0.000997
107 0.000998
106 0.000997
99 0.002031
95 0.002026
104 0.002033
116 0.002024
130 0.0
143 0.001996
153 0.000998
161 0.000998
164 0.000997
170 0.001038
175 0.001003
183 0.000965
195 0.000997
211 0.000998
224 0.00099
168 0.000949
99 0.000998
70 0.000997
74 0.000998
95 0.000996
111 0.00113
121 0.0
124 0.001
117 0.001057
111 0.0
115 0.0
127 0.0
143 0.0
160 0.0
174 0.0
180 0.0
183 0.0
184 0.000987
190 0.0
196 0.0
207 0.0
218 0.0
232 0.001014
254 0.0
255 0.0
219 0.000996
132 0.000968
86 0.0
93 0.0
118 0.0
140 0.000998
153 0.0
156 0.000996
139 0.0
130 0.0
130 0.0
141 0.003021
159 0.00203
177 0.0
195 0.0
204 0.0
206 0.000962
205 0.0
207 0.002027
214 0.002029
185 0.001032
247 0.0
255 0.000963
224 0.002031
143 0.003041
100 0.001046
105 0.0
121 0.0
150 0.0
162 0.0
167 0.003025
159 0.002993
144 0.0
144 0.0
154 0.0
168 0.002998
186 0.002993
207 0.001005
214 0.0
215 0.0
212 0.0
215 0.0
221 0.002979
232 0.003026
184 0.0
164 0.0
133 0.0
119 0.002049
119 0.002037
130 0.0
138 0.001001
146 0.0
149 0.001019
140 0.0
134 0.003026
133 0.002995
141 0.0
149 0.0
156 0.0
162 0.002976
165 0.002986
166 0.0
166 0.0
169 0.00094
171 0.001015
153 0.001015
128 0.001956
116 0.00203
118 0.001003
125 0.001035
132 0.0
138 0.003022
142 0.003024
139 0.003008
130 0.0
127 0.000949
134 0.0
141 0.000955
147 0.0
152 0.002991
154 0.002992
154 0.001002
156 0.00101
158 0.0
159 0.001993
145 0.002002
116 0.001
106 0.002995
112 0.0
119 0.0
124 0.0
129 0.002962
128 0.002993
119 0.0
116 0.0
117 0.0
122 0.003923
129 0.003027
136 0.003005
140 0.003026
140 0.003006
141 0.002995
143 0.003006
144 0.002994
133 0.002998
105 0.0
96 0.002991
75 0.001966
85 0.003051
95 0.002996
106 0.003038
108 0.002962
96 0.001992
92 0.002991
94 0.002029
103 0.002996
113 0.003988
125 0.002995
131 0.002035
134 0.002032
135 0.003985
138 0.004039
145 0.001994
153 0.00399
126 0.002013
86 0.001994
65 0.001972
63 0.004029
71 0.004037
85 0.001985
93 0.001991
98 0.001999
92 0.003038
83 0.004995
77 0.002994
86 0.004021
98 0.004022
112 0.002989
118 0.003959
120 0.002025
122 0.004022
126 0.004048
131 0.002992
129 0.002023
102 0.001993
72 0.005051
57 0.00499
66 0.00399
76 0.004039
91 0.001992
98 0.001984
92 0.003037
81 0.005018
76 0.004987
83 0.002992
95 0.002993
106 0.002982
116 0.005019
121 0.004984
123 0.005017
125 0.004957
132 0.002996
137 0.002988
132 0.001988
95 0.004992
58 0.003991
40 0.002995
46 0.002012
55 0.00199
60 0.004985
65 0.004984
67 0.004988
63 0.004983
62 0.002995
68 0.002985
77 0.002985
87 0.005968
96 0.005983
104 0.002999
106 0.002997
109 0.002991
111 0.004939
118 0.004989
132 0.005031
138 0.005031
98 0.003029
58 0.002989
39 0.002995
38 0.005983
47 0.005992
56 0.003971
61 0.003999
64 0.002962
64 0.005994
61 0.005982
64 0.005984
72 0.005984
88 0.003017
99 0.002991
106 0.003993
111 0.003982
115 0.006959
117 0.006975
124 0.003991
131 0.003992
139 0.003984
152 0.003961
160 0.004056
169 0.005984
178 0.005989
192 0.003987
193 0.002994
138 0.002992
83 0.006981
59 0.005986
61 0.003982
72 0.003993
83 0.003989
92 0.003984
91 0.003971
83 0.006982
77 0.00698
79 0.004995
88 0.004983
102 0.003987
115 0.006939
122 0.00696
127 0.005982
128 0.004952
128 0.003991
136 0.005021
144 0.003971
157 0.007977
165 0.006995
182 0.003992
192 0.003998
183 0.004938
127 0.007941
80 0.007975
61 0.004982
70 0.004951
82 0.004952
94 0.00494
101 0.004938
99 0.007979
92 0.007989
90 0.00599
96 0.005059
108 0.005022
121 0.00703
133 0.006989
146 0.004987
149 0.004985
152 0.005959
158 0.004939
165 0.004973
174 0.007029
186 0.007929
206 0.005974
222 0.004981
223 0.003956
136 0.007979
87 0.007955
71 0.004972
76 0.004984
89 0.004954
103 0.004961
110 0.005954
109 0.005981
99 0.007505
95 0.008021
98 0.004994
108 0.004983
124 0.004986
137 0.007978
148 0.007948
153 0.004956
154 0.005953
157 0.006974
164 0.005953
171 0.00598
188 0.006974
201 0.007964
211 0.00602
189 0.005967
130 0.004974
88 0.006972
86 0.006018
105 0.006972
116 0.005984
144 0.006969
146 0.006979
135 0.006014
118 0.006985
118 0.006964
128 0.005982
151 0.006017
168 0.006797
182 0.006978
189 0.006957
192 0.005949
192 0.006014
195 0.005938
202 0.005989
210 0.005998
229 0.006981
237 0.006014
161 0.005984
99 0.005984
73 0.005984
75 0.005985
86 0.005983
99 0.005984
108 0.005989
110 0.005958
103 0.00599
96 0.006028
96 0.006982
104 0.006019
122 0.005981
136 0.005984
147 0.005967
154 0.006016
156 0.006019
156 0.005962
162 0.00602
173 0.005967
186 0.005983
200 0.005969
202 0.006015
148 0.006016
93 0.005986
65 0.006073
72 0.005016
86 0.00494
98 0.004947
108 0.004987
111 0.005007
101 0.00602
92 0.005939
96 0.005044
107 0.004988
123 0.005019
136 0.005019
148 0.004989
151 0.004975
149 0.006002
147 0.005951
152 0.005899
169 0.005986
183 0.006003
195 0.004943
164 0.004996
108 0.004986
76 0.005021
72 0.004983
89 0.004996
104 0.004975
121 0.004987
132 0.005213
122 0.004991
96 0.004989
97 0.003953
110 0.004014
128 0.004017
145 0.003959
156 0.004991
160 0.005019
160 0.004982
158 0.004956
160 0.004986
167 0.005019
180 0.004989
199 0.005025
168 0.004987
87 0.00399
59 0.004006
56 0.003989
66 0.003999
79 0.004006
92 0.004012
98 0.004014
92 0.00395
83 0.003991
77 0.003991
89 0.004988
101 0.004982
121 0.004033
131 0.004002
135 0.003989
137 0.004022
136 0.004032
139 0.003957
148 0.003982
161 0.003976
174 0.004024
177 0.00399
90 0.004061
52 0.004027
42 0.003023
53 0.002993
64 0.002959
72 0.002967
80 0.003028
79 0.00305
70 0.002989
67 0.002962
71 0.002988
82 0.003023
105 0.003053
118 0.004055
126 0.003939
128 0.003991
129 0.002992
131 0.002961
137 0.003989
147 0.003987
167 0.003991
179 0.004001
159 0.004041
99 0.002989
46 0.003033
48 0.002984
61 0.003026
77 0.002992
88 0.003024
91 0.002974
83 0.002985
72 0.002992
69 0.003022
79 0.003024
94 0.001956
117 0.001983
125 0.001982
128 0.002993
127 0.002993
129 0.002961
137 0.001964
148 0.002036
160 0.002992
171 0.002996
146 0.003012
94 0.003003
63 0.002993
62 0.002033
77 0.002043
91 0.001981
107 0.002024
110 0.002026
96 0.002028
85 0.002002
85 0.002015
97 0.001995
119 0.002007
135 0.002025
148 0.002011
154 0.001983
154 0.001994
155 0.002027
160 0.002037
175 0.001997
187 0.001995
193 0.003038
146 0.002026
86 0.000999
48 0.001968
51 0.001994
62 0.001965
76 0.002026
84 0.002027
83 0.002039
77 0.002039
72 0.002033
75 0.002026
86 0.002025
102 0.002026
115 0.001967
127 0.001023
136 0.001041
137 0.002017
141 0.002017
147 0.002007
161 0.002009
176 0.00204
191 0.00204
167 0.00203
104 0.001988
64 0.001998
54 0.000997
63 0.001996
82 0.000999
93 0.001008
108 0.001997
103 0.002035
91 0.002038
87 0.002046
94 0.001993
115 0.001992
135 0.000997
152 0.002026
160 0.000999
163 0.000997
163 0.000998
169 0.0
192 0.0
208 0.000998
218 0.000997
177 0.001043
118 0.000998
86 0.000958
89 0.000999
103 0.001001
123 0.000997
151 0.0
167 0.0
146 0.0
114 0.0
119 0.0
134 0.0
156 0.0
177 0.0
193 0.0
197 0.0
198 0.0
201 0.0
206 0.0
209 0.0
170 0.000997
83 0.0
67 0.0
74 0.0
87 0.0
101 0.0
