74 0.001994
83 0.000997
84 0.000997
94 0.001997
80 0.002993
0 0.00399
63 0.004989
70 0.005984
75 0.006981
78 0.005984
84 0.004987
91 0.003988
90 0.003988
90 0.004026
90 0.003031
93 0.001996
96 0.000998
103 0.0
86 0.001993
61 0.002992
63 0.00399
71 0.003991
74 0.004995
75 0.004988
83 0.004987
87 0.006982
87 0.006927
90 0.006013
94 0.007004
101 0.005999
106 0.006001
112 0.005023
115 0.005025
90 0.005026
66 0.004942
70 0.004988
80 0.004022
82 0.003965
82 0.002988
88 0.002029
91 0.003026
95 0.002047
99 0.00303
105 0.002026
108 0.001022
114 0.001016
116 0.000999
120 0.000999
102 0.000997
70 0.000997
74 0.0
84 0.000999
86 0.001996
88 0.002992
92 0.002992
93 0.003991
59 0.005984
70 0.006983
73 0.007979
85 0.005984
99 0.003988
103 0.003038
110 0.002995
114 0.002026
45 0.0
9 0.001015
28 0.002025
39 0.002994
42 0.003036
50 0.002992
57 0.002992
59 0.002993
64 0.002994
74 0.004018
87 0.003027
95 0.00399
105 0.00598
107 0.007938
110 0.007978
118 0.006025
60 0.004022
15 0.004017
25 0.003998
44 0.004012
47 0.003992
52 0.00397
56 0.002992
58 0.001995
63 0.002029
68 0.002
80 0.001994
93 0.001995
102 0.001995
111 0.001015
116 0.000991
124 0.000999
121 0.0
36 0.0
16 0.0
44 0.0
58 0.0
62 0.000997
67 0.000997
72 0.001994
70 0.002992
73 0.002991
86 0.003989
102 0.003989
112 0.003989
120 0.00399
124 0.00399
128 0.00399
63 0.003991
20 0.003989
34 0.00399
52 0.005984
54 0.005985
60 0.006981
65 0.006982
66 0.007978
67 0.00698
76 0.006981
87 0.005983
99 0.004032
103 0.004031
110 0.003994
113 0.004026
83 0.004024
7 0.004032
11 0.003989
31 0.004019
38 0.004019
44 0.002991
52 0.004022
54 0.002992
57 0.00303
69 0.003029
77 0.001992
90 0.001994
99 0.001995
104 0.001995
111 0.001995
110 0.001996
10 0.000995
2 0.000997
16 0.000997
28 0.000997
30 0.0
34 0.000997
41 0.001
43 0.000997
49 0.000998
61 0.000999
70 0.000997
84 0.000999
93 0.001995
97 0.003991
104 0.005984
54 0.006982
9 0.007978
0 0.007989
10 0.007955
15 0.007977
21 0.007981
26 0.007006
31 0.006025
35 0.005017
39 0.00599
50 0.004987
66 0.005015
74 0.004985
88 0.00299
89 0.00399
98 0.002993
21 0.002972
54 0.003019
60 0.003029
68 0.003978
71 0.002972
74 0.000999
78 0.000948
78 0.000999
81 0.002947
86 0.003952
92 0.003963
99 0.005954
104 0.006984
107 0.006958
111 0.006974
107 0.006014
61 0.006018
54 0.006017
66 0.003033
70 0.003029
73 0.002002
77 0.000996
76 0.000967
76 0.00099
78 0.000977
88 0.000988
93 0.0
97 0.000949
102 0.001
96 0.002939
59 0.003947
46 0.002988
52 0.002957
59 0.00399
60 0.004997
64 0.004932
64 0.004976
64 0.004974
66 0.004995
74 0.006917
82 0.006963
86 0.006987
92 0.006983
93 0.006973
52 0.006026
35 0.005978
39 0.005983
47 0.003994
48 0.004965
51 0.004973
55 0.003991
55 0.003993
20 0.00402
31 0.00503
42 0.003983
51 0.00502
60 0.00497
67 0.003995
36 0.00395
51 0.003937
46 0.004007
53 0.002949
54 0.004013
55 0.003034
58 0.004046
59 0.003036
61 0.002976
63 0.001993
71 0.00199
78 0.0
81 0.0
86 0.0
92 0.001034
75 0.000949
41 0.000998
42 0.000994
49 0.000987
50 0.001961
51 0.00196
53 0.003981
49 0.003935
38 0.003987
28 0.00399
27 0.003954
32 0.003968
51 0.003992
62 0.00399
76 0.005993
66 0.007004
40 0.006955
40 0.006981
47 0.006941
52 0.006978
54 0.006947
57 0.00695
60 0.006982
61 0.00696
68 0.00794
73 0.007971
81 0.007978
86 0.006029
92 0.005993
94 0.005999
99 0.005991
92 0.005996
52 0.005995
56 0.004992
62 0.00592
66 0.005002
23 0.004935
29 0.004044
32 0.004023
34 0.003989
45 0.003996
60 0.00402
67 0.003988
80 0.003982
86 0.004001
97 0.003927
87 0.003985
35 0.003988
24 0.002959
42 0.001961
48 0.000997
51 0.0
60 0.001991
61 0.003994
72 0.002952
81 0.004962
94 0.005954
102 0.005988
107 0.005978
112 0.006948
74 0.006916
27 0.006994
39 0.005996
49 0.006021
56 0.003988
61 0.004016
64 0.003992
63 0.001023
70 0.001952
78 0.0
89 0.000993
99 0.000953
105 0.001004
111 0.000954
73 0.000952
29 0.000962
43 0.0
51 0.0
55 0.0
61 0.000964
64 0.001953
65 0.001996
67 0.002002
78 0.001954
89 0.002992
95 0.002951
97 0.002955
96 0.003978
29 0.004991
59 0.004979
65 0.00495
75 0.004992
76 0.005988
80 0.005973
82 0.005992
83 0.005929
84 0.004969
92 0.004979
101 0.004989
105 0.002992
112 0.002965
118 0.001994
109 0.002932
61 0.002001
64 0.000958
69 0.000967
72 0.0
72 0.0
77 0.0
80 0.0
81 0.0
86 0.000965
94 0.001956
100 0.002004
106 0.002944
112 0.003984
114 0.003989
64 0.005011
54 0.005023
64 0.004984
70 0.004989
70 0.005983
73 0.005944
74 0.006005
74 0.00598
77 0.005996
81 0.005975
90 0.00696
99 0.00694
103 0.007972
106 0.006984
99 0.00699
45 0.00701
38 0.007022
46 0.004979
55 0.003961
57 0.003937
63 0.003027
66 0.002986
34 0.002983
40 0.002982
56 0.001001
69 0.0
77 0.0
85 0.000959
98 0.000997
89 0.001976
15 0.002958
14 0.002989
34 0.004987
42 0.00497
43 0.004975
52 0.004979
54 0.004983
57 0.004997
69 0.006015
71 0.007011
74 0.007008
83 0.006947
92 0.006028
99 0.006983
36 0.004994
20 0.004005
35 0.003994
47 0.004923
50 0.003991
58 0.003984
57 0.002965
58 0.004033
68 0.00207
75 0.002937
86 0.001981
96 0.002046
101 0.002005
102 0.002008
55 0.002007
23 0.002029
39 0.000991
46 0.0
46 0.000997
54 0.0
55 0.0
56 0.001996
63 0.001996
71 0.001996
84 0.001996
86 0.012965
94 0.0
72 0.0
0 0.006022
1 0.006981
12 0.006983
13 0.006984
21 0.007008
25 0.007008
27 0.006977
30 0.006977
43 0.00696
60 0.006975
69 0.006984
80 0.007969
87 0.007977
96 0.006981
24 0.007007
51 0.006969
54 0.00701
60 0.007021
62 0.006987
65 0.007969
68 0.007024
69 0.006023
72 0.004988
75 0.004987
84 0.004987
90 0.005026
99 0.004987
104 0.004036
108 0.005015
109 0.004036
64 0.003034
49 0.000998
58 0.000999
65 0.000998
64 0.000998
69 0.000995
73 0.000998
74 0.000998
79 0.000997
84 0.000998
93 0.000998
102 0.001994
106 0.001995
111 0.002046
114 0.001994
118 0.001995
74 0.001996
57 0.001995
66 0.00203
76 0.003963
75 0.004969
79 0.005998
82 0.007038
84 0.006982
87 0.006013
96 0.004996
102 0.004009
110 0.004025
117 0.002057
121 0.002029
128 0.002046
129 0.002037
86 0.002036
68 0.002036
78 0.001009
60 0.000998
64 0.0
68 0.0
73 0.001995
75 0.003989
81 0.00402
93 0.005953
108 0.007026
116 0.007008
129 0.006996
135 0.006992
146 0.006971
101 0.006997
54 0.006984
58 0.006975
79 0.00701
86 0.007026
89 0.006037
95 0.005027
95 0.005028
96 0.005021
104 0.003009
115 0.003023
128 0.002993
135 0.00303
144 0.002992
144 0.000999
87 0.002023
52 0.0
69 0.002957
81 0.002965
88 0.002993
97 0.002958
97 0.002994
95 0.002954
99 0.003985
111 0.005036
125 0.005973
133 0.005968
144 0.006967
142 0.006025
86 0.005982
49 0.005965
65 0.005034
78 0.004016
81 0.00399
88 0.003025
91 0.003017
91 0.001994
96 0.000997
108 0.001011
120 0.0
127 0.0
137 0.0
137 0.002963
53 0.004016
44 0.00399
60 0.00399
68 0.003984
71 0.004982
81 0.004968
84 0.005023
87 0.004985
92 0.004988
104 0.005017
119 0.006984
126 0.006972
137 0.006941
142 0.0
43 0.004986
59 0.005982
66 0.007993
66 0.007969
74 0.007978
79 0.006022
80 0.006023
88 0.005036
95 0.006021
106 0.005013
119 0.00204
125 0.001042
133 0.000965
53 0.000981
28 0.001042
40 0.000998
50 0.002036
50 0.000997
54 0.002042
56 0.001028
56 0.000997
62 0.000998
68 0.001027
83 0.00099
89 0.000965
101 0.000997
109 0.0
113 0.000963
56 0.000998
16 0.001995
27 0.001997
43 0.002019
45 0.001992
50 0.001996
56 0.00199
56 0.00199
63 0.002027
76 0.002993
85 0.004029
97 0.00499
104 0.004995
115 0.004987
112 0.006992
57 0.006999
23 0.006963
38 0.006997
52 0.006993
54 0.006992
58 0.007944
61 0.006982
62 0.006981
65 0.006983
78 0.005996
92 0.003954
99 0.004987
110 0.00303
120 0.002036
76 0.00202
27 0.002029
43 0.000957
53 0.0
57 0.0
63 0.001967
63 0.002958
61 0.002946
66 0.002956
80 0.002989
94 0.002935
101 0.002988
111 0.002992
115 0.003946
53 0.003959
18 0.00399
27 0.004027
41 0.004016
43 0.003972
46 0.003958
51 0.005985
49 0.005989
53 0.005969
67 0.006012
75 0.007007
84 0.006971
97 0.006959
101 0.00698
27 0.007015
3 0.007011
12 0.006971
22 0.006982
20 0.006985
24 0.006985
27 0.006982
27 0.00597
31 0.006017
38 0.005984
52 0.003991
65 0.003006
71 0.003988
81 0.002996
81 0.003036
27 0.002991
0 0.002992
0 0.002028
1 0.002032
0 0.002006
0 0.001997
5 0.001994
6 0.003017
11 0.002011
22 0.002999
35 0.001993
46 0.002987
58 0.002985
64 0.001998
76 0.001984
58 0.000999
0 0.001011
0 0.0
0 0.000987
0 0.000985
0 0.000991
3 0.001002
9 0.001015
11 0.001966
22 0.001984
37 0.001983
47 0.002
61 0.001972
72 0.001932
78 0.001956
91 0.002955
53 0.005
5 0.005985
61 0.00697
68 0.006933
71 0.000996
78 0.002983
81 0.006983
84 0.006982
92 0.006932
97 0.006929
105 0.007016
110 0.007016
113 0.007981
119 0.006016
124 0.004005
101 0.002993
71 0.003008
76 0.003035
86 0.002993
87 0.001986
89 0.001987
93 0.001962
93 0.001992
96 0.00097
101 0.0
109 0.0
113 0.0
118 0.0
121 0.0
126 0.0
112 0.0
80 0.001008
80 0.001012
88 0.000998
92 0.001001
93 0.000975
96 0.001
97 0.000993
99 0.001986
102 0.001975
111 0.001994
115 0.002934
120 0.003937
126 0.003948
129 0.003973
97 0.00399
78 0.003944
84 0.004021
93 0.003951
94 0.003986
63 0.00395
70 0.004983
71 0.004995
75 0.006921
88 0.006979
98 0.006955
114 0.006968
122 0.006968
135 0.006946
146 0.007008
125 0.00798
35 0.005971
41 0.005978
52 0.005023
60 0.004989
58 0.00499
71 0.004996
74 0.00504
76 0.005015
88 0.00403
101 0.003982
115 0.000971
126 0.001997
138 0.0
147 0.0
144 0.000998
60 0.000983
33 0.001013
53 0.000988
62 0.001011
63 0.001
72 0.000965
76 0.000985
80 0.000995
83 0.002006
98 0.001994
114 0.002992
124 0.003951
138 0.003986
149 0.00399
158 0.004965
85 0.005977
37 0.006971
43 0.006975
60 0.007973
69 0.005987
70 0.005002
79 0.004979
83 0.004987
86 0.00499
99 0.003989
110 0.003993
126 0.001991
141 0.000998
148 0.000987
158 0.0
159 0.0
94 0.0
42 0.0
54 0.0
73 0.0
77 0.0
82 0.0
88 0.0
89 0.0
97 0.001003
113 0.00195
123 0.001984
141 0.001997
151 0.002012
159 0.001994
169 0.00195
143 0.001961
59 0.002926
58 0.002993
69 0.012962
79 0.0
88 0.0
98 0.006989
99 0.00697
106 0.006985
115 0.006966
133 0.006949
142 0.006972
155 0.00695
165 0.006998
172 0.006971
94 0.005939
54 0.005981
68 0.004995
88 0.00599
93 0.005029
99 0.003984
101 0.004011
97 0.003983
105 0.002981
120 0.002006
131 0.002973
145 0.001997
154 0.002989
159 0.001975
63 0.001985
46 0.001995
66 0.0
80 0.0
80 0.000944
87 0.0
87 0.002004
86 0.001999
96 0.001953
106 0.001989
122 0.001958
135 0.001957
143 0.002032
147 0.002952
82 0.002947
29 0.002992
41 0.002946
52 0.004991
52 0.004966
57 0.00498
59 0.004962
60 0.004986
63 0.004999
77 0.004992
93 0.004989
102 0.005018
115 0.005982
128 0.006922
113 0.006933
17 0.006981
6 0.006971
18 0.006986
20 0.006945
15 0.006968
22 0.00695
24 0.006952
25 0.006981
35 0.007966
45 0.006983
58 0.006943
72 0.007001
80 0.007018
93 0.006976
93 0.00699
4 0.006945
0 0.005973
0 0.005963
0 0.005
0 0.005994
0 0.00499
4 0.004997
7 0.005017
18 0.004991
35 0.005014
46 0.004986
64 0.004016
72 0.004019
86 0.003965
97 0.004973
43 0.004011
0 0.004988
0 0.003989
8 0.004963
10 0.004
10 0.004981
19 0.00399
20 0.001001
23 0.001029
39 0.001
50 0.001027
64 0.000997
76 0.000952
87 0.000997
54 0.000996
0 0.000998
57 0.000971
65 0.001995
67 0.001027
67 0.001026
71 0.001005
71 0.0
73 0.000997
79 0.00203
85 0.003029
92 0.002991
97 0.002994
103 0.004023
94 0.004018
64 0.006014
50 0.00701
59 0.006987
60 0.006983
58 0.007018
64 0.006983
65 0.006982
66 0.007013
69 0.00701
76 0.004982
85 0.005027
89 0.004986
96 0.004986
102 0.005984
94 0.004988
55 0.005997
45 0.005027
51 0.006012
53 0.005981
50 0.005984
55 0.006022
57 0.004971
58 0.004987
59 0.0
79 0.00302
87 0.002034
90 0.001998
97 0.001964
102 0.001996
82 0.000998
44 0.000999
45 0.00098
53 0.000993
51 0.000992
50 0.0
55 0.0
0 0.0
0 0.0
63 0.000968
69 0.001995
80 0.002993
86 0.001993
92 0.002991
98 0.002992
104 0.002993
109 0.002992
58 0.00395
46 0.004988
55 0.006011
61 0.007015
60 0.007015
64 0.006969
70 0.006987
72 0.00699
77 0.007024
83 0.00698
94 0.006995
103 0.007015
109 0.007016
116 0.006004
122 0.006944
128 0.003959
90 0.004986
65 0.003993
73 0.003989
85 0.003991
86 0.003989
89 0.00399
92 0.003034
93 0.003988
98 0.001994
104 0.003033
113 0.002
122 0.001985
127 0.001997
135 0.000994
119 0.000998
86 0.000997
80 0.000964
88 0.0
96 0.002023
97 0.001993
102 0.0
103 0.001032
103 0.0
108 0.000998
118 0.000965
123 0.001028
134 0.000997
142 0.001964
151 0.001991
119 0.000998
67 0.00399
73 0.004985
88 0.004988
92 0.004988
94 0.004988
101 0.004987
102 0.004987
107 0.004988
119 0.006982
124 0.007978
137 0.004983
149 0.005035
154 0.003974
162 0.003989
137 0.004
86 0.003989
77 0.003989
88 0.003989
98 0.004018
98 0.00304
104 0.003989
109 0.002027
109 0.00305
117 0.001968
130 0.002013
137 0.000992
150 0.0
160 0.000999
167 0.0
159 0.000999
83 0.000997
79 0.002004
95 0.001996
100 0.00204
100 0.00202
108 0.002047
110 0.001991
113 0.001996
117 0.001995
131 0.001995
141 0.004023
152 0.004988
160 0.004986
170 0.005022
174 0.005027
101 0.006982
80 0.006998
91 0.00701
103 0.007009
103 0.007032
108 0.006954
113 0.006993
114 0.007001
119 0.006989
133 0.006021
141 0.005015
155 0.004985
161 0.004978
171 0.004998
175 0.005974
111 0.003987
83 0.005984
98 0.005028
108 0.002993
112 0.001996
117 0.001016
118 0.0
123 0.001994
131 0.001996
144 0.002988
156 0.00399
163 0.005985
157 0.006943
91 0.005981
76 0.005972
90 0.006
100 0.006019
104 0.005992
109 0.006022
109 0.004984
109 0.004035
117 0.005985
128 0.003978
138 0.003989
150 0.003029
158 0.003033
135 0.002993
82 0.003027
66 0.002995
81 0.001029
85 0.00303
87 0.001056
91 0.003031
91 0.002022
92 0.0
99 0.0
112 0.0
126 0.0
133 0.0
145 0.000998
107 0.001994
60 0.002991
49 0.002993
57 0.002992
61 0.002991
61 0.002994
65 0.002992
67 0.002992
68 0.002992
76 0.003026
87 0.002992
98 0.002992
108 0.002992
119 0.002992
123 0.003989
47 0.003991
23 0.004023
28 0.003987
33 0.005013
29 0.006011
34 0.005983
36 0.006013
37 0.006027
44 0.006981
53 0.00497
61 0.003972
74 0.002042
84 0.002992
94 0.001994
73 0.00303
10 0.001012
0 0.002952
9 0.002953
10 0.002993
10 0.002031
14 0.002033
19 0.002029
24 0.002029
32 0.001993
48 0.000998
66 0.0
73 0.000968
92 0.0
101 0.0
50 0.0
8 0.0
10 0.0
27 0.0
33 0.0
37 0.0
44 0.0
45 0.0
53 0.000957
66 0.001972
81 0.001994
95 0.001988
112 0.003923
122 0.004989
65 0.004994
33 0.004971
36 0.004959
50 0.004978
53 0.004981
61 0.005935
67 0.005929
69 0.005939
82 0.005973
92 0.00595
112 0.005978
130 0.005948
140 0.005986
128 0.006929
76 0.007008
49 0.004976
58 0.006027
70 0.004973
70 0.003987
80 0.00399
85 0.003989
90 0.003978
103 0.002991
114 0.003988
135 0.002991
153 0.0
163 0.0
178 0.000958
151 0.0
85 0.0
75 0.000997
84 0.0
88 0.0
91 0.0
98 0.0
104 0.0
108 0.0
122 0.0
141 0.001995
153 0.002969
169 0.003931
175 0.002993
192 0.006922
138 0.006967
88 0.006977
84 0.007022
96 0.006948
96 0.003987
99 0.004033
109 0.001982
114 0.000996
120 0.001997
136 0.002005
147 0.001995
165 0.001995
181 0.000987
189 0.0
204 0.0
167 0.0
113 0.000966
98 0.000996
111 0.001945
113 0.002939
114 0.003991
122 0.003953
125 0.00399
130 0.00399
141 0.004954
155 0.00499
172 0.00595
182 0.005968
196 0.006982
210 0.006972
215 0.007004
137 0.006967
111 0.007001
121 0.006973
134 0.005979
134 0.006004
138 0.003943
142 0.00299
142 0.001955
150 0.001048
163 0.002949
176 0.001986
187 0.002974
197 0.000988
206 0.002956
186 0.001972
129 0.000997
113 0.000965
126 0.001016
136 0.001008
138 0.000979
143 0.000998
141 0.001997
142 0.001957
147 0.001987
162 0.001956
176 0.002958
183 0.00294
195 0.002947
187 0.002959
104 0.003991
100 0.004991
110 0.00499
119 0.004987
122 0.00497
125 0.00603
122 0.006943
125 0.006976
133 0.006973
147 0.007939
155 0.006991
168 0.007946
179 0.007963
148 0.00795
77 0.007946
75 0.007968
92 0.007978
95 0.005982
94 0.007956
102 0.005992
102 0.004962
104 0.005013
116 0.006013
126 0.005994
141 0.004966
150 0.005991
160 0.003996
166 0.005989
97 0.003994
61 0.004986
70 0.004974
76 0.004963
75 0.004951
81 0.004002
84 0.004013
87 0.001994
91 0.003979
105 0.001952
120 0.002001
128 0.001994
141 0.000965
154 0.0
144 0.0
60 0.000954
49 0.000944
60 0.00096
68 0.001955
64 0.0
70 0.002015
75 0.000992
76 0.002002
87 0.001959
96 0.001994
112 0.001942
120 0.001954
130 0.003988
139 0.003991
153 0.003957
117 0.003939
50 0.004944
51 0.00501
67 0.004997
68 0.006916
69 0.006948
77 0.005032
81 0.00601
85 0.004992
98 0.005005
116 0.005003
126 0.002973
141 0.003986
152 0.004035
162 0.002026
160 0.002992
85 0.001997
63 0.002952
80 0.002935
90 0.002997
90 0.001988
96 0.0
96 0.000939
96 0.001992
107 0.002936
117 0.003944
133 0.003997
145 0.003944
153 0.00394
150 0.005027
95 0.00496
59 0.004995
76 0.00594
83 0.006005
85 0.006986
92 0.006979
91 0.007002
92 0.005991
100 0.006941
114 0.004922
126 0.006986
137 0.005007
148 0.006953
149 0.005984
93 0.005992
50 0.005968
56 0.005971
71 0.005986
70 0.004021
75 0.005004
80 0.002949
83 0.002981
89 0.003042
107 0.002997
118 0.002987
133 0.00296
147 0.003012
156 0.003001
91 0.001959
47 0.002008
51 0.0
62 0.002994
61 0.0
63 0.001027
72 0.000978
74 0.000995
80 0.001982
89 0.00099
108 0.000959
121 0.000985
134 0.001016
146 0.001004
144 0.000996
84 0.001959
42 0.002992
57 0.003986
62 0.003965
59 0.00395
65 0.003953
73 0.003998
78 0.003945
86 0.003945
104 0.003946
122 0.006965
133 0.006997
149 0.006942
158 0.006983
95 0.00696
58 0.007978
59 0.006013
73 0.007017
78 0.007018
80 0.006012
90 0.006022
94 0.002948
99 0.003023
114 0.001994
125 0.003021
142 0.00202
155 0.001038
164 0.001023
169 0.0
85 0.0
72 0.0
86 0.000994
100 0.001995
99 0.002995
107 0.003973
111 0.004024
114 0.004027
121 0.004039
134 0.003978
146 0.003952
161 0.00399
169 0.003986
181 0.004988
188 0.004993
118 0.006013
86 0.006948
105 0.005026
115 0.005034
116 0.005005
120 0.004993
122 0.004959
121 0.004995
127 0.004979
143 0.005004
150 0.004949
162 0.004977
170 0.006016
173 0.005021
110 0.006015
82 0.00399
96 0.006029
112 0.005985
112 0.00602
118 0.005026
116 0.002945
115 0.004006
124 0.00299
134 0.004026
147 0.002032
157 0.001985
165 0.001999
123 0.002001
80 0.001964
82 0.00196
100 0.001953
102 0.001967
105 0.002007
110 0.001995
109 0.0
113 0.0
126 0.0
134 0.000998
146 0.001964
155 0.001995
156 0.003992
93 0.004028
72 0.004017
85 0.004984
99 0.005015
98 0.005014
104 0.006971
108 0.006974
108 0.007019
115 0.006947
125 0.007988
136 0.006966
149 0.005992
155 0.006015
165 0.00595
96 0.005013
74 0.004979
88 0.004983
97 0.005013
97 0.003978
101 0.003991
107 0.002991
109 0.002022
114 0.001995
121 0.001996
134 0.001995
146 0.0
152 0.002034
163 0.0
144 0.002023
83 0.000998
82 0.001995
99 0.00399
101 0.003991
101 0.003954
106 0.003961
109 0.00399
114 0.004961
121 0.004958
134 0.005987
144 0.006976
149 0.006986
159 0.006987
166 0.006986
132 0.006012
81 0.007979
85 0.006034
102 0.007978
102 0.007957
102 0.006987
109 0.006011
111 0.006022
114 0.006025
124 0.004961
132 0.006027
145 0.003004
155 0.001995
161 0.002023
172 0.001007
122 0.0
85 0.0
85 0.002041
105 0.003963
104 0.003994
104 0.005028
110 0.004979
110 0.004952
115 0.006018
126 0.007028
141 0.006967
152 0.006956
160 0.006985
170 0.007979
129 0.007966
87 0.007979
67 0.007992
82 0.007985
95 0.006982
99 0.005004
103 0.005984
99 0.003985
103 0.004008
113 0.003995
131 0.003988
141 0.004013
154 0.004004
167 0.002999
141 0.002997
47 0.003011
50 0.004986
70 0.002966
76 0.004016
76 0.002997
84 0.004031
83 0.00202
86 0.001049
96 0.000997
113 0.002991
130 0.004999
139 0.004987
153 0.004959
119 0.005039
31 0.005951
39 0.006011
51 0.006012
57 0.006013
60 0.005962
69 0.005972
72 0.005996
76 0.005988
95 0.005955
110 0.006011
124 0.006985
139 0.006985
152 0.007013
157 0.006985
47 0.006953
24 0.006988
44 0.006963
54 0.007007
55 0.007006
64 0.004998
71 0.005983
75 0.004993
87 0.004969
100 0.004998
123 0.004036
135 0.004991
152 0.003988
170 0.002003
168 0.001984
63 0.001962
53 0.003989
74 0.001967
88 0.003021
88 0.002017
97 0.002993
105 0.003041
108 0.002992
123 0.003012
144 0.0
157 0.001992
172 0.0
187 0.002992
199 0.002959
207 0.002992
138 0.002992
86 0.002959
113 0.003043
127 0.00299
129 0.002966
139 0.003988
140 0.005993
140 0.006996
151 0.005985
161 0.006013
178 0.005956
190 0.00505
202 0.003017
207 0.004986
106 0.004025
91 0.003989
115 0.003026
129 0.003023
133 0.00303
141 0.002007
140 0.003028
139 0.001031
146 0.002026
163 0.0
179 0.0
187 0.0
201 0.0
168 0.0
99 0.0
89 0.0
100 0.0
120 0.000998
122 0.000992
127 0.001957
131 0.002031
133 0.002987
141 0.003953
158 0.004993
171 0.004988
182 0.004964
193 0.005003
203 0.004962
157 0.005028
77 0.004951
84 0.004988
109 0.004956
113 0.006978
115 0.006986
123 0.006982
125 0.00798
126 0.00698
139 0.006953
150 0.005965
165 0.005973
174 0.005994
188 0.00599
184 0.005985
110 0.003984
71 0.003989
91 0.002992
105 0.001989
106 0.003019
114 0.00299
116 0.002978
117 0.002995
123 0.002973
138 0.002998
156 0.000978
166 0.001946
180 0.002013
189 0.0
197 0.0
96 0.0
68 0.0
89 0.001967
109 0.001992
109 0.002966
115 0.001951
115 0.002957
115 0.002946
125 0.002956
136 0.002956
152 0.002948
166 0.002945
176 0.002948
181 0.00399
94 0.004935
59 0.004984
76 0.005016
98 0.006965
102 0.007967
107 0.007936
107 0.007949
103 0.006976
111 0.004944
121 0.005979
139 0.003983
153 0.003003
160 0.003001
170 0.003033
88 0.00398
39 0.002974
52 0.003971
71 0.002011
75 0.003996
81 0.002013
84 0.001994
81 0.00199
90 0.0
102 0.0
116 0.001991
133 0.002956
142 0.002967
157 0.004005
98 0.004057
36 0.003961
32 0.003956
48 0.003986
60 0.00394
63 0.00399
68 0.004943
71 0.004952
74 0.004986
88 0.005988
107 0.005951
119 0.00599
136 0.005955
146 0.007952
155 0.004947
74 0.005975
22 0.004989
34 0.002968
58 0.002999
61 0.001025
68 0.002993
74 0.000986
75 0.001977
85 0.0
103 0.0
114 0.001012
134 0.0
147 0.0
156 0.0
150 0.0
70 0.0
28 0.0
53 0.0
65 0.0
69 0.0
76 0.0
81 0.0
85 0.000991
94 0.001966
114 0.001953
131 0.002029
147 0.001956
160 0.001944
173 0.001956
143 0.001984
39 0.001957
39 0.001957
69 0.002939
80 0.002965
83 0.002954
88 0.00299
85 0.004966
89 0.005979
107 0.005961
119 0.005984
136 0.006025
153 0.00596
162 0.006012
70 0.00697
30 0.00696
42 0.006928
58 0.007975
68 0.004969
72 0.006981
76 0.00698
73 0.006979
78 0.006984
89 0.006972
111 0.004982
132 0.001995
143 0.003022
160 0.002032
58 0.001032
19 0.000982
30 0.0
51 0.0
52 0.0
60 0.0
65 0.001968
65 0.001961
75 0.002002
88 0.001941
112 0.001983
134 0.001995
146 0.001953
166 0.001992
138 0.001991
23 0.001948
19 0.00295
39 0.004964
49 0.004974
52 0.004982
58 0.005009
63 0.004972
66 0.004991
83 0.005021
106 0.004983
120 0.004985
141 0.004988
161 0.004978
143 0.00599
27 0.005985
16 0.005989
38 0.005952
49 0.006016
50 0.005993
61 0.005947
62 0.005979
70 0.006959
85 0.007977
100 0.004985
120 0.00598
142 0.005976
155 0.005986
167 0.005947
96 0.00597
26 0.003988
46 0.004
61 0.001992
68 0.002004
80 0.001989
80 0.001999
85 0.001992
100 0.00196
119 0.0
141 0.001989
158 0.0
178 0.001993
149 0.001992
72 0.001996
51 0.001989
69 0.001992
89 0.0
94 0.0
105 0.0
100 0.000999
105 0.000998
116 0.002993
140 0.003038
159 0.00299
171 0.002993
188 0.003953
145 0.004961
52 0.006979
60 0.006965
85 0.004963
89 0.003988
95 0.00399
96 0.003972
94 0.003987
103 0.005983
119 0.00399
137 0.004939
156 0.002992
166 0.002991
168 0.001994
56 0.0
40 0.001967
60 0.0
72 0.00199
73 0.0
83 0.000985
85 0.001967
87 0.001993
101 0.001949
113 0.001958
136 0.002021
147 0.001961
166 0.001953
152 0.001995
73 0.001952
33 0.002991
55 0.002964
62 0.002949
63 0.002994
70 0.002998
76 0.002991
80 0.002988
92 0.002946
109 0.002951
126 0.003989
144 0.004996
162 0.00598
172 0.007935
122 0.005984
34 0.003003
48 0.001967
61 0.00101
64 0.00098
67 0.001995
78 0.001991
82 0.00199
88 0.00198
108 0.001991
126 0.001949
144 0.001042
159 0.001957
173 0.0
180 0.0
67 0.0
42 0.0
62 0.0
78 0.0
78 0.0
87 0.001949
92 0.001962
94 0.001995
107 0.001955
119 0.001951
142 0.00399
164 0.003947
175 0.004947
192 0.005983
159 0.006954
79 0.005988
60 0.004035
90 0.001975
98 0.000983
101 0.0
110 0.002005
108 0.0
110 0.001988
128 0.001997
142 0.000988
162 0.0
172 0.0
190 0.0
158 0.002019
65 0.002034
61 0.001996
90 0.001976
99 0.001995
105 0.003959
111 0.00399
106 0.004987
109 0.007009
128 0.005029
141 0.004981
160 0.004993
177 0.002992
187 0.002004
98 0.0
51 0.001996
60 0.0
87 0.000999
91 0.002008
97 0.002963
101 0.003031
100 0.002991
108 0.002985
123 0.003001
140 0.002991
155 0.002964
172 0.00303
178 0.002991
70 0.004018
42 0.003992
59 0.003987
77 0.005983
76 0.005985
86 0.006013
89 0.005994
91 0.005976
101 0.006978
117 0.006978
133 0.00499
148 0.006005
164 0.004
175 0.003012
102 0.001982
34 0.0
43 0.002
64 0.0
65 0.002025
68 0.0
76 0.0
77 0.001968
83 0.002993
102 0.003952
113 0.00399
134 0.004983
150 0.00595
161 0.005948
139 0.005983
34 0.005983
30 0.005984
49 0.005983
57 0.005985
57 0.00399
67 0.004989
71 0.00302
74 0.003991
87 0.002992
100 0.002991
122 0.003
142 0.002035
153 0.001957
172 0.0
141 0.001998
37 0.0
44 0.0
56 0.0
70 0.0
73 0.0
79 0.0
83 0.000989
91 0.001967
103 0.00203
125 0.001992
139 0.001963
159 0.001996
177 0.001996
151 0.001967
44 0.00303
39 0.002996
67 0.002994
75 0.001997
78 0.00394
87 0.003993
84 0.003996
87 0.00399
105 0.004035
119 0.004016
141 0.005021
161 0.004988
172 0.005991
132 0.006002
35 0.004987
34 0.004979
58 0.004985
64 0.003988
69 0.004
77 0.001997
77 0.002013
86 0.0
102 0.002034
128 0.001995
142 0.0
162 0.000972
174 0.000999
107 0.000998
31 0.000991
31 0.000994
51 0.001
53 0.001962
55 0.00199
69 0.002031
70 0.003991
77 0.004958
98 0.005029
114 0.005022
138 0.005963
158 0.006949
171 0.006943
158 0.006975
32 0.006944
28 0.005984
48 0.004987
56 0.004978
55 0.002991
67 0.005028
76 0.002002
81 0.003989
98 0.002032
112 0.00203
137 0.00199
159 0.0
171 0.002039
188 0.000961
185 0.001024
65 0.0
57 0.0
72 0.0
82 0.0
82 0.000978
91 0.00195
100 0.001967
104 0.001966
119 0.002021
143 0.001995
156 0.002033
177 0.001958
195 0.003018
204 0.002992
187 0.003003
106 0.002984
72 0.003031
94 0.002993
109 0.00403
107 0.003955
118 0.003988
123 0.003989
128 0.006012
138 0.006022
158 0.006012
181 0.005992
194 0.006021
211 0.005943
226 0.006941
234 0.004984
125 0.005
86 0.004984
104 0.005036
127 0.007006
131 0.004992
137 0.006991
140 0.006976
137 0.005984
148 0.005038
161 0.004044
181 0.003991
199 0.002005
209 0.003979
220 0.002004
113 0.001978
79 0.000965
98 0.00099
121 0.001018
122 0.0
129 0.000978
129 0.002957
128 0.00399
139 0.004987
159 0.005022
172 0.004986
188 0.004986
199 0.005021
194 0.005972
88 0.006954
63 0.00698
81 0.007974
101 0.007967
102 0.007969
111 0.007974
112 0.006992
110 0.005028
121 0.002965
135 0.005012
157 0.002996
177 0.002991
186 0.001992
202 0.0
125 0.0
60 0.0
55 0.001963
82 0.00203
85 0.001961
89 0.001995
98 0.003989
98 0.00399
106 0.004987
117 0.004993
141 0.004986
158 0.00698
175 0.006954
189 0.007008
188 0.006954
102 0.006955
46 0.007033
64 0.004979
78 0.006026
82 0.003028
86 0.004982
96 0.001989
98 0.001967
104 0.001956
124 0.00199
148 0.000964
160 0.001946
179 0.001018
192 0.002027
202 0.0
122 0.0
47 0.000999
58 0.000997
86 0.001993
90 0.002992
96 0.002992
100 0.004986
102 0.005021
108 0.005985
128 0.005997
144 0.00601
167 0.006981
186 0.006959
197 0.006953
213 0.006972
166 0.006982
68 0.005984
71 0.005983
91 0.004986
110 0.003988
117 0.002997
120 0.002028
116 0.001998
122 0.002033
138 0.000938
157 0.001994
178 0.002025
190 0.0
208 0.000951
191 0.0
67 0.0
64 0.0
90 0.0
106 0.000998
115 0.003037
119 0.003949
110 0.004938
116 0.005991
128 0.004925
151 0.004944
162 0.005934
177 0.006951
194 0.005977
153 0.006982
42 0.006964
57 0.006995
80 0.006913
86 0.005016
90 0.004984
96 0.004991
91 0.006975
97 0.004013
111 0.004984
134 0.00499
146 0.005024
164 0.005029
173 0.004993
76 0.004025
21 0.001998
31 0.003989
56 0.001951
59 0.001035
68 0.00201
70 0.001979
70 0.001022
81 0.0
103 0.00101
116 0.001041
133 0.001041
152 0.001957
163 0.002992
69 0.00498
8 0.005939
17 0.005984
35 0.005935
40 0.006949
43 0.006955
51 0.007019
52 0.005001
58 0.006981
77 0.004982
91 0.006989
113 0.003981
133 0.003974
145 0.003995
106 0.002994
12 0.001993
15 0.002005
43 0.001951
50 0.002997
54 0.0
63 0.002947
67 0.000983
74 0.001002
91 0.002957
109 0.002986
126 0.002947
141 0.003996
156 0.003946
171 0.003992
97 0.004947
45 0.006954
53 0.005982
81 0.006954
84 0.006959
90 0.006972
96 0.007032
98 0.005979
105 0.005004
117 0.004985
138 0.003997
159 0.002996
168 0.002035
183 0.0
192 0.001991
112 0.000985
59 0.002968
82 0.001978
100 0.002021
105 0.001993
110 0.001988
111 0.002012
108 0.001006
116 0.0
131 0.000974
149 0.002959
158 0.003965
172 0.003955
176 0.005983
111 0.005983
54 0.005987
80 0.006974
91 0.005002
96 0.004022
104 0.002932
104 0.002972
102 0.002949
111 0.004024
126 0.001988
140 0.003957
153 0.001981
163 0.001997
174 0.001992
126 0.0
46 0.000972
57 0.001016
78 0.000995
81 0.000999
85 0.002943
91 0.002993
92 0.002992
94 0.003987
109 0.004002
127 0.003993
136 0.003952
149 0.004962
162 0.005958
170 0.005986
111 0.006966
41 0.005977
49 0.005983
72 0.005023
74 0.005024
74 0.005959
82 0.006988
85 0.004048
88 0.005951
102 0.005972
113 0.005987
130 0.006013
138 0.006049
149 0.006009
161 0.002981
166 0.003988
66 0.0
40 0.001006
50 0.000998
70 0.001961
66 0.002962
71 0.002987
78 0.002956
80 0.004965
86 0.004975
103 0.00497
119 0.005997
125 0.006027
139 0.006023
148 0.00699
158 0.004973
168 0.007014
98 0.004937
41 0.006971
58 0.006985
72 0.006942
75 0.006978
76 0.00698
85 0.006984
87 0.004005
90 0.005987
106 0.001999
126 0.002002
136 0.002026
149 0.001992
158 0.002955
170 0.00097
146 0.001992
50 0.001005
51 0.001973
78 0.002955
86 0.003938
87 0.004982
93 0.004977
90 0.004967
92 0.005016
107 0.004975
119 0.004986
137 0.007984
147 0.005968
158 0.007975
169 0.005996
89 0.003984
45 0.002991
55 0.003993
70 0.003993
79 0.003982
84 0.003011
88 0.002964
86 0.002992
93 0.002989
108 0.0
123 0.002992
140 0.001993
151 0.00295
162 0.002959
173 0.002006
127 0.002958
36 0.0
39 0.003016
63 0.0
68 0.001992
67 0.000999
77 0.0
79 0.000997
83 0.002992
97 0.003993
111 0.004987
128 0.005983
147 0.004952
160 0.004
168 0.002954
183 0.00199
107 0.002952
36 0.001984
41 0.003005
62 0.000998
66 0.001993
66 0.000942
74 0.002023
79 0.000993
84 0.0
98 0.0
116 0.0
135 0.0
152 0.0
168 0.000998
176 0.001956
193 0.002971
134 0.00393
57 0.004988
42 0.005952
67 0.005974
73 0.005982
73 0.005984
84 0.004979
85 0.005967
89 0.00597
100 0.004987
123 0.005025
148 0.007965
163 0.004999
177 0.007012
191 0.004952
207 0.006968
154 0.006971
72 0.006977
53 0.005944
83 0.002956
92 0.004967
96 0.002042
103 0.00498
103 0.001986
112 0.001983
123 0.001988
149 0.002952
173 0.001975
186 0.0
206 0.00099
215 0.0
152 0.00101
54 0.001026
70 0.002958
87 0.001986
96 0.002981
102 0.002969
106 0.002991
104 0.003008
111 0.002978
130 0.003946
156 0.004983
170 0.005002
189 0.004975
202 0.004975
163 0.005994
42 0.005974
38 0.005976
66 0.00596
76 0.005955
81 0.005982
89 0.006001
87 0.005987
89 0.004986
109 0.004981
126 0.003971
153 0.003965
173 0.006984
189 0.004004
200 0.006012
122 0.00602
24 0.005985
36 0.003002
51 0.00403
56 0.001026
67 0.001993
70 0.000958
70 0.0
82 0.0
97 0.001995
126 0.002
152 0.003991
166 0.004976
187 0.005985
153 0.005979
55 0.005968
11 0.006983
19 0.006998
41 0.006967
41 0.007929
48 0.006008
57 0.007969
62 0.007977
72 0.007976
92 0.007034
109 0.007008
138 0.005026
161 0.001997
175 0.004044
191 0.002994
56 0.002001
11 0.002014
20 0.002998
42 0.000985
43 0.0
52 0.000968
56 0.0
59 0.0
73 0.000996
88 0.000994
118 0.000998
148 0.002025
164 0.003007
188 0.002983
204 0.002998
105 0.002992
25 0.003006
28 0.002984
53 0.004002
68 0.003975
74 0.003944
83 0.00399
82 0.003992
92 0.004002
119 0.003991
138 0.003951
166 0.003991
193 0.005024
206 0.006019
140 0.00698
53 0.006959
38 0.00695
63 0.004992
75 0.00496
87 0.004997
93 0.007022
89 0.004021
94 0.007008
121 0.005041
140 0.003989
169 0.002036
195 0.0
208 0.0
123 0.000995
24 0.001997
28 0.001931
57 0.001993
69 0.002995
77 0.002988
83 0.003949
81 0.00399
94 0.003952
124 0.003994
144 0.003954
173 0.005983
195 0.005954
205 0.004988
79 0.002996
18 0.004986
26 0.002008
48 0.002031
54 0.002025
62 0.002024
71 0.0
73 0.000971
87 0.002966
109 0.002992
141 0.002992
159 0.002995
185 0.00399
201 0.004934
123 0.005976
16 0.005971
13 0.005957
32 0.00598
41 0.004942
45 0.00399
60 0.00399
65 0.003965
72 0.001991
98 0.001997
123 0.002045
148 0.0
170 0.002035
197 0.002047
201 0.002024
58 0.002024
12 0.0
24 0.001961
41 0.002032
43 0.001958
52 0.004965
63 0.004981
67 0.004972
81 0.005026
112 0.004981
134 0.004999
164 0.005983
183 0.005984
198 0.005986
222 0.004948
115 0.004004
42 0.004001
28 0.005984
48 0.004922
61 0.005954
66 0.005984
75 0.006012
82 0.006011
95 0.002014
111 0.004028
144 0.002002
165 0.002993
194 0.001992
220 0.002008
235 0.0
144 0.0
47 0.000958
51 0.00095
80 0.0
86 0.0
93 0.001966
101 0.003021
98 0.003988
106 0.004985
135 0.006969
161 0.007003
177 0.006985
205 0.007
219 0.005967
133 0.006967
35 0.007982
34 0.007978
61 0.005973
75 0.003939
83 0.006015
92 0.002983
92 0.001994
101 0.000972
131 0.001015
157 0.0
175 0.0
203 0.001996
208 0.001986
114 0.003949
26 0.005034
41 0.004988
55 0.004936
60 0.006961
70 0.00702
78 0.002992
79 0.006028
95 0.004011
114 0.003013
148 0.002993
179 0.0
195 0.00202
217 0.0
121 0.000997
43 0.001996
21 0.003963
42 0.004973
43 0.006948
46 0.003995
61 0.003964
65 0.003964
75 0.002948
104 0.002008
123 0.003001
157 0.001995
180 0.002022
195 0.0
210 0.0
69 0.002992
21 0.002992
26 0.004975
39 0.005
36 0.004982
46 0.005015
58 0.005033
61 0.005014
78 0.005015
96 0.005043
129 0.005958
155 0.006982
176 0.006954
195 0.004973
215 0.003004
151 0.003012
31 0.002023
30 0.002986
43 0.003001
44 0.001983
49 0.001997
63 0.001994
68 0.002003
78 0.000936
101 0.00296
136 0.0
156 0.0
186 0.0
206 0.0
225 0.0
241 0.0
142 0.00099
54 0.000998
56 0.000998
73 0.000999
80 0.000989
91 0.002993
95 0.003991
96 0.004986
114 0.00498
133 0.004978
164 0.006012
180 0.006977
200 0.005957
223 0.006002
225 0.005976
88 0.005954
42 0.006006
54 0.002983
75 0.006026
82 0.00399
92 0.002993
91 0.002045
95 0.0
110 0.002042
143 0.0
161 0.001987
187 0.001001
211 0.001053
223 0.0
113 0.0
62 0.000997
31 0.0
56 0.001963
61 0.001953
69 0.001999
80 0.001978
80 0.001983
91 0.001992
109 0.001979
144 0.001995
169 0.002001
191 0.002995
210 0.003018
226 0.002995
144 0.002993
28 0.002992
25 0.00399
48 0.004961
51 0.004983
57 0.004986
72 0.004982
77 0.005962
86 0.00698
110 0.006979
139 0.006947
166 0.004994
194 0.003993
214 0.005023
235 0.001994
176 0.002948
102 0.0
76 0.002994
86 0.002025
92 0.002037
92 0.002
98 0.001001
102 0.000955
105 0.000989
115 0.000995
126 0.001002
145 0.000999
156 0.000995
170 0.001994
184 0.003945
191 0.003988
132 0.003962
79 0.00398
80 0.003999
93 0.003979
95 0.004985
98 0.00596
104 0.003988
107 0.004987
112 0.002002
124 0.002965
144 0.001973
155 0.002008
171 0.002002
185 0.001007
194 0.0
169 0.001961
87 0.001991
80 0.00399
95 0.00497
104 0.004949
108 0.004962
116 0.004994
116 0.004987
120 0.004996
137 0.004956
149 0.004985
168 0.005017
179 0.004986
191 0.005972
203 0.006007
169 0.00496
89 0.005007
90 0.006945
105 0.00399
113 0.006997
119 0.003954
122 0.006986
117 0.00696
120 0.007005
135 0.00595
153 0.003983
164 0.005985
180 0.003983
188 0.005984
130 0.003985
73 0.002988
75 0.002991
92 0.002986
97 0.003005
105 0.002995
105 0.003003
103 0.002963
112 0.002994
122 0.002987
142 0.001994
157 0.002988
170 0.0
174 0.002995
84 0.00299
60 0.002991
66 0.0
78 0.0
80 0.0
88 0.0
90 0.0
91 0.0
102 0.001016
113 0.001952
134 0.002993
152 0.003951
163 0.004957
161 0.004966
69 0.005025
51 0.00499
60 0.004986
67 0.004999
70 0.004987
80 0.005
82 0.004991
86 0.00498
94 0.005953
109 0.00698
125 0.006993
145 0.00499
155 0.004989
165 0.003993
83 0.002005
58 0.003961
62 0.002003
70 0.002991
74 0.0
81 0.0
86 0.001009
90 0.000953
100 0.001987
110 0.003014
129 0.003022
147 0.002979
157 0.002992
170 0.002993
131 0.002995
71 0.003955
73 0.003956
86 0.003997
91 0.004948
98 0.005968
102 0.005986
105 0.00599
109 0.005966
124 0.00598
143 0.005964
153 0.005989
168 0.006952
177 0.004987
153 0.005028
86 0.003966
88 0.001986
98 0.002015
105 0.001988
110 0.002991
112 0.0
110 0.002995
114 0.0
126 0.0
142 0.0
150 0.0
163 0.001995
164 0.001959
103 0.00198
76 0.002965
86 0.003948
95 0.003956
98 0.004985
105 0.005957
104 0.005991
103 0.005978
114 0.005011
124 0.005027
138 0.00398
146 0.003962
158 0.002988
116 0.002959
77 0.002967
70 0.002977
81 0.004997
84 0.002022
87 0.004983
92 0.002009
92 0.004974
97 0.004994
105 0.004992
119 0.003987
127 0.002993
139 0.00299
149 0.002007
130 0.001994
72 0.0
60 0.0
68 0.001998
73 0.001995
75 0.001036
79 0.002026
81 0.000963
83 0.00196
94 0.001964
108 0.00399
121 0.005981
127 0.005975
138 0.004988
143 0.005949
87 0.005974
56 0.007009
59 0.00498
69 0.006984
69 0.004
71 0.00399
80 0.003978
83 0.003015
87 0.004038
100 0.001994
109 0.003984
124 0.00199
136 0.0
142 0.0
154 0.0
102 0.0
80 0.0
74 0.000986
89 0.001026
91 0.001987
93 0.003944
98 0.004987
98 0.005947
102 0.006943
112 0.008027
123 0.002991
132 0.005977
143 0.003991
149 0.002991
143 0.002992
83 0.0
78 0.002995
93 0.0
99 0.003012
101 0.0
108 0.0
107 0.0
109 0.0
120 0.0
129 0.000997
142 0.001985
151 0.001943
158 0.003037
155 0.003944
112 0.001969
84 0.003956
97 0.003991
103 0.00299
102 0.005005
109 0.006939
111 0.005983
111 0.005979
119 0.005984
127 0.005983
140 0.004021
151 0.002007
167 0.002999
180 0.002011
189 0.002992
123 0.000995
70 0.0
77 0.001005
95 0.0
93 0.0
98 0.0
106 0.002984
108 0.000996
112 0.003041
128 0.002985
143 0.004941
156 0.004954
168 0.004986
179 0.004988
191 0.005979
146 0.007941
81 0.002992
77 0.004032
99 0.0
105 0.0
106 0.0
116 0.001
118 0.0
120 0.0
134 0.001944
153 0.001954
164 0.002992
180 0.00495
192 0.006011
200 0.005984
167 0.006012
89 0.007017
82 0.00499
101 0.007015
113 0.004985
114 0.004978
121 0.003991
118 0.0
121 0.001974
133 0.001
154 0.001995
164 0.001955
179 0.00199
188 0.001971
171 0.002954
79 0.00298
75 0.002981
98 0.003989
109 0.003975
111 0.00397
118 0.004996
115 0.005944
120 0.00596
138 0.005985
150 0.00601
169 0.005984
181 0.006981
191 0.004978
173 0.004985
74 0.005022
66 0.003956
89 0.003993
99 0.002999
101 0.003977
110 0.002986
111 0.004043
115 0.0
131 0.00097
144 0.001018
163 0.0
180 0.0
189 0.0
136 0.0
67 0.000979
62 0.001995
84 0.00399
93 0.004947
95 0.004982
105 0.005949
106 0.006982
108 0.003976
119 0.005973
139 0.00502
151 0.004986
169 0.00499
179 0.004991
180 0.00302
76 0.000962
62 0.002028
82 0.00097
97 0.0
99 0.0
111 0.001015
113 0.00095
117 0.000971
130 0.001007
150 0.003034
162 0.003031
181 0.003029
191 0.00399
189 0.005003
87 0.003991
79 0.004991
104 0.005985
118 0.005985
121 0.00596
129 0.005985
128 0.00599
128 0.006977
142 0.007003
153 0.007929
168 0.007978
185 0.005042
195 0.007968
145 0.005967
90 0.007979
88 0.004982
115 0.004986
122 0.004986
128 0.003995
130 0.003006
127 0.002043
135 0.003011
146 0.002992
164 0.002035
176 0.003989
189 0.0
182 0.003033
84 0.002991
77 0.00302
102 0.003024
113 0.002022
116 0.001984
123 0.0
121 0.0
123 0.0
136 0.0
147 0.0
162 0.002028
177 0.002964
184 0.00399
105 0.004975
70 0.006935
78 0.005988
101 0.003992
106 0.006981
111 0.003994
114 0.007019
114 0.004015
119 0.007016
134 0.006981
143 0.007011
157 0.005025
171 0.002985
173 0.002993
82 0.00299
65 0.001001
79 0.0
93 0.0
92 0.0
100 0.000953
101 0.0
103 0.0
112 0.0
128 0.0
138 0.000997
153 0.001996
162 0.002028
169 0.003046
76 0.002046
59 0.002018
79 0.00399
93 0.004021
92 0.004983
98 0.006031
100 0.007013
99 0.005987
109 0.006977
118 0.006974
134 0.007952
147 0.004987
154 0.007023
134 0.003996
56 0.002968
55 0.003988
78 0.002991
86 0.002992
91 0.003983
94 0.001995
93 0.002992
98 0.002019
110 0.003024
123 0.0
136 0.00302
150 0.002055
158 0.00203
81 0.003027
46 0.003018
56 0.002026
75 0.000985
75 0.0
81 0.0
84 0.002958
83 0.001998
93 0.002974
111 0.003954
122 0.004025
138 0.003991
147 0.005023
158 0.004013
70 0.003991
42 0.004953
49 0.004024
69 0.003993
71 0.003991
77 0.002994
80 0.003938
82 0.0
90 0.002024
107 0.003997
118 0.003986
136 0.002993
153 0.0
162 0.003028
93 0.001022
50 0.002993
52 0.0
71 0.000997
77 0.0
83 0.0
88 0.0
90 0.0
99 0.0
110 0.002992
130 0.002001
148 0.001964
158 0.00399
170 0.004995
78 0.004948
54 0.004941
72 0.004938
89 0.006994
93 0.004984
100 0.007029
102 0.005947
100 0.005989
111 0.006014
124 0.005924
144 0.00598
161 0.002025
171 0.005012
177 0.001985
117 0.005016
65 0.003995
86 0.002985
99 0.002981
103 0.003
112 0.002024
112 0.001996
114 0.0
122 0.0
142 0.000963
157 0.003021
170 0.0
183 0.0
163 0.000997
97 0.0
71 0.00096
90 0.00203
103 0.002005
104 0.001996
113 0.001953
114 0.003988
117 0.003957
126 0.003949
143 0.004992
161 0.004976
170 0.004998
185 0.004955
190 0.005021
114 0.006011
68 0.004991
78 0.004014
98 0.005011
101 0.00797
106 0.002992
111 0.00798
113 0.005983
118 0.005946
136 0.006021
147 0.005973
165 0.006012
181 0.002998
190 0.005992
128 0.003
68 0.0
76 0.0
101 0.0
106 0.000997
109 0.001994
114 0.002992
113 0.00299
118 0.002989
135 0.003989
154 0.004984
164 0.004999
180 0.004947
184 0.006011
94 0.005024
62 0.007971
76 0.005023
95 0.007024
101 0.004988
108 0.004972
105 0.005013
106 0.001025
115 0.00502
134 0.002994
152 0.0
162 0.000971
177 0.000971
140 0.000965
54 0.0
58 0.00096
78 0.000997
87 0.0
93 0.002993
95 0.00097
92 0.001995
96 0.0
113 0.001998
131 0.001995
141 0.001996
159 0.002992
149 0.002994
63 0.004942
37 0.005036
57 0.005957
67 0.006985
71 0.007035
79 0.004016
80 0.007009
82 0.003996
90 0.00698
110 0.003999
129 0.002012
140 0.0
158 0.0
97 0.000965
33 0.002017
31 0.002973
51 0.003989
58 0.00395
61 0.004002
69 0.004979
70 0.004975
75 0.005969
88 0.006992
109 0.005013
121 0.004027
141 0.002989
154 0.0
104 0.003018
29 0.001004
32 0.002977
55 0.0
61 0.0
64 0.0
73 0.003029
76 0.00499
82 0.00498
100 0.00499
122 0.004978
135 0.005017
154 0.005987
160 0.004942
97 0.004987
47 0.004965
58 0.004955
83 0.005976
87 0.005988
94 0.005982
97 0.007986
99 0.006981
103 0.006031
122 0.004983
142 0.000962
152 0.003023
169 0.00097
134 0.001015
78 0.000944
70 0.0
81 0.0
102 0.001994
107 0.000997
112 0.000997
107 0.002036
114 0.000958
126 0.000997
145 0.00299
160 0.003962
168 0.004006
147 0.005027
73 0.006984
64 0.004987
82 0.007972
97 0.004039
99 0.006984
108 0.005949
106 0.004986
108 0.004986
122 0.0
132 0.003987
147 0.001995
162 0.0
163 0.0
90 0.0
59 0.0
72 0.0
89 0.001967
92 0.001978
98 0.000987
99 0.002
101 0.001955
112 0.001977
126 0.001958
140 0.001943
151 0.002022
162 0.001996
145 0.001994
61 0.001997
56 0.001978
77 0.004968
82 0.00495
83 0.004983
93 0.004987
94 0.005011
99 0.00499
115 0.004989
126 0.005969
139 0.005003
153 0.005982
161 0.00499
168 0.005974
114 0.004976
56 0.00399
73 0.007977
83 0.005015
83 0.007968
90 0.006974
93 0.006977
96 0.006975
100 0.006983
116 0.005984
134 0.001994
145 0.003955
159 0.0
175 0.0
173 0.0
81 0.00094
66 0.0
79 0.0
98 0.0
98 0.0
104 0.002999
106 0.00496
111 0.004991
120 0.004998
139 0.004982
151 0.004984
166 0.004985
178 0.005974
171 0.005981
91 0.006043
72 0.006933
83 0.006989
103 0.006923
105 0.006968
111 0.006975
107 0.003951
108 0.006943
122 0.003989
141 0.00395
151 0.002959
166 0.00398
175 0.003037
140 0.001994
64 0.003959
65 0.00099
89 0.00299
95 0.003942
100 0.002992
104 0.002984
103 0.001008
107 0.0
125 0.0
138 0.000971
157 0.002009
168 0.001977
178 0.001994
111 0.001986
55 0.001965
64 0.001987
85 0.00198
87 0.001974
96 0.002957
99 0.004941
99 0.004943
111 0.004983
133 0.004976
146 0.004943
163 0.004973
174 0.004988
184 0.004998
82 0.005948
58 0.006982
62 0.004966
79 0.005989
84 0.002981
90 0.005946
96 0.005984
97 0.005985
107 0.00499
127 0.00096
141 0.002976
160 0.001004
173 0.001012
184 0.000956
175 0.002987
69 0.004951
57 0.00499
80 0.005985
91 0.005958
91 0.005937
102 0.005987
105 0.004956
108 0.003995
123 0.004015
136 0.004972
160 0.00295
175 0.005967
187 0.003953
201 0.005978
168 0.00298
98 0.004974
77 0.002992
93 0.003935
115 0.002992
121 0.0
126 0.000962
126 0.0
133 0.0
145 0.0
166 0.0
183 0.0
192 0.001995
209 0.001006
213 0.001988
112 0.001991
87 0.00201
103 0.001995
127 0.001996
132 0.003959
139 0.00498
134 0.005972
135 0.00599
145 0.00599
166 0.00598
179 0.005998
195 0.006991
207 0.006005
187 0.006979
96 0.005949
80 0.007011
100 0.004007
119 0.003946
121 0.003964
129 0.003959
124 0.002015
127 0.0
144 0.000998
160 0.003002
176 0.0
187 0.002934
203 0.002949
184 0.002973
74 0.002957
66 0.002983
90 0.003991
102 0.001009
106 0.000983
113 0.000998
111 0.000998
113 0.001996
127 0.002978
149 0.002969
160 0.003026
177 0.003022
187 0.002992
190 0.003032
74 0.005987
54 0.005983
73 0.00597
87 0.005989
89 0.004995
96 0.004955
97 0.006974
99 0.002988
108 0.003989
128 0.003986
140 0.001961
158 0.002994
172 0.0
184 0.000991
121 0.002998
51 0.003021
55 0.002993
80 0.003955
85 0.002965
90 0.002993
96 0.005989
96 0.005961
105 0.005985
125 0.006
134 0.005985
158 0.005952
169 0.005988
186 0.005949
151 0.005982
82 0.003993
63 0.002992
84 0.006979
99 0.003005
102 0.005012
109 0.003022
108 0.003047
112 0.003021
129 0.0
141 0.003021
160 0.000971
173 0.0
183 0.001994
157 0.002993
66 0.00299
65 0.003019
92 0.002998
102 0.002981
108 0.002992
109 0.003988
106 0.004986
109 0.005016
127 0.00399
139 0.003992
156 0.002993
168 0.00399
180 0.002993
134 0.000998
54 0.001025
62 0.001994
82 0.003024
89 0.003996
96 0.005997
97 0.005996
95 0.005983
99 0.006011
117 0.006013
136 0.005957
147 0.006021
162 0.005963
173 0.005985
136 0.004981
47 0.004986
45 0.003989
67 0.004019
74 0.003989
76 0.00399
84 0.003961
85 0.005984
89 0.002995
103 0.003989
123 0.002992
135 0.003019
151 0.001033
162 0.002036
161 0.000965
54 0.0
36 0.0
54 0.0
67 0.0
67 0.0
75 0.002024
77 0.001994
81 0.00399
93 0.005988
114 0.005973
126 0.005979
141 0.005956
154 0.007024
168 0.003993
147 0.007027
56 0.004988
35 0.005985
57 0.003984
70 0.000964
73 0.002028
82 0.0
82 0.003032
86 0.0
102 0.0
116 0.0
139 0.001956
159 0.002991
170 0.003032
181 0.003961
72 0.003961
42 0.003996
59 0.00396
76 0.003963
86 0.004018
95 0.004981
94 0.005943
94 0.005985
106 0.006012
125 0.006002
140 0.007007
161 0.00701
174 0.006982
184 0.005983
70 0.003018
40 0.002981
56 0.0
73 0.003016
84 0.0
94 0.000969
91 0.000995
88 0.0
104 0.0
118 0.0
143 0.002994
162 0.003984
174 0.003985
150 0.003995
37 0.004984
28 0.005954
47 0.004995
63 0.00697
68 0.003019
77 0.005983
76 0.005973
77 0.004987
94 0.00399
120 0.0
135 0.002982
152 0.001957
172 0.001994
177 0.002005
59 0.003985
21 0.003959
32 0.003999
54 0.00396
55 0.003989
66 0.004008
69 0.00498
72 0.004999
88 0.004991
114 0.005956
130 0.005953
152 0.005986
165 0.006021
176 0.005988
81 0.005948
26 0.005974
35 0.006988
54 0.00698
60 0.006982
67 0.006982
75 0.006982
80 0.00399
92 0.002988
105 0.003989
130 0.002991
154 0.002993
166 0.002994
186 0.000969
157 0.0
83 0.001013
56 0.001
72 0.001015
93 0.001025
96 0.002996
105 0.0
108 0.0
115 0.0
124 0.0
146 0.00197
159 0.002001
180 0.001995
195 0.003989
209 0.003963
186 0.003948
85 0.005952
81 0.005951
110 0.005963
124 0.005997
130 0.006977
136 0.005969
134 0.006985
137 0.003998
153 0.002992
166 0.002991
186 0.00299
203 0.002995
212 0.003002
187 0.002983
100 0.004992
89 0.003975
115 0.002989
137 0.001021
141 0.003016
146 0.0
138 0.002992
137 0.000998
152 0.001995
164 0.000999
183 0.001995
199 0.002007
207 0.003988
155 0.004933
82 0.00599
90 0.005958
113 0.005
126 0.004988
131 0.00499
133 0.005008
127 0.004991
132 0.004989
150 0.007962
161 0.005002
174 0.007975
191 0.006992
196 0.006966
100 0.006985
71 0.006978
86 0.006981
106 0.003963
108 0.006968
115 0.003951
115 0.006982
112 0.002983
124 0.003041
136 0.003005
152 0.003
166 0.0
174 0.0
139 0.0
63 0.002997
56 0.0
75 0.001995
86 0.001954
86 0.002983
92 0.003952
92 0.004952
95 0.005
105 0.005987
119 0.005987
133 0.007953
144 0.007975
156 0.007975
147 0.007932
52 0.003996
38 0.00698
56 0.003979
66 0.002967
65 0.002993
74 0.002995
75 0.002981
78 0.003003
93 0.00202
104 0.003004
122 0.002012
134 0.002967
146 0.0
154 0.0
66 0.0
36 0.000957
50 0.002005
65 0.002
66 0.002987
72 0.003949
76 0.003962
77 0.003989
88 0.004991
99 0.004961
117 0.004943
134 0.004966
143 0.005993
155 0.005986
104 0.00298
51 0.002982
43 0.002992
58 0.002987
70 0.002997
76 0.0
79 0.00299
78 0.0
85 0.0
104 0.001992
115 0.001996
133 0.001979
141 0.000987
156 0.002023
119 0.003043
46 0.002988
38 0.002983
60 0.002981
66 0.002984
69 0.002993
76 0.002992
76 0.003991
83 0.004987
95 0.006981
110 0.00399
129 0.002992
139 0.002994
153 0.002995
164 0.003016
111 0.003989
35 0.003009
41 0.003984
58 0.0
60 0.002989
65 0.00303
70 0.000999
72 0.0
77 0.0
95 0.0
112 0.0
128 0.0
142 0.0
156 0.001015
166 0.003988
114 0.003989
36 0.004945
37 0.004991
59 0.004987
63 0.005947
65 0.005947
74 0.004942
75 0.005976
81 0.005981
100 0.004993
114 0.004991
136 0.007922
152 0.005984
162 0.004993
180 0.004986
181 0.005004
74 0.003987
48 0.0
62 0.002979
81 0.0
85 0.00097
92 0.000965
94 0.000998
99 0.001995
110 0.003989
134 0.003967
157 0.004987
170 0.005988
189 0.005981
189 0.005989
116 0.005973
58 0.005982
67 0.007971
91 0.004002
100 0.005003
111 0.003981
112 0.003979
107 0.002984
119 0.0
134 0.0
154 0.0
174 0.0
186 0.0
199 0.000971
92 0.003963
55 0.003961
63 0.004979
79 0.004951
88 0.004981
97 0.005984
100 0.005989
98 0.002985
112 0.002997
127 0.002995
152 0.002992
170 0.003986
186 0.002997
183 0.002975
68 0.002967
45 0.00297
64 0.00295
80 0.0
84 0.002032
96 0.001999
100 0.003961
103 0.003957
120 0.003998
136 0.003945
161 0.003991
182 0.004977
195 0.005975
204 0.005981
90 0.005967
65 0.005962
78 0.004993
100 0.004017
102 0.002992
112 0.002955
118 0.004987
121 0.002969
132 0.004985
149 0.003
166 0.004985
187 0.004989
197 0.003994
214 0.003955
182 0.0
110 0.00302
88 0.0
104 0.002986
124 0.0
129 0.000979
136 0.000972
140 0.0
144 0.00099
153 0.000985
173 0.001995
195 0.002958
205 0.002972
222 0.002993
234 0.003992
167 0.00496
101 0.003988
110 0.004987
139 0.004959
146 0.005985
153 0.005962
154 0.005983
152 0.005974
154 0.00797
175 0.007953
187 0.007952
204 0.007931
216 0.003001
224 0.006986
136 0.003026
96 0.0
111 0.0
137 0.0
145 0.0
148 0.0
147 0.001956
144 0.00199
152 0.002995
170 0.001997
188 0.005979
197 0.005948
212 0.004981
163 0.007973
98 0.005001
86 0.00798
107 0.005035
124 0.007969
132 0.007973
136 0.007944
131 0.007978
135 0.002991
145 0.00499
164 0.0
181 0.0
190 0.0
203 0.0
148 0.001999
87 0.001997
80 0.002965
106 0.004987
112 0.004984
116 0.004981
122 0.007965
121 0.004988
122 0.006984
137 0.006981
148 0.005988
166 0.005022
181 0.003017
190 0.00299
169 0.0
68 0.0
65 0.0
85 0.0
102 0.000959
103 0.002001
110 0.001969
110 0.002032
111 0.001995
126 0.003955
137 0.003938
155 0.004944
170 0.004951
180 0.00495
170 0.004987
95 0.004987
56 0.004955
73 0.005985
87 0.00503
94 0.006956
102 0.006976
102 0.006982
102 0.005991
113 0.002985
124 0.005995
143 0.003004
155 0.006014
172 0.003003
184 0.002995
128 0.0
53 0.001038
71 0.0
81 0.0
97 0.0
105 0.0
105 0.0
101 0.001949
113 0.00299
126 0.003969
147 0.003978
162 0.004987
177 0.004956
171 0.004987
78 0.005989
53 0.005968
78 0.005946
93 0.006982
104 0.00794
111 0.004988
106 0.008003
104 0.003959
118 0.007965
134 0.003971
152 0.003033
163 0.002982
177 0.002969
80 0.00303
46 0.002973
60 0.002993
80 0.002983
89 0.001009
98 0.003991
95 0.0
91 0.00399
104 0.00302
116 0.002993
137 0.002959
152 0.0
164 0.0
118 0.0
41 0.0
34 0.00202
59 0.002957
67 0.002992
75 0.002966
78 0.002995
76 0.003941
