92 0.029952
92 0.001962
89 0.001991
106 0.002007
116 0.002003
134 0.002006
149 0.001998
180 0.002035
191 0.001992
199 0.002007
199 0.002994
171 0.002971
113 0.002004
106 0.001989
116 0.001998
135 0.001989
141 0.001986
144 0.001996
149 0.002946
142 0.002033
131 0.001996
123 0.002029
119 0.003005
120 0.002982
105 0.001999
95 0.002
93 0.001998
111 0.002003
103 0.002005
93 0.002002
74 0.002991
0 0.002993
0 0.002951
0 0.001983
0 0.002993
0 0.002996
0 0.002
0 0.001997
0 0.00199
0 0.003988
0 0.001993
0 0.002989
0 0.002986
23 0.003001
31 0.002953
42 0.003009
48 0.002978
42 0.002996
54 0.002024
10 0.001996
0 0.002019
0 0.003019
0 0.003969
0 0.002986
0 0.002972
0 0.021943
7 0.002995
11 0.002993
11 0.003
5 0.003001
17 0.001998
16 0.002989
34 0.001998
38 0.003959
42 0.00399
50 0.003034
53 0.003035
63 0.002994
64 0.002997
59 0.003059
0 0.003027
25 0.002945
23 0.001986
24 0.002041
22 0.002999
24 0.00399
27 0.003992
34 0.002992
37 0.003036
36 0.003019
35 0.003045
41 0.002997
55 0.003044
64 0.002975
68 0.00298
76 0.001995
85 0.00299
90 0.003991
94 0.0
101 0.002
106 0.003025
98 0.002978
68 0.002992
49 0.003001
49 0.003006
56 0.003011
60 0.002991
65 0.002991
77 0.003035
92 0.002993
98 0.00399
102 0.003988
108 0.002993
116 0.003988
126 0.003991
134 0.00299
139 0.002992
144 0.002991
148 0.00399
155 0.003989
159 0.002992
162 0.002992
168 0.003989
171 0.003989
149 0.002991
112 0.003988
112 0.003002
116 0.003002
116 0.002953
119 0.00397
121 0.004031
123 0.003998
131 0.004023
130 0.00302
128 0.00399
131 0.003989
135 0.002988
148 0.004032
149 0.003011
150 0.003022
153 0.003987
160 0.003956
163 0.003964
175 0.003989
183 0.004024
168 0.004031
129 0.003989
123 0.003996
122 0.003036
125 0.00403
126 0.00303
132 0.003056
137 0.004041
148 0.004014
147 0.003948
148 0.00403
152 0.004027
155 0.00399
162 0.003986
167 0.003989
170 0.003037
171 0.019947
177 0.000996
181 0.003993
185 0.00403
186 0.004032
187 0.004022
171 0.003973
138 0.005032
121 0.004045
123 0.004027
125 0.00399
125 0.002991
126 0.003989
131 0.003966
135 0.004035
134 0.003948
134 0.004995
135 0.00403
139 0.004035
145 0.00399
151 0.004016
156 0.00399
163 0.0
156 0.004026
122 0.004032
110 0.004
113 0.004027
118 0.003988
120 0.004028
125 0.005025
127 0.004985
130 0.004026
128 0.004026
127 0.004014
134 0.005008
138 0.004038
140 0.004025
161 0.004025
164 0.004024
167 0.004028
169 0.00399
169 0.004988
184 0.005022
186 0.003977
189 0.003996
190 0.004032
163 0.004003
106 0.004038
88 0.004024
84 0.00399
81 0.003989
88 0.005031
91 0.004988
93 0.004987
100 0.004986
100 0.00398
104 0.003992
106 0.004025
109 0.004987
116 0.005026
136 0.004029
141 0.005039
144 0.003989
148 0.004988
147 0.004987
152 0.004987
161 0.004997
166 0.004028
152 0.003997
104 0.004032
78 0.005041
82 0.004988
97 0.003987
107 0.004041
109 0.004987
108 0.006039
109 0.005013
107 0.004986
116 0.00502
123 0.005013
134 0.004017
151 0.004023
159 0.005019
165 0.005021
170 0.003987
167 0.004032
160 0.005033
167 0.006013
177 0.005984
174 0.004986
151 0.0
92 0.004944
78 0.004986
85 0.004034
89 0.004986
95 0.004993
105 0.004036
116 0.00503
116 0.004987
114 0.005985
113 0.005939
119 0.004986
124 0.005025
138 0.004986
148 0.004056
152 0.003993
165 0.004987
169 0.004979
175 0.005024
180 0.005019
181 0.005014
187 0.005984
199 0.006027
206 0.004987
134 0.005025
105 0.00503
106 0.005012
106 0.005022
107 0.004986
95 0.005984
94 0.005985
101 0.004988
96 0.005985
99 0.0
104 0.006013
106 0.005984
121 0.006023
125 0.005025
139 0.005023
149 0.005033
154 0.005033
160 0.005984
162 0.005986
176 0.00498
178 0.004987
177 0.004986
185 0.006024
174 0.005966
96 0.006037
80 0.005022
79 0.005028
80 0.006021
81 0.005023
76 0.006019
83 0.006045
89 0.005023
82 0.00502
79 0.005037
79 0.005984
83 0.005974
103 0.006019
111 0.00498
116 0.004986
119 0.005984
131 0.005986
136 0.005983
140 0.005984
142 0.004987
144 0.005016
115 0.005018
74 0.005986
59 0.006025
62 0.005984
70 0.007026
67 0.005985
75 0.006032
81 0.005984
78 0.006019
85 0.005947
81 0.006014
80 0.005018
97 0.004986
107 0.005983
113 0.006015
130 0.006029
133 0.007031
140 0.005975
142 0.005983
126 0.005983
83 0.006014
47 0.006015
34 0.006007
45 0.006023
52 0.021941
40 0.000998
77 0.0
41 0.007015
29 0.007013
47 0.005984
60 0.006023
66 0.005986
73 0.006985
88 0.006981
100 0.006015
99 0.005985
99 0.006029
114 0.005984
129 0.005982
156 0.006971
168 0.006997
187 0.005991
176 0.006023
188 0.006025
181 0.006981
128 0.006976
110 0.022938
106 0.0
108 0.005987
114 0.006022
118 0.006982
132 0.006965
143 0.00697
136 0.00595
131 0.006014
137 0.006025
142 0.006949
148 0.006964
153 0.005972
164 0.005989
169 0.005968
167 0.006977
174 0.006974
183 0.00698
152 0.006992
87 0.00602
77 0.00598
80 0.005989
79 0.006992
80 0.006984
82 0.006976
84 0.006949
87 0.006943
83 0.007974
80 0.006989
78 0.006976
75 0.006973
75 0.006023
84 0.006005
84 0.005992
84 0.007979
80 0.006981
76 0.005994
78 0.007009
86 0.006982
96 0.00697
98 0.006977
26 0.006974
5 0.006974
14 0.006029
25 0.006
27 0.005978
32 0.006973
40 0.006967
51 0.005954
52 0.006984
50 0.006981
52 0.007976
56 0.007005
59 0.006987
65 0.006993
73 0.006985
80 0.006968
85 0.005983
88 0.006971
96 0.007973
99 0.006952
107 0.006982
119 0.00699
98 0.007943
52 0.007976
30 0.006968
42 0.0
44 0.006981
40 0.005976
46 0.006013
52 0.006987
58 0.007968
57 0.007959
57 0.007021
60 0.00798
65 0.001995
76 0.0
91 0.0
92 0.007938
92 0.006978
103 0.006018
109 0.007968
115 0.007977
95 0.00798
43 0.006988
33 0.006968
43 0.006986
43 0.007975
47 0.00704
51 0.007944
58 0.006946
73 0.007009
79 0.007962
72 0.007964
84 0.007969
92 0.00792
101 0.006975
109 0.007004
110 0.006981
115 0.007981
124 0.006985
133 0.007964
139 0.007988
140 0.007911
121 0.007972
74 0.007964
49 0.007945
53 0.00795
63 0.00702
55 0.007038
64 0.007022
72 0.007945
81 0.006964
89 0.007976
87 0.007984
97 0.0
115 0.002
121 0.00797
129 0.007972
135 0.007952
134 0.007025
147 0.006996
165 0.006971
166 0.007958
188 0.006963
200 0.007943
168 0.008976
107 0.0
111 0.007944
103 0.007935
100 0.007937
104 0.007979
124 0.006986
134 0.007015
96 0.007962
64 0.006967
61 0.006991
74 0.006978
98 0.006957
146 0.006977
186 0.006997
196 0.007965
201 0.007934
204 0.007959
201 0.007953
187 0.006987
175 0.073768
140 0.000999
127 0.0
178 0.0
24 0.005988
45 0.006984
43 0.006969
39 0.006999
60 0.006985
78 0.00697
84 0.006973
100 0.007039
118 0.006964
130 0.007969
136 0.007978
132 0.00701
75 0.006968
60 0.006981
75 0.006944
77 0.00699
63 0.00698
72 0.006993
84 0.006967
88 0.006975
90 0.008976
89 0.0
111 0.006949
116 0.006984
135 0.006973
133 0.006983
133 0.006954
143 0.006975
133 0.00696
87 0.006978
51 0.006972
43 0.006944
54 0.005935
57 0.005992
53 0.006994
52 0.006939
68 0.006983
76 0.006978
74 0.00697
67 0.006995
72 0.006984
71 0.006974
68 0.006015
72 0.005984
77 0.005968
80 0.00599
83 0.006972
87 0.007016
98 0.006997
74 0.006978
24 0.007006
8 0.006973
25 0.006956
38 0.000995
62 0.000993
95 0.006022
114 0.005964
118 0.005983
112 0.006973
114 0.006982
115 0.006976
116 0.006937
123 0.006976
133 0.006017
145 0.006971
159 0.005975
159 0.005997
168 0.005992
178 0.005984
160 0.005977
104 0.006991
76 0.006993
85 0.006964
91 0.006957
92 0.006982
98 0.006957
104 0.00597
108 0.005982
109 0.005965
106 0.005988
109 0.005981
120 0.005985
134 0.005971
142 0.005988
151 0.006985
157 0.008966
168 0.0
171 0.006031
133 0.005941
89 0.005984
82 0.005987
98 0.005968
103 0.005967
109 0.00597
127 0.006004
138 0.004957
137 0.006983
125 0.005967
130 0.005968
145 0.005987
156 0.005982
171 0.005997
182 0.005987
190 0.005936
193 0.00597
198 0.005984
206 0.005987
197 0.005974
149 0.006008
113 0.00501
116 0.005986
126 0.005982
126 0.005992
126 0.006001
129 0.005987
139 0.005938
147 0.005961
150 0.006007
148 0.025944
151 0.000998
173 0.004987
179 0.005984
184 0.005984
192 0.005985
197 0.005984
205 0.006025
215 0.006013
218 0.006013
200 0.005984
121 0.004984
116 0.005
121 0.004982
125 0.005021
125 0.005027
125 0.006016
137 0.006033
146 0.006021
143 0.006033
143 0.006023
152 0.00599
159 0.006023
164 0.010972
173 0.000995
70 0.0
73 0.005026
75 0.005021
84 0.004981
88 0.00503
86 0.006025
85 0.006038
94 0.005979
100 0.006044
104 0.005019
115 0.004996
124 0.00498
140 0.00505
146 0.005012
153 0.005033
151 0.004987
103 0.004989
71 0.00503
73 0.006021
90 0.006021
94 0.005044
96 0.005019
110 0.004985
117 0.004974
122 0.005026
126 0.004987
134 0.005031
139 0.004987
146 0.004987
151 0.010971
156 0.0
164 0.000993
175 0.005027
185 0.004985
199 0.005014
204 0.004988
209 0.005015
185 0.00503
115 0.003974
101 0.003988
109 0.004987
119 0.005017
127 0.004985
133 0.004036
139 0.005019
147 0.005024
154 0.00499
153 0.004958
154 0.004983
160 0.004991
167 0.004987
162 0.005023
162 0.004979
171 0.005
174 0.004014
178 0.004036
186 0.003991
191 0.003985
200 0.00499
175 0.004987
121 0.004987
97 0.005016
98 0.005021
107 0.005022
109 0.01197
112 0.0
116 0.003989
124 0.00399
129 0.003989
127 0.004025
124 0.004955
126 0.004995
130 0.00504
133 0.003931
136 0.004995
141 0.005021
147 0.00399
145 0.004019
147 0.003982
156 0.00399
164 0.004025
142 0.004027
58 0.003931
55 0.003989
71 0.004987
81 0.004986
93 0.004019
114 0.004969
140 0.004031
148 0.004008
147 0.004017
150 0.004032
152 0.004015
162 0.004034
168 0.003951
173 0.00399
176 0.004987
176 0.027011
175 0.0
187 0.003989
182 0.004016
150 0.004014
110 0.004035
91 0.003975
89 0.00399
90 0.003957
99 0.003956
109 0.003989
117 0.003971
120 0.003985
120 0.004023
123 0.004014
127 0.003961
138 0.00399
148 0.003989
155 0.003989
162 0.004015
167 0.00399
170 0.003979
174 0.003989
177 0.00403
182 0.003025
145 0.003021
85 0.004026
76 0.003991
82 0.004042
84 0.00399
84 0.003991
86 0.003991
87 0.00399
73 0.002967
64 0.004023
61 0.002993
61 0.002993
68 0.003026
71 0.002993
78 0.004036
86 0.004019
93 0.003951
97 0.004024
101 0.004037
106 0.003992
108 0.00399
63 0.002992
14 0.002982
0 0.002992
3 0.002992
12 0.002993
13 0.003041
11 0.004028
12 0.004005
15 0.003991
20 0.003949
19 0.012967
13 0.0
10 0.000997
26 0.0
20 0.00199
36 0.002993
31 0.002999
29 0.002991
34 0.003991
43 0.003021
63 0.00399
74 0.002993
90 0.002949
101 0.003031
103 0.002992
101 0.002993
95 0.002992
39 0.002008
10 0.003024
9 0.002993
19 0.002992
22 0.002992
20 0.003038
27 0.003028
36 0.002961
37 0.012965
39 0.000966
40 0.002991
45 0.002992
60 0.002996
76 0.002992
88 0.002978
102 0.003952
112 0.001995
107 0.00303
110 0.002992
111 0.002952
62 0.002993
24 0.002992
19 0.002992
38 0.002992
38 0.004039
40 0.002993
46 0.002993
51 0.002993
52 0.001995
53 0.001994
51 0.002994
61 0.002992
65 0.002993
72 0.002992
80 0.002991
88 0.002993
99 0.002993
100 0.002993
98 0.002993
108 0.002993
119 0.001989
117 0.013963
108 0.000997
24 0.002993
29 0.002992
40 0.002995
43 0.002995
47 0.002992
57 0.002993
66 0.002992
71 0.001993
69 0.002022
67 0.003022
72 0.002993
86 0.002039
105 0.001995
116 0.002994
121 0.002993
123 0.002992
126 0.002991
137 0.001993
148 0.001996
121 0.001992
75 0.001995
62 0.002044
80 0.001994
79 0.002051
71 0.00204
92 0.001995
110 0.001995
115 0.002993
113 0.00299
117 0.003029
124 0.001983
135 0.0
144 0.0
145 0.001995
141 0.00196
143 0.001995
155 0.002026
160 0.001964
162 0.001995
163 0.001995
125 0.001993
79 0.001995
66 0.002055
74 0.001995
80 0.001997
85 0.002049
90 0.002042
101 0.001995
102 0.001986
105 0.002033
105 0.001026
108 0.00195
113 0.000996
117 0.000964
121 0.001993
124 0.001993
132 0.001995
143 0.001951
154 0.002001
167 0.001955
179 0.001991
192 0.002
193 0.001946
192 0.014957
176 0.0
96 0.00105
87 0.001994
95 0.002002
100 0.001995
102 0.001953
106 0.001989
112 0.001951
123 0.002
119 0.001987
116 0.001968
120 0.000987
131 0.000965
144 0.000959
154 0.00098
153 0.001015
161 0.001998
176 0.001942
188 0.001966
182 0.001995
185 0.001969
199 0.001
190 0.001004
143 0.000965
103 0.001004
100 0.000994
119 0.000991
122 0.000986
120 0.001006
127 0.00098
132 0.001959
137 0.001946
139 0.02589
131 0.000997
142 0.000949
144 0.0
178 0.0
125 0.000999
129 0.000967
140 0.000995
151 0.000997
153 0.000997
151 0.001011
150 0.001016
158 0.00198
164 0.000955
173 0.000952
177 0.000992
182 0.000984
191 0.000994
198 0.000996
203 0.00098
210 0.001018
202 0.000985
168 0.0
95 0.0
87 0.000993
84 0.001029
84 0.001014
88 0.001013
93 0.000997
93 0.001009
91 0.000997
96 0.001021
104 0.000956
114 0.0
120 0.0
120 0.000993
128 0.000954
132 0.000965
140 0.001001
142 0.000997
142 0.001001
134 0.000998
67 0.000997
30 0.000996
32 0.001037
37 0.0
36 0.0
35 0.0
39 0.0
41 0.0
39 0.0
34 0.001001
31 0.00099
34 0.000971
40 0.0
44 0.0
49 0.0
63 0.0
72 0.0
77 0.0
87 0.0
94 0.0
62 0.0
6 0.0
0 0.000994
0 0.00099
0 0.000992
1 0.00103
14 0.0
25 0.0
39 0.0
47 0.0
54 0.0
60 0.0
73 0.0
84 0.0
93 0.0
103 0.0
105 0.001014
116 0.0
113 0.0
115 0.0
89 0.0
45 0.0
32 0.0
41 0.0
43 0.015961
48 0.0
58 0.0
64 0.000961
67 0.0
69 0.0
70 0.0
75 0.0
87 0.0
97 0.0
108 0.0
110 0.0
118 0.0
126 0.0
135 0.000968
141 0.0
118 0.0
65 0.001007
44 0.0
54 0.0
63 0.0
71 0.0
79 0.0
85 0.0
92 0.0
94 0.000942
92 0.000958
93 0.0
97 0.000972
102 0.001009
110 0.0
118 0.0
122 0.0
127 0.0
134 0.0
141 0.0
147 0.000952
149 0.000964
115 0.0
63 0.0
41 0.0
46 0.000994
53 0.000996
55 0.0
56 0.0
59 0.0
70 0.0
71 0.0
66 0.000959
68 0.000961
81 0.0
88 0.0
96 0.0
101 0.001
105 0.000976
107 0.0
114 0.000974
115 0.0
128 0.0
110 0.0
54 0.000993
37 0.000997
55 0.0
66 0.0
73 0.0
85 0.001006
89 0.016955
98 0.000994
110 0.0
146 0.0
152 0.0
154 0.0
161 0.000953
168 0.00201
172 0.0
142 0.0
95 0.0
80 0.000961
87 0.0
96 0.000999
103 0.000994
103 0.0
106 0.0
112 0.0
113 0.000998
112 0.000998
116 0.0
119 0.0
125 0.0
135 0.000998
142 0.000996
149 0.002003
153 0.001958
158 0.0
164 0.0
177 0.000993
164 0.000998
97 0.000998
74 0.000998
80 0.000997
86 0.000997
87 0.000998
88 0.001995
85 0.001995
92 0.000998
91 0.000998
85 0.0
86 0.000997
91 0.000991
96 0.000997
102 0.000998
106 0.000999
115 0.000999
119 0.000998
120 0.001988
124 0.001989
132 0.000997
140 0.0
105 0.0
57 0.001003
42 0.000996
52 0.000999
59 0.000996
66 0.000998
74 0.000996
81 0.001995
86 0.0
94 0.0
96 0.001994
109 0.000998
126 0.000998
137 0.0
148 0.001994
158 0.000999
162 0.000996
162 0.000997
173 0.000997
157 0.000998
110 0.000997
84 0.001994
87 0.001985
101 0.000997
102 0.000996
107 0.000998
114 0.001003
120 0.001996
121 0.0
120 0.017953
124 0.000993
132 0.000998
138 0.000999
144 0.001996
154 0.002995
160 0.000999
165 0.000999
167 0.000997
167 0.002987
171 0.002992
138 0.000999
91 0.000996
79 0.000994
90 0.000997
96 0.000996
95 0.001995
100 0.00199
107 0.000997
112 0.000995
113 0.001993
105 0.002988
102 0.002993
109 0.000998
114 0.000995
123 0.000992
128 0.000997
128 0.001003
127 0.001994
129 0.00199
136 0.0
116 0.0
47 0.001994
34 0.002992
42 0.002998
43 0.001995
44 0.000998
46 0.001026
56 0.001005
58 0.001003
49 0.001999
50 0.001995
60 0.00097
65 0.000998
74 0.001995
79 0.002953
81 0.002992
86 0.001967
92 0.001963
94 0.000999
79 0.000987
35 0.001029
10 0.001994
16 0.002992
32 0.000998
38 0.000982
44 0.002008
55 0.003039
62 0.003027
64 0.002032
59 0.001953
64 0.001996
73 0.001042
78 0.001031
86 0.002032
95 0.003033
101 0.001979
107 0.002008
113 0.001995
122 0.003001
92 0.002991
43 0.002038
39 0.001989
45 0.01895
56 0.000997
58 0.001005
65 0.003018
75 0.002993
75 0.001992
79 0.001979
78 0.001989
82 0.003034
94 0.002992
98 0.01895
97 0.0
98 0.0
100 0.001996
95 0.004027
95 0.004016
92 0.001995
32 0.002018
0 0.001993
0 0.002996
0 0.00299
0 0.002009
0 0.001985
0 0.002036
0 0.002032
17 0.001997
26 0.00403
42 0.004023
58 0.002021
69 0.001996
74 0.001993
81 0.002992
97 0.003021
103 0.002
114 0.001993
127 0.001996
124 0.001995
110 0.002994
67 0.00399
22 0.003989
15 0.002031
36 0.001995
58 0.002031
57 0.00302
55 0.002983
76 0.001996
81 0.002965
81 0.002993
99 0.003035
91 0.002992
74 0.003989
89 0.003989
118 0.001993
105 0.003035
86 0.002032
100 0.003001
123 0.002997
77 0.002005
32 0.002004
37 0.002939
46 0.002995
50 0.003002
54 0.003989
62 0.003984
74 0.002992
73 0.003044
70 0.002033
74 0.003025
83 0.00399
94 0.001995
96 0.002006
106 0.003007
106 0.003015
116 0.002994
120 0.003034
110 0.00399
69 0.003993
38 0.002989
42 0.002989
46 0.002031
52 0.005029
56 0.003998
63 0.00199
67 0.00399
68 0.002991
68 0.003048
71 0.002998
75 0.004003
75 0.00399
90 0.003029
93 0.003019
91 0.003991
95 0.003995
97 0.004997
93 0.020944
67 0.0
32 0.002985
38 0.00297
33 0.002992
29 0.003989
37 0.003989
57 0.002993
62 0.003025
52 0.003026
45 0.004945
53 0.005035
70 0.002983
69 0.003997
65 0.003
69 0.002997
76 0.003005
85 0.003962
90 0.004033
35 0.003048
0 0.003034
57 0.002985
67 0.004986
73 0.004987
84 0.002995
85 0.00399
84 0.003009
87 0.002987
85 0.003015
88 0.004025
100 0.004019
103 0.003034
106 0.003999
121 0.0
141 0.004024
141 0.002955
140 0.004987
123 0.00394
91 0.002948
81 0.002992
84 0.004047
90 0.003988
98 0.00302
104 0.004036
112 0.003
118 0.004029
119 0.004998
115 0.003005
115 0.004986
119 0.003029
128 0.002998
131 0.002993
131 0.00399
128 0.004023
132 0.003989
132 0.00399
135 0.002998
118 0.005019
91 0.005021
88 0.00301
100 0.004992
107 0.002983
111 0.003025
111 0.003989
108 0.004987
110 0.000996
115 0.0
140 0.003996
143 0.003042
129 0.003
99 0.005024
91 0.00502
99 0.003972
107 0.004002
114 0.003003
116 0.004985
121 0.005012
115 0.004059
103 0.004988
112 0.004033
131 0.003002
145 0.004017
156 0.005984
164 0.005016
171 0.003986
177 0.003965
178 0.003017
173 0.004989
128 0.005015
79 0.004025
89 0.004978
110 0.005022
109 0.0
126 0.005984
135 0.005985
135 0.003989
144 0.003985
154 0.003992
165 0.00496
171 0.005021
175 0.004027
172 0.004986
184 0.004041
193 0.00501
158 0.003949
115 0.006021
103 0.005984
126 0.004018
127 0.003997
127 0.004012
139 0.005011
157 0.005012
158 0.003994
158 0.004987
152 0.004986
166 0.005037
166 0.005027
168 0.005985
172 0.005986
179 0.004025
179 0.004019
159 0.004026
104 0.004985
70 0.004981
81 0.003985
99 0.005984
102 0.004956
110 0.005022
113 0.005026
112 0.005985
104 0.005986
105 0.005018
110 0.003975
114 0.00398
120 0.005018
129 0.005023
141 0.004009
152 0.005988
98 0.004982
57 0.004947
51 0.004985
63 0.005984
74 0.005986
78 0.005033
86 0.004986
92 0.004016
98 0.003975
93 0.005013
93 0.00498
102 0.006017
108 0.00603
113 0.004988
118 0.004981
123 0.004996
125 0.006015
108 0.005984
58 0.005984
22 0.002016
23 0.000953
33 0.005022
33 0.006013
36 0.006007
41 0.005984
47 0.004986
48 0.021991
44 0.0
43 0.006014
56 0.005983
68 0.004046
82 0.004005
91 0.005018
94 0.005975
97 0.006981
66 0.007001
14 0.005984
0 0.005014
0 0.004959
13 0.004987
12 0.006025
8 0.005986
19 0.004017
7 0.004025
0 0.006043
0 0.005988
0 0.006947
33 0.006954
42 0.00698
41 0.005005
47 0.005004
44 0.005984
39 0.0
35 0.005983
37 0.005026
35 0.005034
0 0.007021
0 0.006982
0 0.006982
0 0.006976
0 0.004992
1 0.004993
8 0.005022
26 0.005923
37 0.00599
30 0.005956
38 0.005997
46 0.005007
60 0.006988
75 0.006969
86 0.006999
93 0.006967
96 0.004987
99 0.005029
110 0.00499
91 0.006986
44 0.006942
29 0.005974
54 0.005988
70 0.005952
81 0.006939
96 0.006963
99 0.006946
103 0.007001
86 0.0
101 0.006007
115 0.006927
121 0.005959
125 0.004987
136 0.003987
141 0.00697
136 0.006974
92 0.006978
41 0.006979
24 0.004968
27 0.004998
33 0.005957
34 0.006999
36 0.00696
48 0.005992
57 0.00602
62 0.005981
56 0.006964
56 0.00698
72 0.006945
84 0.006983
93 0.005987
100 0.004973
108 0.00599
117 0.007974
129 0.007945
145 0.005998
138 0.005994
82 0.005989
25 0.006957
10 0.006958
18 0.022937
18 0.001028
14 0.0
9 0.006982
16 0.00698
32 0.007956
39 0.007984
39 0.005957
50 0.005997
69 0.005962
70 0.006967
65 0.006941
77 0.006971
80 0.006945
92 0.007
105 0.006981
114 0.007006
116 0.007952
87 0.007943
28 0.00594
30 0.005987
46 0.005989
54 0.006968
56 0.00697
64 0.006973
67 0.006979
67 0.007001
66 0.00699
67 0.006993
77 0.00795
86 0.007969
94 0.005974
112 0.005961
124 0.007983
138 0.000997
163 0.007979
160 0.007973
99 0.007015
75 0.006985
84 0.00694
94 0.007979
97 0.007006
106 0.006979
112 0.00601
123 0.00602
133 0.005987
131 0.007948
134 0.006968
142 0.007958
142 0.007966
150 0.007005
159 0.006981
164 0.007025
170 0.007937
175 0.00797
182 0.00604
195 0.005973
201 0.005969
182 0.006996
104 0.00698
81 0.007978
82 0.007978
81 0.00698
81 0.006967
80 0.006991
92 0.007982
92 0.02393
101 0.0
107 0.000993
106 0.007015
100 0.006981
107 0.007988
117 0.007971
118 0.006994
116 0.007007
115 0.006987
120 0.007933
132 0.007966
128 0.006999
129 0.006019
78 0.006971
41 0.006989
58 0.006976
77 0.007979
77 0.007965
74 0.006991
81 0.006993
81 0.006994
89 0.007982
90 0.007996
88 0.006976
102 0.006981
109 0.006989
120 0.006982
127 0.006969
129 0.006985
140 0.006946
150 0.006986
154 0.006953
168 0.006976
141 0.006984
98 0.006982
86 0.006933
86 0.007004
86 0.007013
89 0.006991
103 0.006972
115 0.006976
123 0.006952
119 0.006984
110 0.006991
121 0.007003
142 0.007975
151 0.007965
172 0.006972
185 0.006989
194 0.00698
204 0.00698
213 0.006986
194 0.006973
138 0.006968
111 0.006953
126 0.006967
134 0.006987
137 0.007949
140 0.006986
145 0.006983
155 0.007004
156 0.006971
153 0.006989
156 0.006947
164 0.006999
163 0.007024
172 0.00698
178 0.006971
179 0.006024
187 0.00695
193 0.006971
191 0.006947
190 0.000949
169 0.001001
106 0.006983
114 0.006973
121 0.007004
124 0.006981
120 0.006968
123 0.006014
122 0.005972
117 0.006966
129 0.006948
148 0.006985
156 0.007024
158 0.006975
165 0.006959
168 0.006979
168 0.005979
168 0.006983
165 0.005965
166 0.005985
125 0.005941
73 0.00598
63 0.007016
74 0.006983
76 0.007009
73 0.007009
76 0.00698
93 0.007
102 0.006978
93 0.006992
97 0.005977
115 0.005983
121 0.005979
120 0.005991
122 0.006019
126 0.006989
126 0.006982
141 0.006987
151 0.006972
119 0.00697
74 0.006984
72 0.005983
88 0.00603
93 0.005979
90 0.00598
107 0.005964
123 0.006952
131 0.005985
137 0.00697
141 0.007004
149 0.006977
147 0.00698
142 0.005949
160 0.005964
167 0.005975
178 0.005973
185 0.005986
186 0.00597
132 0.005943
93 0.005987
85 0.005988
93 0.00598
102 0.006009
108 0.006
124 0.005951
140 0.00596
146 0.008973
140 0.005986
143 0.005972
152 0.00598
158 0.005971
162 0.005986
163 0.005976
164 0.005986
183 0.005028
189 0.005985
183 0.005978
172 0.005974
111 0.006037
90 0.005975
102 0.005991
110 0.005971
101 0.00597
99 0.005988
109 0.005986
119 0.005976
123 0.004983
116 0.004956
114 0.005937
125 0.005972
131 0.005945
138 0.005985
142 0.005961
144 0.006001
150 0.00597
153 0.005946
143 0.005951
141 0.004991
65 0.005029
31 0.00503
36 0.005034
44 0.006022
49 0.005992
64 0.005983
76 0.005976
86 0.005941
96 0.005967
95 0.005017
102 0.005022
120 0.004983
131 0.005017
146 0.00502
151 0.005024
155 0.00602
163 0.005994
157 0.006023
158 0.006017
123 0.006012
84 0.005986
78 0.006024
83 0.004983
90 0.004981
96 0.005023
84 0.004988
87 0.00502
96 0.004992
82 0.004982
80 0.00596
94 0.005994
99 0.006007
100 0.004993
117 0.00498
130 0.004977
135 0.004995
144 0.005037
144 0.004989
113 0.004988
74 0.005014
66 0.004999
77 0.004962
82 0.004969
77 0.004992
82 0.004985
97 0.004984
118 0.004981
119 0.004976
124 0.004997
130 0.005016
146 0.005015
151 0.005017
152 0.004977
155 0.004952
167 0.004012
165 0.003992
160 0.004985
130 0.004994
75 0.004952
53 0.00499
82 0.005023
78 0.005021
83 0.005015
98 0.004026
108 0.004991
112 0.004988
126 0.005004
123 0.004033
136 0.003978
146 0.010966
146 0.000962
145 0.000991
160 0.004991
166 0.004989
170 0.005023
163 0.005032
95 0.004978
67 0.003988
69 0.003965
75 0.003989
79 0.003997
81 0.00497
86 0.005043
85 0.004986
73 0.005029
65 0.005028
65 0.005024
79 0.00399
101 0.004997
103 0.004021
105 0.003989
120 0.00399
126 0.003995
133 0.003991
141 0.004995
138 0.004972
79 0.005023
33 0.005019
25 0.004985
38 0.005017
42 0.00396
46 0.003979
52 0.003952
52 0.003996
53 0.003956
47 0.003952
46 0.003956
55 0.003989
61 0.005016
59 0.005055
63 0.005024
76 0.003986
97 0.003996
99 0.003985
106 0.004022
120 0.003944
96 0.00398
34 0.003985
28 0.003978
37 0.003949
53 0.004025
57 0.004046
70 0.003991
80 0.003963
81 0.003986
81 0.004026
88 0.00403
96 0.004026
105 0.003976
119 0.004024
131 0.003985
141 0.003991
139 0.00399
140 0.001029
142 0.004032
100 0.003989
60 0.004007
55 0.004016
64 0.003962
71 0.003945
76 0.003937
91 0.00397
103 0.004011
113 0.00396
116 0.002995
124 0.002994
137 0.004041
140 0.003978
142 0.003992
152 0.003964
158 0.003988
167 0.003993
178 0.003958
189 0.003963
162 0.003989
108 0.003948
92 0.002993
103 0.002991
102 0.004028
100 0.003986
102 0.003975
102 0.003957
99 0.003954
103 0.003964
106 0.003984
114 0.003965
120 0.003951
126 0.003027
143 0.003955
149 0.002993
151 0.002995
150 0.002992
150 0.00399
154 0.00399
111 0.003994
64 0.00395
51 0.003962
60 0.003992
74 0.003983
79 0.003028
87 0.002993
91 0.002991
95 0.002992
92 0.002955
92 0.003949
96 0.003998
101 0.003946
104 0.003965
114 0.003961
117 0.003995
129 0.00299
130 0.003
136 0.002994
98 0.002993
57 0.003037
55 0.003949
72 0.002967
87 0.003947
93 0.002993
105 0.004005
110 0.003945
113 0.003003
111 0.002991
108 0.001967
119 0.003041
123 0.002993
127 0.002992
140 0.003029
147 0.003035
155 0.002988
163 0.002973
164 0.004004
149 0.002981
100 0.002957
64 0.002946
76 0.003002
87 0.002993
93 0.002994
103 0.003021
105 0.003
108 0.002988
111 0.003001
106 0.001994
110 0.002994
120 0.003026
129 0.002964
129 0.002949
138 0.002998
142 0.002975
154 0.002992
159 0.002979
158 0.002975
132 0.002994
69 0.002991
55 0.003988
67 0.001988
74 0.002956
81 0.002992
90 0.002949
95 0.002984
101 0.002993
95 0.002992
93 0.003006
99 0.002033
106 0.002988
112 0.003955
119 0.002029
123 0.001953
130 0.001969
136 0.002961
139 0.002963
148 0.002987
150 0.003028
112 0.001992
61 0.003004
41 0.002989
56 0.002006
65 0.001998
66 0.001996
76 0.001985
78 0.001999
79 0.002008
84 0.002966
77 0.002984
87 0.002991
89 0.002994
91 0.002993
100 0.003002
108 0.001994
111 0.002011
119 0.001969
125 0.001995
128 0.002013
104 0.001999
44 0.002934
37 0.001966
62 0.003018
67 0.00299
79 0.002003
90 0.001983
91 0.001995
92 0.002004
87 0.001987
87 0.001978
99 0.001961
103 0.001951
100 0.001959
108 0.001991
106 0.002993
116 0.001995
127 0.00198
131 0.001995
117 0.001994
60 0.002044
45 0.001994
57 0.002008
64 0.00202
60 0.001924
69 0.002006
81 0.001969
93 0.002033
93 0.001
89 0.002006
93 0.001995
93 0.001988
90 0.001999
94 0.001966
110 0.001988
130 0.002005
142 0.001995
145 0.001968
148 0.001999
129 0.001024
65 0.000997
49 0.000984
62 0.000963
75 0.001984
81 0.00199
86 0.001972
93 0.001955
98 0.001995
95 0.001978
90 0.001995
98 0.002004
107 0.000997
114 0.000997
115 0.000958
121 0.001
124 0.000996
125 0.00099
132 0.001996
138 0.001995
139 0.001965
99 0.001974
52 0.001978
38 0.000996
53 0.000974
56 0.001002
61 0.000996
66 0.000986
72 0.001948
73 0.000999
68 0.001958
67 0.002002
75 0.001969
79 0.002001
86 0.001989
93 0.001983
100 0.001009
101 0.000989
100 0.000978
109 0.001006
107 0.001
56 0.000979
20 0.000996
27 0.001008
37 0.002003
43 0.001961
51 0.000983
66 0.000988
74 0.000999
75 0.000987
75 0.00096
81 0.001004
86 0.000989
91 0.000994
100 0.000993
110 0.001951
115 0.001981
116 0.000999
121 0.000962
119 0.000999
102 0.000995
36 0.000979
27 0.000994
41 0.000999
53 0.000999
66 0.001042
75 0.000974
79 0.0
94 0.001979
96 0.000993
81 0.001016
78 0.000979
76 0.000964
94 0.001036
105 0.000995
114 0.000987
133 0.000957
140 0.00096
140 0.002951
147 0.000997
157 0.000977
166 0.0
161 0.0
112 0.001005
48 0.001018
33 0.000998
39 0.001035
48 0.000986
63 0.0
91 0.000989
121 0.000969
124 0.0
115 0.0
99 0.0
95 0.0
94 0.000998
88 0.000988
101 0.00101
119 0.000994
126 0.000983
129 0.000968
126 0.000993
124 0.0
120 0.0
84 0.0
32 0.0
18 0.0
49 0.000997
54 0.0
41 0.000999
46 0.000993
50 0.001
50 0.0
47 0.000993
61 0.0
64 0.0
65 0.0
77 0.0
101 0.0
107 0.0
108 0.0
111 0.001001
110 0.001007
73 0.0
35 0.0
26 0.0
33 0.0
32 0.0
39 0.0
51 0.0
56 0.0
64 0.0
63 0.0
67 0.0
79 0.0
87 0.000999
94 0.0
102 0.0
106 0.0
111 0.0
119 0.0
120 0.0
117 0.0
64 0.0
24 0.0
35 0.0
47 0.000958
47 0.001013
55 0.0
64 0.0
70 0.0
77 0.0
77 0.0
74 0.0
77 0.0
81 0.0
91 0.0
96 0.0
100 0.000979
106 0.000997
116 0.0
123 0.0
124 0.0
86 0.000986
32 0.000994
19 0.000968
30 0.000993
31 0.000958
37 0.0
42 0.0
48 0.001996
54 0.002005
48 0.0
46 0.0
53 0.0
57 0.0
64 0.00099
68 0.000965
74 0.000954
80 0.000997
85 0.000955
90 0.0
96 0.002008
102 0.001975
41 0.0
6 0.0
9 0.0
19 0.000962
24 0.000975
36 0.0
43 0.0
52 0.000977
61 0.000946
54 0.0
57 0.002005
65 0.002018
75 0.0
87 0.0
94 0.0
100 0.001015
103 0.0
116 0.0
120 0.0
123 0.0
55 0.000956
33 0.001002
40 0.001996
50 0.002001
56 0.0
66 0.0
67 0.0
74 0.001956
79 0.002031
75 0.0
79 0.0
85 0.0
86 0.000997
102 0.000997
105 0.000998
110 0.000971
124 0.0
132 0.0
139 0.0
150 0.001957
158 0.001995
89 0.0
52 0.0
52 0.0
74 0.0
73 0.000968
78 0.001991
91 0.000962
95 0.000964
102 0.0
98 0.0
94 0.001952
105 0.002006
110 0.0
118 0.0
130 0.00096
135 0.0
142 0.0
149 0.001006
147 0.001009
153 0.000987
155 0.0
159 0.0
166 0.001992
127 0.002
58 0.0
55 0.0
66 0.0
74 0.0
76 0.0
81 0.000999
89 0.001001
98 0.000998
92 0.000975
80 0.0
86 0.001958
97 0.001999
94 0.0
82 0.0
113 0.0
177 0.0
182 0.0
156 0.000997
135 0.000989
101 0.0
81 0.000969
77 0.0
86 0.001996
106 0.001957
132 0.0
142 0.0
145 0.0
157 0.0
163 0.000995
164 0.000994
168 0.001008
161 0.000962
163 0.0
165 0.002
164 0.001965
163 0.002023
165 0.0
179 0.0
198 0.0
173 0.002001
105 0.0
94 0.001999
105 0.00199
118 0.0
128 0.0
146 0.000994
163 0.001967
169 0.001955
161 0.001039
167 0.00097
178 0.000998
189 0.002024
185 0.000963
178 0.002015
188 0.001992
194 0.001994
186 0.0
168 0.001992
126 0.001965
113 0.001965
123 0.000997
125 0.001028
115 0.001027
108 0.001027
135 0.000983
147 0.000998
156 0.001993
151 0.003015
153 0.002
163 0.001993
177 0.00198
173 0.001955
161 0.002009
189 0.001993
179 0.001025
137 0.001025
77 0.000992
59 0.001001
63 0.001999
76 0.002984
79 0.002025
74 0.00199
71 0.001996
71 0.001997
66 0.001964
50 0.002022
61 0.001
94 0.001027
107 0.001998
96 0.000997
87 0.002989
95 0.002945
116 0.001999
112 0.000963
63 0.001993
25 0.002046
23 0.001995
48 0.002001
60 0.001994
72 0.001009
88 0.000995
92 0.000993
92 0.003027
92 0.003004
103 0.001002
108 0.000997
115 0.001997
123 0.003009
129 0.002984
140 0.001989
143 0.001988
115 0.002001
54 0.001993
56 0.00103
67 0.002969
77 0.002993
84 0.000999
92 0.000998
99 0.000996
102 0.002985
98 0.002996
93 0.001996
100 0.001995
102 0.001989
106 0.001972
110 0.001029
118 0.002968
121 0.00303
107 0.000982
59 0.000989
26 0.000997
25 0.002991
33 0.002987
38 0.002001
40 0.001957
44 0.002036
49 0.001994
49 0.000998
41 0.002976
45 0.002993
48 0.001991
46 0.000986
53 0.000986
59 0.002987
54 0.003006
72 0.002005
75 0.001981
69 0.002035
6 0.001967
0 0.002008
8 0.002987
15 0.00301
14 0.000995
22 0.001006
27 0.000991
30 0.003996
33 0.002992
26 0.000971
29 0.002005
42 0.00201
50 0.002017
54 0.002028
59 0.002991
71 0.002986
89 0.00099
95 0.000997
86 0.000977
37 0.002997
2 0.003988
7 0.001966
20 0.001995
23 0.001995
29 0.00199
39 0.001995
48 0.003009
49 0.00299
54 0.000971
62 0.001012
69 0.000995
72 0.002996
83 0.004028
84 0.019914
94 0.000938
119 0.0
124 0.001991
86 0.002001
51 0.003028
47 0.003029
65 0.001991
69 0.000997
72 0.001995
81 0.003987
89 0.003989
95 0.001996
93 0.001948
91 0.001961
105 0.002005
110 0.001974
116 0.003985
124 0.002926
128 0.001973
135 0.001979
144 0.001994
147 0.003988
150 0.003986
113 0.00197
68 0.002009
62 0.001995
79 0.001992
81 0.001964
82 0.003993
96 0.00399
99 0.002966
102 0.002993
107 0.001995
97 0.003996
109 0.003995
117 0.001959
123 0.001989
134 0.002005
136 0.001995
145 0.001003
152 0.003989
152 0.003021
159 0.002949
163 0.001956
149 0.001962
98 0.004025
66 0.00398
65 0.001994
77 0.001966
79 0.001944
86 0.001987
92 0.001997
89 0.002029
94 0.003994
88 0.003989
93 0.002992
97 0.002988
99 0.001968
103 0.003986
109 0.003977
115 0.001978
120 0.00199
129 0.00199
134 0.001995
138 0.001988
115 0.004975
66 0.004968
52 0.002052
66 0.001994
82 0.002002
90 0.00399
96 0.00399
113 0.001991
117 0.002958
115 0.001993
117 0.001995
123 0.002992
133 0.004985
141 0.004991
147 0.002962
150 0.001994
154 0.001972
159 0.004022
160 0.003995
162 0.003
130 0.00199
78 0.001995
83 0.002973
99 0.002963
103 0.004986
108 0.00497
118 0.001987
121 0.002992
125 0.001994
123 0.004987
117 0.005025
128 0.002998
134 0.001962
146 0.002998
152 0.002962
158 0.003004
161 0.004982
168 0.004986
171 0.001993
180 0.002992
149 0.002991
99 0.004987
81 0.004991
99 0.00299
97 0.002988
112 0.00303
110 0.00303
117 0.003018
123 0.004977
116 0.005031
123 0.002983
124 0.002986
130 0.002994
144 0.004983
142 0.004987
155 0.002999
155 0.003979
166 0.002974
170 0.003035
168 0.002964
174 0.004985
142 0.005002
82 0.002937
75 0.002961
86 0.002984
90 0.00497
94 0.004973
94 0.003986
102 0.002964
107 0.002993
105 0.002992
101 0.002992
106 0.005031
120 0.004991
128 0.002998
124 0.002973
136 0.002988
144 0.004986
143 0.005009
149 0.003961
148 0.003992
147 0.00304
101 0.00303
55 0.002992
55 0.005013
70 0.004986
80 0.002991
89 0.00304
97 0.002969
104 0.005984
104 0.006015
96 0.00399
98 0.00399
111 0.003953
115 0.002991
130 0.003023
136 0.004969
143 0.004975
149 0.003017
149 0.003977
157 0.004012
159 0.005967
132 0.005973
76 0.003997
72 0.003991
84 0.002945
86 0.004
87 0.003037
97 0.00499
106 0.004949
106 0.003024
106 0.003029
104 0.003975
109 0.005987
118 0.005982
125 0.003993
134 0.003982
137 0.003999
146 0.004007
150 0.002991
157 0.005015
163 0.004977
160 0.00303
117 0.00402
72 0.003987
55 0.005983
67 0.005952
77 0.003991
83 0.00399
89 0.003006
101 0.00303
102 0.002992
99 0.005013
98 0.004986
103 0.004002
112 0.003988
119 0.003995
121 0.005981
131 0.005949
133 0.004987
138 0.003961
149 0.003019
152 0.003044
163 0.003031
164 0.005041
154 0.005998
87 0.003986
63 0.003976
69 0.003994
82 0.005937
85 0.005966
89 0.00399
97 0.00399
107 0.003987
100 0.002996
94 0.003052
99 0.003994
104 0.005983
111 0.005987
120 0.003992
126 0.004986
129 0.004008
131 0.005979
133 0.006017
135 0.003982
141 0.005977
143 0.003026
151 0.003993
96 0.003989
48 0.006981
47 0.006978
60 0.003994
69 0.004999
71 0.004986
71 0.005983
77 0.005979
77 0.003986
61 0.005993
59 0.003985
59 0.004983
64 0.004979
75 0.006973
75 0.006982
85 0.00402
75 0.004984
74 0.004977
76 0.005978
76 0.005971
61 0.00395
8 0.005995
13 0.004997
24 0.004959
30 0.005003
49 0.006953
59 0.006943
66 0.00403
73 0.004984
71 0.005026
79 0.005966
94 0.006004
104 0.004987
119 0.00698
126 0.004996
132 0.004955
146 0.004993
146 0.006946
146 0.006975
132 0.004987
80 0.005008
65 0.005005
74 0.006971
77 0.00698
86 0.003975
88 0.006991
98 0.00497
87 0.004971
76 0.005014
73 0.006978
82 0.006995
95 0.004942
101 0.004988
104 0.005016
126 0.007025
154 0.006981
157 0.005984
144 0.006981
163 0.005025
163 0.004965
118 0.005044
74 0.006982
61 0.006967
60 0.005002
47 0.004958
39 0.004981
37 0.007978
44 0.008005
43 0.00593
59 0.006981
58 0.003953
51 0.004985
73 0.005005
105 0.007009
118 0.007012
107 0.004977
121 0.004974
124 0.004978
111 0.007979
101 0.007976
84 0.005951
14 0.007981
5 0.005979
18 0.005983
14 0.005035
0 0.007002
0 0.007009
23 0.004981
33 0.004977
34 0.004985
11 0.007973
0 0.007956
0 0.005984
21 0.007942
30 0.005974
21 0.005995
18 0.00503
33 0.007978
31 0.006973
36 0.004998
33 0.004954
0 0.005988
0 0.007979
0 0.007978
0 0.000978
0 0.000992
0 0.005015
0 0.005955
0 0.005969
1 0.007009
0 0.007022
0 0.004985
0 0.004974
0 0.005958
15 0.007979
27 0.007978
30 0.005972
50 0.007976
55 0.005945
45 0.005984
5 0.005996
40 0.008014
32 0.007009
39 0.006009
44 0.006023
44 0.005969
44 0.007978
52 0.007964
58 0.005969
62 0.007978
61 0.005958
67 0.005985
74 0.005991
77 0.007979
78 0.006983
78 0.006016
82 0.005983
93 0.006011
93 0.007981
87 0.008001
65 0.005985
46 0.007956
56 0.006948
60 0.005984
60 0.006951
65 0.006979
68 0.00698
72 0.005987
79 0.007004
79 0.00602
77 0.004992
87 0.007982
91 0.007966
97 0.007938
101 0.007971
104 0.005982
109 0.005985
113 0.006979
96 0.00701
78 0.006981
73 0.006978
76 0.007002
80 0.005981
87 0.007937
89 0.00797
95 0.007961
95 0.007977
95 0.006949
93 0.006974
94 0.006936
98 0.007028
106 0.007018
111 0.006976
109 0.006956
111 0.006987
120 0.007978
123 0.007939
114 0.007971
89 0.007972
76 0.006015
80 0.006983
85 0.006943
88 0.007015
92 0.007022
79 0.006981
79 0.006961
77 0.006975
70 0.007979
65 0.007995
78 0.006974
88 0.006987
92 0.006959
97 0.006981
105 0.006977
114 0.007008
120 0.006982
127 0.006981
131 0.00695
128 0.006979
83 0.007936
64 0.007979
68 0.007983
72 0.006965
67 0.006947
67 0.006953
81 0.006971
78 0.00701
69 0.007013
70 0.00698
78 0.006976
82 0.006961
90 0.006031
94 0.007978
100 0.006986
106 0.006983
112 0.006951
113 0.006953
115 0.006933
123 0.007015
98 0.007007
59 0.00697
48 0.006958
53 0.006964
67 0.006033
72 0.006009
81 0.006977
84 0.006985
82 0.006982
83 0.00698
85 0.006944
93 0.006996
101 0.006984
105 0.006975
111 0.006981
121 0.006007
128 0.00601
133 0.006025
142 0.006017
137 0.006954
90 0.006984
67 0.006948
67 0.006968
79 0.006982
83 0.007032
83 0.006958
98 0.006957
101 0.006981
91 0.005984
90 0.006021
83 0.006011
95 0.005962
109 0.006997
113 0.006948
121 0.006971
126 0.007012
126 0.007025
137 0.006984
146 0.006955
151 0.005983
156 0.005989
152 0.005987
79 0.005977
64 0.005985
74 0.005999
73 0.005014
73 0.006971
81 0.007012
84 0.006009
81 0.005968
83 0.006983
76 0.005983
82 0.00597
93 0.006011
120 0.009974
119 0.005964
117 0.00599
128 0.005963
132 0.006982
144 0.006983
154 0.006985
153 0.006984
152 0.005986
161 0.006
142 0.006025
85 0.006027
65 0.005996
71 0.005982
77 0.005978
82 0.005974
84 0.00595
88 0.00702
95 0.006977
87 0.005977
85 0.005986
96 0.005985
101 0.006017
113 0.006014
130 0.005975
128 0.005977
128 0.005983
134 0.005985
139 0.005966
146 0.007021
156 0.006017
133 0.006013
74 0.006011
58 0.00599
69 0.006023
81 0.006014
86 0.00598
94 0.005985
104 0.006013
107 0.004989
103 0.005972
102 0.005033
108 0.006011
114 0.005989
129 0.006008
135 0.005984
143 0.005989
145 0.006013
157 0.005959
156 0.005987
162 0.005978
142 0.004986
99 0.004991
73 0.004951
83 0.005017
91 0.004991
88 0.005931
93 0.005983
105 0.006013
112 0.006012
107 0.005997
100 0.005981
100 0.005989
110 0.005011
134 0.005022
137 0.005021
133 0.005022
140 0.004993
146 0.004941
150 0.005989
165 0.005984
171 0.006026
126 0.005984
70 0.006013
47 0.005948
68 0.004936
79 0.005015
69 0.005013
62 0.004988
67 0.005026
67 0.005022
67 0.005017
64 0.00599
53 0.005015
58 0.004994
70 0.005992
85 0.004988
84 0.004991
75 0.005013
80 0.005026
87 0.005015
96 0.005017
106 0.004984
91 0.004993
36 0.005026
4 0.006026
16 0.005985
18 0.005004
11 0.005007
0 0.004988
11 0.005032
30 0.004987
26 0.004987
17 0.004959
29 0.005017
25 0.004992
35 0.004961
58 0.005988
63 0.005963
63 0.004984
68 0.005004
77 0.005027
65 0.004975
26 0.005005
0 0.005021
0 0.005024
8 0.004957
19 0.004979
24 0.005986
30 0.004988
30 0.004983
27 0.004991
33 0.004989
46 0.004987
48 0.00499
55 0.004988
70 0.005027
76 0.00502
87 0.004987
95 0.005031
98 0.005029
103 0.004013
96 0.003927
54 0.004959
23 0.004945
27 0.005029
38 0.005032
35 0.005016
38 0.004988
45 0.004989
49 0.004996
51 0.00499
56 0.003957
58 0.003975
64 0.003994
73 0.00398
82 0.004976
103 0.00499
107 0.004986
106 0.00498
115 0.004975
122 0.005013
132 0.004945
141 0.004986
138 0.003951
94 0.003927
54 0.003935
64 0.003989
71 0.003944
71 0.004994
77 0.004965
77 0.00498
87 0.004983
97 0.005
93 0.004017
99 0.003988
104 0.004003
108 0.003972
137 0.003994
138 0.010967
134 0.001992
146 0.004986
155 0.004992
164 0.004968
162 0.004986
155 0.003989
160 0.00399
166 0.003989
164 0.00399
161 0.00399
89 0.003953
51 0.003943
50 0.004011
60 0.003989
57 0.004987
50 0.004982
48 0.004978
46 0.003979
58 0.003956
69 0.003953
66 0.003967
71 0.003956
78 0.003992
84 0.003992
97 0.004988
94 0.004927
103 0.002952
99 0.004942
102 0.004927
112 0.003946
110 0.003991
126 0.003985
124 0.00395
81 0.003949
71 0.003995
79 0.003985
75 0.00399
89 0.003989
85 0.002993
100 0.002993
117 0.00399
111 0.00399
129 0.003989
141 0.00399
150 0.00399
164 0.003977
172 0.003991
179 0.004019
184 0.003943
181 0.004023
198 0.003958
181 0.002924
131 0.002959
121 0.00394
139 0.003949
149 0.003939
161 0.003941
161 0.003953
168 0.003935
163 0.003955
147 0.003958
153 0.003049
167 0.002992
173 0.002994
190 0.003012
200 0.002975
197 0.003991
193 0.004024
189 0.00396
186 0.003976
132 0.00399
115 0.004003
126 0.003953
135 0.003019
137 0.003017
147 0.002955
156 0.002998
172 0.00399
188 0.002963
206 0.003992
207 0.003986
217 0.00399
221 0.003962
223 0.003963
234 0.003941
229 0.002959
228 0.002949
218 0.002944
211 0.002984
221 0.002975
213 0.003949
171 0.002979
130 0.003959
101 0.003943
116 0.002991
116 0.002994
102 0.002959
109 0.00295
127 0.002963
134 0.002954
149 0.002966
148 0.002978
143 0.002988
166 0.002993
176 0.003949
179 0.003975
184 0.002957
192 0.002959
193 0.002948
192 0.00299
203 0.003008
210 0.002976
216 0.002992
220 0.00299
228 0.00299
233 0.003001
240 0.002974
250 0.001997
255 0.002964
216 0.00296
157 0.002981
129 0.003029
146 0.003
153 0.002982
158 0.002952
157 0.002995
160 0.002994
167 0.002033
173 0.001995
178 0.001993
171 0.002991
183 0.002996
189 0.003
192 0.002991
202 0.003029
208 0.003009
209 0.002991
214 0.003027
215 0.003031
218 0.002986
225 0.002979
135 0.002037
235 0.002004
236 0.002964
203 0.002992
156 0.002992
130 0.003
143 0.002986
153 0.002982
155 0.003
160 0.002961
167 0.010017
167 0.002028
175 0.001994
169 0.001994
172 0.002966
180 0.001981
185 0.00301
194 0.003001
203 0.002993
207 0.002984
207 0.002993
208 0.001995
216 0.002949
221 0.001989
227 0.002005
228 0.001993
196 0.001995
149 0.002021
134 0.002023
146 0.002995
154 0.00298
163 0.002962
166 0.002037
168 0.00195
176 0.001969
176 0.001985
175 0.002024
180 0.001995
189 0.001966
193 0.001992
198 0.001947
210 0.002023
209 0.002982
208 0.003003
212 0.002991
216 0.002006
220 0.001995
224 0.00199
219 0.001988
142 0.001973
131 0.001995
144 0.001959
154 0.001994
157 0.001995
160 0.000958
167 0.001998
172 0.001987
175 0.002022
171 0.001992
174 0.00199
178 0.001985
189 0.001985
195 0.001988
197 0.00198
199 0.001985
201 0.001982
203 0.002014
208 0.001954
213 0.002026
210 0.001995
147 0.001954
119 0.001963
124 0.002006
141 0.001967
137 0.002041
145 0.001993
149 0.001983
153 0.002034
152 0.000993
141 0.000971
142 0.000996
153 0.001995
164 0.00199
167 0.001961
168 0.001975
175 0.001959
177 0.001997
177 0.00199
181 0.001999
190 0.001984
155 0.00095
100 0.000952
86 0.000971
94 0.001
106 0.001946
116 0.001961
119 0.002016
134 0.001992
139 0.001978
137 0.001984
135 0.000996
140 0.001004
152 0.000997
158 0.001002
161 0.001007
166 0.000997
171 0.000963
168 0.001954
176 0.002
175 0.001992
148 0.001983
101 0.000997
85 0.000997
95 0.002006
113 0.000999
117 0.000998
120 0.000998
122 0.001009
127 0.000986
123 0.001995
120 0.001997
127 0.001987
131 0.001997
134 0.000979
142 0.000958
147 0.000991
152 0.001001
157 0.001018
164 0.000989
171 0.001994
162 0.001992
93 0.001968
74 0.001935
91 0.001997
95 0.000998
97 0.000965
105 0.000999
108 0.000953
107 0.000962
106 0.000955
103 0.001986
105 0.000953
110 0.000957
120 0.00201
122 0.001996
134 0.000998
137 0.000956
141 0.000998
144 0.001002
146 0.000998
87 0.000991
56 0.001963
54 0.001
62 0.002
66 0.0
72 0.001995
75 0.001986
76 0.000956
75 0.0
73 0.0
75 0.001004
77 0.000939
86 0.001003
92 0.000992
88 0.000996
91 0.000999
98 0.00099
100 0.000987
102 0.0
65 0.0
17 0.0
5 0.0
11 0.0
15 0.000997
18 0.001011
17 0.000994
14 0.000997
13 0.000998
7 0.0
1 0.001048
1 0.0
7 0.0
13 0.0
21 0.0
23 0.0
19 0.0
30 0.000998
33 0.000999
27 0.000997
0 0.000998
0 0.000952
0 0.0
0 0.0
0 0.0
0 0.0
0 0.0
0 0.0
0 0.0
0 0.0
0 0.0
0 0.0
0 0.000996
0 0.000997
0 0.0
0 0.0
6 0.0
10 0.0
13 0.0
0 0.0
0 0.0
12 0.0
19 0.0
26 0.0
25 0.0
26 0.0
31 0.0
31 0.0
29 0.0
34 0.0
40 0.0
45 0.0
51 0.0
57 0.0
63 0.0
67 0.000955
70 0.000991
75 0.000976
80 0.0
58 0.0
33 0.0
38 0.0
40 0.0
44 0.0
47 0.0
50 0.002027
53 0.0
56 0.000999
54 0.001027
53 0.000998
59 0.0
65 0.0
71 0.0
77 0.002
80 0.0
85 0.0
86 0.0
87 0.002011
67 0.001985
47 0.001953
39 0.000944
47 0.000996
49 0.000995
41 0.00203
45 0.0
56 0.001992
56 0.001995
54 0.0
54 0.0
59 0.0
66 0.001987
68 0.001998
77 0.001008
79 0.0
81 0.0
86 0.001979
92 0.0
77 0.001993
54 0.001989
43 0.0
49 0.00103
47 0.0
50 0.001994
0 0.001997
1 0.0
12 0.000959
11 0.001012
13 0.003002
21 0.0
31 0.001998
39 0.001983
51 0.001035
57 0.0
66 0.0
74 0.001982
81 0.001988
45 0.0
7 0.000988
59 0.0
64 0.00201
68 0.001026
69 0.001953
72 0.00199
77 0.0
77 0.0
76 0.0
78 0.00196
82 0.001993
88 0.00097
95 0.0
98 0.00095
100 0.002032
109 0.0
113 0.00203
106 0.002025
78 0.0
71 0.0
77 0.0
82 0.002033
85 0.001995
88 0.0
91 0.0
94 0.0
91 0.002032
94 0.001009
98 0.003027
102 0.002993
108 0.0
114 0.0
118 0.0
121 0.001986
127 0.002015
130 0.0
122 0.0
97 0.0
87 0.001995
89 0.0
97 0.002011
98 0.001968
100 0.0
102 0.0
102 0.0
99 0.001975
99 0.00199
106 0.0
111 0.0
117 0.0
121 0.001999
126 0.001008
129 0.001969
131 0.002014
136 0.0
119 0.0
98 0.0
94 0.00199
101 0.001988
111 0.0
115 0.0
116 0.001994
122 0.001995
122 0.001011
114 0.001961
118 0.00296
131 0.0
139 0.0
148 0.0
157 0.001984
164 0.002008
166 0.0
177 0.0
179 0.0
138 0.001982
93 0.0
99 0.001956
110 0.001995
117 0.00097
118 0.0
127 0.001006
133 0.001981
129 0.001978
122 0.0
128 0.0
139 0.001031
145 0.001987
157 0.000959
163 0.002002
170 0.002001
182 0.000952
187 0.001002
163 0.000967
119 0.00297
96 0.002032
110 0.0
116 0.0
122 0.0
126 0.001992
131 0.0
135 0.001992
129 0.001987
132 0.0
136 0.000959
142 0.000993
149 0.001989
152 0.002
163 0.0
167 0.0
173 0.0
183 0.001985
169 0.0
123 0.002009
96 0.001997
105 0.000963
111 0.0
112 0.000975
115 0.001994
117 0.002963
118 0.0
121 0.0
118 0.0
117 0.001991
133 0.0
141 0.002011
148 0.001974
147 0.000959
152 0.0
155 0.000997
157 0.002992
161 0.002993
114 0.0
78 0.0
73 0.0
86 0.001993
91 0.0
95 0.0
95 0.001979
94 0.001988
94 0.0
87 0.000973
88 0.0
102 0.002998
111 0.002993
128 0.0
141 0.0
146 0.0
159 0.000979
160 0.0
137 0.001985
96 0.001983
79 0.0
97 0.0
103 0.001993
108 0.002952
118 0.002999
130 0.0
127 0.002026
127 0.00199
124 0.001995
140 0.001995
148 0.002989
159 0.001983
168 0.001986
182 0.002005
193 0.002014
206 0.002993
210 0.002957
148 0.001999
118 0.002016
119 0.000997
118 0.001978
105 0.001994
93 0.001988
100 0.002977
110 0.001985
97 0.001995
84 0.002018
72 0.002989
66 0.002934
85 0.001997
98 0.002032
120 0.002036
121 0.001995
110 0.002
100 0.002941
61 0.003017
31 0.001996
42 0.001964
46 0.002008
42 0.002978
46 0.003987
46 0.002007
46 0.002037
50 0.001978
36 0.001991
33 0.000946
47 0.003946
52 0.00399
24 0.001997
46 0.001995
68 0.001991
78 0.002999
73 0.002991
61 0.001995
36 0.002019
26 0.002004
26 0.001986
30 0.001975
30 0.003934
37 0.003979
40 0.001998
43 0.001966
48 0.002009
50 0.002988
45 0.003018
49 0.001984
64 0.001997
69 0.001991
70 0.002009
78 0.00202
59 0.003985
19 0.003978
3 0.001988
4 0.001996
10 0.002013
8 0.003041
13 0.002989
33 0.002015
25 0.000995
22 0.002992
35 0.002994
47 0.001983
58 0.003992
65 0.003988
62 0.001998
74 0.001995
80 0.001999
65 0.002988
25 0.002953
8 0.001994
15 0.001988
11 0.00199
22 0.002032
42 0.002
45 0.003995
40 0.004016
52 0.001987
65 0.002002
68 0.002003
73 0.002998
80 0.003028
97 0.002
99 0.001964
98 0.001996
88 0.001987
56 0.002007
29 0.00396
21 0.004
40 0.001981
50 0.001996
58 0.00201
75 0.004986
86 0.003962
92 0.001985
98 0.001997
106 0.001958
127 0.001999
131 0.001988
141 0.003995
150 0.003961
163 0.002036
164 0.002033
133 0.002029
104 0.003987
105 0.004018
111 0.001995
99 0.002993
87 0.002996
116 0.001993
166 0.001997
180 0.003978
157 0.003977
139 0.002986
130 0.002004
132 0.002003
161 0.004985
185 0.004999
217 0.001991
215 0.001994
197 0.002006
161 0.002021
121 0.002992
122 0.003992
143 0.00399
156 0.002993
150 0.002069
148 0.002029
151 0.004038
147 0.004987
147 0.002017
142 0.001999
133 0.002007
148 0.001993
157 0.001963
163 0.004016
175 0.004017
179 0.004016
189 0.002014
196 0.002957
186 0.002025
135 0.004987
90 0.005037
79 0.001995
88 0.002013
104 0.002009
99 0.002011
104 0.002002
108 0.004035
106 0.004032
112 0.002988
119 0.002999
123 0.001994
138 0.004987
151 0.004986
151 0.002955
162 0.001999
172 0.001989
181 0.001956
154 0.001991
104 0.004025
87 0.005025
112 0.002958
120 0.002991
125 0.003011
138 0.004987
147 0.005015
148 0.002042
144 0.002009
144 0.001995
157 0.001995
163 0.001999
169 0.005028
173 0.004986
182 0.002984
189 0.002961
183 0.003008
167 0.005017
118 0.005054
86 0.003988
98 0.017954
141 0.002006
139 0.001984
135 0.002996
137 0.005001
142 0.005025
135 0.00298
139 0.002956
152 0.002991
160 0.005013
167 0.005004
176 0.002049
183 0.002044
192 0.002963
189 0.001997
193 0.002953
146 0.004989
111 0.004988
99 0.002938
116 0.002993
120 0.003002
128 0.005025
127 0.005014
137 0.002024
132 0.001991
122 0.002956
117 0.002976
121 0.002948
129 0.006023
143 0.005013
154 0.002976
167 0.002997
173 0.002987
174 0.005012
174 0.004971
157 0.002992
102 0.002025
69 0.002966
79 0.003034
82 0.003049
85 0.005983
89 0.005987
100 0.002998
102 0.002992
94 0.002955
92 0.005002
108 0.004996
112 0.001996
117 0.0
140 0.003019
146 0.003005
154 0.00299
153 0.005984
155 0.006019
115 0.002993
68 0.003014
57 0.00295
74 0.004987
89 0.004994
101 0.002993
105 0.003021
116 0.003984
111 0.00299
109 0.00302
114 0.005985
122 0.005986
131 0.001999
140 0.002998
148 0.003011
155 0.00598
164 0.005007
167 0.002993
158 0.002992
88 0.003996
78 0.004003
91 0.003987
100 0.005994
100 0.005984
108 0.003017
116 0.002966
123 0.002985
122 0.006009
114 0.004979
117 0.00299
125 0.002991
142 0.004017
146 0.002982
152 0.003946
162 0.006035
171 0.006013
168 0.00303
169 0.003996
119 0.002987
80 0.004991
76 0.005998
89 0.003036
93 0.002989
103 0.004013
104 0.003998
111 0.003018
116 0.006035
114 0.006025
117 0.003042
128 0.002992
136 0.003985
140 0.005957
148 0.005988
155 0.002992
155 0.002985
172 0.004012
176 0.003992
172 0.003995
127 0.005984
86 0.005984
88 0.003028
96 0.002985
104 0.00397
108 0.006028
112 0.007021
122 0.00299
126 0.00303
123 0.003988
130 0.003978
138 0.003993
142 0.00602
150 0.005973
166 0.003021
165 0.003035
168 0.003998
175 0.003963
180 0.006982
184 0.006981
188 0.003039
135 0.005984
94 0.004006
97 0.003995
104 0.004961
114 0.006021
113 0.006982
113 0.004994
120 0.004066
124 0.003983
123 0.007022
120 0.007009
127 0.003989
131 0.007019
146 0.00399
145 0.003988
152 0.003979
161 0.006016
167 0.006976
174 0.004977
179 0.004986
162 0.003988
113 0.006991
87 0.006981
97 0.003991
111 0.006981
113 0.003988
120 0.004957
126 0.004989
129 0.004039
124 0.00698
122 0.00498
129 0.004997
136 0.00595
140 0.007012
149 0.007026
154 0.003991
161 0.00702
167 0.003945
170 0.004992
174 0.004993
176 0.007014
159 0.007008
97 0.00495
84 0.004016
87 0.004956
94 0.007039
99 0.007022
103 0.002988
113 0.007022
114 0.004016
115 0.004985
117 0.004982
118 0.006978
126 0.006985
134 0.004978
141 0.004974
144 0.004957
146 0.006985
147 0.007003
154 0.005944
154 0.007982
165 0.003986
168 0.00501
142 0.004952
84 0.00798
70 0.00701
79 0.004997
92 0.00496
92 0.004961
98 0.007024
102 0.006983
111 0.004987
111 0.007979
115 0.005033
119 0.005039
125 0.004971
138 0.007986
138 0.007992
144 0.004994
152 0.004952
155 0.004952
154 0.006993
161 0.007977
160 0.001008
157 0.00798
112 0.005017
62 0.004987
54 0.005031
71 0.007975
79 0.007946
84 0.004991
82 0.004947
86 0.003939
92 0.007033
88 0.007019
88 0.005996
96 0.007974
98 0.005986
105 0.005997
112 0.005015
137 0.007996
141 0.007982
145 0.004958
144 0.005019
148 0.004945
121 0.007046
76 0.007003
62 0.005988
93 0.007972
91 0.004986
97 0.004964
111 0.004988
108 0.007984
112 0.007978
115 0.004963
115 0.004945
123 0.005952
133 0.007978
137 0.00798
142 0.005984
150 0.00798
158 0.005983
157 0.004998
155 0.005026
121 0.007977
87 0.00798
57 0.004987
61 0.00396
68 0.005996
77 0.00795
82 0.007971
85 0.00595
94 0.007973
92 0.004974
91 0.005985
100 0.006009
111 0.007981
124 0.007977
124 0.00499
132 0.004945
145 0.005999
156 0.007979
160 0.006981
153 0.005947
114 0.007948
67 0.005981
62 0.006007
62 0.006
66 0.006984
68 0.006979
73 0.005011
79 0.005985
83 0.005985
83 0.006997
80 0.007019
84 0.005992
89 0.007974
95 0.005023
102 0.004951
110 0.00598
115 0.005969
118 0.007993
122 0.007982
130 0.005944
136 0.006031
112 0.00597
48 0.007012
28 0.006946
36 0.00698
36 0.007937
33 0.005981
32 0.005982
32 0.00503
36 0.007981
36 0.006959
34 0.006014
35 0.005993
39 0.006016
50 0.006997
59 0.006957
66 0.007951
70 0.006966
72 0.006
84 0.005957
86 0.005984
90 0.00701
62 0.006974
16 0.006031
1 0.005985
10 0.006036
15 0.006969
16 0.00698
24 0.007001
33 0.007014
33 0.005947
28 0.005979
29 0.006971
38 0.006987
47 0.006977
57 0.006982
57 0.005983
64 0.005985
75 0.006976
83 0.006963
94 0.006992
96 0.006986
79 0.005978
38 0.005984
11 0.00603
10 0.006972
10 0.006983
9 0.006031
13 0.006016
18 0.005991
27 0.006989
32 0.00697
29 0.007017
36 0.006981
45 0.005034
54 0.006979
66 0.006953
75 0.006948
77 0.006966
87 0.006933
92 0.006945
95 0.006021
111 0.00696
118 0.006963
88 0.005974
38 0.006968
23 0.005984
28 0.000947
38 0.005969
36 0.006994
37 0.00698
43 0.00696
51 0.006964
53 0.005938
48 0.006988
49 0.006974
58 0.006968
66 0.005969
82 0.005969
88 0.005971
96 0.005947
104 0.006
106 0.005989
116 0.006975
123 0.006969
130 0.006929
112 0.006983
66 0.006992
38 0.005942
44 0.006012
49 0.005993
51 0.005981
51 0.005987
50 0.005969
56 0.005998
59 0.006963
55 0.006984
59 0.006976
75 0.006982
82 0.006985
98 0.005961
103 0.00597
115 0.006009
116 0.005953
118 0.00598
122 0.005976
124 0.005961
82 0.005963
54 0.005982
35 0.006953
41 0.005941
54 0.00601
58 0.005979
60 0.005963
74 0.005977
80 0.005956
76 0.005972
77 0.005994
85 0.006012
101 0.005984
105 0.005927
114 0.005024
115 0.005992
113 0.00601
123 0.005995
131 0.006016
112 0.005995
69 0.005953
52 0.005983
61 0.005954
62 0.00597
64 0.005986
70 0.006003
73 0.004985
81 0.00599
85 0.005985
84 0.006018
94 0.005982
103 0.005985
109 0.006003
118 0.005984
129 0.005973
131 0.005977
138 0.005951
147 0.004984
158 0.004985
125 0.004987
81 0.006013
73 0.005976
86 0.006003
96 0.005936
103 0.005989
105 0.006015
110 0.005988
117 0.005021
114 0.005952
119 0.004979
130 0.004984
135 0.004979
140 0.004996
159 0.005992
165 0.005979
173 0.006014
171 0.005983
133 0.005966
96 0.00596
90 0.005046
106 0.005025
115 0.004986
117 0.004986
124 0.005953
129 0.005001
127 0.005986
124 0.005975
129 0.005947
134 0.005923
142 0.00499
149 0.005965
154 0.004961
163 0.004998
168 0.004986
173 0.004978
151 0.004971
108 0.005015
86 0.004985
100 0.005027
106 0.005952
107 0.004992
117 0.005987
123 0.004986
122 0.004987
122 0.004987
120 0.004987
130 0.004986
144 0.004986
150 0.004987
165 0.004958
170 0.004972
174 0.005976
181 0.005988
169 0.005993
126 0.004986
93 0.004986
93 0.004984
105 0.004984
105 0.004999
112 0.004961
121 0.00497
124 0.004985
120 0.004971
116 0.005981
125 0.005996
130 0.004983
137 0.005015
140 0.004998
143 0.004977
153 0.00498
153 0.004988
159 0.005021
135 0.00596
65 0.004999
69 0.005015
87 0.004957
99 0.003969
105 0.003984
113 0.00495
119 0.005009
119 0.005003
116 0.004978
123 0.004979
131 0.00497
136 0.004949
152 0.004946
155 0.004938
164 0.003993
169 0.003986
172 0.003987
139 0.004003
94 0.004974
74 0.004985
94 0.004985
99 0.005004
100 0.004959
107 0.004991
117 0.004984
114 0.00395
109 0.003938
105 0.003992
115 0.003986
122 0.00399
127 0.003969
134 0.004966
143 0.004988
150 0.004987
152 0.011969
153 0.002
87 0.004947
62 0.003995
68 0.00398
75 0.003952
79 0.003987
80 0.003999
86 0.00399
89 0.003963
92 0.004976
86 0.003959
87 0.003996
95 0.004986
105 0.003988
114 0.00399
120 0.003937
128 0.003954
136 0.004018
142 0.003981
146 0.003962
124 0.004015
61 0.004968
45 0.003988
54 0.003958
62 0.003978
68 0.00398
70 0.003982
71 0.003954
80 0.00399
76 0.003989
74 0.003989
85 0.003989
96 0.003944
97 0.003948
105 0.003928
119 0.004011
121 0.003938
128 0.003931
134 0.003958
132 0.003991
114 0.003982
64 0.003985
38 0.003952
41 0.003961
48 0.004987
52 0.003988
58 0.002992
59 0.003985
62 0.003993
60 0.003957
58 0.003942
66 0.003983
82 0.002993
89 0.003963
96 0.003955
111 0.002994
115 0.002956
124 0.002993
135 0.002993
132 0.002991
100 0.00295
48 0.004032
53 0.003955
68 0.003944
67 0.003947
77 0.003029
86 0.003961
88 0.003937
91 0.00399
89 0.003002
92 0.002992
101 0.003964
110 0.003035
127 0.002993
140 0.003947
146 0.003995
157 0.003988
166 0.00396
167 0.003987
169 0.003986
118 0.002956
73 0.002954
77 0.002966
88 0.003986
95 0.003992
99 0.002994
105 0.003934
116 0.003947
115 0.003963
115 0.003943
120 0.00299
127 0.004003
134 0.002968
143 0.002958
141 0.003989
150 0.002993
159 0.002984
171 0.003917
183 0.002985
185 0.003987
144 0.002991
99 0.003983
96 0.002998
110 0.003043
108 0.003002
109 0.002993
126 0.003
138 0.002993
139 0.002958
133 0.003001
149 0.003965
159 0.002996
156 0.002963
163 0.003986
167 0.002973
164 0.002994
168 0.002991
174 0.002992
200 0.002996
184 0.00299
128 0.002942
116 0.003026
139 0.002972
159 0.002989
169 0.001967
159 0.00299
155 0.002991
156 0.002987
147 0.002991
134 0.002983
150 0.002996
144 0.002986
159 0.002994
189 0.002994
174 0.003025
174 0.003027
181 0.00201
157 0.002014
103 0.001999
70 0.00302
70 0.003
75 0.002994
86 0.003009
105 0.002956
123 0.002996
144 0.002992
142 0.002972
123 0.002993
125 0.00199
140 0.00202
142 0.001956
157 0.001938
168 0.002991
167 0.003003
179 0.003001
187 0.002992
155 0.002996
78 0.00297
77 0.002966
87 0.001994
86 0.001997
85 0.001991
89 0.001992
85 0.001969
88 0.002992
89 0.002984
92 0.002992
98 0.00299
106 0.002991
106 0.001989
111 0.001991
116 0.001976
131 0.001969
138 0.002017
137 0.00197
104 0.001996
54 0.001995
29 0.002026
36 0.002988
37 0.00299
35 0.002002
41 0.001994
49 0.002034
50 0.001996
40 0.002031
38 0.002026
47 0.001963
59 0.002002
59 0.002006
64 0.001948
77 0.001988
82 0.001995
92 0.001994
93 0.001995
59 0.00196
16 0.001959
2 0.001998
20 0.002004
36 0.001994
35 0.001995
37 0.001995
56 0.001993
70 0.001998
72 0.001991
72 0.000987
76 0.001995
90 0.001994
107 0.001995
120 0.001979
125 0.001995
118 0.001994
129 0.001992
145 0.002001
113 0.001985
47 0.001985
39 0.00098
57 0.000967
55 0.000998
61 0.001995
75 0.001995
84 0.001995
76 0.001993
76 0.001995
79 0.001995
80 0.000963
92 0.000997
101 0.000998
110 0.000994
120 0.000999
128 0.000998
148 0.000999
157 0.001974
150 0.000959
91 0.001991
60 0.001987
58 0.001986
62 0.001041
62 0.00099
64 0.001024
69 0.002008
81 0.000955
94 0.001994
84 0.000998
73 0.002001
73 0.001999
81 0.000985
91 0.002017
101 0.001951
116 0.001
124 0.000997
123 0.001
130 0.000992
128 0.000963
60 0.001996
40 0.002005
41 0.001989
48 0.001993
53 0.001993
60 0.001989
67 0.001994
74 0.000996
76 0.000998
78 0.001022
83 0.002029
94 0.002028
121 0.002045
132 0.002046
141 0.001988
150 0.002
152 0.001995
160 0.001036
155 0.000977
111 0.000982
75 0.000997
68 0.000997
80 0.000983
87 0.000997
96 0.002024
102 0.00203
108 0.001996
110 0.001998
110 0.002019
120 0.001004
130 0.0
141 0.000962
147 0.00099
154 0.000994
165 0.000993
168 0.001001
170 0.00201
177 0.001026
171 0.000998
124 0.0
85 0.0
85 0.0
98 0.0
96 0.000982
97 0.000968
104 0.001011
106 0.001028
110 0.00099
110 0.000998
115 0.000997
121 0.000995
123 0.0
133 0.0
143 0.0
146 0.0
149 0.0
152 0.000973
162 0.000999
172 0.000993
168 0.000997
98 0.000998
67 0.000997
66 0.000998
72 0.0
76 0.0
77 0.0
83 0.0
89 0.0
95 0.000991
97 0.000995
95 0.001015
97 0.001018
110 0.0
124 0.0
123 0.0
129 0.0
151 0.0
154 0.0
155 0.0
169 0.0
154 0.0
94 0.000998
66 0.0
59 0.000995
71 0.000998
81 0.0
93 0.0
106 0.0
106 0.0
98 0.0
106 0.0
128 0.0
135 0.0
139 0.0
162 0.000998
173 0.0
177 0.0
186 0.0
202 0.0
194 0.0
148 0.0
115 0.0
121 0.0
131 0.0
140 0.0
151 0.0
147 0.000992
154 0.000993
160 0.0
156 0.0
165 0.0
183 0.0
197 0.0
191 0.0
175 0.0
166 0.000996
173 0.0
194 0.0
205 0.0
200 0.000992
114 0.0
79 0.0
82 0.00099
89 0.00099
90 0.0
78 0.0
73 0.0
81 0.0
82 0.0
83 0.0
86 0.00096
97 0.002984
107 0.003018
123 0.002975
129 0.0
128 0.000939
135 0.0
147 0.0
147 0.003994
148 0.0
107 0.0
67 0.0
59 0.002998
78 0.002992
86 0.002992
88 0.002995
89 0.000993
93 0.0
107 0.000968
106 0.002012
110 0.003004
131 0.0
134 0.0
138 0.0
145 0.002992
143 0.003022
157 0.0
165 0.003007
179 0.002981
181 0.0
142 0.000969
80 0.000978
50 0.001976
54 0.003002
65 0.0
64 0.0
63 0.0
68 0.002999
79 0.0
90 0.002993
92 0.002988
94 0.0
99 0.0
99 0.0
109 0.001993
133 0.005025
152 0.000966
152 0.0
153 0.0
157 0.002989
174 0.0
184 0.002999
158 0.002978
77 0.0
52 0.0
52 0.0
63 0.002992
73 0.001985
84 0.000988
91 0.001006
94 0.0
97 0.002989
94 0.0
99 0.003002
101 0.00299
122 0.0
126 0.0
120 0.0
135 0.002996
155 0.002989
159 0.000996
162 0.000958
158 0.0
113 0.001988
69 0.0
85 0.003002
88 0.002991
81 0.0
103 0.0
127 0.0
122 0.002974
118 0.003044
128 0.0
132 0.0
141 0.000999
153 0.002991
178 0.0
182 0.002999
184 0.002995
204 0.0
216 0.0
221 0.0
181 0.002996
142 0.003002
136 0.000994
149 0.000962
155 0.001005
160 0.002017
173 0.0
175 0.002964
177 0.003002
176 0.0
177 0.0
182 0.0
188 0.002993
193 0.002968
198 0.000999
205 0.000997
207 0.000998
205 0.001989
170 0.000994
126 0.00302
109 0.003029
123 0.0
131 0.0
138 0.0
149 0.002991
151 0.002993
143 0.0
138 0.0
135 0.0
138 0.0
142 0.000998
149 0.001966
151 0.001995
151 0.0
152 0.0
149 0.0
123 0.00299
73 0.002991
43 0.000949
56 0.0
65 0.0
72 0.002978
84 0.0
93 0.001985
96 0.002005
99 0.000998
104 0.0
114 0.000998
113 0.002992
113 0.002996
122 0.0
121 0.0
120 0.0
123 0.002998
80 0.0
38 0.001986
36 0.001987
62 0.000964
58 0.000989
60 0.0
72 0.00299
76 0.002991
77 0.0
82 0.0
91 0.0
100 0.003032
106 0.0
117 0.002993
117 0.002995
131 0.00096
126 0.001008
110 0.0
63 0.003006
31 0.002995
25 0.0
36 0.0
43 0.0
43 0.003018
57 0.0
60 0.002996
62 0.002056
61 0.000992
67 0.000971
74 0.0
78 0.003021
76 0.002019
87 0.0
82 0.0
96 0.0
95 0.003039
20 0.000969
0 0.003016
2 0.002986
12 0.0
15 0.000991
21 0.000971
34 0.001994
41 0.001994
42 0.003002
56 0.0
62 0.0
80 0.0
106 0.0
108 0.0
124 0.00299
140 0.003001
143 0.0
102 0.000971
70 0.000992
72 0.001962
92 0.001995
103 0.0
107 0.0
112 0.0
125 0.0
131 0.0
132 0.002968
130 0.003973
150 0.0
155 0.000956
163 0.001012
175 0.002964
176 0.002995
188 0.00099
198 0.000967
191 0.001994
113 0.0
98 0.0
100 0.002988
99 0.002991
100 0.0
102 0.0
111 0.000991
121 0.003949
129 0.003039
125 0.002003
129 0.0
138 0.0
148 0.0
157 0.0
163 0.003017
168 0.003989
174 0.0
181 0.000967
186 0.002999
188 0.003988
145 0.00399
84 0.002002
83 0.002023
93 0.001988
94 0.001966
95 0.003003
102 0.002998
108 0.003036
110 0.0
114 0.002994
113 0.002975
117 0.004042
125 0.003977
136 0.001962
141 0.002994
145 0.002987
157 0.002993
162 0.002988
166 0.00304
168 0.003992
173 0.0
180 0.002997
168 0.0
114 0.002994
68 0.003952
70 0.002993
81 0.001943
80 0.0
86 0.000956
90 0.000968
89 0.004026
91 0.003991
89 0.0
93 0.0
101 0.002024
103 0.003985
108 0.003996
114 0.002018
116 0.00301
127 0.002985
128 0.001981
146 0.002986
138 0.003031
147 0.003955
117 0.003006
67 0.002997
41 0.002988
56 0.00397
62 0.003987
78 0.002048
85 0.002977
90 0.019908
100 0.000939
98 0.0
99 0.00399
106 0.003989
118 0.002992
131 0.0
140 0.002999
147 0.00499
156 0.003955
165 0.002023
167 0.00398
171 0.002992
166 0.000999
117 0.002993
83 0.00402
84 0.004004
97 0.0
100 0.0
110 0.003005
123 0.003954
121 0.003964
129 0.0
122 0.003016
