133 0.02796
136 0.00303
144 0.002987
149 0.002992
153 0.004955
158 0.004994
161 0.003987
166 0.003953
178 0.004021
165 0.004498
127 0.004028
71 0.004986
65 0.004946
79 0.00402
86 0.00402
89 0.004024
94 0.004987
103 0.004993
108 0.003951
105 0.005029
106 0.004982
113 0.004987
121 0.004724
131 0.004956
139 0.004988
146 0.003989
150 0.003988
152 0.004031
156 0.005985
161 0.005985
162 0.003997
103 0.005974
65 0.004988
64 0.004988
71 0.004997
78 0.006018
81 0.00502
83 0.005031
95 0.004021
100 0.005021
103 0.005041
102 0.005028
110 0.004032
119 0.005027
128 0.00603
137 0.005984
146 0.005019
151 0.006019
156 0.005975
159 0.004999
164 0.004986
170 0.005031
177 0.006026
154 0.005984
88 0.005032
62 0.006028
70 0.006026
77 0.006019
79 0.006021
81 0.005982
88 0.00602
98 0.005988
104 0.005985
104 0.005985
105 0.006047
112 0.006983
121 0.007013
135 0.007013
142 0.007014
150 0.005984
156 0.006015
160 0.006014
163 0.006981
167 0.006982
174 0.00602
181 0.005985
189 0.005984
171 0.006981
113 0.006949
71 0.006983
76 0.006981
88 0.007012
91 0.006026
92 0.006976
99 0.007986
108 0.007979
113 0.006981
113 0.006982
113 0.007012
122 0.007015
130 0.006985
146 0.006982
153 0.007023
162 0.005983
167 0.005982
170 0.00697
174 0.007979
179 0.008023
184 0.006971
190 0.006899
199 0.007012
196 0.007978
135 0.007979
74 0.007972
76 0.007986
88 0.007013
96 0.007039
101 0.007022
106 0.006942
115 0.007979
119 0.00799
116 0.007991
114 0.007978
120 0.007979
128 0.007979
145 0.007979
157 0.007943
162 0.006981
169 0.008007
169 0.007981
173 0.007978
177 0.007915
185 0.006982
192 0.007011
190 0.006981
115 0.007019
65 0.006995
69 0.006992
79 0.007018
86 0.006935
89 0.007024
95 0.006981
106 0.007054
110 0.007979
112 0.007015
112 0.007979
120 0.007016
129 0.006955
146 0.006994
155 0.006992
161 0.006987
167 0.006981
173 0.006977
177 0.006983
181 0.007028
187 0.006982
194 0.006982
205 0.006012
178 0.005948
109 0.006981
63 0.006977
68 0.006949
78 0.006985
85 0.006982
86 0.006967
93 0.007028
105 0.007025
110 0.007
109 0.007038
113 0.006982
118 0.007031
127 0.007014
145 0.006974
154 0.006988
163 0.006983
169 0.006011
174 0.005984
179 0.005983
183 0.006982
188 0.006031
194 0.006015
207 0.005984
196 0.006031
129 0.005987
65 0.005984
67 0.005984
79 0.005984
88 0.006068
92 0.00603
98 0.005026
108 0.00502
113 0.006024
115 0.005015
115 0.00598
122 0.006017
133 0.006027
153 0.005998
165 0.006005
173 0.005979
180 0.006013
185 0.005983
191 0.004986
194 0.004987
200 0.004968
209 0.005032
218 0.005019
207 0.005026
131 0.004997
68 0.005019
72 0.005004
85 0.004996
95 0.004987
100 0.005065
110 0.004975
120 0.004943
122 0.005082
119 0.005027
118 0.004987
126 0.005028
137 0.004987
155 0.003995
165 0.004
171 0.004997
175 0.004988
178 0.004987
181 0.005034
188 0.005029
191 0.00503
148 0.004988
84 0.004029
57 0.004029
65 0.004029
87 0.003955
91 0.004026
98 0.003955
109 0.003979
113 0.00399
108 0.00399
109 0.003984
114 0.00399
124 0.004987
136 0.005038
151 0.004987
158 0.00398
163 0.003989
166 0.003952
172 0.004034
172 0.002993
127 0.002992
57 0.003991
42 0.004024
47 0.00399
56 0.004034
61 0.003992
63 0.00399
76 0.003953
84 0.003952
87 0.003949
88 0.003959
92 0.004001
100 0.003993
111 0.004006
125 0.00399
133 0.002992
140 0.003039
145 0.002992
147 0.002992
158 0.002994
163 0.003007
122 0.003988
68 0.002997
43 0.002984
43 0.002993
52 0.002992
57 0.001995
58 0.001995
64 0.002992
75 0.002026
83 0.001998
84 0.00201
87 0.002973
97 0.002992
106 0.002994
115 0.002993
124 0.00298
133 0.002992
140 0.002992
144 0.003002
148 0.00203
153 0.001995
159 0.001996
171 0.001996
134 0.002038
64 0.002032
47 0.001991
52 0.001995
61 0.001995
65 0.002008
66 0.001951
75 0.001961
86 0.001995
90 0.002
91 0.001968
98 0.001985
106 0.001994
118 0.001997
128 0.001991
138 0.002019
145 0.001996
149 0.001954
157 0.002026
161 0.001995
163 0.001952
170 0.002
177 0.001996
192 0.001012
175 0.001011
108 0.000993
59 0.001
57 0.000997
67 0.000998
75 0.000997
77 0.000997
83 0.000987
93 0.000998
96 0.000998
96 0.000998
98 0.001995
104 0.000997
113 0.000997
128 0.001
135 0.000997
141 0.001004
146 0.000997
150 0.000998
153 0.000858
159 0.000997
167 0.000998
175 0.000988
134 0.000984
78 0.0
54 0.000987
57 0.0
65 0.0
70 0.0
71 0.0
78 0.000998
91 0.000997
93 0.000998
93 0.001012
95 0.000997
108 0.000997
117 0.00099
128 0.000993
139 0.0
145 0.0
150 0.0
155 0.0
160 0.0
165 0.0
171 0.0
179 0.0
192 0.001
157 0.0
91 0.0
57 0.0
52 0.0
60 0.0
64 0.0
62 0.0
67 0.0
79 0.0
88 0.0
90 0.0
93 0.001011
104 0.0
112 0.0
122 0.0
132 0.0
141 0.000998
147 0.000997
151 0.0
156 0.0
162 0.0
169 0.0
175 0.0
188 0.001003
198 0.000957
177 0.0
108 0.0
65 0.0
54 0.001003
62 0.000999
72 0.0
73 0.0
73 0.0
83 0.000998
94 0.000999
97 0.000968
100 0.001006
107 0.000996
116 0.001034
128 0.000984
139 0.001948
147 0.001962
156 0.000999
162 0.001044
165 0.000992
172 0.001021
180 0.000999
190 0.000997
198 0.001038
212 0.0011
220 0.000996
179 0.000998
102 0.001996
65 0.002026
63 0.000995
75 0.000999
84 0.002021
86 0.001995
89 0.001995
106 0.002028
109 0.001979
109 0.0
112 0.001041
119 0.001001
131 0.002027
143 0.00201
156 0.001645
164 0.002027
172 0.002029
176 0.002027
180 0.001993
187 0.002001
193 0.001965
201 0.002025
216 0.00097
200 0.001023
149 0.001995
72 0.001995
59 0.001995
73 0.001996
86 0.002007
91 0.002037
95 0.002034
110 0.000985
111 0.002002
108 0.003023
109 0.002034
118 0.002002
131 0.001997
144 0.002992
155 0.002977
167 0.002031
172 0.002027
175 0.002036
177 0.002997
187 0.00201
196 0.003043
184 0.004022
92 0.002992
54 0.002996
48 0.003042
57 0.003989
66 0.00399
71 0.003023
73 0.003026
84 0.003036
93 0.003991
96 0.003005
98 0.003041
105 0.004035
119 0.003001
132 0.002992
143 0.002992
151 0.00399
158 0.004027
165 0.003024
168 0.002019
172 0.003035
183 0.003028
192 0.003039
157 0.004023
86 0.004031
45 0.002967
43 0.004099
52 0.004016
62 0.004024
62 0.003991
67 0.003028
79 0.003025
89 0.003033
90 0.00303
93 0.003023
101 0.002993
110 0.005024
123 0.005018
137 0.004012
145 0.003978
153 0.004027
157 0.004986
162 0.00502
168 0.003991
174 0.003032
191 0.002976
199 0.003029
184 0.00504
89 0.005068
51 0.004994
46 0.004118
58 0.004014
64 0.004981
68 0.00502
70 0.005018
86 0.004034
92 0.003994
94 0.004022
98 0.004036
106 0.00403
118 0.00601
131 0.006031
145 0.005031
154 0.00502
161 0.005018
167 0.005957
171 0.006016
179 0.005013
184 0.005013
198 0.00502
210 0.004039
175 0.004038
96 0.005038
56 0.006034
54 0.005021
67 0.005005
76 0.004889
78 0.005984
82 0.006033
96 0.005031
100 0.005033
99 0.005026
102 0.005037
111 0.005037
124 0.006015
135 0.006016
146 0.006019
158 0.005024
162 0.005011
164 0.005993
168 0.005984
174 0.005018
183 0.004991
181 0.005028
115 0.005035
62 0.00502
47 0.005984
54 0.006981
67 0.006962
75 0.005981
80 0.006015
89 0.006018
98 0.007015
97 0.006974
96 0.006028
103 0.005992
115 0.006022
127 0.007014
140 0.006979
151 0.006975
157 0.006982
161 0.006016
164 0.005995
172 0.006016
181 0.007015
182 0.006977
105 0.007017
46 0.007027
42 0.006028
50 0.006016
56 0.006949
58 0.007979
59 0.007978
74 0.007014
84 0.007017
86 0.00702
86 0.006981
91 0.007039
108 0.007026
119 0.007019
134 0.006015
143 0.007018
150 0.006982
155 0.007978
159 0.007985
166 0.00701
176 0.007013
184 0.006943
133 0.008004
88 0.007978
40 0.007984
48 0.007973
57 0.007017
60 0.006985
63 0.007983
74 0.007987
85 0.008008
88 0.007979
89 0.007941
92 0.006981
104 0.007024
112 0.007978
135 0.007978
142 0.007966
153 0.006964
161 0.006973
167 0.006972
172 0.006996
178 0.006984
185 0.00699
198 0.007022
210 0.006981
208 0.007979
118 0.00796
49 0.007979
50 0.007984
62 0.006994
70 0.006997
71 0.007011
78 0.006932
90 0.006989
96 0.006943
98 0.007021
101 0.006953
107 0.006993
118 0.007023
139 0.006978
147 0.006969
155 0.006014
163 0.00599
168 0.005988
173 0.005984
178 0.006992
184 0.00702
192 0.007017
198 0.007023
205 0.007025
171 0.007014
56 0.006981
36 0.006975
40 0.005978
56 0.005981
62 0.005994
64 0.00599
74 0.005987
83 0.006026
84 0.006018
84 0.006027
88 0.005984
98 0.004991
118 0.006988
129 0.005988
138 0.005996
148 0.005982
152 0.006021
155 0.005984
160 0.005976
169 0.006028
181 0.005979
184 0.005986
131 0.006024
67 0.005984
38 0.004995
45 0.004988
55 0.004995
58 0.005004
61 0.004993
73 0.004955
83 0.004987
87 0.005043
87 0.005031
93 0.005076
102 0.004987
114 0.004959
134 0.004988
143 0.005977
152 0.006001
157 0.005982
162 0.00498
168 0.004985
177 0.005005
186 0.00503
176 0.004987
89 0.005024
49 0.005029
41 0.005038
59 0.004991
67 0.004943
69 0.004015
76 0.003991
90 0.005005
93 0.003958
92 0.004987
95 0.005025
103 0.004993
117 0.00503
130 0.00403
149 0.004987
158 0.004972
164 0.004999
167 0.003984
171 0.004986
180 0.004948
190 0.003964
192 0.00399
137 0.00399
72 0.00399
42 0.00399
48 0.00398
66 0.003997
68 0.003959
73 0.003953
84 0.003933
92 0.003948
95 0.003958
96 0.002979
101 0.003987
112 0.002992
125 0.004015
141 0.004043
152 0.004032
166 0.003954
170 0.003959
173 0.003963
178 0.00396
187 0.003966
199 0.00395
169 0.003978
95 0.002991
54 0.002992
46 0.002992
56 0.002993
71 0.002992
74 0.002992
86 0.003964
95 0.002977
96 0.003992
94 0.00395
97 0.004
107 0.003001
120 0.002995
134 0.002992
144 0.003045
152 0.002992
159 0.002998
163 0.002992
172 0.002999
180 0.00296
176 0.002977
117 0.002985
62 0.002012
41 0.001996
50 0.001994
62 0.002027
68 0.001961
72 0.001962
86 0.002992
93 0.001994
90 0.001942
93 0.00203
100 0.001954
112 0.001976
126 0.001988
141 0.002983
149 0.002993
153 0.002027
156 0.001995
160 0.002032
171 0.002041
144 0.001999
61 0.001992
33 0.001994
32 0.001988
40 0.001986
45 0.001964
45 0.001961
51 0.001974
64 0.002026
74 0.001995
78 0.001996
79 0.001995
89 0.001047
103 0.001985
116 0.002009
127 0.000997
135 0.000988
141 0.000995
147 0.000997
152 0.000994
162 0.002002
171 0.001996
150 0.001954
87 0.000997
33 0.002088
35 0.001993
46 0.000999
48 0.002005
49 0.001004
57 0.000999
72 0.000973
80 0.001003
82 0.000997
85 0.000981
92 0.000998
111 0.000986
121 0.001027
132 0.0
143 0.0
150 0.0
154 0.0
161 0.0
166 0.0
176 0.0
188 0.0
196 0.000997
164 0.000995
59 0.00099
41 0.000988
46 0.000997
58 0.001003
62 0.0
65 0.0
75 0.0
86 0.0
92 0.0
93 0.0
96 0.0
105 0.0
125 0.0
138 0.0
148 0.0
158 0.000998
165 0.000959
169 0.0
175 0.0
178 0.0
190 0.0
201 0.0
214 0.0
170 0.0
62 0.0
47 0.0
55 0.0
68 0.0
76 0.000998
78 0.000991
87 0.0
97 0.0
99 0.0
95 0.001052
99 0.001029
111 0.0
130 0.000985
144 0.0
153 0.0
160 0.0
163 0.001001
166 0.000993
174 0.0
185 0.0
194 0.0
175 0.001043
104 0.001001
46 0.000985
45 0.002028
61 0.000985
68 0.001007
70 0.000997
80 0.001997
91 0.001997
94 0.00099
93 0.000965
97 0.001013
108 0.001006
120 0.000998
138 0.001033
153 0.002025
160 0.001002
166 0.000865
168 0.00097
173 0.002042
184 0.002002
195 0.000998
155 0.001001
81 0.000983
41 0.003027
33 0.003034
43 0.001003
49 0.000998
52 0.001001
62 0.000999
76 0.001993
84 0.003031
86 0.003009
89 0.001014
98 0.000991
110 0.001013
124 0.00202
135 0.001999
150 0.000986
159 0.002011
165 0.002025
171 0.001031
178 0.00096
188 0.001973
201 0.003029
200 0.002991
108 0.001965
52 0.00203
36 0.002018
43 0.002992
54 0.002992
61 0.003035
63 0.005024
83 0.001004
92 0.001001
93 0.000997
94 0.002993
100 0.003038
111 0.003025
130 0.002009
139 0.003025
154 0.003029
167 0.001979
174 0.003031
179 0.002995
185 0.003019
194 0.000981
205 0.002054
215 0.003991
194 0.003987
87 0.002977
46 0.002026
42 0.003019
55 0.004033
72 0.002007
74 0.003041
84 0.002993
97 0.003036
103 0.00203
102 0.002993
106 0.004029
115 0.004037
129 0.003022
149 0.003002
163 0.002992
175 0.003989
187 0.002993
192 0.003026
194 0.004001
203 0.002995
213 0.002994
226 0.002998
233 0.004025
175 0.003992
68 0.002989
45 0.003004
52 0.002998
68 0.003993
85 0.00303
91 0.003989
105 0.005022
110 0.004015
104 0.004026
104 0.003038
111 0.003026
123 0.00502
140 0.005024
161 0.002999
171 0.003964
177 0.004024
183 0.003026
187 0.002972
195 0.004033
206 0.005019
184 0.005029
99 0.004032
46 0.003991
32 0.005026
41 0.005025
61 0.003945
66 0.003978
71 0.004026
92 0.004031
94 0.00401
94 0.004973
96 0.005021
108 0.004028
124 0.004053
140 0.004008
154 0.005984
166 0.006088
176 0.00499
179 0.004015
183 0.004027
198 0.004026
206 0.004988
163 0.005987
78 0.005993
28 0.004035
28 0.00483
41 0.003987
51 0.005038
54 0.005024
62 0.00496
77 0.004974
87 0.004979
87 0.004985
91 0.004991
100 0.006019
113 0.006035
134 0.005023
146 0.005036
155 0.005028
163 0.007014
168 0.007016
173 0.006023
182 0.00602
194 0.005027
172 0.006011
115 0.005998
39 0.00603
27 0.00599
38 0.006022
54 0.004992
58 0.004991
63 0.006026
76 0.007029
86 0.006967
89 0.005982
91 0.006983
104 0.006018
117 0.006051
133 0.006021
147 0.00698
159 0.007029
168 0.007027
174 0.00701
177 0.00599
181 0.007014
189 0.007012
207 0.005981
201 0.006981
89 0.005985
42 0.005981
34 0.005992
47 0.007015
62 0.007011
70 0.006031
76 0.006982
89 0.006981
94 0.007978
92 0.007976
93 0.007013
107 0.007986
121 0.006015
131 0.007025
148 0.005971
156 0.007022
160 0.006982
163 0.007011
168 0.00698
177 0.006964
188 0.007973
151 0.007978
77 0.007023
34 0.007985
44 0.007036
60 0.007019
70 0.00702
78 0.007978
91 0.006982
94 0.006979
91 0.006993
91 0.006978
99 0.007978
111 0.007977
128 0.006986
148 0.007975
156 0.006993
161 0.007016
164 0.007017
169 0.007967
178 0.006983
187 0.006981
142 0.007011
68 0.006994
30 0.006984
24 0.00697
35 0.007012
47 0.006979
48 0.007023
61 0.00796
72 0.007011
82 0.006973
83 0.007022
84 0.006987
98 0.006975
111 0.006989
123 0.006998
131 0.006989
140 0.006981
150 0.00698
153 0.006982
159 0.005976
166 0.005975
175 0.006982
173 0.005991
120 0.005992
50 0.006004
36 0.005981
42 0.005979
52 0.006981
58 0.006992
64 0.00698
76 0.006984
87 0.006979
87 0.005986
89 0.005987
96 0.00598
107 0.005977
120 0.00599
130 0.005982
141 0.005993
149 0.00599
155 0.006021
164 0.005976
173 0.006981
192 0.005984
202 0.005992
165 0.005988
92 0.005983
54 0.005986
52 0.005986
66 0.005975
77 0.005998
80 0.00598
87 0.005028
106 0.005984
107 0.004982
105 0.004989
110 0.00499
117 0.004986
130 0.004981
143 0.004989
156 0.005982
164 0.005979
169 0.00502
172 0.005021
181 0.005002
193 0.005998
203 0.005981
174 0.005981
80 0.004993
50 0.004967
50 0.004986
63 0.004987
75 0.00497
81 0.004986
92 0.005021
103 0.004987
102 0.005031
102 0.00502
107 0.004992
117 0.004984
137 0.00399
150 0.003983
159 0.004988
164 0.00501
169 0.00498
174 0.004981
181 0.004955
193 0.00499
157 0.004967
86 0.004983
45 0.004977
39 0.004998
55 0.003965
63 0.003996
64 0.003992
70 0.003989
84 0.003985
93 0.003981
94 0.00495
97 0.003985
109 0.004989
122 0.003991
136 0.003988
148 0.003994
159 0.003993
164 0.003993
169 0.003982
174 0.004022
182 0.003997
196 0.003999
194 0.003988
128 0.003967
45 0.003956
41 0.003969
52 0.004027
62 0.003957
64 0.00396
69 0.003997
84 0.003958
96 0.002999
98 0.002996
101 0.003965
108 0.003956
119 0.003958
141 0.00399
152 0.003985
163 0.003003
171 0.00294
176 0.002987
184 0.002988
189 0.002987
196 0.002988
207 0.002998
220 0.002989
206 0.002986
122 0.002976
51 0.001994
55 0.002986
70 0.002985
80 0.002996
82 0.002987
92 0.003
105 0.00299
112 0.00299
112 0.002988
113 0.001999
123 0.002947
135 0.002992
160 0.002984
172 0.002985
181 0.001987
188 0.002025
192 0.001995
196 0.001993
200 0.002001
208 0.001975
222 0.001979
232 0.002
148 0.002992
77 0.002996
52 0.002984
68 0.002992
82 0.001985
88 0.001985
94 0.001995
110 0.001995
111 0.001998
108 0.001994
108 0.001954
114 0.002013
131 0.001984
151 0.002005
168 0.001982
175 0.002011
179 0.000996
183 0.000997
186 0.001044
199 0.001993
208 0.000982
172 0.001043
92 0.001015
48 0.000997
42 0.001994
59 0.001995
70 0.001974
71 0.001981
82 0.001977
94 0.001984
99 0.000988
99 0.001003
103 0.001003
114 0.000998
127 0.000998
142 0.000998
154 0.000997
169 0.001002
176 0.001008
180 0.000983
187 0.00099
197 0.000997
208 0.000991
199 0.0
96 0.002013
46 0.0
35 0.0
46 0.0
60 0.001
66 0.000995
73 0.000982
91 0.000997
98 0.000967
98 0.00099
100 0.000982
106 0.000985
123 0.000986
138 0.0
151 0.0
162 0.0
171 0.0
181 0.0
185 0.0
192 0.0
203 0.0
217 0.0
220 0.0
155 0.000998
58 0.0
36 0.0
45 0.0
63 0.0
73 0.0
80 0.0
92 0.0
104 0.0
103 0.0
106 0.00096
115 0.000972
128 0.0
143 0.0
158 0.001001
174 0.0
182 0.0
188 0.0
197 0.0
203 0.0
206 0.000998
221 0.002019
235 0.000978
199 0.001004
99 0.0
49 0.0
42 0.000974
57 0.0
80 0.0
87 0.0
103 0.0
110 0.0
108 0.0
103 0.000992
106 0.000997
121 0.0
138 0.0
155 0.000963
169 0.002016
178 0.001994
186 0.000999
188 0.001002
196 0.0
208 0.0
217 0.000974
186 0.000999
95 0.001002
36 0.00098
36 0.000995
53 0.0
69 0.001998
75 0.002004
85 0.000996
98 0.00101
100 0.000998
99 0.001045
104 0.001
117 0.002022
132 0.002039
155 0.001003
168 0.000973
177 0.000955
183 0.001997
187 0.002029
193 0.0
205 0.002018
216 0.000984
162 0.000986
74 0.000996
32 0.002034
28 0.003025
48 0.000918
59 0.001048
62 0.001997
65 0.002052
79 0.002981
92 0.001031
92 0.002982
96 0.002024
107 0.001994
122 0.001009
138 0.002995
149 0.003023
161 0.002984
172 0.000965
175 0.001023
179 0.001008
186 0.00203
197 0.002991
202 0.001992
126 0.002993
43 0.001995
28 0.001993
39 0.001992
55 0.002987
63 0.002976
67 0.002036
80 0.001997
92 0.002002
95 0.002993
95 0.003037
105 0.004024
117 0.004022
140 0.00203
155 0.001996
166 0.002957
176 0.004018
184 0.004021
190 0.002026
195 0.002074
202 0.002032
213 0.00403
227 0.004018
186 0.003028
90 0.002992
37 0.002001
39 0.001999
58 0.003018
74 0.004019
78 0.004023
87 0.001969
100 0.002991
102 0.002984
99 0.004023
100 0.00403
116 0.003989
132 0.003958
152 0.003033
166 0.001993
175 0.003995
181 0.00398
185 0.00403
190 0.002991
195 0.002985
205 0.003
218 0.005054
224 0.004983
92 0.004987
43 0.003989
39 0.002998
57 0.002997
74 0.004002
80 0.002947
87 0.005011
101 0.005019
101 0.003946
97 0.004003
99 0.003976
108 0.005021
135 0.003991
151 0.004987
163 0.00502
175 0.003944
180 0.004027
182 0.003987
185 0.004977
190 0.005102
205 0.004042
215 0.003988
175 0.004023
83 0.004989
23 0.005015
29 0.005984
43 0.006028
53 0.004978
53 0.00399
63 0.005027
78 0.006017
85 0.006017
85 0.004027
89 0.004033
100 0.004955
113 0.005017
138 0.003986
149 0.006016
159 0.006015
168 0.005008
173 0.004955
179 0.004994
185 0.006022
194 0.006015
213 0.005015
214 0.005034
136 0.005019
33 0.004986
25 0.005017
38 0.006982
53 0.007013
58 0.005017
62 0.004984
77 0.004952
88 0.006027
91 0.00602
93 0.004995
99 0.005002
110 0.005979
135 0.005017
148 0.006032
160 0.006981
168 0.006981
175 0.007008
182 0.004997
189 0.006017
195 0.005025
203 0.007023
216 0.007022
233 0.006023
201 0.005034
56 0.005985
30 0.005976
37 0.005996
54 0.006994
65 0.007016
69 0.005988
79 0.005991
92 0.005997
99 0.007015
99 0.007026
102 0.006972
114 0.006981
140 0.007012
156 0.007015
169 0.007024
181 0.007972
188 0.007981
193 0.005991
198 0.00603
204 0.006006
211 0.007018
221 0.007015
239 0.006988
252 0.006993
130 0.006982
55 0.007015
34 0.007016
43 0.007979
71 0.007969
81 0.007016
84 0.007017
98 0.007037
106 0.007992
103 0.007022
100 0.007018
105 0.006013
133 0.006971
152 0.006981
167 0.006996
177 0.00702
183 0.007987
186 0.006979
189 0.006985
195 0.006995
209 0.007967
219 0.007971
179 0.006973
63 0.006977
27 0.007029
43 0.006984
61 0.007012
70 0.006987
74 0.006988
88 0.006955
99 0.006978
96 0.006986
95 0.006983
102 0.006978
115 0.005978
138 0.006981
160 0.007046
176 0.007012
181 0.007012
185 0.007014
188 0.006023
195 0.006982
210 0.006983
212 0.006968
140 0.006981
56 0.005988
20 0.005985
24 0.005986
42 0.006017
49 0.006976
50 0.006949
64 0.006018
77 0.005969
83 0.005999
84 0.006997
89 0.006976
101 0.006983
116 0.005981
130 0.005981
151 0.005981
159 0.005983
167 0.00602
171 0.006024
177 0.005978
189 0.005977
200 0.00597
154 0.005982
71 0.005977
27 0.005969
21 0.004995
35 0.004986
52 0.005028
55 0.005027
69 0.00602
82 0.005974
87 0.006017
86 0.005979
90 0.00598
104 0.005977
119 0.004981
134 0.004986
148 0.004991
157 0.004981
170 0.005026
175 0.005018
178 0.005025
189 0.005019
203 0.005018
214 0.004972
174 0.004983
85 0.004996
30 0.004992
31 0.004966
47 0.004961
61 0.004983
67 0.005024
79 0.005023
88 0.005036
89 0.005013
88 0.005025
92 0.004988
104 0.004991
119 0.003989
136 0.003978
146 0.003984
153 0.003961
157 0.004008
163 0.00402
168 0.00399
179 0.004021
194 0.004002
161 0.002981
82 0.004987
36 0.00492
29 0.003996
47 0.003994
61 0.005003
64 0.003979
73 0.003987
91 0.003999
88 0.003993
88 0.004024
94 0.004031
106 0.003994
121 0.003984
137 0.003975
147 0.00294
156 0.00299
162 0.004005
167 0.003988
170 0.002992
179 0.004021
190 0.00399
204 0.003024
199 0.003026
116 0.003035
46 0.002992
19 0.004002
21 0.003937
37 0.004005
39 0.003984
38 0.002964
46 0.003991
70 0.004034
75 0.003003
76 0.003013
81 0.002992
95 0.002992
107 0.002999
120 0.002996
131 0.002994
140 0.002994
150 0.002984
156 0.002937
163 0.002982
174 0.003042
182 0.001996
193 0.002992
206 0.002992
213 0.003034
145 0.00303
64 0.002992
29 0.002985
27 0.003
44 0.002992
52 0.00298
53 0.001993
69 0.002026
81 0.001995
85 0.001982
86 0.002021
93 0.001995
104 0.001991
118 0.001977
133 0.003029
144 0.002979
156 0.002991
164 0.001993
174 0.002028
181 0.001991
188 0.001999
197 0.002033
205 0.002034
217 0.001995
231 0.002026
242 0.001961
212 0.001997
109 0.002026
37 0.00199
32 0.001012
57 0.001
65 0.000997
65 0.000998
74 0.002014
89 0.002039
95 0.002026
96 0.002008
100 0.001988
108 0.002025
122 0.001984
146 0.001001
160 0.001002
173 0.000997
182 0.000998
189 0.00103
196 0.000997
203 0.000997
211 0.000998
223 0.001001
232 0.000983
245 0.000994
255 0.000981
251 0.000982
112 0.001954
39 0.0
40 0.0
61 0.0
77 0.0
82 0.0
89 0.0
106 0.001005
105 0.000985
100 0.000986
100 0.00099
109 0.0
130 0.000954
156 0.0
174 0.0
183 0.0
189 0.0
192 0.0
195 0.0
203 0.0
214 0.0
227 0.0
226 0.0
140 0.0
41 0.0
26 0.00101
50 0.00099
66 0.0
71 0.0
80 0.0
96 0.0
100 0.0
99 0.0
101 0.0
110 0.0
126 0.0
153 0.0
173 0.001
189 0.000998
195 0.000997
202 0.0
205 0.0
210 0.0
223 0.001997
236 0.001995
178 0.0
73 0.0
24 0.0
16 0.000968
42 0.0
53 0.001033
54 0.000999
61 0.001025
81 0.0
88 0.0
88 0.0
91 0.001993
99 0.000996
119 0.000959
131 0.001001
154 0.0
174 0.0
182 0.0
188 0.00103
194 0.001036
200 0.0
212 0.0
228 0.0
225 0.001026
134 0.000999
34 0.0
16 0.0
40 0.001005
54 0.001004
60 0.000998
66 0.002009
80 0.002034
92 0.001025
91 0.0
92 0.0
100 0.000954
114 0.001029
139 0.000978
155 0.000998
176 0.001023
184 0.002008
191 0.001005
196 0.002042
200 0.001995
213 0.000958
229 0.001026
239 0.001029
185 0.003053
79 0.001995
22 0.001993
26 0.0
58 0.001005
69 0.0
75 0.002043
88 0.002992
99 0.002992
99 0.000959
97 0.000996
102 0.000965
115 0.002992
134 0.003034
160 0.001039
176 0.00096
192 0.001004
198 0.000958
200 0.000997
204 0.002024
211 0.002993
224 0.003028
238 0.00103
183 0.001004
77 0.001951
29 0.003039
25 0.002978
51 0.001993
76 0.002992
89 0.001954
103 0.002005
106 0.002015
99 0.003989
96 0.00402
103 0.001963
119 0.001976
141 0.001994
160 0.003024
175 0.003963
190 0.000984
195 0.002993
198 0.002006
203 0.001955
215 0.002016
223 0.002993
164 0.003996
41 0.00302
10 0.001978
14 0.001983
32 0.003964
48 0.004023
55 0.001983
70 0.003955
85 0.001954
86 0.001968
86 0.00298
91 0.003989
103 0.004986
129 0.002996
148 0.001995
163 0.002077
174 0.004024
183 0.00396
190 0.00299
197 0.003989
209 0.002991
222 0.003002
218 0.003024
123 0.00399
39 0.003984
10 0.002998
22 0.001996
41 0.003
54 0.004973
58 0.005016
73 0.002962
87 0.005014
87 0.002997
90 0.002999
98 0.00299
112 0.003989
132 0.004017
150 0.004022
170 0.004011
181 0.004018
188 0.003949
194 0.005019
198 0.005023
212 0.005018
225 0.005025
213 0.00398
109 0.003985
35 0.004023
14 0.005027
26 0.004987
53 0.004025
67 0.003988
72 0.00394
86 0.005985
100 0.003996
97 0.005987
98 0.005984
111 0.003989
128 0.003987
149 0.003956
169 0.00502
184 0.006016
196 0.003956
204 0.003951
207 0.003943
210 0.005022
225 0.004978
240 0.005984
240 0.005984
106 0.004985
35 0.005019
19 0.00399
33 0.006019
57 0.005994
78 0.003944
86 0.005026
102 0.003989
106 0.005988
96 0.003995
95 0.006992
106 0.006982
131 0.004982
155 0.004987
173 0.004987
185 0.005984
192 0.006982
197 0.005953
201 0.00515
210 0.005995
219 0.006024
117 0.005007
38 0.006983
12 0.006981
27 0.004986
50 0.00502
64 0.00502
70 0.006982
85 0.007017
97 0.007045
94 0.005014
91 0.00499
97 0.004956
122 0.004991
144 0.005707
164 0.007013
178 0.007021
192 0.00498
195 0.006019
198 0.006006
205 0.006981
217 0.007012
205 0.006024
103 0.006984
27 0.005972
5 0.005977
22 0.005985
43 0.007977
47 0.007979
53 0.005982
69 0.006955
80 0.005981
83 0.006982
82 0.007011
91 0.005991
108 0.006969
127 0.007
157 0.007012
169 0.00701
182 0.007973
186 0.007975
190 0.007021
199 0.006968
212 0.00598
204 0.007967
108 0.007011
33 0.006023
8 0.006977
22 0.006978
46 0.00697
53 0.00698
64 0.00797
75 0.007978
88 0.006993
88 0.006975
88 0.006002
95 0.007979
115 0.006984
141 0.006977
158 0.007012
172 0.006975
184 0.006981
190 0.006974
195 0.007012
204 0.007012
218 0.006983
231 0.006983
190 0.006982
58 0.007015
19 0.006978
19 0.00698
47 0.006982
64 0.007058
74 0.006974
89 0.00697
98 0.006981
97 0.006978
96 0.007024
104 0.006972
113 0.006971
139 0.006013
158 0.005981
173 0.005976
189 0.005976
196 0.00602
200 0.005984
205 0.006983
217 0.006989
229 0.006017
225 0.006019
97 0.005981
35 0.006012
22 0.005985
36 0.005979
60 0.005982
76 0.006969
92 0.006024
103 0.005984
99 0.005016
93 0.006001
96 0.006016
107 0.006028
134 0.00602
153 0.006022
169 0.005984
179 0.005948
185 0.005989
188 0.005974
201 0.006055
211 0.006019
171 0.006019
76 0.005016
23 0.005016
13 0.005017
35 0.005017
51 0.005006
57 0.004985
63 0.004986
79 0.004985
89 0.006011
88 0.006018
93 0.005981
106 0.005987
122 0.005019
140 0.005028
156 0.004979
171 0.004986
176 0.005019
181 0.005019
188 0.005019
198 0.00499
207 0.004992
113 0.004948
43 0.00501
17 0.005022
29 0.004954
46 0.005019
55 0.005017
59 0.00399
76 0.003981
89 0.003988
91 0.003943
91 0.003968
94 0.003989
115 0.00399
133 0.005029
154 0.005017
165 0.005024
174 0.00502
180 0.005021
183 0.004988
192 0.005024
205 0.003989
212 0.003946
156 0.003935
72 0.003962
26 0.004026
40 0.004028
62 0.003989
69 0.00399
76 0.003989
91 0.00403
100 0.00399
101 0.00399
101 0.002992
107 0.003026
121 0.003988
139 0.004004
165 0.003992
178 0.003991
189 0.003991
195 0.004001
198 0.00399
203 0.003991
212 0.00399
231 0.003995
227 0.002992
138 0.00299
60 0.002993
34 0.002977
57 0.002992
75 0.00399
85 0.002984
96 0.003025
108 0.004025
107 0.003022
102 0.001989
102 0.003989
112 0.004015
129 0.003025
147 0.003031
171 0.002989
177 0.002986
181 0.002992
182 0.002992
190 0.002973
201 0.002985
210 0.003024
167 0.003026
80 0.001993
31 0.003024
37 0.002992
57 0.002999
80 0.001996
87 0.002025
101 0.001995
106 0.002029
100 0.001996
100 0.001996
107 0.003025
123 0.002025
141 0.002993
164 0.001996
175 0.00297
183 0.003002
189 0.003022
192 0.003034
202 0.001996
213 0.001995
184 0.001996
89 0.002031
31 0.002051
17 0.001996
28 0.001995
49 0.002023
53 0.001963
55 0.001021
78 0.001013
88 0.000997
89 0.001007
91 0.000999
103 0.002032
118 0.000998
134 0.001995
148 0.001995
161 0.002032
172 0.002001
175 0.002014
182 0.001995
199 0.001003
208 0.001996
167 0.000961
79 0.000999
25 0.000998
28 0.000997
45 0.000978
58 0.001033
63 0.002016
72 0.000997
91 0.000992
97 0.0
97 0.0
104 0.000991
116 0.000997
134 0.0
152 0.0
172 0.000998
182 0.000998
192 0.000997
199 0.000997
202 0.000983
212 0.000997
227 0.001001
225 0.0
128 0.0
53 0.0
29 0.0
39 0.0
68 0.0
80 0.0
87 0.0
100 0.0
108 0.0
106 0.0
104 0.0
116 0.0
131 0.000997
150 0.000998
167 0.0
179 0.0
187 0.0
191 0.0
194 0.0
203 0.0
211 0.0
212 0.0
131 0.0
30 0.0
27 0.001002
55 0.0
72 0.0
79 0.0
91 0.002028
106 0.002029
105 0.0
100 0.0
101 0.001006
110 0.000982
147 0.0
165 0.001048
182 0.00104
195 0.000968
199 0.000997
202 0.0
207 0.000962
215 0.00101
226 0.002025
181 0.000997
110 0.000998
31 0.001002
34 0.0
55 0.0
69 0.001998
74 0.002032
89 0.0
101 0.0
104 0.0
102 0.001029
104 0.001029
120 0.0
137 0.0
156 0.0
180 0.0
188 0.000964
194 0.000997
196 0.000998
199 0.000998
212 0.0
219 0.0
166 0.002027
72 0.002027
19 0.0
24 0.0
46 0.0
71 0.000998
78 0.0
92 0.001031
102 0.002026
101 0.000967
99 0.002002
103 0.000961
119 0.001995
142 0.001995
168 0.001971
184 0.001016
196 0.000996
207 0.001032
211 0.000997
218 0.00217
231 0.002012
246 0.000997
194 0.000991
88 0.001995
37 0.003025
33 0.003027
62 0.001998
83 0.000966
93 0.001034
114 0.000957
120 0.000985
116 0.002029
112 0.001999
118 0.001995
133 0.002048
155 0.001028
175 0.003033
191 0.002991
201 0.002992
208 0.001994
210 0.000985
222 0.002028
228 0.000998
180 0.001034
85 0.003028
39 0.002992
40 0.001979
65 0.002015
84 0.001978
95 0.003989
107 0.00399
120 0.001995
113 0.00198
105 0.001988
115 0.001994
131 0.001984
152 0.002992
171 0.002992
189 0.001993
195 0.001982
199 0.001986
204 0.003048
215 0.002993
203 0.002031
110 0.002962
25 0.003032
28 0.002025
48 0.001996
65 0.00399
71 0.003989
81 0.001986
95 0.001981
102 0.001997
101 0.003989
101 0.004024
110 0.001952
126 0.002984
155 0.003002
170 0.00298
179 0.002986
184 0.004021
189 0.003989
203 0.002958
207 0.002983
154 0.002994
72 0.003981
32 0.004033
35 0.002997
61 0.004022
75 0.00203
79 0.002033
92 0.002986
103 0.005018
104 0.005036
102 0.002981
109 0.002985
121 0.002947
139 0.004982
154 0.005025
172 0.00299
183 0.004987
188 0.005041
197 0.00299
206 0.002947
210 0.002982
153 0.005984
72 0.005028
33 0.003987
44 0.002993
65 0.004012
79 0.006025
85 0.005021
104 0.004988
112 0.005021
109 0.00399
110 0.002995
118 0.003959
132 0.004987
149 0.004987
171 0.003996
183 0.003007
192 0.002996
196 0.005028
200 0.005985
216 0.006016
223 0.005984
136 0.003988
63 0.003956
38 0.003999
47 0.005984
70 0.005984
93 0.003993
101 0.003996
113 0.003989
119 0.005987
115 0.005955
109 0.005015
117 0.00602
140 0.004985
159 0.004024
173 0.00499
183 0.005995
194 0.005984
207 0.004987
216 0.003999
224 0.004985
169 0.005984
85 0.005984
48 0.006983
65 0.006978
93 0.004987
102 0.004986
112 0.005961
124 0.007018
123 0.006981
112 0.00498
114 0.004991
124 0.004988
141 0.005984
161 0.006034
185 0.006017
192 0.00703
198 0.007013
209 0.00499
209 0.005018
148 0.004991
65 0.007017
24 0.006976
29 0.005
50 0.004987
62 0.00502
65 0.006981
83 0.005986
96 0.007959
95 0.007975
95 0.004991
102 0.005987
116 0.005953
132 0.007026
148 0.006982
166 0.004987
173 0.005034
178 0.006981
185 0.007979
198 0.006014
129 0.007974
54 0.007968
22 0.00595
28 0.005984
46 0.005984
60 0.007978
63 0.006981
76 0.004987
89 0.005983
93 0.005984
92 0.006981
99 0.007032
116 0.00798
128 0.007978
148 0.007014
161 0.006028
169 0.00599
174 0.007979
180 0.007032
188 0.005973
204 0.006981
207 0.006981
75 0.006969
43 0.006948
33 0.007015
53 0.007015
70 0.006981
76 0.00694
89 0.00692
99 0.007979
107 0.007946
104 0.007011
105 0.006982
120 0.006974
150 0.006979
162 0.006973
180 0.007013
188 0.006982
191 0.006974
191 0.006975
193 0.006981
198 0.006979
210 0.006987
223 0.007017
165 0.005981
81 0.005982
43 0.00698
54 0.00696
83 0.006993
95 0.006983
104 0.007033
119 0.006966
114 0.006969
107 0.006973
106 0.007026
115 0.006014
136 0.006974
155 0.006019
176 0.006022
182 0.006017
184 0.005987
187 0.006019
194 0.006017
204 0.005947
169 0.005968
87 0.006021
39 0.007015
32 0.00702
51 0.006017
65 0.006018
71 0.006017
84 0.006018
95 0.00602
98 0.006011
97 0.005984
104 0.005978
115 0.005988
130 0.005971
147 0.00502
159 0.005018
169 0.004972
174 0.004985
187 0.006014
195 0.006015
184 0.006043
114 0.005987
54 0.006018
34 0.006018
49 0.005018
64 0.00602
71 0.004983
75 0.005017
93 0.005018
100 0.005017
99 0.004989
103 0.00502
112 0.00502
127 0.004986
142 0.005018
155 0.005018
169 0.004022
176 0.006022
179 0.004968
182 0.00502
190 0.005027
206 0.005022
201 0.005027
94 0.004974
43 0.004953
36 0.005081
51 0.004951
69 0.004964
77 0.004956
84 0.005023
96 0.003992
103 0.004021
102 0.003948
102 0.003991
116 0.003957
137 0.003992
153 0.003992
166 0.004958
177 0.004955
184 0.005018
191 0.004989
195 0.005033
200 0.003952
210 0.003988
223 0.003991
200 0.00396
104 0.00399
40 0.003975
41 0.00397
61 0.003996
79 0.00399
87 0.005046
99 0.003992
109 0.004032
110 0.004041
107 0.003991
108 0.003989
126 0.003964
143 0.00399
168 0.003992
179 0.003026
187 0.004006
192 0.003989
193 0.003025
198 0.002982
209 0.003013
222 0.003991
216 0.003026
133 0.003023
44 0.002996
45 0.003024
74 0.003991
90 0.003994
98 0.003957
111 0.003026
120 0.002992
113 0.002993
109 0.002992
114 0.002986
127 0.002992
147 0.003025
175 0.002986
187 0.002992
193 0.003025
195 0.001981
199 0.002993
208 0.001995
218 0.001995
206 0.002037
90 0.002009
36 0.001995
25 0.003035
42 0.002992
66 0.002985
69 0.002992
77 0.002028
95 0.001995
98 0.002027
96 0.001995
99 0.001995
109 0.001963
132 0.002011
150 0.00203
165 0.00203
176 0.002035
185 0.002963
189 0.001996
195 0.001995
212 0.000997
221 0.002025
173 0.00203
80 0.001995
33 0.002043
33 0.001962
53 0.002006
68 0.002027
73 0.002022
90 0.001995
101 0.002
101 0.000956
102 0.000998
109 0.000998
123 0.000997
141 0.000998
160 0.000997
177 0.000997
186 0.002029
192 0.002061
200 0.001995
214 0.001992
184 0.001996
100 0.000997
40 0.000997
41 0.000997
62 0.001052
81 0.000997
89 0.001995
106 0.001995
120 0.001995
122 0.002045
119 0.000998
127 0.000981
142 0.000998
162 0.0
180 0.0
194 0.000998
200 0.000998
209 0.000964
219 0.00103
220 0.000998
122 0.000991
58 0.000997
47 0.000994
69 0.000997
89 0.000995
98 0.001015
111 0.0
126 0.0
124 0.0
119 0.0
121 0.0
134 0.0
160 0.0
180 0.0
202 0.00098
209 0.000984
216 0.000997
224 0.0
229 0.0
169 0.0
81 0.0
41 0.0
42 0.0
64 0.0
86 0.0
94 0.0
117 0.0
117 0.001013
112 0.000963
110 0.000967
117 0.000997
140 0.000998
159 0.001034
182 0.0
191 0.000965
196 0.000973
200 0.00103
206 0.001031
219 0.001836
181 0.001992
65 0.0
31 0.0
38 0.0
60 0.002027
78 0.002026
90 0.0
105 0.0
107 0.0
102 0.001992
99 0.001962
112 0.001994
131 0.002004
151 0.001964
175 0.0
185 0.0
191 0.0
197 0.001027
209 0.000995
222 0.000965
180 0.000965
83 0.0
30 0.002029
36 0.0
59 0.002035
72 0.001034
80 0.0
95 0.000965
102 0.000996
101 0.001043
101 0.001028
112 0.0
128 0.0
148 0.0
168 0.002028
188 0.0
194 0.002034
199 0.002026
212 0.000974
221 0.0
196 0.000966
101 0.002037
40 0.002025
27 0.0
46 0.0
64 0.0
69 0.002025
85 0.0
99 0.001997
101 0.00204
99 0.0
105 0.0
119 0.000989
137 0.001994
156 0.00199
176 0.001018
186 0.000999
190 0.001996
194 0.001947
206 0.0
217 0.002016
206 0.001995
84 0.002006
29 0.002001
21 0.000994
39 0.002026
60 0.002993
74 0.001987
83 0.001001
97 0.001999
103 0.002993
99 0.001987
105 0.002009
118 0.002946
136 0.003036
164 0.001994
179 0.002003
190 0.001035
195 0.002993
200 0.004016
204 0.001996
216 0.001996
227 0.001988
148 0.001998
58 0.00098
24 0.003991
31 0.00399
63 0.001988
78 0.001988
86 0.002961
102 0.004031
109 0.003039
98 0.002006
96 0.001992
111 0.002028
131 0.00203
153 0.002037
171 0.003989
183 0.003989
190 0.001992
197 0.002001
205 0.001987
213 0.004023
174 0.003988
57 0.002008
22 0.001992
39 0.00203
60 0.002987
70 0.002035
79 0.003995
94 0.005018
100 0.002984
98 0.002985
98 0.003002
107 0.004029
124 0.00399
154 0.002025
173 0.002992
189 0.002005
193 0.00301
202 0.003008
212 0.004986
211 0.004987
100 0.003025
35 0.003018
16 0.002979
29 0.004986
49 0.004954
63 0.002957
67 0.002012
89 0.004987
99 0.002036
97 0.00401
102 0.003023
114 0.005021
131 0.00603
159 0.003989
176 0.003992
187 0.00299
194 0.005009
201 0.005022
210 0.003036
209 0.005024
97 0.002981
36 0.00398
21 0.004003
35 0.006017
55 0.006017
66 0.003993
73 0.003996
90 0.00399
99 0.005984
97 0.005981
97 0.003993
112 0.005022
135 0.003995
152 0.004957
165 0.003025
174 0.006015
179 0.006026
184 0.003983
193 0.004005
204 0.003991
202 0.006019
126 0.006018
32 0.003988
17 0.006022
43 0.004957
57 0.005018
60 0.004966
72 0.006984
85 0.006981
87 0.00499
86 0.004999
91 0.003992
104 0.005988
121 0.006015
147 0.003997
165 0.00602
175 0.004975
177 0.004026
182 0.004987
191 0.007016
205 0.007007
205 0.004998
122 0.004001
46 0.00499
21 0.007014
33 0.007013
67 0.005952
75 0.00602
88 0.007022
102 0.006031
98 0.006013
92 0.004989
93 0.007031
104 0.007014
128 0.005037
146 0.004988
156 0.004978
164 0.006982
172 0.005035
180 0.007021
190 0.00702
179 0.004987
98 0.004987
34 0.006007
16 0.007978
34 0.007976
52 0.00598
58 0.005985
66 0.005984
86 0.007966
90 0.005984
88 0.007013
95 0.007994
109 0.006015
128 0.006023
145 0.005952
163 0.007974
171 0.007978
175 0.005984
179 0.005995
188 0.005983
203 0.007984
166 0.005955
50 0.007981
14 0.007974
15 0.005985
31 0.006894
43 0.006974
44 0.007015
55 0.007989
72 0.004996
81 0.004968
83 0.005985
87 0.007972
103 0.005992
126 0.007944
142 0.007975
156 0.004982
168 0.006987
172 0.006973
180 0.007013
184 0.007032
197 0.006947
211 0.00697
227 0.006969
224 0.006944
77 0.006967
19 0.005982
23 0.006996
41 0.00698
56 0.006983
57 0.006976
70 0.006997
87 0.007015
94 0.007018
93 0.006975
96 0.006981
107 0.006982
142 0.006015
158 0.005988
171 0.005986
181 0.00598
191 0.005982
197 0.005988
203 0.005979
212 0.006019
220 0.006982
237 0.006984
254 0.006939
255 0.007018
159 0.006952
41 0.006984
23 0.00599
39 0.006989
68 0.005965
76 0.005984
81 0.005986
98 0.006017
105 0.006017
99 0.005973
98 0.005976
106 0.005952
134 0.005985
153 0.005995
168 0.004993
178 0.004992
185 0.005018
188 0.006014
191 0.006047
199 0.006014
213 0.006015
229 0.005981
172 0.005999
72 0.005978
19 0.00598
34 0.005978
56 0.00499
67 0.004982
74 0.005019
91 0.005025
98 0.00502
95 0.004975
94 0.004985
105 0.004993
122 0.005994
156 0.005995
172 0.004991
185 0.005039
191 0.004988
195 0.004961
196 0.005017
209 0.004997
224 0.004988
229 0.005019
157 0.005019
60 0.005039
12 0.004983
27 0.004983
48 0.004978
52 0.004983
55 0.003989
71 0.004981
86 0.004023
88 0.005037
87 0.005001
96 0.005018
111 0.005019
128 0.004988
150 0.004017
166 0.003977
176 0.003979
179 0.003994
184 0.003986
197 0.002957
211 0.003989
185 0.004023
89 0.003989
28 0.004983
14 0.004025
28 0.004028
51 0.00499
55 0.003988
72 0.003995
86 0.003957
90 0.00401
88 0.004
93 0.004028
108 0.00401
126 0.00402
145 0.003989
161 0.004022
172 0.003028
183 0.004023
189 0.002994
196 0.003998
206 0.002999
223 0.002991
235 0.004004
186 0.003989
55 0.003989
19 0.003992
23 0.003959
44 0.002992
61 0.003023
67 0.003028
87 0.002992
95 0.002989
92 0.002996
92 0.002978
100 0.002968
115 0.002988
141 0.002982
156 0.003023
166 0.002993
173 0.003022
176 0.001995
179 0.002033
194 0.001994
207 0.001995
179 0.002961
86 0.002991
30 0.002994
19 0.003042
37 0.00303
64 0.002993
70 0.002027
83 0.002025
98 0.002993
98 0.001995
92 0.001992
97 0.001998
119 0.001962
138 0.001996
155 0.001996
168 0.001996
177 0.00201
183 0.002
187 0.002021
196 0.002994
209 0.001995
222 0.001986
130 0.000988
46 0.002013
12 0.001999
24 0.00197
42 0.001987
49 0.002001
50 0.002033
66 0.002043
81 0.002029
85 0.002031
84 0.001995
89 0.00203
111 0.001006
128 0.001
148 0.001999
159 0.001006
167 0.000988
175 0.000997
180 0.001996
187 0.001996
195 0.001995
209 0.000998
224 0.001996
184 0.001976
79 0.001995
24 0.000999
18 0.000996
37 0.001014
51 0.000991
53 0.000997
58 0.000998
75 0.0
86 0.000997
85 0.000997
88 0.0
107 0.0
124 0.000994
140 0.0
154 0.0
167 0.0
174 0.0
180 0.0
187 0.000997
194 0.0
205 0.0
215 0.000998
229 0.0
253 0.0
218 0.000997
100 0.000997
31 0.0
21 0.0
42 0.0
58 0.0
64 0.0
68 0.0
86 0.0
93 0.0
92 0.0
97 0.0
110 0.0
127 0.0
146 0.000991
167 0.0
175 0.001996
185 0.000993
189 0.000967
194 0.0
200 0.002001
212 0.001028
232 0.0
249 0.002015
143 0.0
53 0.0
22 0.0
27 0.00199
45 0.001997
63 0.0
68 0.0
86 0.0
96 0.002046
94 0.002023
90 0.0
103 0.002026
123 0.002013
152 0.000955
169 0.0
182 0.0
188 0.002027
193 0.00204
195 0.0
202 0.0
216 0.0
218 0.002026
215 0.002035
52 0.001991
11 0.001985
20 0.0
34 0.000966
51 0.0
53 0.001996
63 0.000997
82 0.0
86 0.000953
84 0.0
88 0.002011
101 0.002035
132 0.002028
150 0.001994
168 0.0
177 0.0
184 0.0
189 0.002038
193 0.002028
207 0.0
223 0.0
234 0.0
180 0.002001
70 0.001949
5 0.00196
18 0.002027
41 0.0
47 0.0
50 0.0
65 0.002992
80 0.003036
86 0.002006
85 0.002004
92 0.002003
106 0.002992
138 0.002996
156 0.002981
169 0.002991
181 0.003004
187 0.001991
191 0.001995
196 0.004022
208 0.00399
226 0.003036
233 0.001978
151 0.002992
53 0.003025
14 0.00096
32 0.0
52 0.003039
59 0.002944
67 0.0
85 0.001989
95 0.001988
94 0.003989
95 0.003023
105 0.002037
123 0.002009
145 0.00201
175 0.002001
187 0.001976
195 0.003948
201 0.004008
206 0.001978
213 0.002006
227 0.001997
243 0.003995
242 0.003989
103 0.001997
32 0.002001
16 0.001996
50 0.002033
68 0.002002
74 0.004023
87 0.002994
101 0.002004
97 0.002992
93 0.001998
97 0.003989
110 0.003988
140 0.001995
161 0.001994
176 0.001995
190 0.002031
194 0.002996
197 0.004988
205 0.005036
221 0.003041
219 0.00201
129 0.001981
39 0.004987
3 0.00499
17 0.002994
37 0.00203
47 0.002993
57 0.002993
75 0.001992
85 0.004021
83 0.004989
86 0.002994
97 0.002992
116 0.002982
136 0.005018
156 0.004987
171 0.00502
181 0.00299
187 0.003001
197 0.001968
210 0.003991
223 0.002035
194 0.005991
88 0.005975
10 0.004015
7 0.00296
25 0.003994
42 0.005982
46 0.00602
52 0.00399
70 0.003029
80 0.003032
78 0.003993
83 0.003992
96 0.005986
117 0.006018
146 0.00399
165 0.003984
178 0.003991
187 0.00602
191 0.006024
201 0.002988
215 0.005014
226 0.004006
147 0.003991
53 0.004957
15 0.006004
20 0.006013
46 0.004021
59 0.00396
64 0.003976
76 0.006032
92 0.00603
97 0.003989
95 0.003986
109 0.004989
127 0.004955
149 0.004958
170 0.006985
185 0.007011
198 0.00497
203 0.005981
206 0.004987
213 0.006025
228 0.007014
186 0.004995
133 0.006023
81 0.004955
74 0.004958
83 0.004949
95 0.007011
102 0.007013
108 0.004952
117 0.004954
117 0.004967
113 0.006981
112 0.007049
118 0.004955
131 0.007016
142 0.006983
152 0.006011
156 0.004004
159 0.005022
164 0.007979
169 0.00798
172 0.00504
147 0.006016
98 0.005992
71 0.007976
73 0.007975
90 0.007978
95 0.007958
99 0.004941
107 0.004972
111 0.005032
109 0.007015
108 0.007015
114 0.005925
123 0.005986
136 0.005985
148 0.007938
153 0.007949
158 0.007979
159 0.007963
167 0.005026
168 0.005981
134 0.006007
88 0.007973
64 0.007968
67 0.006001
75 0.005988
80 0.006974
80 0.007013
88 0.008029
99 0.007966
101 0.007981
102 0.005987
107 0.005984
114 0.005982
127 0.006978
136 0.007977
143 0.006976
149 0.00697
151 0.006946
155 0.007011
162 0.007011
170 0.006977
138 0.006983
92 0.006983
69 0.006981
72 0.006982
80 0.007996
85 0.00698
88 0.007013
95 0.00698
102 0.006979
107 0.007011
106 0.006983
112 0.006976
120 0.006934
130 0.006991
139 0.005966
146 0.00698
153 0.006015
157 0.005979
161 0.006006
166 0.005968
170 0.005983
175 0.005982
183 0.006983
195 0.00699
165 0.006948
105 0.00698
72 0.006979
74 0.006979
84 0.005989
92 0.006978
93 0.005974
101 0.005955
109 0.005958
111 0.005954
109 0.006016
114 0.005973
122 0.005981
133 0.005984
145 0.005984
152 0.005989
157 0.005986
161 0.005025
162 0.006016
165 0.005984
168 0.005984
174 0.005982
187 0.005992
175 0.005985
119 0.006001
82 0.005968
75 0.005979
84 0.005985
94 0.005981
97 0.005982
103 0.005979
112 0.005017
112 0.005022
109 0.004994
113 0.005009
122 0.005014
134 0.004985
145 0.004985
155 0.004995
158 0.005989
161 0.005951
161 0.004984
164 0.004014
172 0.004031
179 0.00399
165 0.004021
84 0.005019
67 0.004982
69 0.003991
77 0.004976
83 0.004988
84 0.005036
91 0.003956
100 0.003976
105 0.004983
105 0.003989
108 0.004039
116 0.003999
133 0.004038
143 0.003984
151 0.003991
157 0.004951
161 0.004019
164 0.004959
168 0.004999
176 0.004989
181 0.003993
164 0.003993
95 0.004023
71 0.004024
75 0.003957
84 0.003992
87 0.003972
89 0.003973
98 0.003991
107 0.003991
107 0.004985
108 0.002971
111 0.003954
118 0.002992
132 0.003991
143 0.002992
158 0.003987
164 0.003991
169 0.002976
173 0.004038
176 0.00399
186 0.003023
195 0.002982
192 0.002998
137 0.002993
89 0.002995
74 0.002992
83 0.002992
99 0.002992
102 0.002964
108 0.002992
118 0.002994
120 0.002989
119 0.002994
119 0.002997
126 0.002976
137 0.002995
148 0.002992
162 0.003027
169 0.002992
175 0.002996
177 0.002992
180 0.002961
185 0.002966
193 0.002013
196 0.001985
132 0.001996
85 0.001988
73 0.001987
80 0.001995
94 0.002012
106 0.001992
115 0.002
125 0.001998
122 0.002989
116 0.002007
117 0.00303
125 0.001991
142 0.002004
155 0.002001
164 0.001998
169 0.001994
172 0.002028
175 0.002028
181 0.001986
186 0.001994
151 0.00196
94 0.000999
68 0.002008
67 0.000983
82 0.001997
92 0.001988
95 0.001992
102 0.002048
110 0.002032
112 0.001994
111 0.001998
117 0.002009
127 0.002018
141 0.000995
153 0.000983
162 0.001044
169 0.000964
172 0.002031
174 0.001996
179 0.000997
185 0.002028
141 0.0
86 0.0
62 0.001014
67 0.001027
79 0.000979
85 0.000978
87 0.000996
97 0.001018
106 0.000998
109 0.000996
108 0.000997
110 0.000996
123 0.00096
135 0.000982
147 0.001001
159 0.0
164 0.0
168 0.0
170 0.0
173 0.0
182 0.0
188 0.0
159 0.0
98 0.000995
64 0.000992
71 0.0
82 0.000965
92 0.000995
95 0.0
104 0.0
112 0.0
113 0.0
112 0.0
116 0.0
126 0.0
138 0.0
158 0.0
165 0.0
171 0.0
175 0.0
177 0.000962
180 0.000962
185 0.001043
193 0.001054
201 0.0
163 0.001981
82 0.0
66 0.0
79 0.0
92 0.0
98 0.00097
102 0.001
112 0.001993
117 0.0
114 0.000988
114 0.000967
119 0.001985
130 0.002025
148 0.0
160 0.0
173 0.0
177 0.0
178 0.001007
180 0.000997
185 0.001984
194 0.0
198 0.0
157 0.0
93 0.00198
68 0.001992
70 0.002031
91 0.001016
108 0.00203
120 0.0
128 0.0
126 0.0
118 0.002027
115 0.002049
124 0.000984
138 0.001006
154 0.000947
165 0.002983
173 0.002028
177 0.0
181 0.002031
187 0.001
187 0.000946
143 0.0
84 0.002025
62 0.002026
68 0.0
82 0.0
93 0.0
98 0.002011
107 0.001997
115 0.003021
112 0.003014
111 0.00097
118 0.00099
131 0.0
145 0.00301
158 0.002024
168 0.0
172 0.0
174 0.0
179 0.002027
184 0.002992
129 0.002026
76 0.002993
54 0.0
60 0.0
71 0.0
77 0.003028
80 0.003025
91 0.000965
99 0.001998
101 0.0
101 0.003026
104 0.003029
118 0.002998
130 0.002965
145 0.0
153 0.002999
158 0.0
160 0.003994
164 0.002991
172 0.002024
174 0.002989
132 0.001976
81 0.00199
60 0.00402
68 0.003988
79 0.002998
84 0.003923
90 0.003006
98 0.0
102 0.00203
101 0.003044
101 0.003942
107 0.0
116 0.0
127 0.001992
138 0.003989
150 0.0
155 0.002979
158 0.003022
161 0.002036
167 0.001992
175 0.003001
181 0.002962
161 0.003983
86 0.002982
62 0.001964
61 0.002036
72 0.003977
86 0.002029
91 0.00399
100 0.00399
105 0.001984
103 0.001977
102 0.002996
107 0.003014
115 0.003971
131 0.00198
141 0.001987
148 0.002997
152 0.004986
155 0.002034
158 0.005025
165 0.004029
174 0.002998
156 0.003033
101 0.002028
72 0.00503
67 0.005022
81 0.002992
92 0.001996
98 0.001994
106 0.005028
115 0.002983
111 0.004994
109 0.00504
115 0.003003
125 0.002978
138 0.002977
149 0.005987
157 0.005986
162 0.005986
164 0.002991
166 0.004
170 0.003989
178 0.003032
149 0.002985
93 0.006025
66 0.005986
65 0.003959
74 0.003975
81 0.003979
83 0.005953
87 0.005976
99 0.003938
104 0.003959
103 0.003993
108 0.004
115 0.002992
126 0.005949
137 0.006984
148 0.003958
154 0.003991
158 0.003991
160 0.006025
163 0.005985
172 0.003997
179 0.003986
130 0.003987
84 0.004019
67 0.004952
70 0.005985
80 0.006983
88 0.004958
90 0.004986
98 0.00399
107 0.007009
110 0.007019
109 0.004018
112 0.003981
126 0.003969
138 0.004007
149 0.004987
157 0.006034
163 0.006983
169 0.004953
171 0.005
174 0.004987
177 0.006983
182 0.006984
194 0.004022
201 0.005956
135 0.005004
85 0.00599
69 0.004958
73 0.007013
85 0.007015
94 0.004988
97 0.004951
104 0.004937
112 0.005027
115 0.007019
113 0.007938
116 0.005015
128 0.006987
144 0.004965
154 0.004983
162 0.00496
168 0.006982
172 0.007022
176 0.006
179 0.005971
183 0.005954
189 0.007975
199 0.007982
207 0.005965
152 0.007987
91 0.005953
70 0.005928
73 0.004948
92 0.007019
102 0.007981
106 0.005956
116 0.005984
125 0.005952
122 0.007981
118 0.007981
120 0.00599
137 0.007977
152 0.006001
165 0.005993
174 0.006951
179 0.007978
181 0.006971
182 0.006981
181 0.00696
183 0.005968
193 0.00698
185 0.006978
122 0.005986
64 0.007987
63 0.006015
73 0.006976
80 0.005951
84 0.007981
93 0.006962
100 0.00698
100 0.006982
98 0.005979
101 0.006984
109 0.006998
123 0.006951
146 0.007014
155 0.00599
160 0.005945
163 0.006022
165 0.005986
170 0.00699
176 0.006951
162 0.006963
126 0.006948
82 0.006972
67 0.006978
73 0.006968
88 0.006978
90 0.005984
93 0.00698
104 0.006966
106 0.005987
103 0.006003
102 0.006006
107 0.006017
115 0.005978
125 0.005983
135 0.005986
150 0.005978
158 0.005998
166 0.005978
176 0.006976
176 0.006012
151 0.006939
84 0.006029
65 0.00698
71 0.006011
82 0.006011
90 0.005992
95 0.00595
111 0.005984
116 0.005983
115 0.005962
115 0.005983
121 0.005984
130 0.005982
143 0.004977
155 0.004992
168 0.004982
173 0.004987
176 0.004981
181 0.006
189 0.005982
159 0.005969
99 0.005975
68 0.005984
70 0.005975
83 0.004983
95 0.005963
101 0.004972
112 0.00498
119 0.004985
118 0.004984
115 0.004983
118 0.004954
128 0.004985
140 0.004982
157 0.00495
164 0.004948
169 0.005002
172 0.004997
178 0.004984
183 0.005004
163 0.004985
105 0.004986
71 0.004987
71 0.004989
84 0.004028
95 0.004955
101 0.00495
114 0.003989
118 0.003957
114 0.003964
112 0.003962
115 0.00399
128 0.003991
141 0.003998
154 0.003979
169 0.004999
172 0.004981
176 0.004996
181 0.003953
167 0.00398
107 0.003991
70 0.003994
58 0.003985
65 0.003991
79 0.003953
83 0.004009
85 0.003987
101 0.004022
104 0.003987
104 0.003991
104 0.003994
112 0.003999
122 0.003989
134 0.003957
146 0.00299
155 0.003003
169 0.003994
177 0.004008
185 0.003994
186 0.004033
141 0.002999
89 0.002948
67 0.003985
72 0.00398
82 0.002992
89 0.003021
92 0.002992
100 0.00299
110 0.002028
111 0.00304
110 0.002978
116 0.003024
126 0.002996
138 0.003009
150 0.002995
164 0.002997
172 0.002993
176 0.001993
179 0.003004
181 0.002007
186 0.002024
195 0.001967
202 0.002006
134 0.002993
82 0.001984
64 0.003016
68 0.001994
79 0.003033
87 0.003014
90 0.002985
99 0.001994
107 0.001959
109 0.00199
110 0.002028
118 0.001995
134 0.001997
145 0.001995
154 0.001994
161 0.001994
167 0.002025
171 0.002023
173 0.001995
175 0.001995
178 0.002028
182 0.001994
193 0.002013
205 0.00203
178 0.000998
102 0.002007
68 0.002007
63 0.002018
74 0.002002
90 0.001983
96 0.001996
101 0.002001
110 0.001984
114 0.002003
111 0.001984
113 0.000994
124 0.000997
136 0.001994
149 0.003003
159 0.002024
166 0.000997
172 0.002032
175 0.00202
176 0.001991
178 0.000992
182 0.001994
193 0.001021
201 0.000994
128 0.001038
77 0.000995
63 0.000997
70 0.000997
85 0.001028
101 0.000998
108 0.000982
119 0.000998
121 0.00104
114 0.000996
109 0.001001
115 0.0
127 0.0
147 0.0
158 0.0
164 0.0
167 0.0
169 0.0
174 0.0
179 0.0
176 0.0
122 0.0
74 0.0
57 0.001001
69 0.0
84 0.000995
89 0.0
96 0.0
107 0.0
110 0.0
106 0.0
107 0.0
114 0.0
126 0.0
140 0.0
160 0.0
167 0.000998
170 0.0
174 0.0
179 0.0
181 0.0
117 0.0
69 0.001
52 0.003014
56 0.0
70 0.0
75 0.0
81 0.0
92 0.0
99 0.001996
102 0.001995
103 0.0
108 0.0
117 0.0
130 0.003023
141 0.001988
153 0.000995
159 0.0
162 0.0
166 0.000999
172 0.0
179 0.001998
171 0.002997
92 0.0
60 0.0
55 0.0
63 0.002006
73 0.001981
79 0.0
83 0.0
97 0.002032
103 0.0
102 0.0
104 0.000987
111 0.002001
120 0.002027
136 0.000985
146 0.0
154 0.000997
160 0.001969
165 0.002983
168 0.0
173 0.003023
181 0.0
186 0.0
160 0.000996
96 0.001973
63 0.003032
61 0.0
72 0.000995
83 0.0
88 0.002042
94 0.003026
107 0.0
109 0.003028
107 0.0
112 0.0
122 0.0
135 0.002974
147 0.00299
161 0.0
167 0.0
171 0.0
174 0.002991
176 0.002996
179 0.0
189 0.003025
199 0.0
170 0.0
101 0.001001
68 0.002975
64 0.004024
80 0.0
93 0.0
98 0.0
105 0.002992
114 0.002994
112 0.0
106 0.002951
110 0.001978
119 0.0
131 0.002005
144 0.002962
152 0.00399
158 0.001985
161 0.001978
163 0.001969
166 0.002961
173 0.004034
180 0.003017
129 0.003028
80 0.002993
61 0.00302
69 0.002015
84 0.000997
93 0.004008
98 0.003991
111 0.002027
113 0.000994
109 0.003978
106 0.004029
110 0.003991
127 0.004027
141 0.00402
156 0.002965
163 0.003
167 0.002048
168 0.002974
169 0.003956
177 0.001004
183 0.002042
173 0.002981
111 0.003989
67 0.003975
56 0.003996
67 0.003989
78 0.001989
81 0.00096
87 0.002977
96 0.003991
101 0.003991
101 0.001998
102 0.001994
109 0.002009
120 0.004987
132 0.00502
150 0.004994
157 0.004986
163 0.001994
165 0.001992
166 0.002003
171 0.003991
179 0.003974
185 0.001997
139 0.001993
82 0.002017
59 0.004987
60 0.005029
78 0.004988
84 0.004987
90 0.002013
99 0.001986
105 0.003041
105 0.00506
105 0.005036
110 0.003025
120 0.003
133 0.002998
145 0.006017
160 0.00301
165 0.006018
169 0.005022
172 0.004976
175 0.002995
180 0.002029
189 0.002992
198 0.005022
195 0.005984
109 0.00396
69 0.004002
61 0.002999
81 0.003022
92 0.003988
97 0.005989
104 0.005989
115 0.003034
115 0.003022
112 0.003989
113 0.006946
120 0.007014
136 0.003992
150 0.003953
162 0.00399
173 0.00399
177 0.00399
178 0.006022
180 0.006028
187 0.003002
195 0.004002
196 0.004954
145 0.005986
86 0.007009
64 0.003976
73 0.004024
89 0.003956
106 0.003991
116 0.003993
124 0.006984
121 0.006984
113 0.003995
113 0.003958
121 0.004989
136 0.006023
153 0.007022
169 0.004995
177 0.004029
180 0.004988
182 0.003996
186 0.004005
191 0.006011
180 0.007018
95 0.004943
62 0.003993
57 0.00499
68 0.008007
82 0.007021
90 0.004967
95 0.004036
105 0.004005
108 0.003987
106 0.004986
108 0.007045
115 0.007013
128 0.007045
146 0.005946
157 0.005951
164 0.004988
167 0.006992
169 0.007015
174 0.004925
179 0.004938
157 0.004989
94 0.004969
61 0.004986
58 0.007973
70 0.007971
81 0.005976
86 0.00499
90 0.005955
100 0.007013
106 0.007974
104 0.005944
103 0.005951
115 0.004974
127 0.004973
140 0.005025
152 0.007979
157 0.007951
161 0.005945
163 0.005973
167 0.005984
176 0.006981
177 0.006982
136 0.00595
84 0.00597
62 0.005926
72 0.005986
85 0.006016
92 0.007968
98 0.007974
107 0.006951
110 0.005952
109 0.006953
109 0.006964
115 0.006983
124 0.005955
144 0.00698
154 0.005951
160 0.005995
164 0.005955
166 0.006982
168 0.006976
174 0.005944
183 0.005988
184 0.006948
120 0.006998
77 0.006977
64 0.005984
80 0.00698
92 0.006035
99 0.006938
104 0.006983
112 0.005977
111 0.006979
107 0.006996
111 0.005988
119 0.005985
131 0.005984
144 0.005986
154 0.005976
161 0.007031
162 0.006051
164 0.006976
166 0.006984
173 0.006014
167 0.005984
115 0.005981
66 0.005986
58 0.005982
67 0.006118
78 0.005975
85 0.00599
93 0.006018
101 0.006016
103 0.005992
102 0.005984
104 0.005989
110 0.005984
120 0.005006
135 0.005979
143 0.005993
150 0.004988
155 0.005018
157 0.004984
159 0.005986
164 0.005999
175 0.005983
178 0.005978
137 0.005972
84 0.005977
62 0.004955
64 0.005983
76 0.005026
83 0.004988
85 0.004985
90 0.004997
103 0.005029
103 0.004987
103 0.004953
107 0.004941
116 0.004988
127 0.004971
137 0.006005
147 0.004993
153 0.005013
156 0.005008
160 0.005
162 0.004991
169 0.005023
178 0.004987
191 0.004974
186 0.004942
126 0.004987
81 0.004947
67 0.003938
73 0.003962
90 0.003981
96 0.003952
98 0.003946
106 0.003986
114 0.003984
112 0.004027
113 0.003989
121 0.00399
131 0.004987
143 0.003984
153 0.00496
160 0.004954
167 0.003988
170 0.003948
173 0.003935
176 0.003987
184 0.00399
190 0.003982
195 0.004026
206 0.003989
213 0.004022
207 0.003984
137 0.003996
81 0.003976
65 0.003959
75 0.002971
90 0.002986
99 0.002994
106 0.003995
114 0.004036
116 0.004024
113 0.003999
114 0.004023
121 0.002988
133 0.002997
147 0.002969
163 0.002992
172 0.002991
177 0.002992
182 0.002991
184 0.002992
186 0.002992
190 0.003001
201 0.003023
213 0.003025
226 0.002983
223 0.002992
147 0.003003
78 0.002996
73 0.00298
87 0.002984
116 0.003022
124 0.003023
133 0.002025
139 0.00205
131 0.002041
125 0.001966
126 0.001946
135 0.001947
150 0.002031
166 0.002008
180 0.002
186 0.001994
186 0.001997
183 0.002992
183 0.003053
187 0.00298
194 0.003028
189 0.002989
122 0.001995
68 0.001994
52 0.001963
58 0.000997
77 0.001994
86 0.001999
93 0.001989
103 0.002031
108 0.002039
105 0.002032
105 0.000995
113 0.002054
125 0.001032
140 0.001992
153 0.002028
162 0.001961
169 0.002031
171 0.002011
176 0.002028
182 0.001966
188 0.002024
172 0.001987
103 0.001995
55 0.001973
53 0.001965
66 0.001953
80 0.001994
87 0.001957
92 0.000998
103 0.001995
106 0.002042
104 0.000997
107 0.002032
115 0.002028
128 0.000997
147 0.002028
157 0.00099
164 0.000997
168 0.001985
169 0.0
173 0.00099
179 0.000997
180 0.000998
123 0.001041
70 0.000998
54 0.000998
59 0.000997
78 0.000998
87 0.000989
92 0.001163
101 0.000996
109 0.000995
108 0.000993
106 0.0
111 0.0
127 0.001032
141 0.0
153 0.0
163 0.0
168 0.0
170 0.0
172 0.0
177 0.0
184 0.0
186 0.0
117 0.000992
63 0.0
60 0.000997
74 0.001008
88 0.0
95 0.0
102 0.0
113 0.0
110 0.0
104 0.0
105 0.0
111 0.0
132 0.0
148 0.0
155 0.0
158 0.002029
160 0.000963
165 0.00099
170 0.0
170 0.00299
127 0.00299
66 0.0
54 0.0
62 0.0
83 0.0
89 0.0
97 0.002025
105 0.003037
104 0.0
102 0.001996
103 0.002003
110 0.003023
122 0.00199
141 0.001003
151 0.0
158 0.0
161 0.0
163 0.0
169 0.003037
174 0.003028
150 0.0
90 0.0
58 0.0
52 0.003015
62 0.003012
76 0.0
78 0.000963
83 0.0
100 0.0
104 0.0
104 0.0
106 0.002028
112 0.002026
126 0.001002
137 0.0
146 0.000994
152 0.002038
155 0.003033
155 0.000993
158 0.000966
168 0.0
170 0.000972
138 0.0
84 0.003036
59 0.003032
60 0.0
72 0.0
80 0.0
83 0.00299
89 0.003044
103 0.0
107 0.0
109 0.0
114 0.0
124 0.0
138 0.003029
152 0.003025
163 0.0
169 0.0
173 0.001961
174 0.003992
173 0.00298
178 0.001001
191 0.0
210 0.0
162 0.0
96 0.000964
72 0.00202
73 0.002993
90 0.0
100 0.0
103 0.0
111 0.002987
119 0.003006
117 0.000985
113 0.000999
119 0.002009
130 0.003018
144 0.000975
157 0.003046
168 0.002992
178 0.0
181 0.00199
184 0.0
189 0.002992
197 0.002991
202 0.0
153 0.000994
78 0.001984
75 0.002986
87 0.003003
99 0.002054
103 0.002992
105 0.002978
114 0.002986
114 0.003003
110 0.0
109 0.002965
113 0.003981
129 0.0
149 0.00399
165 0.003038
174 0.003003
177 0.001995
177 0.004032
177 0.004034
183 0.003004
190 0.0
189 0.0
132 0.004006
76 0.003986
57 0.004007
67 0.00499
80 0.002026
82 0.001995
86 0.002984
98 0.005021
108 0.004022
108 0.00301
110 0.002
116 0.000951
124 0.004026
135 0.004957
152 0.004028
159 0.004022
165 0.002025
168 0.001996
172 0.002007
176 0.00502
183 0.005026
197 0.001996
194 0.002015
130 0.003002
74 0.004977
57 0.005987
70 0.004986
81 0.004025
85 0.002994
92 0.003011
104 0.001982
111 0.005017
110 0.005019
111 0.001994
118 0.002985
129 0.003984
143 0.005019
156 0.005021
172 0.005017
177 0.004989
181 0.002988
183 0.002999
186 0.003003
190 0.004975
199 0.004981
208 0.006018
173 0.00297
96 0.003988
64 0.00399
62 0.005024
87 0.002992
97 0.006018
101 0.005019
116 0.003003
121 0.002982
118 0.002993
114 0.006016
116 0.006021
130 0.004005
144 0.003974
157 0.00401
165 0.006019
171 0.002991
171 0.006014
172 0.006017
178 0.00303
184 0.003995
178 0.003992
117 0.006019
71 0.005985
58 0.003989
70 0.004006
85 0.003981
93 0.006
107 0.002995
115 0.005985
113 0.006017
108 0.003976
109 0.003989
119 0.003982
133 0.007014
147 0.007015
161 0.003957
168 0.004003
171 0.003987
172 0.007017
180 0.00501
187 0.006983
185 0.00702
103 0.003989
63 0.003993
54 0.003997
62 0.007012
75 0.006982
83 0.003992
85 0.004986
94 0.002978
105 0.007019
107 0.004022
108 0.007014
116 0.007964
128 0.004022
140 0.004984
151 0.004978
160 0.00696
165 0.006965
170 0.004026
172 0.004988
176 0.003992
185 0.004985
184 0.003974
122 0.004987
65 0.007975
60 0.007984
72 0.004985
85 0.004994
91 0.004992
97 0.007974
108 0.007974
116 0.004987
116 0.006021
116 0.005998
124 0.005025
135 0.005016
148 0.007978
160 0.007979
170 0.005965
173 0.004988
176 0.004962
176 0.007991
178 0.007983
182 0.005004
190 0.006031
182 0.004988
112 0.004987
68 0.005974
59 0.00698
71 0.006998
85 0.005975
93 0.005013
101 0.006018
111 0.005982
115 0.007967
114 0.005955
113 0.005982
121 0.005984
130 0.005988
140 0.006031
152 0.006983
158 0.006977
161 0.005979
163 0.005982
166 0.005991
171 0.006983
178 0.007005
187 0.005993
186 0.006984
87 0.005984
56 0.006935
62 0.005979
78 0.007016
91 0.007011
101 0.006976
113 0.006982
118 0.006973
114 0.007019
109 0.00698
110 0.006982
123 0.006978
144 0.006979
157 0.005983
169 0.00597
172 0.006015
174 0.006015
175 0.006013
179 0.005971
174 0.005975
120 0.005978
71 0.005978
57 0.005986
68 0.005997
87 0.006982
97 0.00695
108 0.005995
117 0.006013
115 0.005979
109 0.005975
108 0.005973
114 0.005985
126 0.005984
142 0.005993
155 0.006964
164 0.005969
164 0.00502
167 0.004993
168 0.004984
158 0.004988
102 0.004955
59 0.005029
45 0.005982
55 0.006027
68 0.006068
75 0.005984
79 0.005983
90 0.006013
97 0.005021
96 0.005
99 0.005077
106 0.004973
115 0.005032
128 0.004987
142 0.005003
149 0.004982
152 0.004981
158 0.004938
165 0.004954
171 0.004952
127 0.004022
70 0.005006
58 0.004966
64 0.003989
76 0.004988
84 0.004061
90 0.004993
100 0.005003
107 0.004988
107 0.005014
106 0.004993
112 0.004986
120 0.005021
131 0.004981
145 0.004007
152 0.004035
157 0.003979
161 0.003968
165 0.004016
173 0.003988
180 0.005021
171 0.004988
113 0.00399
60 0.003998
61 0.00302
73 0.004025
86 0.004034
90 0.003991
98 0.003989
106 0.00399
107 0.004021
105 0.004026
108 0.004023
115 0.003989
125 0.003985
144 0.00303
152 0.003989
158 0.002992
162 0.003999
164 0.002997
166 0.003993
173 0.002993
181 0.003989
172 0.003978
112 0.002991
73 0.003984
62 0.00399
80 0.003029
93 0.003022
99 0.002991
110 0.003023
114 0.003023
112 0.003022
107 0.002997
107 0.003026
117 0.003024
129 0.003027
141 0.002988
150 0.001977
161 0.002001
162 0.002037
163 0.003034
170 0.003041
176 0.003027
166 0.002983
111 0.002992
73 0.003026
62 0.003028
72 0.002032
86 0.002026
94 0.001978
107 0.001974
113 0.002005
111 0.003025
107 0.001945
111 0.001998
118 0.002027
130 0.00203
143 0.001996
153 0.001991
158 0.001996
159 0.002008
161 0.002033
169 0.00203
167 0.002002
122 0.002004
76 0.001995
56 0.002029
63 0.001997
74 0.002006
81 0.001997
82 0.001996
91 0.001951
100 0.001951
102 0.001958
103 0.001996
107 0.001028
116 0.000997
127 0.002003
140 0.001993
148 0.002027
153 0.002044
155 0.002035
158 0.002027
163 0.002028
170 0.001965
171 0.001995
98 0.002033
69 0.001959
65 0.001996
73 0.000998
84 0.002012
87 0.002039
91 0.001965
100 0.000965
106 0.000998
106 0.000997
107 0.000979
111 0.0
126 0.000997
136 0.000999
144 0.0
151 0.001003
157 0.000956
160 0.000998
163 0.000997
167 0.000998
174 0.001031
186 0.000942
188 0.000992
105 0.000998
75 0.0
72 0.0
83 0.000998
95 0.0
101 0.0
107 0.0
114 0.0
116 0.0
113 0.0
112 0.0
116 0.0
127 0.0
140 0.0
149 0.001044
156 0.000998
160 0.001002
162 0.000997
163 0.0
164 0.0
170 0.000997
178 0.000997
186 0.0
145 0.0
86 0.0
75 0.0
86 0.002032
105 0.001015
110 0.0
120 0.001017
127 0.003015
126 0.003006
120 0.000968
120 0.0
126 0.0
137 0.003033
155 0.0
163 0.003024
167 0.003024
169 0.0
169 0.0
172 0.0
178 0.002997
181 0.002999
134 0.0
88 0.0
69 0.0
70 0.002994
87 0.0
92 0.001986
95 0.002017
107 0.0
114 0.0
114 0.0
113 0.002027
117 0.002031
127 0.0
137 0.001017
148 0.0
156 0.003029
163 0.0
165 0.0
170 0.003023
176 0.003026
178 0.0
137 0.0
91 0.0
72 0.002987
74 0.002989
90 0.0
98 0.000966
101 0.0
114 0.000997
118 0.000992
116 0.002949
116 0.003032
122 0.000996
131 0.000967
142 0.0
152 0.002992
160 0.002993
167 0.00097
169 0.000966
170 0.000952
176 0.0
183 0.0
188 0.002026
150 0.003038
84 0.0
69 0.001001
75 0.0
87 0.002027
98 0.003027
104 0.0
112 0.0
118 0.001006
115 0.0
115 0.0
120 0.002993
130 0.003005
146 0.0
157 0.000946
166 0.0
172 0.002994
177 0.003022
179 0.000969
180 0.0
188 0.002992
197 0.0
200 0.0
150 0.00296
91 0.002954
67 0.0
74 0.0
89 0.0
100 0.002992
106 0.003033
117 0.002985
122 0.002998
117 0.002992
116 0.003023
121 0.002983
130 0.002989
142 0.003989
154 0.005004
163 0.002996
168 0.003002
171 0.003021
171 0.005023
173 0.004022
182 0.002944
187 0.003957
125 0.002994
79 0.001994
66 0.00299
72 0.003984
87 0.004023
102 0.002149
109 0.002959
119 0.001987
122 0.003989
120 0.004987
118 0.002958
125 0.003988
144 0.003008
160 0.003001
174 0.001994
182 0.00502
186 0.004983
190 0.002992
196 0.002024
202 0.002993
198 0.004986
142 0.005028
80 0.002994
74 0.004933
92 0.002988
107 0.002979
115 0.002992
125 0.003974
129 0.005018
120 0.001993
113 0.002986
114 0.003011
124 0.005027
139 0.005017
157 0.00199
168 0.005018
173 0.001983
178 0.002001
181 0.001996
169 0.005022
111 0.005025
61 0.002992
56 0.002995
66 0.002993
79 0.006022
85 0.004989
90 0.002998
101 0.005984
102 0.005994
100 0.002992
103 0.002989
109 0.002995
120 0.005988
132 0.006016
142 0.002027
147 0.002942
150 0.003999
155 0.005995
157 0.006015
107 0.006016
67 0.006018
50 0.002994
56 0.002998
66 0.003
71 0.006016
73 0.006015
84 0.002955
91 0.003948
93 0.002992
92 0.006978
95 0.006976
109 0.006981
119 0.00605
130 0.002991
137 0.002993
140 0.002992
143 0.004988
147 0.006015
156 0.003967
154 0.004011
114 0.003994
73 0.007016
56 0.007013
65 0.006973
74 0.007028
78 0.003004
84 0.003979
93 0.004021
98 0.006021
97 0.006003
100 0.004005
106 0.00399
115 0.004024
125 0.007017
138 0.003991
143 0.007019
147 0.006995
151 0.003987
153 0.00399
155 0.00396
159 0.006982
167 0.007973
179 0.004958
178 0.004992
128 0.004995
82 0.007984
65 0.004993
74 0.006972
83 0.007025
86 0.007019
92 0.003947
100 0.003989
103 0.004993
102 0.007011
104 0.007965
110 0.004981
120 0.004982
130 0.004983
142 0.004959
147 0.004978
150 0.007979
154 0.007973
157 0.003978
160 0.004987
164 0.004985
174 0.007976
183 0.006964
191 0.004998
165 0.005025
106 0.00502
71 0.005006
77 0.004984
90 0.007972
98 0.007965
102 0.004992
110 0.004974
114 0.004989
110 0.007979
109 0.007011
114 0.005979
122 0.005989
136 0.006014
146 0.005984
