88 0.014012
93 0.002005
105 0.000998
113 0.000997
120 0.000958
128 0.001011
139 0.001003
145 0.000952
150 0.002034
155 0.002053
161 0.001997
164 0.001995
172 0.001995
160 0.001995
90 0.001991
44 0.001996
35 0.001995
45 0.001874
59 0.001048
63 0.000997
72 0.002003
82 0.001957
86 0.002018
86 0.001962
90 0.002027
97 0.002983
105 0.002979
116 0.001994
124 0.00203
131 0.001995
139 0.001988
143 0.001995
149 0.001994
156 0.001995
157 0.001994
107 0.002999
54 0.00296
41 0.002996
51 0.002952
63 0.002392
66 0.002031
73 0.002032
89 0.002023
92 0.001984
92 0.002999
95 0.002992
104 0.001998
114 0.001995
123 0.001995
132 0.002981
139 0.00399
148 0.002977
152 0.002992
157 0.002992
167 0.003025
158 0.002946
73 0.002951
43 0.002999
42 0.002999
54 0.003016
59 0.001998
61 0.003949
79 0.0
88 0.003004
89 0.003018
95 0.003023
103 0.003024
113 0.004017
123 0.003985
133 0.002991
141 0.003025
149 0.00305
153 0.003031
160 0.002993
165 0.003937
171 0.004004
171 0.002985
67 0.002992
43 0.003984
37 0.003954
47 0.004026
52 0.003949
54 0.003978
59 0.00399
69 0.004027
81 0.003954
84 0.003989
85 0.00399
89 0.003989
107 0.003962
118 0.002992
126 0.002992
134 0.00399
142 0.004988
150 0.00498
158 0.0
176 0.004982
172 0.003989
103 0.003981
42 0.003984
37 0.003989
47 0.00399
54 0.00403
56 0.005019
65 0.00402
76 0.004035
83 0.004006
86 0.004987
88 0.004963
96 0.003981
105 0.004033
122 0.004005
131 0.004004
139 0.003989
146 0.004987
154 0.005026
161 0.004987
167 0.005019
172 0.004987
179 0.005992
183 0.006022
116 0.005022
59 0.00502
47 0.004932
59 0.004948
70 0.004987
75 0.004987
80 0.004986
93 0.004987
99 0.004987
99 0.004949
100 0.006016
106 0.006021
118 0.005017
128 0.00502
142 0.004995
150 0.004993
158 0.004984
165 0.005943
169 0.005001
173 0.00598
180 0.00602
180 0.005982
97 0.004989
56 0.006015
50 0.005984
67 0.005026
78 0.005983
83 0.005007
92 0.005033
101 0.005029
106 0.005985
106 0.007013
109 0.006021
118 0.004986
128 0.004986
139 0.005985
146 0.005982
154 0.006981
166 0.005987
174 0.005984
179 0.005962
184 0.005977
185 0.007012
126 0.007011
55 0.006016
46 0.00597
51 0.005983
66 0.005983
71 0.005984
74 0.006022
89 0.007016
98 0.007021
101 0.005987
102 0.00602
108 0.005987
118 0.006989
131 0.006016
140 0.005988
150 0.005983
157 0.006951
164 0.006954
172 0.006007
180 0.006979
180 0.006037
115 0.006013
59 0.005999
44 0.006991
48 0.006997
58 0.007011
63 0.004966
65 0.006026
73 0.007976
84 0.007975
92 0.006981
95 0.007943
100 0.006981
110 0.006982
121 0.007
131 0.00701
142 0.007938
151 0.00698
157 0.006982
163 0.005984
171 0.007969
174 0.007978
181 0.007014
111 0.007017
45 0.00698
39 0.007013
47 0.007011
57 0.007978
59 0.007412
64 0.007946
73 0.007
81 0.007036
86 0.007018
87 0.007287
91 0.00795
105 0.007973
119 0.007974
131 0.007007
140 0.006982
147 0.006987
154 0.00798
158 0.008023
167 0.007981
169 0.007979
172 0.007978
112 0.007979
69 0.007969
36 0.007976
46 0.007979
57 0.007977
64 0.007978
68 0.00702
81 0.007021
86 0.007947
87 0.006981
90 0.006943
96 0.006981
107 0.00698
117 0.006957
132 0.006941
141 0.006952
150 0.005983
155 0.005975
160 0.007015
164 0.006992
171 0.007027
109 0.006982
53 0.006986
35 0.006982
41 0.006981
51 0.00698
60 0.00698
65 0.006947
78 0.006984
83 0.006921
82 0.006978
84 0.006975
91 0.006036
104 0.006985
115 0.006984
125 0.006973
134 0.007022
143 0.00604
154 0.005984
159 0.006016
169 0.005996
143 0.005993
74 0.005986
39 0.005982
33 0.005973
41 0.005986
48 0.006982
49 0.006983
54 0.007018
64 0.006982
75 0.006982
78 0.006031
85 0.00597
93 0.005964
106 0.005984
117 0.005983
127 0.006041
136 0.005972
148 0.006031
155 0.005984
160 0.005975
167 0.006261
168 0.005972
103 0.005929
49 0.005979
30 0.005978
36 0.005976
42 0.004987
43 0.00502
44 0.004963
58 0.005027
69 0.005021
74 0.006019
78 0.006015
87 0.005984
98 0.006016
109 0.005985
124 0.005017
136 0.005019
144 0.005016
152 0.004987
161 0.005002
169 0.005027
175 0.005016
183 0.005035
189 0.004989
93 0.004991
52 0.004983
45 0.004986
57 0.004985
63 0.004987
64 0.004958
69 0.004986
81 0.005028
92 0.005028
97 0.004991
100 0.005011
106 0.005006
124 0.005026
136 0.004943
146 0.004988
159 0.004974
167 0.003989
174 0.004032
181 0.004029
188 0.004037
195 0.00402
201 0.00399
208 0.003991
212 0.00403
112 0.004996
73 0.004976
71 0.005026
87 0.003999
97 0.004044
101 0.004011
106 0.004041
116 0.00399
123 0.004038
123 0.003999
126 0.004024
130 0.004027
145 0.00298
155 0.003874
164 0.003993
171 0.004026
180 0.003999
185 0.003013
189 0.002993
194 0.004044
198 0.003034
204 0.004025
166 0.003991
99 0.00399
75 0.003989
87 0.00399
100 0.003023
106 0.003023
113 0.003027
123 0.002992
129 0.002945
128 0.002991
128 0.002987
133 0.003991
142 0.00387
153 0.002994
166 0.002993
173 0.002982
180 0.003947
184 0.003991
190 0.002999
194 0.002997
199 0.003037
170 0.003028
102 0.002992
66 0.003028
71 0.002994
83 0.002992
93 0.003027
95 0.003023
104 0.003032
112 0.003031
115 0.003024
115 0.002027
118 0.003997
125 0.002992
135 0.001955
147 0.001995
155 0.002027
162 0.001995
172 0.001995
178 0.001921
181 0.001995
185 0.001995
192 0.002992
150 0.002992
83 0.003029
56 0.003027
56 0.003041
67 0.002992
71 0.002029
71 0.001994
83 0.001989
91 0.001994
95 0.001995
96 0.001995
99 0.002018
107 0.001995
118 0.001985
127 0.001962
136 0.001963
143 0.002
153 0.001
158 0.000997
167 0.001994
172 0.001995
177 0.001972
184 0.002029
164 0.001995
75 0.002006
46 0.001937
45 0.001995
53 0.001995
58 0.001995
56 0.000997
61 0.000998
77 0.000962
81 0.000997
82 0.000997
84 0.000998
90 0.000997
104 0.00196
114 0.002005
123 0.001995
132 0.001995
139 0.002003
148 0.000999
155 0.001995
165 0.000999
170 0.000962
176 0.000997
182 0.00099
162 0.001002
71 0.00097
42 0.000996
41 0.000987
51 0.000988
56 0.000997
57 0.000997
62 0.00099
76 0.001001
80 0.000996
81 0.000982
85 0.000998
92 0.000965
105 0.0
116 0.0
125 0.0
134 0.0
141 0.0
151 0.0
157 0.000998
165 0.000995
169 0.000974
176 0.000967
181 0.0
136 0.0
57 0.0
42 0.0
46 0.0
57 0.0
62 0.0
68 0.000998
77 0.001005
87 0.0
86 0.0
87 0.0
96 0.0
103 0.0
113 0.0
127 0.000997
137 0.001031
144 0.0
153 0.0
158 0.0
163 0.000969
174 0.0
157 0.001014
89 0.000971
49 0.0
39 0.0
46 0.0
58 0.0
61 0.0
69 0.0
80 0.0
86 0.0
87 0.000998
92 0.0
101 0.000966
113 0.00096
127 0.0
137 0.0
147 0.0
156 0.000998
163 0.000998
168 0.000998
175 0.000997
182 0.0
145 0.001013
49 0.0
37 0.000968
41 0.001004
50 0.0
52 0.0
56 0.001022
66 0.000999
78 0.000997
85 0.000998
86 0.000998
92 0.000998
102 0.000998
118 0.000992
134 0.001023
144 0.001013
156 0.0
165 0.000968
171 0.00097
177 0.001037
185 0.000998
195 0.001056
188 0.000999
117 0.000998
59 0.002028
38 0.001002
45 0.001991
50 0.001963
49 0.001032
52 0.001011
62 0.000949
76 0.001987
82 0.001997
86 0.000982
93 0.001001
105 0.000972
116 0.002027
136 0.000999
146 0.000988
155 0.001996
164 0.002003
174 0.000975
182 0.000999
189 0.002026
196 0.002992
203 0.002992
196 0.002032
119 0.002027
75 0.001996
41 0.001001
50 0.001037
58 0.001996
60 0.001996
67 0.00101
79 0.002012
87 0.002038
91 0.002991
93 0.003025
104 0.002026
115 0.002026
127 0.002028
146 0.002072
156 0.002045
166 0.002992
172 0.003019
182 0.001996
187 0.001988
192 0.002029
200 0.003012
207 0.003024
215 0.003023
192 0.003035
109 0.003026
45 0.001996
52 0.001995
64 0.002991
72 0.002996
81 0.002033
91 0.001984
98 0.003036
99 0.003989
99 0.003993
107 0.003025
117 0.003027
130 0.003013
149 0.002992
159 0.003023
169 0.003982
177 0.003982
187 0.002984
191 0.003003
198 0.003011
206 0.002992
181 0.002992
102 0.003023
55 0.004025
44 0.003029
62 0.002997
70 0.002988
75 0.003986
86 0.003988
96 0.003972
101 0.004036
101 0.004023
103 0.004026
115 0.004016
127 0.004022
140 0.004024
151 0.004023
173 0.0
182 0.002992
189 0.002982
196 0.004989
202 0.004953
211 0.003031
167 0.00402
85 0.004026
43 0.004987
34 0.00502
46 0.00402
54 0.004011
58 0.003986
66 0.003997
81 0.003036
87 0.003982
89 0.003995
93 0.005001
105 0.003986
117 0.003951
128 0.004948
140 0.004986
154 0.004023
164 0.003978
177 0.003969
182 0.00498
188 0.004976
198 0.004986
195 0.00502
102 0.003959
46 0.004017
27 0.004029
30 0.005025
40 0.004987
41 0.004035
44 0.005023
63 0.004981
70 0.004975
74 0.004982
78 0.005973
84 0.005021
96 0.005025
108 0.005
125 0.003973
136 0.004987
146 0.005026
156 0.005028
165 0.004979
176 0.004985
181 0.004995
188 0.004971
196 0.005978
183 0.006033
81 0.004984
36 0.005021
24 0.005018
30 0.006022
38 0.005981
41 0.005029
46 0.005026
62 0.005998
72 0.005043
73 0.004971
76 0.006006
86 0.005976
98 0.005984
114 0.005033
126 0.005017
137 0.006024
146 0.005984
153 0.005984
163 0.00604
172 0.007012
179 0.005999
189 0.005965
177 0.006023
104 0.00597
49 0.005984
30 0.005986
34 0.006026
47 0.005043
52 0.005984
57 0.007012
72 0.006003
80 0.007013
79 0.005979
83 0.005985
93 0.004969
106 0.007012
117 0.006982
133 0.006027
144 0.00602
152 0.005992
159 0.006982
166 0.007979
171 0.0
185 0.007015
150 0.005984
77 0.005988
37 0.005967
28 0.007018
36 0.006945
46 0.005983
48 0.006015
56 0.006977
73 0.007979
78 0.007958
80 0.006982
84 0.006981
98 0.006983
110 0.005989
123 0.005982
134 0.006982
145 0.007981
156 0.006982
165 0.007017
171 0.007013
178 0.00798
188 0.007978
172 0.007013
59 0.007966
30 0.007018
26 0.006982
33 0.007022
38 0.007978
37 0.006982
46 0.007978
59 0.006981
68 0.006969
72 0.006981
75 0.007979
82 0.007971
107 0.007983
116 0.007979
133 0.006958
144 0.00703
154 0.007013
162 0.007934
172 0.007012
181 0.006983
189 0.007025
197 0.007012
161 0.006981
84 0.007017
29 0.00699
31 0.006977
39 0.007984
39 0.007028
38 0.007941
51 0.006987
65 0.007097
74 0.007019
78 0.007011
84 0.00703
93 0.007012
105 0.007025
126 0.006988
139 0.007019
152 0.006985
161 0.006967
169 0.006981
177 0.007012
184 0.006981
192 0.007027
200 0.007013
208 0.007013
175 0.007018
97 0.006009
43 0.005986
47 0.005989
57 0.005979
58 0.005989
59 0.006983
70 0.005992
83 0.007039
93 0.00702
96 0.007013
100 0.00697
109 0.006025
121 0.006017
142 0.005954
154 0.005984
166 0.00597
175 0.005997
182 0.005985
189 0.006036
194 0.006023
203 0.006022
210 0.006982
215 0.004988
172 0.006026
97 0.005993
56 0.005996
62 0.006023
73 0.005972
80 0.005988
84 0.006023
93 0.006021
103 0.005985
105 0.006031
104 0.006035
112 0.006029
122 0.005036
133 0.005029
152 0.005016
162 0.004861
171 0.005022
181 0.004992
187 0.006062
192 0.005025
198 0.005019
207 0.005021
163 0.005042
92 0.004026
59 0.006036
55 0.005025
71 0.00502
78 0.005021
83 0.005018
96 0.005024
104 0.004986
107 0.005028
107 0.00502
112 0.00497
125 0.005027
137 0.005022
150 0.00502
160 0.003989
175 0.003994
184 0.004994
191 0.005021
198 0.005017
206 0.005023
213 0.004961
211 0.004986
143 0.005022
63 0.004987
47 0.003989
51 0.003982
60 0.00399
66 0.004026
70 0.004049
82 0.00403
93 0.004002
96 0.004022
99 0.003999
104 0.005027
115 0.005009
131 0.004985
142 0.004025
151 0.004023
162 0.003986
176 0.003989
184 0.004002
189 0.003996
198 0.003839
206 0.003982
199 0.003948
126 0.003982
64 0.004009
38 0.003035
41 0.002993
49 0.003028
54 0.003992
60 0.004002
72 0.004036
82 0.003983
84 0.004045
88 0.004025
94 0.004
104 0.003989
116 0.003992
129 0.003009
143 0.003991
152 0.002997
161 0.002994
172 0.003025
177 0.003015
182 0.004022
190 0.003002
190 0.00399
125 0.00399
59 0.00299
33 0.002992
32 0.003992
46 0.002992
53 0.002986
56 0.002999
73 0.002964
79 0.002991
79 0.002992
80 0.002992
88 0.003997
101 0.002955
113 0.002993
124 0.002993
135 0.003023
149 0.003081
156 0.002039
162 0.002026
173 0.003032
181 0.002957
184 0.002954
133 0.002992
49 0.003014
28 0.002992
31 0.002985
42 0.002992
49 0.003025
54 0.002993
65 0.002992
75 0.001998
81 0.002028
83 0.00195
91 0.001994
98 0.0
119 0.001995
132 0.00201
143 0.00196
153 0.001969
162 0.001995
172 0.001995
177 0.001963
185 0.001994
197 0.001949
159 0.001999
81 0.002036
37 0.000997
27 0.001995
35 0.001894
40 0.002025
41 0.001964
46 0.001995
58 0.001996
71 0.00203
75 0.001995
82 0.001961
92 0.001962
105 0.000997
117 0.000997
131 0.000998
146 0.000997
156 0.000997
165 0.001996
173 0.001995
180 0.000997
188 0.001995
191 0.013959
210 0.001952
176 0.000997
94 0.001994
44 0.000962
29 0.001994
36 0.000998
42 0.001022
40 0.001009
43 0.000997
55 0.001032
69 0.001001
74 0.000994
80 0.000997
90 0.000997
103 0.000998
117 0.001009
130 0.0
145 0.0
155 0.000997
164 0.001
172 0.000998
179 0.000997
189 0.000998
195 0.000966
207 0.000967
201 0.000963
130 0.000998
61 0.000997
31 0.0
32 0.0
42 0.0
44 0.015923
47 0.0
58 0.0
72 0.0
75 0.0
77 0.0
84 0.0
97 0.000998
109 0.000997
119 0.0
134 0.0
142 0.0
150 0.0
156 0.0
160 0.0
167 0.0
177 0.0
134 0.0
66 0.0
30 0.0
29 0.0
41 0.000991
48 0.000998
59 0.0
73 0.0
83 0.000993
99 0.0
147 0.000998
163 0.001045
176 0.0
186 0.0
195 0.0
202 0.001046
208 0.001019
217 0.0
223 0.0
213 0.0
135 0.000997
45 0.0
35 0.000974
41 0.000973
48 0.0
48 0.0
54 0.0
69 0.000998
78 0.000997
81 0.000999
85 0.000997
94 0.0
107 0.000998
131 0.0
143 0.001
156 0.001002
169 0.0
176 0.0
183 0.000985
191 0.000994
197 0.000999
207 0.001001
214 0.00101
216 0.001007
205 0.017919
155 0.000997
29 0.002027
35 0.001996
45 0.0
46 0.000992
49 0.0
62 0.000997
73 0.001995
79 0.001034
80 0.000957
87 0.000958
98 0.001996
120 0.000949
132 0.001965
145 0.001998
158 0.0
167 0.000997
176 0.001012
183 0.001995
190 0.002029
199 0.001029
206 0.000999
214 0.001029
219 0.00101
100 0.000994
49 0.001032
34 0.003023
41 0.001995
53 0.000998
55 0.001963
59 0.001996
71 0.002994
78 0.01799
83 0.0
85 0.0
93 0.000999
114 0.001015
127 0.001001
140 0.001992
151 0.003011
164 0.000924
172 0.000988
179 0.000995
185 0.002981
192 0.002962
202 0.001995
205 0.002031
147 0.002025
49 0.001985
36 0.002026
44 0.002993
57 0.002992
65 0.002033
73 0.002031
86 0.002022
95 0.002994
95 0.003022
94 0.001995
103 0.002032
115 0.002018
138 0.002001
151 0.001956
162 0.003031
172 0.002992
184 0.002033
190 0.002026
196 0.002036
202 0.003989
209 0.003032
159 0.002012
80 0.003023
38 0.003023
34 0.00199
45 0.002013
52 0.003007
55 0.003029
69 0.001981
80 0.002991
86 0.003008
88 0.003994
93 0.003989
107 0.003026
122 0.002992
138 0.00299
160 0.002958
171 0.003002
181 0.003989
188 0.003988
197 0.002965
203 0.002956
209 0.00402
216 0.00399
217 0.003987
119 0.003036
54 0.002996
29 0.00398
28 0.02091
35 0.0
49 0.002991
55 0.003958
67 0.003967
82 0.003005
86 0.002988
89 0.002996
96 0.00399
107 0.003989
124 0.003021
137 0.004023
157 0.003986
168 0.003976
177 0.003975
184 0.005027
192 0.004987
201 0.003029
206 0.003026
214 0.00403
222 0.00399
194 0.004994
81 0.004022
41 0.003944
42 0.00395
54 0.00399
62 0.004026
66 0.004986
77 0.005019
90 0.004022
92 0.003961
92 0.003991
96 0.005036
99 0.020898
115 0.0
140 0.003986
160 0.004015
170 0.004026
180 0.004021
188 0.005032
196 0.004986
202 0.004025
207 0.004028
215 0.005006
200 0.005984
117 0.005984
43 0.003959
30 0.003988
47 0.003987
57 0.004015
61 0.003974
72 0.005038
84 0.004984
89 0.004971
90 0.00402
94 0.004972
103 0.005984
117 0.005979
136 0.004986
148 0.005017
164 0.005022
174 0.005024
183 0.005019
189 0.00598
193 0.005984
203 0.005027
205 0.022897
212 0.0
141 0.006981
63 0.000996
23 0.000996
29 0.004987
44 0.005984
49 0.004962
58 0.004951
71 0.005023
79 0.005984
82 0.006019
86 0.005985
95 0.00596
107 0.006033
121 0.006982
134 0.006981
151 0.006015
164 0.007013
175 0.005013
183 0.005014
189 0.004988
195 0.006021
202 0.005982
211 0.004986
194 0.005999
109 0.005957
44 0.007014
21 0.007017
28 0.006018
41 0.007017
44 0.006012
49 0.006981
60 0.000991
68 0.0
77 0.006981
80 0.005025
89 0.006019
101 0.006026
114 0.007978
128 0.007947
143 0.006982
157 0.007934
169 0.007013
177 0.006028
183 0.005985
188 0.007022
195 0.007029
204 0.005975
161 0.005983
77 0.005978
32 0.00798
23 0.007988
36 0.007033
50 0.00798
59 0.007013
73 0.007014
84 0.006988
85 0.007929
84 0.007979
91 0.006017
103 0.006014
117 0.007007
130 0.006981
142 0.007978
155 0.006973
161 0.000997
173 0.006993
180 0.007017
188 0.006974
193 0.006985
126 0.007975
55 0.007999
24 0.006105
22 0.007016
35 0.006982
47 0.007976
53 0.007016
75 0.007015
84 0.006982
83 0.006979
85 0.006966
91 0.006983
104 0.007979
119 0.007976
138 0.006973
149 0.006989
164 0.00703
172 0.006981
179 0.007013
189 0.007023
196 0.007015
195 0.007016
124 0.007007
52 0.006982
21 0.007015
19 0.006983
30 0.007025
39 0.00697
41 0.006017
52 0.006033
67 0.005989
79 0.006987
81 0.006986
90 0.007021
104 0.007013
119 0.006988
133 0.006953
146 0.007019
161 0.007015
170 0.007015
179 0.006982
186 0.00703
192 0.007074
204 0.007038
212 0.006017
168 0.006017
81 0.006015
32 0.006017
19 0.006005
27 0.006008
37 0.006016
39 0.006983
45 0.007019
59 0.007026
72 0.007014
79 0.006017
83 0.00598
98 0.005988
111 0.006018
127 0.006019
140 0.006017
153 0.005024
166 0.005991
175 0.006036
183 0.006041
190 0.006031
196 0.006039
207 0.005996
215 0.006033
223 0.006033
157 0.006029
73 0.006025
31 0.006016
24 0.005984
34 0.006019
45 0.005027
46 0.005025
53 0.00502
68 0.005021
82 0.005029
85 0.005021
91 0.00502
103 0.005022
117 0.00502
132 0.006027
145 0.006022
157 0.006017
170 0.005017
179 0.004984
182 0.010971
187 0.0
203 0.005027
210 0.004985
218 0.005023
221 0.005021
152 0.005021
72 0.004973
37 0.004987
36 0.005022
54 0.005034
63 0.004988
69 0.004025
81 0.004023
96 0.005011
96 0.00499
96 0.005033
105 0.00503
117 0.005022
131 0.005027
146 0.005026
159 0.004033
172 0.004023
183 0.004021
190 0.004031
196 0.003987
207 0.004033
214 0.00405
216 0.004988
126 0.004987
60 0.004954
37 0.003992
41 0.004023
46 0.0
77 0.004021
89 0.005024
100 0.004017
104 0.004021
104 0.003992
112 0.003877
129 0.004038
144 0.003993
158 0.00401
171 0.004024
181 0.00399
191 0.004024
202 0.00402
208 0.002993
213 0.003034
226 0.00305
223 0.002992
146 0.003003
68 0.002992
33 0.00399
38 0.004037
51 0.004024
59 0.004027
63 0.004022
79 0.00399
91 0.003002
96 0.002999
100 0.003027
107 0.002992
120 0.002992
134 0.002992
138 0.0
156 0.0
175 0.002957
185 0.004021
194 0.004025
203 0.003959
208 0.002993
215 0.003951
228 0.001997
215 0.003028
125 0.003039
53 0.002993
26 0.002988
33 0.00303
46 0.003047
54 0.002993
59 0.002994
73 0.002992
85 0.002992
90 0.002988
94 0.00203
102 0.001997
114 0.001995
128 0.001995
147 0.002019
159 0.002984
171 0.003009
181 0.002992
189 0.002993
198 0.001993
206 0.001981
212 0.002057
217 0.013971
225 0.0
236 0.001961
183 0.002033
63 0.001992
28 0.001995
26 0.001995
39 0.001994
52 0.00238
61 0.001995
70 0.001993
82 0.001994
89 0.001995
90 0.001994
95 0.001995
107 0.000999
121 0.000997
139 0.000999
151 0.001957
162 0.000995
171 0.000997
180 0.000997
187 0.000998
191 0.001014
203 0.000965
210 0.000997
184 0.001995
97 0.001995
43 0.001995
28 0.001996
29 0.013963
38 0.0
53 0.000972
76 0.000998
90 0.001014
94 0.00101
89 0.000962
94 0.000998
105 0.000997
118 0.000997
131 0.000998
150 0.000998
161 0.000998
170 0.000998
177 0.000996
183 0.000998
191 0.0
198 0.0
108 0.0
43 0.000981
18 0.001018
21 0.000998
34 0.000997
48 0.000978
55 0.001028
67 0.000974
79 0.000971
82 0.000962
82 0.001001
88 0.000962
108 0.0
122 0.0
135 0.0
147 0.0
157 0.0
169 0.0
176 0.0
184 0.0
192 0.0
192 0.000997
103 0.000967
40 0.0
16 0.0
26 0.0
35 0.0
39 0.0
45 0.0
63 0.0
73 0.0
76 0.0
80 0.000972
86 0.000998
102 0.0
115 0.0
138 0.0
148 0.0
158 0.0
168 0.0
175 0.0
179 0.0
189 0.001029
194 0.00103
119 0.0
52 0.0
25 0.0
27 0.000962
43 0.0
44 0.016955
45 0.0
62 0.001
76 0.0
78 0.000997
83 0.002002
89 0.001028
105 0.0
118 0.0
131 0.0
143 0.002006
160 0.0
168 0.00103
175 0.001035
184 0.0
192 0.0
200 0.0
207 0.000999
171 0.000998
71 0.0
41 0.0
40 0.0
50 0.000971
62 0.0
68 0.00203
80 0.001995
90 0.0
91 0.0
91 0.0
99 0.00203
111 0.001031
129 0.000974
143 0.000964
148 0.016955
167 0.000998
179 0.0
185 0.002026
192 0.001963
203 0.0
198 0.001041
131 0.000998
67 0.001965
44 0.00203
49 0.000998
61 0.001008
68 0.001997
72 0.002991
92 0.000992
98 0.001999
98 0.001173
102 0.001034
110 0.000987
124 0.000991
138 0.002025
151 0.002992
166 0.000962
177 0.001987
184 0.002
190 0.002021
201 0.001988
209 0.00099
211 0.002029
153 0.002029
62 0.000992
44 0.002992
39 0.001001
61 0.002952
65 0.000984
75 0.001004
89 0.000987
97 0.001008
99 0.000997
106 0.001996
118 0.001995
136 0.002032
150 0.001986
163 0.002025
173 0.002992
181 0.003034
194 0.001983
200 0.001992
207 0.000998
220 0.002031
228 0.000996
202 0.003038
113 0.003025
46 0.001996
39 0.002017
48 0.001993
58 0.002992
61 0.002992
68 0.00202
81 0.001999
92 0.001988
99 0.002051
104 0.001026
109 0.0
147 0.002055
161 0.001994
173 0.001999
183 0.004026
194 0.002992
203 0.001996
210 0.001997
216 0.002984
228 0.001996
237 0.002079
219 0.00399
129 0.004045
54 0.003032
43 0.001966
52 0.001988
67 0.002992
75 0.002976
84 0.001967
98 0.00299
105 0.002992
106 0.003031
109 0.003049
118 0.003989
131 0.003987
149 0.002033
163 0.002041
174 0.003036
186 0.003993
196 0.00399
204 0.002992
210 0.00299
211 0.019947
225 0.000996
183 0.00301
95 0.002996
49 0.003985
41 0.004023
58 0.002994
74 0.003121
83 0.004002
95 0.004987
107 0.003985
112 0.004015
110 0.003996
118 0.004053
130 0.004037
146 0.004026
160 0.004989
175 0.004987
191 0.003958
201 0.003008
209 0.002983
217 0.004021
222 0.004979
197 0.003991
238 0.003985
207 0.003991
107 0.004019
48 0.004021
32 0.005017
39 0.004987
60 0.004025
70 0.003024
76 0.00303
89 0.004987
100 0.004985
102 0.002993
104 0.00399
118 0.004974
133 0.003995
148 0.003994
162 0.005984
175 0.005984
190 0.004001
199 0.004
207 0.003993
215 0.004998
219 0.004987
228 0.003996
237 0.004996
157 0.004986
69 0.004985
29 0.005008
25 0.005986
38 0.005985
56 0.003985
62 0.003984
71 0.003987
83 0.006992
91 0.006015
93 0.005004
97 0.004992
115 0.004985
129 0.005006
144 0.005018
158 0.005984
171 0.005984
179 0.0
185 0.0
202 0.004001
207 0.003967
213 0.006998
220 0.007012
197 0.004979
164 0.006893
51 0.004986
21 0.00499
23 0.004989
39 0.006012
54 0.005984
67 0.00502
78 0.00502
87 0.003989
89 0.007026
88 0.007009
93 0.005984
109 0.006981
128 0.006015
143 0.004974
155 0.005983
167 0.006982
176 0.006981
185 0.004975
190 0.005029
197 0.004975
204 0.005986
188 0.006961
75 0.004987
18 0.007971
15 0.008015
31 0.0
48 0.0
61 0.006988
75 0.006984
88 0.005931
87 0.006014
85 0.005953
90 0.006981
100 0.006986
119 0.006004
141 0.00798
159 0.007
170 0.005965
179 0.006035
187 0.007979
194 0.007979
204 0.005984
198 0.005984
120 0.005985
44 0.007017
13 0.006981
18 0.006015
33 0.005989
47 0.006981
57 0.007018
71 0.007014
79 0.007979
82 0.007979
85 0.007015
94 0.006017
108 0.005991
128 0.007987
143 0.00691
148 0.022938
159 0.0
181 0.002981
187 0.006984
193 0.006025
202 0.006966
208 0.007978
160 0.007979
50 0.006965
13 0.006019
8 0.006989
25 0.007036
34 0.007013
37 0.006958
57 0.007014
70 0.006967
73 0.006998
74 0.006973
83 0.007973
97 0.00695
110 0.006971
129 0.006978
138 0.005965
154 0.00707
162 0.00698
175 0.007003
183 0.007016
193 0.007033
201 0.007026
207 0.00698
160 0.007016
71 0.006967
16 0.006977
15 0.006922
18 0.0
43 0.007011
58 0.006987
73 0.007014
77 0.006975
80 0.006976
87 0.006977
99 0.006029
114 0.006017
134 0.005985
146 0.005986
157 0.005981
166 0.005976
174 0.006017
182 0.005981
191 0.006029
201 0.00603
199 0.006022
131 0.00603
56 0.007014
25 0.006014
29 0.005989
44 0.005985
53 0.005981
61 0.005944
76 0.005983
88 0.006015
89 0.004985
91 0.005984
102 0.006023
115 0.005983
130 0.005022
141 0.001986
172 0.005002
181 0.004978
188 0.004987
195 0.005986
203 0.004989
172 0.006029
88 0.005994
28 0.005977
25 0.006018
39 0.005433
51 0.004987
58 0.004993
73 0.004986
87 0.004969
94 0.004961
95 0.006001
99 0.005982
117 0.005981
133 0.00502
153 0.005023
166 0.004979
178 0.004979
189 0.005021
197 0.005021
207 0.004993
216 0.004987
212 0.00499
139 0.004932
61 0.004987
23 0.005019
32 0.004988
41 0.01197
47 0.0
52 0.000995
77 0.004156
88 0.004023
93 0.004012
98 0.00403
105 0.003994
119 0.004023
134 0.003991
156 0.004024
168 0.003962
181 0.00396
189 0.003989
196 0.003989
204 0.003984
213 0.004001
210 0.003981
132 0.00399
57 0.003954
26 0.003988
27 0.004986
47 0.004023
52 0.003984
64 0.004025
78 0.003979
86 0.003961
88 0.004033
90 0.004025
103 0.003956
116 0.003982
132 0.003971
147 0.00399
159 0.003989
174 0.002993
180 0.002991
188 0.003957
193 0.004057
199 0.003991
207 0.004001
172 0.003985
86 0.004053
26 0.003978
24 0.003929
37 0.003956
50 0.003992
64 0.003995
78 0.003019
89 0.002993
88 0.00302
89 0.003033
96 0.003036
110 0.003026
124 0.003953
124 0.027924
134 0.002
143 0.000961
190 0.001007
118 0.002992
92 0.001963
26 0.002993
29 0.003025
43 0.002979
59 0.002993
67 0.00299
82 0.002978
92 0.00399
98 0.003006
101 0.001997
109 0.001996
128 0.001996
143 0.002001
157 0.002981
169 0.00299
180 0.003029
192 0.002986
198 0.002992
204 0.002988
212 0.002986
188 0.002993
102 0.001995
46 0.001995
31 0.002005
42 0.001996
54 0.00203
60 0.00203
68 0.001996
85 0.001993
94 0.001964
97 0.002032
100 0.001998
115 0.001995
127 0.001976
141 0.001994
160 0.001995
171 0.002028
181 0.001956
190 0.001965
198 0.001996
207 0.002027
213 0.001956
219 0.001986
226 0.001961
229 0.001992
149 0.001995
67 0.000997
36 0.000964
38 0.001993
53 0.000997
63 0.000997
69 0.001958
78 0.001993
93 0.001951
97 0.001966
99 0.001965
109 0.000997
122 0.001995
136 0.001046
151 0.000997
167 0.000998
178 0.000997
188 0.000965
193 0.01496
201 0.0
205 0.0
235 0.0
221 0.000998
132 0.000997
59 0.0
34 0.000997
45 0.000998
62 0.000998
74 0.000997
81 0.000996
96 0.000955
101 0.001029
101 0.000998
103 0.001003
112 0.000997
121 0.0
144 0.000989
170 0.000997
180 0.0
188 0.000999
195 0.0
203 0.000964
211 0.0
214 0.000965
101 0.0
45 0.0
29 0.0
38 0.0
62 0.0
74 0.0
87 0.0
100 0.0
105 0.0
101 0.0
100 0.0
108 0.0
130 0.000998
144 0.0
157 0.0
170 0.0
182 0.0
189 0.0
197 0.0
204 0.0
211 0.0
164 0.001002
74 0.001004
25 0.000967
20 0.000997
35 0.001995
50 0.0
57 0.0
69 0.0
78 0.001029
81 0.001
81 0.0
88 0.0
99 0.0
113 0.000993
128 0.001011
148 0.002032
159 0.001004
170 0.000987
176 0.0
181 0.0
189 0.001994
196 0.002004
131 0.0
51 0.0
10 0.0
3 0.001008
14 0.001004
31 0.001032
37 0.001029
53 0.0
63 0.001016
67 0.0
68 0.000963
74 0.001995
89 0.0
104 0.0
117 0.001004
129 0.001995
141 0.001995
156 0.002026
165 0.002027
173 0.000967
180 0.0
187 0.0
195 0.001004
200 0.002027
117 0.0
42 0.0
9 0.0
7 0.017952
14 0.001012
31 0.001
45 0.001996
60 0.001039
67 0.000985
70 0.000987
73 0.002002
80 0.002006
98 0.000966
111 0.001003
124 0.001001
137 0.002
149 0.001997
162 0.002027
168 0.002001
176 0.001016
184 0.000982
191 0.001981
177 0.002013
101 0.002
28 0.001995
18 0.001108
29 0.001988
44 0.001996
52 0.002995
72 0.001053
82 0.003025
83 0.001994
82 0.0
85 0.000998
113 0.002995
129 0.003007
146 0.000995
157 0.002006
166 0.0
183 0.0
190 0.002992
199 0.002993
159 0.000989
76 0.000993
30 0.000995
20 0.002948
30 0.002987
48 0.001959
54 0.001994
62 0.002013
73 0.002991
84 0.001991
85 0.003
90 0.003032
105 0.001997
120 0.000996
135 0.000974
148 0.002993
160 0.002993
173 0.001995
180 0.001995
188 0.002
194 0.003987
201 0.002992
207 0.001032
226 0.001
163 0.001994
73 0.002007
27 0.002994
18 0.002993
34 0.002961
41 0.002974
43 0.003009
50 0.003991
72 0.00201
78 0.004024
80 0.004035
89 0.002008
102 0.00199
117 0.001964
132 0.003957
146 0.004942
162 0.001982
170 0.003942
177 0.0
201 0.002992
207 0.004008
213 0.004026
226 0.002992
224 0.002037
151 0.001984
67 0.003983
31 0.003988
29 0.004058
47 0.002978
57 0.002996
60 0.00299
80 0.002993
89 0.003045
93 0.003974
94 0.00398
102 0.003986
115 0.003984
130 0.002993
146 0.004986
159 0.004986
173 0.002993
183 0.002993
190 0.002992
201 0.002995
206 0.002992
213 0.00503
222 0.004996
225 0.003995
156 0.003995
73 0.003995
36 0.004985
33 0.005005
54 0.004018
67 0.003993
75 0.002993
96 0.003025
103 0.003021
104 0.021909
103 0.000971
127 0.003958
143 0.003951
158 0.005973
171 0.006025
186 0.003973
196 0.003972
205 0.003972
216 0.003986
221 0.003982
229 0.005018
237 0.004947
225 0.003991
134 0.005006
57 0.005006
26 0.005988
28 0.005985
49 0.004989
61 0.003971
68 0.00399
87 0.003989
95 0.003991
97 0.005996
98 0.006018
109 0.003989
122 0.003988
138 0.004995
153 0.007027
168 0.006022
183 0.004977
193 0.004987
202 0.004987
208 0.021914
212 0.0
222 0.0
231 0.005984
238 0.006031
157 0.004988
66 0.004974
24 0.004949
19 0.007015
31 0.005985
45 0.005983
51 0.000998
68 0.0
82 0.004025
84 0.004982
86 0.007016
92 0.007014
106 0.004985
121 0.00499
137 0.004963
150 0.006983
162 0.006982
176 0.003989
184 0.004981
196 0.004975
201 0.004994
208 0.004978
216 0.007015
224 0.006982
164 0.004986
73 0.004986
26 0.00504
18 0.006979
30 0.006982
41 0.0
74 0.005028
83 0.005987
85 0.004983
85 0.007011
92 0.007927
105 0.005987
118 0.005985
133 0.006
149 0.007964
160 0.007971
168 0.005988
176 0.005984
185 0.005982
190 0.005983
198 0.005981
205 0.007978
201 0.007975
102 0.006937
48 0.006015
34 0.006982
50 0.007974
66 0.007977
75 0.006017
85 0.00602
101 0.005971
101 0.006992
98 0.006985
102 0.007975
112 0.007975
125 0.00603
138 0.006019
151 0.005984
165 0.007978
173 0.007977
179 0.006016
185 0.006025
191 0.007978
200 0.006021
176 0.005948
101 0.005988
50 0.006971
48 0.006975
67 0.006949
74 0.006969
81 0.00698
91 0.006981
101 0.006967
106 0.005984
104 0.006981
108 0.006962
122 0.00699
130 0.006966
146 0.006972
156 0.00702
166 0.006961
174 0.006284
182 0.005989
186 0.005972
192 0.00603
198 0.006965
184 0.007023
90 0.006981
62 0.006955
51 0.006965
57 0.001011
74 0.006958
79 0.005984
89 0.005981
97 0.006952
98 0.006986
100 0.006977
111 0.00698
126 0.007
138 0.006982
146 0.006957
158 0.006982
165 0.006975
174 0.005963
179 0.005981
186 0.005983
191 0.005975
198 0.005984
189 0.005989
97 0.005974
55 0.005969
56 0.005946
67 0.005984
74 0.004986
76 0.005984
84 0.005943
94 0.005031
100 0.004945
101 0.004984
102 0.00498
110 0.005984
125 0.00595
129 0.0
138 0.001029
160 0.005971
167 0.005962
172 0.005983
178 0.005986
183 0.005995
188 0.00596
193 0.005983
176 0.005982
107 0.004989
53 0.005981
57 0.004985
72 0.004987
79 0.004987
84 0.004985
94 0.004981
102 0.004966
103 0.004982
100 0.004996
105 0.004975
115 0.00497
126 0.004986
146 0.005023
155 0.005976
167 0.005003
173 0.005002
177 0.00498
182 0.004977
188 0.004982
192 0.004979
144 0.004977
79 0.00499
51 0.004985
50 0.004985
69 0.005018
73 0.004048
81 0.004011
81 0.027873
89 0.0
102 0.002993
103 0.00501
109 0.004993
120 0.004955
133 0.004989
145 0.004986
156 0.004987
171 0.003989
178 0.00399
187 0.003935
192 0.004009
198 0.00396
206 0.004409
198 0.004989
100 0.003964
55 0.00499
43 0.003982
51 0.004065
62 0.003987
68 0.004019
75 0.003991
91 0.004078
96 0.003989
97 0.011969
98 0.0
102 0.0
124 0.003944
138 0.003955
151 0.003981
161 0.003994
170 0.002996
183 0.002991
189 0.00399
196 0.002994
202 0.003012
211 0.002993
212 0.0
213 0.000992
69 0.004027
38 0.002993
43 0.00303
56 0.003986
63 0.004002
73 0.003991
84 0.002995
93 0.002989
96 0.003976
97 0.003947
104 0.003952
116 0.004013
129 0.002974
147 0.002995
159 0.003022
169 0.003046
178 0.00298
190 0.003008
195 0.002996
200 0.003028
208 0.003003
215 0.002992
216 0.002982
157 0.003
76 0.002997
38 0.002984
43 0.001991
59 0.002034
71 0.002001
86 0.001959
96 0.001987
102 0.002983
101 0.00298
101 0.002961
103 0.013963
112 0.0
123 0.001002
150 0.002027
161 0.002037
170 0.002026
178 0.001996
188 0.002046
194 0.002036
201 0.002023
203 0.001995
147 0.001948
74 0.001956
44 0.002048
44 0.001005
65 0.002029
79 0.001997
90 0.002993
103 0.00203
114 0.001995
111 0.001965
109 0.001963
116 0.001994
129 0.000966
143 0.000997
156 0.001996
167 0.002046
181 0.001992
189 0.002025
196 0.001994
202 0.001955
213 0.001958
198 0.001995
114 0.000949
51 0.000998
32 0.001011
43 0.000997
60 0.000966
72 0.002037
81 0.000948
96 0.002026
101 0.001973
101 0.001961
103 0.001959
112 0.001966
125 0.001077
139 0.000997
157 0.000997
168 0.001995
178 0.000998
186 0.001358
193 0.000997
201 0.001
208 0.001035
205 0.000997
77 0.000997
31 0.000965
21 0.000939
32 0.000969
50 0.000997
57 0.000956
66 0.0
79 0.0
84 0.0
86 0.0
88 0.0
96 0.0
116 0.000998
130 0.000988
144 0.000998
155 0.000999
167 0.000998
174 0.000971
180 0.0
186 0.0
192 0.0
198 0.0
140 0.0
58 0.0
16 0.0
24 0.0
41 0.0
52 0.0
62 0.000958
74 0.0
82 0.0
82 0.0
82 0.0
91 0.0
99 0.01496
117 0.0
139 0.0
150 0.0
163 0.0
168 0.000998
177 0.0
183 0.00096
188 0.000986
199 0.0
193 0.0
121 0.001972
54 0.00199
31 0.0
48 0.001987
64 0.000992
76 0.0
87 0.000989
98 0.0
100 0.000994
97 0.000993
100 0.0
108 0.0
121 0.0
135 0.002
149 0.002031
165 0.001989
174 0.001999
183 0.0
187 0.0
192 0.0
197 0.001969
205 0.000981
162 0.0
81 0.000986
44 0.0
41 0.001
55 0.000993
78 0.00101
84 0.001991
99 0.0
105 0.0
104 0.0
102 0.001999
107 0.001998
121 0.0
134 0.0
147 0.0
159 0.00099
169 0.001031
182 0.00101
188 0.000996
193 0.000999
198 0.000985
203 0.000995
211 0.002005
214 0.001992
119 0.0
58 0.0
40 0.0
46 0.002
59 0.002026
72 0.001997
77 0.002015
90 0.0
94 0.0
95 0.000973
96 0.001993
103 0.002016
117 0.0
130 0.0
142 0.000997
153 0.002017
162 0.002006
174 0.002016
180 0.001994
187 0.00199
192 0.001995
197 0.001999
203 0.002955
209 0.002959
218 0.002013
209 0.001995
161 0.001976
51 0.000998
60 0.001991
62 0.002991
70 0.002028
80 0.002
84 0.00196
84 0.002988
86 0.002993
96 0.001996
108 0.001989
120 0.001993
133 0.003025
149 0.001984
156 0.00195
162 0.002988
171 0.000992
175 0.001009
180 0.000998
186 0.002976
194 0.003009
193 0.000998
128 0.002013
61 0.001
37 0.003025
47 0.002001
59 0.004022
64 0.003986
72 0.000998
83 0.001982
89 0.002
91 0.00296
92 0.002951
100 0.002012
111 0.001031
123 0.001008
135 0.003023
151 0.001986
160 0.004009
167 0.003976
174 0.001988
179 0.001998
184 0.001984
191 0.003993
197 0.003994
190 0.001993
120 0.001997
67 0.001998
54 0.003987
73 0.001962
85 0.003985
89 0.003988
100 0.001983
109 0.001962
111 0.002021
108 0.004027
108 0.003986
119 0.002004
131 0.002962
142 0.003005
152 0.004986
159 0.0
170 0.0
173 0.020904
181 0.0
187 0.002997
194 0.002987
194 0.003994
145 0.003987
85 0.003987
63 0.001973
72 0.003004
86 0.002988
95 0.002993
103 0.002982
112 0.004989
116 0.004988
114 0.002973
114 0.002996
120 0.002992
131 0.004986
141 0.003977
155 0.00399
163 0.003991
169 0.003988
180 0.002982
184 0.002991
187 0.004957
192 0.004995
202 0.003989
184 0.003934
115 0.003942
73 0.004987
66 0.018919
67 0.0
85 0.000954
90 0.003982
99 0.003985
107 0.003994
112 0.004956
111 0.005989
114 0.004001
122 0.004042
132 0.003003
143 0.005018
153 0.004984
164 0.003986
171 0.003004
177 0.003986
184 0.00402
188 0.00399
193 0.005986
200 0.005984
208 0.004004
193 0.003989
122 0.003981
75 0.005989
66 0.005025
78 0.003989
87 0.003992
89 0.003992
95 0.003977
104 0.004995
109 0.005948
112 0.005985
112 0.000999
113 0.001
132 0.004022
143 0.005954
153 0.007019
165 0.003949
172 0.004021
178 0.003991
186 0.004987
192 0.004985
198 0.007026
202 0.007012
208 0.006983
218 0.004985
206 0.004023
135 0.005002
82 0.007019
69 0.006982
79 0.003974
89 0.004018
92 0.004987
98 0.004978
108 0.005014
112 0.006976
112 0.00698
115 0.004981
121 0.004988
131 0.004985
143 0.005967
154 0.007995
166 0.004988
174 0.005986
184 0.006003
189 0.004971
194 0.004969
200 0.007982
203 0.007015
211 0.004989
218 0.004992
214 0.004988
153 0.006981
90 0.007023
69 0.005016
77 0.004986
95 0.004035
98 0.003984
103 0.005959
112 0.007962
117 0.00798
115 0.005004
115 0.00502
121 0.005011
131 0.006968
141 0.007013
155 0.006014
164 0.005966
177 0.00598
182 0.005967
187 0.004933
190 0.007974
196 0.007964
202 0.005985
187 0.005993
118 0.005018
74 0.008009
65 0.007969
78 0.006968
90 0.006955
100 0.005985
110 0.004989
118 0.006015
118 0.007967
115 0.007977
118 0.005978
127 0.005983
138 0.00598
154 0.007011
157 0.0
178 0.006914
187 0.006949
192 0.006011
197 0.006017
203 0.007976
184 0.007976
93 0.007976
62 0.005964
59 0.006005
70 0.005988
85 0.006989
88 0.006982
97 0.006973
108 0.006979
110 0.006001
108 0.006059
111 0.005959
124 0.006994
135 0.006979
147 0.00599
157 0.005992
169 0.005983
176 0.005986
181 0.006027
188 0.005964
195 0.006993
201 0.006978
191 0.006963
122 0.006981
58 0.006985
50 0.006974
63 0.006953
69 0.00697
75 0.00697
78 0.006012
87 0.005995
96 0.00598
97 0.025931
97 0.0
107 0.002961
123 0.005948
135 0.006015
142 0.008976
152 0.001989
166 0.006014
172 0.006025
177 0.006019
183 0.006027
190 0.005983
194 0.005984
119 0.006016
64 0.005982
45 0.00599
50 0.005981
61 0.00599
69 0.004972
71 0.004978
81 0.005021
90 0.006047
94 0.005987
94 0.005807
102 0.00598
117 0.006015
129 0.005983
139 0.005978
149 0.005986
158 0.004973
167 0.004987
173 0.004988
179 0.004984
184 0.00502
190 0.005037
190 0.026877
195 0.000941
78 0.004994
45 0.005981
50 0.005947
62 0.004987
71 0.004987
75 0.004986
86 0.004955
95 0.005033
97 0.005018
95 0.005018
99 0.005028
115 0.004987
126 0.005018
141 0.004984
151 0.004992
159 0.005022
165 0.003962
171 0.004061
178 0.003956
184 0.003989
190 0.003985
172 0.004028
102 0.004052
49 0.00399
53 0.004977
72 0.004997
81 0.004985
88 0.00501
99 0.005022
105 0.010972
107 0.0
105 0.000998
106 0.003993
118 0.004023
126 0.011968
148 0.003956
157 0.003989
167 0.003981
173 0.003999
180 0.003954
185 0.003957
171 0.004022
84 0.003956
48 0.003998
44 0.00399
55 0.004025
67 0.004022
72 0.0
100 0.002955
98 0.003947
96 0.002945
101 0.00399
112 0.003989
128 0.003947
141 0.004003
152 0.003988
161 0.003957
168 0.003956
178 0.003991
185 0.003966
184 0.002958
124 0.002989
62 0.003014
35 0.00399
35 0.002983
45 0.002993
55 0.002992
58 0.003018
67 0.003943
78 0.00399
85 0.004001
87 0.003957
93 0.003976
108 0.002994
122 0.002996
134 0.002993
146 0.002939
155 0.003023
167 0.003027
173 0.003026
179 0.003
184 0.002985
194 0.002988
172 0.002983
96 0.002992
57 0.012931
32 0.000998
49 0.001963
51 0.001995
60 0.001996
71 0.001995
80 0.001995
83 0.001996
90 0.001996
100 0.003039
112 0.003011
131 0.002986
144 0.003049
153 0.002991
162 0.002992
171 0.00204
180 0.002044
186 0.001993
193 0.001998
200 0.001995
209 0.001995
159 0.001995
81 0.001995
39 0.001994
41 0.001993
53 0.001959
62 0.001972
66 0.000997
78 0.002043
89 0.001996
94 0.001962
94 0.00199
103 0.002017
114 0.001995
128 0.001996
146 0.001995
156 0.000997
168 0.000963
176 0.000966
183 0.000997
190 0.000997
196 0.000998
203 0.00203
209 0.001988
166 0.002
89 0.000952
51 0.001968
47 0.001953
65 0.00199
77 0.002016
85 0.002033
96 0.000997
107 0.000998
109 0.000999
106 0.001002
108 0.001047
126 0.00099
141 0.000968
156 0.00196
166 0.001015
180 0.000999
189 0.0
194 0.0
201 0.0
207 0.000998
202 0.000997
136 0.000997
70 0.001043
44 0.000962
57 0.000964
73 0.000998
81 0.000997
95 0.000997
108 0.000937
112 0.0
110 0.000997
111 0.000998
122 0.000997
137 0.0
152 0.0
173 0.0
184 0.0
193 0.0
200 0.0
209 0.0
215 0.0
222 0.0
202 0.0
117 0.000997
44 0.000997
34 0.0
46 0.0
68 0.0
74 0.0
85 0.0
99 0.0
106 0.0
107 0.0
110 0.0
120 0.0
134 0.000998
154 0.002044
167 0.002051
181 0.0
194 0.002
204 0.0
211 0.0
216 0.000981
222 0.001029
174 0.0
229 0.001034
155 0.000986
54 0.0
31 0.000985
37 0.001046
53 0.002031
69 0.000964
79 0.001992
97 0.0
102 0.000998
103 0.000964
105 0.001999
113 0.002026
130 0.0
145 0.0
160 0.0
173 0.001963
184 0.002026
198 0.001992
206 0.001988
212 0.000979
219 0.000973
226 0.0
226 0.002002
157 0.001
56 0.000958
32 0.0
37 0.0
53 0.001994
70 0.002028
88 0.001992
103 0.001995
109 0.0
108 0.0
109 0.000997
117 0.001995
128 0.002993
147 0.0
161 0.0
173 0.000996
184 0.001995
192 0.002
203 0.001963
208 0.001965
215 0.0
210 0.0
142 0.0
63 0.002001
31 0.001961
37 0.0
57 0.0
72 0.0
83 0.001963
98 0.001955
105 0.002005
99 0.002022
98 0.002001
108 0.0
121 0.000965
134 0.001995
148 0.003008
163 0.001996
172 0.001999
180 0.002007
188 0.002993
193 0.003001
97 0.001992
36 0.002019
17 0.001981
30 0.000998
48 0.002004
63 0.002006
78 0.002046
92 0.002033
94 0.001998
89 0.001
88 0.001046
96 0.002992
118 0.001988
132 0.002992
144 0.003024
157 0.001993
166 0.002018
176 0.001996
183 0.002992
141 0.002992
36 0.001993
3 0.001976
3 0.001977
17 0.004025
35 0.002981
46 0.00295
61 0.00297
71 0.003025
70 0.002005
71 0.001017
78 0.003038
91 0.002992
113 0.002018
126 0.001996
139 0.002013
148 0.003989
162 0.001996
171 0.003987
179 0.003988
147 0.001996
63 0.001958
6 0.001993
0 0.004048
0 0.004024
15 0.001996
19 0.001995
27 0.001995
43 0.003989
58 0.001996
60 0.004001
65 0.003989
81 0.001994
96 0.001997
113 0.001994
125 0.004996
138 0.003989
152 0.002007
159 0.002008
166 0.001984
172 0.005024
186 0.001943
185 0.003993
119 0.003989
24 0.002011
1 0.00195
67 0.002028
73 0.00399
77 0.004028
80 0.002003
88 0.00201
94 0.002995
97 0.002978
99 0.003
104 0.002963
111 0.004989
119 0.00497
129 0.002995
136 0.003004
141 0.00299
146 0.004987
150 0.005986
154 0.003984
157 0.002955
160 0.003029
167 0.003025
167 0.002994
134 0.004962
93 0.004982
72 0.002982
75 0.002995
83 0.002996
87 0.005016
89 0.005017
99 0.002996
103 0.002993
104 0.00401
105 0.00399
110 0.00399
117 0.00604
125 0.005985
134 0.003004
140 0.002986
144 0.002958
148 0.004988
151 0.004987
156 0.003999
160 0.004008
156 0.003989
98 0.003978
79 0.002956
78 0.005991
85 0.005987
93 0.003034
97 0.003996
104 0.003989
110 0.005984
112 0.006982
110 0.004978
113 0.004964
119 0.00402
131 0.003974
139 0.003964
145 0.005999
150 0.006026
155 0.004005
159 0.003981
162 0.003984
166 0.005989
174 0.005984
108 0.00399
69 0.003964
58 0.003975
69 0.003993
76 0.003988
78 0.005984
86 0.006991
95 0.006977
101 0.004989
101 0.005953
103 0.005942
110 0.007016
120 0.007018
133 0.005007
142 0.005937
154 0.004937
158 0.003989
163 0.005036
168 0.006982
174 0.006946
164 0.004981
112 0.004985
69 0.004994
54 0.007012
56 0.007014
65 0.004984
68 0.004963
77 0.004982
87 0.00403
92 0.004029
94 0.007972
97 0.007968
104 0.005983
114 0.005993
124 0.004987
132 0.007979
140 0.007979
148 0.004981
153 0.004981
160 0.004977
166 0.004967
172 0.004986
146 0.007978
92 0.007974
60 0.006139
54 0.005978
60 0.005986
66 0.007969
68 0.006981
75 0.006939
85 0.005981
93 0.005022
94 0.005985
98 0.006018
108 0.007973
118 0.007939
127 0.005988
135 0.006009
142 0.005985
150 0.007965
154 0.007963
159 0.005998
163 0.006064
173 0.005983
171 0.005949
128 0.004987
76 0.00701
68 0.007028
76 0.006958
80 0.006018
84 0.006017
90 0.008017
98 0.007983
104 0.006014
105 0.006975
108 0.006976
114 0.005984
122 0.00598
132 0.005984
142 0.007963
147 0.007978
155 0.006988
160 0.006969
164 0.006947
169 0.007014
174 0.007015
163 0.00698
93 0.006981
78 0.006019
82 0.005955
90 0.005988
98 0.006014
103 0.005986
114 0.005974
117 0.005953
116 0.005947
114 0.007027
119 0.007026
129 0.006968
141 0.006981
151 0.005987
155 0.006016
162 0.005971
165 0.006033
170 0.005985
176 0.00598
167 0.005982
120 0.005991
88 0.00598
81 0.005974
90 0.005984
98 0.005984
104 0.005985
110 0.006836
119 0.006979
120 0.006031
119 0.005984
121 0.005984
126 0.007979
138 0.005951
146 0.006021
154 0.006045
163 0.005986
169 0.005986
174 0.005987
178 0.00598
183 0.005981
172 0.005019
121 0.005017
83 0.005041
80 0.005019
88 0.004998
95 0.005018
97 0.005955
103 0.006034
113 0.006002
117 0.005982
117 0.005991
121 0.005986
128 0.005016
136 0.005042
145 0.005021
156 0.005018
163 0.00504
168 0.005017
173 0.00502
177 0.00502
183 0.004981
189 0.004977
184 0.004987
134 0.004988
93 0.005018
79 0.004027
83 0.003989
94 0.004998
96 0.005021
98 0.004987
106 0.004989
115 0.004989
118 0.004984
119 0.004989
127 0.005
135 0.004985
143 0.004024
152 0.00399
160 0.00399
168 0.003992
173 0.003954
178 0.003963
182 0.00604
186 0.00404
192 0.004985
196 0.004967
203 0.004983
201 0.004982
149 0.004115
97 0.004019
80 0.004037
84 0.004043
93 0.00502
99 0.004028
102 0.005038
109 0.004032
119 0.003997
120 0.004003
120 0.004952
125 0.004009
133 0.003989
142 0.00399
151 0.004026
161 0.00395
168 0.003024
173 0.003989
177 0.002993
180 0.002991
186 0.00398
191 0.003947
182 0.003992
128 0.003994
89 0.003958
78 0.003991
84 0.002992
100 0.002994
108 0.003017
116 0.002992
125 0.002992
129 0.003999
124 0.003953
125 0.003958
131 0.003021
142 0.002992
152 0.002995
160 0.003003
167 0.003022
173 0.00299
180 0.002953
185 0.002986
190 0.00294
191 0.002991
113 0.002998
78 0.002992
71 0.002998
83 0.002048
95 0.001994
100 0.004987
111 0.002962
120 0.002993
122 0.002992
120 0.002985
119 0.002993
123 0.002992
138 0.001959
148 0.002992
156 0.002987
166 0.00197
172 0.002008
176 0.001995
180 0.002046
185 0.002028
179 0.001996
124 0.002027
76 0.003026
59 0.003024
68 0.002993
78 0.002956
84 0.002027
93 0.001995
100 0.001995
103 0.002029
102 0.003032
103 0.001999
109 0.001963
119 0.002989
128 0.001983
137 0.001993
150 0.001004
156 0.000988
160 0.000997
165 0.001996
171 0.00204
174 0.002034
138 0.001995
83 0.002026
54 0.001995
56 0.001993
66 0.001996
74 0.001996
83 0.001004
92 0.000997
97 0.000997
96 0.000997
97 0.002028
102 0.002007
110 0.001983
119 0.001993
129 0.002031
140 0.001996
146 0.002007
151 0.001959
160 0.000976
165 0.000998
158 0.000997
109 0.000997
60 0.000997
54 0.000998
61 0.000997
72 0.000998
80 0.000997
91 0.000997
100 0.000997
102 0.0
98 0.0
101 0.0
108 0.0
118 0.0
131 0.0
140 0.000997
147 0.000997
152 0.001042
158 0.001015
166 0.000997
157 0.000998
105 0.000998
54 0.000964
55 0.00102
65 0.0
74 0.0
83 0.0
93 0.0
100 0.0
102 0.0
100 0.0
104 0.0
112 0.0
122 0.0
140 0.001004
148 0.0
154 0.0
161 0.0
168 0.0
174 0.0
172 0.0
124 0.0
73 0.0
50 0.0
55 0.002028
64 0.0
72 0.0
79 0.0
90 0.000999
96 0.000987
97 0.001998
100 0.002044
109 0.0
119 0.0
130 0.0
140 0.002045
148 0.002043
155 0.0
163 0.0
172 0.0
175 0.0
145 0.0
89 0.001004
59 0.00194
56 0.0
61 0.0
70 0.0
74 0.0
81 0.002025
91 0.002025
99 0.001995
100 0.001996
106 0.000958
115 0.0
126 0.0
136 0.002039
145 0.002027
155 0.000989
161 0.0
166 0.0
170 0.002028
175 0.001986
183 0.001994
150 0.002993
79 0.0
60 0.0
61 0.0
71 0.002027
79 0.00204
86 0.0
96 0.0
103 0.0
105 0.002117
104 0.002026
111 0.002994
120 0.002963
134 0.0
143 0.000996
150 0.000999
157 0.002992
162 0.002992
170 0.0
175 0.0
172 0.000986
129 0.002021
82 0.001996
65 0.002
74 0.002027
87 0.0
94 0.0
104 0.0
113 0.002028
115 0.001996
113 0.0
115 0.0
123 0.000966
133 0.002028
144 0.003015
159 0.003009
167 0.003008
175 0.0
180 0.0
186 0.0
187 0.002026
144 0.002034
78 0.001994
64 0.001998
68 0.002961
79 0.00303
87 0.003042
98 0.002993
109 0.002992
115 0.001994
115 0.000997
117 0.002992
123 0.0
133 0.002992
143 0.003009
157 0.001041
166 0.002013
173 0.002013
178 0.00205
188 0.001994
194 0.003018
191 0.002992
119 0.001991
77 0.003028
65 0.002994
69 0.002992
80 0.003991
90 0.002015
96 0.001999
107 0.002999
115 0.004024
117 0.002974
118 0.004041
124 0.003989
138 0.002017
148 0.00103
158 0.002001
168 0.003035
176 0.004024
184 0.004027
188 0.001992
193 0.002988
199 0.002993
190 0.001975
128 0.002992
81 0.003
66 0.001999
75 0.001995
87 0.001993
95 0.004004
103 0.00399
115 0.00199
120 0.001994
119 0.001999
118 0.003989
128 0.002005
137 0.004987
148 0.00399
161 0.00198
168 0.002025
176 0.002026
182 0.00502
186 0.00399
194 0.001993
191 0.001987
142 0.002005
87 0.00399
67 0.001959
78 0.005025
92 0.00502
106 0.00297
117 0.001995
127 0.001966
128 0.004027
124 0.003959
124 0.00201
131 0.002004
141 0.002009
151 0.003989
167 0.002993
175 0.005011
182 0.005018
188 0.005017
196 0.002958
175 0.002947
110 0.002971
70 0.004989
62 0.004945
74 0.002012
88 0.001989
98 0.001971
116 0.002961
123 0.002991
122 0.005035
119 0.005021
123 0.002991
132 0.002952
142 0.002958
153 0.005036
163 0.005021
174 0.003951
181 0.002994
187 0.002042
196 0.003017
159 0.003026
92 0.006022
59 0.006022
55 0.003995
67 0.002989
79 0.002973
88 0.005982
98 0.005984
110 0.002987
113 0.002965
112 0.002999
116 0.002979
124 0.002043
135 0.005984
146 0.006029
158 0.003985
167 0.003992
174 0.003974
181 0.005984
187 0.005985
179 0.003943
119 0.003981
69 0.003976
54 0.003025
65 0.003022
76 0.005984
85 0.00698
98 0.004045
107 0.004023
110 0.003992
108 0.005989
109 0.006017
118 0.004014
127 0.004012
138 0.003985
153 0.004003
161 0.002982
168 0.007036
175 0.006982
182 0.004974
164 0.004998
103 0.00402
64 0.006981
53 0.006981
65 0.004007
79 0.003985
89 0.003989
108 0.003989
114 0.003013
112 0.004986
108 0.006983
110 0.00699
121 0.004962
131 0.004976
141 0.004981
151 0.006978
159 0.006988
169 0.004984
176 0.003994
162 0.004986
102 0.003967
62 0.004992
52 0.007979
64 0.007984
77 0.004955
86 0.00497
97 0.004994
108 0.006982
111 0.007015
108 0.00499
109 0.00599
121 0.005986
132 0.005951
143 0.004971
152 0.007012
163 0.007995
170 0.005023
177 0.005003
182 0.004986
132 0.007983
91 0.007979
53 0.005027
53 0.004979
72 0.005021
79 0.004973
88 0.004991
98 0.00797
107 0.00798
106 0.00599
107 0.005983
112 0.005985
121 0.007979
131 0.007979
146 0.005984
155 0.005943
167 0.005984
174 0.005984
181 0.004986
179 0.007967
126 0.006981
75 0.005984
55 0.005215
57 0.00598
72 0.00702
80 0.006988
87 0.006983
97 0.006014
108 0.005975
108 0.005988
110 0.005982
118 0.007985
128 0.007991
139 0.005987
153 0.006949
159 0.006981
167 0.005984
174 0.00703
179 0.006996
187 0.006985
183 0.008025
128 0.006974
78 0.005987
59 0.006945
66 0.007012
79 0.00696
88 0.00597
96 0.005963
110 0.006009
114 0.006016
112 0.005928
113 0.005994
121 0.006982
133 0.006009
144 0.006954
150 0.006982
161 0.007006
167 0.006018
173 0.00698
179 0.006979
185 0.005995
164 0.005977
105 0.005983
64 0.005984
67 0.006017
84 0.005985
96 0.005983
106 0.005981
117 0.007
122 0.006488
117 0.005528
117 0.005984
122 0.005978
131 0.006984
141 0.006112
154 0.005988
166 0.007028
175 0.005986
182 0.004952
188 0.005956
189 0.006015
144 0.006025
75 0.006018
58 0.005987
64 0.006
77 0.006018
90 0.006018
102 0.004969
116 0.005027
120 0.004944
118 0.004986
119 0.004978
125 0.005037
135 0.005021
150 0.004986
160 0.004986
169 0.003981
177 0.004987
183 0.005022
193 0.005497
195 0.005026
124 0.004985
74 0.005044
57 0.004967
61 0.004991
75 0.005022
87 0.005026
99 0.005026
110 0.004986
117 0.00498
118 0.004994
117 0.005027
125 0.004987
134 0.005012
149 0.004957
160 0.005014
169 0.004026
178 0.004023
185 0.003998
192 0.004045
198 0.003945
201 0.004043
160 0.004988
95 0.005043
58 0.005033
66 0.005023
85 0.004984
96 0.004035
107 0.003995
117 0.00396
121 0.00399
121 0.003988
121 0.00399
126 0.003954
135 0.004028
145 0.003939
164 0.003963
173 0.003956
184 0.003988
192 0.004035
197 0.005021
203 0.003991
204 0.003982
137 0.004025
83 0.00403
64 0.003991
68 0.003981
83 0.003946
107 0.003977
119 0.003971
131 0.004027
131 0.003988
126 0.003996
126 0.00399
131 0.003998
143 0.003026
153 0.004021
163 0.003024
173 0.002993
182 0.002961
193 0.003986
200 0.004014
169 0.00403
103 0.004023
67 0.002964
63 0.002988
75 0.004035
96 0.00396
110 0.002993
125 0.00299
134 0.002992
134 0.003971
126 0.002997
129 0.003992
137 0.003023
152 0.002992
163 0.002963
173 0.002988
182 0.002992
190 0.002992
200 0.002992
203 0.002992
158 0.003028
89 0.00301
53 0.002987
62 0.002992
77 0.003034
94 0.002951
106 0.001995
118 0.001996
121 0.001995
119 0.00205
118 0.001995
125 0.002027
134 0.002029
145 0.002038
163 0.002959
172 0.002988
181 0.002029
195 0.002993
203 0.001995
180 0.002034
108 0.001995
64 0.001996
55 0.001985
65 0.002008
80 0.001996
91 0.001995
109 0.002027
116 0.001995
116 0.002029
114 0.002025
118 0.001995
126 0.001994
137 0.002031
148 0.002031
161 0.001996
170 0.001995
178 0.001996
185 0.000998
194 0.000998
169 0.000998
100 0.001007
53 0.001982
51 0.002027
62 0.00203
77 0.001986
86 0.001962
99 0.002006
107 0.001995
108 0.001964
107 0.000985
111 0.000964
120 0.000997
131 0.001995
145 0.001996
155 0.001996
163 0.002029
171 0.002046
177 0.002027
184 0.000997
164 0.000997
99 0.001996
58 0.0
53 0.000999
67 0.000998
80 0.000998
92 0.000997
108 0.000997
112 0.000992
109 0.000991
111 0.000997
119 0.001013
138 0.000998
154 0.001003
169 0.001005
188 0.0
196 0.000997
205 0.0
215 0.000995
187 0.0
113 0.0
70 0.0
62 0.0
73 0.0
91 0.0
101 0.0
115 0.0
130 0.0
129 0.0
128 0.000997
129 0.000998
135 0.001
142 0.0
153 0.0
168 0.0
173 0.0
180 0.0
185 0.0
192 0.0
143 0.0
74 0.0
42 0.000998
44 0.000998
60 0.000998
70 0.002043
78 0.000997
92 0.0
99 0.0
101 0.00204
101 0.00204
107 0.0
120 0.003025
132 0.000997
148 0.0
157 0.0
166 0.002048
173 0.002032
180 0.0
186 0.0
188 0.0
147 0.001981
82 0.001994
53 0.001994
58 0.002025
72 0.002025
84 0.0
93 0.0
104 0.000997
110 0.002992
111 0.002976
111 0.0
117 0.0
126 0.0
136 0.00299
147 0.002995
163 0.002026
172 0.002027
180 0.0
185 0.0
190 0.0
196 0.002027
183 0.002026
101 0.0
66 0.0
61 0.0
71 0.001995
84 0.001993
100 0.002028
111 0.002047
117 0.0
115 0.000979
114 0.000967
117 0.003039
125 0.003038
138 0.0
149 0.0
158 0.0
166 0.002993
174 0.001992
184 0.002027
190 0.002027
160 0.0
96 0.0
65 0.0
61 0.002028
69 0.002034
87 0.0
97 0.0
108 0.000958
116 0.002991
118 0.003008
114 0.003033
118 0.003036
130 0.0
140 0.0
150 0.0
160 0.003002
168 0.002959
178 0.001994
184 0.0
189 0.001008
157 0.001983
93 0.001976
56 0.00198
63 0.002025
80 0.0
88 0.000966
97 0.0
107 0.00195
113 0.001995
110 0.002002
110 0.0
114 0.002003
124 0.002992
134 0.002992
151 0.001994
159 0.002959
167 0.002993
176 0.001986
182 0.001993
185 0.002992
146 0.002993
83 0.002992
49 0.001995
52 0.001999
63 0.001995
73 0.003976
87 0.002028
97 0.00399
102 0.00399
102 0.001983
103 0.002007
109 0.00299
118 0.002992
128 0.003004
143 0.0
153 0.0
161 0.00299
167 0.004004
178 0.002026
184 0.004013
176 0.003994
98 0.002025
58 0.002
50 0.002026
58 0.003983
70 0.003994
82 0.001989
92 0.001987
101 0.002991
106 0.004017
104 0.001997
108 0.003989
115 0.00399
127 0.003011
139 0.00295
149 0.001956
157 0.00399
165 0.003989
173 0.001989
177 0.001995
182 0.001982
188 0.004994
146 0.001995
84 0.004986
57 0.004936
59 0.001987
73 0.001991
85 0.001996
94 0.003984
105 0.003982
114 0.001995
112 0.003002
109 0.001988
112 0.004994
126 0.002987
137 0.005019
147 0.005026
160 0.001995
168 0.001975
174 0.001998
180 0.005984
187 0.004987
188 0.00492
123 0.001996
73 0.002988
55 0.00298
68 0.00299
83 0.002024
93 0.005019
105 0.004987
115 0.003028
115 0.002975
112 0.002046
112 0.004987
119 0.004952
132 0.002992
143 0.002959
153 0.00296
167 0.002983
175 0.003002
180 0.004972
187 0.005039
192 0.002997
153 0.002991
88 0.003004
55 0.005016
51 0.004987
66 0.003001
77 0.002994
85 0.003995
102 0.003017
108 0.002953
107 0.006018
106 0.005984
112 0.003018
122 0.00303
132 0.002991
143 0.005986
153 0.005989
164 0.003999
170 0.003985
176 0.003986
185 0.003999
189 0.003973
154 0.006021
89 0.00703
51 0.004994
52 0.003956
63 0.00402
75 0.005942
82 0.005992
95 0.002993
103 0.002995
105 0.003958
105 0.003992
110 0.003993
118 0.007012
129 0.007014
144 0.003983
153 0.003986
161 0.003991
168 0.005992
174 0.005975
180 0.002998
185 0.003026
189 0.003997
122 0.004985
70 0.004024
51 0.006981
55 0.006993
72 0.004994
82 0.003988
90 0.004989
102 0.004993
108 0.006991
107 0.007981
107 0.004019
111 0.004
126 0.004995
136 0.004048
146 0.003987
156 0.006982
164 0.006981
172 0.003999
177 0.00397
181 0.003967
186 0.006985
188 0.006985
129 0.002991
75 0.003931
55 0.003985
67 0.004025
81 0.004995
92 0.007979
102 0.007973
112 0.00499
113 0.00499
109 0.004949
110 0.007966
114 0.007951
127 0.00397
137 0.004986
153 0.005984
161 0.005984
168 0.005984
173 0.007979
180 0.006982
183 0.004987
149 0.004987
89 0.005985
59 0.00797
59 0.007978
72 0.003984
85 0.004944
105 0.005994
115 0.005946
116 0.005043
111 0.007979
109 0.007999
115 0.006003
124 0.004972
135 0.005998
149 0.007975
155 0.007955
165 0.004026
171 0.00597
181 0.005951
185 0.005982
155 0.006978
75 0.007978
50 0.006985
51 0.005997
64 0.006979
79 0.006979
88 0.007014
98 0.007043
106 0.006
106 0.005927
105 0.007049
110 0.006974
119 0.006946
130 0.005957
144 0.006977
153 0.006983
161 0.005992
168 0.005986
173 0.004967
180 0.005986
185 0.005979
153 0.005999
60 0.006328
44 0.005992
52 0.005984
60 0.006981
70 0.006078
78 0.006028
92 0.006003
96 0.005979
97 0.005987
98 0.006025
103 0.006995
111 0.006
130 0.006985
141 0.006008
153 0.006982
160 0.005982
167 0.006029
171 0.006018
176 0.00598
181 0.00599
187 0.005983
189 0.005976
146 0.00599
80 0.004988
42 0.006019
51 0.005978
60 0.005947
65 0.00599
71 0.006017
83 0.006019
91 0.005013
92 0.004958
94 0.004988
99 0.005989
108 0.006105
123 0.006021
136 0.006019
148 0.006002
155 0.00598
161 0.005986
166 0.006016
170 0.00602
176 0.005985
183 0.005978
190 0.00501
179 0.004986
117 0.004988
56 0.004992
47 0.005017
60 0.005001
68 0.00499
74 0.004982
83 0.005017
93 0.005021
99 0.005993
99 0.005981
102 0.006
110 0.005004
121 0.004986
132 0.004981
149 0.004983
157 0.005017
166 0.005001
172 0.004975
176 0.004982
180 0.005019
184 0.005019
190 0.004951
196 0.003993
203 0.003952
193 0.004993
127 0.003971
56 0.005027
52 0.00502
68 0.004977
78 0.004994
85 0.003985
94 0.004996
103 0.005024
106 0.003989
106 0.003995
109 0.003963
115 0.003986
125 0.004011
142 0.00399
152 0.003962
163 0.004986
169 0.004946
175 0.004991
180 0.004984
184 0.004954
190 0.003983
196 0.004002
200 0.003996
171 0.004003
106 0.003982
60 0.003976
65 0.00399
83 0.003991
93 0.003982
103 0.004984
115 0.004025
119 0.002992
115 0.003005
114 0.002988
118 0.003993
126 0.003026
138 0.002986
155 0.003993
165 0.00399
175 0.004008
181 0.00399
188 0.004003
193 0.004016
195 0.003993
142 0.002957
83 0.002993
60 0.002996
62 0.003025
74 0.003024
94 0.002981
106 0.002989
120 0.003026
122 0.003025
119 0.002038
117 0.00399
122 0.002997
131 0.003026
146 0.002995
156 0.002994
166 0.002989
175 0.002985
186 0.002993
191 0.002992
198 0.00299
189 0.002993
125 0.002992
69 0.001995
50 0.002033
53 0.001986
71 0.002959
81 0.002007
90 0.002965
100 0.001996
109 0.003023
108 0.002992
108 0.002012
116 0.003024
126 0.001985
138 0.001972
149 0.001995
159 0.001995
170 0.001999
176 0.002036
182 0.002016
188 0.002049
187 0.001997
131 0.002027
70 0.002039
43 0.002034
48 0.001978
61 0.001991
72 0.001963
79 0.000998
93 0.000987
101 0.000964
102 0.001986
101 0.001999
108 0.001995
118 0.002
130 0.002028
144 0.002018
155 0.001996
163 0.001995
170 0.001965
175 0.002
182 0.001967
186 0.001007
191 0.001961
198 0.001995
149 0.001989
80 0.002039
47 0.002028
44 0.001996
57 0.002027
68 0.001993
74 0.002047
83 0.000998
95 0.002004
97 0.002021
98 0.001959
100 0.000999
113 0.000998
124 0.000998
135 0.000997
145 0.000997
157 0.000994
164 0.000997
171 0.0
177 0.0
182 0.0
187 0.000967
193 0.000955
199 0.000999
176 0.000997
103 0.000958
57 0.0
45 0.000997
57 0.0
69 0.0
78 0.0
87 0.0
96 0.0
102 0.0
102 0.0
103 0.0
114 0.0
124 0.0
135 0.0
146 0.0
159 0.0
167 0.000998
174 0.0
179 0.0
183 0.0
191 0.0
196 0.0
171 0.0
72 0.0
51 0.0
54 0.000997
68 0.0
83 0.001006
93 0.000958
104 0.000997
109 0.0
108 0.0
106 0.0
109 0.001995
121 0.000957
134 0.002944
149 0.000955
157 0.0
164 0.0
171 0.003041
176 0.0
184 0.001026
181 0.001027
135 0.001012
78 0.001995
54 0.001966
58 0.001001
77 0.002005
91 0.0
102 0.0
111 0.0
112 0.003026
107 0.002992
106 0.0
113 0.0
123 0.0
134 0.002997
144 0.002996
152 0.002989
164 0.002031
172 0.002014
177 0.000958
147 0.000989
85 0.001002
51 0.002998
45 0.003004
59 0.0
71 0.000997
80 0.0
92 0.003001
102 0.003018
102 0.002978
99 0.003026
105 0.0
114 0.0
125 0.00095
136 0.002991
146 0.001995
158 0.0
166 0.001007
173 0.000996
174 0.001988
131 0.002012
47 0.001995
37 0.00199
49 0.001012
60 0.000964
67 0.0
76 0.00299
88 0.002986
95 0.0
94 0.0
96 0.0
103 0.002993
113 0.003008
132 0.002016
142 0.002004
154 0.0
160 0.0
167 0.0
174 0.001995
174 0.002995
104 0.0
57 0.0
41 0.0
46 0.002961
57 0.002958
68 0.003026
77 0.003027
92 0.0
96 0.000966
97 0.000965
99 0.001999
105 0.001997
119 0.000998
130 0.000958
140 0.0
149 0.002981
158 0.003006
167 0.002993
172 0.002976
179 0.0
182 0.0
143 0.00197
82 0.002997
53 0.002989
50 0.003992
63 0.001022
70 0.002991
76 0.002992
86 0.002984
99 0.001995
101 0.003026
101 0.002992
109 0.0
118 0.001996
129 0.001965
139 0.00299
149 0.003992
159 0.002992
164 0.001997
169 0.002984
175 0.003988
184 0.001993
187 0.002948
149 0.003004
77 0.001996
58 0.001963
61 0.001988
72 0.003991
83 0.003999
91 0.001996
103 0.001993
110 0.002007
111 0.003993
111 0.002979
116 0.00404
125 0.00399
140 0.002994
150 0.002995
159 0.003998
166 0.003986
172 0.003987
178 0.002998
183 0.001995
189 0.002993
192 0.003986
119 0.001999
75 0.003991
64 0.004047
76 0.001992
88 0.001963
98 0.002986
109 0.003991
119 0.005035
122 0.001993
119 0.001995
119 0.001994
124 0.004986
140 0.001996
151 0.005021
161 0.003989
172 0.002993
178 0.002973
184 0.002986
191 0.004992
196 0.004987
165 0.001996
102 0.001997
69 0.001993
64 0.004986
84 0.002997
96 0.004987
106 0.004986
118 0.004988
126 0.002999
123 0.002991
120 0.002995
123 0.006024
132 0.006015
146 0.00296
157 0.003
168 0.002019
181 0.002996
188 0.001994
195 0.005023
201 0.005985
159 0.001976
93 0.002962
60 0.002984
57 0.005985
68 0.006016
85 0.002992
94 0.002992
105 0.002994
118 0.002994
117 0.00301
115 0.005984
118 0.006035
130 0.002996
142 0.003998
153 0.002964
165 0.005999
175 0.005991
185 0.003986
191 0.00399
198 0.003989
187 0.003983
119 0.00299
67 0.006022
50 0.006008
59 0.003007
73 0.003004
83 0.00299
91 0.005984
102 0.006009
112 0.00299
112 0.003988
112 0.00299
122 0.003993
132 0.00399
144 0.007106
156 0.006982
169 0.003983
177 0.00295
184 0.002978
190 0.005995
196 0.006014
202 0.00299
163 0.003971
92 0.004014
49 0.004957
55 0.003999
70 0.006015
81 0.006986
93 0.003992
105 0.003974
111 0.003973
112 0.003982
111 0.006984
114 0.006976
125 0.003995
137 0.003988
157 0.003985
169 0.003977
178 0.004007
187 0.007968
190 0.007937
196 0.003992
203 0.004043
204 0.004018
159 0.00699
89 0.006959
51 0.002001
55 0.004015
80 0.003978
91 0.004027
101 0.004974
112 0.007965
117 0.007931
114 0.004953
113 0.005018
118 0.005018
131 0.007979
143 0.007978
155 0.005018
165 0.00402
181 0.005955
187 0.004973
191 0.004983
200 0.00798
203 0.007952
165 0.004021
95 0.004979
60 0.003989
57 0.007981
72 0.007975
87 0.004985
100 0.00499
120 0.004989
122 0.005983
118 0.005988
115 0.006963
119 0.006981
129 0.004022
140 0.00403
151 0.003989
165 0.00798
170 0.006984
182 0.003993
189 0.005011
189 0.00502
132 0.005983
72 0.005983
50 0.007954
53 0.006981
72 0.005037
86 0.005983
99 0.00499
115 0.006981
117 0.006948
112 0.005021
108 0.005001
118 0.005983
128 0.005982
140 0.00675
150 0.004986
162 0.00698
170 0.006952
178 0.004981
185 0.004981
176 0.005999
91 0.00699
48 0.006982
38 0.005984
56 0.006987
72 0.006024
81 0.005967
93 0.005955
99 0.005969
99 0.00598
96 0.005981
99 0.005995
107 0.005984
122 0.007014
133 0.006943
143 0.006979
156 0.006014
164 0.005961
172 0.005983
175 0.006013
143 0.005978
79 0.005968
42 0.005982
43 0.006011
54 0.005981
64 0.005925
71 0.00597
84 0.005952
94 0.00602
94 0.005995
95 0.005987
101 0.005984
109 0.005986
121 0.00598
135 0.005944
143 0.005815
150 0.005984
156 0.005993
163 0.005984
171 0.005996
162 0.005985
89 0.005948
58 0.004972
54 0.004978
63 0.005954
73 0.004987
81 0.004979
90 0.005
99 0.00499
104 0.005992
103 0.004988
104 0.005967
113 0.006031
126 0.005991
136 0.004974
145 0.004955
152 0.006026
158 0.004979
165 0.004986
171 0.00498
174 0.004954
145 0.00498
93 0.00499
69 0.004983
75 0.00499
86 0.004946
96 0.005
104 0.004979
114 0.004985
117 0.004989
113 0.004045
112 0.003985
118 0.00398
127 0.003933
137 0.003003
146 0.00399
158 0.00403
164 0.004949
171 0.004994
176 0.004029
176 0.00399
138 0.003994
90 0.003978
72 0.004003
78 0.003984
88 0.004001
95 0.004957
102 0.003958
116 0.005049
118 0.004996
116 0.004995
118 0.004
124 0.003995
133 0.003968
143 0.003957
155 0.003945
162 0.003959
167 0.00401
172 0.003996
177 0.004003
183 0.003998
152 0.003989
88 0.002997
74 0.003988
77 0.002981
87 0.004
94 0.004019
101 0.002955
110 0.003991
117 0.00498
119 0.003978
118 0.003987
124 0.002992
132 0.00303
144 0.003989
153 0.004043
161 0.002993
168 0.002992
173 0.002992
179 0.002949
183 0.002994
188 0.002993
193 0.002998
169 0.003028
87 0.003004
74 0.002994
82 0.002993
92 0.002987
96 0.002991
101 0.002003
110 0.00204
116 0.002057
118 0.002941
119 0.001987
122 0.002006
129 0.001952
145 0.002993
155 0.002993
164 0.002992
172 0.003018
178 0.002989
182 0.003016
185 0.002996
189 0.00304
197 0.002954
200 0.003027
169 0.001979
109 0.002006
76 0.001995
81 0.001995
93 0.001999
102 0.001964
109 0.001976
118 0.001993
123 0.002034
123 0.001994
122 0.001995
126 0.001994
134 0.001995
144 0.001041
160 0.001993
169 0.002029
176 0.002025
183 0.001984
188 0.001992
192 0.001983
196 0.001995
201 0.001963
173 0.001992
112 0.001987
82 0.000997
78 0.001035
96 0.000998
107 0.002039
115 0.001995
128 0.002005
133 0.001995
131 0.001953
128 0.001955
130 0.002
140 0.001958
149 0.001956
159 0.001997
168 0.001991
181 0.001996
187 0.000997
191 0.001996
198 0.001005
203 0.000988
198 0.002031
147 0.00204
95 0.000997
77 0.001995
85 0.002
99 0.000998
112 0.0
132 0.001996
139 0.000988
138 0.000996
133 0.001039
131 0.0
137 0.0
147 0.0
157 0.0
166 0.0
179 0.000998
186 0.000959
193 0.00101
203 0.000998
184 0.000992
121 0.000997
78 0.0
69 0.0
81 0.0
95 0.0
107 0.0
119 0.0
131 0.0
131 0.0
126 0.0
126 0.000959
134 0.0
144 0.0
154 0.0
167 0.0
175 0.0
183 0.0
190 0.0
196 0.0
156 0.0
89 0.0
58 0.0
60 0.0
74 0.0
83 0.0
91 0.0
105 0.0
109 0.00101
107 0.0
