172 0.003994
177 0.006014
175 0.006981
118 0.007011
84 0.006992
87 0.006981
97 0.005954
95 0.00607
98 0.005948
101 0.00502
98 0.006001
105 0.005018
114 0.003032
134 0.002992
147 0.001994
155 0.001304
161 0.000968
167 0.001995
170 0.001
128 0.001945
50 0.001978
41 0.001977
68 0.001996
76 0.002039
78 0.001952
88 0.000999
93 0.000997
94 0.000952
102 0.000998
109 0.001
125 0.000997
139 0.003928
145 0.003988
162 0.004017
170 0.003989
112 0.003953
69 0.004987
78 0.004985
96 0.005984
102 0.006956
111 0.004987
119 0.007017
121 0.007017
123 0.007948
133 0.006999
142 0.006986
161 0.005954
176 0.003989
195 0.008976
199 0.007979
166 0.003989
90 0.000998
95 0.001995
117 0.001995
121 0.001875
134 0.002991
136 0.003953
132 0.003958
137 0.004985
146 0.003989
160 0.005983
172 0.002962
183 0.006949
184 0.00101
120 0.003989
66 0.004141
70 0.002992
91 0.001995
97 0.0
104 0.0
108 0.001995
112 0.003024
116 0.003991
121 0.003989
134 0.003022
142 0.005996
152 0.00603
163 0.00398
138 0.003998
55 0.002978
52 0.001992
65 0.002028
74 0.002039
81 0.004934
97 0.000998
104 0.002992
105 0.00298
112 0.003028
119 0.001037
132 0.001027
141 0.001115
154 0.001
162 0.0
103 0.0
37 0.0
39 0.00097
62 0.0
68 0.0
82 0.0
97 0.000986
99 0.001948
100 0.002032
116 0.005021
126 0.005886
147 0.006016
162 0.005988
177 0.005952
190 0.005953
194 0.005985
131 0.005985
83 0.007979
86 0.007978
115 0.007948
127 0.000998
143 0.0
146 0.000935
147 0.001995
150 0.001995
160 0.000965
180 0.001016
190 0.000971
205 0.003025
215 0.002992
227 0.005039
222 0.004021
137 0.003989
109 0.004021
122 0.003994
145 0.005984
157 0.001989
171 0.005982
179 0.005032
178 0.003971
182 0.003026
197 0.002005
206 0.000997
217 0.001007
154 0.001995
242 0.004988
250 0.004025
246 0.005012
192 0.005968
136 0.00399
144 0.002992
161 0.003028
177 0.001994
186 0.000999
191 0.0
184 0.000991
182 0.001994
185 0.000998
194 0.0
201 0.001
207 0.002028
212 0.004022
222 0.003989
199 0.005954
147 0.005984
103 0.005022
113 0.003957
125 0.004021
122 0.001994
126 0.001995
127 0.001013
127 0.000932
126 0.001996
138 0.001995
153 0.0
162 0.000998
175 0.002992
185 0.002993
190 0.00303
189 0.003989
124 0.004987
73 0.005962
72 0.00695
95 0.006981
99 0.006982
109 0.006978
117 0.002994
115 0.005021
115 0.00203
123 0.001025
130 0.000999
144 0.000955
158 0.001997
165 0.002042
179 0.002002
176 0.002992
124 0.002968
71 0.002993
90 0.004937
109 0.00594
121 0.004928
134 0.006952
141 0.004001
140 0.005982
140 0.004987
149 0.004986
166 0.003977
184 0.000997
195 0.005034
210 0.000997
217 0.005046
169 0.000972
105 0.000997
106 0.00197
129 0.001998
148 0.000997
154 0.000998
159 0.001031
154 0.0
149 0.0
156 0.000925
161 0.000999
171 0.000998
179 0.000998
186 0.001001
192 0.000999
160 0.001996
96 0.003945
86 0.00399
104 0.004987
122 0.005981
130 0.005034
140 0.007012
142 0.005055
142 0.005035
147 0.003011
161 0.004112
173 0.003999
179 0.004016
186 0.004012
193 0.003995
186 0.00399
122 0.00603
90 0.001017
100 0.005019
122 0.005023
125 0.005023
134 0.004985
136 0.004993
136 0.005986
135 0.000991
138 0.004992
148 0.000995
155 0.003989
163 0.001993
170 0.002011
172 0.001078
180 0.0
132 0.0
86 0.0
78 0.0
102 0.000974
110 0.000998
115 0.001963
124 0.002992
122 0.002992
121 0.001987
126 0.002992
136 0.002993
146 0.003011
152 0.002956
157 0.003027
163 0.002981
167 0.003989
174 0.003982
159 0.004008
81 0.005984
70 0.00593
80 0.007015
99 0.003034
107 0.003991
111 0.003023
113 0.003025
110 0.003001
114 0.001992
123 0.000997
132 0.001996
140 0.001983
145 0.003989
151 0.002026
156 0.001047
163 0.000966
113 0.000996
67 0.002994
76 0.002826
91 0.00401
106 0.004993
115 0.005011
118 0.006996
117 0.004019
114 0.001998
119 0.001993
130 0.002025
141 0.001028
146 0.0
152 0.001994
160 0.000973
143 0.0
70 0.001012
59 0.002044
73 0.002992
88 0.002971
92 0.004039
98 0.004955
93 0.006927
86 0.007976
86 0.00699
94 0.005986
108 0.0
116 0.002142
118 0.001993
127 0.001977
87 0.001983
29 0.001005
20 0.000999
32 0.000999
40 0.002988
46 0.004952
48 0.005931
46 0.005952
42 0.005984
44 0.006015
55 0.003991
63 0.006982
71 0.002
78 0.004023
77 0.003989
36 0.004024
0 0.002994
0 0.001002
0 0.0
0 0.000999
0 0.001004
0 0.00299
3 0.002992
5 0.003002
13 0.004018
26 0.004957
41 0.004957
50 0.005982
60 0.005016
76 0.003961
84 0.001992
23 0.000966
0 0.003019
0 0.001995
0 0.004987
0 0.000998
0 0.009975
0 0.004988
0 0.001995
0 0.009974
0 0.005985
4 0.001995
8 0.009006
8 0.005994
9 0.010996
9 0.005028
13 0.010854
14 0.011969
31 0.001991
56 0.001994
87 0.001993
52 0.001994
62 0.001031
65 0.003998
70 0.000997
72 0.00399
73 0.003993
74 0.0
83 0.000998
92 0.00695
96 0.006976
100 0.006948
104 0.002993
107 0.006031
112 0.0
79 0.001001
60 0.001995
57 0.002033
67 0.000999
68 0.000998
72 0.0
78 0.000998
79 0.001996
79 0.002992
85 0.003956
89 0.005896
97 0.004987
103 0.007978
109 0.003182
115 0.004987
96 0.003982
72 0.002984
65 0.002027
74 0.001998
78 0.0
83 0.000997
89 0.00203
91 0.003026
90 0.003958
96 0.003985
101 0.004987
108 0.005002
118 0.004931
122 0.004959
126 0.002978
87 0.002991
72 0.003949
75 0.006981
86 0.002994
88 0.006017
71 0.003995
82 0.000997
85 0.003021
91 0.002047
103 0.001995
115 0.001011
133 0.000997
143 0.002011
155 0.002992
166 0.00296
163 0.003979
87 0.00497
59 0.005953
66 0.004988
84 0.005925
87 0.005036
92 0.005016
100 0.005025
94 0.007976
97 0.004988
113 0.006995
124 0.005029
139 0.007978
155 0.00697
164 0.007009
178 0.007947
192 0.006991
174 0.005984
102 0.002998
91 0.005022
110 0.000999
119 0.000999
119 0.001995
134 0.001978
144 0.001998
145 0.000998
151 0.0
165 0.001996
174 0.001986
190 0.001026
200 0.000961
205 0.002023
213 0.001995
221 0.001995
228 0.002842
72 0.002992
173 0.003004
117 0.003024
110 0.003023
124 0.003027
134 0.003024
137 0.002934
149 0.00299
149 0.002989
148 0.005984
156 0.004961
165 0.005014
177 0.005014
191 0.005035
200 0.004994
212 0.00499
225 0.007947
231 0.004982
209 0.007979
148 0.005056
119 0.007946
138 0.007933
150 0.00793
162 0.007971
167 0.006958
170 0.006981
165 0.001979
168 0.005986
180 0.002014
197 0.000999
205 0.001001
217 0.001984
225 0.000965
227 0.001942
161 0.000966
130 0.001995
131 0.001988
147 0.000998
153 0.0
161 0.0
168 0.001964
165 0.003007
165 0.002991
174 0.003987
184 0.006977
196 0.005956
206 0.005038
210 0.007018
219 0.006982
212 0.005033
153 0.007008
117 0.004988
126 0.007976
146 0.005005
154 0.004021
158 0.004987
163 0.003971
160 0.003984
157 0.003932
167 0.003961
177 0.001992
188 0.001987
195 0.004987
202 0.002959
208 0.004987
212 0.002027
218 0.005069
167 0.004989
123 0.003003
110 0.00299
126 0.001995
134 0.000997
136 0.001961
143 0.0011
145 0.000998
143 0.000967
151 0.003031
158 0.002993
171 0.004969
180 0.005994
188 0.005021
192 0.004019
197 0.006016
203 0.002035
208 0.004958
143 0.002992
107 0.002028
102 0.00101
116 0.001029
120 0.001946
121 0.002033
127 0.002986
126 0.00399
123 0.005018
128 0.005987
137 0.006984
145 0.003991
154 0.003025
158 0.002995
166 0.001035
174 0.000998
176 0.001995
167 0.001032
96 0.000999
77 0.00101
89 0.000997
105 0.001043
108 0.001995
116 0.00296
117 0.004024
112 0.004984
113 0.005983
121 0.007979
130 0.007978
142 0.004987
154 0.0
158 0.003959
165 0.001023
172 0.0
147 0.001996
92 0.001988
75 0.0
85 0.0
99 0.001004
103 0.002988
108 0.004998
105 0.005953
100 0.005976
104 0.005944
115 0.005844
124 0.007978
132 0.005004
141 0.007949
151 0.007978
156 0.007979
112 0.007976
60 0.00796
49 0.007951
68 0.002028
73 0.005034
79 0.001963
85 0.002007
83 0.002029
82 0.002024
86 0.001954
99 0.001037
111 0.005088
119 0.002026
127 0.005952
136 0.001964
143 0.003984
92 0.002017
49 0.002008
35 0.0
47 0.0
55 0.001995
59 0.002018
70 0.004005
73 0.003966
73 0.004954
82 0.005934
89 0.006989
101 0.003026
116 0.002988
123 0.001977
135 0.00101
143 0.000996
151 0.000997
158 0.000962
107 0.002025
58 0.001034
35 0.00095
48 0.002026
48 0.003027
48 0.005947
56 0.006934
58 0.007029
57 0.006994
63 0.007979
69 0.007978
86 0.006971
101 0.002991
110 0.005017
120 0.000999
132 0.001991
138 0.0
152 0.001
163 0.001969
167 0.002022
180 0.001995
131 0.0
83 0.001008
60 0.001997
79 0.00399
84 0.00397
86 0.004954
94 0.004987
98 0.005963
100 0.006981
107 0.007979
119 0.007976
130 0.007979
139 0.007979
153 0.008012
163 0.004
168 0.00299
176 0.004071
181 0.003989
188 0.002991
199 0.003023
203 0.002982
202 0.003959
156 0.002992
87 0.000994
82 0.005024
97 0.001035
102 0.004993
106 0.003989
113 0.002992
112 0.000967
109 0.000997
114 0.001996
126 0.002022
141 0.004021
149 0.004025
162 0.003995
175 0.003987
183 0.00588
192 0.002993
202 0.004987
189 0.004037
115 0.000997
89 0.0
97 0.001004
114 0.002
121 0.0
128 0.000993
135 0.0
130 0.001001
131 0.002
143 0.001963
157 0.000997
170 0.001988
180 0.003019
189 0.004007
196 0.005939
190 0.006851
128 0.004974
92 0.007944
90 0.003966
104 0.001995
109 0.001993
117 0.001989
121 0.002011
118 0.001988
120 0.002008
126 0.000993
141 0.002
149 0.001992
162 0.001955
172 0.005019
181 0.0
155 0.00407
75 0.004015
58 0.00402
67 0.004022
73 0.003023
74 0.001032
86 0.001072
93 0.0
95 0.000999
103 0.002028
112 0.000932
131 0.001962
146 0.002014
155 0.002014
167 0.002033
173 0.001963
179 0.002992
107 0.003989
67 0.004043
60 0.005952
72 0.006994
69 0.005983
74 0.00701
87 0.007017
90 0.006983
91 0.007011
96 0.006017
110 0.007014
120 0.004993
133 0.007003
143 0.004013
152 0.007948
162 0.004991
174 0.00294
181 0.002075
191 0.001028
195 0.0
159 0.000967
73 0.00203
58 0.002007
66 0.0
69 0.001008
69 0.0
78 0.000998
86 0.003006
87 0.003984
92 0.005032
102 0.006005
117 0.006982
126 0.006984
141 0.006977
150 0.003995
160 0.007002
168 0.003995
176 0.007966
187 0.003986
199 0.004023
206 0.002995
182 0.003991
96 0.003989
78 0.002978
89 0.00301
98 0.003027
98 0.003071
109 0.007018
116 0.003017
115 0.007017
119 0.00399
130 0.004985
149 0.002993
159 0.002952
174 0.000991
182 0.001039
189 0.000999
196 0.000975
204 0.0
212 0.0
200 0.001992
122 0.001984
96 0.002992
103 0.004015
113 0.004023
111 0.00598
118 0.006154
123 0.006992
119 0.004021
121 0.006985
131 0.006018
142 0.004991
158 0.004002
170 0.0
175 0.00399
186 0.000971
191 0.002992
202 0.0
192 0.000967
144 0.000874
84 0.000978
83 0.001964
94 0.001989
98 0.001975
99 0.001985
110 0.002016
112 0.002014
112 0.002025
120 0.001955
129 0.001013
146 0.00102
162 0.001
170 0.002992
181 0.003006
189 0.004023
199 0.005017
206 0.00602
216 0.005977
216 0.006982
137 0.007021
78 0.002984
69 0.00597
82 0.002136
81 0.002969
83 0.001015
90 0.001989
93 0.00199
93 0.000992
98 0.000998
112 0.000954
122 0.002038
137 0.002993
150 0.003999
155 0.005985
168 0.004992
176 0.006017
184 0.002991
191 0.005009
198 0.004011
168 0.002985
76 0.003028
52 0.000991
60 0.0
66 0.000966
64 0.001952
69 0.003958
77 0.004043
76 0.005952
79 0.005021
91 0.00501
108 0.004988
119 0.002967
133 0.001993
141 0.005995
147 0.001
157 0.003999
168 0.004019
174 0.003021
173 0.00099
104 0.001045
45 0.000997
39 0.000962
58 0.000998
61 0.001996
66 0.002957
77 0.00498
78 0.004991
81 0.004956
93 0.004999
106 0.004981
123 0.005978
133 0.005953
144 0.005986
157 0.005035
162 0.004956
172 0.003986
172 0.008
124 0.004954
56 0.007922
36 0.003986
55 0.00701
65 0.007951
66 0.007976
79 0.006982
81 0.006975
78 0.005134
85 0.002002
95 0.00498
113 0.0
131 0.00196
136 0.001988
147 0.001995
157 0.0
166 0.001996
122 0.001971
34 0.001996
19 0.003009
35 0.002918
45 0.003025
47 0.003994
62 0.005025
65 0.005018
64 0.003981
70 0.004992
86 0.005008
101 0.005002
115 0.00599
123 0.005984
133 0.006986
141 0.002991
150 0.006978
108 0.00296
46 0.00395
0 0.003025
15 0.002995
21 0.002995
25 0.002959
34 0.002955
47 0.001011
50 0.00502
55 0.001003
69 0.002992
90 0.001994
101 0.000989
116 0.00105
126 0.00103
137 0.000994
147 0.0
78 0.001998
28 0.001916
15 0.002993
33 0.002972
35 0.003995
49 0.004967
63 0.004957
74 0.004984
78 0.005999
92 0.002962
106 0.001992
128 0.001998
141 0.005021
153 0.0
164 0.002987
175 0.002929
166 0.000997
75 0.001966
45 0.000997
57 0.00206
66 0.001983
66 0.001945
81 0.001994
97 0.002048
97 0.001995
104 0.001971
112 0.002022
132 0.001995
150 0.00201
161 0.00201
172 0.002033
183 0.003942
187 0.003987
198 0.003958
205 0.004999
190 0.005968
112 0.004954
75 0.005988
79 0.00499
91 0.00798
90 0.002013
100 0.005983
113 0.005979
115 0.00495
118 0.001995
131 0.002003
142 0.000982
156 0.000999
171 0.0
176 0.00101
188 0.000998
199 0.000969
207 0.001995
219 0.003991
209 0.005978
157 0.004991
93 0.004014
100 0.005963
118 0.001988
121 0.006021
134 0.005983
141 0.005987
141 0.005992
141 0.005995
152 0.006016
169 0.002001
178 0.005007
189 0.000819
200 0.000983
204 0.002991
214 0.000994
220 0.000974
176 0.002022
100 0.001959
93 0.002038
110 0.000965
114 0.002006
117 0.001995
126 0.000997
130 0.0
128 0.001948
136 0.005019
148 0.005984
161 0.005979
173 0.005996
181 0.005021
188 0.005985
196 0.004992
202 0.005015
212 0.006984
191 0.002997
132 0.005965
72 0.000998
82 0.000998
87 0.001971
85 0.001996
94 0.000992
102 0.0
105 0.0
110 0.000967
118 0.0019
136 0.002994
153 0.003978
161 0.004021
173 0.005021
181 0.005879
188 0.002991
198 0.006961
205 0.007932
209 0.00698
221 0.000992
184 0.001038
141 0.001995
75 0.0
81 0.0
89 0.000998
87 0.002999
96 0.00497
103 0.004993
106 0.005032
108 0.005017
114 0.003025
132 0.001975
147 0.004983
160 0.001033
170 0.004012
182 0.002992
190 0.001993
202 0.001967
209 0.000966
220 0.002038
227 0.002993
237 0.003024
238 0.004986
151 0.004982
88 0.004986
88 0.007029
103 0.004989
106 0.002991
109 0.002023
119 0.0
120 0.001993
121 0.001995
125 0.001996
140 0.001995
150 0.0
163 0.0
174 0.001929
180 0.002992
190 0.004021
198 0.005014
206 0.004986
214 0.004968
222 0.004952
228 0.005955
210 0.00502
132 0.004993
84 0.007968
86 0.002999
104 0.000993
108 0.00102
117 0.001963
122 0.001995
118 0.000998
116 0.0
127 0.0
138 0.002044
154 0.002948
169 0.003991
176 0.004982
182 0.005982
191 0.007974
196 0.003026
203 0.006972
141 0.006986
92 0.005979
69 0.004986
90 0.0
100 0.003978
111 0.0
118 0.002992
114 0.002014
110 0.002001
112 0.002028
126 0.002004
144 0.002013
152 0.0
164 0.0
172 0.00102
177 0.00298
181 0.001995
140 0.001957
56 0.001994
43 0.001996
59 0.003004
70 0.00097
77 0.003033
86 0.002031
91 0.002873
91 0.003989
98 0.004983
111 0.004973
127 0.006952
140 0.003981
154 0.001997
162 0.00201
171 0.001963
181 0.0
187 0.002014
167 0.000977
70 0.0
40 0.000997
48 0.000986
59 0.001996
58 0.001995
70 0.002991
82 0.004992
86 0.004984
91 0.006981
107 0.006983
119 0.007981
135 0.005966
152 0.001998
160 0.00404
174 0.002008
184 0.001958
191 0.001965
203 0.000998
212 0.000969
220 0.002962
185 0.003982
83 0.005019
59 0.005994
65 0.005992
77 0.005984
76 0.004002
85 0.001985
95 0.00497
97 0.00399
100 0.003026
112 0.003961
130 0.001992
140 0.002993
150 0.000983
161 0.0
170 0.001956
181 0.003029
192 0.003957
199 0.005952
207 0.005966
217 0.005945
226 0.005006
234 0.003955
238 0.003994
151 0.000979
78 0.006019
66 0.001055
79 0.003012
90 0.001031
91 0.001032
105 0.0
106 0.001001
103 0.000998
108 0.000997
125 0.002997
137 0.00202
153 0.002962
165 0.004001
170 0.005042
180 0.004937
188 0.003974
194 0.004006
205 0.00299
216 0.000997
222 0.0
210 0.00099
128 0.003995
71 0.000826
70 0.003989
87 0.000977
96 0.003939
107 0.004027
113 0.004021
111 0.003989
108 0.002031
113 0.002
128 0.001033
142 0.001022
155 0.000996
168 0.001003
174 0.002
183 0.001972
187 0.001996
196 0.000949
207 0.001995
194 0.001996
96 0.001016
48 0.001964
55 0.002029
72 0.003994
75 0.005984
82 0.004994
88 0.003984
85 0.007979
87 0.002992
95 0.006955
113 0.005022
125 0.003988
143 0.002996
150 0.001028
160 0.0
168 0.000968
177 0.00299
184 0.003017
193 0.003995
202 0.004984
158 0.00602
67 0.004989
28 0.004937
35 0.002992
47 0.000975
44 0.003992
55 0.000998
65 0.001996
65 0.002019
67 0.000998
80 0.0
95 0.0
111 0.000966
124 0.000998
139 0.00199
147 0.002991
158 0.003989
168 0.004981
176 0.005993
186 0.005021
196 0.002998
202 0.002003
212 0.002042
133 0.000998
63 0.001996
22 0.00297
34 0.001994
39 0.00197
38 0.001043
50 0.002062
57 0.002984
57 0.003983
63 0.006015
80 0.007953
94 0.007967
114 0.007876
120 0.006983
134 0.006018
148 0.001002
155 0.005026
169 0.001998
179 0.001995
187 0.001996
200 0.000947
211 0.0
218 0.0
229 0.0
199 0.0
120 0.001049
31 0.000999
31 0.00197
43 0.003001
45 0.004992
47 0.00499
56 0.004962
57 0.006036
57 0.005971
65 0.005992
85 0.005964
97 0.00502
117 0.005841
127 0.005987
140 0.00504
147 0.003992
154 0.00699
166 0.003025
177 0.002993
184 0.002999
197 0.003015
200 0.003
103 0.002021
27 0.003992
15 0.000957
32 0.004097
45 0.001996
48 0.002003
61 0.001025
64 0.000999
60 0.000999
66 0.0
84 0.00101
97 0.0
116 0.0
127 0.0
139 0.000996
150 0.001004
156 0.002986
170 0.002983
146 0.00304
78 0.002992
1 0.003946
0 0.00304
20 0.00599
32 0.005966
38 0.004993
52 0.004989
51 0.006954
48 0.004005
59 0.006957
80 0.006936
90 0.006997
109 0.006145
117 0.005965
131 0.005981
141 0.000998
149 0.004994
162 0.0
128 0.0
51 0.000955
0 0.00101
0 0.001951
0 0.002062
0 0.002039
0 0.001962
18 0.000998
24 0.001988
28 0.001962
43 0.001029
66 0.000975
80 0.0
101 0.002005
113 0.001994
125 0.002009
136 0.002992
147 0.003993
157 0.004987
170 0.005009
181 0.004991
167 0.004985
44 0.004995
0 0.004993
62 0.005951
67 0.004009
66 0.002947
70 0.00399
80 0.002964
82 0.002987
85 0.002041
90 0.0
99 0.002977
109 0.003019
116 0.00202
125 0.000993
131 0.000997
136 0.000876
141 0.000999
149 0.002009
152 0.001993
159 0.002992
166 0.004997
159 0.005958
99 0.005978
73 0.005027
77 0.005984
85 0.00504
85 0.006015
88 0.004994
97 0.004982
98 0.005963
101 0.004166
109 0.007979
116 0.001994
125 0.005972
134 0.003989
139 0.002986
145 0.00396
148 0.003023
155 0.002994
161 0.001008
166 0.003992
173 0.001997
137 0.001944
106 0.001026
92 0.002025
96 0.00203
107 0.000974
108 0.000998
113 0.002032
118 0.003002
118 0.004987
120 0.004991
129 0.005951
137 0.005018
142 0.004985
150 0.003968
156 0.007978
160 0.002988
166 0.004019
171 0.003044
176 0.001995
181 0.001985
186 0.0
190 0.0
161 0.0
113 0.0
107 0.0
116 0.0
118 0.002033
119 0.00196
126 0.003989
128 0.004013
128 0.005954
131 0.00401
139 0.002994
144 0.001992
153 0.001964
158 0.004988
164 0.001961
168 0.003024
173 0.001802
178 0.003022
181 0.0
186 0.000997
189 0.000998
194 0.000998
197 0.001029
163 0.000998
120 0.0
115 0.000983
125 0.001003
126 0.000948
124 0.001996
129 0.000999
131 0.000969
129 0.00205
131 0.003993
135 0.003963
143 0.00402
147 0.003961
163 0.003999
168 0.004027
172 0.003964
178 0.003986
182 0.005951
187 0.007016
192 0.007944
197 0.002986
201 0.007978
167 0.00298
103 0.002
92 0.001965
103 0.001997
109 0.0
108 0.0
114 0.0
115 0.0
110 0.001808
108 0.002032
114 0.002027
125 0.001984
131 0.001996
140 0.000985
146 0.00103
149 0.000997
155 0.001956
159 0.000962
164 0.0
170 0.000978
175 0.000966
140 0.000975
79 0.001989
70 0.004004
79 0.003026
85 0.005983
84 0.006983
88 0.004986
88 0.004991
85 0.003995
88 0.003989
99 0.003002
107 0.002001
117 0.00297
126 0.00203
134 0.000974
137 0.001972
145 0.001995
150 0.001995
157 0.004015
150 0.00397
111 0.00502
68 0.004995
73 0.005984
81 0.005837
83 0.00598
86 0.006032
93 0.005037
96 0.00299
99 0.001991
105 0.002975
119 0.002077
127 0.001997
139 0.001994
148 0.005986
156 0.002029
164 0.006955
172 0.001998
178 0.005979
185 0.00597
191 0.005986
200 0.005999
173 0.001961
135 0.004974
114 0.0
122 0.003003
133 0.002022
133 0.001987
134 0.000964
141 0.0
140 0.001952
142 0.002028
149 0.003947
160 0.004998
167 0.005032
176 0.005981
184 0.005954
189 0.005028
195 0.005963
200 0.006015
205 0.004992
210 0.007984
217 0.006977
221 0.005985
191 0.005942
144 0.001045
143 0.002028
155 0.001971
162 0.0
161 0.000999
167 0.0
169 0.0
169 0.0
170 0.0
174 0.0
182 0.0
186 0.0
192 0.0
198 0.000936
200 0.001002
204 0.002945
208 0.002981
212 0.00299
180 0.002986
144 0.00399
140 0.004952
151 0.006
157 0.004987
157 0.006017
162 0.005983
160 0.006982
156 0.002993
156 0.002958
162 0.001971
166 0.000996
174 0.002001
176 0.001988
182 0.002043
188 0.000781
190 0.001983
153 0.002017
117 0.001986
117 0.003
129 0.004016
131 0.005022
131 0.005979
136 0.006961
136 0.006987
132 0.007936
131 0.006987
136 0.002018
140 0.003965
145 0.002006
150 0.000998
152 0.002005
158 0.001958
144 0.000973
106 0.002045
78 0.0
93 0.000974
98 0.001007
98 0.001004
104 0.002005
109 0.002901
107 0.002999
108 0.003023
117 0.003028
127 0.004009
136 0.004019
144 0.003036
149 0.003986
155 0.003996
166 0.002992
172 0.003993
130 0.004022
89 0.005004
88 0.007016
98 0.003989
99 0.002993
100 0.002004
113 0.001967
117 0.002028
118 0.002007
125 0.00099
130 0.000975
141 0.000995
149 0.001972
156 0.001982
168 0.002001
178 0.001971
184 0.000963
191 0.001031
199 0.002045
207 0.003035
190 0.003988
127 0.004022
118 0.004019
133 0.005963
135 0.00597
133 0.004986
138 0.004957
142 0.001984
140 0.002998
142 0.000964
148 0.003025
155 0.000965
161 0.002981
168 0.001986
173 0.003021
180 0.002991
182 0.001993
188 0.001963
194 0.001995
200 0.001985
205 0.001951
211 0.002968
202 0.000953
137 0.0
122 0.000998
135 0.001022
144 0.000969
140 0.002033
146 0.001982
150 0.00197
146 0.001996
140 0.003991
142 0.003943
146 0.004974
158 0.00402
163 0.004996
165 0.005981
167 0.005986
168 0.004991
171 0.007976
176 0.004954
180 0.007975
187 0.007014
189 0.006149
149 0.005972
102 0.00099
106 0.003961
123 0.001996
126 0.001975
123 0.002027
124 0.002059
120 0.001972
115 0.001992
116 0.001996
121 0.001996
123 0.002056
124 0.002946
128 0.0
138 0.000998
146 0.001032
147 0.0
150 0.000998
151 0.001995
157 0.002956
136 0.001959
94 0.002939
83 0.002992
99 0.003012
105 0.003949
106 0.003976
112 0.003988
119 0.004959
121 0.004976
124 0.004956
131 0.004979
135 0.004985
143 0.004987
146 0.005006
147 0.00497
150 0.004983
154 0.004987
159 0.004967
166 0.005995
165 0.004974
112 0.005984
95 0.007025
105 0.00698
120 0.007982
118 0.002992
119 0.007027
124 0.003988
126 0.006956
130 0.001995
134 0.000989
138 0.0
146 0.000995
155 0.001009
156 0.001965
161 0.001969
160 0.002004
156 0.002003
130 0.001998
96 0.001996
81 0.0
87 0.0
86 0.0
82 0.0
93 0.0
100 0.0
83 0.0
83 0.0
96 0.000998
118 0.001007
130 0.001004
148 0.000999
143 0.001037
132 0.002984
127 0.002894
124 0.003025
70 0.004987
56 0.004015
66 0.00499
73 0.004019
72 0.005001
80 0.004944
98 0.003991
102 0.00798
104 0.003994
109 0.006998
119 0.002996
132 0.007017
147 0.007014
156 0.006982
162 0.006974
174 0.001994
174 0.001996
111 0.0
78 0.000969
94 0.0
119 0.000976
125 0.000997
132 0.001996
140 0.001032
143 0.000994
138 0.001956
150 0.002004
156 0.0
167 0.0
172 0.001995
178 0.002971
183 0.002992
186 0.005005
160 0.003953
88 0.004972
83 0.005012
106 0.004987
114 0.004979
113 0.004823
126 0.005013
126 0.005985
122 0.004953
127 0.004977
135 0.004985
143 0.005983
150 0.005955
157 0.004983
161 0.004999
167 0.004021
160 0.001962
93 0.005989
61 0.0
74 0.004994
91 0.003999
87 0.003006
93 0.001035
101 0.000998
100 0.001996
102 0.001032
109 0.001995
116 0.0
127 0.0
132 0.000999
137 0.000997
144 0.00196
148 0.003036
149 0.002992
71 0.00399
50 0.003005
64 0.00399
80 0.004969
75 0.004978
85 0.005796
89 0.005014
91 0.005024
94 0.00595
100 0.004974
112 0.006
122 0.006955
126 0.007978
133 0.007006
137 0.007014
146 0.007025
157 0.002999
164 0.002994
120 0.0
55 0.001958
56 0.002032
78 0.002032
80 0.00302
81 0.002005
94 0.002028
95 0.001995
93 0.003065
97 0.003961
107 0.00495
116 0.004938
125 0.00597
135 0.00696
139 0.007948
148 0.007979
154 0.002993
160 0.007978
172 0.002074
134 0.000948
87 0.0
71 0.000998
90 0.001032
99 0.001997
98 0.000995
105 0.001956
110 0.001992
103 0.001997
100 0.001996
108 0.001997
112 0.001996
122 0.003026
132 0.002011
138 0.002982
144 0.001033
146 0.000997
150 0.001006
159 0.001013
164 0.000999
167 0.000981
91 0.001996
52 0.00399
50 0.003963
60 0.002953
61 0.003995
60 0.003988
65 0.005018
61 0.005945
52 0.003983
60 0.00399
66 0.003991
77 0.004025
83 0.002992
92 0.002994
97 0.006957
104 0.003036
111 0.00702
120 0.005046
127 0.005036
137 0.004957
145 0.003973
136 0.003959
53 0.001
30 0.004166
44 0.001013
55 0.004994
60 0.001
67 0.001996
68 0.001997
60 0.002029
52 0.002026
57 0.002027
68 0.0
83 0.001031
87 0.000999
94 0.0
99 0.0
109 0.0
118 0.0
126 0.0
98 0.0
20 0.002084
1 0.00204
12 0.002
22 0.001965
26 0.002963
35 0.00295
34 0.002965
27 0.00299
28 0.003025
43 0.00298
60 0.003936
69 0.004986
81 0.005007
87 0.00398
94 0.004992
107 0.003036
119 0.006981
111 0.003925
26 0.007912
0 0.002993
0 0.007983
0 0.007028
0 0.005035
7 0.004987
15 0.001016
15 0.004991
13 0.0
24 0.001983
31 0.00197
47 0.002058
62 0.001035
71 0.001996
86 0.00103
90 0.001997
101 0.002002
111 0.002002
120 0.001995
93 0.000985
0 0.00197
0 0.001973
0 0.001985
0 0.001963
0 0.003781
61 0.005006
64 0.004957
62 0.003989
62 0.003954
67 0.004987
75 0.004016
82 0.004989
92 0.004989
100 0.004982
104 0.005988
110 0.003938
118 0.002992
121 0.0
128 0.002992
135 0.003087
133 0.003007
82 0.003025
59 0.000975
52 0.002993
61 0.002993
64 0.003966
66 0.003024
72 0.00299
74 0.00205
73 0.001996
80 0.001995
85 0.0
96 0.0
107 0.001986
112 0.002997
120 0.001994
125 0.00304
130 0.002995
135 0.004982
138 0.004981
145 0.005968
154 0.004022
158 0.003988
133 0.004002
85 0.006991
68 0.002037
76 0.006984
79 0.006983
74 0.005988
78 0.004958
87 0.001962
89 0.003994
90 0.001962
95 0.002967
107 0.002026
120 0.002948
128 0.001957
136 0.001997
138 0.001967
145 0.002961
154 0.002932
159 0.002951
166 0.0
173 0.000967
171 0.000975
121 0.000967
97 0.000972
94 0.002987
104 0.003011
105 0.002969
109 0.002986
110 0.003024
107 0.002999
107 0.002986
115 0.00399
120 0.003989
130 0.004027
136 0.006018
143 0.007967
148 0.001995
152 0.001986
156 0.001995
158 0.000948
114 0.002959
87 0.00204
80 0.001965
84 0.002037
87 0.002971
89 0.00196
94 0.001014
97 0.0
99 0.000954
103 0.0
114 0.000983
120 0.0
129 0.000999
135 0.000963
140 0.001009
144 0.0
149 0.002999
153 0.003989
149 0.004994
108 0.004014
81 0.004997
61 0.003981
67 0.002964
65 0.002996
70 0.004123
77 0.003995
81 0.002957
81 0.007966
89 0.002011
99 0.006973
114 0.005953
122 0.006959
133 0.005983
139 0.004979
147 0.00399
157 0.002017
162 0.00199
170 0.001977
178 0.00201
186 0.0
188 0.002002
118 0.004972
88 0.005013
86 0.00497
94 0.004996
92 0.003
96 0.003028
104 0.002005
106 0.001986
107 0.002968
117 0.005939
130 0.002993
141 0.005963
154 0.004957
159 0.005944
168 0.003995
173 0.002962
182 0.003967
189 0.002965
196 0.003
204 0.001996
214 0.001961
220 0.001962
212 0.002987
146 0.0
125 0.001995
132 0.001986
138 0.002005
140 0.003021
148 0.00402
152 0.004978
152 0.004995
156 0.004953
162 0.004988
175 0.004991
184 0.006011
190 0.004994
198 0.006972
203 0.004026
208 0.007982
212 0.003987
218 0.007772
222 0.002992
159 0.002997
221 0.003992
155 0.002993
134 0.001996
138 0.001997
147 0.002993
147 0.004022
155 0.001974
156 0.001995
154 0.0
157 0.003946
165 0.001981
174 0.001977
182 0.002027
187 0.001997
192 0.001949
196 0.0
203 0.000986
208 0.002023
214 0.00299
217 0.003972
225 0.005025
227 0.005014
195 0.005996
144 0.005977
132 0.005017
139 0.004934
139 0.003989
134 0.005983
140 0.002948
143 0.001995
142 0.003002
144 0.002004
151 0.007948
160 0.001972
166 0.004945
190 0.002005
195 0.001993
204 0.001996
211 0.000979
218 0.000986
225 0.000999
232 0.000974
237 0.000984
243 0.001962
248 0.001985
255 0.002046
199 0.001783
140 0.002028
100 0.000996
111 0.00402
111 0.003988
106 0.003981
112 0.00403
116 0.003992
113 0.004013
116 0.004019
128 0.004003
136 0.004029
150 0.005009
161 0.004989
168 0.005981
178 0.006024
184 0.004956
194 0.007006
202 0.003972
209 0.007016
219 0.003931
229 0.003989
235 0.003989
185 0.004021
189 0.003958
192 0.004047
189 0.002959
149 0.004981
117 0.000951
110 0.003972
116 0.000958
118 0.003982
116 0.003971
117 0.003991
116 0.003983
114 0.00188
116 0.003027
122 0.002023
127 0.002954
134 0.001991
141 0.001953
144 0.00195
148 0.0
153 0.000977
154 0.000973
159 0.000947
163 0.001964
166 0.003977
170 0.002988
172 0.003989
177 0.004027
175 0.004002
147 0.00395
102 0.004002
94 0.004993
99 0.005959
103 0.007032
103 0.008014
106 0.008004
103 0.006983
102 0.007026
101 0.005976
108 0.002005
113 0.004975
121 0.0
127 0.001975
130 0.0
136 0.000962
140 0.00195
141 0.001986
147 0.0
153 0.0
156 0.000968
161 0.0
165 0.0
151 0.0
99 0.001995
84 0.002988
87 0.004987
95 0.004954
95 0.004955
99 0.004987
98 0.003987
94 0.00399
93 0.005032
97 0.004956
104 0.001993
113 0.001998
117 0.001997
123 0.000992
128 0.002029
130 0.002026
134 0.002961
138 0.003989
144 0.001994
138 0.003991
99 0.000998
70 0.003989
69 0.003
74 0.002133
76 0.00296
79 0.001003
84 0.000972
83 0.000998
83 0.000999
87 0.001
98 0.000999
103 0.000999
112 0.000964
120 0.000999
124 0.001996
130 0.002003
135 0.001847
141 0.001995
147 0.002995
150 0.003054
158 0.00399
149 0.003997
115 0.003995
71 0.002995
71 0.005002
75 0.003995
74 0.005985
74 0.006961
78 0.007955
82 0.007008
82 0.007973
86 0.005019
96 0.002001
102 0.004967
112 0.001971
119 0.002001
124 0.002034
131 0.002981
136 0.002032
140 0.002035
147 0.00197
154 0.0
159 0.000961
165 0.000989
169 0.000962
174 0.000965
179 0.000998
181 0.002989
186 0.002993
161 0.00399
110 0.003952
85 0.005012
88 0.004848
90 0.007983
86 0.007033
86 0.007004
91 0.003991
92 0.002988
94 0.003018
100 0.002
110 0.001969
116 0.001948
125 0.001994
130 0.00499
136 0.001981
141 0.003983
145 0.002878
151 0.004024
157 0.002957
162 0.00305
169 0.003021
174 0.0
178 0.001971
182 0.003033
187 0.004976
178 0.003984
130 0.006018
93 0.003996
87 0.006982
92 0.002993
93 0.001994
91 0.002008
96 0.001995
97 0.000969
99 0.001019
102 0.002991
110 0.002992
119 0.002962
125 0.003931
132 0.002991
138 0.003032
145 0.003965
150 0.003001
156 0.003008
160 0.002993
166 0.003029
171 0.001951
176 0.0
180 0.00206
184 0.002019
188 0.0
159 0.0
99 0.000995
85 0.001009
89 0.000925
93 0.001
92 0.00099
97 0.000992
98 0.000996
97 0.003001
101 0.004005
106 0.004967
115 0.004992
125 0.006937
131 0.00402
139 0.006938
143 0.00399
149 0.007964
156 0.007015
159 0.006014
167 0.00595
174 0.001966
178 0.002998
187 0.002029
176 0.001978
141 0.002968
103 0.001995
102 0.002025
111 0.002999
116 0.00299
118 0.003011
123 0.003028
120 0.003993
117 0.003023
121 0.002028
128 0.00103
138 0.0
146 0.002045
153 0.004053
156 0.004967
161 0.004954
163 0.00502
166 0.006016
170 0.004953
174 0.004987
150 0.002993
97 0.002079
85 0.001992
91 0.002993
94 0.000992
93 0.002992
99 0.001966
100 0.002992
99 0.00299
101 0.002981
108 0.001964
116 0.002992
124 0.003179
128 0.003024
134 0.003977
137 0.001963
140 0.003951
145 0.002996
149 0.002034
154 0.003025
153 0.003997
96 0.003973
69 0.004004
62 0.003963
66 0.003961
63 0.003958
64 0.00396
71 0.003963
76 0.003963
76 0.004067
83 0.003944
94 0.004983
98 0.005041
108 0.00501
116 0.006988
120 0.004987
126 0.006979
131 0.003051
137 0.006983
144 0.006044
152 0.000998
155 0.002992
162 0.001995
166 0.002969
170 0.002992
175 0.00298
177 0.002992
180 0.002042
124 0.002044
86 0.001999
68 0.0
73 0.000999
74 0.0
70 0.0
74 0.002028
79 0.00103
79 0.001968
83 0.001986
91 0.00202
101 0.002006
109 0.002956
117 0.002992
121 0.003036
127 0.002966
135 0.002992
140 0.002987
148 0.002042
152 0.002993
160 0.002992
166 0.002959
169 0.001995
173 0.004953
179 0.004956
180 0.003014
134 0.002008
88 0.006983
77 0.002026
83 0.005933
83 0.001987
78 0.006017
85 0.006186
90 0.006018
93 0.006034
97 0.003015
100 0.006029
109 0.001979
116 0.006948
129 0.001993
137 0.00199
141 0.001994
146 0.000985
153 0.001981
157 0.002995
166 0.000994
168 0.00198
173 0.001004
179 0.00098
185 0.000998
170 0.002984
104 0.003957
84 0.002897
82 0.002994
90 0.003977
90 0.004022
90 0.003987
96 0.005961
96 0.005986
96 0.00501
100 0.00599
110 0.005976
118 0.004967
125 0.005057
133 0.004988
140 0.004959
144 0.003991
150 0.004023
153 0.002017
159 0.002963
166 0.007977
170 0.000999
174 0.006925
180 0.004985
182 0.004977
133 0.003007
85 0.002995
82 0.002982
93 0.002992
96 0.003058
96 0.0
102 0.0
104 0.001
102 0.003024
105 0.004946
111 0.004964
123 0.004994
134 0.005004
139 0.004976
146 0.004988
152 0.004981
156 0.004029
162 0.005005
166 0.00496
172 0.004978
178 0.00601
180 0.003986
131 0.007023
90 0.007978
88 0.007015
101 0.007001
107 0.006971
111 0.006983
117 0.001994
116 0.004988
113 0.0
117 0.001996
123 0.002007
133 0.002972
144 0.001025
148 0.000998
154 0.000959
160 0.000963
163 0.000961
167 0.000988
170 0.000997
177 0.000975
156 0.001833
121 0.002028
91 0.00196
96 0.002032
102 0.004019
104 0.004954
105 0.004982
112 0.006003
113 0.005966
113 0.005939
120 0.004986
131 0.004986
137 0.004975
146 0.005022
151 0.005079
158 0.002993
164 0.003027
168 0.002992
174 0.003019
179 0.004952
185 0.000998
188 0.004055
193 0.003017
196 0.003965
199 0.00297
204 0.002052
191 0.002004
127 0.00296
104 0.00295
106 0.001997
114 0.000988
112 0.001
110 0.001962
114 0.002999
114 0.002011
113 0.002971
118 0.00296
124 0.002991
132 0.002994
137 0.00296
145 0.003001
151 0.003025
153 0.003989
158 0.003982
162 0.002992
168 0.003989
173 0.004987
176 0.004993
180 0.006982
184 0.005978
189 0.001995
193 0.005985
155 0.001957
117 0.005959
91 0.000963
96 0.002001
100 0.001962
99 0.002044
100 0.001991
101 0.001946
100 0.001997
101 0.0
106 0.0
115 0.001023
122 0.001998
131 0.001995
138 0.003023
141 0.003035
146 0.003993
150 0.005005
153 0.00596
159 0.005985
164 0.004986
163 0.006982
122 0.003993
79 0.003023
76 0.003957
84 0.003967
86 0.003968
85 0.00399
91 0.002001
92 0.002993
91 0.002961
95 0.004982
102 0.000997
110 0.002952
120 0.002992
126 0.002991
133 0.001994
138 0.00296
144 0.00196
147 0.000963
153 0.000997
157 0.002056
165 0.002002
156 0.001961
98 0.002994
72 0.003
76 0.003968
84 0.00398
83 0.00302
86 0.004992
91 0.002979
88 0.00295
88 0.00296
96 0.003975
104 0.001995
115 0.002957
121 0.003981
126 0.002993
132 0.002993
137 0.002004
141 0.001992
147 0.001002
154 0.000978
149 0.0
103 0.002028
68 0.001068
69 0.003009
77 0.003023
80 0.003995
84 0.004021
91 0.00383
91 0.003037
91 0.003989
101 0.004022
107 0.003995
118 0.003997
123 0.003976
131 0.004992
136 0.004993
139 0.004956
147 0.005977
152 0.006017
156 0.00399
163 0.007009
149 0.002012
110 0.005971
68 0.000967
72 0.003024
75 0.002983
72 0.002993
77 0.001995
84 0.002003
90 0.001965
91 0.001964
99 0.001972
106 0.001965
114 0.001954
128 0.00196
138 0.001042
143 0.000964
152 0.001975
156 0.001955
167 0.001992
174 0.002031
182 0.001978
189 0.002035
195 0.002035
203 0.00104
208 0.001995
211 0.003024
216 0.003981
220 0.003987
185 0.004014
94 0.004958
73 0.004003
79 0.00496
80 0.004985
77 0.00498
85 0.005015
94 0.00499
95 0.003991
99 0.005015
107 0.004967
121 0.003991
131 0.007975
141 0.001993
149 0.006009
159 0.005975
163 0.005956
172 0.00598
180 0.000967
186 0.004982
194 0.002962
201 0.002
205 0.001001
212 0.0
217 0.0
220 0.000949
226 0.000968
202 0.00097
113 0.0
82 0.001996
89 0.001997
94 0.002968
89 0.004985
94 0.004994
104 0.004939
105 0.005983
109 0.003978
117 0.007984
131 0.002961
139 0.006984
153 0.003045
158 0.005996
166 0.001979
172 0.002054
176 0.002013
183 0.001996
191 0.002982
196 0.003022
202 0.002029
210 0.003002
213 0.001992
220 0.001995
223 0.002988
155 0.001994
208 0.001998
153 0.003012
86 0.001959
81 0.001959
93 0.001972
95 0.001012
93 0.000998
101 0.001996
104 0.003959
103 0.004969
108 0.006957
120 0.003989
131 0.007978
143 0.001994
155 0.001996
160 0.002009
166 0.001992
172 0.002992
179 0.003033
185 0.002992
194 0.003019
198 0.001987
206 0.001963
213 0.0
218 0.000968
205 0.001967
137 0.002046
88 0.001993
83 0.002027
97 0.002021
105 0.003018
110 0.001993
116 0.000998
115 0.002991
112 0.003
116 0.002993
129 0.00205
138 0.002962
152 0.002993
161 0.002998
165 0.003951
170 0.003943
176 0.003989
180 0.005023
188 0.003981
191 0.003989
198 0.002988
204 0.007078
191 0.001949
117 0.004987
60 0.003056
59 0.003026
73 0.00295
76 0.002991
78 0.002993
86 0.002041
88 0.002961
86 0.003015
95 0.00296
105 0.002944
117 0.00299
130 0.000999
137 0.0
146 0.0
154 0.002988
159 0.001965
168 0.003942
174 0.002979
184 0.002968
188 0.005013
195 0.006977
200 0.007967
203 0.006954
128 0.0
72 0.005021
40 0.001013
53 0.002009
57 0.002953
56 0.002025
64 0.0
70 0.002055
69 0.002947
75 0.002024
83 0.002977
98 0.001992
107 0.001971
120 0.003018
131 0.002041
137 0.00204
145 0.003076
149 0.003942
158 0.003996
166 0.005007
174 0.004973
182 0.004985
189 0.006939
194 0.007967
200 0.006984
206 0.001002
211 0.00514
198 0.003082
95 0.002041
52 0.00203
38 0.002045
55 0.002992
56 0.002044
56 0.002015
62 0.002989
64 0.001999
64 0.001996
71 0.002993
82 0.003013
98 0.0
107 0.001983
119 0.003026
125 0.0
133 0.001977
139 0.001996
145 0.001995
152 0.002025
161 0.002024
168 0.001994
177 0.002002
182 0.001998
189 0.004991
195 0.00504
200 0.003984
148 0.004089
50 0.002005
26 0.003023
34 0.001987
48 0.007013
49 0.001976
54 0.00595
59 0.005018
57 0.004031
58 0.003969
68 0.00199
82 0.002011
95 0.001994
110 0.000998
116 0.000974
127 0.001995
133 0.002001
143 0.002993
153 0.003997
160 0.003979
167 0.003992
176 0.002964
185 0.0
190 0.0
198 0.003001
203 0.0
201 0.0
121 0.005053
60 0.002992
26 0.003965
39 0.002991
48 0.004021
50 0.002993
56 0.001951
55 0.001991
52 0.0
53 0.0
62 0.002021
79 0.001
88 0.000999
102 0.002041
113 0.001927
119 0.002028
126 0.001987
131 0.001995
139 0.00299
147 0.005021
155 0.004983
164 0.005091
173 0.004042
178 0.00399
182 0.003003
110 0.007961
35 0.003988
12 0.00798
26 0.006013
36 0.006032
41 0.005997
47 0.005985
50 0.005178
45 0.002004
46 0.004987
61 0.000964
80 0.00206
92 0.003051
102 0.002026
113 0.002002
117 0.002028
124 0.00302
129 0.002013
137 0.002989
147 0.002994
154 0.002029
138 0.001967
60 0.002028
8 0.001949
8 0.001996
24 0.001993
32 0.002965
39 0.003989
46 0.003961
46 0.004961
44 0.004988
51 0.004951
65 0.00399
83 0.004049
92 0.004058
105 0.004026
111 0.002996
119 0.003029
127 0.002992
132 0.003026
140 0.002966
149 0.007032
136 0.003043
55 0.00698
0 0.003033
0 0.004987
0 0.003958
0 0.002988
0 0.002031
12 0.002042
20 0.002001
23 0.002994
34 0.002038
47 0.002023
66 0.002966
77 0.002991
91 0.0
103 0.0
108 0.000998
120 0.000966
131 0.002991
138 0.002029
149 0.002992
159 0.004969
165 0.004984
174 0.004985
178 0.00596
183 0.004048
190 0.00798
115 0.006983
50 0.006002
12 0.005022
19 0.00519
27 0.004993
23 0.000964
32 0.004972
46 0.000998
51 0.000983
56 0.000998
71 0.003053
81 0.000968
98 0.000999
111 0.005023
121 0.001983
129 0.004995
137 0.001967
145 0.00195
156 0.002947
163 0.001995
173 0.0
181 0.001995
189 0.002002
195 0.001954
204 0.004986
207 0.003978
213 0.00798
220 0.002028
192 0.001009
127 0.000967
53 0.000959
49 0.000941
60 0.001961
57 0.001032
55 0.002952
69 0.002964
73 0.002994
74 0.0
83 0.002039
99 0.002011
109 0.001949
124 0.002045
133 0.001996
140 0.001952
146 0.001995
152 0.001985
159 0.001996
168 0.002987
175 0.003982
185 0.004991
196 0.004997
201 0.005105
206 0.004988
210 0.004973
216 0.004944
207 0.005018
149 0.004018
63 0.00399
53 0.00399
64 0.00398
70 0.002997
69 0.003036
80 0.00399
82 0.007977
80 0.002977
85 0.007937
97 0.003031
110 0.007966
126 0.006985
133 0.007031
143 0.005991
151 0.002974
156 0.007016
165 0.0
175 0.002941
181 0.002008
188 0.003044
194 0.002947
199 0.002
207 0.002031
211 0.00203
139 0.002014
50 0.002956
36 0.002955
49 0.0
55 0.001007
53 0.002001
61 0.001946
69 0.001952
70 0.002029
75 0.003957
84 0.004972
102 0.006028
116 0.004987
126 0.005985
136 0.004987
145 0.004988
150 0.005007
159 0.004987
165 0.004987
176 0.005014
186 0.004987
192 0.004987
200 0.003982
206 0.005916
211 0.0
217 0.005946
147 0.004024
79 0.003001
29 0.00295
33 0.002991
48 0.003055
45 0.003035
48 0.002963
58 0.002991
61 0.00299
64 0.0
74 0.000974
93 0.001984
103 0.001963
119 0.002041
126 0.002004
136 0.001964
145 0.001886
151 0.001965
161 0.001999
167 0.001996
178 0.001987
189 0.003989
193 0.003989
200 0.004979
207 0.005014
212 0.005
133 0.006022
40 0.006007
26 0.006997
41 0.006996
48 0.006946
47 0.007924
55 0.001994
62 0.00797
64 0.001996
68 0.002989
77 0.0
96 0.002989
109 0.004993
123 0.0
131 0.005947
138 0.0
144 0.003001
152 0.002984
158 0.002962
168 0.002994
176 0.0
183 0.0
189 0.0
198 0.002006
202 0.001979
132 0.00297
38 0.003041
24 0.003969
40 0.003946
50 0.003939
54 0.004015
65 0.004981
66 0.005103
63 0.004998
65 0.00399
74 0.004032
94 0.004022
105 0.003989
120 0.004955
130 0.006955
134 0.003979
140 0.006975
145 0.003021
154 0.005983
162 0.006985
167 0.006975
179 0.007979
144 0.001993
76 0.00698
15 0.001992
25 0.001963
37 0.00196
42 0.001964
48 0.001991
61 0.001963
62 0.001956
63 0.002961
76 0.002945
92 0.002959
103 0.002992
120 0.001996
128 0.002992
138 0.000997
145 0.000974
151 0.001032
162 0.000996
170 0.000967
177 0.000967
183 0.0
193 0.0
154 0.002041
45 0.002991
18 0.003075
27 0.004041
37 0.003018
35 0.004996
42 0.004972
58 0.005019
63 0.004962
68 0.004024
83 0.006983
95 0.002991
114 0.008022
123 0.002992
137 0.007945
147 0.00796
151 0.007947
160 0.007927
167 0.006999
178 0.006941
189 0.002051
197 0.007963
205 0.001998
213 0.001007
215 0.000964
223 0.002991
211 0.002956
116 0.002975
44 0.002972
30 0.001975
47 0.001983
53 0.001994
50 0.002005
64 0.001987
73 0.001997
76 0.002028
85 0.002943
95 0.003006
114 0.002994
132 0.00299
140 0.003014
151 0.002988
157 0.001967
165 0.00201
174 0.001983
181 0.0
192 0.0
203 0.0
209 0.000963
218 0.001009
222 0.001013
228 0.00381
237 0.003988
240 0.004962
175 0.005003
65 0.00495
42 0.00496
60 0.005032
69 0.006995
67 0.003988
79 0.005991
85 0.003985
87 0.007978
89 0.007008
95 0.005991
114 0.00507
134 0.001962
143 0.004964
156 0.001991
164 0.002992
170 0.002968
177 0.001984
180 0.002994
192 0.001981
202 0.002997
208 0.0
216 0.0
223 0.001001
228 0.000969
234 0.0
164 0.0
75 0.0
44 0.001964
57 0.002991
75 0.003955
83 0.004985
90 0.004987
96 0.006951
93 0.002956
93 0.002041
101 0.0
120 0.000965
132 0.000972
149 0.000966
159 0.000969
165 0.001994
173 0.001989
179 0.004019
187 0.00299
195 0.00195
206 0.0
210 0.000966
219 0.0
225 0.0
197 0.0
95 0.000975
35 0.002012
33 0.002993
57 0.001995
63 0.002032
69 0.003024
81 0.00502
82 0.004015
83 0.003996
90 0.004986
103 0.003985
124 0.003966
135 0.002005
150 0.002944
161 0.001988
168 0.001996
176 0.002954
184 0.005973
194 0.001997
203 0.006085
214 0.003022
221 0.002994
231 0.00199
235 0.002992
246 0.004003
224 0.002961
118 0.002957
47 0.002967
40 0.000971
53 0.0
67 0.002001
72 0.001034
79 0.000997
83 0.001997
83 0.002992
88 0.005026
103 0.003989
114 0.003967
133 0.003975
150 0.005983
157 0.003968
168 0.00703
174 0.007979
182 0.007025
192 0.007902
197 0.006991
209 0.005954
218 0.002004
224 0.005017
232 0.001952
240 0.001996
185 0.001997
130 0.00203
82 0.002055
77 0.002996
90 0.002992
95 0.0
96 0.0
102 0.000989
102 0.000972
101 0.001955
104 0.002006
110 0.003007
120 0.003021
128 0.00399
136 0.002995
142 0.004023
147 0.006012
150 0.006981
153 0.00699
159 0.001996
162 0.003994
165 0.003035
169 0.002994
172 0.001997
176 0.002982
180 0.0
161 0.00201
95 0.002989
72 0.002026
76 0.002026
89 0.002986
93 0.002993
97 0.002998
99 0.002961
97 0.001992
95 0.00302
100 0.004023
109 0.003022
117 0.004016
125 0.00399
132 0.003042
136 0.00598
139 0.005987
143 0.005962
147 0.004021
150 0.006016
154 0.002996
159 0.006989
165 0.001943
130 0.002992
94 0.002989
69 0.0
78 0.00199
84 0.002984
91 0.003014
99 0.002994
99 0.003042
95 0.003967
95 0.002999
100 0.002034
109 0.001996
118 0.001989
125 0.001995
131 0.002
135 0.002959
138 0.002962
141 0.002011
144 0.000997
150 0.000997
136 0.0
81 0.002029
61 0.002996
67 0.002969
78 0.004996
81 0.004938
85 0.00504
91 0.004985
90 0.005981
90 0.005015
97 0.005986
104 0.004986
115 0.006027
122 0.007976
125 0.006977
131 0.004979
134 0.0
137 0.00597
142 0.0
146 0.001049
149 0.001996
153 0.002028
104 0.002079
71 0.00298
55 0.002002
60 0.003043
67 0.002959
67 0.003
73 0.003001
66 0.000997
69 0.002984
72 0.0
83 0.002001
91 0.001994
105 0.0
114 0.002029
121 0.0
127 0.0
133 0.000998
139 0.002015
146 0.004014
151 0.004022
159 0.004995
167 0.003989
171 0.004028
174 0.004003
180 0.003988
184 0.005035
126 0.002989
53 0.001947
42 0.002999
54 0.001971
59 0.002963
59 0.000992
67 0.004995
75 0.00199
77 0.006021
82 0.004022
88 0.004027
103 0.00301
110 0.004029
123 0.002009
132 0.002009
138 0.001991
144 0.001007
149 0.00308
154 0.002994
165 0.00296
169 0.002995
177 0.002966
183 0.000969
187 0.000995
192 0.000965
197 0.001967
201 0.003944
154 0.005003
89 0.004986
64 0.004984
70 0.004022
81 0.005984
81 0.006017
87 0.007984
93 0.001999
93 0.005991
94 0.002986
103 0.002985
108 0.001996
121 0.000948
133 0.000954
139 0.000998
146 0.003996
151 0.004005
154 0.00399
161 0.003992
168 0.004998
173 0.004955
179 0.004014
183 0.006982
187 0.001998
193 0.006981
141 0.006984
93 0.006023
64 0.005013
70 0.004989
84 0.00398
87 0.003026
95 0.002989
98 0.002938
94 0.003008
93 0.002965
104 0.002992
118 0.002991
124 0.001963
136 0.002971
142 0.001993
148 0.002984
151 0.002989
154 0.002985
161 0.000976
167 0.002027
171 0.001986
178 0.00395
173 0.005022
130 0.004976
64 0.00599
55 0.005969
66 0.005993
73 0.003962
75 0.006013
82 0.004996
86 0.003043
85 0.003009
89 0.002958
100 0.002951
109 0.003021
122 0.002996
129 0.0
137 0.000951
143 0.003008
147 0.002999
154 0.003993
161 0.002999
166 0.002958
174 0.002968
180 0.002989
184 0.0
190 0.0
156 0.0
96 0.0
70 0.0
75 0.000969
85 0.000998
84 0.002006
88 0.002997
97 0.00398
98 0.004942
100 0.004942
110 0.003995
119 0.004957
131 0.004985
141 0.003996
146 0.004981
151 0.003964
158 0.007953
162 0.002985
167 0.007941
174 0.003959
182 0.007962
190 0.007993
194 0.007986
198 0.007976
201 0.007946
206 0.006972
158 0.001981
114 0.005998
86 0.0
95 0.000943
100 0.0
97 0.001964
103 0.000997
106 0.001998
106 0.002006
107 0.00299
116 0.003986
125 0.002994
133 0.002993
142 0.004
150 0.0
153 0.000997
157 0.002993
163 0.003989
167 0.004986
174 0.004994
180 0.003022
186 0.006952
191 0.001997
195 0.001993
199 0.003025
204 0.002992
179 0.002015
133 0.001998
87 0.001965
91 0.003037
97 0.00196
99 0.003036
102 0.002994
105 0.002995
103 0.0
102 0.0
107 0.0
116 0.0
126 0.0
135 0.000991
143 0.000996
147 0.00299
152 0.004023
155 0.00399
161 0.003988
168 0.002989
172 0.002991
178 0.003981
185 0.003033
189 0.003035
178 0.00397
107 0.002997
81 0.001994
80 0.001008
92 0.00502
96 0.000998
99 0.004968
105 0.001993
102 0.002997
99 0.002993
101 0.002994
112 0.00297
126 0.002933
134 0.003026
141 0.003006
146 0.002964
151 0.003044
156 0.001994
160 0.002005
164 0.002004
170 0.003046
176 0.002959
179 0.002992
152 0.002989
83 0.0
66 0.001995
73 0.00299
83 0.001984
86 0.003009
91 0.002984
95 0.001963
95 0.005018
97 0.005999
107 0.006994
117 0.002998
127 0.00782
138 0.003021
144 0.00699
151 0.002939
159 0.001966
163 0.002011
170 0.003029
177 0.002971
183 0.0
190 0.001996
196 0.003014
201 0.002036
183 0.001994
108 0.0
85 0.003029
87 0.0
95 0.0
98 0.001971
100 0.001964
107 0.002991
110 0.002019
111 0.00401
115 0.002997
126 0.002994
135 0.003001
147 0.003989
157 0.003035
161 0.00399
167 0.004994
174 0.00499
179 0.005038
185 0.004956
189 0.004013
197 0.002987
203 0.003973
207 0.002998
212 0.002
217 0.004995
191 0.001978
127 0.003002
92 0.002962
93 0.002971
104 0.0
105 0.000973
108 0.0
112 0.001995
112 0.002986
113 0.004014
117 0.005016
129 0.004986
137 0.004986
148 0.004987
156 0.004976
159 0.003959
165 0.003025
170 0.002967
174 0.002993
180 0.003057
185 0.003992
191 0.002973
196 0.005959
200 0.00202
205 0.00502
186 0.002979
136 0.003021
87 0.001997
76 0.002956
87 0.001999
94 0.001974
94 0.002974
100 0.003003
101 0.000973
99 0.0
101 0.001988
112 0.001972
120 0.0
133 0.000971
140 0.001995
149 0.001994
155 0.001957
158 0.00302
163 0.001977
168 0.00394
174 0.003928
179 0.004021
185 0.003991
191 0.004991
140 0.006981
84 0.001997
68 0.008009
77 0.00307
87 0.007013
95 0.002993
105 0.002038
105 0.002959
99 0.002968
97 0.002981
104 0.002993
119 0.003004
127 0.002962
139 0.002978
145 0.005991
150 0.000967
153 0.00398
157 0.001962
160 0.003955
168 0.003987
163 0.003026
95 0.002013
56 0.001977
58 0.002987
72 0.000957
82 0.002008
87 0.0
95 0.001983
94 0.0
91 0.001012
96 0.0
105 0.000997
119 0.000997
133 0.00299
140 0.003033
147 0.002929
153 0.004957
156 0.0049
159 0.00495
163 0.004992
171 0.004972
160 0.004979
112 0.003961
51 0.004985
45 0.005989
58 0.006019
65 0.001995
67 0.006981
76 0.003001
82 0.000967
82 0.0
88 0.003994
99 0.00299
108 0.002017
122 0.001947
131 0.002997
137 0.001959
144 0.001984
149 0.00299
156 0.002989
163 0.00301
167 0.002951
176 0.003
180 0.002986
186 0.002971
193 0.002983
169 0.00398
96 0.000964
51 0.001011
52 0.0
66 0.000821
71 0.002001
74 0.001973
83 0.003021
84 0.002944
85 0.003991
92 0.003957
106 0.001995
115 0.004025
129 0.002994
136 0.002991
145 0.003024
150 0.00699
155 0.002949
161 0.007953
167 0.003022
175 0.006015
183 0.004033
190 0.002025
195 0.004025
202 0.002991
200 0.002993
123 0.003002
77 0.003027
70 0.000997
83 0.001992
91 0.004011
92 0.00399
101 0.004021
103 0.004028
102 0.003986
106 0.002962
118 0.001982
127 0.00199
140 0.002959
148 0.007974
155 0.001996
160 0.006977
165 0.002007
171 0.004984
178 0.004971
181 0.005955
189 0.004964
195 0.0
199 0.00504
202 0.001992
167 0.001964
95 0.001033
80 0.00296
84 0.002008
97 0.002995
100 0.003
105 0.002997
108 0.0
103 0.000973
103 0.0
112 0.000996
120 0.000995
133 0.000973
141 0.000966
147 0.002036
151 0.002995
155 0.004005
157 0.004021
163 0.002988
166 0.004014
174 0.003983
177 0.003982
144 0.003988
78 0.003026
63 0.004019
70 0.003987
83 0.004956
87 0.003988
95 0.004023
95 0.003987
91 0.003987
91 0.002997
100 0.007944
109 0.002986
119 0.005981
129 0.004986
134 0.004995
138 0.005039
141 0.004989
145 0.003945
151 0.002031
148 0.002958
96 0.001994
46 0.002983
44 0.002986
57 0.002969
59 0.002985
62 0.002985
70 0.002977
70 0.00301
71 0.002988
77 0.003979
84 0.002981
98 0.002074
106 0.0
117 0.004002
125 0.000997
129 0.001005
135 0.000998
139 0.000998
144 0.002028
150 0.002993
157 0.002993
133 0.004986
57 0.004979
36 0.004986
39 0.00405
47 0.003022
47 0.002967
53 0.002987
63 0.003
65 0.002992
67 0.002944
76 0.004051
86 0.000961
99 0.00399
111 0.004008
118 0.004004
126 0.003987
131 0.004022
139 0.004027
145 0.002992
152 0.003025
160 0.001996
165 0.003989
171 0.002991
180 0.002952
180 0.000952
113 0.0
61 0.0
58 0.0
70 0.002968
71 0.002009
73 0.001964
84 0.002998
87 0.003051
88 0.002974
96 0.00304
103 0.003001
117 0.003021
126 0.004015
135 0.004963
142 0.003991
147 0.003996
152 0.006954
158 0.006017
162 0.005983
170 0.006949
177 0.004034
180 0.007978
187 0.00404
193 0.007014
169 0.003049
92 0.003973
71 0.00303
74 0.003025
83 0.002918
84 0.0
90 0.001
95 0.004022
95 0.003994
96 0.006984
102 0.001998
113 0.00611
124 0.0
135 0.007013
144 0.005986
148 0.006002
154 0.005988
159 0.000966
163 0.005996
170 0.001995
175 0.005985
182 0.0
190 0.0
194 0.000994
146 0.0
101 0.001995
73 0.002985
83 0.003003
93 0.003022
97 0.002995
106 0.00297
108 0.003998
104 0.003
103 0.002988
111 0.001991
122 0.002959
134 0.002937
143 0.003019
152 0.004986
154 0.004991
159 0.0029
164 0.004986
166 0.0
172 0.002992
179 0.002992
185 0.002997
160 0.002993
87 0.000944
67 0.001956
73 0.002962
85 0.00399
87 0.00399
95 0.00295
100 0.002967
99 0.002991
100 0.001961
108 0.0
118 0.0
130 0.000997
140 0.001995
147 0.003962
155 0.003966
158 0.003741
164 0.005958
169 0.00399
175 0.007014
181 0.004985
187 0.002959
192 0.002992
143 0.002949
74 0.002968
61 0.0
70 0.002959
76 0.003025
79 0.003004
86 0.006981
92 0.003992
92 0.004986
95 0.006041
101 0.00502
115 0.004948
124 0.004956
137 0.004989
146 0.001963
151 0.005961
157 0.001992
160 0.004983
168 0.001989
174 0.002975
179 0.00294
186 0.002994
194 0.00301
196 0.0
128 0.0
68 0.0
62 0.0
76 0.000966
81 0.003998
84 0.004982
92 0.005013
96 0.00602
96 0.006038
100 0.006993
107 0.006014
121 0.006016
133 0.004946
143 0.006014
150 0.002982
156 0.006978
161 0.003014
167 0.003988
171 0.003002
179 0.003951
186 0.003006
190 0.003957
198 0.003987
181 0.003001
100 0.002994
69 0.005017
72 0.003018
84 0.003995
90 0.002987
94 0.002948
103 0.00399
102 0.000966
103 0.002959
108 0.000998
122 0.001967
132 0.001991
144 0.001867
151 0.001998
158 0.003991
163 0.00399
167 0.004956
171 0.002988
181 0.00399
160 0.002988
114 0.002981
68 0.000998
72 0.004984
82 0.002966
91 0.003015
97 0.002973
106 0.003045
108 0.002992
107 0.002949
114 0.004001
124 0.002991
136 0.002984
148 0.0
159 0.000996
163 0.000975
168 0.002015
172 0.002996
180 0.00303
143 0.00399
99 0.003983
70 0.003024
84 0.003931
93 0.003995
100 0.003006
112 0.006014
115 0.002955
112 0.006009
112 0.003949
119 0.006983
133 0.006979
142 0.007977
155 0.006981
164 0.000951
167 0.004981
172 0.002025
180 0.002989
167 0.002989
