194 0.01097
197 0.004987
201 0.005018
209 0.000997
211 0.001996
192 0.002027
156 0.003989
117 0.002007
116 0.004988
120 0.00399
120 0.00298
116 0.000987
114 0.001994
119 0.005022
123 0.004941
122 0.00196
122 0.001995
124 0.000998
129 0.004941
138 0.001996
145 0.005987
151 0.006061
159 0.001993
163 0.002019
168 0.001991
171 0.004987
175 0.005028
180 0.000997
184 0.000997
188 0.000997
192 0.004988
199 0.001963
203 0.004987
207 0.004953
204 0.001017
173 0.002018
136 0.002007
118 0.005974
115 0.005035
118 0.002032
119 0.002012
116 0.002011
112 0.004987
118 0.002001
119 0.004987
117 0.004987
116 0.002992
119 0.002992
125 0.001995
132 0.005984
139 0.005983
147 0.001991
153 0.001995
157 0.000998
162 0.005983
169 0.002993
173 0.004986
177 0.006002
186 0.002968
191 0.002992
185 0.001035
157 0.002044
128 0.00596
116 0.005982
121 0.003013
127 0.003038
129 0.001995
130 0.001995
137 0.002993
142 0.006042
142 0.00698
141 0.002004
144 0.001995
149 0.002993
154 0.006003
161 0.006036
170 0.002992
175 0.002992
181 0.0
188 0.002992
192 0.002991
196 0.006982
199 0.006975
204 0.002967
208 0.00304
240 0.002948
246 0.00713
244 0.007003
194 0.002972
162 0.002968
151 0.002996
161 0.00399
168 0.003958
168 0.007013
165 0.00699
173 0.003969
176 0.003988
174 0.002947
172 0.006995
173 0.006951
177 0.003017
184 0.003011
192 0.003003
202 0.003024
206 0.004022
211 0.006982
215 0.006982
220 0.004042
224 0.004042
228 0.004005
233 0.006977
236 0.007029
244 0.004042
251 0.002995
250 0.003958
197 0.004033
167 0.003992
160 0.00798
164 0.00798
172 0.003989
174 0.00399
171 0.004025
175 0.00698
178 0.006949
177 0.002991
174 0.004961
175 0.002992
181 0.004021
186 0.00396
193 0.00798
201 0.007983
206 0.002993
211 0.003989
214 0.003938
217 0.008004
220 0.007053
225 0.00404
229 0.003989
232 0.004021
242 0.004987
248 0.005001
249 0.007979
173 0.007979
149 0.004987
143 0.004985
143 0.005006
146 0.005008
148 0.007979
146 0.007945
145 0.003993
147 0.003989
147 0.005001
146 0.005032
145 0.004988
146 0.007932
148 0.007978
152 0.00499
155 0.004996
157 0.00495
160 0.007943
161 0.007943
163 0.004024
164 0.003989
167 0.005019
169 0.005017
171 0.004977
173 0.006965
175 0.007979
178 0.00497
180 0.005023
175 0.005
149 0.007017
134 0.007978
131 0.003998
132 0.005956
134 0.005985
131 0.005948
129 0.005952
130 0.007011
130 0.007026
128 0.004968
125 0.004989
125 0.004993
126 0.006981
129 0.006929
132 0.005981
133 0.004992
137 0.005953
138 0.005999
139 0.005985
141 0.006997
142 0.006984
144 0.005957
146 0.00599
148 0.006031
151 0.007008
153 0.006943
156 0.004986
158 0.004956
144 0.005958
130 0.005948
113 0.005985
105 0.005981
106 0.006927
107 0.005985
92 0.005985
87 0.006006
86 0.00698
88 0.007022
84 0.006001
80 0.005984
79 0.005985
82 0.006028
85 0.005929
90 0.00602
94 0.006021
100 0.005958
103 0.00601
106 0.005917
110 0.006982
114 0.007021
116 0.006981
123 0.005975
129 0.006033
134 0.005984
140 0.005984
149 0.00599
154 0.005986
150 0.005984
109 0.005916
86 0.005993
61 0.005985
57 0.005987
59 0.004986
59 0.005955
52 0.006035
52 0.005946
54 0.006019
51 0.006018
47 0.005985
45 0.006019
48 0.005952
52 0.004954
58 0.005001
62 0.006983
69 0.004947
76 0.005984
83 0.005954
88 0.005944
91 0.005929
96 0.005943
100 0.005969
106 0.005984
116 0.004963
120 0.004955
111 0.004976
83 0.004987
56 0.004987
40 0.004987
43 0.004988
48 0.004944
48 0.005974
50 0.005986
55 0.005019
56 0.005986
52 0.00598
50 0.005979
52 0.00598
58 0.005031
64 0.005021
74 0.005021
84 0.004996
93 0.004999
97 0.004989
100 0.004987
104 0.004968
111 0.004019
118 0.004992
120 0.003983
105 0.003989
78 0.004022
57 0.003997
49 0.004987
53 0.004977
56 0.005935
57 0.004027
61 0.004951
66 0.004987
64 0.003989
57 0.003982
57 0.003991
61 0.004038
67 0.00399
75 0.003989
87 0.004022
97 0.003989
104 0.004946
108 0.003988
114 0.004987
120 0.004015
123 0.004018
117 0.003988
80 0.004054
53 0.00399
41 0.003938
41 0.003973
45 0.003989
47 0.004016
49 0.004015
57 0.004006
58 0.003989
56 0.004021
57 0.004021
59 0.002992
69 0.003962
78 0.004028
86 0.003991
96 0.003989
102 0.003989
112 0.004038
117 0.002992
123 0.004033
129 0.003989
132 0.002994
140 0.002999
147 0.002992
155 0.002935
161 0.003025
168 0.002992
174 0.002993
178 0.004018
187 0.003984
192 0.004017
195 0.002871
167 0.00399
123 0.002964
90 0.003028
79 0.002993
83 0.002994
87 0.002994
85 0.003006
80 0.002992
80 0.003028
89 0.003019
90 0.00302
90 0.003042
93 0.003942
99 0.002992
107 0.002992
117 0.002966
127 0.00295
134 0.002992
141 0.003023
147 0.003024
152 0.002992
161 0.002017
167 0.002036
176 0.002993
181 0.001968
186 0.002003
191 0.002993
196 0.002
203 0.002992
208 0.002992
211 0.002992
215 0.002972
221 0.002993
224 0.002978
197 0.002025
151 0.002007
134 0.001999
135 0.001976
141 0.001995
145 0.001995
143 0.002047
140 0.002028
144 0.002019
147 0.00299
149 0.003023
146 0.003024
149 0.001995
152 0.00203
160 0.001995
167 0.002028
173 0.001992
178 0.001975
184 0.001995
190 0.002012
193 0.001995
198 0.001969
203 0.001995
210 0.000985
214 0.001002
218 0.000998
224 0.002037
228 0.002032
231 0.001994
235 0.001995
237 0.001995
206 0.002013
173 0.002043
154 0.00198
151 0.001993
160 0.000998
161 0.001059
157 0.001031
156 0.000999
158 0.000997
159 0.000998
156 0.001995
155 0.002018
155 0.001995
159 0.001994
164 0.001939
170 0.002025
177 0.000995
180 0.001
184 0.000999
187 0.000998
189 0.000998
192 0.000997
195 0.0
199 0.000998
202 0.000995
206 0.000997
209 0.002051
212 0.001995
218 0.001006
211 0.001026
179 0.000997
140 0.001008
131 0.001001
134 0.000997
137 0.000998
138 0.001
133 0.000979
130 0.000999
131 0.000997
131 0.0
125 0.0
123 0.0
126 0.000953
131 0.000997
136 0.000999
141 0.000997
145 0.001018
147 0.000998
151 0.000998
154 0.000997
155 0.000997
157 0.0
163 0.0
167 0.000997
170 0.0
160 0.000997
130 0.0
101 0.000998
86 0.000984
84 0.000998
88 0.0
86 0.0
81 0.0
82 0.0
84 0.0
81 0.0
77 0.0
75 0.0
78 0.0
81 0.0
86 0.0
91 0.0
97 0.000997
102 0.0
105 0.0
107 0.0
111 0.0
115 0.0
120 0.0
125 0.000998
118 0.0
89 0.0
59 0.000996
44 0.000998
41 0.000997
44 0.000998
44 0.000999
39 0.000997
41 0.001011
42 0.0
40 0.0
37 0.0
36 0.0
40 0.0
47 0.00103
51 0.0
57 0.001028
66 0.000997
70 0.000998
74 0.000998
81 0.000997
86 0.000998
91 0.002001
96 0.000997
102 0.000998
107 0.001031
111 0.0
117 0.000988
122 0.000998
124 0.000998
100 0.001065
64 0.001006
34 0.001962
36 0.001004
40 0.001
40 0.000998
36 0.001013
38 0.000997
43 0.002007
43 0.001995
43 0.002008
43 0.001002
47 0.001029
54 0.000998
65 0.001055
72 0.001051
78 0.000994
83 0.000985
91 0.000998
94 0.002024
100 0.001972
104 0.001981
111 0.001978
116 0.001995
121 0.002044
128 0.002027
135 0.002021
140 0.001061
144 0.001989
150 0.001995
156 0.002051
140 0.002028
107 0.002002
72 0.001978
66 0.001995
69 0.001995
73 0.001991
71 0.001996
66 0.002034
71 0.001995
74 0.002012
72 0.001993
70 0.001995
72 0.002049
77 0.001995
85 0.001963
90 0.001995
96 0.001996
104 0.002053
109 0.002043
116 0.002037
119 0.002011
126 0.001001
131 0.001994
136 0.001057
141 0.003042
147 0.002964
155 0.002027
160 0.001976
163 0.001995
150 0.00199
118 0.001993
82 0.002027
82 0.001994
86 0.00203
88 0.001971
88 0.002007
92 0.002992
95 0.003044
94 0.001995
91 0.001991
89 0.001976
92 0.003041
97 0.003042
109 0.002961
116 0.001995
122 0.001955
128 0.001995
131 0.002992
136 0.002992
140 0.003088
143 0.002954
150 0.002021
156 0.001996
160 0.002988
158 0.002978
114 0.003986
93 0.002992
85 0.001987
89 0.001995
92 0.00197
91 0.002991
92 0.002984
99 0.001995
100 0.001978
98 0.002022
98 0.003
101 0.002992
111 0.003022
119 0.004024
129 0.000992
135 0.000976
141 0.001947
144 0.004038
149 0.003991
155 0.001959
158 0.002039
165 0.002001
170 0.003057
175 0.003027
183 0.002992
187 0.004002
192 0.000973
196 0.000997
200 0.001001
202 0.00099
180 0.003987
143 0.004016
109 0.000956
106 0.001002
111 0.00098
112 0.003985
105 0.000977
102 0.003984
106 0.00399
111 0.000977
110 0.002036
110 0.000996
113 0.003991
117 0.00399
126 0.000969
133 0.0
138 0.001001
143 0.003985
150 0.0
155 0.004984
159 0.005027
164 0.0
168 0.0
173 0.0
178 0.004039
183 0.003998
188 0.000997
193 0.0
196 0.000991
200 0.004985
205 0.000939
207 0.004957
211 0.004984
216 0.0
207 0.001021
172 0.001006
138 0.00502
118 0.00402
118 0.001012
122 0.002986
121 0.0
115 0.005002
111 0.0
116 0.004996
117 0.004993
113 0.0
114 0.0
117 0.0
121 0.004987
127 0.004986
136 0.0
142 0.001029
147 0.0
152 0.005045
159 0.0
163 0.004984
166 0.005009
172 0.0
177 0.0
180 0.0
185 0.004982
189 0.004979
194 0.001012
198 0.001002
201 0.001002
204 0.005981
210 0.001049
214 0.005004
205 0.004985
157 0.00196
124 0.001038
107 0.0
105 0.005988
109 0.006021
108 0.00101
102 0.0
98 0.0
99 0.005977
100 0.000997
96 0.005983
95 0.006005
98 0.0
103 0.00101
110 0.001005
117 0.001009
122 0.005988
128 0.005986
135 0.00099
138 0.001
142 0.001002
149 0.0
154 0.000965
158 0.005983
164 0.005994
171 0.0
175 0.001001
179 0.000997
184 0.006981
187 0.005955
193 0.001011
197 0.000996
190 0.002001
127 0.001002
95 0.001015
84 0.005979
83 0.005992
87 0.000998
85 0.002002
80 0.001997
77 0.006984
80 0.00698
79 0.001997
74 0.002001
74 0.001999
78 0.002016
85 0.002005
91 0.005956
97 0.006981
107 0.001004
112 0.001996
116 0.001984
120 0.006975
125 0.006994
131 0.002002
136 0.002018
142 0.002011
151 0.001964
156 0.003003
160 0.007945
165 0.00793
171 0.002999
175 0.003016
181 0.003013
184 0.006964
170 0.006993
115 0.00197
79 0.001985
64 0.002007
67 0.002023
69 0.001986
65 0.006984
61 0.006984
62 0.003004
63 0.003001
61 0.002992
59 0.007011
59 0.006966
64 0.002985
72 0.001994
80 0.002987
91 0.001973
97 0.003968
103 0.007948
111 0.007969
114 0.002044
119 0.000974
125 0.001971
129 0.007962
135 0.007965
142 0.002045
147 0.002992
151 0.002988
160 0.002047
166 0.002996
171 0.003928
171 0.007951
140 0.007941
83 0.002993
57 0.002992
49 0.002991
54 0.006985
55 0.006948
50 0.002967
46 0.00299
51 0.00393
52 0.003949
51 0.002991
50 0.007978
55 0.007017
63 0.002961
72 0.00302
78 0.00399
87 0.007948
94 0.007942
100 0.002995
105 0.002998
113 0.00297
118 0.002994
123 0.004017
130 0.007012
137 0.006983
142 0.004002
147 0.003993
152 0.003994
160 0.007013
165 0.007958
168 0.003005
145 0.003003
72 0.002992
47 0.003999
42 0.003019
47 0.006944
47 0.007025
41 0.003989
39 0.003997
43 0.003995
45 0.006982
45 0.006982
44 0.004
48 0.004969
60 0.003989
68 0.004987
76 0.004996
86 0.007004
92 0.00703
97 0.003973
103 0.003942
107 0.00395
112 0.00701
117 0.006986
122 0.002989
128 0.005049
136 0.004995
142 0.004992
148 0.004995
157 0.006946
160 0.006959
145 0.004996
105 0.003976
63 0.004001
40 0.007007
44 0.005948
49 0.004988
51 0.004986
49 0.004999
56 0.004989
58 0.004983
54 0.006033
53 0.007017
55 0.004015
61 0.003982
69 0.004994
83 0.006983
91 0.006983
99 0.006974
108 0.00694
112 0.006016
115 0.004993
119 0.005006
123 0.005025
131 0.006013
138 0.006016
143 0.005013
142 0.005001
100 0.005962
58 0.005979
34 0.005949
34 0.006
41 0.005987
44 0.004981
45 0.002999
52 0.004976
61 0.006983
60 0.005986
56 0.004979
59 0.004988
63 0.004998
74 0.006019
85 0.006038
100 0.005986
108 0.005022
112 0.005955
116 0.005992
119 0.005992
124 0.006008
129 0.005983
137 0.004949
143 0.004954
141 0.00399
95 0.004987
53 0.004986
26 0.004961
29 0.004956
34 0.004957
32 0.004968
33 0.004965
43 0.005046
48 0.005999
49 0.00498
49 0.00502
53 0.004974
61 0.004987
71 0.004987
88 0.004987
95 0.004979
105 0.004987
112 0.005003
116 0.004955
121 0.005017
126 0.004998
133 0.00498
141 0.003991
149 0.003983
157 0.004987
164 0.004987
174 0.004987
180 0.004962
189 0.004983
195 0.004964
193 0.004973
155 0.005033
99 0.004988
51 0.004999
46 0.003986
50 0.003979
51 0.003986
46 0.004021
41 0.003966
50 0.003989
61 0.003996
64 0.004974
67 0.005013
72 0.004991
82 0.00502
96 0.004948
108 0.003961
118 0.00399
127 0.00398
134 0.003942
143 0.003982
149 0.003989
155 0.003941
164 0.003984
170 0.003961
179 0.004
186 0.003031
193 0.004015
203 0.003996
209 0.003962
214 0.003994
220 0.003959
121 0.003984
238 0.003989
241 0.004019
199 0.004027
148 0.003986
113 0.003018
104 0.003022
107 0.003027
111 0.00299
105 0.003043
100 0.002951
103 0.00303
116 0.002992
118 0.004048
118 0.003989
123 0.003978
130 0.003975
140 0.003976
148 0.003989
156 0.00299
166 0.002992
172 0.002982
176 0.002968
181 0.002984
189 0.003001
194 0.002992
199 0.003993
207 0.002025
213 0.002992
218 0.003029
224 0.003017
229 0.003025
233 0.003018
239 0.003025
185 0.003011
187 0.003018
180 0.002995
157 0.002992
135 0.003022
123 0.002991
123 0.001992
126 0.002025
125 0.001994
123 0.002029
120 0.002995
123 0.003033
125 0.003038
125 0.003055
124 0.002992
127 0.002992
130 0.003022
136 0.002997
139 0.002029
142 0.001988
146 0.002984
148 0.001988
150 0.002022
152 0.001938
154 0.002028
156 0.001955
160 0.002973
163 0.002987
165 0.002992
167 0.002992
170 0.001976
172 0.001997
175 0.001983
176 0.001995
175 0.001961
149 0.001989
127 0.002035
115 0.002027
113 0.001064
115 0.001984
114 0.000999
110 0.000987
108 0.002006
109 0.001996
110 0.002013
108 0.002002
106 0.001964
108 0.001949
111 0.002034
114 0.00099
121 0.002026
124 0.001963
127 0.001005
129 0.000997
132 0.00101
134 0.001031
136 0.001057
138 0.000997
141 0.001996
144 0.001995
146 0.002006
149 0.001029
171 0.001027
176 0.002026
175 0.000999
149 0.00099
96 0.001013
71 0.000998
64 0.000998
67 0.000997
69 0.000992
66 0.001031
62 0.001029
63 0.001
65 0.000998
63 0.001995
62 0.000999
64 0.000998
71 0.000998
79 0.000997
86 0.000954
93 0.000997
98 0.000998
104 0.000995
108 0.001033
112 0.0
118 0.0
121 0.0
127 0.001005
133 0.000997
139 0.000998
125 0.001008
91 0.000995
59 0.000996
45 0.000997
48 0.0
53 0.0
53 0.0
52 0.0
59 0.0
64 0.0
64 0.0
65 0.0
69 0.0
75 0.0
83 0.000996
92 0.000997
102 0.000998
108 0.0
114 0.0
121 0.0
126 0.0
132 0.0
138 0.0
140 0.0
113 0.0
82 0.001045
64 0.0
62 0.0
67 0.0
72 0.001009
71 0.0
77 0.0
84 0.0
85 0.0
84 0.0
85 0.0
92 0.0
98 0.000997
105 0.0
112 0.0
117 0.0
124 0.0
129 0.000999
135 0.000997
138 0.001058
141 0.001028
146 0.0
151 0.001028
160 0.000988
165 0.000951
150 0.001008
113 0.000998
81 0.000997
70 0.000998
73 0.000997
77 0.000998
74 0.00097
75 0.000998
81 0.000998
85 0.000997
84 0.0
84 0.00103
87 0.001052
93 0.001031
101 0.001004
112 0.000997
119 0.00105
129 0.000998
134 0.000998
138 0.000998
142 0.001016
146 0.000997
151 0.000973
156 0.001002
160 0.001005
165 0.000998
171 0.001996
178 0.000998
172 0.000965
113 0.001049
87 0.000933
79 0.00103
82 0.000997
87 0.001997
89 0.001979
89 0.002027
94 0.001002
96 0.002008
94 0.002039
90 0.001997
93 0.002023
104 0.001949
112 0.001996
119 0.002051
127 0.00104
132 0.000995
137 0.000995
142 0.001027
144 0.00203
147 0.001999
153 0.002039
157 0.001996
163 0.002045
143 0.002016
98 0.001998
76 0.002003
72 0.001995
77 0.001996
81 0.002958
81 0.002998
84 0.002043
91 0.001995
94 0.002033
92 0.001997
92 0.002009
96 0.001996
107 0.001995
115 0.002055
125 0.00202
132 0.001991
139 0.002993
146 0.003041
150 0.003047
154 0.002961
158 0.002994
164 0.002023
167 0.002995
174 0.001996
183 0.002023
187 0.002026
158 0.001995
113 0.002001
83 0.001979
72 0.003042
74 0.003003
77 0.002044
75 0.002992
70 0.002989
74 0.002995
83 0.00299
85 0.003023
86 0.001995
91 0.001039
96 0.002992
107 0.002026
116 0.003017
124 0.003039
135 0.001959
141 0.00202
146 0.002979
151 0.003037
159 0.002028
166 0.002992
172 0.003027
179 0.001013
186 0.002001
191 0.002053
196 0.003048
200 0.002997
209 0.001996
213 0.00202
209 0.002992
162 0.003011
113 0.002991
100 0.004013
103 0.00396
108 0.001008
105 0.002
101 0.001976
106 0.004022
112 0.003992
116 0.001005
116 0.001991
118 0.001988
123 0.004
136 0.000999
145 0.001015
152 0.004055
158 0.003992
166 0.000985
170 0.000995
174 0.002005
178 0.003997
183 0.004014
189 0.0
194 0.000995
199 0.000963
207 0.000991
211 0.001016
214 0.004006
219 0.004014
226 0.001009
224 0.000997
197 0.000981
153 0.003993
121 0.004951
109 0.000994
113 0.0
115 0.000997
111 0.0
110 0.0
115 0.004988
118 0.004988
117 0.0
116 0.000997
119 0.0
124 0.003014
132 0.003989
142 0.000965
148 0.0
155 0.0
162 0.000976
166 0.0
170 0.004988
174 0.004988
179 0.001031
183 0.0
188 0.0
192 0.004
196 0.004987
203 0.0
207 0.0
212 0.0
209 0.0
174 0.0
130 0.004974
102 0.005003
94 0.0
99 0.0
101 0.000993
99 0.004989
97 0.005986
102 0.0
104 0.0
103 0.0
100 0.0
104 0.000998
111 0.004989
118 0.004987
129 0.0
136 0.001042
143 0.0
147 0.005011
151 0.006023
156 0.001023
159 0.000953
163 0.0
171 0.001991
176 0.0
179 0.00502
184 0.004998
191 0.000984
197 0.000962
199 0.001004
177 0.004985
134 0.005984
95 0.005953
76 0.00103
79 0.000969
85 0.001023
83 0.001008
82 0.001018
87 0.005982
89 0.005994
87 0.001964
86 0.001056
88 0.000998
93 0.006031
100 0.006018
112 0.0
119 0.0
131 0.00104
136 0.001008
140 0.001005
144 0.006003
148 0.005992
153 0.000988
157 0.000997
163 0.002001
167 0.006969
171 0.006981
180 0.002023
186 0.000997
164 0.000985
119 0.002002
81 0.001001
64 0.005997
62 0.005972
68 0.000999
71 0.000993
68 0.001959
70 0.007038
75 0.007009
76 0.002011
73 0.002017
75 0.001996
81 0.001995
90 0.002016
98 0.006967
106 0.005998
116 0.001016
122 0.000993
126 0.001986
131 0.006973
135 0.006991
140 0.001952
145 0.002028
152 0.002001
158 0.002002
163 0.001999
169 0.00697
175 0.006976
162 0.001991
120 0.001009
76 0.002024
54 0.007043
50 0.006963
56 0.002016
59 0.003042
57 0.002006
62 0.002
66 0.002015
66 0.00698
64 0.006987
65 0.001991
70 0.003003
78 0.002995
89 0.007987
94 0.007977
105 0.002952
111 0.002993
119 0.003993
123 0.002994
126 0.002993
131 0.002993
137 0.008022
140 0.007945
146 0.00297
151 0.00292
157 0.002994
165 0.007983
163 0.007979
119 0.003016
63 0.007976
41 0.002037
43 0.001955
50 0.001993
52 0.008003
51 0.007974
57 0.001996
62 0.002994
60 0.002389
56 0.007939
56 0.006966
62 0.003006
75 0.007932
84 0.003985
92 0.002985
100 0.002989
104 0.007979
108 0.007978
113 0.002945
115 0.003003
119 0.002965
128 0.00795
132 0.007979
137 0.003987
100 0.006959
61 0.003993
38 0.002969
33 0.003017
39 0.006959
45 0.008005
45 0.002984
51 0.003041
59 0.00296
63 0.007979
60 0.00698
60 0.003954
70 0.00696
79 0.003979
89 0.003955
99 0.003996
109 0.006985
115 0.006949
120 0.002979
123 0.003018
129 0.004047
134 0.005932
138 0.006946
143 0.003992
152 0.007939
160 0.003997
165 0.003985
159 0.003986
106 0.006954
62 0.007018
40 0.00399
39 0.005017
43 0.003974
42 0.005952
38 0.005984
40 0.004963
54 0.006023
58 0.003965
58 0.004989
60 0.00399
69 0.007029
77 0.007023
87 0.004954
95 0.004988
104 0.005
112 0.00598
118 0.005954
122 0.003035
129 0.005981
135 0.004997
140 0.004997
147 0.003964
153 0.003992
161 0.006948
166 0.006023
171 0.004983
177 0.004972
180 0.005953
188 0.005987
182 0.005984
107 0.00599
67 0.006031
51 0.004983
52 0.003989
54 0.004969
51 0.006015
47 0.005942
49 0.004994
58 0.004996
64 0.005001
64 0.006016
65 0.006015
75 0.00601
84 0.005977
93 0.003979
103 0.004998
108 0.003988
117 0.00499
121 0.004987
127 0.005983
130 0.004967
136 0.004961
141 0.005957
147 0.004955
158 0.00602
164 0.006018
170 0.004964
174 0.004987
178 0.004999
184 0.006019
190 0.005037
197 0.004982
185 0.004987
142 0.005011
92 0.005022
64 0.004039
58 0.005012
63 0.005011
60 0.004021
56 0.004986
61 0.004964
69 0.005002
73 0.004985
73 0.004954
73 0.004986
78 0.004986
87 0.004986
96 0.004976
110 0.004986
117 0.004986
122 0.004989
129 0.00494
133 0.004968
137 0.005004
142 0.003985
150 0.004004
155 0.004984
162 0.00399
168 0.005021
173 0.004984
181 0.005024
186 0.004987
194 0.004977
197 0.005003
184 0.005012
139 0.005017
91 0.004022
65 0.003989
60 0.003955
66 0.004038
68 0.003989
65 0.003974
70 0.003984
76 0.004016
77 0.004022
74 0.005006
74 0.003997
79 0.00398
87 0.004032
96 0.003955
108 0.003975
117 0.003989
122 0.004034
127 0.004008
132 0.003956
136 0.003989
140 0.003981
146 0.003977
152 0.002991
157 0.002992
164 0.004026
171 0.004022
178 0.003975
161 0.003996
116 0.003966
77 0.004015
55 0.003994
60 0.003982
68 0.00398
70 0.00397
76 0.003989
84 0.00302
88 0.002992
84 0.002987
81 0.003008
84 0.00399
91 0.003975
101 0.003993
118 0.003976
129 0.003979
135 0.003999
142 0.00398
147 0.003954
150 0.003033
155 0.003025
160 0.003023
169 0.002981
176 0.002991
182 0.003001
171 0.003035
106 0.002966
81 0.00403
75 0.003025
86 0.003025
93 0.003037
94 0.003015
98 0.003025
107 0.002997
113 0.00294
113 0.002989
112 0.003023
115 0.002979
129 0.002982
140 0.002984
149 0.003025
160 0.001986
167 0.002998
172 0.002944
177 0.002995
182 0.003018
189 0.002993
195 0.002971
200 0.001966
206 0.002992
217 0.002981
223 0.003041
229 0.001995
203 0.002029
158 0.002033
123 0.001002
111 0.002067
113 0.002036
120 0.001024
120 0.000976
115 0.002024
117 0.003022
126 0.003049
129 0.002986
128 0.002024
130 0.001971
137 0.002031
145 0.002035
153 0.002002
160 0.002027
166 0.002023
174 0.001993
177 0.001979
182 0.001983
187 0.001976
192 0.001995
197 0.001995
202 0.002025
209 0.001986
213 0.001989
218 0.001995
222 0.002032
228 0.002044
233 0.001986
214 0.00203
171 0.001997
124 0.002038
122 0.002019
128 0.002028
131 0.001003
128 0.002025
124 0.002055
128 0.001012
134 0.001016
136 0.000996
133 0.000991
135 0.000997
140 0.001985
152 0.002039
159 0.001987
164 0.001996
171 0.002028
177 0.002036
179 0.001
183 0.001029
186 0.001069
191 0.000998
197 0.001046
202 0.002032
207 0.00103
214 0.000996
218 0.000999
221 0.000998
226 0.001996
231 0.000965
234 0.001038
217 0.000974
175 0.000997
142 0.000989
129 0.00104
133 0.00103
139 0.001028
135 0.000997
131 0.000997
135 0.000996
139 0.001996
136 0.000967
135 0.0
136 0.0
138 0.001008
143 0.0
153 0.001053
158 0.00098
163 0.000999
169 0.000997
173 0.000997
175 0.000997
178 0.000997
181 0.0
187 0.0
191 0.0
195 0.0
199 0.0
202 0.000998
207 0.0
211 0.001034
218 0.000978
217 0.0
189 0.0
148 0.0
120 0.0
110 0.000966
113 0.0
114 0.0
112 0.0
105 0.0
105 0.0
108 0.0
103 0.0
100 0.0
100 0.0
103 0.0
110 0.0
117 0.0
122 0.0
127 0.0
132 0.0
135 0.0
138 0.000998
142 0.0
148 0.000978
152 0.000992
156 0.000993
161 0.000994
164 0.000975
169 0.00103
174 0.001005
179 0.001999
184 0.002026
170 0.000998
118 0.0
85 0.002
68 0.000994
72 0.00103
72 0.001048
70 0.002028
65 0.001029
67 0.002027
68 0.001997
63 0.002025
59 0.002023
57 0.001995
63 0.002046
69 0.002029
80 0.000981
87 0.001998
93 0.000992
99 0.000987
102 0.001045
106 0.00101
110 0.001052
114 0.000998
118 0.002027
123 0.000999
130 0.002019
136 0.002015
146 0.002023
149 0.001998
127 0.002017
88 0.002029
57 0.002021
45 0.002026
48 0.002044
52 0.000996
52 0.001047
49 0.001048
54 0.002023
58 0.001999
57 0.000999
57 0.000996
60 0.002002
67 0.002002
75 0.002021
85 0.002042
95 0.00197
102 0.001993
109 0.002032
115 0.002967
119 0.002979
125 0.002023
132 0.00099
140 0.00103
145 0.002024
151 0.002019
157 0.002001
162 0.001995
171 0.002046
176 0.001994
156 0.00296
131 0.001995
84 0.00299
72 0.003045
76 0.002995
78 0.002001
76 0.003011
73 0.003025
76 0.002042
84 0.002019
87 0.002001
86 0.001965
89 0.002021
94 0.001995
102 0.002993
114 0.002992
124 0.001993
133 0.003003
138 0.003045
144 0.002993
150 0.002992
153 0.002988
159 0.002997
164 0.004022
170 0.00298
174 0.00298
179 0.00198
186 0.003033
194 0.001996
195 0.002981
168 0.002992
131 0.002991
101 0.002985
98 0.002039
103 0.003024
103 0.004015
99 0.002999
99 0.001992
104 0.00201
109 0.003963
110 0.001945
112 0.002931
115 0.002931
124 0.002964
133 0.002956
137 0.002971
147 0.003957
152 0.002991
159 0.002947
162 0.001994
165 0.00293
169 0.002992
175 0.002028
181 0.00395
187 0.004987
193 0.00698
181 0.002033
149 0.001996
117 0.001957
101 0.003987
101 0.003955
105 0.001006
103 0.001995
100 0.001994
106 0.001995
112 0.001984
113 0.003989
112 0.003989
114 0.000998
119 0.001995
126 0.000991
133 0.005004
141 0.005023
148 0.000998
153 0.001994
158 0.002
162 0.002006
165 0.001986
169 0.00399
174 0.004987
181 0.000998
174 0.001994
144 0.001993
109 0.00503
91 0.004987
89 0.001025
92 0.001992
92 0.001945
89 0.002017
96 0.000998
100 0.003992
101 0.004024
100 0.001
101 0.001994
107 0.001017
114 0.004996
122 0.005034
131 0.0
138 0.001063
143 0.000988
149 0.000997
153 0.002009
156 0.004987
161 0.00602
166 0.0
170 0.0
175 0.0
179 0.005023
186 0.004989
193 0.0
185 0.0
151 0.0
95 0.0
88 0.000993
91 0.004987
97 0.005983
97 0.0
97 0.0
103 0.0
107 0.005989
107 0.004988
106 0.0
108 0.0
113 0.0
128 0.0
136 0.001032
145 0.005989
151 0.004989
156 0.0
161 0.001035
164 0.000999
166 0.006018
170 0.005985
177 0.000978
182 0.0
188 0.001064
186 0.0
158 0.0
126 0.001028
108 0.006023
107 0.006035
115 0.0
119 0.000997
121 0.0
127 0.006025
133 0.007005
133 0.001995
130 0.001033
131 0.000984
137 0.000974
144 0.001007
152 0.005975
159 0.006044
166 0.001995
171 0.001991
174 0.002005
178 0.006031
179 0.006022
183 0.001995
187 0.001988
195 0.0
201 0.001992
199 0.002042
174 0.006982
136 0.006979
104 0.001983
101 0.000995
106 0.001038
108 0.006046
105 0.00696
106 0.0
111 0.001033
115 0.000994
114 0.000997
115 0.000979
120 0.007015
126 0.006971
137 0.002024
145 0.000999
151 0.001031
156 0.006974
160 0.006982
165 0.001047
168 0.001018
175 0.001004
179 0.001007
183 0.001969
187 0.006979
191 0.006981
197 0.001991
203 0.002056
207 0.000996
199 0.007045
162 0.007051
112 0.002014
96 0.001082
99 0.000988
102 0.002002
99 0.000977
96 0.006959
102 0.007982
109 0.001954
111 0.002987
111 0.001978
113 0.007026
118 0.007012
127 0.002037
136 0.003042
147 0.002012
155 0.002056
159 0.002966
165 0.007946
169 0.007979
175 0.002998
179 0.001986
184 0.001989
190 0.007987
197 0.007976
202 0.001996
208 0.000949
214 0.006992
222 0.002
219 0.001996
188 0.002001
142 0.007946
130 0.007949
126 0.001993
132 0.001989
135 0.001973
132 0.007979
130 0.007978
137 0.002985
141 0.007947
140 0.002003
139 0.002994
143 0.002992
152 0.007928
157 0.008007
164 0.002968
170 0.002979
175 0.001988
178 0.007978
184 0.007962
187 0.003006
192 0.007948
197 0.003
202 0.004002
207 0.004002
212 0.006949
216 0.006965
221 0.002966
225 0.000997
128 0.00194
227 0.008015
208 0.007919
160 0.002038
133 0.007965
136 0.002007
140 0.003002
141 0.002999
136 0.006962
137 0.006953
141 0.002992
141 0.003014
139 0.002982
138 0.006982
140 0.007016
144 0.003956
153 0.007006
159 0.005008
164 0.003962
168 0.003996
172 0.006985
175 0.006982
177 0.003997
180 0.002967
184 0.002992
189 0.006985
192 0.006982
196 0.003967
202 0.006982
207 0.004023
209 0.004023
209 0.003989
173 0.005983
137 0.006941
117 0.003991
113 0.003989
117 0.004026
120 0.006976
117 0.006005
116 0.004956
119 0.007019
116 0.005043
113 0.00403
110 0.003997
113 0.006021
118 0.006017
124 0.00602
130 0.00399
137 0.003991
140 0.002991
145 0.006983
148 0.007023
152 0.006979
155 0.006983
158 0.003939
162 0.003991
166 0.003992
173 0.005987
173 0.005965
152 0.004024
117 0.003989
85 0.004943
80 0.005938
82 0.006979
85 0.004959
82 0.005948
85 0.003975
88 0.00496
88 0.003957
84 0.005935
83 0.005997
85 0.005003
91 0.003999
100 0.005001
106 0.005985
112 0.00502
120 0.005024
124 0.005013
127 0.004958
131 0.004982
134 0.004994
140 0.004015
144 0.005932
149 0.004998
153 0.004987
160 0.004976
162 0.005022
142 0.004986
79 0.004986
58 0.005032
54 0.005036
57 0.004985
57 0.004993
54 0.005019
52 0.004988
58 0.004002
60 0.003986
59 0.003993
58 0.003991
61 0.005951
71 0.004995
80 0.004981
87 0.004951
94 0.004961
103 0.004971
107 0.005044
112 0.005018
117 0.004979
123 0.003967
128 0.004024
134 0.003989
139 0.004039
147 0.004044
152 0.004024
160 0.005019
164 0.003968
158 0.004956
124 0.005033
86 0.004992
60 0.003958
59 0.003999
64 0.003989
66 0.004031
64 0.003842
67 0.00399
73 0.002991
75 0.004014
75 0.003987
77 0.003034
82 0.003026
89 0.004018
98 0.003992
108 0.004009
115 0.004016
122 0.003967
127 0.004021
135 0.003947
138 0.004032
143 0.003991
151 0.004003
156 0.004046
161 0.002992
167 0.003989
171 0.003979
178 0.002999
183 0.002998
188 0.002998
192 0.002993
159 0.003995
119 0.004023
93 0.004017
88 0.003989
93 0.003025
96 0.00304
95 0.003039
93 0.003017
98 0.003987
101 0.002991
100 0.003033
98 0.002977
102 0.003031
108 0.003026
116 0.003018
125 0.003024
131 0.002962
137 0.002992
141 0.00403
145 0.003002
149 0.00304
153 0.002982
156 0.002977
161 0.003023
169 0.00299
173 0.002991
177 0.002967
182 0.003089
187 0.001961
190 0.001963
189 0.001979
166 0.002047
117 0.003043
93 0.003027
90 0.002993
94 0.002994
101 0.003013
101 0.002966
105 0.003027
109 0.002986
106 0.002027
102 0.001995
100 0.00302
102 0.002031
110 0.001963
117 0.001941
124 0.001996
131 0.001999
140 0.002994
142 0.003046
145 0.003027
147 0.002033
151 0.002004
155 0.002048
161 0.001997
165 0.001999
166 0.001982
137 0.001956
103 0.001987
81 0.001976
77 0.002001
81 0.002039
86 0.002029
87 0.001031
93 0.002993
95 0.002012
93 0.001994
88 0.001948
87 0.002008
92 0.002009
99 0.002048
107 0.002049
117 0.001994
123 0.001039
127 0.002047
131 0.002027
133 0.000956
136 0.002005
141 0.001019
146 0.00103
150 0.000998
129 0.001061
92 0.001012
60 0.002003
47 0.002058
51 0.001995
54 0.001982
52 0.002035
53 0.000997
60 0.000996
63 0.000996
63 0.000983
62 0.000998
67 0.000998
73 0.000999
81 0.001005
96 0.001982
104 0.001033
110 0.001032
115 0.002054
121 0.001003
125 0.000999
129 0.000987
134 0.001057
139 0.000997
146 0.000991
153 0.001013
158 0.000998
169 0.0
174 0.00204
166 0.0
126 0.0
71 0.001008
53 0.001034
52 0.001043
57 0.001
60 0.001003
54 0.001034
54 0.000995
62 0.001001
70 0.0
70 0.0
72 0.0
78 0.0
89 0.000967
97 0.0
106 0.0
115 0.0
121 0.0
128 0.000997
134 0.001037
137 0.000997
145 0.0
150 0.001029
156 0.001
162 0.0
168 0.0
175 0.0
180 0.0
184 0.0
188 0.0
193 0.0
201 0.0
193 0.0
124 0.0
87 0.0
73 0.0
74 0.0
78 0.0
77 0.0
72 0.0
73 0.001007
79 0.0
84 0.0
84 0.0
84 0.0
92 0.000982
100 0.0
110 0.0
117 0.0
124 0.000997
132 0.0
136 0.0
140 0.0
144 0.0
149 0.002038
154 0.000982
158 0.000995
168 0.001995
173 0.001024
178 0.002001
184 0.002027
189 0.000998
195 0.002028
186 0.002027
148 0.001005
102 0.002988
75 0.001032
68 0.001036
73 0.000994
76 0.001028
74 0.001991
78 0.00103
83 0.001996
88 0.002027
86 0.002026
86 0.001076
91 0.002031
100 0.002046
109 0.002029
121 0.002027
130 0.002974
141 0.00198
146 0.001989
150 0.002033
154 0.001049
159 0.002072
166 0.00105
173 0.001003
180 0.001048
184 0.002011
169 0.002028
121 0.001048
95 0.001033
92 0.002007
98 0.001996
103 0.001994
103 0.002047
107 0.002048
114 0.001963
119 0.001989
119 0.002047
119 0.00205
121 0.00105
128 0.001983
139 0.001034
150 0.001996
159 0.002021
164 0.002033
170 0.002055
172 0.002248
174 0.002052
179 0.002036
184 0.002047
189 0.002994
195 0.002992
193 0.002993
153 0.003025
113 0.001995
102 0.002023
107 0.001996
112 0.001979
112 0.002031
112 0.002994
118 0.002051
121 0.002047
121 0.002045
118 0.002045
119 0.002032
125 0.002992
137 0.002967
144 0.002994
149 0.003021
155 0.002972
157 0.002025
160 0.002997
164 0.002983
167 0.003023
170 0.002026
174 0.001999
177 0.001987
182 0.002027
191 0.002989
193 0.003018
178 0.00302
128 0.002989
106 0.002992
91 0.003024
92 0.003993
96 0.002995
94 0.002994
90 0.002993
90 0.002994
96 0.002959
93 0.002993
91 0.003036
94 0.002994
101 0.003015
108 0.002978
114 0.003
120 0.003028
126 0.003974
130 0.001981
134 0.002027
137 0.002002
139 0.003048
145 0.001993
149 0.003009
154 0.002992
160 0.001985
164 0.002983
169 0.002938
172 0.002992
176 0.004057
180 0.002022
184 0.002021
187 0.001998
171 0.003034
105 0.003024
80 0.003006
75 0.004018
79 0.004996
80 0.002021
75 0.002041
72 0.000995
75 0.003985
76 0.003991
73 0.000998
71 0.00198
71 0.002005
81 0.001979
88 0.001983
95 0.004027
101 0.004002
107 0.00107
113 0.001994
115 0.002035
118 0.005019
121 0.004989
127 0.00197
131 0.001995
137 0.002052
144 0.001977
150 0.002991
155 0.005027
160 0.003931
164 0.002001
147 0.002045
109 0.001998
78 0.004033
65 0.004988
69 0.000966
75 0.002031
75 0.000962
78 0.001009
83 0.001046
83 0.006017
78 0.004987
75 0.002045
79 0.000948
84 0.001018
92 0.004988
100 0.004041
109 0.000998
115 0.001998
120 0.000996
126 0.000997
129 0.001988
132 0.004992
136 0.004987
142 0.00201
148 0.001995
154 0.00096
159 0.005986
149 0.005948
103 0.000999
76 0.001994
65 0.0
72 0.000994
75 0.0
75 0.005035
77 0.005949
85 0.000986
88 0.001045
86 0.001021
86 0.005979
89 0.006019
99 0.000977
108 0.0
117 0.0
130 0.0
135 0.001013
141 0.0
146 0.005986
150 0.005995
156 0.0
162 0.0
168 0.000992
173 0.005994
180 0.005997
188 0.000989
193 0.001011
202 0.0
209 0.0
208 0.000995
179 0.007027
140 0.00702
114 0.001002
112 0.0
119 0.001042
122 0.006012
120 0.005972
117 0.000984
122 0.001004
130 0.000998
130 0.001007
130 0.001985
134 0.006092
140 0.006983
150 0.001986
157 0.00198
164 0.0
170 0.005982
176 0.005978
181 0.001989
184 0.001964
192 0.0
197 0.0
203 0.002028
208 0.006982
214 0.006981
220 0.001995
224 0.002026
229 0.001995
233 0.006025
236 0.005948
241 0.001972
246 0.001002
231 0.001997
196 0.002026
171 0.000977
161 0.004988
165 0.005985
170 0.000987
169 0.001962
166 0.001994
164 0.007979
168 0.007947
171 0.002005
169 0.002004
169 0.001972
172 0.002031
178 0.00205
184 0.007001
190 0.006939
196 0.000999
200 0.003026
204 0.002022
207 0.006982
211 0.007932
214 0.001979
217 0.002061
224 0.002029
227 0.001048
232 0.002002
235 0.002007
239 0.007972
184 0.00698
187 0.001044
189 0.002976
190 0.001989
188 0.006975
167 0.007987
153 0.003026
146 0.007944
148 0.002001
150 0.002004
148 0.002991
145 0.006981
145 0.006981
146 0.001995
145 0.001996
143 0.00296
142 0.007853
143 0.007948
145 0.002992
148 0.00798
150 0.002992
152 0.002991
154 0.002006
155 0.006963
156 0.006974
157 0.002008
158 0.003002
160 0.002998
162 0.007981
164 0.007042
165 0.002954
168 0.007979
169 0.002006
170 0.002004
172 0.000995
174 0.007956
171 0.006985
156 0.002992
141 0.001956
133 0.00199
131 0.007994
134 0.007972
135 0.003009
132 0.006932
132 0.003019
133 0.002998
132 0.002962
130 0.005977
130 0.00699
131 0.003037
133 0.002043
135 0.00197
138 0.007949
140 0.006958
141 0.002988
144 0.006917
145 0.002968
146 0.002994
147 0.003012
149 0.006937
151 0.006982
152 0.004001
154 0.002996
188 0.002987
191 0.007953
195 0.007012
198 0.003989
203 0.006981
189 0.004944
156 0.004024
129 0.003035
116 0.005995
120 0.005971
125 0.003959
125 0.003961
120 0.003982
121 0.005986
122 0.005996
121 0.002948
116 0.005958
116 0.002945
119 0.002991
122 0.00301
129 0.006925
134 0.005984
136 0.005953
140 0.002994
142 0.003989
144 0.003989
147 0.005946
150 0.005985
155 0.006017
159 0.005985
162 0.004972
165 0.004962
168 0.004989
173 0.005982
177 0.006026
174 0.004978
147 0.003981
115 0.003992
90 0.006009
89 0.005986
95 0.005985
94 0.005989
90 0.005023
90 0.003989
92 0.004987
89 0.004957
84 0.004987
83 0.004024
84 0.003947
87 0.002999
94 0.005986
99 0.006011
106 0.005935
109 0.006015
112 0.003992
115 0.004933
117 0.003992
120 0.005983
124 0.004938
128 0.004979
131 0.004978
138 0.004983
142 0.005036
129 0.006019
81 0.005987
63 0.004994
59 0.004957
65 0.00499
65 0.004946
65 0.005026
65 0.005019
68 0.004951
66 0.004028
61 0.004982
58 0.004986
59 0.004019
67 0.004003
72 0.004941
81 0.005021
86 0.004977
90 0.004955
94 0.004994
96 0.005038
99 0.004981
101 0.004013
106 0.003971
112 0.004977
112 0.004976
74 0.004033
50 0.004006
39 0.004024
41 0.003968
44 0.003953
46 0.004988
45 0.004033
51 0.004954
53 0.004984
51 0.004003
48 0.004987
49 0.004966
58 0.003986
66 0.003967
74 0.003981
84 0.003995
89 0.004023
94 0.004046
98 0.003996
102 0.003989
108 0.004006
112 0.003988
117 0.004007
122 0.004983
134 0.004045
139 0.00399
125 0.003983
80 0.004023
57 0.004038
51 0.003973
54 0.003989
58 0.00399
56 0.004005
53 0.003986
58 0.003986
65 0.003989
70 0.00299
71 0.003025
74 0.003023
85 0.003995
93 0.003987
101 0.003003
109 0.003989
116 0.003976
123 0.003972
128 0.003966
134 0.003987
137 0.003987
147 0.003022
152 0.00298
158 0.003023
164 0.000999
170 0.001996
176 0.004014
180 0.003996
186 0.003944
193 0.003959
191 0.002996
166 0.003024
133 0.002992
110 0.002989
113 0.00303
118 0.003023
117 0.003041
113 0.003023
114 0.001987
120 0.003021
124 0.002992
123 0.00199
124 0.001993
128 0.003015
134 0.003027
145 0.002995
151 0.003002
157 0.003028
164 0.002988
168 0.002989
173 0.001993
176 0.002983
179 0.002992
185 0.001983
188 0.001998
192 0.002984
197 0.001996
204 0.001965
207 0.002051
210 0.003025
213 0.001961
218 0.002989
223 0.003008
225 0.002992
213 0.002992
182 0.002993
146 0.001975
139 0.001994
141 0.001994
144 0.001995
139 0.001995
134 0.001954
134 0.00196
136 0.002028
133 0.002009
129 0.001994
129 0.002039
133 0.001996
140 0.001979
146 0.002021
150 0.001999
155 0.002008
157 0.00204
160 0.002045
164 0.002045
169 0.002044
171 0.002001
175 0.001993
180 0.002026
184 0.001995
188 0.001031
191 0.001994
193 0.001981
196 0.000998
197 0.00103
182 0.001029
155 0.002032
132 0.00199
131 0.001994
135 0.002016
139 0.002043
138 0.001997
136 0.002008
140 0.001963
143 0.000985
141 0.002026
139 0.0
141 0.000994
145 0.002062
151 0.001992
156 0.002027
161 0.002036
166 0.001995
167 0.002028
172 0.001971
173 0.000984
174 0.000998
178 0.00106
181 0.000996
185 0.00203
189 0.002006
192 0.001994
178 0.000936
150 0.00195
128 0.000939
119 0.001971
124 0.000996
128 0.002017
129 0.000945
129 0.001064
137 0.001028
138 0.001023
135 0.001031
133 0.0
137 0.000997
145 0.001012
153 0.0
163 0.00203
173 0.002021
180 0.0
185 0.0
195 0.0
201 0.0
206 0.0
212 0.000998
222 0.000982
227 0.000995
207 0.000996
171 0.000997
147 0.000997
144 0.0
159 0.0
169 0.0
172 0.0
176 0.000998
184 0.0
186 0.0
183 0.000998
183 0.000999
190 0.000997
200 0.000995
210 0.000998
219 0.000997
232 0.0
237 0.0
245 0.0
248 0.001031
253 0.0
255 0.0
255 0.0
255 0.0
249 0.0
215 0.0
192 0.0
191 0.0
206 0.001007
214 0.00095
216 0.0
220 0.0
225 0.000998
222 0.0
217 0.0
220 0.00203
229 0.001016
238 0.002032
246 0.001994
255 0.002051
255 0.001985
255 0.002028
255 0.000998
255 0.003
255 0.001033
255 0.003034
248 0.002021
215 0.00296
213 0.001977
225 0.002036
235 0.002044
238 0.002038
236 0.002029
241 0.002029
189 0.001995
188 0.002016
188 0.002029
188 0.002034
191 0.002031
195 0.001993
198 0.001992
200 0.001988
202 0.001034
203 0.001005
204 0.00105
205 0.000992
206 0.002018
209 0.002004
211 0.002045
212 0.002
211 0.002027
186 0.002031
173 0.002032
173 0.00199
179 0.002045
184 0.002027
185 0.001997
183 0.002016
185 0.002045
187 0.003006
186 0.002028
185 0.002047
185 0.001028
187 0.000981
189 0.00099
191 0.000999
193 0.001031
194 0.001988
195 0.001995
196 0.001998
197 0.00203
198 0.002002
199 0.002029
200 0.001994
202 0.001995
202 0.002047
203 0.001995
205 0.001989
205 0.001993
207 0.00203
209 0.001996
210 0.002005
189 0.002053
163 0.001995
160 0.002021
166 0.003039
172 0.002034
174 0.002046
171 0.002984
170 0.001996
171 0.001994
172 0.002986
170 0.002045
167 0.002029
169 0.002038
171 0.003029
241 0.001993
244 0.00299
248 0.002054
189 0.002032
190 0.002018
191 0.003025
192 0.002993
192 0.002997
194 0.002993
196 0.003018
198 0.002994
199 0.003084
201 0.003026
202 0.002969
203 0.001995
205 0.002992
202 0.002038
179 0.003009
149 0.002942
144 0.003047
148 0.002945
154 0.003016
156 0.002996
152 0.00299
151 0.004025
152 0.001983
150 0.003988
145 0.003023
143 0.002961
144 0.002991
148 0.002962
151 0.002962
153 0.002958
156 0.003988
158 0.003026
159 0.003963
159 0.002993
161 0.002997
161 0.002993
162 0.001986
164 0.004015
166 0.003992
169 0.004022
172 0.002975
166 0.002044
140 0.002984
111 0.00199
111 0.001994
114 0.003957
117 0.003991
114 0.001992
111 0.001965
112 0.001996
113 0.003998
109 0.003977
103 0.001975
103 0.003021
104 0.002026
109 0.001988
111 0.001995
114 0.004027
116 0.004018
117 0.001971
118 0.001995
120 0.001996
120 0.003993
121 0.004021
123 0.002
125 0.002003
129 0.001995
133 0.001995
125 0.000997
100 0.004954
78 0.004
68 0.000997
71 0.001984
72 0.00399
74 0.000997
71 0.00399
70 0.001995
70 0.00202
67 0.002992
61 0.001001
60 0.003059
62 0.005021
64 0.003989
69 0.001023
72 0.001007
74 0.002057
76 0.005003
77 0.004973
80 0.002002
81 0.002014
83 0.001961
86 0.001002
90 0.001021
92 0.004954
95 0.00399
101 0.00294
103 0.00099
87 0.001965
61 0.005004
43 0.00494
35 0.001995
39 0.001019
44 0.002024
45 0.0
46 0.000992
48 0.005959
45 0.006016
39 0.000989
36 0.001016
37 0.002023
42 0.005956
47 0.001995
52 0.001034
58 0.001016
61 0.000995
66 0.0
68 0.001014
70 0.0
74 0.005989
78 0.005997
82 0.0
80 0.000971
61 0.001042
14 0.006023
0 0.004979
0 0.0
6 0.0
12 0.001012
15 0.001014
22 0.001003
22 0.005986
16 0.005953
11 0.001996
13 0.000973
19 0.001002
26 0.005988
35 0.005988
46 0.0
52 0.002046
60 0.0
64 0.0
68 0.0
72 0.005999
77 0.005994
85 0.0
82 0.0
54 0.0
19 0.006019
0 0.005993
0 0.000982
2 0.0
5 0.0
4 0.0
8 0.0
10 0.006
9 0.006982
6 0.0
6 0.0
9 0.0
17 0.006944
26 0.006978
36 0.0
45 0.0
56 0.000996
63 0.0
69 0.000998
75 0.005985
82 0.006274
89 0.001998
95 0.000996
103 0.0
111 0.007008
112 0.007019
71 0.000945
35 0.0
13 0.001969
15 0.002006
20 0.002027
20 0.00696
17 0.007013
20 0.00199
25 0.001992
27 0.000965
27 0.007011
28 0.007979
35 0.001999
43 0.000998
59 0.001995
69 0.003003
77 0.001995
84 0.007026
92 0.006979
100 0.00201
107 0.001996
114 0.001988
123 0.007973
130 0.007931
136 0.007953
145 0.003028
159 0.006968
165 0.002948
151 0.00304
115 0.003001
75 0.007941
70 0.006948
74 0.001966
78 0.001989
79 0.001986
77 0.007961
80 0.008007
86 0.001993
90 0.007978
89 0.002994
92 0.001962
98 0.00202
107 0.007978
114 0.007992
126 0.001993
133 0.00202
139 0.001994
146 0.007947
152 0.007912
157 0.001995
167 0.007971
172 0.002002
179 0.002006
185 0.002173
193 0.00793
197 0.007977
205 0.001963
209 0.002988
214 0.00197
221 0.007945
226 0.00802
231 0.001997
200 0.006949
163 0.003012
141 0.002023
137 0.002001
143 0.007956
148 0.00794
148 0.001971
146 0.001967
148 0.001968
150 0.005983
150 0.004987
147 0.002992
149 0.006982
152 0.003966
158 0.003004
164 0.002
171 0.006964
176 0.007016
180 0.001993
184 0.001979
188 0.003967
192 0.007946
196 0.007982
200 0.00201
206 0.00697
211 0.002946
216 0.002941
220 0.001995
225 0.007031
229 0.006982
232 0.002992
237 0.003944
237 0.002968
205 0.007011
172 0.006977
153 0.002983
155 0.005947
159 0.003992
162 0.004006
160 0.00299
158 0.006985
160 0.006982
159 0.007059
153 0.003989
150 0.002967
150 0.003989
154 0.005985
158 0.005984
166 0.005983
170 0.005976
173 0.003948
176 0.003961
178 0.003966
180 0.006023
183 0.006011
186 0.003946
188 0.003946
192 0.002965
196 0.006007
200 0.007017
205 0.00596
209 0.005986
213 0.003962
216 0.003992
205 0.003994
161 0.005981
134 0.005971
125 0.003986
127 0.003009
133 0.002993
133 0.006018
129 0.006015
129 0.005984
130 0.005984
125 0.003998
120 0.00399
119 0.004987
122 0.005017
126 0.006016
131 0.003995
136 0.003997
140 0.004009
144 0.005972
147 0.005013
151 0.004982
152 0.004967
155 0.003988
158 0.003982
161 0.003946
166 0.005987
169 0.005992
173 0.002991
177 0.002959
181 0.003049
186 0.00598
190 0.005992
164 0.004983
127 0.004987
95 0.004962
91 0.004976
96 0.004979
99 0.005041
98 0.004987
94 0.004002
92 0.003958
94 0.003993
93 0.00502
88 0.004989
87 0.004977
90 0.004974
95 0.004941
101 0.004989
105 0.004982
111 0.005015
116 0.005034
118 0.003955
121 0.003991
124 0.003981
127 0.005003
131 0.004967
138 0.003987
143 0.004981
146 0.004977
151 0.003964
157 0.003987
162 0.003992
160 0.00402
135 0.004033
88 0.003961
73 0.003989
65 0.004038
68 0.004987
70 0.004028
66 0.004019
66 0.00402
68 0.003977
66 0.004008
62 0.003029
59 0.004016
59 0.003995
64 0.003024
70 0.002991
74 0.004014
80 0.003009
85 0.004954
91 0.005011
93 0.003939
97 0.003982
102 0.003999
104 0.003982
109 0.004025
113 0.003944
120 0.003998
124 0.003988
130 0.002959
136 0.004024
135 0.003023
105 0.003024
70 0.003026
48 0.00397
47 0.002983
51 0.003992
55 0.004022
54 0.004017
55 0.003958
58 0.004005
56 0.003996
51 0.004003
48 0.003989
51 0.003025
56 0.003026
65 0.003005
73 0.00298
78 0.002995
85 0.002989
89 0.00398
94 0.004005
97 0.002963
102 0.003983
106 0.003001
115 0.002994
121 0.003025
128 0.00302
126 0.00298
98 0.002996
67 0.002985
48 0.002993
44 0.002992
49 0.002991
54 0.002992
55 0.003006
58 0.003951
62 0.002993
59 0.002992
54 0.00303
53 0.003024
59 0.003033
67 0.003037
76 0.003022
83 0.002955
89 0.002012
98 0.003025
102 0.002992
106 0.001981
112 0.001994
116 0.001999
122 0.001995
128 0.001996
135 0.001989
130 0.003003
98 0.003003
62 0.002992
44 0.002992
43 0.002987
47 0.002001
49 0.001958
47 0.001986
52 0.001993
55 0.001997
55 0.001996
30 0.000995
32 0.001995
38 0.001017
50 0.001995
64 0.001007
80 0.002001
92 0.002012
101 0.002001
113 0.002029
120 0.001988
125 0.002043
132 0.002029
146 0.002003
153 0.002017
161 0.001984
168 0.001991
177 0.002032
185 0.001
192 0.000991
202 0.001
207 0.001991
168 0.002002
109 0.001995
69 0.002028
55 0.001985
59 0.001993
63 0.001988
59 0.002027
51 0.001966
56 0.001961
63 0.000962
66 0.001
67 0.0
71 0.000924
81 0.001031
95 0.001009
111 0.00196
123 0.001
136 0.000999
144 0.000997
153 0.000998
165 0.000999
172 0.001029
180 0.000964
193 0.001996
203 0.001997
211 0.002003
221 0.002028
232 0.001986
239 0.001989
246 0.0
252 0.000998
255 0.000998
255 0.000962
255 0.001003
255 0.001041
236 0.001028
186 0.000947
154 0.000997
146 0.001
152 0.002006
160 0.001994
156 0.0
150 0.0
153 0.0
161 0.0
162 0.001037
162 0.000955
168 0.000997
177 0.0
186 0.001022
196 0.0
206 0.0
216 0.0
223 0.0
95 0.0
236 0.0
242 0.0
250 0.0
255 0.0
200 0.0
204 0.001009
207 0.000971
211 0.000997
214 0.000986
216 0.0
219 0.0
221 0.0
224 0.0
226 0.0
229 0.0
222 0.0
182 0.0
167 0.0
164 0.000999
168 0.000931
171 0.000992
168 0.000991
166 0.000961
166 0.0
167 0.0
166 0.0
164 0.0
163 0.0
166 0.0
169 0.004986
173 0.002002
176 0.002047
178 0.001989
181 0.00199
184 0.001994
185 0.002041
187 0.002037
188 0.002026
191 0.002955
193 0.001963
196 0.0
199 0.00202
200 0.001998
203 0.00203
204 0.002008
206 0.002031
208 0.001971
209 0.001984
206 0.001985
187 0.002027
158 0.002963
148 0.001963
150 0.001978
153 0.001995
154 0.002983
151 0.002024
149 0.001997
151 0.002977
149 0.001979
145 0.003037
143 0.00203
144 0.002027
146 0.001983
150 0.001996
154 0.001995
157 0.001998
158 0.001994
174 0.001995
175 0.003022
177 0.00299
180 0.001989
182 0.001993
184 0.002001
188 0.001975
191 0.002015
195 0.002028
198 0.002034
177 0.002021
148 0.002012
129 0.001968
124 0.002027
129 0.00301
135 0.002001
136 0.001993
137 0.002992
140 0.002029
139 0.00202
133 0.001986
126 0.002027
127 0.001953
131 0.001992
137 0.002025
141 0.002026
145 0.001995
148 0.001994
150 0.001998
151 0.001989
152 0.002972
154 0.002969
158 0.003976
161 0.002023
142 0.002032
112 0.001979
92 0.001989
83 0.002003
85 0.001979
89 0.002006
87 0.001995
85 0.002947
86 0.001989
88 0.002994
84 0.003026
80 0.002992
80 0.002963
84 0.002026
91 0.002957
96 0.003029
101 0.00306
107 0.003002
110 0.002045
113 0.001994
115 0.002029
118 0.001992
121 0.001981
126 0.001978
132 0.002005
135 0.002953
139 0.002957
142 0.00302
148 0.002994
150 0.002993
122 0.002995
81 0.002033
47 0.00399
39 0.002999
42 0.003065
40 0.002031
32 0.003026
26 0.002992
28 0.00298
30 0.002975
27 0.003027
24 0.002989
26 0.003009
30 0.002992
38 0.003003
44 0.003052
52 0.003984
59 0.002983
67 0.00399
71 0.003995
75 0.003997
82 0.00299
86 0.002948
92 0.003005
98 0.002988
105 0.002986
110 0.00298
118 0.001987
124 0.002965
133 0.003034
138 0.001962
143 0.00398
149 0.004013
149 0.00399
119 0.003988
75 0.002994
40 0.003991
34 0.00399
37 0.00299
39 0.002977
34 0.001987
29 0.002987
33 0.001983
35 0.003999
35 0.004002
35 0.002008
38 0.001991
46 0.003004
52 0.003965
61 0.004015
67 0.004
78 0.001994
86 0.00196
96 0.001995
102 0.002994
106 0.003991
113 0.00399
121 0.002987
127 0.00203
135 0.003011
140 0.004
146 0.003999
154 0.002956
160 0.002035
164 0.001962
175 0.003
179 0.001997
158 0.004987
118 0.003988
80 0.002969
75 0.002991
78 0.001994
81 0.003951
82 0.004986
78 0.001992
79 0.000973
84 0.002026
85 0.001988
85 0.001014
86 0.004987
92 0.004989
103 0.000998
111 0.001988
118 0.002036
126 0.005012
133 0.004988
140 0.002052
145 0.001016
151 0.000995
160 0.00196
166 0.000984
172 0.004974
177 0.004984
185 0.001994
190 0.001996
196 0.001998
199 0.001973
204 0.005975
208 0.005953
214 0.001996
220 0.002056
188 0.001017
152 0.001001
132 0.001993
131 0.004982
137 0.004977
143 0.001958
143 0.001991
140 0.001017
143 0.006008
145 0.004987
144 0.001002
141 0.001023
142 0.0
148 0.001005
155 0.000982
162 0.006006
167 0.005989
173 0.001988
178 0.00099
181 0.001025
184 0.004985
187 0.005991
192 0.0
197 0.000993
203 0.0
209 0.0
213 0.001007
218 0.007007
220 0.005998
226 0.000983
229 0.001997
233 0.000976
232 0.006988
208 0.006991
164 0.0
149 0.000963
153 0.0
158 0.0
159 0.00101
153 0.006004
150 0.005996
155 0.0
154 0.0
150 0.0
149 0.006981
149 0.006947
154 0.001033
158 0.0
166 0.0
170 0.0
171 0.0
175 0.005974
176 0.005985
179 0.0
181 0.001993
183 0.0
187 0.006952
192 0.006916
196 0.001028
200 0.000998
206 0.002028
209 0.003016
211 0.002005
214 0.006949
216 0.006916
220 0.002037
224 0.002055
221 0.001999
193 0.007914
159 0.006982
141 0.000997
146 0.00197
155 0.001987
154 0.002026
148 0.002036
148 0.001995
151 0.006982
151 0.006981
156 0.001995
154 0.002991
155 0.001996
161 0.007978
168 0.007945
173 0.001993
178 0.007969
182 0.001993
185 0.001995
187 0.001991
190 0.006984
194 0.007972
199 0.001994
202 0.001994
207 0.001992
213 0.00798
214 0.007978
220 0.002993
226 0.007954
93 0.001994
231 0.002992
236 0.001972
240 0.007973
244 0.007979
247 0.003004
223 0.00298
176 0.001995
144 0.007943
136 0.006984
143 0.002978
150 0.007962
145 0.001997
138 0.001983
139 0.001994
139 0.00696
136 0.007981
131 0.002
127 0.003001
132 0.002008
138 0.007978
141 0.007978
146 0.001999
151 0.007998
155 0.001993
156 0.002982
158 0.002017
162 0.007934
164 0.006949
168 0.001998
170 0.002976
175 0.003019
180 0.006953
184 0.006937
189 0.003011
193 0.007946
197 0.001987
200 0.001995
204 0.002003
210 0.007986
203 0.007968
163 0.003007
119 0.003001
97 0.002967
92 0.005997
97 0.005996
99 0.003981
83 0.006973
78 0.001986
78 0.003016
76 0.001984
68 0.006974
61 0.007035
62 0.002084
65 0.003007
69 0.003014
74 0.007012
77 0.005953
80 0.004
83 0.007005
85 0.006969
88 0.003016
90 0.002025
94 0.002993
100 0.006016
106 0.005984
110 0.001995
115 0.002992
119 0.002992
126 0.006982
130 0.006911
137 0.006031
143 0.006965
147 0.003956
150 0.002004
121 0.003989
61 0.006008
37 0.00601
30 0.003007
34 0.003957
38 0.002972
33 0.005976
26 0.005984
27 0.006001
24 0.006009
17 0.001981
10 0.002999
11 0.003985
19 0.006017
26 0.005996
32 0.002993
41 0.00403
47 0.003991
54 0.00499
60 0.004957
68 0.005945
75 0.00594
81 0.002983
88 0.003986
92 0.003009
101 0.005013
110 0.006022
117 0.00402
127 0.004983
128 0.004954
87 0.005985
44 0.004985
13 0.00496
18 0.006013
23 0.003986
23 0.004985
18 0.004951
19 0.005019
23 0.005017
23 0.004981
22 0.004015
20 0.004967
24 0.004931
35 0.005978
50 0.005986
60 0.005965
67 0.004026
76 0.00495
83 0.003989
91 0.005012
99 0.004988
105 0.003988
113 0.003989
121 0.003957
133 0.003964
140 0.003982
153 0.004982
159 0.005013
167 0.003972
174 0.002956
182 0.00397
165 0.005054
114 0.004988
67 0.002958
43 0.004963
46 0.004956
49 0.004988
48 0.005027
37 0.002991
31 0.000997
39 0.0
43 0.001994
40 0.003976
40 0.003972
48 0.004024
56 0.003954
67 0.004959
82 0.003998
92 0.004918
100 0.005014
113 0.004973
120 0.005014
128 0.005025
138 0.004016
146 0.003998
155 0.004049
164 0.00402
170 0.003988
180 0.002992
187 0.004021
192 0.002992
200 0.002993
209 0.003007
213 0.00505
181 0.00502
107 0.003983
74 0.003964
62 0.003988
66 0.00399
70 0.00402
63 0.003001
54 0.002986
54 0.003986
60 0.003003
61 0.003988
61 0.003982
63 0.002987
75 0.00297
86 0.002989
94 0.002992
107 0.003989
117 0.004987
127 0.000996
137 0.002994
143 0.002998
151 0.002995
161 0.003961
168 0.003958
175 0.002939
189 0.002955
198 0.00296
202 0.002993
182 0.001995
130 0.003029
73 0.003024
61 0.003989
65 0.002992
69 0.002992
61 0.002984
56 0.002997
62 0.002989
70 0.002951
69 0.002986
67 0.002984
73 0.002991
80 0.002991
94 0.002005
107 0.001988
117 0.002
128 0.001995
143 0.002986
150 0.003029
156 0.002991
164 0.003005
171 0.003007
177 0.002991
187 0.003023
195 0.002014
204 0.001991
195 0.001999
145 0.001999
90 0.001983
57 0.003154
64 0.002988
68 0.00198
66 0.001994
58 0.001979
64 0.001999
72 0.002962
71 0.00197
71 0.002009
74 0.001913
81 0.002003
93 0.001966
112 0.002993
124 0.002002
133 0.002051
141 0.002061
150 0.002039
155 0.002024
161 0.002007
166 0.000998
173 0.000976
183 0.002007
191 0.002035
198 0.001978
212 0.002021
218 0.001987
224 0.002043
161 0.002035
240 0.002003
238 0.001995
194 0.001987
131 0.002025
86 0.000965
70 0.001056
76 0.001011
83 0.001
76 0.000981
76 0.000996
81 0.001983
84 0.001996
79 0.001996
76 0.002021
83 0.001992
92 0.000978
104 0.001032
119 0.001046
132 0.001039
141 0.000998
153 0.001021
158 0.002041
164 0.001995
170 0.000998
178 0.001999
185 0.001991
194 0.001988
200 0.000966
207 0.001041
220 0.001998
227 0.001009
234 0.001068
175 0.000974
117 0.000998
82 0.000997
76 0.002008
86 0.000964
92 0.000961
92 0.0
91 0.0
98 0.001044
101 0.000963
96 0.001007
93 0.001005
101 0.001009
114 0.00101
127 0.000997
140 0.000998
155 0.001998
165 0.001991
172 0.0
179 0.0
186 0.0
192 0.0
201 0.0
211 0.0
225 0.0
233 0.0
239 0.0
188 0.000963
192 0.000997
196 0.000987
181 0.0
147 0.0
116 0.0
100 0.0
99 0.000976
101 0.000997
97 0.0
94 0.0
95 0.0
99 0.0
100 0.0
99 0.0
99 0.0
103 0.0
110 0.0
115 0.0
123 0.000997
130 0.0
137 0.0
140 0.0
143 0.0
147 0.0
150 0.0
155 0.000849
160 0.001041
164 0.0
168 0.002027
172 0.001038
177 0.001033
180 0.0
186 0.001986
189 0.002001
193 0.0
184 0.002003
151 0.0
105 0.0
89 0.0
87 0.000971
89 0.000973
90 0.000966
84 0.003034
81 0.000983
86 0.002977
87 0.002961
86 0.002981
87 0.002029
89 0.002029
97 0.00198
104 0.000981
110 0.003025
116 0.001997
122 0.002992
128 0.002043
132 0.001984
137 0.000949
142 0.002845
146 0.002982
151 0.002969
155 0.003026
161 0.002022
166 0.003095
169 0.003956
174 0.003037
177 0.002011
181 0.00203
186 0.00399
192 0.002042
186 0.00201
153 0.002005
114 0.002013
87 0.002021
80 0.001999
83 0.00203
85 0.003049
82 0.001994
78 0.002033
79 0.002047
83 0.003002
81 0.003002
81 0.003027
82 0.002991
88 0.002955
94 0.003039
102 0.002996
109 0.002032
115 0.001988
119 0.002015
122 0.003007
126 0.002045
131 0.002026
135 0.002057
141 0.001995
145 0.001995
150 0.002987
154 0.002987
158 0.003024
164 0.002984
168 0.002982
172 0.002996
174 0.002048
159 0.002029
108 0.001996
71 0.002023
65 0.001983
69 0.001997
72 0.001989
72 0.002929
70 0.002993
74 0.00303
75 0.002992
73 0.002995
70 0.003035
72 0.002942
79 0.003041
89 0.002001
98 0.002019
104 0.001998
110 0.001996
114 0.001994
117 0.002023
122 0.003018
125 0.002958
129 0.002956
132 0.002986
137 0.003045
143 0.003037
151 0.002982
158 0.002988
156 0.002973
127 0.002963
86 0.003047
58 0.003039
48 0.002983
51 0.002988
55 0.00203
52 0.003005
51 0.002983
56 0.002972
60 0.00299
60 0.002989
59 0.002997
63 0.002998
68 0.002999
77 0.003001
87 0.003992
94 0.003023
102 0.002992
106 0.003991
111 0.003969
114 0.002975
121 0.00299
126 0.002987
130 0.002985
135 0.002994
143 0.002959
148 0.003988
151 0.003007
155 0.004006
161 0.004022
166 0.002002
168 0.003001
145 0.002952
85 0.003988
51 0.00394
39 0.003959
43 0.003956
44 0.003959
38 0.002991
35 0.004053
39 0.003995
44 0.004024
45 0.003017
45 0.003025
47 0.003019
57 0.002044
65 0.002015
72 0.00399
79 0.001994
88 0.002999
93 0.002009
98 0.001986
102 0.005
106 0.004991
113 0.002008
118 0.003002
124 0.001999
132 0.002997
138 0.003023
143 0.003992
149 0.003952
154 0.001985
158 0.002011
163 0.001994
167 0.003981
171 0.004999
165 0.00197
126 0.001995
78 0.001954
42 0.001977
43 0.002958
46 0.005005
45 0.004989
37 0.001956
37 0.002988
43 0.001993
46 0.004991
46 0.004982
47 0.001994
50 0.001967
58 0.002013
71 0.001999
79 0.002047
86 0.004974
92 0.004971
99 0.000967
103 0.00197
108 0.002047
110 0.004982
115 0.005969
122 0.002991
127 0.002039
133 0.002022
142 0.001018
147 0.001008
151 0.004987
156 0.004975
161 0.00595
163 0.001012
136 0.00296
92 0.00099
59 0.005973
45 0.005941
49 0.001995
55 0.001995
55 0.001994
57 0.001981
63 0.001986
65 0.004995
61 0.006001
59 0.0
63 0.000971
69 0.001008
78 0.00595
86 0.005978
97 0.0
105 0.001019
113 0.000997
116 0.001988
119 0.001992
123 0.00598
127 0.00601
132 0.0
137 0.001994
144 0.002006
151 0.006003
155 0.00604
131 0.001037
88 0.001008
40 0.0
37 0.0
42 0.0
47 0.005976
46 0.007018
48 0.0
56 0.0
59 0.0
59 0.006936
58 0.006982
62 0.000929
69 0.0
84 0.000997
94 0.001959
102 0.00203
109 0.006052
114 0.006978
121 0.001007
125 0.001998
129 0.00107
134 0.006981
139 0.006971
147 0.0
153 0.0
163 0.001978
169 0.0
176 0.0
178 0.006003
150 0.007008
84 0.0
49 0.0
36 0.001027
38 0.007966
42 0.007973
38 0.0
34 0.001996
42 0.0
50 0.0
51 0.0
51 0.007982
57 0.007956
64 0.0
72 0.0
83 0.0
93 0.007989
101 0.006982
108 0.007982
116 0.0
123 0.006961
129 0.00198
135 0.00298
142 0.0
147 0.007981
157 0.007957
164 0.001988
170 0.004005
176 0.003024
183 0.007974
188 0.007991
193 0.003001
200 0.006992
198 0.002988
158 0.001999
105 0.002975
68 0.007946
54 0.006924
58 0.001983
61 0.00202
59 0.003023
55 0.007036
59 0.006959
66 0.001991
70 0.008013
70 0.002061
72 0.003006
80 0.003005
88 0.007981
101 0.006947
111 0.003961
118 0.002956
124 0.003026
133 0.006956
137 0.006952
140 0.003994
148 0.007976
155 0.003
161 0.002987
167 0.00299
175 0.005985
181 0.007006
186 0.003916
190 0.003999
195 0.003001
202 0.005966
206 0.00798
189 0.002996
123 0.007981
72 0.00197
62 0.001987
64 0.002997
70 0.006948
67 0.007021
64 0.003
66 0.001998
73 0.002985
76 0.006978
75 0.006955
76 0.003973
82 0.007975
94 0.002987
103 0.003001
112 0.004018
124 0.006953
129 0.006926
134 0.00398
139 0.003986
142 0.004043
147 0.006961
152 0.00598
158 0.004953
167 0.005985
172 0.003972
177 0.003965
182 0.004963
187 0.003989
195 0.005981
196 0.006018
165 0.003938
116 0.004027
77 0.004016
61 0.00697
65 0.005967
75 0.007027
76 0.006983
77 0.003001
84 0.003957
87 0.005029
83 0.006021
80 0.005946
83 0.003983
89 0.003964
97 0.004043
111 0.006005
120 0.004986
134 0.005979
139 0.005979
142 0.004002
146 0.004999
149 0.004991
154 0.005954
159 0.005981
165 0.00595
169 0.004987
176 0.004986
185 0.004956
179 0.006018
106 0.005951
68 0.005951
54 0.00403
57 0.004956
65 0.004963
68 0.005987
68 0.005981
74 0.005021
81 0.004992
82 0.00499
79 0.006019
80 0.005024
89 0.005014
99 0.005994
109 0.004955
122 0.004962
132 0.005021
137 0.005024
143 0.003972
148 0.005027
152 0.00399
157 0.00399
161 0.004989
166 0.00499
175 0.005956
182 0.005951
191 0.004956
189 0.004958
152 0.004987
98 0.004932
59 0.004986
46 0.004982
50 0.00394
55 0.003995
56 0.003964
54 0.003023
63 0.003989
69 0.005008
69 0.004985
69 0.00397
72 0.004988
79 0.005044
90 0.004982
100 0.004989
113 0.005016
122 0.004
129 0.003978
135 0.003986
141 0.003996
147 0.004982
151 0.003989
159 0.003995
165 0.003023
171 0.002975
177 0.004014
183 0.001989
191 0.003033
198 0.004027
201 0.005013
172 0.004987
80 0.00395
49 0.004965
43 0.003983
51 0.003987
56 0.002993
54 0.003987
53 0.004041
59 0.002999
67 0.003008
69 0.002999
68 0.002997
69 0.003968
81 0.004987
92 0.004984
103 0.003995
116 0.00298
125 0.00302
132 0.003023
138 0.002984
142 0.002003
148 0.002998
153 0.00402
158 0.003985
165 0.003987
176 0.002992
182 0.003965
189 0.003014
195 0.002978
202 0.002992
208 0.003987
211 0.004017
179 0.003048
102 0.00301
61 0.002983
47 0.002991
50 0.002992
62 0.004018
62 0.004022
61 0.002993
69 0.003015
75 0.003052
74 0.001988
72 0.003026
74 0.002015
83 0.00196
92 0.003006
104 0.002028
115 0.003026
130 0.002993
136 0.003991
141 0.003015
147 0.002991
151 0.002977
156 0.003113
161 0.003041
167 0.002973
175 0.002979
182 0.001994
188 0.002036
194 0.003028
205 0.001994
210 0.001993
191 0.001994
116 0.001992
68 0.003004
47 0.001983
47 0.002009
55 0.003028
61 0.002992
60 0.002992
63 0.001995
70 0.002033
72 0.00296
69 0.002015
70 0.002005
75 0.002003
86 0.001993
97 0.001994
108 0.001984
117 0.002031
125 0.00203
134 0.002002
138 0.002009
142 0.002004
148 0.002961
154 0.001971
160 0.001949
166 0.001965
173 0.001995
178 0.002006
184 0.003019
191 0.001002
197 0.001985
178 0.001966
124 0.001024
74 0.001982
47 0.002005
53 0.001981
63 0.00202
69 0.000994
73 0.000999
81 0.001991
85 0.002027
81 0.001996
78 0.001999
77 0.001035
82 0.001013
92 0.002039
109 0.001994
121 0.001994
129 0.00097
135 0.000997
142 0.0
144 0.0
147 0.000999
151 0.000966
155 0.001025
160 0.000998
166 0.001994
174 0.001043
184 0.000999
168 0.001056
118 0.00202
69 0.000997
41 0.0
43 0.0
53 0.0
61 0.0
66 0.000979
74 0.000998
81 0.000998
80 0.000996
73 0.000997
75 0.001043
80 0.001037
91 0.000993
106 0.0
116 0.0
126 0.0
133 0.0
138 0.0
141 0.0
146 0.0
150 0.001005
157 0.000994
162 0.001041
169 0.0
177 0.0
182 0.0
148 0.0
92 0.000989
48 0.0
29 0.001037
31 0.000992
42 0.000995
44 0.0
44 0.0
53 0.0
60 0.0
62 0.0
61 0.0
64 0.0
72 0.0
82 0.0
93 0.0
104 0.0
116 0.0
123 0.0
133 0.0
137 0.0
142 0.0
147 0.001034
153 0.0
162 0.0
169 0.0
175 0.000998
183 0.003022
188 0.0
194 0.0
200 0.0
207 0.0
187 0.0
126 0.0
67 0.0
36 0.000985
32 0.0
39 0.0
43 0.0
40 0.000965
38 0.002991
47 0.0
53 0.0
55 0.0
56 0.000991
64 0.002986
74 0.002988
81 0.001045
95 0.003986
105 0.003058
115 0.002968
121 0.002987
125 0.003023
132 0.003988
137 0.003982
145 0.004013
152 0.003992
158 0.001033
166 0.003027
174 0.001995
181 0.001993
186 0.003043
192 0.002994
198 0.001968
205 0.002964
205 0.002993
164 0.002994
68 0.003019
41 0.002993
39 0.002967
47 0.002951
53 0.002958
53 0.003019
52 0.003023
60 0.003004
68 0.002974
70 0.00203
70 0.001952
73 0.003026
84 0.002029
100 0.002963
111 0.002994
124 0.002021
133 0.003001
140 0.002971
146 0.002995
151 0.002994
159 0.002957
164 0.003022
170 0.003965
178 0.003023
191 0.002958
198 0.002022
205 0.002027
211 0.001989
218 0.00298
224 0.001975
231 0.003024
233 0.001995
206 0.002988
150 0.003037
104 0.003042
80 0.003022
90 0.002991
96 0.002997
95 0.002944
93 0.003058
102 0.00203
106 0.002982
105 0.002005
104 0.003058
107 0.003048
114 0.001996
124 0.002988
135 0.003055
146 0.002042
156 0.003029
162 0.003038
168 0.002989
172 0.003007
175 0.002943
180 0.003037
185 0.003015
192 0.002996
197 0.003008
205 0.002954
210 0.003042
218 0.002978
223 0.002046
228 0.002042
234 0.002008
229 0.002028
185 0.003001
117 0.004002
91 0.004998
87 0.000971
94 0.000999
99 0.0
97 0.002994
98 0.003017
103 0.003002
103 0.003042
100 0.002047
100 0.003049
104 0.002992
112 0.003966
120 0.002993
132 0.001969
140 0.003009
145 0.002972
150 0.002993
157 0.002029
160 0.003022
164 0.002992
169 0.002977
174 0.002992
181 0.002992
186 0.001994
192 0.005037
196 0.003038
203 0.002958
207 0.00199
213 0.001947
211 0.000969
169 0.001995
116 0.002987
78 0.002993
66 0.001995
72 0.002012
77 0.001993
77 0.004024
73 0.003992
79 0.000997
81 0.002012
81 0.002012
77 0.002005
80 0.001994
86 0.005003
95 0.004906
108 0.001995
116 0.002029
123 0.002033
129 0.004016
134 0.00399
139 0.001993
143 0.001027
147 0.002049
155 0.001927
161 0.001006
166 0.004983
171 0.004979
178 0.000997
182 0.003055
188 0.000966
194 0.005972
196 0.004987
148 0.0
93 0.001028
57 0.002006
48 0.0
54 0.002033
58 0.003966
56 0.005047
57 0.000997
63 0.001031
66 0.0
65 0.004982
62 0.005018
66 0.0
74 0.000995
84 0.000997
99 0.0
108 0.0
116 0.006061
122 0.00597
128 0.0
133 0.0
138 0.001021
143 0.004957
148 0.005958
157 0.00105
163 0.0
169 0.001034
179 0.0
184 0.001028
189 0.000965
194 0.00499
199 0.006044
205 0.001036
188 0.001046
134 0.001022
81 0.006983
53 0.005997
49 0.0
56 0.001005
58 0.0
56 0.002029
60 0.0
65 0.006015
65 0.005996
63 0.001007
63 0.001012
67 0.001015
77 0.007007
87 0.006035
98 0.0
107 0.0
119 0.001028
124 0.0
128 0.000931
132 0.005986
137 0.005985
144 0.001996
150 0.000986
157 0.001989
164 0.007012
170 0.007025
178 0.002993
183 0.00299
191 0.0
196 0.002995
202 0.0
200 0.00796
145 0.007977
91 0.003039
59 0.003024
53 0.003031
61 0.006977
68 0.00697
71 0.002976
71 0.003017
81 0.002008
82 0.001025
78 0.00102
77 0.006939
82 0.007016
92 0.001031
103 0.00203
114 0.003988
123 0.007985
130 0.007017
138 0.002986
142 0.0
148 0.002979
152 0.001976
157 0.003993
162 0.00703
168 0.007015
177 0.00299
184 0.002974
189 0.002992
195 0.007951
199 0.00801
205 0.002987
210 0.002988
192 0.002956
136 0.003027
83 0.003025
55 0.003026
53 0.007947
57 0.007016
63 0.002004
61 0.003028
59 0.003011
66 0.007954
72 0.007943
73 0.002975
72 0.007946
78 0.003002
88 0.003945
97 0.00402
110 0.006939
120 0.007937
127 0.002993
133 0.002992
139 0.001991
143 0.00796
147 0.007009
153 0.001995
163 0.007963
170 0.002994
176 0.003025
182 0.004037
191 0.007933
195 0.006985
199 0.003013
205 0.003983
211 0.002962
216 0.007987
187 0.007958
128 0.003025
59 0.006941
53 0.003041
59 0.003035
65 0.002993
64 0.007012
62 0.007948
68 0.002993
75 0.002984
77 0.002991
75 0.007945
77 0.007977
84 0.002992
100 0.006938
110 0.003005
119 0.002992
129 0.004016
137 0.006981
142 0.006985
146 0.004021
151 0.004042
155 0.004049
162 0.006947
168 0.007985
174 0.003005
186 0.006945
191 0.003959
197 0.00399
202 0.004023
208 0.006998
214 0.006999
220 0.002972
212 0.005031
163 0.002996
89 0.006975
62 0.005951
59 0.004013
70 0.006936
73 0.005015
71 0.003999
74 0.003957
83 0.007028
86 0.006996
85 0.005988
86 0.003961
89 0.003006
98 0.003025
112 0.006995
121 0.007036
137 0.005991
144 0.005976
150 0.002977
155 0.003984
159 0.004016
165 0.005108
170 0.005986
179 0.004992
183 0.005026
191 0.003984
198 0.007028
204 0.006983
212 0.005942
219 0.005938
226 0.004983
228 0.004962
209 0.004972
136 0.005982
91 0.004922
74 0.004986
76 0.003989
84 0.003996
89 0.006037
87 0.006982
94 0.006
98 0.005977
97 0.004991
94 0.003958
95 0.003966
102 0.004961
111 0.004943
124 0.004992
130 0.004049
138 0.004987
147 0.006014
153 0.005977
158 0.005983
162 0.004969
168 0.004986
171 0.004993
177 0.004954
184 0.005977
190 0.005983
196 0.004986
200 0.004997
204 0.004961
212 0.005959
217 0.00602
198 0.004953
143 0.004022
80 0.003972
62 0.003984
63 0.004029
70 0.003995
75 0.004983
71 0.005021
74 0.00497
78 0.00502
81 0.004986
78 0.004987
77 0.003947
81 0.004989
93 0.00499
102 0.004982
112 0.005047
120 0.005006
127 0.005
133 0.004983
138 0.004968
141 0.004981
146 0.004987
150 0.004987
159 0.003996
165 0.003963
172 0.003972
178 0.004
182 0.003957
189 0.003989
195 0.005046
199 0.004988
167 0.003985
113 0.005004
71 0.004988
55 0.005023
64 0.003976
73 0.00399
77 0.003889
82 0.003025
88 0.003964
88 0.003018
