120 0.028954
120 0.002959
101 0.001963
99 0.002991
102 0.002991
110 0.003988
120 0.003983
132 0.002974
135 0.002977
137 0.003872
139 0.003993
138 0.002979
146 0.002992
149 0.00399
152 0.00302
157 0.004007
164 0.003036
168 0.003987
170 0.003986
177 0.00393
180 0.003991
181 0.003976
186 0.003814
187 0.004043
153 0.003989
122 0.003986
97 0.002989
89 0.002984
90 0.002992
94 0.005026
104 0.003989
115 0.003037
123 0.003961
127 0.003992
126 0.003985
129 0.003947
130 0.003993
133 0.003989
140 0.00297
144 0.003031
148 0.003024
155 0.004031
159 0.005041
163 0.004024
167 0.003989
169 0.00402
172 0.005019
175 0.00399
172 0.004987
147 0.004946
101 0.00403
80 0.004027
70 0.005018
63 0.004994
64 0.005008
69 0.00502
83 0.003982
90 0.004022
93 0.004977
96 0.004987
94 0.006036
99 0.005984
104 0.004029
109 0.004
114 0.004987
120 0.006016
124 0.006013
129 0.005022
133 0.005021
137 0.005021
139 0.005024
143 0.005031
148 0.005017
150 0.005028
136 0.005014
103 0.005027
70 0.005026
43 0.006026
33 0.005974
33 0.005979
39 0.006071
49 0.005984
62 0.005984
69 0.004993
70 0.004936
71 0.006027
72 0.006015
78 0.005031
82 0.005018
87 0.004959
93 0.005984
100 0.005984
105 0.005026
109 0.006019
114 0.006016
119 0.006
123 0.005984
125 0.005983
129 0.006009
130 0.006023
114 0.006024
79 0.005993
42 0.006015
27 0.006014
22 0.007028
24 0.006018
35 0.005024
48 0.006981
54 0.006968
57 0.006981
59 0.006982
60 0.006982
65 0.007015
71 0.006013
77 0.007013
82 0.007007
91 0.005983
95 0.005967
101 0.005998
109 0.006982
114 0.006984
121 0.007978
125 0.008022
130 0.007022
135 0.007021
127 0.006982
99 0.006982
64 0.007018
42 0.00703
32 0.006982
24 0.006034
35 0.006025
49 0.006973
58 0.007979
63 0.007993
67 0.00701
69 0.007075
72 0.00698
78 0.007981
85 0.007986
91 0.007018
96 0.006984
107 0.006982
114 0.007027
116 0.007028
125 0.006981
127 0.007028
135 0.006981
139 0.006982
143 0.007946
146 0.007929
141 0.007932
115 0.007927
62 0.007978
42 0.007932
32 0.006979
33 0.007032
38 0.007979
54 0.00797
64 0.007944
68 0.007027
70 0.007007
74 0.006983
76 0.006986
81 0.006984
92 0.006999
102 0.007024
106 0.007979
117 0.007977
120 0.007979
127 0.007979
134 0.007976
140 0.007958
145 0.007972
147 0.007966
152 0.006992
155 0.006983
157 0.006977
127 0.006982
78 0.007023
57 0.006971
46 0.006981
43 0.006952
45 0.006963
61 0.006977
71 0.007033
76 0.007947
82 0.007959
85 0.00697
86 0.006983
91 0.007011
97 0.006981
106 0.006981
113 0.006982
116 0.006996
123 0.006989
131 0.006982
134 0.006961
139 0.007019
143 0.006937
147 0.006938
150 0.006984
155 0.006017
161 0.006023
151 0.006027
119 0.006027
86 0.005983
63 0.005978
52 0.007009
54 0.006999
63 0.006984
76 0.006936
85 0.006987
90 0.005984
91 0.006026
95 0.005984
95 0.006026
99 0.006015
105 0.006015
112 0.005984
118 0.006052
124 0.005963
131 0.005976
134 0.005986
137 0.004954
141 0.005958
147 0.006035
152 0.004986
155 0.006023
159 0.005027
162 0.004979
147 0.005011
111 0.004985
74 0.005998
55 0.005973
47 0.005979
49 0.006023
57 0.006017
75 0.006016
83 0.004986
86 0.004994
89 0.005023
91 0.004964
95 0.004986
97 0.004994
107 0.004999
113 0.004989
120 0.004989
126 0.005029
133 0.00499
140 0.005035
145 0.004987
150 0.005032
155 0.005012
159 0.005959
161 0.004988
166 0.004987
155 0.004989
122 0.00497
86 0.005
62 0.004977
46 0.005037
44 0.004988
50 0.004952
67 0.005034
76 0.005021
81 0.004941
85 0.004978
88 0.004
89 0.003995
94 0.004956
101 0.003989
108 0.004029
121 0.00404
126 0.004035
133 0.00399
141 0.005012
143 0.004987
148 0.004992
151 0.004984
159 0.00397
162 0.003973
167 0.003985
167 0.003997
147 0.004027
86 0.003957
63 0.00399
50 0.00399
48 0.004035
53 0.00399
64 0.003945
76 0.003948
83 0.003962
84 0.003956
89 0.002959
90 0.00399
93 0.003989
100 0.004014
110 0.004026
116 0.003989
122 0.00396
129 0.004016
135 0.003987
138 0.003957
139 0.003993
143 0.003943
149 0.002992
152 0.002974
156 0.002969
152 0.002961
125 0.002992
91 0.004022
67 0.00399
51 0.004048
51 0.003937
59 0.00399
67 0.00395
78 0.002957
86 0.002992
88 0.002961
88 0.002958
92 0.002992
99 0.002993
103 0.002992
107 0.002881
119 0.003026
124 0.001952
128 0.003017
135 0.002983
140 0.003034
143 0.002993
149 0.002955
154 0.002974
160 0.003026
161 0.003025
149 0.003021
118 0.003025
76 0.002992
56 0.002985
48 0.002996
47 0.001963
53 0.001961
68 0.002001
78 0.001937
83 0.002889
86 0.002992
88 0.00303
91 0.002992
96 0.003
105 0.002993
111 0.001986
118 0.001999
126 0.001966
133 0.001995
139 0.001979
144 0.001995
147 0.001982
154 0.002029
157 0.001996
162 0.001979
166 0.001996
155 0.001007
109 0.000988
78 0.000999
55 0.001995
42 0.001986
40 0.001993
46 0.001992
60 0.002028
73 0.001995
79 0.00199
82 0.001995
83 0.001994
87 0.001995
95 0.001994
100 0.000986
108 0.000997
114 0.001009
122 0.001012
129 0.000971
139 0.000997
144 0.001995
149 0.001995
154 0.001994
160 0.001995
162 0.000997
168 0.000999
168 0.001004
147 0.001024
111 0.000997
79 0.000997
53 0.001001
47 0.000997
52 0.000997
66 0.000997
77 0.001006
84 0.001003
88 0.000997
90 0.001016
90 0.000995
97 0.001003
104 0.000984
109 0.0
118 0.001021
127 0.000998
135 0.000997
140 0.000998
142 0.000998
147 0.000997
149 0.000998
153 0.0
158 0.0
163 0.0
166 0.0
168 0.0
153 0.0
104 0.000998
68 0.0
57 0.0
55 0.0
61 0.000998
75 0.000998
89 0.0
94 0.001009
99 0.0
99 0.0
100 0.0
107 0.0
113 0.0
121 0.0
126 0.0
134 0.0
141 0.0
144 0.0
146 0.000989
153 0.001013
157 0.000997
159 0.0
165 0.0
167 0.0
172 0.0
173 0.0
169 0.0
144 0.0
105 0.0
67 0.0
55 0.0
52 0.000998
54 0.000996
68 0.0
80 0.0
88 0.0
91 0.0
94 0.0
97 0.001004
103 0.001003
109 0.0
113 0.0
124 0.0
130 0.001017
135 0.001
143 0.0
147 0.0
150 0.0
156 0.0
159 0.0
164 0.000998
168 0.000997
172 0.00104
178 0.001036
178 0.001002
160 0.001957
121 0.001991
77 0.00103
62 0.000995
50 0.001023
47 0.000998
53 0.000998
71 0.001045
81 0.000998
91 0.001039
91 0.001028
91 0.000996
95 0.001993
102 0.001988
109 0.001007
117 0.000985
129 0.001054
137 0.000998
142 0.002071
145 0.001053
149 0.001995
153 0.002031
158 0.001046
162 0.002039
164 0.001998
169 0.001985
173 0.001999
178 0.000975
178 0.00205
161 0.001046
122 0.001033
84 0.001032
64 0.002992
56 0.002992
55 0.001975
66 0.002026
79 0.001983
90 0.002988
94 0.002005
98 0.000998
98 0.001997
102 0.00103
107 0.00105
113 0.00203
119 0.002992
126 0.003027
133 0.002024
139 0.002027
142 0.001997
145 0.003007
148 0.003023
154 0.00203
157 0.002992
161 0.002026
162 0.002994
164 0.002995
172 0.002992
174 0.003027
167 0.002026
134 0.001954
96 0.001965
66 0.003024
54 0.003028
51 0.001998
62 0.003035
75 0.002029
86 0.003023
93 0.003023
94 0.004051
95 0.003984
102 0.003022
105 0.002985
108 0.003024
115 0.002986
124 0.003024
130 0.004022
138 0.003027
143 0.002031
149 0.00301
153 0.002996
155 0.003989
158 0.004026
164 0.003023
165 0.00297
168 0.00298
173 0.004
178 0.003997
171 0.002999
129 0.003989
88 0.002996
64 0.004027
50 0.00402
42 0.003989
45 0.004023
58 0.003982
72 0.003036
80 0.003023
85 0.003025
86 0.003989
87 0.00402
95 0.004988
101 0.004987
112 0.004019
118 0.004021
126 0.004024
133 0.004989
138 0.00502
143 0.003026
149 0.002966
154 0.003028
156 0.003999
159 0.004038
165 0.00399
169 0.004039
174 0.003992
177 0.003968
166 0.00402
130 0.005035
91 0.005017
57 0.004038
45 0.002989
42 0.003001
43 0.005025
60 0.004022
72 0.005
82 0.005011
83 0.004029
86 0.005033
89 0.004982
93 0.005991
97 0.005983
106 0.005017
114 0.005019
120 0.004022
128 0.004997
136 0.003996
142 0.005019
146 0.004987
150 0.004031
154 0.00499
157 0.005023
159 0.005984
161 0.006024
167 0.004991
170 0.00502
171 0.005
157 0.006018
101 0.005022
61 0.005986
47 0.005019
42 0.006029
48 0.005985
62 0.004994
72 0.005992
79 0.005984
83 0.005017
86 0.004976
88 0.004983
94 0.006032
101 0.005019
108 0.007981
113 0.007024
120 0.005984
127 0.006036
131 0.006032
136 0.006021
141 0.006981
145 0.006023
148 0.004973
152 0.004973
156 0.004959
161 0.005
164 0.005034
168 0.005984
169 0.005985
140 0.005984
100 0.005985
67 0.006017
46 0.006982
37 0.007014
39 0.006017
47 0.004972
59 0.005012
74 0.00602
77 0.007012
78 0.00602
82 0.005984
88 0.005972
93 0.006018
102 0.006017
108 0.006981
114 0.007015
124 0.006019
130 0.006023
132 0.006042
140 0.004997
143 0.00703
150 0.007979
152 0.007978
154 0.006989
158 0.007013
163 0.007015
166 0.006981
169 0.007015
148 0.006021
105 0.006028
68 0.005977
34 0.006018
27 0.006016
27 0.006983
32 0.007979
49 0.007015
58 0.007012
62 0.006983
66 0.007947
69 0.007985
71 0.007015
78 0.005952
82 0.006978
100 0.005971
109 0.006929
115 0.007979
120 0.007978
129 0.006964
133 0.00695
137 0.007014
141 0.007979
147 0.00797
151 0.006969
156 0.007014
163 0.00702
167 0.006997
160 0.007023
137 0.007945
97 0.007922
64 0.007977
34 0.006981
27 0.00697
29 0.006947
37 0.007972
49 0.00702
62 0.006996
70 0.007978
72 0.007014
75 0.007014
80 0.007014
86 0.007014
91 0.007022
103 0.006982
110 0.006948
115 0.007021
121 0.007988
129 0.00798
132 0.007012
139 0.006981
142 0.006985
146 0.006978
151 0.006981
153 0.007018
156 0.00698
160 0.006983
140 0.007014
103 0.007012
67 0.006979
43 0.006984
32 0.006978
36 0.005978
51 0.006995
63 0.007029
68 0.006981
70 0.006985
72 0.007018
75 0.007014
81 0.007011
86 0.006981
94 0.006983
101 0.006977
109 0.006981
115 0.006018
124 0.006017
129 0.006021
132 0.006984
138 0.005983
143 0.006023
145 0.006025
148 0.006029
156 0.006015
159 0.006992
158 0.006993
129 0.006979
72 0.006027
39 0.006021
25 0.005984
21 0.006019
25 0.006021
34 0.006024
49 0.006019
58 0.00602
61 0.006015
62 0.005951
67 0.004991
73 0.004972
81 0.005984
90 0.005019
99 0.006019
108 0.006021
115 0.005976
122 0.00602
125 0.006019
134 0.005021
138 0.004987
140 0.004951
144 0.004961
151 0.005039
158 0.005026
162 0.004982
147 0.005024
110 0.005985
69 0.005028
39 0.005989
23 0.005995
15 0.006016
15 0.006022
25 0.005982
40 0.004998
49 0.004987
57 0.005022
60 0.005021
68 0.005027
72 0.004977
80 0.004984
88 0.004987
98 0.004987
107 0.004987
114 0.004977
122 0.003989
129 0.003954
133 0.004953
142 0.005021
143 0.005018
150 0.005028
155 0.005029
157 0.005017
160 0.005049
163 0.005019
126 0.005022
86 0.005018
55 0.004949
36 0.004994
30 0.004025
34 0.003991
48 0.004023
63 0.003991
67 0.003993
72 0.004028
76 0.004887
76 0.003991
83 0.004023
92 0.00399
98 0.00396
105 0.003987
116 0.004036
124 0.00399
130 0.004028
135 0.003991
140 0.003989
145 0.003991
148 0.004023
152 0.003988
155 0.00398
162 0.004012
163 0.003985
151 0.002944
89 0.002998
58 0.002992
42 0.003013
36 0.002993
38 0.004006
49 0.004026
62 0.003991
69 0.00399
74 0.00402
78 0.003993
80 0.003986
86 0.00294
95 0.002992
104 0.003002
110 0.003046
115 0.002992
128 0.002992
132 0.003023
136 0.003022
143 0.003991
148 0.004029
150 0.002992
156 0.002982
163 0.002997
170 0.003035
163 0.003017
133 0.002992
91 0.002992
51 0.003041
33 0.002992
27 0.003026
29 0.002992
36 0.003045
53 0.003027
64 0.001998
70 0.00194
74 0.001995
77 0.001996
81 0.002992
87 0.002993
97 0.002029
107 0.001995
115 0.002993
123 0.002991
129 0.003047
137 0.002992
143 0.002956
147 0.001998
155 0.002001
158 0.002027
164 0.002028
170 0.002029
157 0.002029
120 0.002028
82 0.001995
51 0.002029
32 0.002022
26 0.001992
28 0.001963
35 0.002001
56 0.001996
67 0.001996
73 0.001998
75 0.002008
80 0.002026
87 0.002032
94 0.001985
101 0.001995
109 0.001996
117 0.001996
127 0.001968
134 0.001997
143 0.002017
148 0.000988
154 0.000997
159 0.000997
162 0.001016
169 0.001003
174 0.000997
169 0.002056
142 0.001996
104 0.001989
62 0.001997
49 0.001005
47 0.001006
57 0.000998
70 0.000997
80 0.000998
87 0.000998
94 0.000998
93 0.000998
99 0.000997
105 0.000998
111 0.00101
120 0.000998
130 0.000998
141 0.000993
145 0.000998
148 0.000999
152 0.000998
156 0.000996
160 0.000997
164 0.000992
169 0.000997
173 0.000998
176 0.0
157 0.0
104 0.000997
67 0.0
55 0.0
51 0.0
54 0.0
66 0.0
81 0.0
90 0.0
96 0.0
97 0.0
100 0.000997
109 0.001001
116 0.0
128 0.0
132 0.0
139 0.0
148 0.0
153 0.0
156 0.0
162 0.0
166 0.0
168 0.0
172 0.0
176 0.0
175 0.0
145 0.000997
106 0.0
75 0.0
57 0.0
46 0.0
49 0.0
54 0.000999
67 0.001039
83 0.0
90 0.0
92 0.0
96 0.0
102 0.0
108 0.000998
118 0.000997
126 0.000997
135 0.0
141 0.0
147 0.000998
151 0.000997
158 0.0
162 0.000999
164 0.0
171 0.0
176 0.0
181 0.000999
169 0.00103
117 0.0
83 0.0
59 0.0
46 0.000998
43 0.000994
49 0.000998
56 0.000998
75 0.0
89 0.000997
94 0.00096
95 0.001997
97 0.001995
106 0.001002
112 0.0
119 0.000962
127 0.001009
135 0.001995
140 0.001002
145 0.000989
152 0.001005
159 0.000974
163 0.001007
166 0.001996
169 0.002
175 0.001007
175 0.001006
151 0.00103
113 0.001995
81 0.001995
56 0.00103
53 0.000998
57 0.001003
76 0.000998
87 0.000996
93 0.001995
97 0.002992
101 0.002026
104 0.001007
109 0.001033
116 0.001995
122 0.001995
128 0.002073
139 0.001005
145 0.001995
153 0.001027
156 0.000998
159 0.002041
164 0.002992
168 0.003026
172 0.001028
178 0.002036
181 0.000997
174 0.001995
141 0.001958
103 0.001975
63 0.001995
54 0.001
56 0.001004
64 0.001996
78 0.003023
87 0.002992
96 0.001998
99 0.002033
102 0.002043
105 0.003026
111 0.002992
120 0.002955
131 0.002992
138 0.003017
144 0.002983
151 0.003049
156 0.002992
157 0.002991
165 0.002012
168 0.002014
171 0.002021
177 0.00299
182 0.002955
181 0.002
151 0.002988
99 0.003034
73 0.003025
55 0.002982
49 0.004008
47 0.004021
57 0.003023
69 0.002992
79 0.003005
86 0.003989
91 0.004024
94 0.003026
102 0.002992
112 0.002997
121 0.002993
128 0.002956
136 0.004032
144 0.004988
153 0.002985
158 0.003024
164 0.002993
170 0.004024
173 0.004022
179 0.002988
186 0.004021
193 0.003028
192 0.00303
168 0.003029
128 0.003026
97 0.004986
76 0.004987
67 0.00402
68 0.004015
74 0.004023
85 0.004022
97 0.00399
108 0.004987
111 0.00399
113 0.002986
119 0.003969
125 0.003958
134 0.004987
140 0.004986
151 0.004015
157 0.003991
162 0.004023
165 0.005021
171 0.004986
177 0.005023
182 0.005019
185 0.003027
189 0.004025
195 0.004027
197 0.004027
187 0.005019
143 0.003989
107 0.003978
86 0.00398
79 0.004989
80 0.005027
91 0.004987
103 0.004987
114 0.004023
119 0.003987
120 0.003993
121 0.004987
126 0.005984
133 0.005009
139 0.004972
147 0.005022
155 0.004986
161 0.005015
168 0.004986
173 0.004982
179 0.003993
182 0.00399
185 0.004024
187 0.006025
191 0.006017
196 0.00499
199 0.005018
194 0.004974
167 0.006016
108 0.005018
88 0.005983
79 0.006019
80 0.00503
86 0.005017
98 0.005023
109 0.006981
118 0.006983
119 0.006017
122 0.005998
127 0.005985
130 0.006984
139 0.006015
146 0.005003
153 0.006016
160 0.006037
166 0.005007
172 0.00499
177 0.005022
180 0.005984
184 0.006015
188 0.006017
191 0.006017
194 0.006005
201 0.006018
197 0.006014
171 0.00698
132 0.006982
89 0.005021
74 0.005017
68 0.005017
66 0.006018
70 0.006981
87 0.005995
98 0.005983
103 0.005977
107 0.005985
111 0.005976
117 0.006981
123 0.006982
130 0.006021
141 0.006012
145 0.006016
151 0.006981
157 0.00698
165 0.006998
166 0.007017
172 0.006017
177 0.006019
181 0.005969
185 0.006982
187 0.006995
195 0.006017
197 0.006017
186 0.005984
153 0.007015
112 0.007979
75 0.006989
66 0.007017
63 0.006981
73 0.007018
84 0.007014
95 0.007979
99 0.007979
103 0.006003
104 0.005987
106 0.005982
111 0.007979
118 0.007979
126 0.006976
133 0.007015
142 0.007014
151 0.007013
154 0.007012
157 0.007979
163 0.007981
168 0.007019
172 0.007067
173 0.007016
178 0.007978
180 0.007978
185 0.007012
177 0.007011
160 0.006962
95 0.007014
71 0.006978
59 0.006947
59 0.007978
64 0.007978
76 0.007013
89 0.006978
94 0.006974
96 0.007014
101 0.007015
104 0.007017
110 0.006979
120 0.007015
128 0.006966
135 0.007016
140 0.007018
146 0.008011
151 0.007006
158 0.00698
162 0.00703
167 0.007021
168 0.006974
175 0.006979
180 0.006986
185 0.007014
184 0.007015
159 0.007014
118 0.007015
83 0.00703
57 0.00703
50 0.007024
49 0.006014
57 0.006045
68 0.006017
83 0.006008
88 0.005951
92 0.007012
94 0.007021
98 0.006983
105 0.007027
114 0.007015
121 0.006017
129 0.006024
139 0.006031
142 0.006013
146 0.005937
156 0.006018
160 0.005999
167 0.006018
167 0.006024
172 0.005018
180 0.007026
182 0.006014
175 0.006015
144 0.006017
102 0.006014
71 0.006017
54 0.006014
44 0.00602
46 0.005971
60 0.006017
71 0.006017
82 0.005981
86 0.005987
87 0.006016
89 0.006031
96 0.005031
103 0.004983
108 0.005022
117 0.00502
125 0.005021
137 0.005991
141 0.005976
147 0.005964
152 0.006018
156 0.006017
158 0.005984
162 0.005983
170 0.005025
173 0.00502
176 0.00502
179 0.005022
160 0.005021
93 0.004999
67 0.006017
53 0.005022
52 0.005032
56 0.005018
69 0.005026
81 0.00503
89 0.005018
91 0.00502
93 0.004991
95 0.00502
101 0.005023
111 0.00499
116 0.005022
126 0.004985
132 0.004002
137 0.005033
142 0.003991
148 0.003959
152 0.004024
156 0.004021
161 0.004023
164 0.004023
166 0.003991
172 0.003942
177 0.005013
167 0.004989
130 0.004991
91 0.005021
66 0.004023
52 0.003992
48 0.004024
54 0.00399
66 0.004039
77 0.003991
84 0.005018
89 0.003993
93 0.003989
97 0.004026
104 0.004001
110 0.003034
118 0.003991
125 0.002992
134 0.002992
140 0.003955
144 0.004029
148 0.00399
154 0.00399
160 0.004001
165 0.003995
169 0.002991
175 0.00301
179 0.00399
183 0.003989
181 0.003998
160 0.003991
104 0.003023
70 0.002992
53 0.002993
40 0.003001
44 0.002993
52 0.003989
63 0.003991
78 0.00403
81 0.003959
82 0.003952
85 0.003989
92 0.004025
99 0.003031
106 0.002992
116 0.003051
128 0.00299
134 0.002988
140 0.003026
143 0.002992
151 0.002992
156 0.003023
161 0.002992
165 0.003033
170 0.003038
174 0.002028
179 0.001996
184 0.001995
182 0.001992
152 0.00296
105 0.002993
73 0.003021
46 0.002992
38 0.003024
38 0.002992
46 0.003028
57 0.003023
72 0.002992
80 0.001995
80 0.002057
86 0.001995
88 0.001948
95 0.002028
106 0.002027
113 0.001969
122 0.000966
130 0.003047
135 0.002992
138 0.001995
146 0.002014
150 0.002029
152 0.001995
157 0.001961
163 0.001996
169 0.001995
175 0.001952
178 0.001995
183 0.001995
176 0.002007
143 0.000998
100 0.000988
62 0.001996
50 0.000997
47 0.001001
59 0.001958
73 0.001956
85 0.001995
88 0.001997
88 0.001995
93 0.001976
96 0.001975
100 0.000999
107 0.001038
115 0.001008
122 0.000993
131 0.001002
139 0.001004
146 0.000994
150 0.000997
153 0.000994
157 0.001996
164 0.001998
166 0.001003
169 0.001
174 0.000997
179 0.000997
182 0.000998
183 0.000997
132 0.000995
90 0.001
62 0.000997
47 0.000997
45 0.000997
49 0.0
61 0.000998
73 0.0
82 0.000998
85 0.000998
88 0.000997
91 0.000998
101 0.0
108 0.0
114 0.0
123 0.0
131 0.000997
138 0.0
144 0.0
150 0.0
153 0.0
156 0.0
164 0.0
166 0.0
173 0.0
177 0.0
180 0.0
185 0.0
188 0.0
171 0.0
130 0.0
87 0.0
59 0.0
41 0.0
36 0.0
40 0.0
53 0.0
66 0.0
75 0.0
78 0.0
79 0.001001
86 0.0
92 0.000997
99 0.001995
105 0.000997
119 0.0
124 0.0
134 0.0
139 0.0
146 0.000937
152 0.00103
157 0.0
161 0.0
167 0.0
170 0.000999
172 0.000997
181 0.0
184 0.0
186 0.0
167 0.0
124 0.001012
83 0.001997
56 0.002028
38 0.0
35 0.0
37 0.0
47 0.001028
60 0.001029
71 0.0
72 0.0
76 0.0
82 0.000988
92 0.0
97 0.001958
104 0.001995
115 0.001005
123 0.002025
127 0.001031
132 0.002018
136 0.001995
142 0.000975
147 0.000998
152 0.000968
158 0.001972
162 0.001002
164 0.001982
168 0.001996
173 0.0
167 0.000962
133 0.001042
91 0.001996
59 0.001953
39 0.001038
37 0.000997
45 0.000998
64 0.000983
74 0.00102
78 0.002
78 0.002991
83 0.001031
84 0.000998
90 0.001976
98 0.002979
104 0.002992
113 0.000996
121 0.002019
127 0.000995
136 0.000995
138 0.000996
142 0.000984
147 0.002992
152 0.00299
157 0.002026
163 0.001957
167 0.001996
171 0.002992
162 0.003
116 0.002055
75 0.001041
36 0.000988
28 0.001994
30 0.00099
40 0.003024
50 0.003033
66 0.001993
71 0.001995
73 0.001998
74 0.003025
79 0.002992
89 0.001975
94 0.002046
107 0.001997
115 0.001995
123 0.001979
129 0.003989
134 0.00399
142 0.003023
145 0.001998
147 0.001997
152 0.002991
159 0.002992
162 0.002012
169 0.002996
155 0.002997
117 0.002006
76 0.00298
45 0.004036
27 0.003991
22 0.003025
22 0.003028
30 0.00302
44 0.004026
57 0.004003
63 0.00303
69 0.005019
75 0.001994
83 0.001988
90 0.002961
96 0.003989
107 0.00404
117 0.002994
123 0.002994
131 0.002999
139 0.00399
143 0.003989
148 0.002986
154 0.003971
162 0.001977
166 0.003023
171 0.002008
176 0.004026
181 0.005004
162 0.004989
102 0.004021
67 0.003026
44 0.00299
33 0.004012
28 0.003989
38 0.004022
52 0.004031
66 0.002992
72 0.002964
76 0.002999
81 0.004025
85 0.003989
94 0.003986
104 0.003993
111 0.003995
120 0.004986
127 0.004993
139 0.005038
145 0.005015
149 0.003023
156 0.00302
163 0.004029
165 0.006018
169 0.004988
176 0.004032
181 0.003975
183 0.003993
188 0.005026
186 0.004991
126 0.004988
86 0.005024
58 0.003024
53 0.00399
54 0.00402
61 0.006026
74 0.005983
89 0.004023
91 0.005018
93 0.003987
98 0.005988
103 0.005984
114 0.006024
120 0.006024
129 0.003999
137 0.004023
143 0.00495
146 0.006029
151 0.005984
156 0.003986
161 0.005018
166 0.004969
169 0.005984
173 0.00598
179 0.005961
181 0.005972
189 0.005027
191 0.003987
184 0.005022
155 0.005982
110 0.006022
69 0.006015
58 0.005024
56 0.004988
58 0.006981
71 0.007963
86 0.004984
94 0.006022
95 0.006017
98 0.003973
103 0.005983
109 0.005955
115 0.00603
122 0.007029
133 0.005948
140 0.005984
144 0.006014
148 0.006981
155 0.005025
158 0.007031
166 0.007012
169 0.006008
174 0.004976
178 0.004988
181 0.007026
183 0.00801
191 0.005971
193 0.005984
181 0.005988
114 0.005986
79 0.005991
59 0.00702
47 0.007018
43 0.005992
51 0.00598
59 0.007013
75 0.00795
80 0.007978
87 0.005982
87 0.005945
90 0.006016
98 0.005953
109 0.005993
116 0.007962
123 0.008013
134 0.005988
138 0.005959
142 0.005983
146 0.006981
155 0.007971
156 0.007012
161 0.006957
166 0.007013
171 0.007015
176 0.006972
179 0.007962
184 0.007961
186 0.007015
183 0.005972
152 0.005967
95 0.007014
65 0.007019
48 0.006985
41 0.006984
41 0.006969
55 0.006972
65 0.006995
76 0.007981
81 0.007977
83 0.007976
84 0.006982
92 0.007018
99 0.006979
104 0.007016
114 0.007016
123 0.006982
128 0.006983
136 0.006969
140 0.006974
144 0.006979
150 0.006981
151 0.006975
156 0.006981
162 0.007013
164 0.006979
170 0.007012
174 0.007023
177 0.006992
179 0.006983
141 0.006978
100 0.006983
69 0.005988
52 0.006023
50 0.006979
54 0.006015
64 0.006014
77 0.007017
86 0.007018
88 0.007017
89 0.006963
92 0.00699
100 0.006993
106 0.00694
112 0.006981
118 0.006984
125 0.00698
132 0.006022
138 0.006022
143 0.006021
148 0.005983
151 0.006022
156 0.006022
161 0.006019
165 0.006973
170 0.006974
171 0.006982
177 0.006979
180 0.006941
164 0.006005
125 0.006018
88 0.006023
63 0.006018
49 0.00602
48 0.006015
52 0.006021
70 0.005992
77 0.004969
82 0.005989
87 0.005981
88 0.004973
92 0.005015
100 0.004985
105 0.005022
111 0.00602
120 0.005988
127 0.005987
136 0.005982
143 0.005982
148 0.005982
153 0.004985
159 0.004966
163 0.00497
164 0.00504
171 0.005021
175 0.004981
177 0.004986
181 0.005029
186 0.005026
144 0.005018
99 0.003959
57 0.005985
43 0.004977
36 0.004987
34 0.004986
41 0.005022
58 0.005021
67 0.005028
73 0.00502
76 0.005012
79 0.00502
86 0.004946
92 0.004957
103 0.003957
112 0.003947
118 0.004954
125 0.003953
132 0.004987
137 0.003989
143 0.003989
150 0.005017
155 0.004033
159 0.004877
166 0.003956
169 0.004984
177 0.003959
179 0.003958
181 0.003984
179 0.004023
152 0.004021
93 0.004019
64 0.00402
48 0.003981
41 0.004039
42 0.003989
56 0.004956
71 0.004998
80 0.003951
81 0.003961
83 0.003956
88 0.003972
92 0.00402
99 0.003989
107 0.003989
115 0.003989
120 0.003986
125 0.00399
135 0.003991
140 0.002987
145 0.004016
149 0.002991
153 0.00299
157 0.002979
160 0.00303
163 0.003023
170 0.003026
172 0.002992
167 0.004021
140 0.00399
75 0.003989
54 0.003959
45 0.003987
46 0.003165
56 0.002973
68 0.002942
78 0.003027
82 0.003028
86 0.003028
86 0.002992
91 0.003023
97 0.003042
110 0.002987
116 0.002999
122 0.002989
134 0.001985
139 0.001989
141 0.002952
146 0.003027
152 0.002992
156 0.002992
160 0.003013
167 0.003025
171 0.002992
178 0.002991
179 0.002993
158 0.002996
105 0.001998
72 0.002991
53 0.00199
45 0.001995
45 0.001993
51 0.001996
64 0.001996
77 0.001996
83 0.001995
89 0.00201
90 0.001006
97 0.000996
105 0.002021
111 0.001972
120 0.001994
129 0.001995
135 0.002028
143 0.001995
151 0.001995
155 0.001996
164 0.002014
167 0.00199
171 0.001002
177 0.000991
183 0.001995
187 0.001036
191 0.000997
173 0.000999
132 0.001121
94 0.001041
68 0.000998
57 0.000997
55 0.001994
66 0.000997
79 0.000998
91 0.000996
96 0.00199
101 0.001974
102 0.00201
106 0.002037
111 0.001997
120 0.002003
131 0.000998
137 0.000998
149 0.001
154 0.000966
160 0.001004
165 0.001003
165 0.001022
174 0.000989
176 0.000998
180 0.000937
184 0.000998
190 0.001994
189 0.001986
173 0.0
110 0.001033
85 0.001006
73 0.001008
70 0.001
73 0.001027
88 0.001026
97 0.000993
104 0.000998
107 0.000998
109 0.000998
112 0.0
119 0.0
128 0.0
134 0.0
142 0.0
147 0.0
153 0.0
158 0.0
162 0.0
166 0.000989
171 0.000998
172 0.001
177 0.0
183 0.0
188 0.0
184 0.0
154 0.0
117 0.0
89 0.0
67 0.0
65 0.0
68 0.0
76 0.001
90 0.000993
99 0.001026
100 0.002027
105 0.00199
108 0.001998
114 0.001996
124 0.0
130 0.0
138 0.0
145 0.000997
151 0.001
156 0.0
162 0.001012
164 0.0
165 0.001045
173 0.000962
176 0.000999
182 0.001997
183 0.0
168 0.0
131 0.0
94 0.001994
69 0.002029
51 0.0
48 0.0
48 0.0
55 0.001032
75 0.0
82 0.000982
85 0.000993
87 0.0
92 0.0
97 0.000998
107 0.002007
114 0.000998
128 0.0
135 0.0
139 0.0
149 0.001013
153 0.0
160 0.001996
163 0.001065
168 0.000958
173 0.000958
178 0.000995
179 0.001994
177 0.001995
140 0.001
99 0.0
73 0.002031
53 0.000987
55 0.001005
60 0.002989
73 0.001999
89 0.00098
95 0.000994
97 0.0
100 0.001959
104 0.002008
112 0.000953
118 0.0
126 0.001993
139 0.0
147 0.0
151 0.00196
154 0.001963
162 0.001
165 0.000988
166 0.000991
173 0.001998
178 0.003034
179 0.000997
185 0.000999
187 0.000963
144 0.001995
107 0.000996
90 0.002992
72 0.00194
70 0.001996
75 0.000999
88 0.001994
102 0.001025
107 0.002992
109 0.002992
113 0.002007
115 0.001004
125 0.000992
129 0.001001
136 0.000967
143 0.003001
151 0.002989
156 0.001975
160 0.001
166 0.001
170 0.002992
171 0.003008
178 0.001996
182 0.001959
187 0.001993
190 0.002003
188 0.002002
166 0.00299
126 0.002994
86 0.000987
76 0.001999
68 0.000989
68 0.003998
74 0.003989
94 0.002003
102 0.002003
108 0.002005
111 0.001978
116 0.002022
120 0.003
124 0.00299
137 0.002988
141 0.002991
147 0.003002
153 0.003989
159 0.004024
162 0.003029
168 0.003024
173 0.001996
178 0.002961
182 0.002005
186 0.004954
189 0.003026
195 0.00301
192 0.002993
170 0.002988
130 0.003989
98 0.004033
71 0.002993
64 0.002029
66 0.002958
77 0.001999
90 0.002005
98 0.005003
105 0.00502
108 0.002993
108 0.002989
114 0.002963
121 0.004986
126 0.00403
134 0.002992
142 0.001995
149 0.004031
155 0.002954
158 0.002019
163 0.001969
167 0.005021
171 0.004984
175 0.002951
179 0.003011
182 0.003021
185 0.004986
187 0.005001
189 0.004994
168 0.005022
114 0.002997
85 0.00301
73 0.002998
70 0.00503
72 0.004995
84 0.003073
98 0.002992
106 0.00394
107 0.004988
108 0.005019
113 0.005039
117 0.005023
123 0.00302
131 0.003041
139 0.003988
143 0.005023
147 0.005023
155 0.004014
157 0.004005
160 0.003988
166 0.005984
168 0.006016
173 0.005018
177 0.005986
182 0.003025
186 0.003993
186 0.003025
174 0.004953
138 0.004986
91 0.004019
70 0.005
62 0.004983
64 0.005973
71 0.00602
92 0.006027
102 0.006017
106 0.003998
107 0.00399
109 0.003986
112 0.006017
117 0.006038
126 0.003984
133 0.00399
140 0.004984
147 0.006015
153 0.006015
159 0.006019
162 0.005984
169 0.004003
172 0.003982
173 0.003986
178 0.005978
183 0.005987
187 0.003972
189 0.004985
177 0.004983
139 0.006973
98 0.007014
60 0.004983
53 0.006038
52 0.006017
59 0.00399
72 0.003996
86 0.004987
93 0.006024
96 0.007014
100 0.005025
103 0.005987
108 0.004989
115 0.006982
127 0.004994
136 0.007017
144 0.007039
149 0.005
156 0.00599
162 0.005999
164 0.006022
167 0.007004
175 0.005983
178 0.005997
182 0.005985
187 0.006983
190 0.004985
172 0.00699
131 0.007026
83 0.005021
66 0.006028
58 0.005978
57 0.007949
67 0.007942
80 0.005983
90 0.005981
100 0.005961
104 0.006973
109 0.005996
113 0.007988
118 0.007014
128 0.005984
134 0.00698
141 0.007005
151 0.007977
152 0.007955
157 0.006079
161 0.006977
167 0.007013
172 0.006021
177 0.006024
182 0.007961
183 0.007973
189 0.005989
186 0.005989
145 0.006981
106 0.006973
80 0.007975
68 0.006988
69 0.006989
76 0.00695
95 0.006019
105 0.006974
109 0.007978
112 0.007994
113 0.006974
118 0.006976
120 0.006022
128 0.006989
134 0.006979
141 0.006976
148 0.006979
152 0.006972
157 0.006967
161 0.006985
163 0.006942
166 0.007957
170 0.00701
177 0.006978
180 0.006965
178 0.007014
157 0.006979
121 0.006981
87 0.006981
68 0.006981
60 0.006971
68 0.006983
75 0.006949
91 0.006984
100 0.00602
103 0.005971
102 0.006031
108 0.005978
113 0.006943
119 0.006981
127 0.006945
136 0.007015
148 0.006944
148 0.006977
156 0.006984
158 0.005983
162 0.006015
166 0.005985
169 0.00602
174 0.005987
179 0.005975
180 0.005986
157 0.004987
117 0.006012
67 0.006964
53 0.006985
44 0.006981
46 0.006981
55 0.006014
70 0.005958
83 0.005987
90 0.005988
93 0.006016
95 0.005988
103 0.006017
109 0.005992
122 0.005968
127 0.005993
137 0.005982
144 0.00598
149 0.005984
154 0.00598
160 0.004995
163 0.004987
167 0.005976
171 0.006004
178 0.00598
180 0.006016
152 0.005985
112 0.005984
79 0.005981
60 0.005979
52 0.004983
49 0.004966
58 0.004986
71 0.004989
82 0.004974
93 0.004987
99 0.004987
98 0.005019
105 0.004984
114 0.004985
123 0.004987
130 0.00595
136 0.004951
143 0.004956
152 0.005823
154 0.004982
157 0.004991
163 0.004987
167 0.005021
172 0.005015
178 0.005005
182 0.003978
172 0.004955
136 0.00499
99 0.004949
75 0.003954
66 0.004984
67 0.003948
75 0.003986
90 0.003993
101 0.004987
110 0.004995
110 0.004996
114 0.004987
118 0.004954
123 0.004952
130 0.004955
139 0.003993
147 0.00398
151 0.003958
158 0.003953
162 0.003962
162 0.003989
168 0.003949
173 0.003968
179 0.004958
181 0.005004
184 0.005004
182 0.004954
153 0.003954
101 0.003959
79 0.003953
68 0.00399
64 0.003958
67 0.003989
86 0.003948
99 0.002995
104 0.00399
108 0.003957
111 0.004004
115 0.002986
119 0.002995
129 0.003977
135 0.002961
141 0.003945
147 0.003025
153 0.003989
160 0.003989
164 0.003967
167 0.003956
170 0.003988
176 0.00401
178 0.003986
181 0.003989
183 0.003989
151 0.003991
107 0.003993
76 0.00396
60 0.002993
50 0.002994
51 0.002989
59 0.002989
80 0.002991
88 0.00298
91 0.002991
92 0.002991
95 0.002993
103 0.002992
110 0.002993
119 0.002956
129 0.002989
139 0.002978
144 0.002987
148 0.002993
156 0.003024
157 0.002982
160 0.002984
164 0.002983
171 0.002975
172 0.002997
177 0.002992
171 0.002004
135 0.002992
73 0.001998
54 0.002002
49 0.001992
51 0.001994
60 0.001986
75 0.00299
86 0.002984
92 0.003026
95 0.002997
99 0.002003
100 0.002996
106 0.001938
117 0.001999
124 0.002013
132 0.00199
139 0.001999
145 0.002024
150 0.001986
154 0.002008
157 0.002017
163 0.001998
165 0.001034
168 0.001966
171 0.001989
161 0.002009
123 0.001997
86 0.001989
56 0.002034
50 0.002025
52 0.002009
59 0.002004
71 0.00202
89 0.001963
93 0.000997
95 0.000996
98 0.000997
105 0.001009
113 0.000994
119 0.001013
130 0.002007
138 0.001993
142 0.001976
147 0.002022
151 0.001
157 0.001999
160 0.000999
163 0.001018
172 0.001035
176 0.001002
179 0.002001
182 0.000998
168 0.000975
115 0.002003
76 0.001017
53 0.001986
43 0.001995
44 0.002026
49 0.0
61 0.001015
82 0.000998
88 0.000998
89 0.001
91 0.001
99 0.000993
106 0.000999
113 0.000999
123 0.0
132 0.0
137 0.0
144 0.0
150 0.0
158 0.0
162 0.0
164 0.0
169 0.000997
174 0.000992
177 0.001006
183 0.000998
186 0.000999
170 0.0
128 0.0
77 0.0
53 0.0
41 0.0
40 0.0
49 0.0
64 0.0
79 0.00099
87 0.000984
90 0.0
94 0.000997
99 0.00101
103 0.000997
116 0.00102
123 0.001004
136 0.0
141 0.0
147 0.0
153 0.0
156 0.0
162 0.001955
167 0.0
168 0.0
176 0.0
178 0.0
182 0.001996
184 0.002032
165 0.001996
124 0.001994
75 0.0
58 0.0
53 0.000988
57 0.0
65 0.000965
79 0.001
91 0.000996
99 0.000996
99 0.0
103 0.002011
110 0.000997
117 0.001995
124 0.000989
133 0.0
139 0.0
145 0.000991
147 0.001998
153 0.001992
158 0.000973
161 0.0
164 0.0
168 0.002009
173 0.0
177 0.001992
181 0.001185
181 0.0
156 0.0
113 0.0
75 0.002006
57 0.001982
52 0.000994
57 0.000997
69 0.0
85 0.001987
98 0.0
98 0.001981
100 0.001995
106 0.0
112 0.0
117 0.0
126 0.002009
135 0.002001
140 0.0
147 0.000966
153 0.001993
161 0.001995
163 0.002
165 0.002012
169 0.001996
174 0.001992
177 0.0
182 0.000987
186 0.002001
177 0.001995
122 0.000987
83 0.000999
57 0.000968
43 0.001966
42 0.001998
50 0.001957
64 0.002957
79 0.001993
85 0.001997
88 0.001993
93 0.00201
96 0.002019
106 0.000997
114 0.001995
121 0.001013
135 0.000968
139 0.001
145 0.000999
150 0.002985
153 0.00302
157 0.001001
164 0.001
166 0.001996
168 0.001994
172 0.002014
180 0.001957
178 0.001998
126 0.001992
83 0.002027
55 0.002012
39 0.002988
34 0.002995
36 0.002013
46 0.002018
60 0.001993
72 0.00404
79 0.00398
80 0.00199
85 0.00103
95 0.001991
104 0.000998
113 0.000994
121 0.003033
126 0.003006
136 0.00199
141 0.000974
144 0.000966
148 0.003983
155 0.004024
157 0.001993
161 0.001997
168 0.001961
173 0.002017
174 0.002052
163 0.004041
128 0.004027
75 0.001957
48 0.001995
39 0.00198
39 0.004023
46 0.00402
62 0.003004
76 0.002978
86 0.003006
86 0.003025
88 0.00196
93 0.00399
101 0.004036
108 0.001949
118 0.002017
126 0.001996
132 0.004024
137 0.004993
144 0.002964
148 0.002996
153 0.00299
154 0.003018
158 0.00198
163 0.00401
168 0.00402
170 0.001967
172 0.002002
155 0.001988
111 0.004038
69 0.005019
47 0.003991
36 0.002002
41 0.004987
55 0.00303
70 0.002996
80 0.002987
82 0.005025
83 0.004985
91 0.002983
96 0.0029
101 0.002984
111 0.004975
117 0.005017
132 0.004987
138 0.004987
144 0.001995
149 0.002984
153 0.00295
157 0.006019
158 0.005985
163 0.004022
166 0.003024
170 0.003988
175 0.00502
180 0.00498
145 0.005017
97 0.005021
50 0.004026
34 0.003024
25 0.002942
24 0.004986
30 0.005026
50 0.003996
61 0.003982
68 0.003947
72 0.006017
76 0.006016
84 0.005984
90 0.005984
103 0.003989
113 0.003033
119 0.003992
126 0.005028
133 0.005968
139 0.003983
143 0.003975
151 0.002991
155 0.005953
159 0.005982
164 0.005988
168 0.005987
174 0.003981
178 0.00303
169 0.003033
132 0.007025
87 0.005984
43 0.004023
30 0.003989
27 0.003967
27 0.005975
34 0.006019
59 0.006021
67 0.005984
73 0.004966
75 0.00399
81 0.005024
88 0.005013
96 0.007022
103 0.007023
115 0.004982
122 0.004984
127 0.00402
134 0.007025
142 0.005987
148 0.007028
152 0.007014
155 0.005984
161 0.005995
163 0.005986
167 0.007
171 0.007028
177 0.005012
168 0.004996
134 0.004995
88 0.007043
46 0.005976
40 0.006976
43 0.006988
57 0.005984
72 0.004989
82 0.005987
87 0.007966
89 0.007979
91 0.005988
95 0.005992
102 0.00698
110 0.007028
123 0.005962
129 0.006978
133 0.006982
142 0.006057
147 0.005986
149 0.005993
157 0.007976
160 0.007986
161 0.006006
165 0.005985
171 0.005955
173 0.007979
179 0.005992
166 0.007018
126 0.007014
71 0.006992
46 0.006044
35 0.005954
33 0.007944
39 0.007993
53 0.006022
67 0.004988
77 0.004986
81 0.007978
83 0.005986
92 0.007014
98 0.007982
105 0.00602
112 0.00698
121 0.006983
131 0.006976
136 0.006981
145 0.006976
149 0.006994
153 0.006981
158 0.006979
158 0.006992
162 0.006979
167 0.007948
170 0.006991
171 0.006986
160 0.006972
99 0.006982
58 0.006955
35 0.006987
18 0.006975
16 0.006975
19 0.006945
35 0.00698
45 0.005973
47 0.006015
49 0.005983
51 0.006974
55 0.007022
62 0.006982
71 0.006984
78 0.006986
89 0.006982
102 0.006973
115 0.006983
117 0.006976
123 0.006985
128 0.006955
136 0.00598
139 0.005986
143 0.005981
148 0.005984
152 0.005982
151 0.00601
115 0.005983
73 0.006964
27 0.007004
13 0.007013
14 0.006985
23 0.006027
38 0.005984
55 0.005986
63 0.005988
66 0.005981
66 0.005992
67 0.00598
78 0.005988
85 0.005981
99 0.006014
107 0.005985
116 0.005027
124 0.00502
128 0.004983
131 0.006013
136 0.005979
138 0.006004
141 0.006003
147 0.006025
156 0.005969
157 0.005976
118 0.006014
76 0.005984
48 0.005022
36 0.004982
33 0.004986
46 0.004985
60 0.004981
71 0.004987
77 0.004986
81 0.005963
80 0.005979
83 0.005974
90 0.006016
99 0.005983
106 0.005018
114 0.004977
120 0.004985
127 0.004986
136 0.004987
142 0.004988
147 0.004991
152 0.005015
157 0.005035
163 0.005025
166 0.004988
140 0.005035
96 0.005156
60 0.005035
42 0.005996
36 0.005989
34 0.003999
43 0.003988
57 0.004001
67 0.004852
73 0.005017
78 0.004988
80 0.005016
89 0.004987
95 0.004986
103 0.004987
115 0.004985
124 0.004987
133 0.003989
144 0.003989
148 0.00399
151 0.00399
153 0.00399
158 0.003977
164 0.004028
170 0.003963
167 0.004029
137 0.00503
94 0.003939
60 0.00399
35 0.003988
27 0.003982
27 0.00399
29 0.00399
44 0.00399
65 0.003988
72 0.004021
75 0.003992
80 0.003967
89 0.003963
97 0.003998
105 0.003997
120 0.003989
129 0.003957
135 0.002972
142 0.003987
149 0.002999
158 0.004024
162 0.00399
168 0.004016
173 0.003024
179 0.003989
175 0.003995
149 0.003996
94 0.004004
61 0.002991
47 0.003012
41 0.002998
43 0.00299
59 0.002993
72 0.002975
81 0.002992
89 0.002992
93 0.003966
96 0.003998
103 0.003994
112 0.00297
122 0.002956
130 0.00299
140 0.002991
146 0.003006
156 0.003037
160 0.002986
164 0.002992
170 0.001994
173 0.002032
179 0.002993
186 0.001977
187 0.002
156 0.001956
115 0.001965
82 0.002005
65 0.002989
61 0.002988
67 0.003001
80 0.002988
96 0.003023
102 0.002992
106 0.001981
110 0.001982
113 0.001996
123 0.001957
129 0.001959
136 0.001987
142 0.001958
155 0.001993
161 0.002028
167 0.002026
171 0.001996
174 0.002034
179 0.002005
183 0.001995
187 0.001969
194 0.002009
197 0.001962
180 0.001991
141 0.001996
85 0.002004
71 0.002022
63 0.00203
63 0.002027
74 0.000998
86 0.001004
95 0.001962
100 0.001006
105 0.001033
106 0.000994
113 0.00101
121 0.001971
135 0.001995
141 0.00205
151 0.002
159 0.00201
163 0.001995
165 0.002018
169 0.00198
174 0.000983
180 0.001009
183 0.002001
188 0.001003
194 0.000998
198 0.001005
188 0.000997
150 0.001995
109 0.001996
74 0.002022
60 0.002
55 0.000975
58 0.000993
66 0.000991
81 0.001006
92 0.001004
100 0.000997
101 0.000997
103 0.000982
111 0.000997
121 0.000998
129 0.0
139 0.0
148 0.0
153 0.0
159 0.0
168 0.0
171 0.0
177 0.001012
180 0.000998
184 0.000997
189 0.000997
195 0.000997
200 0.000998
203 0.0
183 0.0
143 0.0
103 0.0
76 0.0
64 0.0
67 0.0
74 0.0
88 0.0
100 0.0
106 0.001
107 0.000998
112 0.0
117 0.0
122 0.0
129 0.0
140 0.0
147 0.0
157 0.0
163 0.002022
170 0.0
173 0.0
177 0.0
181 0.002012
184 0.001995
188 0.0
195 0.0
197 0.0
199 0.001999
198 0.00199
146 0.000995
111 0.000998
90 0.000979
82 0.000985
85 0.0
95 0.0
107 0.000999
119 0.000998
124 0.0
124 0.0
125 0.0
131 0.001995
140 0.0
148 0.002028
154 0.002031
162 0.0
168 0.0
171 0.0
174 0.001996
179 0.002015
183 0.000984
185 0.0
187 0.0
192 0.001989
199 0.0
200 0.002024
202 0.002026
187 0.0
147 0.0
105 0.0
82 0.001996
75 0.002
71 0.0
78 0.001011
92 0.0
104 0.001004
111 0.0
113 0.002012
114 0.00103
122 0.0
127 0.0
135 0.0
144 0.001995
151 0.001994
159 0.0
166 0.0
168 0.0
171 0.001989
177 0.0
180 0.001979
184 0.001991
187 0.0
192 0.001006
196 0.0
200 0.001995
191 0.001957
137 0.0
98 0.0
71 0.0
56 0.002006
50 0.0
57 0.001995
69 0.002041
83 0.001996
89 0.002036
94 0.001034
96 0.00201
99 0.001996
109 0.001991
117 0.000963
125 0.001977
137 0.001979
144 0.001981
151 0.002992
156 0.003023
160 0.003026
168 0.002009
171 0.001994
172 0.001998
175 0.002991
180 0.003036
185 0.002991
189 0.000991
180 0.002008
143 0.000997
102 0.001986
72 0.002992
58 0.002992
52 0.002015
55 0.001996
65 0.001997
80 0.003009
90 0.003018
94 0.001999
97 0.002
104 0.001989
111 0.001997
118 0.002102
125 0.003024
134 0.002985
144 0.001995
148 0.001995
152 0.001993
159 0.003027
163 0.003993
167 0.00101
171 0.001992
176 0.001992
180 0.001984
182 0.001991
185 0.00402
187 0.003989
160 0.001995
119 0.002013
87 0.000997
71 0.002992
65 0.002983
71 0.002001
84 0.001995
102 0.001993
108 0.001996
107 0.001995
111 0.00399
114 0.004022
119 0.001962
126 0.001993
134 0.002014
139 0.003998
145 0.00399
153 0.001984
157 0.001991
166 0.003004
166 0.002993
169 0.002994
174 0.00502
175 0.004987
179 0.002993
185 0.001988
188 0.002002
181 0.003995
149 0.004021
96 0.001989
69 0.003022
58 0.003998
59 0.001988
69 0.002031
84 0.003
93 0.004987
96 0.004986
101 0.002991
102 0.003011
105 0.002985
111 0.004993
120 0.004988
128 0.003994
138 0.005984
146 0.003026
152 0.003027
156 0.002995
159 0.005014
163 0.00503
169 0.002994
170 0.002062
176 0.002995
181 0.005954
184 0.00602
186 0.003024
154 0.005984
96 0.00299
66 0.002978
47 0.003007
40 0.005975
40 0.005034
49 0.002961
62 0.002973
74 0.002995
82 0.005026
84 0.005008
87 0.004986
91 0.005025
102 0.004018
110 0.003985
118 0.003973
127 0.005975
135 0.005986
142 0.003989
146 0.003996
152 0.003021
156 0.004984
157 0.006018
163 0.005984
168 0.005984
174 0.004999
179 0.005003
178 0.004987
156 0.006982
111 0.006981
63 0.003964
46 0.003982
38 0.003965
38 0.00602
44 0.006021
64 0.005984
75 0.007034
79 0.004989
83 0.004953
87 0.004974
92 0.006939
100 0.006937
110 0.005008
118 0.004954
125 0.003999
132 0.004993
138 0.007014
147 0.002946
152 0.006017
155 0.005984
160 0.004064
164 0.00502
167 0.005003
170 0.006981
175 0.007016
179 0.004939
170 0.003987
136 0.004951
95 0.007014
55 0.005006
50 0.007008
51 0.006981
68 0.004985
81 0.005982
89 0.005992
95 0.00798
94 0.007978
96 0.005983
103 0.005954
109 0.004976
116 0.006965
128 0.005017
131 0.006984
139 0.006981
146 0.004988
149 0.005982
152 0.005981
156 0.007976
159 0.007977
162 0.005983
167 0.005985
171 0.005963
175 0.007977
171 0.005986
126 0.007978
99 0.007979
61 0.005984
50 0.006021
49 0.005952
59 0.007943
68 0.007981
85 0.005984
92 0.006003
94 0.006006
96 0.007976
101 0.005997
110 0.007972
117 0.007976
128 0.006971
133 0.006978
140 0.006955
145 0.006979
151 0.00698
156 0.006019
159 0.006016
161 0.006025
167 0.007973
169 0.005989
176 0.007973
179 0.007016
172 0.00698
122 0.006965
93 0.006026
62 0.006976
43 0.00702
37 0.006963
41 0.006978
55 0.00695
67 0.006943
80 0.005949
82 0.005993
84 0.006986
89 0.006047
98 0.006981
107 0.006994
111 0.006981
125 0.007014
132 0.00698
140 0.006968
142 0.006964
150 0.006959
156 0.006981
159 0.006975
162 0.006991
168 0.00602
173 0.005982
179 0.006016
173 0.005981
141 0.006019
94 0.005982
55 0.006976
40 0.006984
33 0.005988
36 0.006975
46 0.006977
64 0.006026
72 0.006024
76 0.005989
83 0.005985
86 0.005984
91 0.006027
100 0.005983
113 0.005984
119 0.005984
133 0.005987
139 0.006952
145 0.006008
149 0.006026
153 0.005985
159 0.005991
162 0.005978
164 0.005985
169 0.006017
174 0.005991
177 0.005986
171 0.004983
109 0.005985
75 0.005021
55 0.005022
48 0.005049
47 0.00502
62 0.005018
75 0.004989
85 0.006019
90 0.006016
94 0.00498
95 0.005981
102 0.004973
113 0.004992
121 0.005028
129 0.00502
135 0.004992
142 0.004987
148 0.004986
152 0.005022
158 0.004962
163 0.004922
164 0.00499
166 0.004995
174 0.004991
176 0.004027
182 0.005035
176 0.004988
147 0.004965
105 0.005021
76 0.00502
56 0.00502
58 0.004988
61 0.005042
74 0.004972
86 0.004987
97 0.003983
100 0.004021
103 0.003985
107 0.004014
114 0.004021
122 0.004024
130 0.004016
139 0.00402
148 0.005021
153 0.00502
156 0.004952
160 0.005024
167 0.00499
171 0.00399
175 0.003991
179 0.004025
185 0.003968
188 0.004024
188 0.004017
161 0.004026
116 0.003988
77 0.00399
56 0.00395
48 0.003986
43 0.003999
55 0.00399
72 0.004035
83 0.002996
88 0.004028
89 0.002992
93 0.002992
101 0.004021
108 0.003958
117 0.003983
125 0.003955
134 0.003997
146 0.004017
150 0.003023
157 0.00303
162 0.003025
166 0.002992
168 0.002986
172 0.002998
177 0.003995
181 0.002992
183 0.002997
186 0.003
164 0.003958
92 0.004009
62 0.00399
48 0.004042
43 0.00299
45 0.002973
56 0.003025
71 0.002992
82 0.003
88 0.002987
92 0.003023
95 0.002988
98 0.002984
112 0.002993
120 0.003045
129 0.002028
137 0.001995
143 0.001995
149 0.00203
154 0.002993
159 0.003023
165 0.002992
167 0.002993
170 0.002993
173 0.001961
180 0.001997
184 0.001996
188 0.00203
157 0.001995
113 0.002028
78 0.001979
60 0.001995
53 0.001995
58 0.002004
68 0.001995
81 0.002
90 0.001995
97 0.002993
100 0.002027
104 0.001987
110 0.001964
119 0.001995
124 0.00203
130 0.001995
137 0.001996
146 0.001995
150 0.001995
154 0.001999
160 0.002001
165 0.002026
167 0.000998
171 0.000998
175 0.001995
180 0.001996
180 0.002029
180 0.002025
158 0.002026
100 0.002024
70 0.002009
55 0.001991
53 0.001964
63 0.000997
78 0.001009
86 0.000998
95 0.000999
96 0.001016
98 0.000997
103 0.001998
111 0.000997
118 0.001999
127 0.002009
135 0.001984
142 0.002006
150 0.002029
152 0.000956
158 0.000999
163 0.000966
165 0.000997
169 0.000998
174 0.000943
179 0.001996
182 0.002047
186 0.002023
178 0.000998
143 0.001999
73 0.001996
49 0.0
39 0.0
38 0.0
41 0.000983
55 0.000997
67 0.000998
75 0.000992
77 0.000997
84 0.0
88 0.0
92 0.000996
107 0.000997
117 0.000998
125 0.0
132 0.0
139 0.0
146 0.0
149 0.0
153 0.0
157 0.001043
163 0.0
165 0.0
172 0.0
179 0.0
183 0.000996
179 0.001032
147 0.000997
89 0.0
57 0.001973
38 0.0
31 0.0
34 0.0
39 0.0
55 0.001991
71 0.001994
76 0.002029
79 0.0
86 0.0
94 0.0
101 0.003037
109 0.002033
122 0.000973
128 0.001004
134 0.000994
140 0.001028
146 0.000987
153 0.002026
159 0.002028
162 0.0
168 0.0
172 0.0
176 0.0
178 0.002028
183 0.002026
174 0.000995
135 0.0
92 0.000968
62 0.003024
44 0.001
43 0.00201
50 0.002061
70 0.000965
81 0.000954
82 0.0
85 0.003024
91 0.002029
95 0.0
102 0.0
112 0.0
118 0.001958
132 0.0
136 0.00203
141 0.002025
148 0.0
152 0.0
156 0.0
159 0.00205
163 0.002029
167 0.0
174 0.0
177 0.0
178 0.002
165 0.0
125 0.003023
84 0.002026
54 0.0
47 0.0
49 0.0
59 0.002027
71 0.002027
86 0.0
92 0.0
93 0.0
95 0.001994
105 0.0
110 0.001996
121 0.003
128 0.0
137 0.0
143 0.0
149 0.002994
153 0.001998
159 0.0
162 0.0
163 0.0
167 0.001995
174 0.002003
179 0.002033
183 0.002055
175 0.000967
144 0.001994
98 0.0
63 0.003029
45 0.003035
37 0.002992
37 0.001994
44 0.001983
57 0.002997
74 0.001996
81 0.003007
82 0.003032
84 0.002961
93 0.002035
101 0.001972
108 0.001961
117 0.003027
126 0.002996
132 0.001996
139 0.001948
147 0.002009
152 0.002011
156 0.001995
158 0.003026
163 0.003039
168 0.002038
172 0.002007
175 0.002979
168 0.002977
132 0.003993
74 0.001995
50 0.001996
32 0.001986
32 0.001999
36 0.002003
48 0.004034
64 0.00399
74 0.001028
76 0.002027
80 0.002003
84 0.004031
89 0.00399
99 0.002065
106 0.001995
120 0.001996
127 0.00199
131 0.00199
139 0.00399
146 0.004021
150 0.001994
153 0.001993
158 0.002002
162 0.004022
165 0.004036
172 0.002991
172 0.00202
132 0.002987
86 0.002034
57 0.002001
45 0.005035
42 0.00502
50 0.001995
65 0.002003
77 0.002014
83 0.003997
85 0.00399
87 0.002004
89 0.001991
99 0.002998
108 0.002978
116 0.002033
125 0.00502
132 0.004934
141 0.002948
145 0.002971
149 0.002959
152 0.004942
156 0.005006
160 0.004987
162 0.00294
169 0.004987
173 0.002025
173 0.002993
144 0.003006
99 0.004984
65 0.004986
44 0.003007
37 0.002978
41 0.002998
51 0.004987
65 0.004986
79 0.002992
83 0.004986
86 0.002993
90 0.004004
96 0.003989
102 0.007022
110 0.005984
121 0.002998
129 0.002969
138 0.003011
144 0.004988
147 0.005022
154 0.00203
156 0.005027
164 0.002993
167 0.00399
171 0.00296
176 0.006016
181 0.005986
156 0.002997
113 0.004018
75 0.002969
47 0.005991
33 0.005977
31 0.003991
38 0.005982
56 0.003024
67 0.003978
75 0.003974
80 0.00599
82 0.005984
88 0.00399
97 0.003975
103 0.003978
111 0.005984
119 0.006026
131 0.003975
139 0.005984
146 0.003989
151 0.003987
157 0.003992
162 0.006981
165 0.00703
172 0.003986
177 0.004021
179 0.004028
178 0.005984
153 0.005984
82 0.005984
58 0.005986
43 0.004987
43 0.004987
49 0.004988
62 0.005984
75 0.006012
87 0.004988
90 0.004985
91 0.004979
95 0.006883
103 0.006949
115 0.003989
121 0.007011
128 0.006988
141 0.00399
145 0.00402
149 0.005002
153 0.008014
158 0.007979
160 0.004955
165 0.004986
171 0.004989
174 0.006982
180 0.004986
176 0.006977
143 0.006994
90 0.005006
65 0.00497
54 0.004987
54 0.006978
64 0.00793
78 0.005989
91 0.004981
97 0.005984
99 0.007981
105 0.004986
112 0.007972
118 0.007968
124 0.005982
131 0.004988
140 0.005981
147 0.007973
151 0.007981
157 0.005984
164 0.00595
168 0.005953
172 0.007983
177 0.005997
184 0.007978
187 0.007964
188 0.004946
174 0.004951
135 0.00499
82 0.006973
65 0.006981
57 0.005945
54 0.005953
58 0.005983
77 0.007974
91 0.005986
98 0.007978
99 0.007979
106 0.006978
109 0.006976
116 0.00698
126 0.00697
136 0.00698
142 0.00597
147 0.005978
153 0.005986
161 0.006981
165 0.006027
170 0.007983
173 0.007978
179 0.005986
184 0.006979
189 0.006976
191 0.007016
177 0.007014
138 0.007
85 0.00698
68 0.006973
55 0.006975
49 0.006977
52 0.005954
70 0.00601
84 0.005955
90 0.005958
94 0.00698
95 0.00695
101 0.006991
106 0.007018
119 0.006957
126 0.006976
133 0.006979
145 0.006978
152 0.005982
159 0.006019
162 0.006015
167 0.005984
172 0.005982
174 0.006003
177 0.006021
183 0.006013
189 0.005978
189 0.005946
160 0.005996
117 0.005032
83 0.005984
63 0.007012
53 0.006017
56 0.006013
58 0.006976
74 0.005984
87 0.006023
92 0.006018
95 0.006003
99 0.006013
106 0.005984
116 0.005978
123 0.005973
132 0.005969
137 0.006014
146 0.005983
151 0.005984
153 0.005014
157 0.006018
163 0.00502
166 0.004987
169 0.004987
174 0.005981
180 0.005994
183 0.005984
184 0.006028
180 0.006015
137 0.005984
94 0.004988
69 0.005968
61 0.005018
58 0.00499
67 0.004988
82 0.004987
98 0.004985
99 0.004985
100 0.00499
104 0.00497
108 0.005018
115 0.00502
125 0.003992
134 0.004989
140 0.005024
146 0.005021
150 0.00502
157 0.004959
162 0.004989
166 0.004956
169 0.004979
173 0.004992
178 0.004988
180 0.00502
183 0.00399
189 0.00402
190 0.00399
170 0.00399
128 0.002992
79 0.004957
53 0.004953
44 0.005007
47 0.004938
57 0.004988
71 0.004986
79 0.004987
86 0.004046
86 0.003989
88 0.003989
94 0.003963
102 0.003998
111 0.004036
124 0.003985
133 0.00399
141 0.00399
146 0.004041
149 0.003989
153 0.004022
161 0.003977
163 0.003955
167 0.004021
170 0.00399
175 0.003976
180 0.003981
186 0.003956
181 0.00399
149 0.005017
103 0.003024
68 0.003989
48 0.00402
39 0.004029
38 0.00301
45 0.003989
59 0.003036
72 0.003991
80 0.00399
82 0.003945
89 0.00399
93 0.003991
100 0.003996
109 0.002992
118 0.003989
128 0.004027
137 0.004022
144 0.002993
150 0.003026
153 0.003025
160 0.003027
162 0.002991
167 0.003989
170 0.002989
176 0.002992
181 0.003024
185 0.002993
187 0.00299
169 0.003023
127 0.001995
86 0.00303
61 0.002997
47 0.002992
49 0.002992
60 0.003024
76 0.003022
85 0.002992
91 0.003006
92 0.003023
94 0.002993
101 0.001995
107 0.001992
113 0.002026
121 0.001996
134 0.002016
142 0.001978
148 0.001995
152 0.001958
158 0.003027
159 0.002994
160 0.002028
164 0.002993
172 0.002993
173 0.002021
176 0.002008
180 0.001995
154 0.001972
111 0.002017
75 0.001996
56 0.001997
54 0.002027
59 0.002028
70 0.002027
86 0.000995
96 0.000998
97 0.002028
100 0.000998
103 0.00203
111 0.001994
117 0.001002
122 0.001995
134 0.001995
141 0.001993
146 0.001031
150 0.002033
157 0.00204
161 0.000998
166 0.001027
170 0.002023
174 0.000999
177 0.000996
180 0.000998
184 0.000997
178 0.002022
140 0.002026
98 0.002026
68 0.002026
53 0.000997
46 0.002042
48 0.00103
59 0.000997
73 0.001058
84 0.000999
88 0.000998
90 0.001031
96 0.001
101 0.001012
109 0.001028
119 0.001034
125 0.000997
132 0.000998
143 0.000997
148 0.0
150 0.0
159 0.0
162 0.0
167 0.0
172 0.0
177 0.0
182 0.0
184 0.0
179 0.0
145 0.0
87 0.001007
56 0.0
39 0.000956
33 0.001002
40 0.0
53 0.0
69 0.0
78 0.0
81 0.0
82 0.0
86 0.0
96 0.000968
102 0.0
111 0.0
120 0.0
132 0.001999
139 0.001018
146 0.0
147 0.0
156 0.0
160 0.002027
165 0.0
167 0.0
172 0.0
175 0.002025
180 0.002992
184 0.000958
163 0.002992
101 0.000996
67 0.000964
50 0.0
44 0.002025
44 0.002027
57 0.000966
71 0.000938
78 0.0
86 0.002027
90 0.002045
95 0.0
99 0.002
106 0.001981
118 0.0
125 0.0
131 0.001014
137 0.001995
143 0.00203
148 0.0
151 0.0
157 0.001004
163 0.002993
169 0.0
171 0.002992
176 0.002989
182 0.0
184 0.0
180 0.0
153 0.002027
109 0.002031
65 0.0
52 0.001013
52 0.000953
59 0.001996
81 0.000989
90 0.002998
95 0.002989
98 0.0
99 0.0
103 0.0
112 0.003032
118 0.003024
127 0.000982
136 0.0
142 0.0
146 0.002028
155 0.0
159 0.002999
165 0.001979
169 0.0
172 0.001002
176 0.000965
179 0.00302
182 0.002992
186 0.0
183 0.0
154 0.00095
109 0.002994
60 0.000963
50 0.001993
48 0.00198
53 0.0
66 0.0
78 0.001992
86 0.002993
88 0.002006
92 0.002991
97 0.000967
101 0.000962
109 0.00299
122 0.001995
132 0.002989
140 0.002987
147 0.00199
153 0.001995
157 0.00199
160 0.001984
163 0.002993
169 0.001993
171 0.002009
176 0.002991
182 0.001995
186 0.003033
173 0.001996
129 0.002987
84 0.003024
51 0.002027
39 0.001997
37 0.002005
40 0.004027
51 0.004021
70 0.002002
79 0.001993
83 0.001993
88 0.001993
91 0.001998
97 0.002991
105 0.00399
117 0.001993
125 0.001993
132 0.002
142 0.004026
145 0.00399
152 0.002998
158 0.002028
161 0.002028
166 0.002007
170 0.002988
176 0.004029
181 0.004025
180 0.002043
157 0.001996
113 0.001998
75 0.003989
51 0.004987
42 0.001995
42 0.001993
60 0.002009
73 0.002008
82 0.00299
88 0.004019
88 0.004021
92 0.001995
100 0.00301
106 0.002991
114 0.00403
120 0.004021
132 0.002955
136 0.002906
145 0.001998
149 0.002999
154 0.002989
158 0.004031
159 0.004987
165 0.001995
170 0.001987
174 0.002023
176 0.005023
170 0.00399
119 0.003019
78 0.001981
46 0.002034
44 0.002015
51 0.002027
60 0.005
75 0.004986
88 0.00198
89 0.003008
89 0.001992
93 0.005038
100 0.004016
107 0.005022
116 0.003034
126 0.006021
138 0.003012
142 0.002992
147 0.003052
150 0.004988
155 0.004987
157 0.002998
161 0.002011
167 0.003003
172 0.004987
176 0.005025
178 0.002991
139 0.006016
82 0.002986
54 0.002987
38 0.00294
35 0.005984
38 0.005025
49 0.003957
63 0.00399
75 0.002989
77 0.005025
81 0.005019
86 0.003958
93 0.00493
104 0.00301
111 0.002992
122 0.002998
128 0.005989
134 0.006009
141 0.002995
147 0.003005
150 0.004008
151 0.005984
156 0.005009
164 0.002992
169 0.006031
173 0.002993
160 0.002973
121 0.00296
76 0.006018
47 0.005984
30 0.003995
26 0.003993
30 0.003027
41 0.006018
56 0.006989
69 0.003988
77 0.006989
80 0.003035
85 0.002963
93 0.00296
99 0.005957
108 0.005987
120 0.003987
128 0.003987
132 0.003023
138 0.006994
145 0.006983
149 0.003956
156 0.007015
161 0.003959
167 0.003982
170 0.004002
172 0.007022
168 0.007013
123 0.003996
78 0.004
51 0.00396
40 0.007015
37 0.007017
49 0.004026
63 0.007019
74 0.007018
82 0.004993
83 0.003975
87 0.004994
91 0.007016
98 0.007015
108 0.00299
114 0.005002
124 0.004945
132 0.007969
141 0.004978
143 0.007092
148 0.007935
152 0.004952
155 0.004984
158 0.004994
165 0.007013
169 0.007012
169 0.004976
149 0.003986
105 0.004981
59 0.007969
39 0.005953
41 0.007999
49 0.007979
61 0.004986
77 0.005952
86 0.004988
85 0.00798
89 0.007977
95 0.005985
100 0.004986
107 0.00599
118 0.007976
128 0.005952
133 0.007978
140 0.007949
147 0.005953
152 0.005019
156 0.004952
160 0.007972
165 0.007983
170 0.004988
173 0.00599
175 0.005983
163 0.006981
104 0.005979
57 0.007979
39 0.007977
32 0.00598
32 0.006003
39 0.005978
59 0.007984
71 0.006985
77 0.005866
79 0.00696
82 0.006031
91 0.007023
101 0.005941
109 0.006981
117 0.006984
126 0.006017
133 0.00598
136 0.00597
145 0.006965
149 0.006983
152 0.00694
159 0.006982
164 0.00594
169 0.006965
176 0.005988
180 0.006002
162 0.006992
117 0.006957
73 0.006024
46 0.006005
32 0.005981
28 0.006981
33 0.006014
51 0.005985
64 0.005983
74 0.005978
81 0.006979
82 0.006981
89 0.007001
96 0.006982
103 0.005946
112 0.006953
122 0.006979
128 0.006973
135 0.006017
141 0.005986
146 0.005984
150 0.005983
158 0.006014
163 0.005986
168 0.005017
172 0.004975
179 0.005987
185 0.005983
174 0.005947
136 0.005982
92 0.006017
52 0.005984
40 0.005982
38 0.005984
48 0.006013
61 0.006021
73 0.00598
82 0.005984
86 0.005985
89 0.005981
95 0.005987
104 0.005019
111 0.005018
120 0.004976
129 0.004987
141 0.004984
144 0.005987
149 0.005968
154 0.006001
158 0.005982
163 0.005984
168 0.005978
173 0.00598
178 0.004974
181 0.005022
186 0.004985
181 0.00498
119 0.005004
81 0.004986
60 0.004987
54 0.004968
58 0.00494
70 0.005977
86 0.005987
98 0.004988
101 0.005027
101 0.005031
103 0.004992
110 0.00502
120 0.004986
127 0.004988
135 0.004994
143 0.004953
147 0.004975
152 0.004967
160 0.004956
164 0.004985
165 0.003949
169 0.004024
172 0.004022
178 0.003992
186 0.00399
190 0.003956
191 0.004955
172 0.004946
129 0.004957
87 0.004991
60 0.004956
52 0.003971
53 0.00394
60 0.004024
77 0.003993
91 0.004036
98 0.003959
100 0.003956
104 0.003956
110 0.003966
116 0.003973
124 0.004014
134 0.004
140 0.004003
148 0.004953
154 0.004022
159 0.003966
162 0.003992
167 0.003961
176 0.003955
178 0.003956
180 0.003967
185 0.003991
191 0.003952
194 0.004021
188 0.00399
153 0.003026
104 0.003025
71 0.002993
48 0.003991
40 0.00396
47 0.003992
58 0.003937
73 0.003936
83 0.003995
90 0.003961
91 0.003988
96 0.002988
104 0.003031
111 0.003027
117 0.00303
130 0.002978
139 0.003014
147 0.002987
151 0.002997
156 0.002985
162 0.00299
167 0.003024
171 0.002992
178 0.003023
181 0.002036
184 0.001998
188 0.002032
194 0.003
198 0.002998
177 0.002992
111 0.002983
79 0.002993
58 0.002988
49 0.002998
46 0.002993
57 0.002993
71 0.002026
83 0.002029
90 0.001997
95 0.001987
100 0.001996
104 0.001996
115 0.001992
124 0.001986
130 0.00299
136 0.003011
145 0.002992
151 0.003025
156 0.001995
161 0.001996
167 0.001996
173 0.001964
176 0.001995
178 0.001999
185 0.001996
189 0.001992
192 0.001991
195 0.001994
195 0.001985
150 0.000998
106 0.001996
78 0.002011
65 0.002021
63 0.001995
71 0.001988
86 0.001994
102 0.001008
103 0.002
106 0.001008
108 0.001999
112 0.000976
120 0.001013
128 0.000998
137 0.000998
143 0.000997
153 0.001991
156 0.001997
162 0.001994
168 0.001994
171 0.001996
176 0.001977
180 0.002039
183 0.000998
187 0.000999
193 0.002034
196 0.002018
196 0.001001
166 0.001009
120 0.002007
85 0.001979
66 0.001996
58 0.001995
60 0.000999
68 0.0
81 0.000999
92 0.0
100 0.0
101 0.000998
105 0.001006
114 0.000989
122 0.001034
130 0.001007
138 0.0
149 0.000995
154 0.001
159 0.000992
163 0.00103
168 0.0
173 0.0
176 0.0
180 0.0
185 0.0
192 0.0
195 0.0
198 0.0
200 0.0
168 0.0
118 0.0
81 0.0
59 0.000997
44 0.0
43 0.0
49 0.0
72 0.0
81 0.0
85 0.0
87 0.0
93 0.0
98 0.0
109 0.0
116 0.0
124 0.0
134 0.002999
143 0.002992
148 0.0
156 0.002992
161 0.0
166 0.001006
169 0.0
171 0.002001
174 0.002027
182 0.000994
186 0.0
189 0.001009
190 0.002996
164 0.00299
100 0.00098
59 0.00299
45 0.00102
40 0.0
42 0.0
53 0.002992
68 0.00299
80 0.0
83 0.0
86 0.0
92 0.0
96 0.002027
110 0.0
115 0.001991
125 0.002
135 0.0
140 0.0
145 0.000996
149 0.01496
155 0.002984
160 0.0
165 0.0
167 0.0
170 0.002989
177 0.0
181 0.002998
186 0.002991
163 0.0
120 0.0
81 0.0
58 0.001991
48 0.001996
51 0.0
59 0.0
73 0.000965
86 0.00203
90 0.001013
92 0.002989
97 0.002993
104 0.0
110 0.0
119 0.0
126 0.002988
132 0.002971
141 0.0
145 0.0
149 0.0
153 0.003023
159 0.0
163 0.001991
167 0.001995
172 0.0
177 0.000954
180 0.0
181 0.001986
165 0.00299
109 0.00096
71 0.001001
53 0.0
47 0.002991
53 0.000978
63 0.003024
76 0.002994
88 0.0
89 0.0
90 0.0
94 0.002983
101 0.002998
108 0.002007
117 0.0
127 0.0
134 0.002026
144 0.002989
149 0.002961
152 0.002979
157 0.003005
160 0.002992
164 0.001975
168 0.001976
174 0.002986
178 0.003038
183 0.001999
179 0.002996
142 0.002999
71 0.002992
46 0.002991
36 0.003986
35 0.003985
38 0.002994
50 0.00299
67 0.002985
75 0.002991
77 0.002993
85 0.00299
88 0.002993
93 0.00299
107 0.002009
115 0.001992
125 0.003957
132 0.003989
140 0.000954
147 0.0
152 0.002036
156 0.003953
159 0.004023
164 0.00299
168 0.002992
174 0.00299
181 0.00201
177 0.002002
148 0.003988
102 0.004023
60 0.002994
45 0.001998
40 0.002992
38 0.003992
45 0.003989
67 0.002027
76 0.001993
82 0.00298
88 0.002992
93 0.002017
99 0.005021
104 0.005019
118 0.002993
126 0.001996
132 0.001973
140 0.003984
148 0.004023
152 0.001983
158 0.003002
163 0.003039
168 0.002986
174 0.00202
175 0.004984
181 0.004939
187 0.001995
177 0.002995
140 0.002999
97 0.004955
70 0.005021
54 0.002982
55 0.002985
70 0.002031
84 0.001994
95 0.001002
96 0.004952
100 0.005018
103 0.004987
107 0.002021
114 0.002981
124 0.002994
130 0.004987
137 0.00502
147 0.002989
153 0.005951
159 0.002996
162 0.003
166 0.003002
171 0.006023
174 0.004979
179 0.003025
185 0.002027
188 0.002033
182 0.005017
148 0.006021
94 0.002006
61 0.006012
51 0.002978
54 0.002989
64 0.003005
78 0.007025
89 0.006017
96 0.003004
98 0.00302
102 0.003984
105 0.005984
113 0.005017
121 0.001982
135 0.004986
142 0.002992
148 0.003989
156 0.002028
161 0.005025
163 0.005967
169 0.002027
173 0.00299
176 0.002021
180 0.006019
187 0.005999
190 0.00297
190 0.005978
145 0.00199
100 0.00298
67 0.00299
48 0.006983
41 0.006981
40 0.002952
46 0.003937
63 0.003993
76 0.006982
83 0.006016
86 0.003983
93 0.007013
101 0.003872
108 0.003026
116 0.002984
124 0.007015
133 0.007016
142 0.002961
148 0.003994
154 0.004014
160 0.007032
162 0.006975
169 0.004986
173 0.007016
181 0.004023
186 0.004947
188 0.003982
188 0.004028
156 0.007932
127 0.007014
73 0.003981
55 0.003957
44 0.00399
39 0.007016
42 0.007015
66 0.007012
81 0.007978
84 0.00499
87 0.004989
92 0.004986
97 0.00801
102 0.007029
114 0.004018
121 0.004025
129 0.004993
139 0.007981
146 0.004987
149 0.007972
155 0.007966
159 0.006005
164 0.00499
167 0.00499
171 0.007939
176 0.006977
182 0.005951
183 0.005994
176 0.00499
145 0.00698
76 0.005985
52 0.007982
48 0.007979
48 0.004031
58 0.005022
71 0.004956
82 0.00798
87 0.007978
87 0.005954
89 0.00496
94 0.003998
102 0.006975
112 0.005951
119 0.00699
125 0.006977
134 0.004957
140 0.006009
144 0.006971
151 0.007963
155 0.007976
157 0.005024
161 0.005941
166 0.005977
171 0.007977
178 0.006145
163 0.007946
124 0.006981
83 0.006948
57 0.005984
46 0.00595
43 0.006974
51 0.007017
63 0.005959
75 0.005915
81 0.004955
83 0.00698
88 0.005933
95 0.006979
103 0.006979
110 0.006027
117 0.005983
128 0.005985
135 0.006948
140 0.006996
147 0.00698
155 0.006981
159 0.006981
165 0.006971
171 0.006977
172 0.005973
177 0.00698
172 0.006964
140 0.005985
82 0.005974
55 0.005985
41 0.006013
37 0.006012
39 0.005984
51 0.005966
68 0.005019
84 0.005983
86 0.006957
88 0.006029
93 0.006024
104 0.005976
108 0.006016
119 0.006015
127 0.00595
137 0.005956
145 0.005984
152 0.005987
158 0.005957
164 0.005982
167 0.005978
171 0.005984
177 0.004987
184 0.005966
184 0.004983
157 0.004982
111 0.00498
73 0.004985
44 0.004987
37 0.004987
34 0.004987
47 0.004985
62 0.00502
75 0.005974
84 0.006005
89 0.005971
95 0.005984
104 0.006001
110 0.006006
119 0.005992
134 0.005024
143 0.004983
150 0.004951
162 0.004937
167 0.004991
176 0.004989
180 0.004955
185 0.004945
192 0.004984
198 0.004956
202 0.005
206 0.004989
186 0.003989
129 0.003977
91 0.005019
72 0.003953
73 0.003947
76 0.003987
88 0.004025
102 0.003956
119 0.003969
123 0.005024
125 0.004976
129 0.004992
137 0.00403
145 0.004963
157 0.004938
166 0.004996
174 0.00498
180 0.004954
182 0.004022
188 0.003991
195 0.003989
196 0.004003
202 0.00399
208 0.003958
212 0.003988
218 0.004947
217 0.004985
177 0.004952
139 0.003992
114 0.003023
104 0.003986
104 0.00399
112 0.003959
125 0.003958
141 0.003957
149 0.002984
152 0.002956
154 0.003937
155 0.003985
165 0.003991
170 0.003982
176 0.002976
182 0.003027
191 0.003989
195 0.00299
199 0.002982
206 0.002986
207 0.003035
209 0.003964
217 0.003956
220 0.003994
227 0.003992
231 0.004028
233 0.002992
213 0.00299
172 0.002987
126 0.002992
112 0.002993
105 0.002993
103 0.00299
111 0.003036
129 0.002991
140 0.002978
144 0.002987
144 0.001994
147 0.001989
152 0.001965
156 0.002987
166 0.003007
172 0.002999
178 0.001947
182 0.002993
186 0.003014
192 0.003025
199 0.003001
201 0.002992
207 0.002978
209 0.003005
211 0.002989
214 0.00299
219 0.002992
224 0.002019
219 0.002996
186 0.001942
144 0.002015
111 0.002017
88 0.00196
83 0.002035
90 0.002986
100 0.002963
111 0.001957
117 0.003002
122 0.00301
121 0.002983
125 0.002989
131 0.002009
136 0.001962
141 0.001995
153 0.002
157 0.001996
165 0.001991
169 0.002019
172 0.002986
177 0.002007
181 0.001998
184 0.000993
190 0.002983
194 0.00197
196 0.002002
202 0.000994
204 0.000986
207 0.000993
178 0.002026
131 0.001967
95 0.002006
76 0.001996
64 0.001992
63 0.001998
72 0.001995
83 0.001998
92 0.001997
100 0.000998
101 0.000999
104 0.00101
106 0.001993
113 0.001003
121 0.001979
127 0.001989
132 0.001991
141 0.001949
145 0.001978
148 0.001997
152 0.001982
158 0.001005
163 0.001027
165 0.000997
167 0.000999
174 0.001994
178 0.002002
181 0.001997
180 0.001975
148 0.000954
103 0.000998
71 0.001001
56 0.000994
55 0.000987
65 0.0
78 0.0
88 0.0
97 0.000997
97 0.000998
97 0.001033
102 0.000995
108 0.000998
115 0.000997
121 0.0
130 0.000983
139 0.0
143 0.0
146 0.0
152 0.0
156 0.0
159 0.0
163 0.0
168 0.0
171 0.001037
176 0.0
180 0.0
175 0.001012
110 0.0
72 0.0
50 0.0
41 0.0
39 0.0
48 0.0
61 0.0
76 0.0
83 0.0
86 0.0
89 0.0
91 0.0
101 0.0
108 0.0
120 0.0
126 0.0
131 0.0
136 0.002995
143 0.0
147 0.0
151 0.0
157 0.002991
160 0.002995
166 0.00101
170 0.001985
176 0.0
163 0.0
118 0.0
77 0.002991
50 0.002956
31 0.001008
29 0.0
33 0.0
43 0.002992
57 0.002994
73 0.0
76 0.002998
82 0.0
85 0.0
93 0.000946
102 0.002992
110 0.003029
121 0.001012
127 0.0
134 0.000966
137 0.001033
141 0.002991
147 0.001946
150 0.002985
157 0.003007
162 0.0
166 0.0
172 0.0
172 0.002994
148 0.00305
94 0.0
61 0.0
45 0.0
40 0.002992
47 0.0
64 0.003024
77 0.003987
86 0.0
90 0.000997
91 0.0
93 0.002992
100 0.002992
110 0.0
117 0.0
124 0.001007
132 0.002992
142 0.0
147 0.002992
149 0.002971
155 0.0
156 0.0
158 0.0
163 0.002987
167 0.002991
172 0.0
166 0.001001
135 0.001015
92 0.001985
53 0.000994
48 0.002994
48 0.003015
64 0.001001
80 0.0
87 0.0
