115 0.009972
113 0.002952
107 0.005997
102 0.005984
104 0.003989
110 0.003951
117 0.003989
126 0.00698
135 0.006981
143 0.004024
147 0.004046
149 0.004047
151 0.003021
152 0.003995
151 0.006951
121 0.006978
74 0.002992
61 0.003955
65 0.003999
77 0.007013
90 0.006983
100 0.003997
106 0.003958
108 0.003991
103 0.00396
99 0.002992
98 0.006054
103 0.006014
113 0.003991
121 0.002949
129 0.003993
136 0.006983
140 0.006017
143 0.002939
144 0.002957
147 0.003025
151 0.002992
151 0.002979
124 0.006046
86 0.006018
65 0.002992
71 0.001995
85 0.002991
99 0.005977
108 0.007017
117 0.003989
117 0.002991
103 0.003989
98 0.003988
100 0.002989
106 0.005984
114 0.00603
126 0.002961
132 0.000998
137 0.002991
140 0.006981
143 0.006986
146 0.003989
148 0.002992
113 0.004002
79 0.003952
63 0.003949
44 0.002994
61 0.006951
84 0.002981
97 0.003989
107 0.002992
112 0.00399
107 0.006981
97 0.007026
92 0.002989
101 0.006982
117 0.003025
130 0.002994
140 0.003024
147 0.007041
153 0.007015
160 0.002992
161 0.003993
161 0.003959
163 0.006977
168 0.006977
173 0.002996
125 0.006981
56 0.00399
37 0.00399
43 0.003981
59 0.006981
77 0.006982
89 0.004028
95 0.003952
100 0.003978
99 0.007073
94 0.006962
92 0.004022
100 0.006968
114 0.00399
126 0.003995
138 0.00399
147 0.006989
155 0.007022
160 0.003025
162 0.003983
164 0.005066
167 0.007946
172 0.007978
175 0.002992
110 0.007979
54 0.003993
47 0.003989
59 0.003989
78 0.00698
96 0.007014
109 0.003
117 0.003023
119 0.002997
110 0.007993
106 0.007978
107 0.003992
121 0.007949
134 0.004987
147 0.003989
159 0.003996
168 0.007978
176 0.007948
179 0.004024
179 0.003967
180 0.003972
186 0.007931
190 0.008
186 0.005003
113 0.007979
64 0.005002
62 0.004956
81 0.003989
106 0.007979
134 0.007944
148 0.004952
153 0.005048
143 0.003959
128 0.007919
118 0.007958
120 0.004953
136 0.007965
158 0.004987
175 0.005039
188 0.004986
195 0.007979
200 0.007947
202 0.003974
207 0.003963
206 0.005044
132 0.006953
75 0.007991
53 0.004021
65 0.007978
97 0.003989
119 0.004008
136 0.00399
149 0.007979
147 0.007925
134 0.003993
122 0.005019
120 0.005017
130 0.006983
145 0.007949
164 0.004987
187 0.007979
202 0.005025
209 0.004991
213 0.004987
216 0.007978
218 0.007976
219 0.004002
224 0.005007
196 0.004987
88 0.006925
46 0.006973
41 0.005035
72 0.007948
99 0.006035
118 0.004986
128 0.004986
136 0.007942
130 0.007951
118 0.00503
111 0.005058
114 0.005942
128 0.007057
144 0.007032
163 0.005951
192 0.007012
203 0.00595
208 0.005037
210 0.004987
216 0.007978
220 0.007945
219 0.006018
162 0.006013
84 0.005983
40 0.006981
44 0.007033
65 0.004961
112 0.006983
133 0.005029
147 0.003989
153 0.005038
135 0.007942
119 0.007966
113 0.005033
118 0.006016
131 0.006022
156 0.007005
176 0.006985
193 0.006965
209 0.006999
216 0.006983
222 0.006002
224 0.006042
166 0.004985
65 0.006976
41 0.007012
47 0.005974
72 0.005945
104 0.00598
145 0.006997
169 0.006979
167 0.007018
139 0.00702
114 0.005983
114 0.005982
120 0.005987
143 0.007006
164 0.006025
190 0.006012
200 0.006007
213 0.006016
221 0.006986
157 0.007031
43 0.006962
34 0.007025
49 0.004986
76 0.005037
107 0.005994
144 0.005995
162 0.005991
154 0.005932
137 0.005011
115 0.006012
111 0.006934
121 0.006987
152 0.006979
171 0.007013
184 0.006013
197 0.005997
208 0.005985
214 0.005983
177 0.005937
57 0.005972
19 0.006962
17 0.005953
35 0.005984
61 0.006964
97 0.005981
109 0.006021
116 0.006947
111 0.005986
99 0.006016
91 0.006988
96 0.005987
113 0.006015
130 0.005994
147 0.005983
161 0.005991
172 0.006557
185 0.005986
184 0.006018
97 0.005952
52 0.004987
15 0.005951
23 0.005986
44 0.006018
74 0.005988
84 0.006065
103 0.005945
110 0.005971
106 0.005986
93 0.005984
94 0.006018
106 0.006024
119 0.005984
135 0.005956
151 0.005924
164 0.005974
173 0.005929
178 0.005943
182 0.005017
188 0.00599
146 0.004987
40 0.005041
24 0.005985
42 0.005924
65 0.005947
88 0.005934
103 0.005953
115 0.005952
116 0.005939
104 0.005941
94 0.005954
93 0.005956
100 0.00595
124 0.005986
140 0.004944
158 0.005976
166 0.004959
171 0.005954
175 0.005985
181 0.005974
174 0.005991
112 0.006013
57 0.004985
38 0.004987
47 0.005018
88 0.004985
113 0.004979
138 0.00503
143 0.00502
131 0.005951
112 0.004988
103 0.005984
109 0.005988
121 0.005996
140 0.006033
157 0.005993
172 0.005937
188 0.005033
194 0.005
198 0.005013
198 0.004947
200 0.004938
203 0.00496
209 0.004954
154 0.004976
73 0.0059
32 0.005953
27 0.005953
43 0.005966
80 0.004895
95 0.004949
104 0.004985
109 0.004953
102 0.004961
93 0.004955
91 0.004941
96 0.004935
112 0.004963
127 0.004956
145 0.00498
160 0.004957
176 0.005938
182 0.004988
187 0.004986
188 0.004937
190 0.005035
192 0.005032
198 0.004986
205 0.004986
189 0.004948
105 0.004991
46 0.004965
27 0.004964
49 0.003989
74 0.004988
93 0.00399
108 0.004987
115 0.004992
112 0.004986
103 0.004979
96 0.005018
100 0.00496
110 0.004942
125 0.004986
144 0.004981
169 0.004014
180 0.003959
189 0.004022
197 0.004
199 0.003992
200 0.003987
203 0.004953
207 0.004986
215 0.004983
226 0.00502
219 0.00495
134 0.005039
38 0.004952
34 0.003991
51 0.003989
88 0.003989
113 0.004003
129 0.003956
139 0.003969
134 0.003957
112 0.003965
102 0.00396
103 0.003964
114 0.00499
144 0.004954
163 0.005002
180 0.003988
196 0.004016
203 0.003997
206 0.004127
206 0.003992
207 0.003965
212 0.003958
217 0.004954
176 0.003973
91 0.004957
40 0.004995
51 0.005037
77 0.003989
123 0.003989
154 0.004015
176 0.003985
181 0.003989
157 0.003993
120 0.003031
113 0.003027
119 0.003988
136 0.003956
175 0.004946
196 0.003993
210 0.003989
222 0.003993
229 0.003989
234 0.004019
236 0.004022
203 0.003976
72 0.003943
28 0.003929
23 0.003988
41 0.00299
90 0.002947
118 0.003028
139 0.003023
153 0.003991
140 0.003975
115 0.003999
103 0.003989
105 0.003956
123 0.003986
144 0.002987
167 0.003974
187 0.003992
208 0.002992
216 0.002992
221 0.002969
228 0.002973
209 0.002951
111 0.003962
37 0.00397
14 0.003944
28 0.003955
54 0.003968
84 0.003947
109 0.002968
135 0.002992
134 0.003044
117 0.003023
97 0.003023
97 0.002982
107 0.002024
124 0.00303
146 0.002991
173 0.003943
189 0.003978
200 0.002998
208 0.002994
216 0.002975
220 0.002992
195 0.002987
68 0.002949
22 0.002985
15 0.002953
31 0.003
58 0.003985
96 0.004005
119 0.003033
135 0.002991
137 0.002992
104 0.002992
93 0.002992
95 0.002995
107 0.002974
132 0.002979
154 0.002966
174 0.002992
187 0.002987
197 0.002003
204 0.003002
209 0.003002
214 0.002998
120 0.002992
48 0.002992
23 0.002971
30 0.002977
63 0.00299
95 0.00295
125 0.002985
146 0.002997
152 0.002962
125 0.002994
99 0.002995
91 0.002993
105 0.002994
125 0.002997
146 0.002968
166 0.002992
185 0.002042
197 0.00203
206 0.001995
184 0.001993
92 0.001991
26 0.001996
21 0.002028
37 0.001985
82 0.003031
109 0.00304
132 0.003072
142 0.003023
121 0.003025
102 0.002984
95 0.00203
101 0.002052
115 0.002028
141 0.002026
160 0.002026
175 0.002026
190 0.002005
197 0.002992
203 0.002961
193 0.002958
79 0.003023
23 0.002976
9 0.002038
20 0.001995
41 0.001992
71 0.00198
86 0.001959
97 0.001989
99 0.001994
90 0.001974
83 0.00297
84 0.002963
98 0.002986
115 0.001983
133 0.001966
149 0.001939
162 0.001962
174 0.002
180 0.001947
186 0.001958
109 0.002024
43 0.002004
16 0.002025
19 0.002962
43 0.003004
63 0.001997
78 0.002021
89 0.001994
97 0.002023
94 0.00102
86 0.001995
83 0.001995
93 0.001987
106 0.001977
121 0.001993
137 0.000969
154 0.001048
163 0.002037
169 0.002001
171 0.001998
173 0.002024
178 0.001984
181 0.001983
159 0.001985
48 0.001995
24 0.001985
27 0.00195
45 0.001028
74 0.001012
87 0.000971
99 0.001995
104 0.00208
99 0.001927
84 0.001985
82 0.001992
88 0.001964
106 0.002037
123 0.001967
136 0.001965
146 0.000998
153 0.000998
157 0.000971
161 0.000989
166 0.001968
161 0.002068
91 0.001044
49 0.002002
38 0.00196
60 0.001996
82 0.000997
103 0.001001
123 0.000998
132 0.000997
118 0.000997
104 0.000974
99 0.000948
101 0.000997
117 0.002028
134 0.001997
149 0.001994
168 0.001971
177 0.000999
183 0.001006
182 0.000972
182 0.000999
190 0.001004
189 0.000944
136 0.000965
68 0.000949
32 0.000994
29 0.000998
46 0.000976
76 0.002033
86 0.000955
95 0.000998
100 0.001011
97 0.000954
89 0.000952
89 0.001
95 0.001003
107 0.000924
122 0.000971
142 0.000989
153 0.000965
165 0.000998
171 0.000985
174 0.000996
176 0.000997
179 0.000988
164 0.000957
100 0.0
51 0.001037
33 0.00097
38 0.000968
64 0.0
81 0.0
95 0.0
104 0.0
105 0.000998
99 0.001028
92 0.000997
94 0.000968
102 0.000986
114 0.000974
129 0.001
145 0.000969
164 0.0
172 0.0
190 0.0
198 0.0
204 0.0
211 0.000951
223 0.000966
232 0.000975
161 0.000993
90 0.000954
70 0.00104
77 0.0
110 0.0
140 0.0
173 0.0
182 0.0
174 0.0
153 0.0
137 0.001013
136 0.000959
148 0.00096
166 0.000954
187 0.001005
206 0.0
225 0.0
232 0.0
235 0.0
236 0.0
235 0.0
192 0.0
109 0.0
63 0.0
66 0.0
84 0.000937
108 0.000967
132 0.0
160 0.0
168 0.0
141 0.0
126 0.0
124 0.0
132 0.0
147 0.0
175 0.0
196 0.0
212 0.0
225 0.000962
235 0.001019
242 0.0
245 0.0
247 0.0
252 0.0
254 0.0
217 0.0
104 0.0
44 0.0
43 0.0
60 0.0
86 0.001006
107 0.000998
119 0.001012
121 0.000998
106 0.0
93 0.0
87 0.0
90 0.000964
98 0.000939
115 0.0
129 0.00095
142 0.00102
153 0.000962
162 0.001009
166 0.001091
168 0.001982
173 0.0
175 0.000998
161 0.000966
100 0.000947
45 0.000987
22 0.000956
32 0.001981
53 0.000964
75 0.000955
88 0.001962
99 0.001025
103 0.0
91 0.000996
85 0.0
85 0.0
92 0.001011
104 0.001025
123 0.000968
137 0.000968
150 0.00095
160 0.000973
165 0.000968
169 0.001047
169 0.00099
175 0.0
176 0.001033
136 0.000964
69 0.0
34 0.001007
34 0.000996
54 0.000993
80 0.000964
102 0.000951
116 0.000997
125 0.000973
116 0.00097
95 0.000991
86 0.000951
91 0.000998
104 0.001076
120 0.001002
137 0.001007
153 0.000992
161 0.001005
167 0.000997
174 0.000998
178 0.000987
123 0.000998
50 0.000998
34 0.001012
48 0.001977
73 0.000999
100 0.001001
125 0.001007
146 0.001016
140 0.001002
120 0.000999
102 0.001003
99 0.001
108 0.001005
128 0.001035
152 0.000999
168 0.001004
179 0.00201
185 0.001994
189 0.001998
194 0.000989
195 0.000995
144 0.000994
65 0.000993
24 0.000997
20 0.000999
47 0.001962
79 0.001997
93 0.001961
102 0.00196
106 0.001966
102 0.001966
88 0.001961
84 0.000991
89 0.00099
99 0.001962
114 0.000959
137 0.001
154 0.002003
165 0.001977
172 0.001962
176 0.001965
148 0.002004
77 0.001992
23 0.000992
19 0.001996
36 0.001012
59 0.001004
81 0.001991
99 0.001995
111 0.002004
105 0.002
95 0.001995
91 0.001975
97 0.001999
104 0.001995
124 0.001994
139 0.001999
157 0.001963
163 0.001058
172 0.001966
179 0.001006
172 0.000993
107 0.001983
50 0.001998
30 0.001993
37 0.001985
59 0.001997
93 0.002003
111 0.002004
123 0.002032
127 0.001995
115 0.001995
96 0.001074
96 0.001964
107 0.001995
121 0.001995
141 0.002021
149 0.001968
159 0.00296
168 0.002945
175 0.002965
171 0.002962
97 0.001996
50 0.001962
37 0.002046
62 0.000996
86 0.001994
106 0.001994
126 0.001991
130 0.001996
124 0.002028
106 0.001987
100 0.002991
107 0.000953
119 0.000997
133 0.001002
147 0.002988
163 0.001003
169 0.001983
171 0.001991
172 0.001004
174 0.001994
177 0.001952
176 0.00202
129 0.001996
54 0.000994
34 0.002968
40 0.00203
57 0.003004
81 0.001007
88 0.002965
93 0.001969
98 0.002028
94 0.002034
90 0.001962
91 0.001968
98 0.002018
112 0.002014
124 0.001959
134 0.000996
143 0.00299
152 0.001011
155 0.002028
157 0.003017
159 0.001
162 0.000981
167 0.001993
174 0.003003
182 0.002984
146 0.001013
83 0.000994
47 0.001009
42 0.002997
67 0.001041
82 0.002961
90 0.002991
99 0.000994
103 0.001005
103 0.001979
97 0.001977
94 0.003026
98 0.002979
111 0.000999
122 0.000998
134 0.000964
148 0.000997
153 0.000997
156 0.002988
158 0.003026
161 0.000961
164 0.000998
167 0.000997
170 0.002999
177 0.002993
188 0.001857
197 0.000998
177 0.000999
77 0.001001
59 0.002991
62 0.003965
83 0.003013
113 0.001037
128 0.001033
138 0.001043
136 0.003961
124 0.003976
109 0.001011
108 0.001024
116 0.000991
138 0.001011
154 0.000999
166 0.003005
174 0.002988
180 0.000956
182 0.000993
184 0.000963
185 0.003991
187 0.004
190 0.000999
194 0.0
203 0.000999
197 0.0
125 0.001006
65 0.003011
42 0.002981
51 0.000946
71 0.000997
90 0.001024
99 0.002992
105 0.003996
111 0.0
109 0.0
103 0.0
103 0.0
111 0.0
124 0.003995
138 0.003983
156 0.000999
166 0.0
173 0.0
177 0.00403
180 0.00401
184 0.00103
187 0.0
191 0.0
199 0.001058
208 0.001995
220 0.003946
214 0.004994
112 0.000972
62 0.0
51 0.001027
63 0.003942
86 0.003987
114 0.0
124 0.0
130 0.001029
128 0.001002
120 0.0
113 0.003996
115 0.003995
128 0.0
142 0.001011
158 0.000995
172 0.003982
183 0.003983
190 0.001002
192 0.001006
193 0.000996
194 0.0
197 0.0
203 0.00399
212 0.003964
211 0.001041
150 0.001005
96 0.001002
79 0.003974
87 0.004017
116 0.001003
137 0.000998
151 0.001022
154 0.000955
146 0.0
133 0.004957
123 0.005017
124 0.0
131 0.0
141 0.0
151 0.004989
159 0.005005
165 0.0
167 0.0
168 0.0
167 0.001007
169 0.001002
153 0.003982
107 0.004999
66 0.001005
64 0.00099
78 0.001009
97 0.00502
113 0.005023
124 0.000965
130 0.001024
132 0.000999
119 0.000993
111 0.0
111 0.005001
118 0.004992
130 0.001003
136 0.001004
140 0.001003
144 0.005019
148 0.004985
156 0.001016
165 0.001032
155 0.001011
86 0.001026
72 0.001995
80 0.004993
102 0.005018
127 0.000966
134 0.001002
141 0.000998
147 0.001002
147 0.004979
142 0.004981
134 0.001088
133 0.000998
142 0.001003
150 0.001014
160 0.002001
173 0.004977
184 0.005022
189 0.001048
194 0.001027
176 0.001013
130 0.00499
98 0.005044
99 0.000997
120 0.001027
163 0.000999
181 0.001997
190 0.001999
191 0.004999
176 0.004979
156 0.001002
149 0.001002
150 0.000999
158 0.00501
168 0.005016
181 0.001995
188 0.001961
200 0.001973
193 0.000984
141 0.002004
96 0.004968
84 0.004993
99 0.001965
119 0.00199
135 0.002002
143 0.005043
150 0.005003
155 0.002038
150 0.002003
138 0.002007
139 0.00199
144 0.001993
153 0.004979
163 0.005933
175 0.002004
181 0.001994
185 0.002004
168 0.006015
117 0.005037
76 0.002006
78 0.00103
104 0.000994
117 0.001008
122 0.000993
126 0.005982
132 0.006007
130 0.000996
123 0.001995
119 0.001036
121 0.005039
127 0.005022
140 0.002007
149 0.001992
163 0.001964
170 0.002029
175 0.002004
174 0.005951
137 0.006014
82 0.00195
73 0.000939
83 0.000996
102 0.005029
118 0.004986
128 0.002003
134 0.003019
138 0.002003
135 0.001949
131 0.002047
131 0.006016
137 0.005987
146 0.002001
155 0.002013
163 0.001993
171 0.005984
176 0.006016
181 0.003005
184 0.002017
189 0.001997
193 0.002987
197 0.002987
202 0.005989
206 0.006011
213 0.00199
218 0.001996
222 0.002003
199 0.005949
138 0.005988
94 0.00203
96 0.002058
124 0.002989
139 0.002965
145 0.001995
147 0.005984
149 0.005932
144 0.001983
139 0.001968
136 0.001982
138 0.005976
145 0.005994
156 0.001994
164 0.001981
173 0.002999
178 0.002999
181 0.003092
184 0.005953
185 0.005976
186 0.002001
189 0.004016
193 0.002982
198 0.005983
181 0.005952
121 0.003959
97 0.004023
107 0.002988
125 0.002989
140 0.002019
149 0.005995
155 0.005963
157 0.001998
149 0.002005
139 0.002003
136 0.006013
139 0.005983
150 0.00304
159 0.002982
172 0.002993
177 0.002994
181 0.002992
185 0.007008
188 0.006014
190 0.001996
165 0.001994
116 0.003003
84 0.006041
78 0.006938
88 0.006923
110 0.003039
125 0.006976
133 0.00202
137 0.002026
135 0.001962
128 0.006024
122 0.007001
124 0.002011
132 0.001994
141 0.001995
154 0.007964
159 0.006982
167 0.002984
173 0.006978
177 0.001993
181 0.002023
184 0.001984
165 0.006965
114 0.006975
69 0.001999
64 0.001953
77 0.00201
95 0.006981
110 0.006982
120 0.00402
127 0.006995
126 0.001933
119 0.003002
115 0.001994
115 0.007001
123 0.007025
134 0.001966
145 0.003025
156 0.004016
167 0.00793
171 0.007013
176 0.003054
181 0.007002
187 0.002999
182 0.002998
138 0.002998
87 0.007005
61 0.006976
65 0.002997
83 0.003987
103 0.003962
117 0.007979
126 0.007979
134 0.004041
124 0.007954
117 0.002973
114 0.002993
120 0.003033
129 0.00698
139 0.006978
151 0.001969
160 0.00399
170 0.00399
176 0.007978
178 0.007961
183 0.003994
186 0.007965
130 0.002995
79 0.002997
59 0.00199
63 0.006985
82 0.007971
111 0.002977
125 0.003041
138 0.003009
146 0.007946
141 0.007979
123 0.003003
116 0.007969
123 0.003011
132 0.002
142 0.001027
152 0.00697
160 0.007949
164 0.003998
171 0.003979
177 0.003989
155 0.007978
109 0.007978
73 0.003989
81 0.007943
101 0.002996
122 0.002993
141 0.003012
158 0.007936
154 0.007952
142 0.003991
130 0.00399
128 0.003987
131 0.007971
139 0.007979
154 0.003997
171 0.007975
180 0.002983
187 0.002992
193 0.002992
160 0.006983
96 0.007941
53 0.004029
41 0.003997
52 0.00396
73 0.007964
99 0.007975
114 0.004012
126 0.007977
123 0.002959
113 0.003992
106 0.003998
108 0.007011
117 0.006983
129 0.002992
141 0.003026
152 0.004023
160 0.007929
170 0.007978
175 0.003998
117 0.007957
64 0.002993
38 0.00299
40 0.003978
63 0.006935
82 0.006954
98 0.003977
109 0.004044
117 0.004051
113 0.006946
104 0.006982
100 0.003977
108 0.007968
119 0.003979
130 0.002995
142 0.003023
155 0.006982
162 0.007006
168 0.004962
174 0.004003
170 0.004989
99 0.006981
52 0.00698
36 0.007013
57 0.007968
78 0.007009
96 0.004966
110 0.003986
120 0.004996
118 0.006947
108 0.007015
101 0.005022
101 0.003999
109 0.003979
122 0.006943
135 0.006984
152 0.006958
160 0.007972
165 0.003989
169 0.003988
172 0.003985
179 0.006976
170 0.007004
116 0.004018
66 0.004018
45 0.002982
54 0.006988
76 0.006982
110 0.00696
126 0.006955
134 0.002983
128 0.00398
113 0.003985
101 0.005948
102 0.006983
111 0.003973
124 0.003984
137 0.003987
152 0.007013
161 0.006929
170 0.006982
179 0.006966
179 0.002997
135 0.004
77 0.004002
42 0.005961
48 0.005985
66 0.003979
89 0.004962
107 0.004971
127 0.006992
134 0.006982
114 0.006986
104 0.006972
103 0.003984
110 0.004016
122 0.004988
139 0.005993
151 0.006021
162 0.005003
168 0.004986
172 0.004987
178 0.007024
184 0.006017
130 0.006949
68 0.006007
35 0.00495
33 0.004954
48 0.00498
76 0.006981
94 0.00602
109 0.005004
115 0.004965
113 0.005961
100 0.006019
94 0.006024
99 0.00598
110 0.006007
123 0.005021
136 0.004992
147 0.004994
159 0.006033
164 0.005956
169 0.004996
174 0.00502
172 0.00502
105 0.006975
52 0.005984
31 0.005983
48 0.006017
70 0.004995
90 0.004983
103 0.004981
116 0.00595
115 0.005979
104 0.004983
95 0.003989
93 0.003985
102 0.006979
115 0.005967
135 0.005997
146 0.005976
154 0.003979
160 0.004993
164 0.004016
170 0.005981
173 0.006016
140 0.003995
79 0.004992
41 0.003989
38 0.006983
59 0.005027
98 0.005986
114 0.005959
126 0.00499
127 0.004
112 0.005016
95 0.005987
94 0.005963
101 0.004994
112 0.005018
126 0.004981
144 0.004989
153 0.004956
166 0.004983
173 0.004988
170 0.004978
120 0.004985
65 0.003947
38 0.006034
48 0.005013
76 0.004987
92 0.00497
117 0.004981
132 0.005024
134 0.004987
113 0.004991
110 0.005011
116 0.004992
131 0.004988
149 0.004986
171 0.006029
186 0.005986
197 0.004975
205 0.005053
212 0.004968
218 0.00505
225 0.005032
227 0.004955
164 0.004981
93 0.003988
62 0.004971
67 0.005
80 0.004957
106 0.005986
116 0.005986
120 0.003988
123 0.004985
115 0.004989
103 0.004982
96 0.004977
103 0.004987
113 0.00496
125 0.004954
136 0.004987
147 0.004989
158 0.005945
163 0.004981
166 0.004989
169 0.00502
175 0.004996
178 0.004988
104 0.003971
53 0.004963
31 0.003983
39 0.004006
59 0.004035
78 0.005004
91 0.004999
100 0.004982
106 0.004977
99 0.005018
90 0.004993
87 0.004988
96 0.004015
107 0.003984
120 0.003983
136 0.003983
145 0.004982
152 0.004985
156 0.004985
159 0.005021
163 0.004989
165 0.004998
168 0.003964
175 0.003978
131 0.003984
74 0.003983
43 0.003988
42 0.003939
66 0.00498
80 0.004944
105 0.004989
118 0.004981
129 0.002004
123 0.003954
102 0.004945
94 0.003995
104 0.003979
115 0.004005
129 0.003989
148 0.003992
160 0.003991
169 0.003987
174 0.004999
176 0.004988
181 0.004987
186 0.004021
165 0.003974
105 0.003977
50 0.004035
54 0.004038
72 0.004013
103 0.00398
123 0.003983
138 0.004013
144 0.004031
133 0.004023
113 0.003991
107 0.00402
111 0.004036
120 0.00399
144 0.003981
160 0.003988
172 0.003989
183 0.003997
190 0.003993
195 0.003977
196 0.004017
198 0.003038
206 0.003032
187 0.004946
114 0.004007
61 0.002984
42 0.004011
59 0.003025
83 0.003029
111 0.004023
123 0.004043
131 0.003991
131 0.00402
119 0.004037
104 0.003991
104 0.00398
113 0.004012
127 0.003991
152 0.003983
168 0.003989
180 0.002968
191 0.002982
195 0.002984
197 0.003998
201 0.004038
205 0.003945
186 0.003958
114 0.003955
60 0.003962
41 0.003958
60 0.003956
85 0.002975
107 0.002999
129 0.002992
139 0.002944
136 0.003005
123 0.003025
112 0.003033
110 0.003034
118 0.00299
131 0.002979
147 0.002996
172 0.00302
185 0.002997
194 0.002995
199 0.003001
202 0.002995
206 0.003037
209 0.002992
167 0.003989
74 0.003988
45 0.003019
44 0.004026
63 0.003023
110 0.002986
132 0.00302
146 0.003
152 0.002966
131 0.002988
110 0.002939
101 0.002988
105 0.002999
116 0.002992
138 0.002989
154 0.002982
166 0.003987
181 0.002996
191 0.002992
198 0.002992
159 0.002989
71 0.003002
45 0.002993
48 0.002992
67 0.003025
95 0.002992
132 0.003007
154 0.003002
163 0.002995
130 0.002967
114 0.003002
110 0.002956
118 0.003024
136 0.003
152 0.003019
167 0.002996
177 0.002992
186 0.003023
194 0.002998
200 0.002986
194 0.001997
73 0.001988
31 0.001991
23 0.003044
38 0.002994
68 0.002987
87 0.003017
101 0.003003
110 0.002948
111 0.002992
97 0.002028
88 0.002021
88 0.002007
102 0.002013
116 0.001992
130 0.001994
144 0.002992
154 0.003031
161 0.003005
170 0.003001
167 0.002992
116 0.002991
42 0.001978
23 0.001999
29 0.002001
61 0.001936
78 0.002024
90 0.002
99 0.001974
101 0.002028
93 0.003022
87 0.002996
86 0.001992
94 0.00198
109 0.002025
121 0.002029
133 0.002015
146 0.002007
152 0.002038
156 0.00202
161 0.001995
150 0.002028
97 0.001995
52 0.003006
35 0.002992
43 0.002955
70 0.001993
87 0.001996
99 0.002032
112 0.001988
107 0.001982
96 0.002017
90 0.001976
94 0.001998
104 0.001995
115 0.000989
126 0.002027
135 0.001996
143 0.002025
146 0.001028
151 0.001994
156 0.002017
125 0.002992
79 0.000992
55 0.001995
61 0.001996
79 0.00202
98 0.001995
114 0.001028
128 0.001996
128 0.000998
116 0.000991
106 0.001992
107 0.001983
117 0.001995
129 0.00198
141 0.001964
150 0.002059
158 0.001994
166 0.002028
168 0.001989
168 0.000997
169 0.001046
171 0.001004
175 0.000997
177 0.002039
133 0.002023
75 0.001964
46 0.002049
47 0.001988
61 0.001997
77 0.002077
84 0.000993
88 0.001024
95 0.000997
94 0.000997
90 0.000996
88 0.000994
94 0.000976
103 0.002034
115 0.002013
128 0.001996
137 0.001991
143 0.000991
146 0.000997
149 0.000997
151 0.000988
152 0.00098
157 0.001003
167 0.001008
171 0.000973
140 0.000998
84 0.002017
51 0.001991
47 0.001008
61 0.000998
78 0.001029
88 0.000989
93 0.001038
101 0.000997
102 0.000997
92 0.000937
92 0.000979
98 0.000959
108 0.000998
118 0.001034
133 0.000976
141 0.000975
147 0.001002
151 0.000998
154 0.000997
155 0.000997
156 0.000997
162 0.001001
170 0.001012
178 0.000997
166 0.0
111 0.0
61 0.000998
58 0.000997
72 0.000997
93 0.000996
111 0.001048
126 0.000957
132 0.000998
118 0.000951
108 0.0
105 0.0
111 0.0
122 0.0
140 0.000997
154 0.000998
163 0.001018
170 0.001027
174 0.000997
177 0.000959
178 0.0
180 0.000968
185 0.0
190 0.0
183 0.0
126 0.0
60 0.0
48 0.0
57 0.0
77 0.001011
94 0.000987
106 0.000984
111 0.000998
112 0.000996
107 0.0
101 0.0
103 0.0
111 0.0
127 0.0
141 0.0
152 0.0
162 0.0
170 0.000997
176 0.0
179 0.000987
183 0.000997
184 0.0
187 0.0
194 0.0
203 0.0
177 0.0
107 0.0
60 0.001049
47 0.0
57 0.0
85 0.000997
104 0.0
117 0.0
123 0.0
122 0.0
114 0.0
106 0.0
110 0.0
121 0.0
135 0.0
150 0.0
164 0.000967
178 0.001006
186 0.000998
194 0.0
196 0.0
196 0.0
198 0.0
201 0.0
211 0.0
204 0.0
135 0.0
74 0.0
51 0.0
62 0.000998
86 0.001024
127 0.0
140 0.001032
147 0.001028
144 0.001029
128 0.0
109 0.0
109 0.002029
119 0.001997
134 0.000998
152 0.000999
174 0.00203
186 0.002041
196 0.0
201 0.001993
204 0.001028
211 0.00103
209 0.001044
124 0.001028
68 0.000997
49 0.000996
57 0.000995
80 0.001002
120 0.002031
145 0.001037
168 0.001986
162 0.002029
139 0.002019
121 0.002
118 0.001053
130 0.000998
147 0.000991
168 0.00101
188 0.00107
201 0.000998
212 0.000998
221 0.002021
224 0.001995
226 0.002035
158 0.000997
225 0.002063
148 0.001993
67 0.001022
30 0.001028
37 0.00103
59 0.001056
88 0.001028
113 0.000998
127 0.001009
135 0.001
122 0.001055
107 0.001025
101 0.00101
105 0.002024
119 0.000997
145 0.001987
164 0.001989
180 0.002029
192 0.001036
200 0.001047
206 0.00097
213 0.000998
202 0.001006
122 0.000997
54 0.001001
27 0.000967
31 0.000997
61 0.002029
88 0.001013
110 0.002055
123 0.001983
134 0.002049
126 0.001049
105 0.000973
98 0.001993
105 0.001049
120 0.000997
138 0.000999
157 0.001995
177 0.002033
186 0.002057
192 0.00203
199 0.002037
206 0.002042
168 0.002028
65 0.00199
31 0.001048
39 0.00097
63 0.001002
93 0.001051
120 0.00104
145 0.00102
151 0.000995
135 0.001995
111 0.001964
100 0.001977
104 0.001998
125 0.001999
152 0.002072
169 0.002047
182 0.001995
191 0.000973
199 0.001038
207 0.002025
160 0.00103
76 0.000988
32 0.001995
26 0.00203
49 0.003025
87 0.002016
115 0.00204
130 0.00198
136 0.001996
124 0.001954
106 0.002027
97 0.001028
103 0.001987
116 0.002011
133 0.001995
152 0.002048
172 0.001968
184 0.002026
190 0.001983
193 0.002013
198 0.001995
192 0.002044
116 0.001989
32 0.001995
15 0.00203
24 0.002041
44 0.002011
69 0.001996
93 0.002047
105 0.001994
104 0.002027
92 0.002028
84 0.002015
83 0.002051
91 0.002059
109 0.002027
127 0.002999
144 0.002999
156 0.002995
168 0.001995
180 0.001995
182 0.001995
184 0.002028
190 0.002026
185 0.001993
118 0.001995
52 0.002034
21 0.002993
31 0.00303
52 0.003025
76 0.002992
94 0.002026
110 0.001993
117 0.00202
102 0.002007
91 0.002033
91 0.002066
100 0.001978
116 0.001995
137 0.002998
151 0.003025
166 0.002973
173 0.002989
182 0.002992
185 0.003023
182 0.001984
191 0.001996
195 0.002003
148 0.001987
74 0.001988
37 0.001995
33 0.001989
59 0.002954
88 0.001995
118 0.002971
127 0.002992
137 0.002989
119 0.002992
101 0.002994
93 0.002993
101 0.00304
116 0.002979
137 0.002985
156 0.002983
172 0.002001
181 0.002992
186 0.00299
192 0.002992
199 0.002992
135 0.002984
85 0.002992
35 0.002992
35 0.003998
62 0.002039
91 0.002986
115 0.002992
131 0.002968
143 0.002995
130 0.002966
111 0.002986
104 0.002967
112 0.002969
128 0.002975
146 0.003025
166 0.003951
180 0.002987
194 0.002027
201 0.001992
204 0.002993
207 0.003024
208 0.001966
211 0.002966
215 0.002991
150 0.002991
48 0.00298
22 0.002992
26 0.002987
57 0.002973
82 0.00199
99 0.002065
108 0.003989
115 0.004001
110 0.002992
98 0.002046
92 0.002029
103 0.00296
113 0.002992
135 0.003024
152 0.003028
173 0.002031
184 0.002028
192 0.002003
194 0.004013
196 0.004024
203 0.001992
205 0.00199
209 0.002995
201 0.002981
92 0.002967
39 0.00396
26 0.002992
45 0.00196
72 0.002998
97 0.003055
113 0.003966
126 0.00396
129 0.002988
113 0.002959
101 0.002991
98 0.003033
107 0.002992
129 0.004003
147 0.003979
170 0.001994
182 0.002052
188 0.001998
192 0.003989
195 0.003984
200 0.002004
207 0.002031
199 0.001988
76 0.002994
48 0.002991
38 0.004004
57 0.003992
99 0.002001
130 0.001988
153 0.001966
167 0.00398
162 0.003984
127 0.001974
110 0.001979
109 0.002963
132 0.001046
154 0.000997
176 0.004024
194 0.004025
208 0.000977
214 0.002012
221 0.001994
227 0.003996
182 0.003989
61 0.002992
35 0.003991
25 0.004986
67 0.001994
95 0.000997
119 0.004986
138 0.00402
146 0.000998
131 0.001996
111 0.001999
103 0.003989
108 0.004989
125 0.001012
146 0.001994
168 0.001999
191 0.000996
201 0.001967
206 0.004987
212 0.004987
219 0.001987
174 0.001994
78 0.002002
28 0.004046
18 0.00399
39 0.001971
65 0.000957
89 0.001033
117 0.001024
126 0.000998
120 0.005016
107 0.005011
96 0.004996
98 0.001065
110 0.002003
121 0.003989
147 0.0
163 0.004022
185 0.001023
195 0.001
202 0.000986
207 0.001001
212 0.001018
192 0.004986
102 0.004989
29 0.001994
22 0.000998
37 0.000963
63 0.004013
89 0.004019
114 0.000995
128 0.002956
123 0.001996
105 0.001995
95 0.002034
96 0.005036
106 0.00502
130 0.002028
148 0.000997
164 0.002018
177 0.005008
185 0.006048
193 0.001037
198 0.00098
203 0.0
143 0.001011
66 0.000998
35 0.004984
35 0.004986
64 0.000998
96 0.001044
125 0.001022
149 0.004985
161 0.005035
143 0.000994
117 0.000997
103 0.000999
114 0.001036
131 0.001015
150 0.006016
170 0.005978
191 0.000958
200 0.000979
206 0.0
215 0.005025
210 0.004997
103 0.001005
42 0.001986
27 0.0
46 0.0
73 0.0
100 0.006004
119 0.00502
136 0.0
131 0.000999
113 0.0
101 0.005028
98 0.004998
112 0.0
130 0.0
160 0.000999
175 0.0
185 0.0
194 0.006019
200 0.00602
206 0.0
205 0.0
143 0.001009
59 0.004987
22 0.004994
24 0.0
44 0.0
84 0.0
100 0.0
111 0.00202
117 0.005981
109 0.005979
92 0.001985
90 0.0
97 0.0
112 0.006936
128 0.00701
150 0.0
164 0.0
183 0.001993
187 0.0
190 0.0
198 0.006011
195 0.006016
105 0.0
45 0.000996
23 0.0
30 0.005998
50 0.006011
83 0.0
103 0.0
121 0.0
119 0.0
106 0.000969
94 0.006019
91 0.006006
102 0.00104
119 0.0
137 0.0
152 0.005993
164 0.005951
173 0.0
178 0.0
186 0.0
189 0.001987
140 0.001992
70 0.006018
38 0.005924
41 0.001004
64 0.001022
93 0.001048
119 0.006012
141 0.006025
151 0.001001
134 0.0
105 0.001007
104 0.002031
113 0.0
130 0.006019
150 0.00602
172 0.000969
184 0.001995
191 0.001054
197 0.005984
201 0.00601
208 0.0
195 0.001032
66 0.001005
29 0.000998
25 0.001004
40 0.006981
64 0.00698
92 0.001051
105 0.002031
116 0.002029
118 0.001993
108 0.005984
96 0.006994
95 0.002018
110 0.006981
131 0.001028
147 0.001972
163 0.001002
176 0.007982
182 0.006981
188 0.001007
192 0.001992
196 0.001005
194 0.006987
140 0.006983
49 0.0
23 0.007016
41 0.0
65 0.002027
86 0.002031
102 0.007026
115 0.005987
118 0.000994
107 0.001993
99 0.002055
96 0.006989
102 0.006968
120 0.001003
144 0.007001
163 0.001007
175 0.000999
183 0.001993
187 0.006994
190 0.007013
197 0.000994
198 0.001985
149 0.001998
74 0.007945
37 0.006968
38 0.00099
67 0.007028
104 0.001997
123 0.00099
139 0.000995
141 0.006985
124 0.007021
99 0.001003
96 0.001004
104 0.002023
124 0.007975
143 0.007976
160 0.002003
172 0.00697
183 0.002002
192 0.002027
198 0.002007
168 0.006984
73 0.00795
41 0.002998
41 0.002046
59 0.002003
86 0.007981
113 0.007987
145 0.001995
153 0.007016
127 0.0
110 0.001997
105 0.001987
112 0.006981
126 0.00699
150 0.001999
167 0.001984
180 0.001996
192 0.007979
195 0.007979
198 0.000989
202 0.007975
196 0.001006
123 0.001029
52 0.000989
21 0.006982
24 0.007947
44 0.001977
65 0.002047
80 0.001999
90 0.00797
99 0.00798
98 0.002008
84 0.007958
82 0.001985
89 0.002027
101 0.001994
116 0.007949
132 0.007979
149 0.002999
156 0.001957
161 0.001981
166 0.007014
171 0.007983
170 0.002033
100 0.007979
36 0.002
24 0.002863
34 0.003071
52 0.008015
77 0.008017
88 0.00299
97 0.002
102 0.002002
97 0.007968
88 0.007946
84 0.001
98 0.007979
111 0.000994
124 0.001029
136 0.001985
148 0.006955
152 0.006986
154 0.002012
158 0.002015
163 0.000956
164 0.007973
108 0.007969
60 0.005017
41 0.007977
59 0.002993
87 0.006957
99 0.003008
116 0.006982
123 0.007013
117 0.001983
105 0.003006
96 0.003042
99 0.007955
105 0.007982
122 0.002003
144 0.007946
153 0.002
159 0.003004
163 0.002992
167 0.007015
170 0.006985
148 0.002998
92 0.002993
54 0.002993
46 0.002028
64 0.007971
77 0.007983
104 0.007978
112 0.007017
116 0.002959
113 0.002967
104 0.002993
99 0.006981
105 0.00698
115 0.002997
125 0.003062
137 0.003002
149 0.006997
155 0.007
161 0.007935
163 0.007015
165 0.003988
167 0.002993
170 0.002992
177 0.006982
155 0.006986
99 0.002987
61 0.001974
55 0.003001
72 0.006951
89 0.006945
106 0.005987
110 0.006957
115 0.003993
114 0.002985
109 0.002986
106 0.007018
111 0.006981
119 0.003003
129 0.002996
139 0.003003
151 0.006982
157 0.005969
164 0.006016
167 0.006016
169 0.002993
171 0.000996
174 0.002992
178 0.007038
184 0.006949
192 0.00399
185 0.003012
136 0.001982
79 0.006978
73 0.005954
100 0.005987
118 0.006957
130 0.002973
135 0.003994
139 0.002993
135 0.00695
125 0.006983
119 0.003004
122 0.002993
130 0.003001
144 0.005958
153 0.005968
164 0.006022
169 0.005995
172 0.003996
173 0.00399
175 0.003989
181 0.005982
186 0.006016
179 0.004946
137 0.003965
98 0.003958
90 0.005985
104 0.006016
138 0.005948
153 0.006016
164 0.004947
165 0.004971
158 0.004021
144 0.005984
137 0.005983
140 0.002997
149 0.002992
162 0.003997
177 0.00598
184 0.005983
193 0.005954
196 0.005954
198 0.001989
199 0.002994
200 0.003958
204 0.006942
207 0.006933
188 0.003964
130 0.002991
89 0.002978
81 0.005969
96 0.005897
128 0.005964
137 0.005985
141 0.003967
143 0.003994
142 0.004001
133 0.005976
128 0.004982
130 0.004944
137 0.004012
147 0.001999
160 0.004986
169 0.004977
180 0.005983
184 0.005987
186 0.004993
190 0.004986
193 0.003987
157 0.004985
105 0.005946
75 0.005985
77 0.002934
92 0.002988
119 0.004948
132 0.005017
143 0.004986
145 0.004987
138 0.00498
128 0.002993
123 0.00399
127 0.005986
137 0.006009
148 0.003989
159 0.002981
167 0.003985
175 0.005986
178 0.004988
186 0.004989
185 0.004955
147 0.003988
98 0.004987
77 0.004026
80 0.004003
106 0.006015
129 0.005986
146 0.00399
158 0.003991
160 0.003967
144 0.004983
127 0.004947
125 0.005021
133 0.005043
149 0.004989
157 0.00499
166 0.004047
176 0.006017
181 0.00494
187 0.004011
180 0.003989
131 0.00402
72 0.004994
66 0.004043
87 0.005018
109 0.004987
129 0.004971
136 0.003989
141 0.004984
132 0.005992
120 0.005019
113 0.004947
117 0.004961
123 0.003016
138 0.004986
152 0.003983
162 0.00501
166 0.005951
169 0.003945
173 0.003994
169 0.004988
121 0.004979
69 0.003984
45 0.003023
48 0.003985
63 0.002995
86 0.005012
100 0.004985
105 0.00502
107 0.004989
101 0.003995
96 0.004987
95 0.005002
101 0.004987
112 0.003994
125 0.00398
135 0.003956
143 0.00398
148 0.005006
154 0.004954
157 0.004987
161 0.004028
146 0.004016
95 0.004019
55 0.003993
44 0.00402
54 0.00399
78 0.004024
92 0.003994
100 0.00398
106 0.004953
109 0.003997
103 0.005002
99 0.004988
103 0.003992
112 0.004945
123 0.004029
134 0.00402
144 0.003975
153 0.003963
159 0.003957
162 0.004007
164 0.003985
168 0.004041
170 0.005011
174 0.004988
180 0.004976
184 0.003977
145 0.003985
91 0.00399
65 0.003965
71 0.004009
91 0.003989
105 0.003972
123 0.003984
133 0.003994
131 0.004955
121 0.003991
109 0.004986
110 0.003949
119 0.00403
130 0.003989
142 0.003989
155 0.003994
161 0.003991
165 0.00399
167 0.00399
172 0.003956
175 0.003956
178 0.004035
135 0.004993
91 0.002991
73 0.004011
78 0.00399
96 0.00398
123 0.004007
136 0.00302
146 0.003033
148 0.003965
130 0.004032
122 0.003987
122 0.002978
133 0.002997
145 0.002986
157 0.003025
167 0.003989
174 0.004007
181 0.004
183 0.004018
186 0.003991
187 0.003986
191 0.003949
195 0.003019
187 0.00399
114 0.002981
70 0.002997
58 0.002956
67 0.002984
86 0.00299
108 0.003988
116 0.003978
120 0.003988
122 0.004002
112 0.003983
107 0.002986
108 0.003025
115 0.003038
129 0.002996
142 0.002993
152 0.002983
160 0.003005
166 0.002984
170 0.003981
173 0.003968
174 0.003983
180 0.003997
182 0.002981
149 0.002992
93 0.002992
54 0.002992
57 0.002955
74 0.002949
94 0.002965
108 0.00302
118 0.003989
124 0.003997
122 0.003005
110 0.003016
108 0.00299
114 0.003023
123 0.002991
140 0.001988
153 0.001937
162 0.001989
169 0.003026
175 0.002984
180 0.001975
181 0.002992
183 0.002994
188 0.002996
193 0.002998
192 0.003017
142 0.002978
73 0.002988
59 0.002998
67 0.003007
87 0.002984
111 0.002037
129 0.002992
138 0.001995
140 0.001982
121 0.002992
112 0.002992
111 0.002995
118 0.002993
136 0.002987
150 0.002984
161 0.002996
170 0.00299
175 0.00298
178 0.002996
182 0.001966
187 0.001984
164 0.001994
110 0.003017
76 0.002992
69 0.003012
90 0.002968
115 0.003025
137 0.002951
154 0.002937
164 0.002994
154 0.001939
138 0.001996
128 0.001962
133 0.002001
144 0.001951
158 0.002993
171 0.003007
184 0.002983
190 0.002964
195 0.002007
202 0.002978
201 0.002986
138 0.001995
88 0.001973
69 0.001998
86 0.002024
106 0.002022
125 0.002992
135 0.002992
144 0.002991
143 0.002991
135 0.002991
127 0.002992
125 0.002025
135 0.001998
146 0.001989
157 0.002006
172 0.001999
179 0.001988
184 0.002003
190 0.002044
184 0.002983
137 0.002041
89 0.00204
71 0.001983
76 0.001993
100 0.001991
117 0.001976
128 0.001986
140 0.002
139 0.002002
132 0.00203
125 0.00206
126 0.003991
134 0.003991
144 0.002992
154 0.001951
164 0.00199
173 0.002026
178 0.001997
183 0.00202
178 0.001991
131 0.001967
87 0.001995
70 0.00103
83 0.000996
102 0.000992
119 0.00105
131 0.001955
139 0.001969
140 0.001992
130 0.001994
121 0.001988
121 0.002008
129 0.000998
140 0.002036
150 0.00202
160 0.001991
166 0.001018
173 0.001015
177 0.001011
153 0.002002
92 0.001987
70 0.002103
74 0.002012
106 0.001028
126 0.001953
140 0.001026
148 0.001992
141 0.000998
129 0.003989
121 0.001031
122 0.000974
129 0.001995
144 0.001964
155 0.002011
164 0.001989
173 0.001993
178 0.002024
182 0.000997
163 0.000997
107 0.000998
57 0.001038
53 0.001019
67 0.000995
87 0.000955
104 0.000998
115 0.000996
120 0.001948
114 0.002004
106 0.001994
105 0.001027
109 0.002029
119 0.000997
133 0.000973
143 0.000971
152 0.001021
158 0.002002
163 0.001996
169 0.001998
165 0.002061
86 0.0
49 0.002017
43 0.002025
55 0.002029
75 0.000982
95 0.00096
104 0.00101
111 0.000998
112 0.000997
108 0.000997
100 0.000998
102 0.000989
117 0.000966
129 0.001032
140 0.001033
148 0.002031
155 0.001996
162 0.002032
166 0.002026
169 0.00101
153 0.000978
101 0.000994
52 0.001014
50 0.001003
81 0.000997
100 0.000997
112 0.000997
121 0.001994
126 0.002019
115 0.001986
105 0.0
103 0.0
109 0.001002
120 0.001014
135 0.001003
145 0.001013
156 0.001008
161 0.0
168 0.0
170 0.0
142 0.0
79 0.0
61 0.0
69 0.001032
89 0.0
111 0.0
135 0.0
147 0.000963
138 0.001011
126 0.001032
119 0.000998
122 0.000997
132 0.000942
148 0.0
160 0.001011
170 0.001023
176 0.000989
181 0.0
185 0.0
187 0.0
191 0.000997
189 0.000998
144 0.000997
85 0.001013
54 0.000985
57 0.0
75 0.001029
96 0.0
108 0.0
114 0.0
120 0.0
117 0.0
107 0.0
108 0.0
116 0.0
126 0.001002
138 0.000997
152 0.000999
161 0.0
166 0.001001
170 0.0
173 0.0
178 0.0
179 0.0
109 0.0
64 0.0
50 0.0
59 0.0
79 0.000995
105 0.0
114 0.002017
123 0.000962
126 0.0
121 0.0
112 0.0
110 0.000997
120 0.001995
136 0.0
147 0.0
157 0.00095
165 0.0
171 0.0
175 0.0
178 0.000947
182 0.000997
182 0.001035
123 0.0
73 0.000996
59 0.0
77 0.0
102 0.0
122 0.0
136 0.0
145 0.0
136 0.0
121 0.001986
110 0.000991
111 0.001015
125 0.001988
138 0.001987
161 0.000997
168 0.001028
176 0.000999
183 0.002002
190 0.001996
156 0.001984
96 0.001991
62 0.002002
58 0.003038
74 0.001993
99 0.002968
130 0.000967
153 0.001028
155 0.002001
138 0.001984
124 0.002031
120 0.001978
126 0.001994
143 0.001995
158 0.001995
171 0.001995
183 0.001992
189 0.001988
195 0.001989
201 0.001993
199 0.001031
145 0.001028
75 0.001962
41 0.001988
40 0.001958
66 0.00195
89 0.001992
107 0.001987
118 0.002003
125 0.00199
122 0.001988
109 0.002025
105 0.001977
112 0.002013
124 0.001979
140 0.000997
154 0.002957
169 0.00196
177 0.001993
184 0.001987
191 0.002024
184 0.001992
99 0.002034
41 0.002026
42 0.001995
62 0.002035
87 0.001958
108 0.002001
121 0.002984
133 0.001003
129 0.000997
119 0.001004
110 0.002002
111 0.001988
124 0.001989
145 0.002029
163 0.002002
175 0.002035
185 0.001962
192 0.001986
198 0.003042
193 0.002009
127 0.001984
64 0.002
40 0.000986
46 0.000999
79 0.001976
115 0.001995
140 0.001998
151 0.002003
145 0.002007
126 0.002004
112 0.001996
110 0.002014
120 0.001997
135 0.002014
151 0.002003
167 0.000999
183 0.001987
197 0.002032
189 0.002046
122 0.001997
66 0.002005
47 0.002955
56 0.001959
91 0.003025
123 0.002988
151 0.003975
172 0.001986
173 0.001983
141 0.001934
120 0.002028
124 0.001995
137 0.001992
155 0.002022
172 0.001992
186 0.002022
201 0.001985
211 0.002001
204 0.001983
128 0.001992
60 0.001988
35 0.001971
55 0.000999
91 0.001034
120 0.001033
143 0.001997
155 0.002021
144 0.002001
119 0.001986
112 0.002
116 0.001992
130 0.002013
151 0.001998
180 0.001995
203 0.002995
222 0.002013
227 0.002025
207 0.002002
127 0.001932
64 0.001933
43 0.001994
58 0.00296
90 0.00199
125 0.001995
154 0.002009
180 0.001994
176 0.001994
148 0.002993
140 0.002939
144 0.002994
159 0.002016
175 0.002003
199 0.002002
215 0.001997
223 0.001996
222 0.002011
210 0.00204
113 0.001988
37 0.002993
32 0.003029
53 0.002995
81 0.003022
103 0.003011
121 0.001973
141 0.001968
131 0.002
109 0.002002
100 0.002026
103 0.002002
119 0.002
142 0.002015
163 0.003004
177 0.002048
187 0.003021
193 0.002993
159 0.002991
84 0.002976
40 0.001984
46 0.001962
66 0.001991
94 0.002009
117 0.001994
150 0.001989
142 0.002032
112 0.002993
102 0.002993
104 0.002992
115 0.002971
132 0.002991
153 0.002972
166 0.003021
179 0.001977
189 0.003027
185 0.001979
73 0.002998
31 0.003
36 0.00299
57 0.003018
82 0.002991
103 0.003003
121 0.002961
129 0.003032
115 0.003003
100 0.003038
93 0.001999
97 0.002026
120 0.002992
143 0.002976
156 0.002991
165 0.002983
171 0.002988
176 0.002998
182 0.002992
185 0.003
140 0.002977
62 0.003022
17 0.002991
17 0.002963
56 0.002995
75 0.002968
85 0.002995
95 0.00303
100 0.003011
94 0.002989
85 0.002994
82 0.002997
90 0.00302
105 0.003005
115 0.003994
135 0.003987
154 0.003989
162 0.002982
166 0.003956
171 0.002962
177 0.003001
150 0.00299
78 0.003037
25 0.002991
24 0.003026
42 0.00296
74 0.002997
89 0.002984
106 0.002991
110 0.002992
102 0.002975
91 0.003004
88 0.002992
95 0.003009
108 0.003957
127 0.003942
142 0.003989
156 0.003965
167 0.003
169 0.003964
173 0.003022
179 0.003024
186 0.002996
167 0.004986
76 0.003036
48 0.003957
35 0.002995
56 0.003045
84 0.003954
115 0.00298
129 0.00299
139 0.002991
115 0.003996
99 0.003985
93 0.003024
100 0.003989
120 0.002976
138 0.003958
153 0.002984
165 0.004035
172 0.002969
180 0.002989
189 0.002963
193 0.003027
120 0.002976
47 0.002992
35 0.003986
49 0.004018
85 0.003981
105 0.002992
127 0.003016
148 0.004
145 0.004023
118 0.001994
103 0.003002
103 0.002996
126 0.001993
145 0.002989
163 0.004029
178 0.004009
191 0.003955
197 0.002995
200 0.002962
202 0.003996
203 0.00398
209 0.002953
197 0.002963
113 0.003955
33 0.00399
21 0.003989
40 0.001995
65 0.00399
88 0.003993
104 0.002991
113 0.002996
113 0.005028
103 0.00399
92 0.003007
93 0.002996
105 0.003987
132 0.001992
153 0.002039
171 0.005034
182 0.004952
188 0.005022
196 0.00198
202 0.003026
202 0.003023
150 0.005962
70 0.004986
31 0.002988
39 0.002992
79 0.002985
105 0.001992
126 0.001999
141 0.005027
144 0.005018
123 0.001995
108 0.001997
104 0.002005
112 0.00502
126 0.005018
148 0.003041
165 0.002002
186 0.002014
197 0.001988
204 0.004986
201 0.005985
109 0.002029
53 0.001962
53 0.002962
72 0.001958
99 0.004984
128 0.004992
161 0.002937
173 0.003032
143 0.002058
122 0.002014
116 0.002029
122 0.005943
136 0.004951
162 0.001998
179 0.002024
191 0.00205
201 0.004957
211 0.004978
188 0.002044
103 0.002012
45 0.002015
54 0.002959
76 0.001995
103 0.00498
123 0.004987
139 0.00196
146 0.001983
138 0.001996
123 0.004986
113 0.004936
118 0.000998
129 0.000999
155 0.000997
169 0.002005
179 0.002011
188 0.00399
197 0.005019
181 0.001995
106 0.000994
55 0.000997
45 0.004962
57 0.005958
88 0.003989
103 0.004986
124 0.001995
134 0.003998
130 0.001994
120 0.005986
112 0.005972
114 0.001995
124 0.002014
136 0.000965
150 0.005963
164 0.00606
180 0.001996
191 0.001995
184 0.001994
115 0.001997
63 0.001996
50 0.005002
62 0.005966
94 0.001996
115 0.002005
129 0.000972
140 0.006001
143 0.00598
129 0.000994
118 0.001994
118 0.002992
129 0.003981
141 0.002993
154 0.004976
165 0.004986
177 0.001995
185 0.003021
191 0.002031
179 0.005954
115 0.00598
62 0.000999
63 0.000998
100 0.000997
127 0.000992
147 0.001952
160 0.006
164 0.004983
142 0.001988
125 0.001997
120 0.000999
126 0.006018
136 0.006019
156 0.0
169 0.000995
186 0.001
196 0.001013
192 0.001031
137 0.006952
87 0.00698
74 0.000961
90 0.000981
116 0.000999
145 0.005983
171 0.005949
190 0.000998
176 0.001994
137 0.001994
130 0.001998
135 0.001992
146 0.006982
160 0.006931
178 0.001996
190 0.000999
201 0.001006
202 0.007004
146 0.00698
75 0.001996
65 0.001003
92 0.002
117 0.00196
138 0.002012
156 0.004944
164 0.005972
152 0.006981
124 0.0
113 0.0
115 0.000999
125 0.006998
139 0.006982
157 0.0
172 0.005985
174 0.000982
128 0.000996
77 0.001
57 0.006984
61 0.006986
85 0.0
104 0.001993
122 0.0
139 0.006016
145 0.007027
127 0.001013
108 0.006016
108 0.0
116 0.000998
131 0.0
145 0.00698
159 0.006933
171 0.0
147 0.000998
84 0.001993
46 0.007935
41 0.007979
62 0.002021
91 0.007949
110 0.00103
121 0.0
124 0.0
114 0.007009
103 0.006984
99 0.0
107 0.000994
122 0.0
136 0.007001
149 0.006969
164 0.001993
173 0.007037
179 0.0
182 0.0
186 0.0
190 0.006974
195 0.00698
202 0.0
207 0.0
213 0.0
218 0.007014
226 0.006981
149 0.001992
124 0.006979
42 0.002036
33 0.000998
48 0.0
73 0.007975
95 0.00698
106 0.002007
107 0.0
110 0.0
110 0.006948
107 0.006981
105 0.002994
113 0.006946
127 0.000996
142 0.001962
158 0.002002
172 0.007952
177 0.007971
182 0.0
185 0.0
189 0.002021
194 0.006969
198 0.007072
201 0.002016
210 0.006966
225 0.001986
203 0.001967
130 0.001958
84 0.007003
77 0.006977
98 0.001995
120 0.001995
139 0.0
146 0.007961
150 0.007972
154 0.001994
150 0.007947
145 0.003001
145 0.002967
153 0.002975
166 0.007948
173 0.007975
188 0.0
194 0.002038
203 0.0
210 0.00797
212 0.00794
216 0.002032
221 0.007968
226 0.000965
231 0.000948
234 0.001966
206 0.00698
141 0.007994
124 0.002002
130 0.001984
147 0.001977
166 0.006972
187 0.00798
195 0.001983
198 0.007978
189 0.0
181 0.0
177 0.002014
179 0.007996
185 0.007929
199 0.001989
209 0.0
217 0.001991
224 0.00702
227 0.007978
231 0.001973
233 0.007978
236 0.001993
237 0.001987
216 0.001993
171 0.007964
143 0.007979
145 0.002984
162 0.0
182 0.001991
197 0.007986
208 0.006977
215 0.001964
211 0.00793
201 0.001979
195 0.001999
198 0.001994
204 0.007971
213 0.007971
229 0.001988
239 0.001999
247 0.001952
254 0.001997
254 0.007031
255 0.007019
183 0.006956
151 0.007003
146 0.001983
159 0.002017
178 0.002029
197 0.007976
216 0.007958
226 0.002961
223 0.003961
207 0.001967
190 0.006994
186 0.006982
194 0.006979
201 0.006972
209 0.001984
216 0.002029
220 0.00199
227 0.006978
220 0.007972
179 0.001994
138 0.001999
123 0.002001
134 0.006985
153 0.006994
182 0.006982
194 0.006994
198 0.001995
190 0.003024
176 0.001986
165 0.007952
166 0.007949
171 0.001998
178 0.002996
186 0.00199
194 0.006984
200 0.006992
203 0.006991
172 0.006951
130 0.002013
110 0.001997
112 0.00199
134 0.006953
153 0.006957
167 0.00197
179 0.002971
181 0.003018
166 0.006966
154 0.007006
150 0.006956
155 0.006949
162 0.003019
169 0.001965
176 0.002024
183 0.006989
189 0.006938
186 0.002
153 0.000952
113 0.001993
97 0.006017
107 0.007041
138 0.006979
154 0.007001
165 0.001987
169 0.00199
160 0.00402
142 0.006935
137 0.006983
138 0.001986
144 0.002988
151 0.003005
161 0.005987
167 0.005999
174 0.007002
175 0.006977
145 0.00301
107 0.002981
89 0.001963
98 0.00694
116 0.006022
134 0.002993
149 0.00302
159 0.003024
154 0.006032
141 0.005964
127 0.005031
130 0.006017
136 0.003027
143 0.002968
150 0.003966
159 0.005989
165 0.006981
163 0.002992
132 0.003959
94 0.002998
78 0.005984
83 0.003989
117 0.005982
132 0.00598
142 0.001988
144 0.002992
136 0.002005
121 0.006979
117 0.006971
120 0.002026
126 0.001995
133 0.002029
143 0.005962
149 0.005953
156 0.005979
158 0.006011
131 0.002992
87 0.003005
61 0.001977
63 0.005996
79 0.005992
95 0.001972
108 0.002966
115 0.000997
118 0.001994
113 0.002025
98 0.00595
99 0.006989
104 0.002015
111 0.002951
119 0.002988
128 0.005962
133 0.00596
137 0.002996
142 0.004
142 0.004022
100 0.006027
62 0.005992
47 0.006005
60 0.005984
77 0.003957
91 0.003932
99 0.002992
106 0.00299
103 0.004996
94 0.004976
89 0.003995
90 0.003999
96 0.004018
106 0.00602
117 0.002022
126 0.006021
132 0.005934
136 0.000998
139 0.002992
143 0.000994
129 0.005985
85 0.004993
52 0.002992
44 0.004006
55 0.004003
78 0.004998
98 0.00298
109 0.00498
111 0.005028
105 0.002992
96 0.002003
92 0.001993
97 0.005978
104 0.004937
113 0.003993
123 0.003989
131 0.003971
140 0.005024
145 0.00299
149 0.004988
152 0.004977
155 0.004002
139 0.00299
94 0.003982
55 0.00402
54 0.005012
69 0.003966
93 0.003955
104 0.003954
119 0.005016
122 0.004017
112 0.003989
102 0.004005
101 0.004031
107 0.004003
112 0.002993
122 0.002992
132 0.00399
143 0.002992
149 0.004986
155 0.004001
159 0.00602
163 0.002971
167 0.005027
162 0.004993
121 0.003005
68 0.003959
58 0.00399
67 0.004954
85 0.005951
106 0.003001
122 0.004994
136 0.004956
135 0.004997
118 0.004031
106 0.004922
106 0.004982
116 0.003996
127 0.003956
138 0.003955
148 0.003989
156 0.004993
163 0.005003
166 0.004987
170 0.004991
174 0.004979
174 0.002995
117 0.003991
74 0.003987
60 0.003911
65 0.003981
83 0.001993
112 0.00399
130 0.003988
143 0.00399
145 0.002995
132 0.003997
112 0.004012
108 0.003987
116 0.003988
126 0.004965
141 0.003988
152 0.00399
157 0.003989
165 0.003989
169 0.004021
175 0.004023
174 0.004023
138 0.003989
88 0.005043
59 0.003954
70 0.005008
89 0.003989
112 0.00399
139 0.003997
151 0.00398
146 0.00399
128 0.003956
108 0.003963
106 0.003991
112 0.003997
121 0.003992
138 0.003987
151 0.003966
158 0.003995
169 0.003988
173 0.003989
142 0.003979
86 0.004
53 0.003988
48 0.003989
64 0.003963
77 0.003983
106 0.005019
129 0.003988
130 0.003992
115 0.004006
97 0.003964
94 0.003989
99 0.00398
109 0.004023
120 0.004023
135 0.004023
145 0.004037
152 0.00399
159 0.00399
145 0.00399
87 0.002965
45 0.002994
30 0.00299
42 0.002973
60 0.002984
79 0.002987
93 0.003999
103 0.003985
101 0.003982
90 0.003987
80 0.003991
81 0.003963
90 0.003959
100 0.003999
111 0.002985
124 0.002992
132 0.002985
139 0.002985
145 0.002989
136 0.002987
71 0.003997
33 0.003996
23 0.003984
43 0.003944
61 0.003959
81 0.003987
100 0.002992
105 0.002998
98 0.002992
89 0.002967
82 0.002965
83 0.003027
96 0.002986
108 0.002962
120 0.002952
135 0.003986
142 0.003997
149 0.003022
154 0.002995
117 0.002989
66 0.002983
36 0.003025
32 0.002991
45 0.002963
70 0.002985
86 0.003003
99 0.002974
108 0.004021
99 0.003014
89 0.002985
87 0.002989
95 0.002943
104 0.002997
116 0.003012
127 0.002992
137 0.002979
146 0.002952
152 0.003001
158 0.002012
138 0.002991
86 0.002992
50 0.002985
42 0.002969
59 0.002982
80 0.002983
99 0.003026
116 0.002985
125 0.003025
115 0.003001
101 0.002983
94 0.002968
98 0.002992
108 0.00198
120 0.001994
132 0.002962
144 0.002994
153 0.003019
160 0.00298
141 0.002993
92 0.003023
52 0.002993
50 0.002987
65 0.002991
99 0.00399
119 0.003961
132 0.001964
129 0.001965
112 0.002956
104 0.003003
104 0.002989
111 0.002992
122 0.002072
139 0.00202
150 0.002017
158 0.001983
167 0.002005
173 0.002006
165 0.001994
113 0.001999
50 0.00202
35 0.001994
44 0.002023
60 0.001995
78 0.002025
93 0.00299
102 0.002013
104 0.003004
93 0.002964
89 0.002968
91 0.001979
99 0.001991
114 0.001961
124 0.001986
134 0.002021
142 0.002036
148 0.00201
155 0.001994
155 0.002957
122 0.00299
51 0.003085
40 0.001995
49 0.002029
66 0.001988
85 0.001994
94 0.002011
103 0.001995
106 0.002001
102 0.002028
96 0.001986
97 0.00201
104 0.00199
121 0.001981
132 0.002004
141 0.001982
151 0.001974
159 0.002011
163 0.00196
165 0.002027
167 0.002038
171 0.002045
174 0.001993
139 0.001
90 0.001989
60 0.001982
70 0.001996
88 0.000955
105 0.000997
117 0.000992
124 0.001998
124 0.001982
115 0.001985
107 0.001964
107 0.002058
114 0.002001
124 0.001991
142 0.002
151 0.000995
158 0.000994
162 0.000962
163 0.000986
166 0.000989
170 0.001014
172 0.002011
150 0.002026
105 0.002001
75 0.001994
80 0.002
110 0.000971
129 0.001018
143 0.001002
153 0.000987
148 0.001
129 0.000994
120 0.001017
120 0.000994
128 0.001983
139 0.002027
156 0.001993
166 0.001996
178 0.000997
183 0.000998
184 0.001014
186 0.001016
188 0.001996
189 0.002016
153 0.001963
98 0.001997
69 0.001997
64 0.001004
82 0.000956
100 0.001023
119 0.001009
125 0.000964
126 0.002027
120 0.000972
110 0.001008
106 0.00201
112 0.000996
122 0.001968
134 0.002029
145 0.002018
158 0.000997
166 0.001017
173 0.000987
175 0.000971
176 0.001004
181 0.000995
184 0.00097
143 0.000992
90 0.001023
63 0.002039
61 0.001994
74 0.002019
100 0.001994
115 0.001011
129 0.002991
131 0.001968
122 0.000995
112 0.000954
106 0.000976
112 0.001001
123 0.0
135 0.0
148 0.0
160 0.0
171 0.0
175 0.000997
181 0.000997
186 0.0
174 0.0
119 0.0
75 0.0
60 0.000958
72 0.000972
93 0.000958
116 0.001036
134 0.001037
151 0.000973
148 0.000965
120 0.000999
112 0.0
113 0.0
124 0.0
138 0.0
158 0.0
172 0.000996
182 0.0
192 0.000995
198 0.000998
152 0.0
88 0.000992
53 0.0
63 0.0
83 0.0
107 0.0
127 0.0
146 0.0
147 0.0
132 0.0
117 0.0
111 0.001012
118 0.000961
131 0.0
158 0.0
172 0.0
182 0.0
190 0.0
196 0.0
203 0.0
168 0.000964
94 0.0
52 0.001
41 0.0
57 0.001034
79 0.00096
111 0.0
124 0.0
130 0.0
123 0.0
110 0.0
101 0.0
105 0.0
115 0.002992
130 0.0
145 0.0
164 0.001022
175 0.001005
185 0.0
191 0.0
194 0.0
159 0.0
89 0.0
43 0.0
42 0.002027
57 0.0
80 0.0
101 0.002048
121 0.002995
132 0.002979
126 0.001003
107 0.0
102 0.0
106 0.0
117 0.002016
132 0.002027
152 0.001981
167 0.001983
177 0.001988
182 0.002046
185 0.001981
192 0.002003
181 0.002997
93 0.002986
53 0.002987
44 0.002982
56 0.001993
79 0.002031
112 0.002948
132 0.001984
147 0.002126
145 0.002996
125 0.002
103 0.002993
102 0.00296
117 0.003016
133 0.002998
149 0.000975
163 0.002996
174 0.002024
187 0.002028
195 0.001999
178 0.001992
110 0.002053
62 0.002026
49 0.002995
71 0.002003
107 0.003025
133 0.002981
155 0.003007
161 0.002984
144 0.002989
116 0.001971
109 0.001982
115 0.002029
127 0.001989
144 0.001999
167 0.002025
184 0.002995
195 0.001989
199 0.001988
205 0.002972
201 0.00298
134 0.003041
50 0.002983
30 0.00198
37 0.002004
56 0.002046
80 0.002046
105 0.001984
121 0.00199
119 0.002953
105 0.002948
94 0.002988
92 0.002993
100 0.00295
119 0.000999
134 0.004022
150 0.002025
162 0.00203
171 0.00203
183 0.00303
183 0.002026
102 0.003984
49 0.003014
29 0.002978
34 0.003022
53 0.003023
82 0.003021
99 0.002992
113 0.002994
120 0.002991
114 0.00203
100 0.002029
97 0.001989
109 0.001991
123 0.001993
138 0.002986
152 0.002042
165 0.002046
177 0.001999
183 0.001995
190 0.00299
176 0.003046
108 0.003046
44 0.001992
37 0.00299
62 0.0
85 0.002001
105 0.002004
120 0.002019
129 0.001979
115 0.00198
99 0.002992
93 0.001994
96 0.00297
107 0.002997
127 0.002993
145 0.002982
158 0.001973
166 0.002026
174 0.002982
171 0.003024
121 0.003025
56 0.002045
42 0.002047
53 0.003033
74 0.001997
97 0.002025
126 0.003022
141 0.002991
123 0.002985
105 0.002991
99 0.003026
104 0.002978
116 0.001997
136 0.001995
151 0.00199
163 0.001999
169 0.001983
175 0.001994
181 0.002002
175 0.002002
95 0.001997
50 0.002005
37 0.00299
45 0.002992
64 0.002993
87 0.002994
97 0.001985
106 0.002956
108 0.001959
101 0.002028
93 0.002042
92 0.001997
100 0.001993
116 0.002021
130 0.001988
141 0.002006
149 0.002992
154 0.002991
158 0.003005
160 0.00296
163 0.002993
151 0.003044
99 0.002992
38 0.001998
36 0.002987
55 0.002987
71 0.003031
82 0.001982
90 0.00294
97 0.002853
94 0.002996
89 0.002998
86 0.003027
89 0.003007
99 0.002993
119 0.002998
132 0.002997
145 0.002003
152 0.002024
156 0.001989
158 0.002031
161 0.003041
168 0.002999
162 0.00299
113 0.003017
64 0.002992
42 0.002997
57 0.002991
75 0.002993
95 0.003022
104 0.002997
111 0.00203
110 0.002995
99 0.002995
90 0.002991
93 0.003031
102 0.002986
114 0.003023
131 0.003946
145 0.002971
149 0.003023
152 0.002977
153 0.003039
155 0.003012
160 0.003018
160 0.002999
109 0.003018
67 0.003052
51 0.003017
58 0.003019
77 0.003023
112 0.002995
129 0.003011
137 0.002977
124 0.003964
105 0.002973
102 0.003028
108 0.002994
119 0.002983
134 0.00302
153 0.002991
162 0.002993
172 0.003008
181 0.003021
183 0.003024
186 0.002994
188 0.003984
193 0.00299
179 0.003929
96 0.003978
53 0.003992
41 0.004073
50 0.00397
75 0.003023
91 0.003039
105 0.003963
112 0.003929
109 0.004019
101 0.00396
94 0.003954
97 0.00399
110 0.003029
123 0.004018
139 0.004031
153 0.003951
163 0.002991
172 0.004017
179 0.00306
179 0.003061
182 0.003038
187 0.003968
164 0.002994
122 0.003985
70 0.004029
47 0.003983
57 0.004007
83 0.002992
102 0.002984
116 0.002993
129 0.00301
127 0.003039
118 0.002982
112 0.00304
115 0.002982
125 0.002998
141 0.003026
156 0.003975
175 0.004014
191 0.003975
196 0.002979
200 0.003985
203 0.002952
204 0.003006
208 0.004003
212 0.004971
143 0.002999
81 0.001982
54 0.002989
56 0.003982
74 0.004005
99 0.003993
130 0.003959
141 0.003987
150 0.003987
129 0.00299
111 0.003009
105 0.004014
110 0.004989
128 0.002033
147 0.00299
165 0.002037
179 0.005038
187 0.00496
198 0.003003
207 0.002999
166 0.004008
94 0.004989
58 0.001994
53 0.003998
67 0.002979
103 0.002992
133 0.003035
161 0.003047
180 0.004948
172 0.004039
145 0.002999
123 0.002987
124 0.003992
140 0.003988
161 0.002002
181 0.003994
197 0.004989
212 0.003005
221 0.002946
226 0.003991
231 0.005032
187 0.004987
71 0.003026
36 0.003997
41 0.003999
64 0.002967
89 0.002996
110 0.003981
125 0.005012
134 0.003015
123 0.003015
108 0.001995
101 0.004985
103 0.004943
120 0.00201
139 0.003027
174 0.00299
190 0.002986
201 0.00299
210 0.00502
219 0.005019
171 0.002996
85 0.00203
40 0.003964
30 0.004984
41 0.004969
72 0.001975
95 0.002965
123 0.003008
133 0.003025
126 0.000997
112 0.004967
103 0.004987
106 0.002021
119 0.002058
136 0.002025
156 0.004059
169 0.005029
185 0.002001
196 0.002025
208 0.002018
183 0.003017
102 0.00103
49 0.00599
32 0.005017
47 0.00102
72 0.001999
98 0.001989
120 0.004954
137 0.004972
137 0.000994
118 0.003968
96 0.001964
100 0.001964
111 0.0
128 0.005956
144 0.005986
163 0.002037
174 0.003054
185 0.001949
193 0.005003
156 0.005002
71 0.001997
49 0.001035
64 0.002992
89 0.002003
117 0.001023
149 0.005986
167 0.004997
150 0.002038
126 0.00194
112 0.00203
110 0.003999
118 0.004941
135 0.001993
153 0.002026
174 0.000989
184 0.001
191 0.000999
199 0.004987
191 0.003003
99 0.002004
49 0.00203
33 0.001993
41 0.005985
58 0.00599
85 0.002992
100 0.002986
113 0.0
109 0.000996
98 0.002028
90 0.006032
90 0.006031
101 0.001995
115 0.002026
129 0.002032
143 0.00606
153 0.005977
163 0.002
171 0.003037
168 0.003012
113 0.003026
60 0.002995
38 0.005976
41 0.006012
59 0.002956
78 0.002935
94 0.003006
106 0.007005
114 0.007018
110 0.000983
99 0.000976
92 0.005983
101 0.001989
113 0.002034
128 0.003022
141 0.00598
154 0.006015
166 0.003024
172 0.002025
175 0.002993
176 0.005984
183 0.005964
175 0.002992
95 0.006985
49 0.002053
48 0.003023
62 0.003045
84 0.007029
105 0.006979
123 0.002009
133 0.001998
131 0.001982
117 0.006016
105 0.006985
104 0.003008
119 0.006998
143 0.001997
162 0.003002
179 0.003025
191 0.007011
200 0.006977
205 0.002993
206 0.001984
211 0.002013
218 0.006037
197 0.005985
95 0.002995
56 0.006998
67 0.002996
91 0.002013
121 0.002024
148 0.007015
170 0.006001
172 0.003023
146 0.002031
123 0.001984
115 0.005958
120 0.005938
141 0.001965
170 0.007022
196 0.001991
210 0.002046
219 0.002013
225 0.006976
181 0.007013
232 0.001998
172 0.003024
84 0.002991
47 0.007016
44 0.007028
68 0.0
106 0.00698
138 0.001976
155 0.002007
159 0.001995
142 0.007011
120 0.006977
110 0.002969
118 0.002995
134 0.002993
157 0.007954
180 0.00795
204 0.001939
219 0.007979
225 0.003034
225 0.002985
225 0.002019
229 0.006983
238 0.007026
200 0.001978
93 0.003006
39 0.002983
29 0.007987
38 0.007971
73 0.002001
109 0.007927
131 0.00196
138 0.00299
130 0.002992
110 0.007013
97 0.006994
99 0.00199
112 0.001996
132 0.002041
155 0.007014
183 0.007939
199 0.003035
213 0.007986
220 0.003075
222 0.003041
224 0.003062
231 0.007981
232 0.007985
143 0.003
56 0.002029
31 0.006981
27 0.006029
55 0.007967
89 0.002934
128 0.007979
152 0.003961
154 0.003002
134 0.002994
104 0.006926
99 0.006943
107 0.003026
126 0.002987
151 0.002967
183 0.007986
197 0.007949
218 0.002992
229 0.007979
232 0.002994
233 0.002992
236 0.002992
231 0.00795
144 0.00793
53 0.001974
23 0.002994
27 0.003017
62 0.006935
88 0.007978
140 0.002995
183 0.007978
179 0.002992
143 0.001977
107 0.003007
93 0.007979
104 0.006949
118 0.007983
155 0.002996
180 0.002992
200 0.004018
218 0.007971
228 0.007977
240 0.007979
187 0.007952
74 0.003043
26 0.003009
21 0.00303
49 0.00795
74 0.007985
132 0.002995
172 0.004041
195 0.004038
178 0.006978
138 0.006993
107 0.007976
109 0.007976
134 0.004985
160 0.003021
186 0.003962
212 0.007034
225 0.006972
234 0.004
239 0.004008
245 0.004003
238 0.006983
138 0.007948
5 0.006981
0 0.00698
13 0.003042
44 0.003043
81 0.001979
120 0.007952
138 0.007948
140 0.001995
119 0.003013
92 0.002972
80 0.007014
90 0.006986
126 0.006964
152 0.006989
174 0.003982
192 0.00303
204 0.003004
213 0.007951
218 0.006962
223 0.003991
196 0.004032
85 0.002982
3 0.007013
61 0.00695
78 0.006978
96 0.006951
111 0.003
123 0.004074
130 0.004023
123 0.007001
111 0.007993
104 0.003992
105 0.004021
111 0.003983
126 0.006984
139 0.007036
156 0.007009
163 0.006983
167 0.004018
170 0.003973
172 0.004029
171 0.00693
131 0.006944
82 0.00399
65 0.004927
66 0.00399
81 0.006064
99 0.007009
125 0.006982
135 0.006971
135 0.004981
121 0.004023
107 0.003024
103 0.006961
108 0.007014
118 0.003001
131 0.002969
142 0.003023
153 0.005953
158 0.006031
165 0.005977
168 0.005985
144 0.003997
96 0.003997
73 0.004037
73 0.006949
85 0.006999
104 0.00495
129 0.004941
140 0.005012
150 0.006035
139 0.006018
113 0.005993
111 0.005984
116 0.00498
127 0.003986
140 0.005025
155 0.007021
163 0.005996
169 0.00596
171 0.003996
175 0.004993
175 0.006017
136 0.00598
70 0.005983
65 0.005985
71 0.003021
85 0.002985
102 0.003999
120 0.004987
129 0.007012
130 0.003992
120 0.004982
109 0.00396
105 0.00602
110 0.00601
128 0.00604
140 0.006008
150 0.004015
158 0.003924
163 0.004045
167 0.006027
169 0.005971
171 0.003975
155 0.004016
101 0.003981
67 0.006012
66 0.005998
83 0.00596
99 0.005983
111 0.005028
121 0.005047
126 0.005018
119 0.005952
110 0.005031
106 0.004962
110 0.004976
116 0.004955
130 0.004985
141 0.00599
156 0.006016
162 0.006049
166 0.006009
168 0.004994
170 0.00502
173 0.004989
152 0.005993
99 0.005993
70 0.004982
71 0.004988
80 0.004972
95 0.005011
116 0.004968
130 0.00601
135 0.005996
128 0.004976
115 0.004987
109 0.004987
111 0.004982
119 0.004989
135 0.004988
146 0.004976
155 0.004996
162 0.004987
167 0.005001
172 0.005991
173 0.006048
147 0.004999
97 0.003044
76 0.005034
76 0.005045
88 0.005045
111 0.005007
128 0.004951
142 0.005005
146 0.00496
129 0.005961
111 0.006012
108 0.00604
117 0.005947
123 0.005018
135 0.005056
149 0.006012
157 0.005984
166 0.004964
169 0.004986
148 0.004963
99 0.004948
75 0.005022
79 0.004987
91 0.005985
107 0.004943
122 0.004945
136 0.003997
137 0.007012
123 0.005984
112 0.004977
109 0.004973
115 0.004955
124 0.004955
141 0.005011
148 0.005031
153 0.005018
157 0.004961
159 0.005005
161 0.005014
128 0.005985
87 0.00595
70 0.004975
73 0.004956
81 0.004981
92 0.005011
104 0.005021
109 0.005026
110 0.003964
105 0.004952
102 0.005985
101 0.004944
105 0.003986
112 0.004986
122 0.004046
129 0.005017
133 0.004977
138 0.004955
142 0.004987
144 0.004971
130 0.006024
99 0.004986
80 0.00399
76 0.002994
85 0.00399
94 0.003989
103 0.003989
108 0.003987
112 0.00402
112 0.004986
108 0.004987
107 0.004988
110 0.005023
116 0.004997
120 0.004948
129 0.00397
135 0.003978
139 0.004014
143 0.004941
145 0.004007
145 0.002977
145 0.004987
148 0.004991
152 0.004954
148 0.003991
109 0.004976
91 0.00399
89 0.003991
96 0.003998
106 0.003931
117 0.003994
122 0.00402
125 0.00397
125 0.003989
116 0.004996
114 0.004031
116 0.00498
123 0.003989
129 0.004024
135 0.003982
139 0.003988
142 0.003992
143 0.003979
144 0.003984
146 0.003984
149 0.003989
132 0.003989
111 0.003953
100 0.004941
105 0.004005
115 0.003963
125 0.00396
134 0.003934
140 0.003959
140 0.003991
133 0.00399
127 0.003989
125 0.002986
131 0.002995
144 0.003029
155 0.003984
166 0.003987
172 0.003985
176 0.00394
178 0.00399
179 0.003991
179 0.003956
181 0.003989
184 0.003989
189 0.00399
144 0.003929
101 0.003944
83 0.002952
87 0.002959
106 0.002962
119 0.003955
127 0.003962
130 0.003998
134 0.00396
132 0.003963
127 0.00399
124 0.00398
130 0.003965
138 0.002966
147 0.002963
156 0.002957
165 0.002961
169 0.002991
172 0.002944
174 0.003957
175 0.003958
177 0.00399
179 0.004024
184 0.002962
158 0.003968
115 0.003024
92 0.002972
92 0.003026
109 0.002999
125 0.002997
136 0.003004
141 0.003989
144 0.003024
141 0.003034
134 0.003026
129 0.003031
133 0.003026
141 0.002987
150 0.003021
159 0.001988
168 0.003024
172 0.001994
173 0.001995
175 0.001993
177 0.003052
182 0.00299
174 0.003024
140 0.002989
101 0.002995
105 0.002992
119 0.002995
137 0.003031
157 0.003024
167 0.002994
170 0.002995
162 0.003
150 0.00296
141 0.001995
144 0.003005
151 0.00296
169 0.003025
179 0.003007
187 0.003029
192 0.003022
195 0.00303
196 0.002993
198 0.002982
200 0.002947
195 0.003008
137 0.002961
102 0.002026
94 0.002029
112 0.001961
129 0.002986
141 0.002993
148 0.002992
152 0.002993
149 0.002993
142 0.004022
135 0.003035
134 0.002993
141 0.003025
149 0.002992
159 0.002992
174 0.002991
180 0.001995
184 0.001998
185 0.00304
188 0.002993
190 0.002963
190 0.002942
159 0.002991
115 0.002992
88 0.001959
92 0.001994
106 0.001995
132 0.001995
141 0.001995
146 0.001995
147 0.001995
139 0.002999
129 0.003007
126 0.002992
129 0.002992
136 0.001994
149 0.001995
159 0.00204
167 0.002031
173 0.002993
176 0.002991
179 0.002994
182 0.002061
164 0.002961
122 0.002035
95 0.002981
91 0.001995
102 0.002965
126 0.001994
142 0.001995
155 0.001997
161 0.001964
150 0.002036
137 0.003027
131 0.000995
135 0.002048
142 0.000945
152 0.00203
161 0.000998
169 0.000993
176 0.002024
181 0.001993
182 0.002026
124 0.002025
99 0.00201
96 0.001995
106 0.001996
127 0.000998
142 0.001022
153 0.003054
159 0.000998
156 0.000999
143 0.002001
136 0.001994
137 0.001985
147 0.002012
155 0.001982
163 0.001989
170 0.002027
174 0.000996
178 0.001962
182 0.001995
176 0.000968
140 0.001993
102 0.000998
86 0.001996
94 0.000999
116 0.001997
125 0.001996
129 0.002025
132 0.001997
132 0.001945
127 0.001957
123 0.001013
123 0.000998
128 0.000999
134 0.001996
143 0.003989
148 0.005984
156 0.000998
160 0.001995
164 0.001988
165 0.002992
149 0.001995
88 0.002994
68 0.002961
72 0.000998
87 0.001964
102 0.000956
112 0.002994
118 0.000958
125 0.001995
122 0.000954
116 0.000997
113 0.000997
118 0.001992
128 0.000976
135 0.001953
142 0.000998
147 0.000946
151 0.001023
157 0.000998
163 0.001988
153 0.001995
117 0.001996
89 0.001995
86 0.001993
98 0.001981
120 0.000998
133 0.000997
143 0.000993
148 0.000964
145 0.002002
134 0.000998
129 0.002035
135 0.000997
142 0.001993
149 0.002014
155 0.001992
160 0.001958
164 0.000996
168 0.000963
173 0.000952
174 0.000967
154 0.000967
105 0.0
90 0.000851
104 0.0
120 0.0
130 0.0
137 0.0
142 0.0
144 0.000944
140 0.0
134 0.000997
133 0.000976
137 0.00097
146 0.000997
153 0.000996
162 0.000991
166 0.0
169 0.001074
171 0.0
174 0.0
179 0.0
181 0.0
163 0.0
123 0.0
95 0.000995
94 0.000998
108 0.001049
127 0.0
132 0.000967
135 0.0
140 0.0
140 0.0
