160 0.027959
163 0.002984
165 0.002976
128 0.00199
79 0.001988
82 0.001065
101 0.0
110 0.0
111 0.0
113 0.0
111 0.000965
112 0.002
119 0.003994
127 0.004999
134 0.005039
139 0.004975
144 0.004988
149 0.005032
155 0.005021
158 0.004943
164 0.004986
121 0.005994
82 0.006053
73 0.005973
84 0.005984
92 0.006982
95 0.006981
97 0.006982
99 0.007018
98 0.005984
100 0.005984
108 0.005985
117 0.004987
122 0.00399
129 0.003152
135 0.002035
139 0.002025
144 0.00204
150 0.001995
155 0.0
147 0.0
104 0.000997
67 0.001995
82 0.00298
92 0.003991
97 0.004888
101 0.00598
100 0.005973
99 0.005982
103 0.006024
109 0.005985
113 0.006981
122 0.008009
129 0.006982
136 0.007036
140 0.006982
147 0.006982
155 0.006993
160 0.006981
166 0.00698
132 0.006981
64 0.007016
74 0.006018
91 0.006945
105 0.006018
109 0.005996
109 0.004035
103 0.003984
104 0.004035
115 0.003023
126 0.002992
134 0.001995
141 0.002916
148 0.003026
153 0.002992
161 0.001995
165 0.002025
172 0.000995
169 0.0
104 0.0
62 0.001975
74 0.001962
88 0.001995
94 0.003025
96 0.004035
96 0.00399
94 0.004031
97 0.00399
103 0.004033
115 0.004975
120 0.004982
128 0.004986
135 0.005019
140 0.00499
148 0.005974
151 0.006025
158 0.006802
165 0.007021
168 0.006977
128 0.006981
54 0.006938
53 0.006948
73 0.00502
79 0.00295
79 0.00298
82 0.002038
80 0.001981
79 0.002025
86 0.001038
98 0.0
105 0.0
112 0.000997
116 0.0
122 0.0
130 0.0
135 0.000997
143 0.0
147 0.0
156 0.002962
160 0.004033
91 0.004987
52 0.004991
55 0.006016
77 0.007053
81 0.00701
83 0.007015
83 0.006984
78 0.006967
78 0.005032
84 0.004029
96 0.00298
107 0.002004
111 0.001998
118 0.002027
125 0.001995
129 0.002038
137 0.0
144 0.0
149 0.0
136 0.003028
67 0.002982
41 0.001988
55 0.00202
71 0.001992
73 0.002872
77 0.00299
78 0.002988
78 0.044878
76 0.0
102 0.002971
109 0.002994
118 0.003025
126 0.004033
132 0.003901
140 0.004022
145 0.004015
154 0.003998
161 0.004031
167 0.005019
116 0.005013
54 0.004854
51 0.00503
70 0.004978
73 0.00503
71 0.00502
78 0.006043
78 0.007028
78 0.00701
83 0.006889
95 0.007024
107 0.007022
114 0.007012
120 0.006016
129 0.004038
134 0.003972
144 0.003988
150 0.00403
156 0.003985
165 0.003986
172 0.00303
179 0.001993
140 0.001994
85 0.001996
64 0.001222
86 0.00101
93 0.000995
94 0.000991
95 0.000997
96 0.000992
95 0.000996
96 0.00104
107 0.000994
120 0.001014
126 0.000986
135 0.001
140 0.001006
148 0.001983
155 0.002992
160 0.004028
167 0.00302
176 0.004039
152 0.003982
80 0.003993
75 0.004036
92 0.003985
110 0.005024
112 0.005984
117 0.00602
112 0.006015
110 0.006022
117 0.006018
125 0.006028
138 0.007018
147 0.007012
151 0.007018
158 0.007024
165 0.007036
168 0.006981
177 0.007024
180 0.007023
117 0.006983
79 0.006938
73 0.005982
91 0.007026
100 0.006947
98 0.004999
102 0.005
100 0.003988
100 0.004993
104 0.00399
114 0.003989
125 0.003038
134 0.002993
138 0.001985
145 0.001035
152 0.001006
156 0.0
162 0.000997
167 0.000999
130 0.001996
61 0.002035
58 0.003031
77 0.00385
81 0.004025
80 0.004021
85 0.003991
84 0.004036
84 0.004036
89 0.004022
100 0.004028
109 0.004021
118 0.005984
123 0.006993
130 0.005939
137 0.006981
141 0.006952
148 0.006997
154 0.007016
161 0.007949
129 0.007018
80 0.007023
65 0.00599
84 0.007031
92 0.006013
93 0.007003
97 0.00599
94 0.007022
94 0.00681
99 0.006033
112 0.005957
122 0.005034
130 0.004035
137 0.002976
142 0.004029
149 0.003042
156 0.00402
162 0.003005
169 0.003003
107 0.001995
80 0.001016
78 0.033902
95 0.0
110 0.000984
119 0.002992
125 0.001971
138 0.002942
146 0.002962
152 0.003986
159 0.004977
167 0.004979
171 0.004994
178 0.004991
182 0.005953
190 0.006982
186 0.006006
143 0.006989
93 0.003998
108 0.004027
118 0.003995
117 0.004038
117 0.003993
121 0.00203
120 0.003024
121 0.003018
126 0.003127
137 0.001953
144 0.001053
151 0.0
155 0.0
160 0.0
166 0.001995
172 0.003991
176 0.004031
182 0.003996
189 0.004024
190 0.005021
125 0.005984
88 0.006026
97 0.006065
115 0.006982
114 0.007021
112 0.00599
114 0.005979
112 0.006032
111 0.005021
117 0.004027
128 0.002992
133 0.002992
141 0.001998
144 0.000997
150 0.0
154 0.0
160 0.0
164 0.0
172 0.0
176 0.0
120 0.002028
90 0.001996
95 0.001863
116 0.001995
121 0.002996
124 0.0041
121 0.005955
118 0.006047
119 0.005956
129 0.006056
138 0.006012
146 0.005974
152 0.005989
156 0.005972
161 0.005983
166 0.006024
172 0.006028
176 0.006004
161 0.005988
91 0.005967
83 0.005944
101 0.005979
113 0.005976
111 0.006966
113 0.007026
114 0.007017
111 0.006002
114 0.005026
121 0.004023
132 0.003025
139 0.003989
145 0.003025
149 0.004025
156 0.004022
159 0.003032
165 0.002029
173 0.0
160 0.000997
97 0.001008
73 0.000998
86 0.000997
100 0.002993
98 0.002994
98 0.002988
99 0.002964
98 0.002961
99 0.002994
108 0.003996
115 0.003978
124 0.00403
129 0.004025
134 0.004975
140 0.005027
143 0.005022
150 0.004998
153 0.004987
159 0.004978
98 0.004995
65 0.004981
68 0.00499
88 0.005968
90 0.005978
90 0.005988
91 0.005995
86 0.00598
87 0.005973
93 0.006974
105 0.006993
111 0.006976
118 0.007006
124 0.00697
126 0.007012
132 0.006982
140 0.006951
124 0.006972
111 0.024933
63 0.0
85 0.007982
89 0.007989
92 0.007965
91 0.007978
86 0.005987
90 0.005019
98 0.006016
109 0.005007
118 0.003033
121 0.003032
127 0.003024
135 0.002029
139 0.002036
131 0.002032
87 0.001021
52 0.00099
64 0.000997
74 0.000846
76 0.002958
79 0.002957
80 0.002964
79 0.003081
81 0.005033
90 0.004884
98 0.004978
108 0.004986
112 0.004999
117 0.004985
121 0.004878
130 0.004979
131 0.006998
98 0.007039
52 0.007982
60 0.006011
67 0.007006
70 0.006011
70 0.006016
76 0.004022
77 0.004996
83 0.00398
95 0.003989
108 0.003171
111 0.002998
116 0.002031
120 0.002047
125 0.001994
131 0.001016
135 0.001962
143 0.000981
150 0.001035
134 0.001044
78 0.001006
81 0.000996
91 0.001029
93 0.000997
92 0.001035
99 0.00099
99 0.001994
99 0.000971
104 0.00103
111 0.000998
122 0.000991
129 0.001012
133 0.001015
140 0.0
145 0.0
150 0.000965
164 0.0
171 0.00096
181 0.001
156 0.000998
108 0.000997
92 0.000963
108 0.000967
119 0.002993
119 0.002961
124 0.00296
121 0.00299
121 0.002975
126 0.003023
139 0.002992
145 0.002976
152 0.003022
159 0.004016
164 0.004006
169 0.003991
176 0.003989
180 0.003994
189 0.004025
192 0.003987
129 0.00403
92 0.003987
102 0.003987
113 0.003997
107 0.005032
106 0.005996
109 0.006019
106 0.007023
107 0.007934
114 0.007971
122 0.007979
132 0.007949
135 0.006981
141 0.00695
146 0.007937
152 0.00698
158 0.007942
168 0.005985
163 0.005984
90 0.005984
72 0.00403
84 0.00399
90 0.002984
83 0.002033
89 0.000949
90 0.001968
88 0.0
94 0.0
105 0.000998
112 0.001009
122 0.001003
130 0.000988
134 0.001005
141 0.001008
147 0.00101
158 0.001
148 0.000967
89 0.000997
65 0.000967
80 0.001998
91 0.001957
92 0.029894
91 0.000974
97 0.003041
112 0.004985
125 0.005027
130 0.006017
138 0.006017
143 0.006033
151 0.006061
157 0.006975
162 0.006015
171 0.004975
178 0.004976
185 0.002989
143 0.001995
78 0.000991
82 0.000975
106 0.001008
109 0.0
109 0.0
110 0.0
105 0.0
105 0.0
115 0.0
123 0.001012
134 0.002027
142 0.00205
145 0.001996
152 0.002025
159 0.00295
164 0.001801
172 0.002979
178 0.002963
176 0.003026
98 0.002994
77 0.003994
89 0.005032
111 0.007016
112 0.007946
115 0.007935
111 0.006939
107 0.007939
109 0.006011
121 0.004995
130 0.004976
140 0.005018
145 0.005027
151 0.00498
158 0.004986
161 0.005017
168 0.00499
173 0.004029
182 0.003979
179 0.005027
112 0.004015
67 0.003988
81 0.002028
94 0.000999
99 0.000979
99 0.0
96 0.0
90 0.0
91 0.0
99 0.001022
112 0.002031
119 0.002031
127 0.002025
135 0.002032
138 0.00403
145 0.004033
151 0.00604
156 0.006017
166 0.00602
166 0.006024
87 0.006022
55 0.006025
67 0.00703
87 0.007029
92 0.007937
94 0.007022
91 0.006981
84 0.006981
86 0.006981
99 0.005992
107 0.006977
121 0.006018
130 0.005984
134 0.005997
140 0.006029
145 0.004969
153 0.005004
162 0.005171
134 0.005033
68 0.005001
70 0.005026
92 0.004001
104 0.005027
108 0.004032
109 0.005026
98 0.004031
97 0.00399
107 0.001995
119 0.001953
129 0.001986
136 0.001168
140 0.002043
146 0.001004
152 0.001032
157 0.001001
115 0.001037
67 0.001037
53 0.002019
75 0.000998
80 0.000958
77 0.0
78 0.000954
73 0.002026
71 0.00204
78 0.000999
87 0.001031
97 0.001
102 0.000998
108 0.001983
111 0.001054
117 0.0
124 0.001994
126 0.00286
72 0.005021
19 0.006968
27 0.007022
38 0.007031
35 0.004992
33 0.007025
36 0.022939
37 0.000971
35 0.000997
54 0.001998
61 0.000997
68 0.002027
76 0.001156
80 0.001022
90 0.0
97 0.001995
103 0.003003
112 0.002993
121 0.002994
98 0.005041
18 0.00495
17 0.007021
31 0.006975
30 0.007019
26 0.007021
34 0.006944
34 0.006984
34 0.007881
41 0.006993
56 0.005027
61 0.006018
74 0.004989
80 0.004961
88 0.002997
95 0.004031
102 0.002991
111 0.003042
120 0.002037
125 0.001995
135 0.002028
145 0.001018
147 0.002025
84 0.000999
49 0.002035
57 0.001006
73 0.001994
68 0.00101
66 0.000989
70 0.001032
66 0.000987
69 0.0
73 0.000985
86 0.0
96 0.000998
99 0.000997
105 0.001006
111 0.001995
118 0.002962
125 0.003991
133 0.005017
138 0.004991
148 0.00484
151 0.005025
93 0.005051
59 0.004973
70 0.005971
86 0.006019
82 0.00702
84 0.006967
86 0.006977
83 0.006973
86 0.006998
99 0.006986
107 0.007014
116 0.006036
122 0.006024
127 0.004976
133 0.00603
140 0.005026
146 0.006025
155 0.006009
162 0.006036
170 0.005031
115 0.002991
77 0.003132
76 0.0
89 0.0
83 0.0
77 0.0
82 0.000997
85 0.0
85 0.0
90 0.0
100 0.001013
111 0.000999
115 0.0
123 0.001008
129 0.000997
137 0.000997
144 0.000997
153 0.000998
160 0.000997
168 0.001042
174 0.002993
183 0.002981
188 0.002957
155 0.004033
82 0.003976
80 0.004987
100 0.004974
96 0.004944
89 0.004968
94 0.004987
95 0.004981
93 0.005025
99 0.004979
105 0.004981
117 0.004987
121 0.005941
128 0.004983
134 0.004981
139 0.006984
145 0.006974
151 0.007034
157 0.007026
165 0.007019
174 0.005961
179 0.004987
162 0.020944
148 0.002991
83 0.00303
103 0.002026
104 0.000989
99 0.0
101 0.0
96 0.001988
97 0.003005
106 0.00399
120 0.005984
127 0.006983
134 0.005983
138 0.006977
145 0.007007
151 0.007969
157 0.007988
162 0.007933
171 0.006983
178 0.007979
166 0.007013
114 0.007979
70 0.006946
86 0.006982
92 0.006967
83 0.005983
81 0.005986
87 0.005987
86 0.005997
87 0.006014
97 0.006014
107 0.006982
117 0.006016
123 0.003981
131 0.002992
137 0.002993
145 0.002992
151 0.001984
159 0.001991
170 0.001027
177 0.002028
146 0.001001
70 0.0
67 0.0
87 0.0
92 0.0
84 0.0
85 0.0
88 0.0
84 0.0
88 0.0
96 0.000968
110 0.001987
116 0.002953
124 0.005029
132 0.007004
136 0.007928
142 0.005013
148 0.005986
158 0.003027
164 0.002028
163 0.0
97 0.0
63 0.0
71 0.0
91 0.0
93 0.0
93 0.000985
91 0.001983
87 0.003016
89 0.00401
103 0.006003
111 0.005978
123 0.006029
129 0.006019
136 0.00499
142 0.00602
149 0.00602
157 0.005975
165 0.006022
133 0.00601
67 0.007932
53 0.007947
77 0.007894
83 0.006981
77 0.007978
84 0.007011
84 0.007975
84 0.00596
92 0.00598
101 0.005984
116 0.003995
127 0.003958
133 0.003977
141 0.00399
147 0.004039
156 0.00399
163 0.004986
172 0.003988
176 0.004987
99 0.004996
64 0.004987
70 0.005016
84 0.004032
84 0.002982
83 0.000989
87 0.001031
90 0.0
92 0.0
98 0.0
113 0.0
125 0.0
133 0.0
140 0.0
145 0.0
154 0.0
163 0.0
168 0.0
178 0.000998
183 0.000997
192 0.001964
164 0.013925
106 0.0
79 0.0
97 0.001027
101 0.001996
97 0.003959
99 0.004029
96 0.002956
94 0.004034
99 0.003886
113 0.003993
127 0.005027
132 0.007025
139 0.007024
143 0.006962
148 0.005951
155 0.005993
160 0.006017
170 0.004991
129 0.005978
64 0.00399
57 0.002992
79 0.001994
83 0.000999
80 0.0
85 0.0
83 0.0
82 0.0
93 0.0
102 0.0
117 0.001002
123 0.0
132 0.001002
140 0.001004
145 0.000994
154 0.000964
163 0.003034
168 0.003029
179 0.00396
140 0.004986
63 0.005024
47 0.005923
62 0.005025
68 0.007015
58 0.008011
60 0.007979
66 0.007949
66 0.007012
69 0.00797
80 0.007011
93 0.007945
102 0.006989
111 0.004994
116 0.004053
124 0.002998
133 0.001988
138 0.0
148 0.002033
155 0.001995
161 0.0
169 0.000998
178 0.001005
162 0.00101
65 0.000895
41 0.003006
57 0.003032
70 0.003042
64 0.004005
63 0.003035
62 0.002992
59 0.003039
64 0.003019
72 0.002995
89 0.003025
101 0.002992
105 0.003989
112 0.004003
120 0.005018
125 0.005032
133 0.004033
138 0.00403
149 0.00503
141 0.006038
86 0.006894
26 0.00698
33 0.007035
47 0.007017
45 0.007027
42 0.007081
51 0.006979
51 0.006987
52 0.006999
62 0.005997
79 0.006016
90 0.004034
101 0.003991
110 0.004025
114 0.004029
124 0.002995
130 0.00298
140 0.00198
148 0.003998
156 0.003039
164 0.004038
170 0.001975
112 0.003975
27 0.001044
25 0.002039
47 0.001026
43 0.000997
38 0.001003
46 0.000998
51 0.000997
51 0.000997
58 0.00104
68 0.000997
85 0.002993
97 0.002994
102 0.003033
111 0.003031
119 0.003023
125 0.003017
132 0.011968
141 0.002975
154 0.005984
160 0.006991
167 0.005997
174 0.004041
180 0.006036
136 0.005001
58 0.005995
49 0.005003
66 0.00502
77 0.003034
72 0.002001
77 0.001001
75 0.0
75 0.0
81 0.000987
97 0.0
112 0.001995
119 0.004033
126 0.004878
133 0.005034
137 0.00498
146 0.004994
152 0.005027
162 0.006025
170 0.005971
179 0.005982
163 0.006026
67 0.005983
45 0.005964
62 0.006025
74 0.006017
69 0.00597
73 0.007033
77 0.006896
76 0.006121
79 0.007041
93 0.006973
111 0.007027
119 0.006995
128 0.006672
136 0.007014
142 0.006968
151 0.00698
157 0.006971
166 0.00702
173 0.007979
180 0.007035
188 0.007973
193 0.006003
199 0.006981
123 0.005018
49 0.002004
52 0.003026
71 0.001961
69 0.002992
58 0.001994
68 0.001997
71 0.002067
74 0.001005
82 0.002003
96 0.000946
108 0.002031
118 0.001039
125 0.000997
134 0.002034
139 0.002044
148 0.002051
155 0.000998
163 0.002037
173 0.001985
179 0.001996
186 0.001995
193 0.002029
198 0.003006
166 0.004021
65 0.00399
51 0.003988
74 0.004034
84 0.005027
78 0.004988
81 0.006012
80 0.006972
77 0.006981
85 0.006981
95 0.006983
112 0.006994
120 0.006974
126 0.004995
131 0.005032
137 0.00399
143 0.005022
151 0.004023
157 0.002993
165 0.003022
176 0.002024
180 0.003029
125 0.002036
43 0.002022
41 0.002053
68 0.0
74 0.0
71 0.000997
75 0.002031
74 0.003994
75 0.004998
88 0.005026
100 0.005033
118 0.004813
128 0.005027
134 0.005029
141 0.004985
147 0.004983
154 0.004976
164 0.005021
169 0.00503
179 0.004987
189 0.005033
165 0.00503
59 0.005046
37 0.004974
39 0.026928
66 0.000996
57 0.00702
60 0.007003
67 0.007015
68 0.006982
72 0.006968
81 0.006989
99 0.005018
111 0.005984
118 0.003022
124 0.004039
133 0.004032
138 0.003991
149 0.004025
160 0.000983
166 0.000995
175 0.0
182 0.0
187 0.000998
174 0.000995
111 0.000998
41 0.00203
58 0.002999
72 0.003991
67 0.004987
69 0.004792
72 0.006033
73 0.006989
81 0.006971
87 0.006984
106 0.006981
117 0.007942
123 0.007955
130 0.006015
135 0.006027
142 0.005976
152 0.004997
156 0.005985
166 0.005016
177 0.005034
184 0.004023
164 0.00304
77 0.002007
64 0.001008
89 0.001044
101 0.001037
100 0.0
105 0.001001
105 0.0
102 0.0
112 0.0
122 0.000967
139 0.0
145 0.0
152 0.0
158 0.0
164 0.0
171 0.0
179 0.0
185 0.0
196 0.0
201 0.0
145 0.000992
81 0.00203
85 0.002031
104 0.001996
103 0.001989
95 0.001962
105 0.001996
106 0.002029
107 0.001985
114 0.001987
131 0.001933
144 0.002001
150 0.001998
157 0.003982
163 0.004024
170 0.004019
177 0.003982
183 0.003985
191 0.00402
199 0.004993
203 0.004976
212 0.00502
177 0.00499
120 0.004897
90 0.00598
101 0.005984
107 0.00605
94 0.005968
96 0.004989
103 0.006016
103 0.006012
105 0.006014
116 0.006032
127 0.006979
136 0.007965
143 0.007015
146 0.005984
153 0.004985
161 0.004005
166 0.004987
174 0.003996
179 0.004986
187 0.003987
194 0.00399
197 0.003996
204 0.001997
208 0.001027
171 0.001025
97 0.001999
94 0.001992
115 0.001088
116 0.00202
107 0.0
111 0.001995
107 0.0
105 0.0
113 0.0
122 0.0
137 0.0
144 0.0
149 0.0
154 0.0
160 0.0
166 0.0
174 0.0
181 0.0
189 0.0
198 0.0
202 0.0
145 0.000997
97 0.000998
87 0.004018
104 0.005997
101 0.007013
94 0.006989
100 0.007979
103 0.00598
102 0.004986
107 0.003989
123 0.003006
131 0.003982
142 0.002985
147 0.003992
154 0.003041
163 0.002003
168 0.003114
176 0.003035
182 0.003012
191 0.002997
198 0.00203
202 0.002985
211 0.001994
214 0.002037
159 0.001991
91 0.00203
81 0.0
97 0.001033
97 0.0
89 0.000995
91 0.000993
95 0.001965
97 0.001001
100 0.004042
115 0.005021
125 0.005996
138 0.007027
145 0.006998
151 0.007966
159 0.006864
162 0.008031
171 0.006976
178 0.006987
184 0.007031
192 0.00701
199 0.006983
204 0.007015
211 0.007935
200 0.006985
124 0.005984
79 0.005984
87 0.006027
107 0.00598
103 0.005035
103 0.005957
104 0.004065
102 0.005019
102 0.004022
116 0.002
126 0.002984
139 0.00199
147 0.001003
150 0.0
156 0.0
162 0.0
170 0.0
177 0.001987
185 0.000982
194 0.000997
159 0.000999
102 0.001005
70 0.00097
82 0.0
103 0.000998
100 0.002961
102 0.002988
103 0.003054
100 0.003012
102 0.003023
118 0.003957
128 0.002982
143 0.003024
152 0.002992
157 0.004068
165 0.002872
173 0.004019
179 0.004032
187 0.00403
193 0.003989
201 0.004023
133 0.003989
81 0.00399
69 0.003035
84 0.00403
96 0.003991
89 0.004022
89 0.004026
93 0.005021
92 0.006956
94 0.007979
108 0.005999
125 0.006002
132 0.006029
141 0.006036
145 0.005952
153 0.00599
161 0.006026
166 0.005998
173 0.005017
178 0.004989
187 0.006036
167 0.007037
89 0.00603
58 0.00702
71 0.005999
88 0.00707
89 0.007015
90 0.006976
91 0.006982
88 0.006982
90 0.007023
105 0.006031
115 0.006982
129 0.005015
137 0.004981
140 0.00602
147 0.005984
151 0.005027
160 0.004986
172 0.005194
174 0.005018
104 0.003991
71 0.004009
79 0.003999
100 0.004548
107 0.003991
112 0.004956
111 0.005033
107 0.004987
110 0.005034
118 0.004987
136 0.001986
150 0.000993
155 0.00095
162 0.0
169 0.001004
175 0.0
184 0.0
190 0.000948
194 0.0
136 0.001036
95 0.001032
95 0.002043
116 0.00304
117 0.002993
113 0.002996
119 0.003029
118 0.00289
119 0.004044
130 0.004983
140 0.005097
152 0.006951
158 0.007022
165 0.006979
171 0.006972
178 0.007109
185 0.006973
194 0.00696
199 0.00697
206 0.006979
194 0.00698
114 0.005983
102 0.006982
115 0.00698
122 0.006993
116 0.006984
118 0.006028
120 0.007978
118 0.006012
123 0.007958
131 0.005997
140 0.007979
152 0.007971
154 0.007026
159 0.006019
165 0.003993
170 0.005027
177 0.003987
181 0.005019
188 0.003989
196 0.003988
200 0.004015
157 0.004001
105 0.005174
103 0.004029
120 0.005015
127 0.004022
122 0.005019
122 0.005985
118 0.004989
114 0.00399
118 0.004033
131 0.003019
142 0.002
145 0.003045
149 0.001985
154 0.0
158 0.0
164 0.000998
170 0.000995
177 0.000953
185 0.0
188 0.0
128 0.0
77 0.000998
76 0.001996
92 0.003002
87 0.005098
80 0.005021
83 0.00699
83 0.007026
81 0.006977
88 0.00703
101 0.007982
106 0.007013
116 0.004028
123 0.002968
126 0.002008
135 0.0
144 0.000957
149 0.0
158 0.000984
164 0.0
170 0.0
179 0.0
184 0.0
170 0.0
115 0.0
66 0.001037
73 0.001045
84 0.000999
79 0.000999
71 0.0
75 0.0
76 0.0
73 0.0
80 0.0
95 0.0
103 0.0
112 0.000998
119 0.001966
123 0.002002
131 0.001977
136 0.001986
145 0.001848
155 0.00298
160 0.002994
168 0.003049
172 0.002994
182 0.002985
150 0.004984
96 0.004985
66 0.005021
82 0.004988
96 0.004978
94 0.005021
94 0.005995
92 0.005962
87 0.006017
89 0.00599
104 0.00602
119 0.006017
125 0.006981
131 0.00698
138 0.005982
142 0.003996
149 0.004132
154 0.003986
162 0.004058
171 0.002028
179 0.001981
183 0.000964
127 0.002027
56 0.001014
56 0.001006
75 0.000998
83 0.002029
77 0.002021
79 0.002027
77 0.003008
76 0.00502
86 0.005987
96 0.005949
112 0.006024
122 0.00698
127 0.006983
131 0.006956
138 0.00698
147 0.006992
156 0.005985
160 0.006957
169 0.006974
173 0.006975
182 0.006951
188 0.007944
145 0.006976
67 0.007979
47 0.006978
61 0.005983
72 0.005981
66 0.00602
65 0.006016
67 0.003986
66 0.005987
73 0.003032
90 0.000997
96 0.000959
110 0.0
118 0.00302
125 0.003986
131 0.004982
140 0.005018
146 0.006014
155 0.005975
165 0.006014
169 0.006026
176 0.00698
183 0.005985
189 0.004987
170 0.005978
70 0.006015
47 0.005971
62 0.006986
79 0.000997
75 0.0
75 0.0
72 0.0
71 0.000962
75 0.000998
83 0.000998
101 0.000997
115 0.000998
120 0.000997
127 0.001014
133 0.002992
138 0.002941
146 0.002983
153 0.004995
161 0.006039
169 0.006022
176 0.00602
179 0.005988
100 0.005887
57 0.006025
58 0.006022
85 0.005985
91 0.005983
94 0.006017
94 0.006016
84 0.005956
88 0.005992
93 0.006981
112 0.005981
128 0.005974
134 0.005943
139 0.005984
142 0.005982
148 0.005992
155 0.004982
160 0.003988
168 0.004987
177 0.002989
183 0.002993
172 0.002992
66 0.001006
32 0.0
41 0.000998
63 0.000998
63 0.001996
57 0.001015
60 0.001994
60 0.000997
64 0.002955
73 0.003987
91 0.005987
107 0.005984
113 0.006021
120 0.005984
126 0.006033
132 0.00699
141 0.007027
148 0.007009
156 0.007014
165 0.007014
171 0.007973
177 0.007979
96 0.004985
42 0.005974
35 0.002988
61 0.002028
63 0.002018
57 0.002022
61 0.002001
61 0.001994
63 0.000991
72 0.001994
90 0.000997
103 0.000993
114 0.0
119 0.002025
124 0.0
131 0.002038
140 0.001011
145 0.000999
155 0.003054
163 0.003976
172 0.004
181 0.004023
123 0.003991
62 0.00403
42 0.004031
59 0.004014
81 0.00399
81 0.003959
82 0.003995
76 0.004022
72 0.004022
82 0.006971
97 0.005981
112 0.007979
122 0.005994
127 0.007013
131 0.004985
137 0.006976
143 0.005985
148 0.005984
158 0.005989
168 0.00503
157 0.004999
55 0.002951
25 0.004031
41 0.002993
61 0.002013
59 0.001998
62 0.001958
62 0.0
60 0.0
69 0.000948
84 0.0
95 0.000998
110 0.00103
114 0.001029
121 0.001003
128 0.000997
132 0.000997
141 0.000998
150 0.001995
158 0.003043
166 0.00399
168 0.004035
95 0.003992
16 0.004042
19 0.003971
45 0.004029
42 0.006025
40 0.006028
51 0.006027
53 0.006022
56 0.005978
70 0.005985
81 0.006018
99 0.006936
108 0.006024
115 0.006976
120 0.006981
129 0.006031
135 0.006033
145 0.004987
151 0.005034
161 0.004036
169 0.003002
175 0.005006
184 0.003004
151 0.002152
79 0.002963
29 0.002961
42 0.003009
68 0.00201
64 0.001993
66 0.0
71 0.0
70 0.0
72 0.0
87 0.0
100 0.0
116 0.0
126 0.0
129 0.0
136 0.0
141 0.0
149 0.0
156 0.0
163 0.000964
171 0.00103
182 0.000997
175 0.000997
74 0.000998
39 0.000998
55 0.003036
82 0.002994
85 0.005957
89 0.00599
86 0.005988
82 0.005989
86 0.005984
106 0.005992
119 0.004979
134 0.004993
140 0.005019
142 0.004989
149 0.004968
156 0.003026
162 0.004971
170 0.00317
176 0.004989
186 0.00304
177 0.002992
109 0.002992
26 0.003006
30 0.002995
60 0.001963
61 0.00296
59 0.000965
67 0.0
66 0.001034
69 0.0
81 0.001026
101 0.0
111 0.0
124 0.000998
129 0.001995
137 0.002026
143 0.003041
150 0.004015
158 0.003969
169 0.004006
176 0.004018
183 0.004939
95 0.003955
35 0.003993
30 0.005867
51 0.006026
65 0.005944
62 0.006032
70 0.005978
71 0.005944
73 0.006968
78 0.005984
98 0.005019
113 0.007015
125 0.004997
132 0.006015
137 0.002999
144 0.006017
153 0.002027
159 0.002036
173 0.001986
131 0.0
67 0.0
37 0.0
67 0.0
78 0.0
83 0.0
91 0.002028
89 0.002992
88 0.003051
94 0.002983
115 0.002986
136 0.002992
145 0.002993
153 0.003952
158 0.004949
164 0.005039
174 0.004979
179 0.005023
135 0.005016
59 0.006981
60 0.007016
92 0.006986
106 0.006981
112 0.007027
114 0.007006
108 0.007971
109 0.006991
125 0.006986
138 0.006986
157 0.006986
164 0.007004
171 0.005985
177 0.006023
181 0.005984
190 0.006004
198 0.00798
159 0.004973
85 0.005985
70 0.003994
95 0.005984
118 0.006019
121 0.006018
125 0.005098
115 0.003994
116 0.004972
129 0.003998
141 0.005023
160 0.003086
172 0.003016
176 0.003027
182 0.002992
185 0.003996
194 0.002994
199 0.005027
145 0.003004
82 0.005014
81 0.003004
106 0.005021
128 0.002993
136 0.0
131 0.000998
118 0.001983
120 0.001995
131 0.002028
152 0.001987
163 0.001992
174 0.002025
179 0.001994
183 0.002032
191 0.001954
187 0.001984
101 0.001995
64 0.002804
79 0.002962
110 0.003967
120 0.004986
122 0.004988
111 0.004982
106 0.004985
117 0.005017
136 0.004883
151 0.004985
162 0.005018
169 0.007013
172 0.006983
179 0.006978
184 0.006985
162 0.007979
71 0.004987
56 0.006017
82 0.00299
103 0.00199
106 0.001953
107 0.000981
99 0.000898
101 0.0
116 0.0
132 0.001995
144 0.002011
154 0.002028
159 0.002026
166 0.001987
176 0.0
180 0.002029
120 0.000996
77 0.000997
78 0.000968
109 0.000963
116 0.000998
123 0.000998
122 0.000998
117 0.003
123 0.002996
142 0.002961
154 0.002954
168 0.002895
176 0.005979
180 0.006952
189 0.006978
193 0.006978
202 0.006977
159 0.00798
114 0.006975
105 0.007979
132 0.007978
144 0.007979
149 0.007979
150 0.007978
144 0.007978
148 0.004987
156 0.006988
173 0.00498
182 0.006973
192 0.004985
199 0.004987
204 0.004983
212 0.003984
221 0.002988
208 0.00299
142 0.002999
136 0.002991
154 0.000998
169 0.002988
173 0.000992
174 0.002993
163 0.001085
161 0.00301
172 0.000996
182 0.002993
194 0.001999
201 0.001998
205 0.001995
210 0.0
216 0.000991
221 0.000996
176 0.002022
131 0.002007
136 0.001991
157 0.001996
160 0.001999
161 0.002996
155 0.003772
151 0.003953
155 0.003996
166 0.004035
176 0.004991
183 0.006019
188 0.006021
191 0.006018
196 0.005982
201 0.005983
204 0.007011
159 0.006978
114 0.006992
115 0.006981
130 0.007014
134 0.006981
132 0.006981
130 0.005984
124 0.005025
126 0.003963
132 0.004984
145 0.002993
152 0.002992
156 0.0
159 0.001997
164 0.002034
168 0.00304
174 0.001027
181 0.001966
156 0.002961
96 0.005022
87 0.004978
100 0.005019
107 0.005033
105 0.005018
108 0.006969
102 0.005973
101 0.006969
108 0.005986
122 0.004977
129 0.004986
137 0.004987
142 0.006981
147 0.004991
153 0.007009
157 0.003989
163 0.003996
172 0.003028
177 0.002981
141 0.002966
80 0.001996
81 0.003027
104 0.0
109 0.0
110 0.0
107 0.0
100 0.0
100 0.0
110 0.0
120 0.002009
132 0.002993
139 0.004021
142 0.004039
147 0.006019
152 0.006971
157 0.006976
168 0.006987
155 0.006898
97 0.006953
77 0.007015
94 0.006981
106 0.006981
113 0.004991
116 0.001998
109 0.00199
103 0.000964
112 0.000997
120 0.000966
134 0.001028
144 0.00299
147 0.002989
152 0.003018
155 0.002992
162 0.005024
171 0.005988
164 0.00797
116 0.004034
69 0.005015
78 0.004987
90 0.004989
92 0.004986
90 0.005022
91 0.004986
87 0.003004
88 0.005039
99 0.002993
115 0.002001
121 0.001999
128 0.002997
132 0.001988
138 0.000966
144 0.0
148 0.0
158 0.0
160 0.0
119 0.0
55 0.001033
56 0.001031
78 0.001013
80 0.000997
78 0.000997
80 0.00204
77 0.000971
78 0.002015
87 0.003036
99 0.003037
110 0.002865
119 0.00303
123 0.003992
131 0.005985
139 0.004988
145 0.006983
153 0.006977
165 0.006009
172 0.006985
132 0.006976
79 0.00698
60 0.004977
79 0.00698
92 0.003035
91 0.004979
93 0.005018
90 0.004295
87 0.003025
97 0.001975
105 0.003023
120 0.000982
126 0.002992
133 0.001025
138 0.0
144 0.000965
148 0.002009
156 0.00399
166 0.004982
173 0.00698
152 0.005981
73 0.005004
62 0.004984
82 0.002983
100 0.004987
106 0.001995
109 0.004021
96 0.002988
93 0.001999
101 0.002032
111 0.002039
127 0.001996
137 0.0
141 0.00225
146 0.0
149 0.003053
157 0.000968
160 0.0
111 0.000966
64 0.000983
67 0.0
80 0.0
97 0.0
102 0.0
98 0.002028
87 0.001995
87 0.002026
101 0.002
115 0.001996
127 0.002028
134 0.001996
138 0.002039
143 0.003024
150 0.006022
128 0.00698
74 0.006996
34 0.006016
37 0.007951
60 0.005973
67 0.00397
71 0.000993
68 0.001994
63 0.001013
70 0.001035
81 0.000999
99 0.002992
112 0.004967
117 0.004006
123 0.00404
130 0.005951
137 0.006993
144 0.007948
99 0.007979
35 0.007969
27 0.008015
42 0.008014
58 0.007002
60 0.005982
65 0.008012
64 0.003002
66 0.003984
76 0.003029
95 0.003985
106 0.003178
118 0.002982
127 0.004001
132 0.00197
141 0.001968
150 0.001995
158 0.001028
168 0.002035
121 0.0
67 0.0
53 0.0
70 0.0
86 0.002045
87 0.003961
93 0.005984
91 0.006016
93 0.005986
102 0.005978
122 0.005977
139 0.005982
146 0.005984
155 0.005976
161 0.005994
168 0.006981
179 0.005973
185 0.00398
195 0.001995
203 0.004025
215 0.001995
213 0.002027
131 0.0
100 0.000998
115 0.000997
134 0.003033
137 0.002985
139 0.00303
134 0.004948
131 0.005982
134 0.007833
147 0.005989
162 0.004019
168 0.002975
176 0.001029
180 0.001996
184 0.002002
189 0.001996
193 0.002011
201 0.0
209 0.00203
215 0.0
191 0.00097
121 0.000997
116 0.000998
139 0.000997
152 0.001995
157 0.001996
153 0.001994
143 0.001827
138 0.001995
149 0.001952
158 0.001987
171 0.002052
176 0.001996
180 0.001967
185 0.001991
187 0.002013
193 0.002999
199 0.003997
204 0.004001
212 0.003954
190 0.003953
104 0.004883
91 0.006981
108 0.007013
118 0.007012
118 0.00702
118 0.007013
110 0.004022
105 0.000995
109 0.003024
122 0.0
136 0.0
140 0.0
146 0.000965
151 0.0
154 0.0
159 0.001028
167 0.001046
172 0.002003
180 0.002027
152 0.002028
66 0.003993
58 0.005842
77 0.007012
82 0.005978
78 0.007978
79 0.005983
76 0.007947
74 0.007969
77 0.00702
93 0.007945
106 0.002991
113 0.003989
120 0.002986
126 0.002979
131 0.002985
138 0.002027
143 0.002021
153 0.001996
161 0.001975
133 0.0
61 0.0
38 0.0
52 0.0
68 0.000966
66 0.000958
66 0.000994
62 0.001013
58 0.000956
64 0.001037
80 0.000996
89 0.001
99 0.000998
104 0.002003
110 0.002004
117 0.001961
121 0.001964
128 0.001992
134 0.001994
145 0.001993
114 0.001997
59 0.002866
28 0.002994
53 0.004994
64 0.004982
69 0.004947
66 0.005971
60 0.007018
60 0.007028
70 0.006016
81 0.006987
97 0.005986
106 0.002994
109 0.004024
116 0.001993
119 0.003002
127 0.002029
138 0.0
142 0.0
81 0.000967
31 0.0
30 0.000998
56 0.002965
66 0.00296
69 0.002989
64 0.002993
58 0.002956
63 0.002951
80 0.003989
90 0.005019
103 0.003949
108 0.006978
114 0.00499
117 0.006979
124 0.005984
130 0.005992
142 0.003026
125 0.000998
67 0.000975
18 0.002004
41 0.001983
52 0.001959
50 0.002008
53 0.001946
54 0.0
54 0.002001
60 0.0
75 0.000998
92 0.001019
99 0.000998
108 0.000813
114 0.000998
123 0.001006
129 0.001001
137 0.001007
144 0.001988
156 0.001993
145 0.003988
51 0.00499
27 0.005979
44 0.005939
60 0.005959
55 0.005968
60 0.005987
65 0.005047
65 0.005983
71 0.005981
90 0.004969
101 0.004987
115 0.004985
123 0.006982
129 0.003979
136 0.004986
145 0.004978
149 0.004988
159 0.004984
168 0.004986
174 0.005019
97 0.002005
61 0.001995
72 0.001995
99 0.000983
103 0.0
110 0.0
106 0.0
100 0.00199
103 0.001996
113 0.00197
132 0.001993
143 0.001812
145 0.001997
150 0.002948
154 0.003026
159 0.003036
166 0.004983
175 0.007047
163 0.007935
80 0.007978
62 0.005984
77 0.006981
95 0.003992
98 0.005984
103 0.003999
95 0.001995
94 0.00199
107 0.00199
127 0.001996
135 0.001994
144 0.001993
147 0.001996
153 0.002001
159 0.00298
165 0.001995
172 0.002995
182 0.002
175 0.002016
76 0.002029
39 0.0
53 0.000966
67 0.001965
62 0.002992
65 0.004027
74 0.005035
74 0.005984
79 0.0069
91 0.006013
110 0.00499
119 0.003988
129 0.003988
135 0.003996
144 0.003989
150 0.005971
158 0.003993
168 0.005014
177 0.006007
183 0.005985
193 0.003983
197 0.002988
133 0.001982
40 0.001998
38 0.001997
64 0.0
62 0.0
57 0.0
69 0.00101
72 0.0
74 0.0
85 0.001958
104 0.003024
116 0.003993
129 0.002994
134 0.00399
143 0.003991
154 0.006995
159 0.006019
171 0.006005
182 0.00794
189 0.005983
198 0.007973
206 0.007953
210 0.006977
215 0.005987
122 0.003023
70 0.003985
69 0.001996
87 0.003997
94 0.002026
88 0.001987
94 0.001969
96 0.002034
100 0.001995
108 0.0
122 0.000998
139 0.000856
146 0.000998
155 0.000967
160 0.000964
168 0.001995
176 0.004021
185 0.006026
191 0.006937
200 0.007979
210 0.004986
206 0.007021
113 0.004957
77 0.006017
85 0.001993
110 0.001989
112 0.002011
114 0.002012
110 0.001994
107 0.002142
112 0.00198
124 0.001985
143 0.002996
152 0.003991
160 0.001007
164 0.003009
171 0.001999
176 0.002999
183 0.002029
188 0.002054
197 0.002028
206 0.002031
198 0.002057
124 0.003029
77 0.003952
88 0.003942
116 0.004048
129 0.004978
131 0.005987
122 0.005024
109 0.003993
116 0.002001
127 0.0
146 0.000996
155 0.000962
161 0.0
164 0.002963
169 0.001002
172 0.001995
182 0.0
188 0.002007
144 0.002853
75 0.002992
66 0.004023
88 0.004981
112 0.004027
120 0.004042
117 0.006969
102 0.005021
96 0.004996
107 0.004963
127 0.003019
137 0.002962
149 0.003162
154 0.004023
157 0.001996
163 0.004021
168 0.0
174 0.002043
99 0.003027
47 0.002992
41 0.001988
71 0.0
82 0.002031
86 0.000961
84 0.003024
72 0.0
76 0.0
81 0.0
102 0.002047
120 0.003023
126 0.004025
135 0.005973
139 0.005993
143 0.006978
154 0.00599
134 0.00598
71 0.006021
16 0.005995
26 0.006017
56 0.006986
62 0.007978
66 0.004989
63 0.006016
57 0.006017
60 0.006035
79 0.005045
92 0.005018
108 0.003989
118 0.002004
125 0.0
130 0.0
137 0.001996
145 0.00204
113 0.001995
26 0.002027
18 0.002995
47 0.00402
67 0.00399
70 0.003993
70 0.003957
62 0.004984
63 0.005984
76 0.005983
97 0.006976
107 0.008
117 0.008012
121 0.007013
127 0.007019
135 0.004979
140 0.007014
145 0.004988
68 0.004026
29 0.002986
39 0.002005
69 0.001997
77 0.0
84 0.001995
76 0.001996
64 0.002005
72 0.004058
89 0.000106
106 0.002993
116 0.0
122 0.002029
128 0.002032
132 0.001997
141 0.002029
142 0.000965
97 0.002028
33 0.0
35 0.002028
55 0.001996
75 0.002028
81 0.000998
77 0.00299
68 0.002999
71 0.003958
91 0.004017
111 0.003992
118 0.004004
126 0.005983
132 0.005982
137 0.005985
144 0.007966
152 0.007018
159 0.006015
100 0.006032
41 0.006017
28 0.004039
60 0.002011
68 0.004022
74 0.0
73 0.001008
70 0.0
76 0.0
92 0.0
104 0.000967
122 0.002026
132 0.002005
137 0.001999
145 0.002046
150 0.002016
159 0.001997
171 0.002993
177 0.003998
138 0.003984
61 0.005021
47 0.006019
74 0.005997
92 0.007974
95 0.00797
101 0.006983
96 0.002994
95 0.00502
108 0.002986
129 0.001992
141 0.001996
152 0.001996
157 0.00204
165 0.001999
173 0.001994
178 0.002994
187 0.0
195 0.0
205 0.0
207 0.0
160 0.002017
87 0.0
94 0.001009
119 0.002991
132 0.001994
136 0.002959
132 0.001996
121 0.002009
122 0.002988
138 0.002993
156 0.003012
164 0.002975
171 0.003005
176 0.002949
180 0.002992
185 0.002984
189 0.002985
198 0.003015
207 0.002999
182 0.002866
99 0.003001
89 0.003993
114 0.003997
128 0.005988
134 0.005989
135 0.007974
125 0.006949
121 0.006985
130 0.004023
149 0.001994
159 0.003995
169 0.0
175 0.000954
178 0.001996
182 0.002025
192 0.001996
193 0.004002
152 0.002993
87 0.003957
90 0.004983
115 0.005984
123 0.006975
126 0.006981
123 0.006981
116 0.007014
118 0.006981
133 0.006961
147 0.004985
155 0.005982
164 0.002963
170 0.0
174 0.000994
180 0.000998
189 0.000998
171 0.000998
91 0.001002
80 0.001866
94 0.003004
111 0.003958
115 0.00503
115 0.004987
108 0.006982
109 0.007012
118 0.006979
135 0.007019
149 0.006177
155 0.004986
162 0.004973
165 0.004978
172 0.004984
180 0.002993
185 0.005017
196 0.002994
143 0.001997
93 0.001997
84 0.001978
102 0.001951
121 0.0
124 0.0
124 0.000991
114 0.001023
113 0.002997
122 0.003056
138 0.005018
154 0.003002
160 0.002959
166 0.002997
170 0.002993
176 0.00296
181 0.002997
188 0.004023
197 0.004987
197 0.005018
152 0.005026
93 0.004983
99 0.004902
128 0.007022
140 0.004982
144 0.003988
137 0.003986
126 0.001991
128 0.001986
145 0.001995
159 0.003976
167 0.001993
173 0.004206
179 0.003992
181 0.003988
187 0.003985
192 0.003974
200 0.002028
208 0.0
194 0.002993
102 0.0
79 0.000992
92 0.000999
115 0.001029
115 0.001997
117 0.002991
108 0.003029
103 0.002995
111 0.003026
127 0.004019
136 0.003007
146 0.004024
153 0.002987
157 0.002998
163 0.003992
167 0.002992
175 0.005985
181 0.004988
189 0.006016
178 0.005993
100 0.007978
64 0.007977
79 0.007959
99 0.003989
102 0.005984
102 0.002994
97 0.005984
86 0.001994
92 0.001994
101 0.002994
118 0.001984
131 0.001957
136 0.002975
142 0.002991
147 0.001996
150 0.001987
157 0.002042
164 0.002034
174 0.004002
181 0.003051
124 0.003973
71 0.004989
58 0.006013
82 0.006015
98 0.006989
103 0.003991
98 0.003991
87 0.004002
81 0.004001
90 0.003986
109 0.003952
123 0.002993
128 0.00303
132 0.003994
134 0.004004
139 0.00297
144 0.005984
152 0.003021
160 0.005967
135 0.003047
63 0.006024
43 0.004985
59 0.004988
83 0.004162
91 0.001996
89 0.002999
74 0.0
74 0.0
81 0.0
101 0.0
110 0.0
121 0.000998
126 0.002029
129 0.002026
134 0.002034
141 0.002028
148 0.003041
152 0.001959
66 0.004001
26 0.00399
25 0.005953
52 0.006983
58 0.006018
60 0.005972
60 0.005985
53 0.00701
54 0.006979
67 0.007012
83 0.005986
96 0.006977
104 0.006967
110 0.004986
115 0.003959
121 0.004983
129 0.002992
134 0.002014
147 0.003007
149 0.003008
84 0.0
20 0.003038
25 0.001989
44 0.002034
52 0.003027
53 0.002039
55 0.002028
51 0.000994
54 0.001995
67 0.001995
86 0.001995
95 0.001997
105 0.002
111 0.001993
115 0.001997
123 0.002045
129 0.002994
138 0.002996
147 0.002055
154 0.002031
166 0.002994
134 0.005043
70 0.004989
30 0.00598
39 0.00698
68 0.004979
72 0.006891
76 0.00498
75 0.004985
70 0.006022
74 0.005022
91 0.002927
110 0.002004
118 0.002988
126 0.002029
133 0.000965
136 0.000992
144 0.0
150 0.0
160 0.000996
168 0.0
174 0.0
184 0.001995
177 0.00494
120 0.003949
54 0.003991
67 0.003995
93 0.00396
102 0.003991
105 0.004987
101 0.005949
90 0.007982
95 0.002964
107 0.006982
127 0.004975
136 0.007018
143 0.003995
149 0.004994
152 0.004955
159 0.003988
163 0.004998
170 0.00397
180 0.002992
187 0.003989
187 0.0
113 0.002034
55 0.00096
59 0.003028
87 0.002027
93 0.002042
97 0.0
93 0.001999
86 0.001995
88 0.002028
104 0.002026
116 0.002056
131 0.002048
136 0.001958
143 0.001995
147 0.004049
150 0.003991
158 0.003983
166 0.004985
173 0.005984
181 0.005005
189 0.00798
147 0.004998
64 0.007017
42 0.003996
63 0.005019
85 0.005021
85 0.004993
86 0.003992
77 0.001987
76 0.003028
88 0.003003
107 0.003034
117 0.001997
128 0.002008
132 0.00101
138 0.001011
144 0.001002
148 0.000967
157 0.001007
165 0.0
170 0.0
182 0.0
186 0.0
106 0.000998
39 0.001996
48 0.002962
81 0.005025
89 0.005984
92 0.006951
86 0.006986
74 0.006983
77 0.00698
94 0.006984
111 0.006987
123 0.006896
130 0.005946
132 0.007015
138 0.006965
142 0.005983
146 0.005983
155 0.006024
163 0.006005
159 0.005976
84 0.007013
37 0.005006
47 0.006976
78 0.007012
87 0.007012
94 0.00798
87 0.006024
73 0.005021
82 0.001988
94 0.003991
113 0.002012
124 0.001997
127 0.002956
132 0.002015
135 0.001992
141 0.002002
151 0.000964
159 0.0
129 0.000999
44 0.0
15 0.0
32 0.000963
53 0.0
53 0.0
55 0.000998
52 0.000997
47 0.000995
56 0.001995
71 0.002994
86 0.005016
98 0.005018
100 0.005023
106 0.004987
112 0.005861
116 0.00698
125 0.006979
133 0.006981
143 0.006976
85 0.006152
24 0.00598
8 0.005983
29 0.004981
33 0.003992
33 0.004009
39 0.003989
38 0.006016
39 0.005981
48 0.004987
68 0.003989
84 0.002992
90 0.003981
98 0.002962
105 0.000998
109 0.0
118 0.0
127 0.000958
133 0.000997
144 0.000965
153 0.000965
127 0.000998
26 0.002991
9 0.002972
36 0.002978
52 0.003959
52 0.003989
57 0.003957
53 0.00398
51 0.006974
65 0.007022
82 0.006024
96 0.007981
103 0.006989
108 0.006987
114 0.007011
121 0.00299
125 0.004993
134 0.003002
143 0.002001
152 0.001013
148 0.000965
52 0.001008
26 0.001007
33 0.001995
59 0.002811
61 0.004036
69 0.003978
65 0.004038
62 0.002993
72 0.004992
84 0.004985
103 0.00498
112 0.006019
117 0.006979
122 0.007017
129 0.006974
133 0.007013
141 0.004017
150 0.003995
155 0.003987
164 0.003994
174 0.001995
159 0.001995
46 0.001993
12 0.001999
29 0.001992
44 0.003986
37 0.002962
42 0.004124
49 0.001994
48 0.003985
56 0.00302
67 0.002992
88 0.001996
99 0.0
106 0.0
112 0.0
120 0.0
125 0.0
137 0.0
143 0.0
155 0.0
165 0.0
169 0.0
178 0.0
184 0.0
189 0.0
93 0.0
43 0.0
47 0.00099
74 0.002007
72 0.001984
74 0.001996
79 0.001902
79 0.002993
83 0.002963
97 0.001991
114 0.004
131 0.006941
137 0.006982
144 0.007012
152 0.004984
157 0.006982
168 0.004987
175 0.004987
188 0.00499
198 0.004983
204 0.004982
215 0.003
224 0.00499
200 0.001997
122 0.005023
100 0.004021
118 0.002967
141 0.002993
144 0.002987
149 0.002028
140 0.0
136 0.002002
149 0.0
166 0.000998
177 0.003034
189 0.003026
195 0.003995
200 0.005021
206 0.004993
214 0.004977
220 0.004974
229 0.004984
237 0.005984
244 0.005982
217 0.005988
156 0.004983
111 0.004988
127 0.005978
142 0.002992
139 0.005984
141 0.005984
140 0.005986
134 0.005017
136 0.005016
151 0.004943
167 0.001991
174 0.004986
180 0.003006
186 0.002107
190 0.001952
197 0.00101
203 0.002003
209 0.001031
217 0.003025
227 0.00303
228 0.003032
143 0.002988
103 0.003982
107 0.002934
125 0.003031
126 0.003013
124 0.002976
123 0.003026
119 0.004028
117 0.005023
125 0.005987
143 0.005016
157 0.006952
163 0.007946
168 0.004985
174 0.004983
177 0.003979
185 0.002983
193 0.002042
198 0.0
206 0.0
214 0.001961
194 0.001991
104 0.000997
92 0.000969
108 0.002007
124 0.000998
123 0.001995
123 0.002029
113 0.004988
108 0.004984
113 0.005894
130 0.007038
142 0.00397
149 0.006975
154 0.00302
157 0.005991
161 0.003993
167 0.002998
172 0.000964
184 0.002988
179 0.00099
95 0.0
69 0.0
85 0.0
100 0.000945
111 0.001995
116 0.00401
105 0.003993
94 0.00399
99 0.003957
110 0.00399
129 0.003989
137 0.003992
145 0.00399
150 0.003958
154 0.004859
160 0.005989
170 0.005967
176 0.00599
130 0.005952
69 0.006038
40 0.005021
59 0.004026
71 0.004044
71 0.002997
74 0.005023
67 0.003026
62 0.005017
71 0.005128
81 0.004006
100 0.004023
112 0.0
116 0.003003
122 0.0
129 0.0
136 0.0
142 0.0
151 0.000963
160 0.000997
106 0.001046
43 0.002041
19 0.003002
44 0.002994
50 0.003001
47 0.004996
49 0.004985
45 0.005983
47 0.005988
56 0.005984
71 0.006026
88 0.007987
96 0.004987
105 0.007975
112 0.007978
118 0.007981
124 0.007981
134 0.003023
141 0.003986
154 0.001997
161 0.003012
121 0.002995
33 0.003005
28 0.001043
57 0.001991
70 0.003028
70 0.002007
75 0.003024
70 0.0
68 0.001994
83 0.003031
96 0.003036
114 0.0
124 0.001038
131 0.001034
136 0.001063
144 0.00187
150 0.001995
160 0.00396
172 0.004985
181 0.005982
189 0.005983
146 0.006018
83 0.005966
91 0.005983
110 0.005986
124 0.005985
129 0.005991
124 0.005984
115 0.005952
119 0.005983
132 0.006978
150 0.007039
160 0.006981
165 0.008015
170 0.005977
175 0.007983
181 0.007987
185 0.007131
194 0.005996
201 0.003937
165 0.003994
94 0.002005
101 0.000958
116 0.0
126 0.000962
131 0.000967
127 0.00299
116 0.002998
119 0.002976
129 0.003
146 0.002956
153 0.002959
159 0.004021
163 0.004981
167 0.004985
170 0.005017
178 0.004841
184 0.005977
177 0.005975
96 0.00698
73 0.007982
81 0.005017
94 0.007949
96 0.004987
97 0.00494
96 0.004983
90 0.004991
95 0.00399
105 0.004995
120 0.003959
126 0.003988
133 0.001995
137 0.002993
143 0.003024
146 0.003025
154 0.002041
160 0.002029
170 0.003031
159 0.000967
93 0.000994
58 0.000997
75 0.000995
87 0.002993
87 0.002992
92 0.004001
89 0.004991
87 0.004795
92 0.004982
108 0.004983
120 0.00598
126 0.005959
132 0.005984
137 0.006989
142 0.003988
148 0.005984
157 0.006021
162 0.006019
170 0.006017
175 0.006019
183 0.006016
123 0.003987
84 0.006017
85 0.002978
102 0.005983
114 0.003018
117 0.002037
115 0.001991
108 0.0
115 0.0
125 0.0
141 0.000969
149 0.002022
153 0.0
157 0.0
163 0.000998
167 0.001976
175 0.004035
182 0.003976
190 0.003998
194 0.003989
155 0.00402
103 0.004005
107 0.004057
122 0.004052
131 0.004962
134 0.006986
132 0.007017
122 0.004986
125 0.003991
134 0.002996
149 0.002116
158 0.003008
160 0.002986
164 0.001991
167 0.0
172 0.0
178 0.003019
184 0.0
191 0.00299
194 0.0
162 0.002026
99 0.0
91 0.000997
103 0.000998
111 0.001998
108 0.001996
111 0.001995
104 0.003027
106 0.006038
110 0.005994
126 0.004994
137 0.002997
141 0.003005
147 0.0
150 0.002995
156 0.0
163 0.001998
170 0.0
177 0.000999
184 0.002993
141 0.004956
86 0.005034
81 0.005016
103 0.00502
107 0.005016
105 0.00499
106 0.004999
98 0.005018
98 0.004983
105 0.005982
118 0.005977
130 0.005989
135 0.005985
140 0.004989
146 0.00399
148 0.003991
156 0.002993
162 0.002986
171 0.0
177 0.002992
180 0.000962
129 0.00299
67 0.0
69 0.0
88 0.000998
99 0.002956
101 0.00199
99 0.002993
89 0.002854
90 0.003952
104 0.00503
119 0.005019
127 0.005988
134 0.006027
139 0.005962
141 0.00598
144 0.005982
148 0.005984
157 0.005981
153 0.006014
113 0.006006
61 0.00797
58 0.005978
83 0.00798
94 0.00698
97 0.007011
90 0.007973
85 0.007984
87 0.006982
102 0.003972
112 0.005984
125 0.001961
132 0.0
134 0.0
139 0.0
147 0.0
152 0.0
120 0.0
63 0.002025
53 0.0
74 0.000836
94 0.001992
101 0.00196
99 0.001995
90 0.002053
85 0.002993
97 0.001996
112 0.003026
124 0.003022
134 0.002999
137 0.004029
142 0.004023
144 0.004025
152 0.004951
152 0.005962
130 0.006981
55 0.006041
65 0.006975
76 0.005988
101 0.006979
106 0.006977
100 0.004991
86 0.007014
87 0.003992
100 0.006981
118 0.007017
126 0.006988
135 0.007013
139 0.006982
144 0.00602
150 0.001996
150 0.003961
87 0.002006
47 0.002023
57 0.003002
84 0.003009
99 0.0
102 0.0
87 0.0
79 0.0
90 0.0
106 0.002993
119 0.00096
129 0.003025
134 0.0
137 0.0
143 0.002035
150 0.002991
125 0.002992
59 0.00303
36 0.00202
56 0.002994
76 0.00305
80 0.003993
83 0.003023
74 0.005955
74 0.005984
90 0.004986
102 0.006991
115 0.005023
126 0.004987
131 0.003986
138 0.002993
143 0.003025
152 0.003022
148 0.003002
75 0.0
49 0.0
68 0.000998
87 0.002992
93 0.003009
99 0.002041
93 0.003043
91 0.00302
104 0.002994
122 0.003002
131 0.002992
142 0.00399
146 0.003007
152 0.003026
157 0.003989
162 0.006979
169 0.004991
139 0.005001
91 0.004987
72 0.003977
93 0.006015
106 0.002988
110 0.004034
110 0.003958
104 0.002964
106 0.004013
115 0.004059
134 0.003026
145 0.0
149 0.002024
155 0.0
159 0.001037
160 0.001003
167 0.002961
176 0.003025
176 0.004988
115 0.004987
72 0.005001
79 0.002961
104 0.005001
111 0.007971
115 0.004992
108 0.007977
104 0.005988
107 0.005973
123 0.005017
139 0.001994
144 0.003026
147 0.0
151 0.0
153 0.0
156 0.001001
167 0.00199
172 0.002951
137 0.003025
93 0.002992
80 0.002988
105 0.003994
113 0.004959
121 0.00604
115 0.004991
106 0.002983
107 0.002991
120 0.004991
134 0.004001
144 0.00303
150 0.002025
152 0.002045
155 0.002957
159 0.002992
167 0.003035
167 0.003033
101 0.003027
69 0.002957
77 0.00303
97 0.002995
99 0.003038
103 0.003956
95 0.004986
93 0.005112
105 0.006018
119 0.004996
129 0.00399
138 0.004015
143 0.00404
146 0.002997
148 0.002996
153 0.003021
160 0.000998
167 0.000997
148 0.002054
93 0.002026
52 0.002028
62 0.002025
83 0.002041
85 0.002027
90 0.001909
85 0.002045
85 0.005016
93 0.004038
112 0.003987
121 0.003989
130 0.003993
135 0.00399
139 0.003963
145 0.003948
150 0.005017
156 0.006032
163 0.006019
172 0.005017
173 0.005017
99 0.005017
54 0.003005
66 0.00498
88 0.0
89 0.0
93 0.0
88 0.0
85 0.0
90 0.0
108 0.001999
119 0.00203
130 0.003028
136 0.003961
139 0.003998
145 0.004006
152 0.003959
156 0.003946
165 0.003985
170 0.003947
180 0.003975
175 0.003991
111 0.004003
63 0.005939
78 0.006003
95 0.005983
100 0.006948
104 0.004987
102 0.004987
95 0.004983
97 0.004981
110 0.004989
125 0.004988
132 0.004969
139 0.004987
141 0.004985
146 0.003976
153 0.006981
159 0.004009
164 0.005977
173 0.006021
179 0.004012
178 0.003983
135 0.004021
69 0.004988
85 0.0
104 0.003023
119 0.0
121 0.000949
112 0.000994
99 0.001027
107 0.000998
117 0.000958
133 0.0
139 0.0
144 0.001983
146 0.001996
148 0.002002
151 0.001989
160 0.002027
166 0.001878
127 0.002989
75 0.002994
57 0.004945
79 0.005028
97 0.006982
103 0.005984
100 0.006864
89 0.006981
86 0.006984
99 0.003989
111 0.002991
128 0.002991
136 0.000973
138 0.000965
143 0.0
149 0.0
153 0.0
163 0.0
134 0.0
73 0.0
34 0.001996
46 0.000996
69 0.002014
70 0.002992
74 0.002992
69 0.002995
66 0.002992
72 0.002993
91 0.00299
103 0.002995
115 0.00502
121 0.004987
125 0.005016
130 0.006018
138 0.004986
142 0.005987
154 0.004988
112 0.003011
53 0.002
27 0.000963
48 0.002956
57 0.0
58 0.0
64 0.0
62 0.0
63 0.0
75 0.000997
91 0.003022
104 0.002802
114 0.003026
119 0.002996
127 0.002996
132 0.002993
141 0.002992
153 0.003033
162 0.002995
169 0.002998
140 0.002994
57 0.003947
57 0.005946
78 0.006983
83 0.004957
84 0.006977
87 0.003981
82 0.007012
85 0.004988
93 0.003988
113 0.003026
128 0.0
133 0.002973
140 0.0
146 0.0
151 0.0
160 0.0
166 0.0
177 0.0
187 0.000996
169 0.000965
86 0.0
75 0.001999
97 0.0
114 0.002004
122 0.0
121 0.002993
108 0.0
106 0.0
120 0.001998
136 0.001984
146 0.001994
152 0.001999
155 0.00196
158 0.002042
163 0.003947
168 0.003959
176 0.005019
183 0.005986
181 0.006973
115 0.005546
61 0.005027
70 0.005999
93 0.00304
95 0.002994
100 0.003
99 0.004977
92 0.001992
96 0.00499
113 0.004987
122 0.004987
134 0.002994
140 0.0
142 0.000963
147 0.000998
154 0.00101
158 0.00203
167 0.001995
177 0.001953
182 0.002049
127 0.002014
67 0.002001
46 0.003942
68 0.00296
69 0.004027
66 0.003951
69 0.002967
65 0.005007
68 0.004994
77 0.005017
97 0.003967
111 0.005004
118 0.004954
123 0.005019
128 0.004988
133 0.004987
141 0.004986
148 0.00502
157 0.005025
166 0.005949
173 0.005979
166 0.005984
110 0.006982
45 0.004026
50 0.002989
68 0.002964
78 0.00299
82 0.002001
81 0.002995
74 0.0
79 0.002965
94 0.0
108 0.003029
123 0.0
129 0.003023
134 0.0
140 0.001996
145 0.004011
152 0.004035
162 0.00402
170 0.006021
181 0.004021
160 0.002992
102 0.002989
58 0.0
83 0.0
101 0.0
114 0.0
115 0.003006
107 0.0
96 0.0
111 0.001957
124 0.001961
142 0.003946
151 0.002989
157 0.003944
161 0.004021
167 0.005034
170 0.006986
178 0.006981
186 0.004983
194 0.006978
169 0.003988
102 0.007034
51 0.002998
76 0.003008
90 0.002989
95 0.00299
98 0.002989
94 0.00299
89 0.002998
99 0.004007
117 0.0
132 0.003026
142 0.0
149 0.002991
156 0.002992
160 0.002992
166 0.002991
173 0.001032
181 0.000997
191 0.002004
194 0.002997
143 0.004027
54 0.004013
49 0.002935
78 0.002993
88 0.003965
89 0.005969
90 0.005956
86 0.006952
88 0.00598
97 0.006022
118 0.007951
129 0.004986
138 0.006966
145 0.004052
150 0.005984
155 0.004986
159 0.004987
166 0.00302
173 0.0
178 0.003023
188 0.00096
143 0.0
76 0.0
41 0.000952
58 0.000963
85 0.000966
90 0.0
92 0.0
83 0.002994
78 0.001986
85 0.003042
105 0.003031
123 0.004953
131 0.004958
135 0.006949
141 0.007944
144 0.003987
149 0.005967
156 0.005018
162 0.00402
175 0.003129
181 0.0
141 0.003023
56 0.000977
62 0.001975
82 0.002011
103 0.0
109 0.0
102 0.0
87 0.000992
89 0.0
104 0.0
125 0.0
134 0.001994
144 0.001963
148 0.004949
152 0.005951
156 0.006992
161 0.007982
166 0.007978
177 0.007984
146 0.004961
61 0.00798
34 0.004989
55 0.007979
77 0.004942
85 0.004988
88 0.004988
79 0.005969
72 0.004971
81 0.004973
102 0.003965
113 0.00399
126 0.004012
133 0.005987
137 0.002991
143 0.003023
149 0.003025
153 0.001994
164 0.002992
171 0.002031
116 0.002963
30 0.0
29 0.003041
61 0.000964
73 0.002992
80 0.0
78 0.0
70 0.000965
71 0.000959
90 0.000996
102 0.000964
114 0.0
121 0.0
128 0.001047
133 0.00203
137 0.003028
144 0.003995
150 0.003026
159 0.003958
168 0.004985
149 0.003914
82 0.003993
24 0.00402
36 0.005029
69 0.004978
80 0.005951
82 0.006964
75 0.005021
65 0.003992
69 0.002998
88 0.003953
107 0.0
114 0.004007
121 0.002962
124 0.003011
128 0.003986
132 0.00602
138 0.003027
145 0.006018
155 0.002992
162 0.005985
88 0.005992
40 0.005981
41 0.00602
76 0.002992
88 0.00502
100 0.002025
91 0.005022
71 0.0
79 0.0
93 0.0
111 0.0
124 0.001999
128 0.001977
131 0.002998
134 0.002988
138 0.003002
148 0.002982
151 0.003983
105 0.003
27 0.004983
32 0.006053
59 0.005982
77 0.005977
87 0.00596
82 0.006002
66 0.00599
68 0.005947
84 0.004993
106 0.004974
116 0.005033
125 0.004993
129 0.004987
134 0.00499
139 0.004986
144 0.004991
155 0.002997
130 0.006975
43 0.002992
6 0.002031
31 0.0
47 0.001001
53 0.00204
58 0.003012
55 0.003999
51 0.004948
64 0.004969
78 0.00499
98 0.004992
112 0.005986
115 0.007975
120 0.002037
127 0.002996
130 0.001973
141 0.002994
147 0.003015
156 0.002991
74 0.001999
20 0.001996
16 0.003018
43 0.00399
53 0.002999
57 0.003026
60 0.002992
57 0.002994
60 0.0
75 0.001998
94 0.003037
107 0.003006
118 0.004025
122 0.002992
129 0.004003
133 0.003988
142 0.003985
152 0.003985
157 0.003996
169 0.003989
176 0.003993
145 0.003997
37 0.003989
21 0.003971
52 0.00399
71 0.004011
79 0.003957
82 0.005004
73 0.005985
68 0.006936
77 0.007013
89 0.007014
105 0.007975
114 0.004986
116 0.007969
119 0.004992
122 0.007977
128 0.004995
135 0.004984
140 0.005986
152 0.004984
161 0.004983
128 0.004991
26 0.004991
16 0.004937
48 0.005984
67 0.005956
85 0.004985
84 0.007186
69 0.00399
65 0.006016
84 0.004977
100 0.005987
124 0.003999
137 0.0
141 0.002989
145 0.0
148 0.0
152 0.0
162 0.0
170 0.0
172 0.001014
63 0.001013
19 0.001002
