156 0.015928
163 0.0
177 0.0
183 0.0
193 0.0
173 0.0
86 0.0
44 0.0
45 0.000968
61 0.000863
85 0.002
97 0.001994
111 0.002993
121 0.002992
128 0.001995
141 0.002992
153 0.003022
168 0.003024
182 0.002027
189 0.002044
196 0.003034
168 0.002993
59 0.002995
36 0.002961
42 0.004959
58 0.005017
81 0.004985
95 0.004987
112 0.005952
119 0.005985
133 0.005979
143 0.005992
159 0.006977
171 0.003984
186 0.005002
194 0.005032
206 0.003045
175 0.003146
107 0.002028
47 0.002999
49 0.002993
61 0.0
80 0.002939
98 0.000995
112 0.002028
126 0.002027
130 0.001994
147 0.001952
158 0.000998
171 0.000998
182 0.001036
194 0.001008
205 0.000998
207 0.001047
185 0.001033
87 0.000993
61 0.001995
66 0.001996
86 0.002994
99 0.001994
119 0.002989
129 0.00393
138 0.004023
146 0.001009
165 0.00399
173 0.005028
189 0.005
196 0.004987
208 0.00494
211 0.004998
180 0.004995
113 0.004969
83 0.004955
89 0.005994
108 0.003988
121 0.005963
135 0.005984
143 0.005954
147 0.007981
155 0.004026
169 0.003991
175 0.002992
189 0.002992
196 0.002992
208 0.002994
200 0.006185
153 0.00198
92 0.005029
83 0.005022
95 0.005014
117 0.005048
130 0.005953
144 0.005026
151 0.000999
155 0.00398
167 0.000949
175 0.003989
192 0.001024
205 0.0
213 0.000965
217 0.0
166 0.001994
105 0.000997
69 0.002009
71 0.001024
85 0.001995
108 0.001996
116 0.000997
128 0.00015
136 0.001001
143 0.000998
154 0.0
166 0.0
179 0.0
191 0.0
200 0.000992
188 0.0
123 0.0
55 0.000994
42 0.000999
52 0.000998
73 0.002069
94 0.002047
105 0.001072
114 0.001995
119 0.001961
133 0.000999
150 0.001964
158 0.001947
173 0.002046
182 0.001996
178 0.00201
99 0.002044
55 0.001963
44 0.003007
57 0.002839
71 0.002971
90 0.003023
103 0.002033
110 0.002964
122 0.002992
127 0.002992
144 0.002992
151 0.002028
167 0.003025
179 0.003989
174 0.004022
111 0.004988
60 0.006039
58 0.005947
76 0.005936
88 0.005961
104 0.004988
112 0.006949
116 0.002964
124 0.007028
136 0.007028
143 0.006932
158 0.007017
164 0.007982
174 0.00701
142 0.002992
88 0.005984
45 0.002047
59 0.002988
73 0.002988
98 0.001989
105 0.002043
115 0.001092
124 0.000998
131 0.002005
144 0.001035
156 0.001946
167 0.001965
176 0.001994
169 0.0
124 0.0
39 0.001
26 0.0
42 0.0
59 0.000998
82 0.000997
94 0.000998
102 0.013958
102 0.001997
116 0.001994
140 0.002012
172 0.000998
48 0.0
24 0.0
67 0.004987
81 0.004024
93 0.004021
101 0.006978
114 0.002986
126 0.006981
145 0.006026
152 0.006986
168 0.005985
175 0.005946
186 0.005974
134 0.001171
65 0.002032
20 0.001022
23 0.001998
40 0.000993
65 0.000982
78 0.000993
94 0.001049
102 0.00297
116 0.001965
128 0.002995
144 0.002137
156 0.002997
169 0.001992
177 0.001998
188 0.001049
198 0.000995
205 0.00098
191 0.00104
104 0.001028
41 0.001017
38 0.000997
44 0.0
65 0.001998
85 0.002003
98 0.001963
108 0.001995
122 0.002982
132 0.002977
149 0.00494
163 0.005011
168 0.005984
186 0.00502
191 0.004991
207 0.004956
215 0.006976
207 0.005019
115 0.007034
64 0.003987
46 0.006998
59 0.007972
74 0.007948
92 0.006938
110 0.003018
117 0.00798
130 0.00299
142 0.000998
154 0.001965
168 0.002001
177 0.001066
189 0.000998
203 0.000964
208 0.000972
213 0.001971
181 0.002992
127 0.002026
86 0.001994
89 0.001009
109 0.000999
129 0.001041
139 0.0
146 0.0
151 0.0
160 0.0
171 0.0
181 0.000998
194 0.001995
208 0.001996
214 0.002013
222 0.002037
192 0.001995
142 0.002029
84 0.002962
86 0.002987
101 0.002993
124 0.002991
133 0.002988
144 0.002967
148 0.005012
158 0.004987
168 0.00498
179 0.004991
190 0.005026
201 0.005007
210 0.005017
217 0.005018
211 0.004953
135 0.004996
74 0.005937
70 0.004981
81 0.005978
102 0.005991
110 0.00609
126 0.005994
130 0.00497
140 0.004972
150 0.004968
163 0.004987
175 0.004986
185 0.003998
196 0.004003
209 0.006983
199 0.003999
131 0.006984
66 0.006955
53 0.007963
61 0.007131
70 0.007033
92 0.00602
107 0.001992
114 0.005985
114 0.037867
119 0.001994
139 0.000998
169 0.002017
189 0.001996
82 0.001993
45 0.001996
97 0.0
123 0.001062
136 0.000975
151 0.000998
160 0.001
176 0.000964
187 0.000998
194 0.000999
173 0.000996
92 0.001996
58 0.002004
57 0.002977
73 0.003972
89 0.003022
105 0.003989
114 0.003989
120 0.005034
125 0.004976
136 0.005022
147 0.004988
156 0.005941
168 0.004986
179 0.006016
174 0.006021
126 0.005988
81 0.005986
74 0.006021
86 0.00603
102 0.007012
116 0.005987
123 0.004067
127 0.003992
132 0.003981
140 0.004012
151 0.003989
164 0.00401
167 0.003993
177 0.003997
156 0.007948
90 0.004003
48 0.007939
54 0.00298
71 0.00701
93 0.007019
102 0.006981
107 0.007956
113 0.00798
121 0.006988
134 0.003988
143 0.007012
158 0.004004
161 0.006994
153 0.002992
65 0.001995
29 0.001995
27 0.002013
48 0.002952
64 0.002102
80 0.004994
90 0.000997
92 0.004987
105 0.004983
112 0.005
128 0.005152
138 0.004986
152 0.002988
147 0.001963
103 0.002996
24 0.001994
1 0.000951
8 0.001027
26 0.001025
50 0.000966
60 0.0
74 0.0
80 0.0
96 0.0
113 0.00096
124 0.0
140 0.0
156 0.00097
147 0.000998
55 0.002002
10 0.001983
0 0.00203
12 0.003005
25 0.002992
45 0.002992
64 0.001989
74 0.002984
86 0.002992
98 0.003021
115 0.002992
134 0.003999
143 0.003992
160 0.004019
166 0.003989
179 0.003938
134 0.004996
61 0.004982
16 0.004018
24 0.004988
32 0.003045
50 0.002995
64 0.002999
84 0.002961
98 0.007951
104 0.001996
120 0.007957
137 0.007946
143 0.007973
160 0.006981
168 0.006979
184 0.007014
195 0.002974
198 0.00698
143 0.002994
83 0.007031
55 0.022939
54 0.001018
56 0.000984
100 0.000953
121 0.000975
127 0.003969
136 0.003945
148 0.002
159 0.002045
171 0.002046
181 0.001005
188 0.000997
200 0.000998
197 0.001002
136 0.000962
90 0.0
81 0.0
88 0.0
112 0.0
131 0.0
139 0.0
144 0.0
152 0.000966
162 0.0
177 0.001001
186 0.0
198 0.000997
209 0.001998
216 0.001995
226 0.001978
224 0.002037
153 0.001995
92 0.002046
83 0.001043
92 0.001953
110 0.002992
120 0.003024
136 0.00299
140 0.002027
148 0.005012
160 0.004015
169 0.005022
180 0.004821
190 0.004992
202 0.00502
214 0.004992
218 0.005011
226 0.005978
185 0.005938
141 0.005986
89 0.004997
89 0.006001
101 0.005
115 0.005985
131 0.002992
138 0.005002
146 0.005041
153 0.005035
162 0.00495
176 0.0
183 0.002991
198 0.000987
208 0.001968
215 0.001969
224 0.001995
227 0.002036
193 0.001965
120 0.001041
110 0.000997
114 0.000998
124 0.001998
139 0.001004
151 0.001963
153 0.000998
159 0.000986
165 0.000998
174 0.0
182 0.0
191 0.0
200 0.001002
209 0.000999
209 0.0
172 0.000966
134 0.0
109 0.000998
119 0.000999
130 0.000999
148 0.001006
154 0.000998
160 0.000998
163 0.001996
170 0.0
178 0.001995
190 0.001037
195 0.001995
206 0.001995
212 0.002022
201 0.001995
147 0.001006
93 0.001987
82 0.001995
91 0.001995
103 0.001
119 0.001997
128 0.003053
131 0.002993
139 0.002959
142 0.002993
155 0.003078
160 0.003018
173 0.002015
183 0.002992
189 0.003023
155 0.002921
102 0.002992
60 0.002983
66 0.002992
73 0.003025
94 0.003947
104 0.005053
110 0.005952
117 0.005014
123 0.00498
134 0.006997
147 0.006983
155 0.007056
165 0.0068
175 0.004997
160 0.006982
96 0.003992
61 0.003993
52 0.003954
69 0.003992
80 0.004005
88 0.0
94 0.002992
107 0.000999
126 0.002048
156 0.001
163 0.001002
53 0.000868
53 0.004024
72 0.000974
91 0.000998
103 0.000998
108 0.00196
111 0.000997
120 0.000998
134 0.001047
139 0.000964
154 0.001964
162 0.002005
173 0.000998
157 0.002015
94 0.002012
50 0.003026
51 0.002028
63 0.003002
83 0.002028
95 0.001966
106 0.001031
111 0.001995
118 0.001961
130 0.000998
145 0.0
152 0.000998
166 0.000967
171 0.0
177 0.001001
117 0.000977
63 0.002013
38 0.001995
53 0.002977
63 0.001988
85 0.002988
95 0.002979
106 0.003024
113 0.002024
123 0.002031
136 0.00302
144 0.003036
156 0.004954
166 0.004986
176 0.004986
181 0.00502
149 0.003981
89 0.004993
43 0.005929
47 0.006022
66 0.005954
81 0.00499
95 0.004998
108 0.00399
113 0.003941
121 0.004021
134 0.003965
143 0.004007
157 0.004941
169 0.006991
177 0.002992
187 0.00703
197 0.006987
187 0.006982
119 0.005971
80 0.005983
73 0.005982
89 0.001986
103 0.003991
120 0.0
130 0.0
133 0.000943
141 0.0
148 0.0
161 0.000997
171 0.001972
177 0.002012
188 0.002013
194 0.002007
180 0.001961
113 0.0
80 0.000902
84 0.001044
106 0.001977
120 0.002
137 0.002046
138 0.001989
143 0.001011
150 0.001995
160 0.001995
172 0.00103
184 0.002027
192 0.002004
202 0.003
202 0.003021
171 0.003053
78 0.002992
60 0.004955
67 0.004987
86 0.003989
101 0.003986
118 0.004987
122 0.005983
128 0.005983
138 0.005986
148 0.007979
163 0.00399
173 0.007019
185 0.002993
196 0.006983
196 0.006997
166 0.006971
75 0.007114
53 0.00699
58 0.002957
77 0.002009
92 0.002974
109 0.002963
121 0.001994
128 0.002029
139 0.000997
146 0.0
162 0.001952
172 0.003997
182 0.001962
194 0.002992
185 0.00798
151 0.002984
76 0.000998
68 0.002008
77 0.001968
94 0.00101
108 0.000995
122 0.0
128 0.001002
131 0.000964
142 0.001001
149 0.000998
162 0.001998
175 0.002992
184 0.002987
192 0.003025
155 0.003988
107 0.003992
73 0.003024
83 0.004022
95 0.003025
115 0.00398
122 0.004055
124 0.004953
127 0.005004
136 0.004021
146 0.004987
157 0.004994
168 0.004947
181 0.004967
179 0.00498
124 0.004996
67 0.005018
41 0.005991
55 0.005955
69 0.006014
92 0.005981
102 0.005986
105 0.00498
118 0.006018
122 0.005014
137 0.004984
155 0.005974
162 0.005034
175 0.00499
177 0.005026
132 0.003979
37 0.00695
20 0.004987
30 0.006981
53 0.007964
67 0.007989
85 0.007978
92 0.007981
98 0.003994
112 0.004196
119 0.003957
135 0.00296
150 0.002027
162 0.001989
169 0.0
153 0.00198
54 0.001041
15 0.005015
17 0.001002
32 0.003996
52 0.000967
68 0.004057
83 0.00399
90 0.004964
102 0.003989
117 0.000997
128 0.005005
145 0.002014
154 0.002992
169 0.002048
161 0.001972
113 0.001953
39 0.001995
25 0.000993
35 0.001105
58 0.001028
70 0.001002
90 0.000998
99 0.001011
108 0.000994
119 0.000992
130 0.000997
146 0.001997
160 0.001002
167 0.001002
176 0.001029
153 0.001014
76 0.00099
44 0.001997
50 0.002
69 0.002006
95 0.002003
107 0.001966
114 0.002037
124 0.001997
131 0.001972
145 0.00303
156 0.002987
171 0.00303
185 0.002976
190 0.002986
168 0.00301
110 0.002995
52 0.003994
60 0.004022
75 0.004022
100 0.00497
116 0.003956
126 0.004994
130 0.004026
139 0.004997
149 0.004982
165 0.003999
175 0.005024
188 0.004939
196 0.00494
208 0.00598
206 0.004954
169 0.006006
62 0.004963
44 0.005031
52 0.005992
73 0.004982
88 0.004973
108 0.003991
120 0.007966
127 0.004083
140 0.006983
148 0.003978
155 0.0
157 0.001981
175 0.0
198 0.007949
205 0.003027
178 0.00704
74 0.003111
46 0.006985
51 0.002991
74 0.002985
92 0.002995
112 0.002981
121 0.001997
132 0.002027
144 0.00199
151 0.001015
166 0.001995
181 0.00602
189 0.000981
203 0.004988
212 0.000996
208 0.005061
138 0.005022
87 0.004986
74 0.005021
84 0.003989
107 0.003978
128 0.000967
138 0.00398
145 0.001953
152 0.00097
159 0.001988
170 0.002025
178 0.001031
190 0.000991
202 0.000972
205 0.000963
173 0.000972
96 0.000976
81 0.000967
92 0.001973
106 0.001999
132 0.001966
146 0.0
149 0.000956
154 0.000998
161 0.000962
174 0.001001
185 0.0
194 0.000975
204 0.001967
205 0.001997
175 0.003024
88 0.001981
69 0.002993
76 0.002994
98 0.002999
113 0.002996
129 0.002989
134 0.003999
138 0.003036
148 0.003996
155 0.003982
171 0.003984
184 0.00501
194 0.004023
196 0.004002
128 0.00602
64 0.006021
33 0.0059
42 0.006975
62 0.005985
79 0.005004
91 0.007939
105 0.003988
114 0.002996
121 0.002992
136 0.003004
147 0.00302
162 0.002988
175 0.003013
173 0.002995
99 0.003984
46 0.003001
27 0.002992
41 0.006946
60 0.001996
79 0.005982
97 0.006952
104 0.005966
114 0.005978
123 0.005994
139 0.004996
155 0.001027
164 0.005032
176 0.000866
152 0.000964
97 0.002002
41 0.000973
42 0.00201
61 0.000994
85 0.00194
97 0.001971
105 0.002032
108 0.001987
115 0.002026
125 0.003001
136 0.002001
148 0.003021
158 0.001963
162 0.001991
110 0.002012
51 0.002016
27 0.002962
43 0.001998
64 0.001005
84 0.001996
92 0.002001
99 0.000994
107 0.001998
116 0.001999
130 0.001966
141 0.001025
155 0.0
169 0.0
164 0.000969
85 0.001
23 0.000973
23 0.00086
43 0.001014
59 0.000969
80 0.001043
90 0.000999
100 0.0
107 0.001992
120 0.002022
134 0.002022
151 0.002963
158 0.00195
171 0.002021
177 0.003023
151 0.00405
42 0.00399
17 0.004963
25 0.004972
45 0.005042
59 0.004038
82 0.004971
95 0.005986
98 0.005955
110 0.005984
121 0.005983
139 0.005984
155 0.006981
164 0.005035
177 0.007008
190 0.007032
183 0.006946
87 0.006976
36 0.005928
24 0.006983
38 0.004982
54 0.007035
72 0.003986
84 0.007944
101 0.003962
111 0.003978
122 0.00399
137 0.003953
155 0.003004
165 0.001993
182 0.002993
189 0.002972
202 0.002031
210 0.006989
181 0.003963
93 0.005992
55 0.001937
59 0.005975
79 0.005992
95 0.005962
117 0.001997
129 0.0
134 0.000986
143 0.00198
151 0.000959
166 0.0
178 0.001011
187 0.001013
199 0.001993
205 0.002003
196 0.001975
113 0.002044
77 0.002044
75 0.002032
99 0.001966
116 0.000949
136 0.001997
142 0.002029
147 0.001968
154 0.001
164 0.00104
179 0.0
193 0.000996
201 0.0
212 0.0
219 0.0
206 0.0
114 0.0
75 0.001002
72 0.0
84 0.0
108 0.000997
128 0.001957
136 0.00096
143 0.001996
154 0.002054
162 0.001969
176 0.001881
188 0.002002
202 0.002054
213 0.001968
223 0.000968
212 0.001996
144 0.001997
69 0.00303
57 0.00284
69 0.003025
92 0.00399
116 0.004979
127 0.00599
135 0.005987
146 0.004994
151 0.003974
167 0.004987
182 0.002993
191 0.001991
204 0.000981
214 0.001963
204 0.00102
137 0.005035
72 0.0
59 0.003999
75 0.004022
90 0.003999
115 0.004023
125 0.004024
136 0.003983
144 0.001999
152 0.001995
167 0.001006
176 0.00199
190 0.001987
204 0.00201
211 0.003991
213 0.002018
219 0.000967
110 0.001964
55 0.000994
56 0.000997
77 0.0
100 0.0
115 0.0
124 0.0
130 0.001004
139 0.000997
150 0.002001
165 0.001996
172 0.002033
188 0.001999
193 0.002993
201 0.002992
161 0.002986
113 0.003024
76 0.002961
82 0.00296
104 0.003038
125 0.00298
130 0.002985
134 0.003056
136 0.003026
143 0.003939
154 0.004958
164 0.005002
177 0.004987
186 0.006001
190 0.005974
150 0.00702
72 0.006925
59 0.006983
74 0.007008
89 0.006983
113 0.007013
122 0.003991
127 0.007948
131 0.003988
138 0.00796
153 0.003993
167 0.003979
177 0.003993
189 0.00399
193 0.002992
160 0.002996
54 0.001948
28 0.001977
35 0.003954
52 0.006986
74 0.000995
88 0.005986
98 0.005016
106 0.005018
116 0.00096
127 0.003978
143 0.000993
159 0.000965
167 0.001
180 0.0
171 0.000938
78 0.002011
13 0.0
14 0.000993
32 0.0
50 0.003967
70 0.001993
84 0.002993
93 0.001029
102 0.001967
119 0.000997
126 0.002022
145 0.001965
158 0.001946
170 0.001961
177 0.000997
144 0.0
57 0.00097
22 0.0
28 0.0
49 0.000971
66 0.000982
87 0.0
102 0.0
110 0.0
123 0.000778
132 0.00098
150 0.0
166 0.000975
175 0.0
188 0.000954
192 0.001017
163 0.001006
68 0.0
50 0.001973
61 0.002028
80 0.001005
101 0.002002
118 0.001996
126 0.001995
136 0.002847
145 0.003033
154 0.003036
169 0.003027
183 0.003966
190 0.004995
199 0.005976
173 0.006009
106 0.005029
75 0.005029
77 0.005099
103 0.005961
121 0.005023
134 0.004961
138 0.004983
142 0.004981
149 0.003971
163 0.007963
170 0.007973
183 0.007972
196 0.004024
194 0.007979
150 0.002973
92 0.006952
67 0.002014
83 0.002962
99 0.001935
122 0.001963
133 0.001976
137 0.001959
146 0.001969
150 0.0
167 0.0
179 0.003984
191 0.001014
203 0.004021
183 0.003996
134 0.003984
60 0.001996
60 0.0
71 0.0
90 0.0
106 0.000974
115 0.000998
124 0.00097
129 0.000966
144 0.000998
160 0.00298
171 0.002003
184 0.001995
190 0.00304
153 0.003019
57 0.003004
37 0.002992
46 0.003025
59 0.003015
82 0.002998
102 0.003026
111 0.003046
121 0.002953
128 0.00399
143 0.00297
156 0.005995
167 0.005977
182 0.005965
165 0.006891
103 0.00698
34 0.006983
35 0.004986
50 0.006982
72 0.003966
91 0.007014
105 0.004956
114 0.003986
121 0.003973
135 0.004989
145 0.004018
161 0.003993
177 0.003985
185 0.003985
162 0.004039
61 0.007972
37 0.002984
43 0.007974
57 0.006981
79 0.007974
99 0.00296
107 0.006983
115 0.002
123 0.006009
139 0.001998
155 0.002023
164 0.001996
180 0.00205
192 0.001993
193 0.002025
132 0.001989
71 0.001987
46 0.002963
61 0.005983
81 0.001965
99 0.005925
115 0.000957
121 0.00402
131 0.004939
140 0.003989
155 0.004021
168 0.000995
179 0.003022
190 0.001847
197 0.003999
200 0.002017
152 0.001996
104 0.00197
87 0.001996
101 0.001975
113 0.000946
137 0.000999
145 0.002037
145 0.002048
149 0.002992
158 0.002967
167 0.002984
180 0.002028
186 0.001979
198 0.003986
199 0.003996
167 0.003983
102 0.003999
81 0.003956
90 0.005006
111 0.005953
127 0.005011
139 0.00698
143 0.004997
148 0.005948
156 0.003987
166 0.005982
176 0.003974
189 0.004024
197 0.003966
205 0.003984
167 0.002025
105 0.001999
63 0.001993
67 0.002003
86 0.001995
103 0.004986
117 0.005019
126 0.004992
131 0.001043
137 0.00502
151 0.0
157 0.004987
172 0.001967
183 0.000956
192 0.000936
175 0.001004
120 0.000966
47 0.002016
50 0.001963
57 0.001989
77 0.000997
100 0.0
109 0.0
116 0.0
116 0.031915
124 0.002962
146 0.002012
162 0.000963
177 0.001989
188 0.001014
194 0.001799
166 0.002992
65 0.002994
45 0.003988
52 0.003989
63 0.003993
84 0.003993
102 0.003954
110 0.003022
118 0.003976
124 0.003989
139 0.004001
156 0.003981
165 0.005029
177 0.004955
192 0.004994
197 0.004962
194 0.003992
103 0.007979
53 0.003965
40 0.007976
53 0.003986
72 0.007972
89 0.006981
102 0.006981
113 0.006981
124 0.000997
129 0.005984
145 0.001966
152 0.005962
168 0.001028
178 0.001965
189 0.000997
199 0.001984
194 0.002007
114 0.000998
55 0.0
55 0.001981
70 0.002973
94 0.002993
106 0.003004
119 0.002992
119 0.00301
128 0.002984
140 0.001991
148 0.00197
162 0.002983
174 0.001966
184 0.003015
195 0.001025
197 0.001025
141 0.0
67 0.000986
62 0.0
83 0.0
108 0.0
123 0.000973
133 0.0
136 0.0
144 0.0
159 0.0
166 0.001022
181 0.001995
188 0.00195
202 0.001951
210 0.001951
215 0.001987
168 0.002984
70 0.002992
58 0.003025
69 0.002983
83 0.002991
106 0.003023
124 0.00402
127 0.005014
136 0.004995
146 0.004984
157 0.004979
171 0.004015
180 0.005002
192 0.005009
207 0.004969
213 0.00501
196 0.004993
94 0.006982
54 0.00502
45 0.007979
59 0.00502
82 0.007972
104 0.006979
114 0.007976
122 0.007934
126 0.007947
139 0.005995
155 0.001947
164 0.004977
178 0.0
195 0.0
202 0.0
214 0.000953
188 0.000974
128 0.000968
48 0.000972
44 0.00197
61 0.000967
80 0.003989
95 0.003991
112 0.004945
120 0.00396
127 0.003966
139 0.002001
149 0.000979
162 0.001997
178 0.000991
185 0.000992
199 0.001964
211 0.002
212 0.001013
147 0.00096
84 0.000977
54 0.001995
70 0.002981
81 0.003017
106 0.003986
120 0.004981
124 0.005008
132 0.005011
144 0.005957
153 0.004996
167 0.006989
175 0.005015
186 0.007945
199 0.007974
203 0.007962
168 0.007936
107 0.003136
88 0.006985
95 0.001989
108 0.006016
133 0.00099
147 0.000996
149 0.001001
151 0.0
161 0.000958
167 0.0
180 0.0
185 0.000999
193 0.002994
203 0.003007
183 0.001949
121 0.002983
71 0.003025
75 0.003058
95 0.001995
112 0.002033
130 0.002088
131 0.001995
134 0.002994
139 0.001989
148 0.000991
161 0.001995
176 0.000993
182 0.002042
192 0.001963
161 0.0
99 0.000999
39 0.000967
48 0.003042
61 0.003007
87 0.002963
98 0.002979
110 0.00303
113 0.003995
122 0.004986
133 0.004988
149 0.005968
159 0.005016
172 0.004992
179 0.009974
182 0.002994
110 0.001036
21 0.006989
15 0.004023
33 0.002993
47 0.003985
71 0.003025
82 0.002962
96 0.001987
105 0.002995
117 0.002925
133 0.000958
145 0.003954
158 0.0
171 0.003989
167 0.003038
122 0.002006
22 0.001994
8 0.002029
22 0.002019
42 0.002955
57 0.002029
76 0.00203
90 0.001036
97 0.002049
109 0.0
121 0.001996
138 0.002005
158 0.0
167 0.001002
182 0.0
195 0.0
189 0.0
95 0.00095
41 0.000964
22 0.0
38 0.000998
50 0.000998
77 0.001948
87 0.000975
103 0.001997
112 0.001988
126 0.001966
139 0.002993
155 0.003964
168 0.004017
181 0.004009
190 0.003031
202 0.004029
210 0.00498
189 0.004982
118 0.004971
62 0.003016
61 0.002986
80 0.00303
100 0.007149
114 0.002992
125 0.007939
131 0.002992
138 0.006972
148 0.007972
158 0.006989
172 0.006979
180 0.006984
193 0.006983
202 0.001963
193 0.006984
128 0.001992
84 0.00194
90 0.000955
112 0.001997
123 0.004986
147 0.000952
155 0.001962
155 0.0
165 0.001035
174 0.000968
190 0.0
200 0.005071
211 0.001003
220 0.005184
222 0.001958
197 0.004972
108 0.003964
82 0.003972
89 0.004028
113 0.001009
128 0.003989
148 0.001974
153 0.003966
159 0.000969
169 0.002024
177 0.002013
191 0.002024
201 0.002004
211 0.001978
222 0.001051
220 0.001032
160 0.001028
82 0.001972
75 0.000998
85 0.001002
106 0.001007
121 0.001002
135 0.001995
142 0.000999
147 0.002021
157 0.003001
168 0.002058
180 0.002994
195 0.002023
204 0.002017
207 0.003022
180 0.003022
88 0.002051
58 0.003023
62 0.003022
81 0.002992
96 0.003984
114 0.004994
127 0.005004
132 0.00503
145 0.004933
156 0.006012
167 0.005012
182 0.007968
192 0.007964
199 0.006979
191 0.005984
106 0.0
61 0.005
47 0.001
55 0.004989
75 0.000971
97 0.000967
105 0.000956
116 0.0
126 0.001983
133 0.001996
149 0.002971
157 0.002964
173 0.001995
186 0.002948
194 0.002969
182 0.001979
144 0.002028
55 0.001011
45 0.001972
53 0.000998
77 0.000989
95 0.0
104 0.0
112 0.0
118 0.0
128 0.0
143 0.000996
153 0.000997
167 0.0
182 0.000961
187 0.000993
158 0.003023
88 0.004965
71 0.004945
72 0.004999
84 0.004988
107 0.003989
124 0.004003
128 0.004984
130 0.00402
143 0.007013
148 0.00497
162 0.006959
172 0.002978
183 0.006015
196 0.005985
190 0.00599
136 0.006021
72 0.000998
67 0.006033
82 0.001964
99 0.006008
119 0.002004
131 0.001988
133 0.001957
142 0.0
145 0.0
161 0.002028
173 0.006038
182 0.0
194 0.004974
202 0.005963
203 0.003983
134 0.003989
79 0.004025
49 0.003994
66 0.002021
77 0.004025
100 0.002012
113 0.002008
117 0.002001
124 0.002025
133 0.00202
145 0.001995
160 0.002046
172 0.002989
181 0.002073
188 0.001993
199 0.002029
159 0.001031
97 0.001026
44 0.0
50 0.00085
63 0.001997
84 0.001994
98 0.003025
108 0.003036
117 0.003089
126 0.004023
138 0.003989
155 0.00401
162 0.003953
178 0.003984
191 0.004985
200 0.005025
205 0.004989
181 0.005978
107 0.004983
54 0.003956
58 0.003984
76 0.004133
100 0.002974
109 0.002961
123 0.003007
126 0.004953
136 0.002984
148 0.007926
159 0.004015
171 0.007989
182 0.003995
190 0.007928
203 0.006984
210 0.007981
202 0.006981
142 0.003953
108 0.002965
99 0.001979
102 0.001991
123 0.002019
140 0.000957
143 0.001997
144 0.002029
151 0.003993
158 0.001942
169 0.00299
179 0.001906
186 0.003043
198 0.002004
202 0.001988
181 0.001998
136 0.00203
111 0.00203
109 0.001995
123 0.001989
138 0.001118
152 0.000987
154 0.00099
152 0.0
162 0.000967
166 0.000998
179 0.001011
185 0.001964
198 0.001968
206 0.002965
202 0.002954
143 0.002992
87 0.002994
78 0.00399
92 0.005038
109 0.005984
120 0.005981
131 0.00502
131 0.005966
136 0.007976
146 0.00698
153 0.007959
166 0.007014
178 0.002992
187 0.007938
189 0.003022
166 0.006167
80 0.001954
41 0.002963
44 0.002008
63 0.001984
82 0.001963
95 0.003015
103 0.001004
107 0.001966
117 0.001995
130 0.003993
140 0.001984
152 0.003964
168 0.002027
173 0.003028
170 0.002025
134 0.002043
43 0.00202
23 0.001039
26 0.001997
49 0.002039
70 0.001995
82 0.002022
90 0.001978
98 0.001964
108 0.001959
125 0.001957
132 0.001029
150 0.001992
155 0.0
170 0.0
179 0.0
167 0.0
81 0.0
36 0.0
24 0.000967
36 0.0
55 0.001995
72 0.001996
87 0.002871
92 0.002992
104 0.002992
109 0.003026
125 0.002991
142 0.002999
152 0.00302
164 0.003
179 0.003954
185 0.003981
189 0.003959
164 0.003988
108 0.009944
34 0.002001
31 0.003978
51 0.003994
73 0.007022
87 0.004989
96 0.007014
102 0.003989
111 0.006984
126 0.006982
135 0.006959
153 0.007946
164 0.00299
171 0.006067
185 0.001994
192 0.005989
204 0.001982
173 0.001965
121 0.001964
53 0.001982
55 0.0
64 0.0
88 0.0
96 0.000998
108 0.000998
115 0.002965
119 0.003004
133 0.002993
147 0.002982
156 0.002938
168 0.002987
180 0.003024
189 0.002035
195 0.002
189 0.001992
135 0.002029
102 0.001994
90 0.002012
107 0.002034
120 0.001035
139 0.001008
140 0.000994
143 0.003
146 0.001042
151 0.001997
161 0.001966
176 0.0
181 0.0
193 0.000974
195 0.001017
156 0.0
102 0.000967
83 0.000969
91 0.000969
111 0.001996
125 0.002058
136 0.001997
138 0.002
140 0.002006
150 0.002025
157 0.001949
172 0.002999
184 0.003007
193 0.002992
186 0.00403
150 0.004987
60 0.004979
44 0.004014
51 0.004998
75 0.004979
95 0.005976
102 0.004995
110 0.00601
111 0.006014
125 0.00598
141 0.006022
151 0.006951
165 0.006993
176 0.006981
154 0.006975
76 0.005001
22 0.006018
17 0.003981
38 0.00404
52 0.003955
75 0.002966
82 0.002994
88 0.00307
94 0.003016
99 0.002992
108 0.002969
114 0.001983
127 0.003025
124 0.006979
84 0.007149
0 0.005995
0 0.00196
0 0.005983
25 0.002011
40 0.005992
63 0.002024
71 0.001999
78 0.003046
89 0.002021
100 0.001998
113 0.002051
129 0.001967
129 0.002028
72 0.001996
17 0.003965
16 0.000997
31 0.003985
53 0.002002
75 0.004965
83 0.004022
86 0.00399
89 0.002995
96 0.001995
107 0.002974
120 0.002036
130 0.001998
133 0.000998
129 0.003041
33 0.00205
35 0.001969
50 0.001981
82 0.002989
99 0.001951
107 0.000976
108 0.0
119 0.0
124 0.0
144 0.0
151 0.0
172 0.0
176 0.0
160 0.0
72 0.000786
53 0.000972
57 0.001084
69 0.000954
85 0.001985
97 0.001995
107 0.001017
109 0.003025
122 0.000996
130 0.001994
147 0.000999
160 0.00296
171 0.002026
175 0.003998
116 0.004022
63 0.003945
45 0.003982
52 0.003988
68 0.004955
87 0.004936
99 0.003988
106 0.004979
110 0.00501
119 0.004957
132 0.00499
145 0.004814
156 0.004023
168 0.003987
182 0.005
184 0.005018
138 0.005979
76 0.004957
68 0.005984
73 0.00499
89 0.004025
101 0.00403
117 0.003987
121 0.005018
124 0.003028
133 0.004021
141 0.006972
151 0.003014
164 0.007958
173 0.002944
181 0.00701
193 0.008004
188 0.007006
127 0.006984
91 0.00698
82 0.005964
93 0.000997
107 0.005985
123 0.001952
132 0.00204
132 0.001994
138 0.001977
140 0.001993
153 0.002033
163 0.001976
172 0.002022
183 0.0
192 0.003019
201 0.002001
206 0.003008
209 0.002041
156 0.002048
103 0.0
99 0.001963
113 0.002011
127 0.001963
139 0.001982
148 0.000997
142 0.001992
142 0.001993
147 0.000996
155 0.002023
165 0.002985
177 0.003979
183 0.003985
195 0.004021
200 0.003973
194 0.004
126 0.004956
106 0.003989
108 0.004996
130 0.004985
140 0.004991
154 0.005971
157 0.005035
157 0.004978
163 0.006985
166 0.006942
183 0.007009
196 0.00399
209 0.006949
218 0.002994
231 0.006942
238 0.002947
220 0.003991
173 0.004022
101 0.002988
99 0.002989
112 0.002996
135 0.002998
146 0.002996
163 0.003991
171 0.007971
179 0.003003
189 0.006983
200 0.001944
209 0.005993
224 0.006002
235 0.004951
245 0.003969
243 0.001993
212 0.003989
113 0.00207
91 0.003973
99 0.001996
106 0.002991
124 0.002017
145 0.002975
156 0.001992
160 0.001985
175 0.001868
178 0.001947
192 0.002023
208 0.001975
215 0.001984
144 0.0
222 0.000956
186 0.000944
96 0.0
86 0.0
92 0.0
110 0.001011
127 0.000964
142 0.000975
150 0.000979
154 0.001026
166 0.000961
172 0.000973
188 0.001031
200 0.001004
208 0.001013
206 0.001965
180 0.002019
99 0.002004
88 0.001992
96 0.002977
118 0.003007
130 0.00199
146 0.003021
149 0.004831
153 0.004987
163 0.004993
172 0.003984
183 0.005022
196 0.006003
204 0.003958
190 0.006969
119 0.004987
60 0.006981
54 0.00399
72 0.00496
89 0.003005
112 0.002993
123 0.002996
127 0.001979
132 0.001999
137 0.001992
144 0.002002
154 0.005987
160 0.0
164 0.004996
122 0.004947
45 0.004953
60 0.00398
63 0.002991
69 0.002948
78 0.001995
88 0.003025
94 0.001995
97 0.001995
102 0.003043
109 0.001972
114 0.000989
122 0.002054
130 0.0
130 0.000969
104 0.000956
57 0.000993
54 0.000981
60 0.000966
68 0.00101
80 0.001004
90 0.001973
91 0.000974
96 0.0
102 0.002995
109 0.004003
117 0.004987
125 0.005987
131 0.006023
137 0.005949
133 0.005984
83 0.006034
62 0.004991
64 0.005987
72 0.003989
84 0.002949
92 0.004024
99 0.00304
100 0.003046
106 0.003991
113 0.003024
120 0.003011
129 0.003001
135 0.002983
144 0.007984
150 0.007989
143 0.007962
100 0.007977
79 0.007978
77 0.007012
89 0.001992
97 0.005973
106 0.001993
115 0.0
120 0.001934
127 0.00202
139 0.003033
143 0.002991
156 0.001854
162 0.002981
171 0.003024
169 0.001988
140 0.001996
87 0.001938
88 0.001968
97 0.001998
118 0.001977
129 0.002009
137 0.001995
139 0.001965
146 0.002962
155 0.002958
160 0.000945
167 0.0
178 0.0
183 0.000967
187 0.000999
143 0.000982
124 0.002011
97 0.002046
78 0.001988
98 0.002036
116 0.001999
124 0.002012
131 0.002869
138 0.002992
143 0.00295
153 0.00399
160 0.003986
170 0.00399
179 0.003987
183 0.003972
173 0.004982
98 0.004967
70 0.004943
69 0.005027
78 0.005015
96 0.004972
110 0.004986
121 0.006035
126 0.003984
133 0.006963
141 0.002994
151 0.00304
159 0.002995
168 0.003002
179 0.003982
184 0.002976
175 0.002019
134 0.003959
78 0.007978
68 0.006981
76 0.007978
87 0.006034
101 0.001966
109 0.005975
115 0.0
119 0.005987
125 0.002001
136 0.00201
143 0.003047
153 0.001992
162 0.002033
169 0.001952
177 0.002028
137 0.000956
88 0.000992
62 0.00096
66 0.001
80 0.000969
97 0.001006
107 0.0
117 0.001997
123 0.002005
132 0.000963
139 0.001995
149 0.002035
158 0.00199
169 0.003025
175 0.002958
173 0.003001
148 0.001994
91 0.002977
88 0.003995
96 0.002991
115 0.003958
131 0.005002
136 0.005004
140 0.004987
145 0.004981
149 0.00496
160 0.00499
165 0.004976
176 0.004958
184 0.006952
184 0.004016
141 0.005955
101 0.004003
88 0.007013
103 0.007019
113 0.007024
130 0.007946
138 0.001995
139 0.007006
145 0.001976
151 0.007018
161 0.002005
172 0.00296
177 0.002013
187 0.001996
181 0.000998
148 0.001006
82 0.001995
73 0.001037
80 0.003033
97 0.001997
108 0.002029
122 0.0
128 0.001031
132 0.001857
141 0.000998
151 0.0
158 0.0
168 0.000998
173 0.000998
173 0.000963
112 0.000957
73 0.00203
61 0.00296
72 0.001994
83 0.003008
101 0.002981
109 0.003005
119 0.003
127 0.003014
132 0.002994
144 0.003
154 0.004987
159 0.004969
167 0.010937
165 0.00299
163 0.003025
59 0.001996
59 0.006024
74 0.003994
84 0.005013
101 0.005985
111 0.004988
116 0.006983
124 0.003971
135 0.003987
141 0.003988
153 0.004953
158 0.004956
164 0.002993
123 0.002993
81 0.003048
63 0.00399
72 0.006981
87 0.001969
101 0.006016
113 0.002024
118 0.005984
126 0.006036
132 0.006954
142 0.005987
149 0.006958
160 0.005977
168 0.003021
161 0.006036
102 0.001007
72 0.002019
76 0.0
92 0.0
104 0.0
119 0.0
124 0.0
127 0.0
134 0.000969
139 0.001994
147 0.0
156 0.004987
162 0.003998
156 0.005044
124 0.004055
76 0.004022
80 0.001965
90 0.002991
109 0.002992
120 0.001995
124 0.002993
129 0.002993
136 0.002985
143 0.00299
153 0.001945
158 0.0
168 0.0
167 0.001998
137 0.0
78 0.0
73 0.002009
84 0.0
101 0.000998
112 0.001001
123 0.001994
124 0.001981
129 0.001967
136 0.003025
144 0.002992
154 0.00299
165 0.003999
170 0.004014
158 0.004021
88 0.003976
73 0.004022
77 0.003021
86 0.004015
100 0.003951
114 0.003985
119 0.003983
124 0.002973
128 0.004986
136 0.005015
148 0.005981
155 0.004982
167 0.004981
174 0.006942
165 0.003017
94 0.006018
74 0.006983
76 0.006981
87 0.00798
97 0.006976
111 0.007936
123 0.001994
126 0.005932
134 0.001996
143 0.0
150 0.00196
162 0.002027
167 0.001995
177 0.002988
178 0.002992
144 0.002987
84 0.002969
82 0.003026
88 0.003031
105 0.002028
115 0.002017
127 0.002003
133 0.002031
136 0.002946
142 0.002993
150 0.001995
156 0.001998
165 0.002996
171 0.002022
176 0.002964
137 0.001995
97 0.002025
84 0.0
89 0.016954
94 0.003988
113 0.000955
132 0.002962
138 0.001982
145 0.001988
150 0.001994
161 0.001036
167 0.00102
177 0.001989
184 0.003021
187 0.002988
156 0.002028
93 0.002025
76 0.002993
86 0.002024
96 0.002016
114 0.003833
130 0.003051
134 0.004987
139 0.004986
147 0.00399
153 0.004969
165 0.005018
174 0.004986
182 0.005019
186 0.004984
177 0.004038
100 0.004022
75 0.005002
75 0.003987
89 0.00684
98 0.004958
115 0.005987
121 0.002998
129 0.006955
135 0.006977
143 0.00799
152 0.007984
158 0.003975
163 0.007975
170 0.003011
170 0.006985
131 0.002025
72 0.0
69 0.001993
81 0.001998
96 0.001961
103 0.001034
113 0.00501
119 0.001957
122 0.004024
128 0.003998
134 0.002994
140 0.00298
151 0.001978
155 0.002999
153 0.002985
127 0.003043
84 0.002967
87 0.002016
95 0.002006
116 0.001997
133 0.0
140 0.0
146 0.0
148 0.000998
156 0.001
165 0.001965
171 0.001965
179 0.002035
175 0.004992
147 0.005018
100 0.003983
99 0.004887
106 0.004995
113 0.005035
123 0.004007
128 0.005064
128 0.004997
126 0.006035
127 0.005984
127 0.005992
131 0.005985
134 0.003957
135 0.006977
121 0.002984
73 0.004021
60 0.002992
63 0.00199
69 0.00197
81 0.001958
88 0.001955
88 0.001992
87 0.001995
88 0.007009
92 0.002962
99 0.006972
106 0.002001
112 0.007152
107 0.006982
96 0.00702
78 0.007021
80 0.006972
92 0.005965
108 0.001967
120 0.005977
146 0.001979
160 0.006985
178 0.000993
195 0.0
206 0.0
222 0.002003
234 0.00498
239 0.0
221 0.003989
168 0.002027
157 0.003018
160 0.002992
167 0.002992
179 0.002971
181 0.001991
178 0.001982
171 0.002026
166 0.002995
169 0.002968
177 0.002028
182 0.003019
191 0.002991
188 0.002987
204 0.002984
240 0.001982
255 0.001979
254 0.0
254 0.016922
254 0.002991
254 0.002964
254 0.002968
254 0.0
254 0.000976
254 0.001001
225 0.0
229 0.0
231 0.00196
120 0.001991
231 0.001967
224 0.001953
204 0.002072
191 0.001038
168 0.001983
151 0.001965
138 0.001026
132 0.002
128 0.00099
121 0.002026
119 0.002063
116 0.001035
114 0.001847
114 0.001971
114 0.002976
114 0.002996
114 0.003963
102 0.003969
86 0.003984
78 0.003019
79 0.004025
82 0.002998
86 0.004022
89 0.003959
90 0.003996
91 0.005029
93 0.005944
98 0.006982
102 0.003987
105 0.00697
108 0.004021
112 0.003019
111 0.002002
98 0.001997
85 0.001994
79 0.001994
81 0.006989
85 0.002008
89 0.006015
94 0.005988
96 0.004924
99 0.004988
101 0.004984
105 0.004963
109 0.000968
111 0.00498
115 0.002998
119 0.002047
121 0.002985
118 0.002993
104 0.002992
90 0.002047
91 0.001998
94 0.001991
100 0.002007
104 0.002029
107 0.002967
110 0.002033
112 0.001995
116 0.002993
119 0.001997
122 0.0
125 0.000962
128 0.0
130 0.001022
129 0.000998
115 0.001991
102 0.001988
103 0.001996
105 0.000998
111 0.00207
115 0.000979
119 0.001949
121 0.003
123 0.002992
125 0.003014
129 0.002973
130 0.004001
133 0.005001
135 0.003965
135 0.003939
119 0.004996
112 0.005006
109 0.004962
113 0.005985
116 0.004968
121 0.005993
123 0.004989
123 0.005977
125 0.006981
125 0.006982
128 0.00697
129 0.00698
132 0.007978
147 0.002991
145 0.007015
112 0.001957
71 0.00096
71 0.002966
80 0.003043
91 0.003034
105 0.003025
109 0.00603
114 0.002025
117 0.004973
125 0.004026
131 0.005941
141 0.004975
145 0.005987
153 0.004971
145 0.00187
128 0.014989
99 0.002034
75 0.002983
59 0.001955
77 0.001977
87 0.002965
98 0.002034
105 0.002129
108 0.002995
117 0.002014
126 0.002055
132 0.002033
139 0.0
145 0.0
137 0.0
80 0.000957
65 0.00101
70 0.000965
81 0.003029
91 0.003008
102 0.00299
111 0.002028
115 0.003976
119 0.005984
126 0.004973
136 0.004981
144 0.004976
155 0.004951
166 0.004924
164 0.004234
142 0.004953
90 0.003973
84 0.004038
96 0.003984
110 0.003944
119 0.0
126 0.002993
130 0.006976
132 0.00295
135 0.006982
142 0.00296
145 0.007953
154 0.006952
154 0.005986
162 0.005953
138 0.001993
93 0.003991
60 0.002027
61 0.001983
69 0.002952
86 0.001992
94 0.002027
100 0.002962
99 0.002949
99 0.002949
109 0.001996
116 0.001998
125 0.001999
132 0.002038
139 0.001948
140 0.0
103 0.000953
60 0.000978
51 0.001997
64 0.002044
88 0.002
109 0.000804
119 0.000998
143 0.004017
147 0.003998
146 0.003984
149 0.004932
151 0.005006
150 0.00498
152 0.004977
156 0.004128
155 0.004955
129 0.002985
98 0.003986
82 0.004016
84 0.007985
91 0.003005
100 0.007933
107 0.001995
111 0.006947
114 0.007017
118 0.006981
124 0.006976
128 0.007002
136 0.006985
145 0.002026
150 0.006978
148 0.001997
95 0.000964
79 0.000959
81 0.000956
88 0.0
103 0.0
117 0.001967
121 0.002026
127 0.001965
133 0.002999
138 0.002967
145 0.003991
152 0.002013
156 0.003046
163 0.003034
168 0.002994
175 0.001988
175 0.001988
134 0.001951
113 0.001963
116 0.001997
126 0.002957
142 0.002022
150 0.001996
161 0.0
164 0.00097
168 0.000952
174 0.001952
177 0.002989
181 0.003989
187 0.002947
188 0.004974
190 0.004986
175 0.004998
145 0.004999
111 0.005959
112 0.005974
121 0.006949
133 0.005015
139 0.005996
142 0.005981
146 0.002964
148 0.018919
149 0.000999
152 0.001985
165 0.001945
171 0.002998
172 0.003
166 0.002991
128 0.002955
109 0.002967
104 0.000912
113 0.00303
126 0.001994
135 0.005987
142 0.002064
146 0.006957
153 0.00498
157 0.003995
165 0.004989
169 0.004026
178 0.003025
183 0.002959
179 0.002969
148 0.002988
124 0.002991
123 0.00301
131 0.002992
141 0.002966
151 0.002986
162 0.00205
166 0.001996
170 0.002001
168 0.002027
167 0.002047
169 0.002958
170 0.001008
168 0.0
164 0.0
158 0.0
160 0.000888
168 0.001019
206 0.002015
246 0.001967
254 0.002013
254 0.001054
254 0.002005
254 0.003023
254 0.003001
254 0.002959
254 0.00298
254 0.003001
254 0.002999
254 0.002981
254 0.004954
254 0.00499
254 0.005009
254 0.005019
254 0.004123
254 0.007971
254 0.002994
254 0.007927
242 0.006945
227 0.006979
204 0.00698
185 0.001964
176 0.006001
144 0.000985
85 0.005988
0 0.0
54 0.001964
54 0.001963
56 0.003016
58 0.002017
59 0.001988
60 0.00299
64 0.003019
66 0.000973
70 0.000975
75 0.002034
78 0.00197
71 0.001988
55 0.001966
40 0.002989
41 0.003027
47 0.00299
54 0.003022
59 0.002997
62 0.003001
66 0.002027
69 0.002987
75 0.002022
81 0.004008
85 0.004027
90 0.003025
90 0.004005
68 0.003982
52 0.004979
52 0.00498
57 0.004978
65 0.004965
70 0.00398
77 0.00396
79 0.002988
84 0.003963
88 0.007956
93 0.003025
98 0.007016
104 0.006939
107 0.006948
108 0.005991
96 0.005981
69 0.004997
67 0.001005
70 0.004973
76 0.001997
83 0.001996
88 0.002958
91 0.002973
93 0.002992
78 0.002975
86 0.00199
92 0.00199
102 0.002021
106 0.027882
107 0.00296
115 0.001961
121 0.002959
61 0.001994
48 0.002967
49 0.0
54 0.001037
61 0.001966
68 0.001995
77 0.002992
83 0.00399
89 0.00402
100 0.002991
105 0.00295
116 0.00379
125 0.002989
129 0.004013
136 0.004977
142 0.004988
145 0.005013
116 0.004985
96 0.004966
90 0.002992
93 0.006986
97 0.002994
102 0.007977
105 0.006981
103 0.006981
98 0.005983
89 0.0
87 0.003986
88 0.001994
92 0.004123
108 0.002961
127 0.002944
132 0.00301
116 0.001987
83 0.002029
74 0.003003
79 0.003023
89 0.010984
92 0.002975
98 0.002031
106 0.001957
98 0.000968
96 0.0
108 0.000965
133 0.0
148 0.0
172 0.000997
181 0.00201
190 0.003024
201 0.001995
164 0.003028
118 0.001991
92 0.001995
97 0.00302
121 0.002976
150 0.002947
163 0.002962
174 0.002036
177 0.001996
177 0.0029
168 0.001993
166 0.002949
173 0.002994
173 0.003997
176 0.003024
177 0.003987
175 0.003961
150 0.00497
92 0.00595
82 0.005984
88 0.006977
109 0.004999
125 0.006009
132 0.002983
135 0.007976
129 0.002993
135 0.002979
155 0.002991
195 0.002013
232 0.0
188 0.000966
204 0.0
212 0.003989
216 0.002009
182 0.002982
146 0.001993
133 0.002975
131 0.003982
132 0.003938
138 0.002992
142 0.002995
147 0.002038
151 0.003955
154 0.001985
158 0.002993
160 0.001991
160 0.001994
159 0.002021
156 0.002013
146 0.002994
141 0.00204
137 0.002025
132 0.001995
132 0.003974
136 0.002994
154 0.002991
168 0.002979
163 0.003022
133 0.0
123 0.001014
122 0.0
127 0.002029
134 0.002029
143 0.001995
151 0.0
131 0.0
102 0.002067
91 0.0
86 0.0
84 0.0
79 0.0
78 0.000995
78 0.001962
77 0.001996
77 0.002994
77 0.002994
76 0.004937
77 0.004946
78 0.004045
81 0.004987
82 0.004943
82 0.003056
84 0.0
91 0.004019
107 0.005984
120 0.005985
146 0.00596
155 0.001994
158 0.007819
159 0.002029
160 0.002993
159 0.00207
161 0.002994
163 0.002988
151 0.002993
104 0.002987
94 0.001996
96 0.001996
103 0.00296
116 0.003012
123 0.006982
126 0.0
126 0.006023
127 0.005983
130 0.003989
136 0.004024
141 0.004092
149 0.00395
156 0.002035
150 0.003982
120 0.001969
116 0.003992
124 0.00204
136 0.002995
143 0.001005
143 0.003031
132 0.001993
131 0.002034
125 0.002965
122 0.002018
123 0.001984
126 0.002039
130 0.002959
142 0.0
145 0.000997
125 0.001964
107 0.002011
106 0.001996
109 0.003003
107 0.002997
111 0.002985
110 0.002998
109 0.003024
111 0.00402
116 0.004985
130 0.004021
136 0.004974
149 0.004043
153 0.004976
126 0.004984
100 0.004958
109 0.004984
136 0.003956
151 0.006979
150 0.003975
154 0.00698
158 0.002992
164 0.006973
168 0.006985
169 0.006989
170 0.007982
170 0.002968
173 0.00697
177 0.001963
176 0.006986
127 0.002996
107 0.002052
106 0.002976
119 0.001008
124 0.0
131 0.000952
132 0.000934
131 0.002032
133 0.002994
135 0.003032
139 0.003031
145 0.002946
151 0.002012
153 0.002962
115 0.002994
83 0.003026
71 0.00299
80 0.002973
87 0.003042
96 0.003018
104 0.002998
108 0.002982
109 0.0
112 0.002029
122 0.000973
133 0.000997
140 0.001886
150 0.001052
152 0.003003
148 0.002987
119 0.00297
106 0.002958
102 0.002969
107 0.003
108 0.001993
109 0.005028
109 0.005967
110 0.005014
111 0.005995
113 0.004008
125 0.007984
130 0.007986
135 0.007975
138 0.007013
117 0.002029
77 0.007961
75 0.001975
81 0.006981
85 0.002991
102 0.002962
111 0.00193
117 0.0
125 0.004982
135 0.0
141 0.003967
148 0.002997
154 0.002994
159 0.003025
162 0.003027
148 0.003023
117 0.002976
110 0.002018
112 0.0
117 0.002991
118 0.0
122 0.000998
123 0.001
129 0.001988
134 0.001953
139 0.0
148 0.001961
152 0.001957
164 0.001933
150 0.002964
125 0.002931
112 0.002991
113 0.00393
113 0.00398
109 0.004978
103 0.005983
98 0.004963
96 0.005079
99 0.004053
103 0.005952
108 0.006976
113 0.006995
119 0.006959
118 0.002991
103 0.008014
80 0.000992
68 0.002002
68 0.003981
72 0.0
76 0.001003
82 0.002992
87 0.000992
89 0.001983
98 0.000972
103 0.00204
112 0.001955
118 0.004957
119 0.003037
86 0.002002
36 0.001986
36 0.002996
48 0.0
60 0.0
75 0.0
88 0.00097
111 0.001044
133 0.0
168 0.0
186 0.0
204 0.0
202 0.0
190 0.0
193 0.0
193 0.000962
199 0.000968
237 0.001964
254 0.000998
254 0.001899
254 0.001966
254 0.001953
254 0.001989
254 0.001979
254 0.001995
254 0.001972
254 0.001961
254 0.002992
254 0.003049
254 0.003023
255 0.004976
151 0.004981
115 0.004048
129 0.004982
136 0.004935
132 0.004079
124 0.004946
111 0.003984
95 0.003977
93 0.002999
86 0.002963
94 0.008032
100 0.002942
106 0.007015
108 0.003007
74 0.004984
29 0.004983
25 0.005956
21 0.004981
23 0.001995
31 0.004995
43 0.001948
47 0.003989
48 0.002032
55 0.002965
60 0.001959
73 0.002027
87 0.001967
96 0.002997
106 0.001986
102 0.002952
54 0.002933
39 0.003025
45 0.002978
60 0.002946
74 0.003002
96 0.001969
103 0.003949
122 0.003005
132 0.00299
140 0.001
150 0.0
157 0.0
170 0.0
180 0.0
174 0.0
140 0.0
127 0.000997
128 0.000994
138 0.001998
144 0.001994
154 0.001995
158 0.002993
160 0.00298
161 0.003989
166 0.003993
171 0.00485
177 0.004957
182 0.004003
186 0.004992
187 0.006004
184 0.005965
159 0.005986
107 0.004958
47 0.005965
35 0.003979
38 0.00595
56 0.002996
84 0.00296
74 0.002992
71 0.002973
95 0.002993
100 0.001992
95 0.002959
64 0.001976
41 0.000971
50 0.00498
64 0.000971
76 0.004988
90 0.005039
97 0.005177
102 0.005008
95 0.004985
79 0.005012
82 0.002015
87 0.004973
97 0.002991
108 0.002165
108 0.002036
111 0.001984
112 0.002003
116 0.003008
124 0.002991
127 0.002981
130 0.0
138 0.001996
139 0.0
127 0.000981
95 0.0
78 0.000992
98 0.001959
107 0.001949
119 0.002009
130 0.001966
143 0.001984
160 0.003026
178 0.002046
201 0.002992
183 0.002988
183 0.002984
199 0.003011
214 0.003025
246 0.003974
254 0.004006
254 0.003995
254 0.004993
254 0.004987
254 0.003962
254 0.005003
254 0.004992
254 0.003962
254 0.007001
254 0.00402
254 0.006946
254 0.007974
254 0.007945
254 0.007019
254 0.00096
254 0.005995
228 0.000867
110 0.001988
92 0.002991
84 0.001961
80 0.001963
81 0.003001
75 0.001952
72 0.002023
68 0.002993
70 0.003023
73 0.003001
79 0.002
86 0.001994
94 0.001996
86 0.002987
59 0.0
5 0.0
64 0.0
67 0.000972
72 0.000958
77 0.000956
81 0.0
83 0.001986
86 0.001989
89 0.000996
93 0.001986
98 0.002907
103 0.002992
106 0.002991
105 0.003012
82 0.001948
73 0.003987
72 0.004978
80 0.004955
84 0.004938
90 0.003989
93 0.004986
95 0.003981
100 0.006943
101 0.006985
107 0.007959
108 0.001993
112 0.002999
112 0.002024
90 0.0
81 0.002992
84 0.002959
90 0.002992
99 0.003003
101 0.003036
103 0.001982
106 0.002008
109 0.002019
114 0.003001
118 0.0
120 0.000988
122 0.000994
112 0.003982
89 0.004963
83 0.00502
88 0.004976
92 0.004978
100 0.005987
102 0.006989
105 0.007978
108 0.001994
90 0.007935
99 0.002992
109 0.002009
118 0.002992
126 0.002976
121 0.002969
49 0.001954
24 0.002961
24 0.002995
39 0.002986
49 0.002965
67 0.003024
78 0.005953
83 0.002977
91 0.004976
103 0.003995
109 0.003003
121 0.003023
134 0.002921
138 0.002971
115 0.002991
50 0.00301
26 0.002987
32 0.00299
40 0.003014
58 0.001995
75 0.00102
83 0.000998
91 0.001015
98 0.001011
110 0.000976
123 0.0
129 0.0
142 0.002993
148 0.001017
141 0.00196
78 0.002989
40 0.001951
38 0.002993
51 0.001994
63 0.003026
79 0.005021
94 0.004963
98 0.005983
105 0.004984
114 0.00501
126 0.004005
139 0.004986
144 0.004955
157 0.002984
165 0.003989
169 0.003987
130 0.001999
83 0.003967
58 0.002989
67 0.007974
80 0.003044
94 0.007976
107 0.003011
115 0.00798
122 0.008021
127 0.007978
138 0.007982
147 0.007977
157 0.007963
166 0.004034
171 0.005954
178 0.003004
161 0.00295
118 0.003015
83 0.0
86 0.0
103 0.001036
120 0.001996
129 0.002958
134 0.002026
139 0.002981
143 0.003014
153 0.00298
163 0.002991
168 0.002988
178 0.002976
186 0.002026
188 0.002001
168 0.002992
111 0.002051
88 0.002997
96 0.002992
108 0.004987
126 0.004988
136 0.002996
142 0.005983
145 0.003989
154 0.001982
159 0.002991
170 0.00399
177 0.003958
187 0.001979
194 0.003964
198 0.00299
186 0.002964
124 0.007978
90 0.006959
83 0.006981
90 0.006952
106 0.006984
122 0.0
129 0.005948
132 0.029893
135 0.003999
139 0.002948
155 0.002991
164 0.002992
176 0.00298
186 0.001033
189 0.002019
192 0.002047
177 0.003979
99 0.001993
76 0.003954
77 0.002946
92 0.003195
108 0.002993
119 0.002988
128 0.003992
133 0.003011
140 0.002964
147 0.004002
155 0.002969
163 0.002992
171 0.002025
179 0.002947
189 0.002015
194 0.002974
180 0.002986
104 0.002991
84 0.002995
79 0.002988
83 0.003034
100 0.000894
116 0.00101
122 0.000999
129 0.00097
135 0.00299
141 0.003019
150 0.002922
156 0.002992
164 0.002041
173 0.003024
180 0.002996
187 0.004014
182 0.004022
155 0.003023
88 0.004023
80 0.003988
89 0.006038
103 0.004981
117 0.006951
125 0.003989
131 0.002987
135 0.003005
144 0.00299
153 0.002922
157 0.002953
166 0.001962
171 0.003019
179 0.002972
183 0.005957
173 0.005987
125 0.005987
103 0.005992
104 0.005944
119 0.003026
130 0.005992
140 0.0
143 0.0
146 0.0
151 0.000974
154 0.001973
161 0.001
169 0.001968
172 0.001026
177 0.0
174 0.001994
132 0.001995
96 0.002993
95 0.001987
102 0.002997
119 0.003007
127 0.004007
134 0.002992
135 0.00399
138 0.002995
144 0.001999
151 0.001996
159 0.001965
164 0.003014
171 0.002943
170 0.002978
152 0.0
82 0.0
65 0.002
72 0.000998
87 0.001968
103 0.002018
110 0.002993
114 0.002986
119 0.004986
124 0.004985
134 0.004975
138 0.004985
148 0.004973
158 0.004991
160 0.004966
142 0.00497
76 0.005
44 0.005017
48 0.005961
57 0.006008
75 0.006032
85 0.005018
95 0.006948
99 0.004941
106 0.006973
113 0.003008
126 0.003992
132 0.003027
143 0.002986
153 0.002983
155 0.004034
140 0.006951
70 0.002964
38 0.005938
39 0.005988
47 0.005985
67 0.004977
78 0.004989
91 0.004989
99 0.0
105 0.006
116 0.0
128 0.001995
130 0.002069
133 0.000908
140 0.002954
160 0.00097
160 0.0
134 0.001996
60 0.0
50 0.000995
56 0.000997
67 0.003043
85 0.001948
96 0.002998
106 0.001994
111 0.001969
122 0.0
129 0.000971
140 0.000974
149 0.002013
155 0.0
164 0.000967
173 0.0
177 0.000862
163 0.001973
117 0.0
62 0.001985
64 0.001996
73 0.001957
91 0.001957
108 0.002001
114 0.002033
121 0.001982
126 0.001996
137 0.001996
149 0.002999
154 0.003994
164 0.004031
171 0.00399
179 0.003954
182 0.00399
182 0.004983
147 0.004013
86 0.00602
84 0.005993
96 0.005965
106 0.005975
121 0.005984
129 0.005049
134 0.007978
138 0.001995
147 0.0
152 0.001995
162 0.000978
172 0.0
176 0.000967
184 0.005015
184 0.002979
169 0.002992
110 0.003938
97 0.003
104 0.003961
120 0.002986
129 0.002992
139 0.002022
139 0.002961
144 0.00296
150 0.0
155 0.0
164 0.000957
171 0.0
176 0.000955
182 0.001973
164 0.0
118 0.0
75 0.001977
76 0.001998
88 0.002999
107 0.003039
117 0.003951
123 0.003976
124 0.00495
129 0.003969
137 0.004986
143 0.003977
154 0.004985
164 0.005985
167 0.006981
164 0.006989
112 0.002993
73 0.005942
65 0.002943
76 0.001001
87 0.0
102 0.000999
114 0.001994
117 0.002969
121 0.002932
131 0.00299
140 0.002037
147 0.0
153 0.0
164 0.00095
163 0.000997
132 0.000998
66 0.000962
60 0.001023
70 0.000984
81 0.000968
92 0.001995
104 0.003007
113 0.003024
115 0.002992
125 0.002999
135 0.002958
143 0.003033
155 0.003994
161 0.004003
165 0.003035
120 0.003996
77 0.003996
62 0.002992
67 0.003988
84 0.00498
98 0.006982
106 0.003951
113 0.007969
121 0.005995
126 0.004987
135 0.004987
145 0.00097
151 0.004985
161 0.000944
170 0.000967
163 0.001865
118 0.003023
89 0.018917
81 0.003957
76 0.001975
95 0.003929
116 0.002995
121 0.003005
125 0.0
129 0.001046
139 0.000999
144 0.0
155 0.000998
159 0.002993
167 0.002992
161 0.002992
110 0.003989
76 0.003874
79 0.002993
88 0.004989
106 0.004028
120 0.003957
124 0.005976
127 0.003985
131 0.00502
138 0.003998
148 0.002994
154 0.003938
166 0.003002
172 0.001981
175 0.003015
129 0.001971
84 0.002995
68 0.0
79 0.006983
93 0.0
109 0.005996
122 0.006979
123 0.005943
129 0.00299
131 0.003004
142 0.003027
151 0.002992
158 0.002994
165 0.003
173 0.002961
168 0.003028
91 0.002978
69 0.00399
64 0.003988
76 0.002982
88 0.002984
103 0.002951
109 0.002965
116 0.002029
121 0.002997
130 0.002963
140 0.001968
152 0.001993
158 0.003025
166 0.001961
173 0.0
173 0.000998
105 0.001972
66 0.000995
58 0.002071
72 0.002004
83 0.002034
101 0.00198
108 0.001
116 0.00201
126 0.002008
131 0.001992
144 0.001979
150 0.001998
162 0.001992
171 0.002993
176 0.002037
167 0.002991
100 0.00398
60 0.002995
63 0.005019
74 0.004986
89 0.004981
109 0.006949
115 0.007003
124 0.007962
132 0.001994
141 0.001997
149 0.001979
160 0.002029
165 0.002027
177 0.00298
185 0.002994
176 0.002959
115 0.002975
81 0.003003
85 0.002999
102 0.002971
118 0.002954
131 0.003007
138 0.001012
142 0.0
149 0.002023
156 0.002031
163 0.001967
173 0.00199
180 0.001007
186 0.001935
175 0.00199
134 0.003025
93 0.002994
97 0.002049
108 0.002922
124 0.001993
134 0.001992
139 0.002027
141 0.001946
143 0.003002
153 0.003929
155 0.003961
167 0.003015
174 0.003007
176 0.003933
149 0.00402
95 0.003988
82 0.003023
95 0.00399
106 0.00304
124 0.003991
136 0.00394
136 0.00404
138 0.003989
144 0.006957
153 0.004022
164 0.00401
166 0.001952
169 0.00296
174 0.002996
124 0.001995
76 0.002926
80 0.003
92 0.002962
105 0.007028
119 0.002986
132 0.007937
134 0.007155
136 0.00602
146 0.005985
152 0.005974
164 0.004021
172 0.001961
177 0.002989
172 0.002931
105 0.002965
87 0.00299
81 0.002988
94 0.003012
100 0.0
115 0.0
120 0.000939
128 0.001959
132 0.002991
137 0.002958
147 0.002992
160 0.002981
164 0.003013
173 0.002992
177 0.002992
178 0.002936
133 0.002992
80 0.002028
75 0.003023
84 0.003965
93 0.002988
107 0.003965
117 0.004927
121 0.003991
127 0.004933
128 0.005051
139 0.004047
151 0.004985
160 0.004941
168 0.00299
175 0.006973
183 0.004014
175 0.007013
123 0.001995
88 0.006931
91 0.006016
99 0.006016
115 0.00599
130 0.001004
133 0.005984
139 0.001023
143 0.00501
152 0.001997
162 0.002039
169 0.002078
178 0.002985
188 0.002991
190 0.002962
187 0.002978
164 0.002952
110 0.002979
109 0.003013
119 0.002987
133 0.002002
141 0.001044
150 0.003985
155 0.0
161 0.0
166 0.000998
171 0.001996
176 0.001996
177 0.002031
186 0.002985
188 0.002989
166 0.003022
128 0.003021
94 0.004015
99 0.004014
111 0.002982
129 0.004955
138 0.003995
141 0.004012
150 0.00504
156 0.004985
166 0.002993
181 0.005016
188 0.003994
200 0.002988
210 0.007977
200 0.002969
127 0.007945
102 0.002948
101 0.00797
113 0.007981
125 0.006985
140 0.006979
146 0.006957
148 0.00296
151 0.002991
153 0.001995
162 0.0
170 0.002997
176 0.003968
183 0.001963
181 0.001994
119 0.003042
65 0.005992
60 0.003002
68 0.005949
83 0.003954
99 0.005009
112 0.005993
114 0.005961
119 0.004985
128 0.001938
134 0.00496
142 0.002957
150 0.004943
157 0.002993
154 0.002968
130 0.002956
68 0.002954
67 0.002966
77 0.002957
96 0.002987
106 0.003029
115 0.002987
123 0.003965
130 0.002991
138 0.000996
150 0.0
156 0.0
167 0.00079
172 0.000966
175 0.002029
149 0.003992
97 0.002982
82 0.003994
92 0.002984
105 0.002043
122 0.003991
129 0.003987
134 0.004989
137 0.004022
142 0.006985
152 0.003959
162 0.004007
167 0.003992
177 0.00399
179 0.00299
171 0.002981
112 0.002945
90 0.002966
92 0.002971
109 0.006981
121 0.002992
134 0.007977
135 0.000997
137 0.01496
137 0.003987
137 0.010973
139 0.013963
144 0.003988
148 0.004986
154 0.0
165 0.003989
171 0.001994
175 0.000998
150 0.002994
80 0.00298
108 0.003959
122 0.00299
132 0.003001
134 0.0
139 0.0
149 0.0
155 0.0
163 0.001987
170 0.00084
173 0.001005
162 0.001994
83 0.001943
58 0.001994
61 0.002042
69 0.001981
89 0.004965
103 0.004986
112 0.005994
116 0.004021
122 0.004985
131 0.001964
140 0.002024
152 0.003987
157 0.002966
168 0.002997
167 0.002969
115 0.002996
62 0.006985
55 0.00297
67 0.00698
84 0.00399
94 0.007016
104 0.004984
105 0.004972
110 0.005012
118 0.002987
126 0.004954
139 0.00399
149 0.002992
156 0.002986
159 0.003023
148 0.00299
70 0.002958
