150 0.004029
152 0.004033
154 0.002984
158 0.001997
160 0.0
154 0.0
67 0.000967
41 0.000998
42 0.003002
52 0.003952
59 0.004998
76 0.004993
84 0.005026
89 0.005953
93 0.007978
101 0.00794
116 0.007962
132 0.007877
134 0.007978
144 0.007021
149 0.007976
154 0.006949
159 0.004988
161 0.004985
128 0.005025
53 0.00399
37 0.002997
41 0.003961
48 0.001995
53 0.001989
72 0.000998
82 0.000959
83 0.0
89 0.000998
101 0.000997
111 0.000962
126 0.001995
136 0.00405
140 0.005029
148 0.005014
153 0.005019
160 0.006981
158 0.006975
110 0.007975
44 0.007783
42 0.007021
45 0.005984
53 0.006038
65 0.005987
78 0.004979
86 0.003989
88 0.003988
94 0.00399
109 0.003038
126 0.0
133 0.000998
142 0.0
145 0.000998
151 0.0
157 0.0
161 0.0
158 0.0
117 0.0
46 0.0
48 0.001996
54 0.001995
65 0.002988
85 0.001995
90 0.002022
91 0.001995
95 0.003991
105 0.005006
119 0.006018
131 0.005977
140 0.007015
146 0.007979
149 0.005984
154 0.005414
159 0.005069
165 0.004982
166 0.005029
86 0.004012
51 0.003033
46 0.002027
52 0.002992
55 0.003035
69 0.002992
81 0.001995
84 0.001993
89 0.002992
98 0.001995
111 0.003168
122 0.002004
133 0.002992
141 0.002992
145 0.003038
151 0.00303
159 0.002037
166 0.002041
164 0.001036
97 0.00103
47 0.001101
45 0.0
47 0.000991
55 0.0
65 0.0
80 0.0
87 0.000969
88 0.001025
99 0.000998
114 0.002042
124 0.001994
137 0.002992
147 0.004979
151 0.00499
158 0.004986
165 0.00498
167 0.006021
169 0.006946
139 0.006982
55 0.006984
50 0.007019
55 0.007979
64 0.006981
82 0.006018
93 0.006016
97 0.006017
98 0.005984
104 0.005974
122 0.006027
133 0.005984
147 0.006014
154 0.006016
157 0.003985
161 0.004986
164 0.003989
170 0.003987
174 0.002992
158 0.001994
62 0.002008
46 0.002037
52 0.002025
60 0.001118
66 0.002004
84 0.000992
92 0.000999
94 0.001988
100 0.001988
114 0.002999
124 0.002964
140 0.002994
151 0.002953
155 0.004987
161 0.004987
167 0.006984
172 0.00698
176 0.006982
164 0.007009
83 0.007023
48 0.007021
48 0.006992
55 0.007023
64 0.007022
70 0.007964
88 0.007934
93 0.006984
96 0.006997
103 0.00602
116 0.005024
134 0.00399
148 0.00402
154 0.003974
160 0.004027
164 0.004028
171 0.004003
176 0.005105
178 0.00303
174 0.002024
81 0.001995
53 0.002004
56 0.001987
63 0.00101
75 0.0
90 0.0
101 0.0
105 0.0
109 0.0
116 0.0
133 0.0
143 0.0
155 0.0
163 0.000943
167 0.0
171 0.0
175 0.000986
179 0.000997
179 0.000998
160 0.000998
68 0.000998
59 0.001017
66 0.000997
81 0.001008
93 0.001995
108 0.003058
108 0.002992
110 0.003031
117 0.004025
133 0.00603
143 0.005999
156 0.005984
162 0.006025
165 0.006025
168 0.006941
171 0.005996
172 0.007982
175 0.007989
150 0.007997
85 0.007932
48 0.007016
52 0.005027
60 0.004986
73 0.006026
86 0.004984
93 0.006015
95 0.003992
100 0.003992
114 0.004024
125 0.004029
140 0.001007
152 0.001031
156 0.000998
162 0.001031
164 0.001019
169 0.000998
173 0.001022
173 0.001004
100 0.001008
46 0.001005
45 0.0
52 0.000984
56 0.001004
72 0.000998
88 0.003026
92 0.004985
97 0.004992
107 0.005988
121 0.007979
130 0.006982
146 0.006982
152 0.006949
157 0.00503
163 0.001988
169 0.000998
172 0.001029
176 0.000997
145 0.000999
81 0.001983
50 0.002993
59 0.003023
66 0.002878
82 0.003048
94 0.002992
102 0.003024
103 0.003026
109 0.0029
124 0.003023
133 0.003036
148 0.004024
155 0.004048
159 0.004025
162 0.004033
167 0.003997
170 0.003989
174 0.003841
167 0.004035
75 0.004999
47 0.006028
51 0.005984
61 0.006018
68 0.006018
86 0.006981
93 0.007023
95 0.007025
102 0.006983
115 0.007011
129 0.007012
140 0.007015
151 0.007012
156 0.00698
161 0.007025
166 0.007011
171 0.00699
173 0.006981
169 0.007015
76 0.007948
44 0.007986
42 0.006992
45 0.006982
51 0.004986
66 0.00502
77 0.005016
86 0.005032
93 0.005016
100 0.004987
117 0.002992
130 0.003038
143 0.001227
151 0.002037
156 0.001995
161 0.001996
168 0.000997
173 0.000979
176 0.000997
151 0.001995
67 0.003041
44 0.002995
48 0.002962
51 0.002986
62 0.005028
82 0.004995
89 0.004944
92 0.00503
97 0.005031
112 0.004938
130 0.004979
140 0.004955
152 0.00499
159 0.006012
161 0.007019
168 0.007024
170 0.006945
176 0.006019
175 0.006017
145 0.004991
56 0.005029
50 0.00497
59 0.004973
67 0.005019
87 0.001995
93 0.001975
96 0.002001
100 0.002041
111 0.002034
128 0.001999
138 0.001998
150 0.002035
155 0.002016
159 0.002
164 0.002036
169 0.000999
174 0.001994
177 0.0
159 0.0
61 0.0
43 0.0
46 0.0
53 0.0
61 0.0
75 0.0
87 0.00199
88 0.002997
95 0.003019
110 0.002934
122 0.002892
136 0.003002
145 0.002979
154 0.002997
161 0.002962
164 0.002961
170 0.002994
173 0.002992
175 0.002992
95 0.002994
51 0.002951
42 0.003025
45 0.003993
52 0.005032
61 0.006027
80 0.006936
83 0.006984
88 0.006993
99 0.006024
110 0.006984
127 0.005991
139 0.007014
148 0.005976
157 0.00596
161 0.005983
168 0.004039
175 0.004033
180 0.004026
180 0.00399
129 0.003037
58 0.004
50 0.004024
55 0.004005
64 0.004198
74 0.003998
93 0.003989
98 0.003045
102 0.003996
108 0.00304
121 0.002996
139 0.001994
152 0.0032
158 0.002991
165 0.002026
169 0.00201
173 0.0
179 0.0
182 0.0
167 0.0
85 0.000989
54 0.0
59 0.000997
72 0.0
81 0.0
99 0.0
103 0.000998
103 0.002971
110 0.002992
121 0.002949
136 0.004026
150 0.004983
155 0.004024
163 0.005025
167 0.005057
170 0.006945
176 0.006977
180 0.006975
181 0.006995
122 0.006981
63 0.007013
46 0.007012
53 0.006028
59 0.006026
72 0.005957
82 0.005017
91 0.006124
94 0.006969
101 0.006042
114 0.006987
132 0.005028
141 0.005021
152 0.002974
158 0.003965
163 0.00403
168 0.001999
172 0.002035
178 0.002041
175 0.001996
130 0.001996
48 0.001986
43 0.000997
49 0.0
54 0.00099
63 0.000984
79 0.000998
87 0.000998
89 0.000998
101 0.001008
116 0.002035
130 0.001995
142 0.004024
155 0.00399
158 0.00402
164 0.00404
169 0.006031
175 0.005972
180 0.005999
182 0.006014
130 0.00597
53 0.005984
49 0.006981
57 0.006981
63 0.007027
78 0.006981
94 0.007022
97 0.007021
99 0.007065
108 0.007022
118 0.004992
136 0.005027
150 0.003007
155 0.002994
161 0.00304
164 0.003038
168 0.001999
174 0.001045
178 0.001997
172 0.001022
77 0.000998
50 0.000988
52 0.00104
58 0.000995
69 0.0
84 0.000998
92 0.0
96 0.000997
101 0.0
111 0.000998
128 0.0
138 0.000997
151 0.000949
157 0.000997
164 0.000997
167 0.000997
171 0.000994
177 0.001007
181 0.000998
163 0.002998
62 0.005029
43 0.00503
45 0.004977
49 0.00602
60 0.006843
71 0.006976
83 0.00702
86 0.007023
92 0.007014
106 0.005952
114 0.006949
133 0.006024
144 0.006012
153 0.003986
157 0.00504
164 0.004987
169 0.005038
177 0.005021
180 0.005023
144 0.003988
53 0.002985
43 0.002988
47 0.001979
53 0.002003
59 0.002003
79 0.002009
86 0.002004
90 0.002
101 0.001995
112 0.002017
129 0.002077
139 0.002028
150 0.002027
158 0.002992
162 0.002005
168 0.002992
172 0.002038
179 0.002007
181 0.002035
143 0.002121
57 0.0
52 0.0
56 0.001959
66 0.001994
80 0.001978
90 0.002961
95 0.003029
101 0.004024
109 0.00502
121 0.00698
139 0.006981
147 0.006921
157 0.006989
162 0.007037
167 0.00698
171 0.007979
177 0.007002
182 0.007978
181 0.007007
131 0.007979
46 0.007983
44 0.007958
50 0.007979
56 0.007018
64 0.00798
78 0.007024
85 0.007014
91 0.005956
103 0.005957
112 0.005989
129 0.00601
138 0.006015
149 0.006018
157 0.005982
162 0.005979
169 0.006168
173 0.006016
180 0.005985
180 0.006018
145 0.005019
52 0.00403
43 0.003989
46 0.003984
50 0.003989
63 0.000995
74 0.002031
83 0.000989
85 0.001984
95 0.000999
111 0.0
119 0.0
135 0.0
149 0.000999
153 0.000997
161 0.001995
168 0.002994
173 0.002996
182 0.003974
185 0.005018
154 0.004987
69 0.004986
48 0.004984
52 0.005028
59 0.004983
64 0.004987
80 0.004986
88 0.004988
93 0.005018
102 0.005978
111 0.005965
128 0.006017
138 0.006016
150 0.006016
159 0.006966
164 0.006979
169 0.007012
175 0.007012
180 0.006026
185 0.004977
172 0.006021
91 0.005029
54 0.004981
55 0.004979
63 0.00498
74 0.00502
84 0.005028
95 0.004989
97 0.001993
102 0.003026
117 0.001988
128 0.002993
144 0.002028
155 0.001942
162 0.001997
167 0.000992
171 0.001996
178 0.001062
184 0.0
186 0.0
147 0.000999
67 0.001006
50 0.003027
51 0.003036
57 0.002993
63 0.003006
77 0.002987
89 0.003025
91 0.003026
99 0.003994
107 0.003989
125 0.004023
141 0.004986
150 0.006012
161 0.005985
167 0.006015
171 0.006014
178 0.005985
182 0.006014
188 0.005985
148 0.005921
81 0.005986
48 0.006977
50 0.006976
54 0.007014
59 0.007023
67 0.007018
85 0.006971
91 0.007013
94 0.007012
107 0.006982
117 0.006981
134 0.006974
149 0.004998
155 0.005021
162 0.003125
169 0.000998
175 0.001011
181 0.00102
188 0.000997
189 0.001008
123 0.000998
58 0.001011
55 0.000987
65 0.000998
71 0.000998
88 0.001012
100 0.000998
102 0.000998
108 0.003046
118 0.003039
133 0.00399
147 0.004026
156 0.003989
164 0.00399
170 0.005024
172 0.004986
178 0.004988
186 0.005019
187 0.004977
169 0.006026
102 0.00602
50 0.005973
53 0.007017
58 0.007014
67 0.006995
79 0.007012
88 0.007022
92 0.006805
97 0.007018
110 0.006971
127 0.007016
137 0.007027
150 0.006978
156 0.007997
163 0.006982
169 0.00601
173 0.006982
181 0.005959
186 0.006027
181 0.005958
85 0.004023
40 0.002991
43 0.002994
45 0.002994
48 0.003
64 0.003
75 0.003989
80 0.003026
87 0.003989
97 0.003027
111 0.003994
128 0.003989
136 0.002992
148 0.001016
156 0.000998
163 0.000998
173 0.0
179 0.000991
186 0.0
138 0.0
73 0.0
45 0.0
47 0.0
49 0.0
58 0.0
69 0.0
83 0.0
88 0.0
92 0.0
107 0.0
118 0.0
134 0.0
145 0.0
153 0.002959
158 0.002995
165 0.002992
172 0.002994
181 0.002956
184 0.002969
145 0.002992
58 0.002988
50 0.003013
55 0.002993
60 0.002993
72 0.00299
86 0.002994
88 0.003005
95 0.002992
108 0.003974
118 0.003947
134 0.004025
145 0.005987
153 0.007021
160 0.006982
165 0.007011
172 0.007021
182 0.00701
185 0.007002
177 0.00695
118 0.006983
56 0.007979
46 0.006025
50 0.007986
52 0.006952
65 0.007028
75 0.007035
83 0.00603
87 0.006012
99 0.00597
116 0.005989
126 0.005983
141 0.00598
146 0.006016
156 0.005981
163 0.006981
169 0.005021
178 0.006981
186 0.00499
184 0.00397
92 0.003028
47 0.00199
47 0.002977
48 0.002991
52 0.003025
67 0.002034
83 0.00202
86 0.002
93 0.001031
102 0.001029
119 0.000995
134 0.001995
146 0.001004
154 0.00196
163 0.000997
168 0.000992
178 0.001995
185 0.001984
192 0.002983
187 0.002993
113 0.002993
60 0.002955
59 0.003001
63 0.00399
72 0.005034
88 0.005028
96 0.007028
98 0.006983
108 0.006972
116 0.006995
131 0.005971
148 0.005019
155 0.004026
165 0.000995
171 0.003001
174 0.000994
183 0.002037
190 0.000987
194 0.001965
175 0.00103
106 0.001027
52 0.000966
53 0.0
56 0.001995
63 0.0
72 0.001003
86 0.0
93 0.0
96 0.000997
108 0.001989
125 0.001996
136 0.001995
149 0.00186
156 0.001995
164 0.001995
172 0.002028
178 0.002995
187 0.004018
193 0.003959
174 0.00402
68 0.004036
48 0.004022
46 0.004021
48 0.004979
52 0.005981
67 0.007013
83 0.007001
83 0.006981
90 0.006981
104 0.005987
115 0.005986
133 0.006025
142 0.005983
154 0.00616
162 0.005983
168 0.005976
178 0.006018
186 0.006016
194 0.004971
176 0.005019
88 0.003033
53 0.00399
55 0.002007
57 0.001956
66 0.000999
80 0.001007
90 0.001
94 0.002035
102 0.002003
111 0.001994
128 0.001995
138 0.002012
152 0.002995
161 0.002986
165 0.002993
172 0.002988
181 0.003027
188 0.003061
192 0.005045
119 0.00703
79 0.006988
56 0.006988
61 0.006984
68 0.006982
77 0.006981
91 0.006018
95 0.006988
99 0.006981
104 0.007013
121 0.006963
131 0.006981
146 0.006977
156 0.005019
161 0.006981
167 0.004004
177 0.002992
183 0.002028
191 0.00099
173 0.001036
105 0.001027
53 0.002004
48 0.000994
54 0.001994
59 0.002027
67 0.001996
84 0.002002
87 0.001997
93 0.001996
105 0.00099
116 0.001995
132 0.000986
146 0.0
150 0.0
159 0.0
166 0.0
172 0.0
183 0.001001
189 0.002012
180 0.001993
76 0.001995
50 0.002032
49 0.002032
50 0.001996
55 0.002028
70 0.002032
81 0.001987
87 0.002993
91 0.002955
104 0.004996
118 0.005985
134 0.007847
139 0.007023
152 0.005984
161 0.004997
166 0.006016
176 0.004988
182 0.004987
192 0.002996
182 0.003036
118 0.002026
53 0.0
54 0.000974
56 0.001
62 0.001
77 0.0
88 0.0
92 0.000998
98 0.002994
107 0.003986
125 0.004025
135 0.004034
150 0.003988
158 0.005023
165 0.006024
170 0.006949
178 0.007014
183 0.007979
192 0.007014
191 0.005969
146 0.005984
64 0.006981
60 0.007013
69 0.005996
80 0.005029
91 0.004019
101 0.003982
102 0.004997
106 0.004011
118 0.005029
133 0.003991
147 0.004986
160 0.00502
164 0.005019
170 0.00299
175 0.002042
180 0.003025
189 0.001996
194 0.003022
183 0.001028
78 0.001001
55 0.000995
54 0.001013
59 0.0
64 0.0
77 0.000998
86 0.000996
91 0.000986
98 0.000955
107 0.000964
125 0.000993
141 0.000984
150 0.000999
159 0.001995
163 0.001997
171 0.001994
179 0.001995
185 0.00199
193 0.001996
163 0.002028
73 0.001991
44 0.002027
44 0.001996
46 0.001956
55 0.002993
66 0.003008
79 0.002994
83 0.002993
91 0.002991
107 0.004022
117 0.004038
134 0.004023
142 0.003982
153 0.003962
161 0.006021
168 0.005979
177 0.00598
187 0.006015
190 0.006014
142 0.005983
75 0.005985
44 0.006018
47 0.005985
49 0.005991
52 0.006016
71 0.005951
80 0.00599
86 0.005983
91 0.005982
105 0.005011
122 0.001033
135 0.003
147 0.001994
156 0.002028
160 0.001961
169 0.002055
180 0.0
186 0.0
193 0.0
163 0.0
78 0.001008
56 0.0
60 0.0
65 0.0
76 0.001009
87 0.000997
96 0.000998
100 0.000998
107 0.000996
124 0.000997
134 0.000998
150 0.000985
161 0.000997
165 0.001008
171 0.002956
180 0.003981
186 0.004985
194 0.006983
193 0.007983
154 0.006981
71 0.007942
52 0.006981
57 0.007979
59 0.007014
69 0.007975
81 0.007182
89 0.007939
95 0.007016
106 0.00597
115 0.00598
133 0.006018
149 0.003988
156 0.002997
166 0.001982
173 0.002993
179 0.002013
187 0.00299
195 0.00201
197 0.003042
135 0.001967
70 0.001994
45 0.001995
48 0.002027
50 0.001105
58 0.0
71 0.001003
86 0.0
90 0.0
95 0.0
110 0.0
129 0.002011
139 0.002008
155 0.002014
163 0.001992
172 0.002025
180 0.001994
186 0.001994
195 0.00302
201 0.002963
186 0.002026
75 0.002959
49 0.002967
48 0.003018
53 0.002999
57 0.003006
71 0.002992
87 0.003006
90 0.003047
99 0.002994
108 0.003029
127 0.003025
140 0.002992
155 0.002853
168 0.00302
172 0.003019
180 0.003992
188 0.004041
193 0.004023
200 0.003988
200 0.003989
118 0.00399
62 0.003991
59 0.00399
64 0.003946
72 0.003989
84 0.003992
96 0.003992
99 0.002968
105 0.005021
114 0.004026
134 0.004999
152 0.004997
161 0.004997
171 0.00502
178 0.004991
181 0.004987
188 0.004988
194 0.00502
201 0.004984
193 0.00502
132 0.004987
54 0.005023
49 0.005017
53 0.006019
58 0.005949
71 0.006011
84 0.005984
91 0.005986
95 0.006026
108 0.00598
119 0.006022
137 0.005812
155 0.007019
159 0.007945
170 0.007019
177 0.007961
184 0.005951
193 0.007021
197 0.006952
202 0.00599
153 0.006159
78 0.005953
44 0.005988
47 0.005973
49 0.005988
56 0.006982
72 0.006019
83 0.004986
89 0.004983
96 0.00503
112 0.005022
124 0.004987
144 0.003984
158 0.002994
166 0.002991
174 0.002995
178 0.003133
186 0.002992
194 0.002026
199 0.002037
197 0.000991
125 0.003026
57 0.002034
46 0.003002
50 0.001995
54 0.002992
70 0.002014
83 0.002027
91 0.00203
94 0.002047
106 0.002037
126 0.0
136 0.002031
153 0.001147
161 0.001995
171 0.001008
178 0.001014
183 0.0
191 0.002042
198 0.0
200 0.0
185 0.0
115 0.0
59 0.001
60 0.0
65 0.0
76 0.0
89 0.0
99 0.0
102 0.003017
108 0.001995
125 0.003997
139 0.004024
155 0.005028
164 0.004986
173 0.006017
178 0.006016
184 0.005986
190 0.006985
192 0.007979
197 0.006987
200 0.007977
149 0.007013
54 0.00598
46 0.003985
49 0.003962
56 0.001995
64 0.001992
80 0.00305
88 0.001045
90 0.001036
102 0.0
117 0.000997
131 0.000997
146 0.000998
159 0.002052
164 0.000961
171 0.000997
177 0.000998
184 0.001966
193 0.002002
197 0.001996
151 0.003996
52 0.00405
40 0.003991
41 0.003957
42 0.004002
50 0.003961
70 0.006016
78 0.005986
85 0.005937
94 0.00595
110 0.006987
125 0.006981
141 0.00699
149 0.007969
161 0.007016
166 0.006956
173 0.007011
183 0.003995
189 0.00499
196 0.003997
159 0.002005
84 0.002006
45 0.0
49 0.0
54 0.000997
62 0.001999
80 0.00203
86 0.002994
91 0.002012
95 0.002959
112 0.002994
130 0.002949
140 0.002953
153 0.003025
159 0.004036
165 0.004024
171 0.004023
179 0.004029
186 0.003956
190 0.003987
165 0.003992
59 0.004025
42 0.004024
42 0.004029
45 0.004991
51 0.005026
69 0.00498
78 0.006031
81 0.007023
93 0.006879
104 0.007014
121 0.006993
134 0.007015
146 0.007012
155 0.006974
163 0.007012
168 0.007016
176 0.005976
183 0.00596
192 0.006025
156 0.004995
81 0.006059
39 0.002994
37 0.003004
36 0.002996
42 0.001954
60 0.002012
70 0.002031
77 0.000983
84 0.001992
99 0.002036
114 0.002003
127 0.0
141 0.001995
153 0.0
159 0.0
168 0.0
174 0.0
185 0.0
193 0.0
187 0.0
107 0.0
49 0.0
41 0.0
43 0.0
45 0.0
59 0.0
77 0.002028
82 0.001979
90 0.001995
97 0.002028
116 0.001996
134 0.001015
143 0.002029
155 0.001953
163 0.001996
171 0.001997
180 0.002026
189 0.002007
198 0.001996
201 0.002992
185 0.004024
79 0.006982
55 0.007023
56 0.007979
64 0.006979
70 0.00793
87 0.007082
97 0.006981
99 0.00698
110 0.006986
128 0.007015
140 0.007014
155 0.005982
163 0.004992
172 0.00494
179 0.005983
185 0.003989
191 0.005984
198 0.004972
204 0.004987
197 0.003967
143 0.004997
58 0.004027
52 0.002989
55 0.003988
60 0.002044
77 0.001978
86 0.000973
93 0.001002
99 0.000999
116 0.0
132 0.001019
142 0.001051
158 0.003035
172 0.004948
182 0.006098
187 0.006016
195 0.005983
200 0.005989
205 0.006981
208 0.007977
178 0.005987
77 0.006022
44 0.005982
44 0.00598
45 0.006017
50 0.006016
71 0.004974
86 0.00398
90 0.006017
100 0.001997
118 0.000961
130 0.0
147 0.0
164 0.0
174 0.0
182 0.001031
190 0.000998
194 0.001995
202 0.002992
207 0.002993
207 0.00298
150 0.002987
64 0.002985
47 0.002992
50 0.002956
53 0.00296
67 0.004021
80 0.004023
94 0.003951
101 0.003989
108 0.004035
128 0.004022
142 0.004021
160 0.003959
174 0.004021
180 0.00399
188 0.003988
194 0.003988
199 0.00404
205 0.003876
207 0.004022
195 0.005002
107 0.006015
57 0.006977
56 0.007005
65 0.007011
70 0.007032
91 0.006982
99 0.006981
104 0.007038
113 0.006977
122 0.005983
143 0.004986
161 0.005017
169 0.005029
179 0.002988
186 0.001993
190 0.000992
196 0.001995
200 0.000996
204 0.0
205 0.0
179 0.0
67 0.000998
49 0.002992
51 0.002998
57 0.002992
72 0.003
83 0.002992
96 0.003996
104 0.005978
113 0.005992
134 0.00597
146 0.006014
164 0.006018
175 0.005957
180 0.004985
184 0.007011
191 0.006019
194 0.005968
199 0.004021
201 0.005989
189 0.003992
94 0.005984
44 0.003993
41 0.004979
45 0.005021
49 0.005028
69 0.004987
81 0.005027
90 0.004988
101 0.004025
114 0.004987
135 0.000998
155 0.001027
164 0.001015
173 0.0
180 0.002977
184 0.002959
190 0.002996
196 0.002956
200 0.002958
200 0.003042
182 0.002992
71 0.002985
49 0.003046
51 0.003058
61 0.00304
75 0.002956
91 0.002982
99 0.002992
106 0.003035
116 0.005006
137 0.004926
149 0.005018
164 0.005983
172 0.006983
177 0.007979
183 0.006986
187 0.007966
191 0.007011
196 0.006987
197 0.004976
180 0.003028
89 0.004005
47 0.001999
48 0.003996
56 0.004035
64 0.003989
84 0.002998
93 0.0
95 0.001029
108 0.0
120 0.001
136 0.0
152 0.002026
161 0.003023
170 0.002997
176 0.003982
180 0.004984
186 0.005025
192 0.005018
193 0.005021
159 0.005965
50 0.006991
37 0.005983
34 0.004988
36 0.005984
45 0.005025
61 0.00599
75 0.003989
82 0.00402
93 0.002989
107 0.000997
124 0.000998
143 0.0
151 0.002027
163 0.0
170 0.0
174 0.0
182 0.0
187 0.0
192 0.0
180 0.0
117 0.0
38 0.0
34 0.0
38 0.0
45 0.001008
65 0.003992
75 0.004023
83 0.005991
92 0.006018
105 0.006947
123 0.007976
140 0.004989
148 0.004986
162 0.00399
167 0.004977
173 0.002994
181 0.003175
185 0.002994
191 0.003025
183 0.002044
126 0.002017
46 0.001991
43 0.001996
50 0.000897
57 0.0
68 0.0
85 0.0
91 0.001033
96 0.000997
112 0.000998
128 0.001028
143 0.000997
156 0.001029
164 0.001037
171 0.000997
178 0.000963
181 0.002012
188 0.003994
194 0.005973
196 0.005987
137 0.006989
43 0.006988
37 0.006988
40 0.006981
42 0.007008
56 0.006984
76 0.00695
81 0.006984
88 0.006951
95 0.002046
113 0.006965
135 0.006982
145 0.00698
160 0.007005
168 0.007114
172 0.006982
178 0.006989
183 0.007011
191 0.006945
196 0.005983
190 0.007012
82 0.005017
37 0.003985
36 0.004976
38 0.00399
42 0.003988
62 0.004019
78 0.00603
84 0.004004
92 0.005017
105 0.003985
120 0.005025
141 0.003997
152 0.003004
164 0.002992
172 0.000996
177 0.003021
185 0.000997
189 0.003023
195 0.000996
195 0.000998
158 0.001992
55 0.00101
46 0.000955
50 0.001004
59 0.0
65 0.000968
84 0.001995
91 0.001907
94 0.002013
108 0.001997
128 0.002028
140 0.002031
156 0.002033
162 0.001995
171 0.002954
176 0.002034
180 0.004036
186 0.006029
192 0.007022
195 0.007928
173 0.007015
60 0.006955
38 0.007108
37 0.004987
40 0.004962
46 0.004969
65 0.004944
74 0.004987
81 0.004983
95 0.004986
108 0.003988
126 0.00198
140 0.004027
152 0.003
163 0.00399
168 0.002988
175 0.002069
184 0.002043
188 0.0
194 0.002035
183 0.000998
89 0.000902
38 0.001015
31 0.001997
30 0.000997
35 0.002014
46 0.00201
67 0.002027
76 0.002008
83 0.002988
98 0.002991
118 0.002992
129 0.002994
147 0.002991
155 0.002958
166 0.002992
175 0.002961
181 0.002956
189 0.00399
196 0.00399
197 0.004019
133 0.003983
66 0.00402
39 0.003991
41 0.00397
44 0.004024
58 0.004022
71 0.004019
84 0.004017
92 0.004023
100 0.003958
120 0.005984
132 0.007014
148 0.005986
161 0.005982
167 0.005983
175 0.003991
182 0.004991
187 0.001986
193 0.004001
198 0.004023
197 0.004019
108 0.003991
47 0.001995
47 0.003028
53 0.0
58 0.000999
77 0.0
87 0.0
92 0.0
100 0.000995
118 0.001995
131 0.001855
149 0.001961
163 0.002026
169 0.001996
177 0.002939
182 0.002951
188 0.002988
193 0.003007
200 0.002993
201 0.003029
158 0.002025
65 0.002995
40 0.002982
42 0.003009
44 0.002995
52 0.003038
72 0.003005
85 0.004025
87 0.003989
101 0.004028
122 0.003963
133 0.004971
153 0.005017
161 0.00502
173 0.004986
180 0.006981
185 0.00698
191 0.006981
195 0.007218
201 0.006031
197 0.006991
95 0.005987
50 0.005019
39 0.00499
43 0.002993
47 0.002996
66 0.001991
76 0.002031
88 0.002033
98 0.002012
109 0.002013
130 0.001993
149 0.002023
160 0.001991
172 0.001999
176 0.000997
182 0.001039
190 0.001021
194 0.000843
200 0.000997
202 0.000998
179 0.000997
70 0.002036
52 0.000997
57 0.002014
64 0.002994
77 0.004045
94 0.004008
104 0.004024
107 0.004022
120 0.00396
133 0.003829
154 0.00404
169 0.003996
175 0.004004
183 0.003946
188 0.005022
190 0.005017
196 0.005952
200 0.004952
202 0.006039
186 0.007953
116 0.005942
52 0.006014
45 0.005995
49 0.005998
58 0.005034
79 0.002987
89 0.005016
98 0.003026
104 0.005019
122 0.00299
143 0.001951
154 0.002005
168 0.000984
177 0.001994
181 0.0
186 0.0
192 0.000997
194 0.0
198 0.0
199 0.0
149 0.0
46 0.0
36 0.001005
38 0.000998
43 0.001991
56 0.001962
72 0.004027
84 0.003993
91 0.003994
105 0.005036
119 0.006029
140 0.006016
158 0.005984
165 0.005978
173 0.006014
177 0.006015
184 0.005987
190 0.005985
195 0.005984
197 0.005984
178 0.006986
106 0.005985
44 0.00698
39 0.005013
43 0.006981
54 0.006971
67 0.006955
87 0.006982
95 0.005019
102 0.006015
119 0.002992
141 0.002004
151 0.001001
165 0.002
170 0.001988
177 0.002006
183 0.001998
187 0.000962
192 0.002
196 0.001031
196 0.0
143 0.001033
60 0.0
47 0.000997
56 0.000992
63 0.001027
84 0.003033
96 0.003994
100 0.003011
107 0.002961
124 0.002992
136 0.002994
154 0.004
162 0.003988
171 0.005025
177 0.004985
181 0.004979
186 0.005029
189 0.005017
193 0.00502
194 0.004992
167 0.004986
56 0.005027
37 0.00499
41 0.005966
47 0.00602
60 0.008022
78 0.007003
87 0.005021
94 0.002995
103 0.002983
123 0.001995
144 0.0
153 0.001095
164 0.0
173 0.002017
176 0.002
182 0.000998
185 0.002001
190 0.001995
193 0.001956
188 0.001997
84 0.001995
41 0.001888
34 0.002959
40 0.003028
46 0.003046
66 0.003024
80 0.002997
87 0.002995
98 0.003036
112 0.002994
130 0.002987
149 0.003042
157 0.003026
168 0.003956
174 0.003994
180 0.003989
186 0.00399
190 0.004032
194 0.004008
194 0.004982
168 0.005984
58 0.005979
42 0.005988
48 0.005987
57 0.006973
67 0.00595
88 0.004987
96 0.006988
99 0.004977
111 0.006015
131 0.005004
142 0.004001
157 0.003989
165 0.004106
172 0.004024
177 0.001996
181 0.003999
187 0.002028
191 0.003004
193 0.00203
161 0.002001
86 0.001995
38 0.001134
43 0.0
48 0.001001
66 0.0
83 0.001997
88 0.001984
94 0.001026
102 0.0
122 0.0
138 0.0
152 0.0
161 0.002025
170 0.001961
173 0.001999
180 0.001995
184 0.001996
190 0.002022
193 0.002863
185 0.002993
74 0.003016
30 0.004028
30 0.004985
34 0.004984
40 0.004985
61 0.006018
76 0.006981
83 0.006968
94 0.006974
109 0.006978
124 0.006954
143 0.00797
154 0.007015
162 0.005984
170 0.005984
175 0.005986
182 0.006027
188 0.004994
190 0.005997
188 0.004026
145 0.006017
42 0.003988
32 0.004107
36 0.003995
43 0.003996
64 0.002958
76 0.002998
86 0.001995
93 0.00199
107 0.002001
125 0.0
145 0.0
154 0.0
166 0.0
171 0.0
177 0.0
183 0.0
187 0.000992
191 0.0
193 0.000998
175 0.002042
64 0.005041
42 0.005988
48 0.005985
60 0.006021
73 0.006018
92 0.005983
97 0.006023
100 0.006014
116 0.006017
129 0.005985
148 0.005984
160 0.006009
168 0.006987
173 0.007961
178 0.007014
182 0.005984
187 0.006006
192 0.003993
194 0.006007
163 0.003996
86 0.006073
35 0.001993
37 0.001993
42 0.002014
56 0.00199
76 0.001998
84 0.001996
92 0.001996
100 0.001995
116 0.000997
137 0.00103
148 0.0
161 0.001994
170 0.002003
173 0.001998
179 0.003024
186 0.003983
190 0.004988
194 0.003958
155 0.005024
74 0.005038
31 0.004988
31 0.00499
34 0.006018
44 0.006959
65 0.007012
77 0.004987
84 0.004987
91 0.003995
110 0.002987
133 0.003001
144 0.002973
158 0.002988
167 0.003023
173 0.002028
179 0.001995
183 0.001996
189 0.002036
194 0.000979
193 0.002027
129 0.0
51 0.000995
39 0.00199
45 0.002031
55 0.002007
66 0.003985
86 0.003984
92 0.005046
98 0.00605
115 0.005833
128 0.005992
144 0.006981
160 0.006015
168 0.00602
175 0.006983
178 0.007979
184 0.004989
188 0.005984
193 0.00602
196 0.00615
184 0.006018
122 0.005983
48 0.005954
52 0.003027
58 0.005984
76 0.001996
90 0.003971
100 0.001996
105 0.002031
113 0.002036
134 0.000985
152 0.00103
160 0.001969
171 0.001099
175 0.001998
181 0.001992
185 0.003012
189 0.0
194 0.001991
197 0.00199
193 0.001997
104 0.002002
50 0.002005
36 0.002045
43 0.0
50 0.002028
69 0.0
79 0.0
87 0.001006
97 0.0
106 0.000967
128 0.000999
147 0.001031
155 0.000955
166 0.000994
171 0.00099
177 0.000998
183 0.001998
187 0.00296
192 0.004023
192 0.005967
151 0.005985
58 0.006017
34 0.006026
38 0.005945
45 0.005987
54 0.006985
75 0.007948
86 0.004986
90 0.00698
103 0.004979
122 0.004955
135 0.003954
152 0.002993
164 0.002991
169 0.002964
175 0.001961
179 0.001983
185 0.002991
189 0.005019
193 0.001962
187 0.00398
112 0.002009
49 0.003989
47 0.004042
53 0.003027
67 0.001944
86 0.000959
92 0.002029
97 0.0
104 0.002
122 0.0
138 0.0
148 0.0
162 0.0
169 0.000999
174 0.001995
179 0.002995
185 0.004007
189 0.004032
193 0.002984
190 0.003989
99 0.003785
36 0.004023
34 0.004026
40 0.005975
50 0.006018
62 0.006977
76 0.007016
85 0.006986
90 0.006991
106 0.004992
118 0.006979
139 0.005024
154 0.004981
161 0.004984
169 0.004961
176 0.003981
181 0.001998
188 0.001
190 0.004004
190 0.000966
127 0.001993
36 0.002029
29 0.002029
30 0.001999
31 0.000998
46 0.0
68 0.0
74 0.0
81 0.002027
95 0.001995
106 0.002041
126 0.001964
136 0.001991
151 0.002993
161 0.001855
166 0.002967
174 0.00301
179 0.003011
186 0.002993
190 0.003943
182 0.004949
73 0.00502
31 0.005869
31 0.005983
36 0.005985
42 0.007013
58 0.004987
74 0.007013
82 0.00598
89 0.005968
106 0.005985
118 0.00599
138 0.005998
154 0.003025
162 0.00502
171 0.002992
176 0.004985
182 0.002992
187 0.003075
191 0.002993
194 0.002995
183 0.005027
92 0.001992
46 0.002988
45 0.001992
54 0.002993
69 0.002977
81 0.002992
93 0.003023
99 0.0
106 0.00203
126 0.0
140 0.001991
156 0.0
164 8.6e-05
172 0.000997
178 0.000998
184 0.000998
187 0.000997
192 0.001028
193 0.001994
193 0.001995
119 0.002035
55 0.001029
34 0.001999
37 0.003042
42 0.001995
60 0.001007
73 0.003974
87 0.003991
93 0.006958
106 0.006956
124 0.007028
144 0.007016
153 0.006998
166 0.007973
173 0.005987
178 0.007849
183 0.00599
188 0.007979
192 0.005989
194 0.005984
191 0.004014
98 0.002994
35 0.002993
33 0.002992
36 0.002992
42 0.002047
62 0.001991
80 0.00399
89 0.00202
97 0.003988
116 0.002992
128 0.002035
147 0.0
162 0.00098
167 0.0
175 0.0
179 0.0
185 0.0
190 0.0
192 0.0
194 0.001001
182 0.001045
75 0.00092
45 0.000998
49 0.000997
58 0.0
77 0.002027
90 0.003005
99 0.003008
105 0.003953
116 0.004988
134 0.005041
149 0.005091
161 0.004987
170 0.005016
173 0.005017
178 0.005985
181 0.006019
187 0.00602
190 0.006018
193 0.006015
164 0.006013
67 0.005986
40 0.004028
39 0.004006
45 0.003023
53 0.003023
74 0.002992
84 0.004021
90 0.002024
102 0.003972
117 0.001992
134 0.003989
151 0.004043
158 0.003985
167 0.003989
171 0.004023
178 0.003987
183 0.002002
188 0.001996
191 0.0
152 0.001006
72 0.001017
28 0.000997
28 0.000997
28 0.0
40 0.0
50 0.000998
71 0.002993
79 0.003993
86 0.003994
104 0.003999
121 0.006005
136 0.006004
149 0.005985
161 0.006053
167 0.006017
174 0.006121
180 0.006051
187 0.006009
191 0.005979
188 0.00602
88 0.005974
40 0.006984
30 0.00698
31 0.006979
33 0.003959
51 0.003989
74 0.004954
80 0.004023
89 0.004003
104 0.004986
120 0.001995
136 0.001996
153 0.002025
161 0.002026
171 0.0
176 0.0
181 0.001001
186 0.002001
191 0.002961
195 0.002831
164 0.003957
89 0.004957
44 0.004992
48 0.004986
53 0.004976
69 0.006017
88 0.005992
90 0.005987
96 0.005983
111 0.004983
124 0.004995
145 0.003998
157 0.004987
165 0.003011
172 0.002993
178 0.001
181 0.000991
187 0.002039
192 0.001974
195 0.002002
176 0.001996
60 0.004025
37 0.003959
37 0.004983
40 0.005981
51 0.00598
73 0.005994
82 0.005983
86 0.005973
99 0.004992
110 0.003991
131 0.003037
145 0.00599
158 0.003992
166 0.004023
175 0.002993
180 0.001997
186 0.00203
189 0.002028
193 0.0
185 0.0
98 0.0
38 0.0
30 0.001952
32 0.001978
36 0.002994
57 0.003985
70 0.004007
80 0.003983
86 0.003955
104 0.003992
123 0.003985
137 0.003988
154 0.003989
167 0.003871
172 0.004024
179 0.003999
183 0.003989
190 0.003956
195 0.005952
197 0.005993
155 0.007947
60 0.005986
38 0.006018
37 0.005991
42 0.003993
50 0.005984
74 0.003993
84 0.005993
92 0.003991
106 0.003003
119 0.001993
140 0.00199
158 0.001985
165 0.001995
175 0.001949
177 0.002003
184 0.003026
191 0.002989
194 0.002994
199 0.001993
186 0.0
121 0.002029
48 0.0
47 0.003015
56 0.0
73 0.0
86 0.0
96 0.000998
102 0.0
109 0.00203
128 0.002003
140 0.00201
158 0.001995
170 0.001995
174 0.00299
179 0.004016
185 0.005986
189 0.00598
193 0.007007
196 0.006857
194 0.006981
120 0.006952
58 0.00698
39 0.007978
43 0.007974
49 0.007945
63 0.007981
82 0.005968
91 0.007975
98 0.006947
110 0.008001
128 0.005977
147 0.00598
157 0.005986
169 0.004983
176 0.002994
180 0.002
186 0.001997
190 0.002009
193 0.0
192 0.002026
153 0.0
57 0.001034
33 0.000957
35 0.001965
40 0.002013
52 0.001005
73 0.002024
84 0.002992
93 0.003001
103 0.002972
123 0.00386
144 0.006018
151 0.006981
166 0.00698
176 0.004991
179 0.004989
186 0.004992
190 0.004992
194 0.004018
197 0.007021
188 0.004986
106 0.005983
45 0.004027
44 0.004018
52 0.002993
66 0.0
80 0.0
93 0.0
99 0.0
105 0.0
124 0.0
136 0.0
155 0.0
168 0.0
174 0.002963
179 0.002993
184 0.002996
188 0.002985
193 0.003033
194 0.003015
175 0.003025
63 0.00301
43 0.002984
46 0.002993
53 0.003025
68 0.002987
85 0.003025
93 0.002993
97 0.006032
112 0.004993
125 0.005018
145 0.006022
155 0.006019
166 0.006027
173 0.005977
176 0.006981
182 0.00399
188 0.002037
190 0.002026
192 0.002997
138 0.002961
63 0.002026
33 0.00301
35 0.001991
40 0.002994
51 0.003991
65 0.003993
80 0.003989
89 0.002035
97 0.004019
118 0.001996
130 0.003993
149 0.001992
164 0.001993
168 0.0
176 0.000964
182 0.001
187 0.00097
192 0.0
194 0.0
154 0.00099
58 0.000995
38 0.001991
37 0.002027
41 0.001961
50 0.001994
74 0.002023
85 0.001823
93 0.003034
104 0.002958
119 0.003036
137 0.003992
155 0.004053
163 0.004006
173 0.004025
177 0.004022
185 0.005024
190 0.004986
194 0.005025
197 0.004879
166 0.005988
113 0.006983
43 0.004008
46 0.004986
52 0.004024
67 0.003995
80 0.003003
94 0.001995
98 0.004029
107 0.002001
124 0.00399
145 0.002992
154 0.00203
167 0.002029
174 0.0
177 0.00203
184 0.0
187 0.002031
193 0.001001
193 0.001
189 0.001996
87 0.001995
40 0.002029
42 0.00203
51 0.001992
57 0.002026
81 0.002001
91 0.002031
93 0.001995
109 0.002995
126 0.004046
143 0.005984
157 0.005992
167 0.006976
172 0.005984
178 0.007013
182 0.007013
188 0.006982
192 0.006981
195 0.006976
154 0.006978
56 0.005983
33 0.003987
32 0.004995
33 0.004022
43 0.004985
67 0.002991
77 0.002012
86 0.002018
98 0.000997
114 0.0
131 0.002032
151 0.002
158 0.0
170 0.0
176 0.0
182 0.000997
188 0.00096
192 0.001998
194 0.000998
179 0.002032
105 0.00203
35 0.003026
35 0.003023
38 0.002992
48 0.004988
67 0.00601
80 0.005943
90 0.003988
102 0.003978
114 0.003987
136 0.003991
147 0.003993
162 0.004151
171 0.005999
177 0.003936
183 0.005984
186 0.006015
191 0.005968
196 0.003988
196 0.006199
140 0.003992
48 0.003989
44 0.003022
51 0.003989
57 0.003988
78 0.003996
94 0.001034
96 0.001998
106 0.001014
123 0.003023
140 0.001984
155 0.002027
167 0.0
172 0.0
179 0.000997
184 0.001996
188 0.002029
192 0.002991
195 0.003953
195 0.004987
115 0.006981
46 0.005984
37 0.006985
42 0.005952
46 0.007978
64 0.004971
85 0.004977
92 0.004987
103 0.004991
113 0.004977
134 0.004987
153 0.004996
161 0.004984
171 0.005062
177 0.004982
182 0.005022
187 0.007011
193 0.004988
195 0.007013
196 0.005996
172 0.007013
53 0.006967
34 0.00696
32 0.006981
36 0.003981
45 0.006014
71 0.002986
86 0.001982
91 0.002992
107 0.001992
119 0.002993
142 0.001963
155 0.001996
166 0.000952
173 0.000971
181 0.000998
186 0.000998
191 0.001966
194 0.002041
197 0.001995
188 0.003952
76 0.005019
44 0.005018
41 0.005035
43 0.005025
55 0.004988
80 0.006831
90 0.006983
99 0.00598
112 0.005017
123 0.004987
144 0.004978
160 0.005041
168 0.003977
177 0.003976
182 0.002992
189 0.002995
191 0.00397
196 0.001995
199 0.00399
190 0.002978
129 0.002034
50 0.002173
51 0.001009
55 0.0
67 0.001004
89 0.001996
99 0.002031
104 0.002
110 0.001964
129 0.002992
150 0.001995
158 0.002032
170 0.002957
175 0.002963
181 0.00399
186 0.004976
192 0.005004
196 0.004987
199 0.004999
190 0.005019
78 0.005952
39 0.007013
36 0.006982
40 0.007014
51 0.004995
66 0.005977
87 0.004989
91 0.005984
102 0.003958
122 0.003988
134 0.00399
153 0.003987
162 0.00404
171 0.003982
179 0.003988
184 0.003991
189 0.002005
192 0.003989
196 0.003009
196 0.002994
119 0.002991
55 0.00194
33 0.002033
35 0.002033
40 0.002
57 0.000998
77 0.002044
87 0.002987
97 0.002994
107 0.002989
129 0.002992
149 0.002989
158 0.002965
169 0.002996
174 0.003978
181 0.004986
187 0.004985
190 0.004987
195 0.00498
194 0.005813
166 0.006017
58 0.005984
43 0.006016
49 0.005979
58 0.006014
76 0.005987
93 0.007022
103 0.007975
108 0.007017
123 0.006981
142 0.004112
153 0.004022
163 0.0
172 0.0
175 0.002002
181 0.0
185 0.0
190 0.0
194 0.0
194 0.000968
165 0.001994
68 0.000997
40 0.002033
42 0.003008
46 0.002962
65 0.003052
79 0.002988
93 0.002028
104 0.0
115 0.0
136 0.0
148 0.0
159 0.0
166 0.000998
173 0.001972
178 0.001996
183 0.002039
186 0.00203
191 0.002029
188 0.001989
138 0.002
37 0.002028
27 0.002993
27 0.002981
33 0.003008
47 0.003013
74 0.00403
84 0.004984
93 0.004034
107 0.005021
125 0.005015
142 0.004986
157 0.005017
163 0.004984
175 0.005018
178 0.006972
181 0.006983
186 0.005982
189 0.007971
190 0.006014
129 0.005984
59 0.005983
33 0.004991
34 0.004986
38 0.003994
59 0.002995
79 0.004987
92 0.002992
101 0.004984
116 0.002982
134 0.006033
152 0.001985
159 0.001989
169 0.002031
177 0.0
180 0.0
186 0.0
191 0.001003
194 0.002012
193 0.002947
106 0.003958
52 0.004942
41 0.005025
48 0.006977
56 0.006947
75 0.006982
89 0.006981
101 0.006869
112 0.007011
125 0.005982
140 0.007014
155 0.006975
162 0.00704
170 0.006975
176 0.006981
180 0.005984
186 0.002996
189 0.004024
192 0.001991
186 0.0
125 0.0
39 0.0
34 0.0
36 0.0
47 0.0
64 0.000967
87 0.0
95 0.001993
106 0.0
122 0.002025
137 0.000883
152 0.002032
163 0.002029
168 0.002025
175 0.00204
178 0.002032
183 0.001987
188 0.0
190 0.000998
190 0.00297
115 0.002993
35 0.005984
33 0.006981
35 0.006016
40 0.008031
57 0.00595
83 0.006942
93 0.005984
104 0.005983
123 0.005987
137 0.005975
154 0.007977
160 0.005988
169 0.007972
175 0.007979
178 0.007989
183 0.007977
186 0.007971
190 0.007981
191 0.003029
182 0.005984
74 0.002986
45 0.002993
49 0.003031
59 0.00301
83 0.0
96 0.0
107 0.000992
116 0.0
126 0.002002
146 0.003027
159 0.004977
164 0.004979
171 0.004978
175 0.004976
178 0.004991
183 0.006021
186 0.006
189 0.006016
189 0.005992
163 0.005968
54 0.006017
38 0.006021
41 0.006017
50 0.005974
65 0.006019
91 0.005996
100 0.00698
111 0.005984
130 0.006023
136 0.004987
152 0.004953
162 0.004956
166 0.001996
172 0.002948
177 0.004987
180 0.003004
183 0.002992
187 0.002043
187 0.002041
165 0.002031
69 0.000998
36 0.000997
37 0.001998
42 0.002992
50 0.003014
78 0.002994
91 0.002994
104 0.002995
120 0.003057
133 0.003026
149 0.002988
155 0.002996
164 0.004991
171 0.004987
173 0.00499
179 0.004982
182 0.005989
185 0.005972
188 0.007978
187 0.006983
159 0.005982
59 0.005984
48 0.001995
52 0.003989
66 0.001998
94 0.002017
108 0.0
118 0.00199
129 0.000994
140 0.0
153 0.0
158 0.0
167 0.0
173 0.0
176 0.0
179 0.001956
183 0.00296
185 0.003033
188 0.003002
186 0.002995
135 0.003
63 0.004956
53 0.004985
63 0.004982
82 0.005025
99 0.004986
116 0.006022
123 0.006015
134 0.005988
147 0.005982
154 0.006978
160 0.005005
165 0.004986
170 0.004987
174 0.004951
176 0.005977
180 0.003994
182 0.003001
185 0.003013
184 0.002991
145 0.003025
76 0.003035
43 0.002991
49 0.002029
54 0.002991
78 0.0
99 0.0
108 0.0
119 0.0
129 0.0
143 0.0
153 0.00101
159 0.002029
165 0.003008
170 0.002987
172 0.002964
176 0.002992
179 0.004988
180 0.00599
178 0.005997
155 0.005984
56 0.005975
43 0.007977
45 0.005987
56 0.007978
76 0.007978
97 0.00799
111 0.007978
122 0.007938
135 0.007989
144 0.004986
152 0.006985
159 0.004987
165 0.004995
167 0.004984
172 0.004982
175 0.003989
178 0.00297
180 0.003955
180 0.003013
157 0.001985
79 0.002993
57 0.002012
63 0.003034
80 0.002032
97 0.002027
116 0.002031
123 0.001997
132 0.0
140 0.0
147 0.0
154 0.0
161 0.000997
165 0.001995
169 0.001991
171 0.001996
174 0.001996
177 0.002992
177 0.00399
174 0.00399
93 0.004026
50 0.003988
43 0.005985
51 0.005987
66 0.006975
86 0.007024
102 0.006947
111 0.006981
124 0.007994
128 0.007021
141 0.00695
149 0.004994
155 0.005987
159 0.00296
165 0.00301
166 0.003185
171 0.002949
173 0.00296
175 0.002002
128 0.003001
59 0.003149
28 0.002993
29 0.001977
34 0.002027
50 0.002028
75 0.0
91 0.002012
104 0.0
115 0.001996
131 0.00303
141 0.002992
149 0.002993
156 0.002996
162 0.003031
165 0.003029
170 0.003955
172 0.002981
175 0.003025
173 0.004988
135 0.007021
40 0.006974
31 0.004991
33 0.004984
43 0.004987
68 0.003992
85 0.003986
99 0.004982
110 0.005018
119 0.004023
136 0.004023
144 0.004026
154 0.003022
160 0.0
165 0.002029
169 0.000951
174 0.0
177 0.0
180 0.0
177 0.000998
133 0.000998
47 0.003007
46 0.003023
51 0.004041
67 0.002998
84 0.004003
102 0.005002
112 0.004972
121 0.004986
136 0.004989
145 0.005888
153 0.005985
158 0.005992
163 0.005936
168 0.007029
173 0.007985
175 0.007942
178 0.007978
181 0.004987
175 0.006981
79 0.001991
35 0.002988
36 0.0
43 0.001014
64 0.0
80 0.0
97 0.000963
104 0.001994
119 0.0
132 0.001986
141 0.001002
151 0.000997
159 0.001993
163 0.001998
168 0.003991
172 0.003991
176 0.003955
179 0.003969
179 0.004001
154 0.004033
51 0.005983
37 0.006018
39 0.005983
48 0.005971
57 0.004988
87 0.004987
106 0.004993
114 0.005004
129 0.004987
137 0.004992
147 0.004984
155 0.007021
161 0.004987
164 0.006984
169 0.003986
173 0.007015
178 0.007016
181 0.007017
182 0.003997
150 0.000962
86 0.002043
53 0.000967
59 0.0
67 0.000996
93 0.0
111 0.0
119 0.001958
130 0.002992
142 0.003977
148 0.005991
157 0.005988
163 0.005984
166 0.005984
170 0.005981
174 0.005983
177 0.005988
179 0.006015
183 0.005985
180 0.007013
151 0.00698
67 0.006947
60 0.006997
65 0.006952
84 0.006978
104 0.006974
117 0.007018
126 0.00399
132 0.006983
142 0.00398
150 0.001994
155 0.001996
161 0.001994
166 0.001994
170 0.001992
172 0.002993
176 0.002027
178 0.001995
180 0.001995
174 0.001994
88 0.002027
47 0.000997
47 0.001993
54 0.0
73 0.0
89 0.0
109 0.0
117 0.0
128 0.0
140 0.0
145 0.000815
153 0.000998
159 0.000995
163 0.001003
169 0.000948
172 0.001015
175 0.001043
177 0.001992
177 0.001
142 0.000998
82 0.000997
52 0.001032
57 0.001995
66 0.001995
85 0.002032
106 0.002001
117 0.002045
129 0.001853
135 0.001995
145 0.001995
152 0.001996
155 0.001995
160 0.001993
163 0.002031
168 0.003973
172 0.004022
175 0.004988
177 0.004956
173 0.005017
137 0.005988
74 0.006982
67 0.006941
78 0.006981
93 0.006982
107 0.006953
121 0.006947
129 0.007976
133 0.006982
142 0.007016
145 0.007015
153 0.007011
157 0.004005
160 0.00399
165 0.003994
168 0.002991
171 0.002992
174 0.003022
174 0.003022
166 0.0
101 0.002027
57 0.002031
59 0.002026
68 0.003028
81 0.003025
103 0.002031
112 0.002001
120 0.003943
129 0.004993
138 0.00596
143 0.00695
147 0.007977
154 0.005997
158 0.007948
162 0.005986
167 0.004986
168 0.004955
170 0.005017
170 0.00498
147 0.003987
63 0.004987
50 0.004985
53 0.00499
64 0.005023
85 0.00299
99 0.005035
111 0.002991
120 0.004995
130 0.004021
138 0.002992
144 0.002991
151 0.000962
154 0.002989
159 0.0
164 0.0
166 0.0
170 0.0
172 0.000998
171 0.002959
136 0.003991
69 0.004976
64 0.004993
74 0.004982
84 0.004955
105 0.004983
116 0.004986
125 0.005
132 0.005019
139 0.004986
147 0.004987
153 0.00602
155 0.006018
160 0.006985
163 0.004988
167 0.006017
170 0.003988
173 0.003011
174 0.002991
168 0.002002
113 0.002027
88 0.002992
91 0.002992
99 0.001994
114 0.000957
121 0.002992
129 0.002997
134 0.00299
139 0.0
144 0.002024
151 0.001993
153 0.001998
157 0.003021
161 0.0
164 0.003024
166 0.0
168 0.0
170 0.00101
168 0.002992
159 0.002993
99 0.003009
77 0.003002
80 0.003996
92 0.005017
104 0.006021
111 0.00601
119 0.006157
125 0.005984
129 0.005979
139 0.005986
142 0.006985
147 0.005981
151 0.007957
155 0.005016
159 0.007978
160 0.005966
164 0.007976
165 0.007013
173 0.006977
127 0.006976
64 0.003989
57 0.005986
62 0.003997
72 0.003985
92 0.00399
107 0.00203
114 0.003005
126 0.001996
134 0.002993
141 0.00096
148 0.0
156 0.0
158 0.0
165 0.0
170 0.001995
172 0.002994
177 0.004003
176 0.005947
167 0.004957
99 0.005959
75 0.006948
78 0.005985
89 0.006987
102 0.007012
113 0.006982
120 0.006983
126 0.006984
135 0.00596
142 0.005984
150 0.003051
156 0.001993
159 0.003998
163 0.000995
168 0.003044
171 0.0
176 0.002997
178 0.002029
174 0.003026
114 0.001989
51 0.000964
43 0.002993
50 0.0
62 0.00203
79 0.000997
94 0.000997
101 0.000998
114 0.003019
124 0.003026
131 0.002959
140 0.003987
148 0.003964
152 0.003989
159 0.00499
162 0.004987
166 0.004077
171 0.004987
168 0.005985
139 0.006988
43 0.007011
22 0.006843
20 0.00695
29 0.00401
47 0.007011
74 0.004005
85 0.006086
99 0.002028
112 0.002994
126 0.001003
129 0.0
139 0.0
143 0.0
152 0.002041
159 0.001999
164 0.001963
170 0.001771
173 0.003028
170 0.004024
116 0.005947
56 0.007026
44 0.005979
42 0.006982
57 0.007016
72 0.007145
92 0.006949
108 0.003995
116 0.007015
128 0.003986
134 0.006981
144 0.003993
151 0.003994
155 0.002985
162 0.000966
169 0.0
170 0.0
176 0.0
176 0.002025
173 0.00098
132 0.002991
92 0.0
87 0.0
92 0.001047
99 0.000964
112 0.002002
119 0.002884
125 0.004025
135 0.004952
144 0.006027
148 0.007021
154 0.006982
161 0.006777
163 0.007022
169 0.006952
172 0.006978
176 0.006974
179 0.005982
180 0.004987
173 0.00402
137 0.007014
100 0.003991
89 0.006984
90 0.003959
99 0.004024
110 0.004984
116 0.003984
126 0.005021
134 0.001998
137 0.004033
147 0.001975
150 0.00399
155 0.0
162 0.0
164 0.0
170 0.0
175 0.0
177 0.0
178 0.0
173 0.0
122 0.0
91 0.001994
82 0.000982
87 0.002034
93 0.000999
103 0.002991
113 0.0
113 0.0
124 0.0
133 0.0
143 0.00203
149 0.002886
157 0.003034
162 0.003011
169 0.004026
173 0.004024
181 0.005984
183 0.006018
186 0.004986
182 0.00302
151 0.001974
110 0.002951
108 0.002962
113 0.002
116 0.001993
125 0.002044
131 0.00399
137 0.001994
147 0.00402
152 0.002003
159 0.001974
166 0.002029
167 0.002027
173 0.002031
179 0.000967
180 0.002036
184 0.000968
188 0.003044
189 0.0
179 0.0
166 0.000955
117 0.000999
106 0.000957
106 0.000997
113 0.0
118 0.001055
124 0.000998
131 0.000963
137 0.001993
145 0.004038
152 0.002995
156 0.002997
160 0.005026
166 0.00502
171 0.005018
176 0.005987
180 0.006992
207 0.007981
205 0.003987
202 0.00598
159 0.003006
56 0.002982
37 0.000952
26 0.002972
39 0.001012
47 0.0
64 0.002034
79 0.002002
86 0.001994
102 0.001996
118 0.002001
124 0.002002
136 0.004021
148 0.002902
155 0.003037
163 0.003987
172 0.002987
178 0.004033
183 0.002994
184 0.003993
152 0.003998
87 0.003995
26 0.003025
16 0.003988
22 0.003957
44 0.00399
53 0.003857
69 0.004987
87 0.005983
98 0.005947
113 0.004983
126 0.003997
134 0.004034
144 0.00698
155 0.007012
160 0.007015
168 0.006979
179 0.002995
184 0.004057
189 0.003003
186 0.004018
124 0.001982
57 0.002996
51 0.002993
59 0.0
71 0.0
81 0.0
94 0.0
107 0.0
114 0.0
129 0.0
136 0.000997
147 0.002006
160 0.003989
168 0.005985
173 0.005985
182 0.00698
191 0.006972
194 0.005021
200 0.005029
184 0.002985
137 0.004995
29 0.001994
4 0.001003
4 0.0
18 0.0
31 0.0
51 0.0
69 0.0
78 0.0
94 0.0
112 0.0
123 0.0
139 0.0
148 0.0
158 0.00199
169 0.004026
173 0.003955
181 0.005985
189 0.007991
183 0.004984
124 0.007976
3 0.007986
0 0.007985
0 0.007976
0 0.005142
3 0.007022
33 0.003003
47 0.006022
69 0.003959
87 0.00299
99 0.003165
116 0.001999
126 0.006024
138 0.003992
149 0.004985
158 0.00295
169 0.005028
180 0.005018
187 0.005025
190 0.004972
150 0.0
62 0.003023
0 0.0
0 0.0
0 0.001995
21 0.004048
50 0.004988
62 0.005023
83 0.004989
98 0.004981
113 0.003989
132 0.004986
139 0.004978
151 0.005
164 0.004978
166 0.004012
179 0.004985
185 0.004991
195 0.006001
198 0.005978
188 0.00698
76 0.00698
16 0.00697
13 0.006869
30 0.006974
49 0.006983
73 0.007
87 0.003948
97 0.006981
115 0.003997
125 0.00701
140 0.002988
153 0.003017
159 0.002992
169 0.002989
179 0.002956
184 0.002997
192 0.002997
197 0.001998
197 0.001002
165 0.002028
0 0.0
31 0.000997
24 0.003057
31 0.003002
50 0.003
67 0.002996
78 0.003015
90 0.00301
104 0.004028
112 0.002949
120 0.005968
128 0.00499
134 0.005025
141 0.004987
147 0.004035
150 0.00299
155 0.0
158 0.001984
159 0.0
144 0.003027
44 0.002989
15 0.002979
8 0.002991
14 0.0
36 0.0
61 0.002992
81 0.003986
91 0.004013
104 0.003959
111 0.003958
123 0.00403
132 0.003799
137 0.003988
143 0.003991
149 0.00399
155 0.004974
160 0.005994
164 0.005982
165 0.005958
151 0.006004
99 0.006019
46 0.005983
45 0.005984
51 0.006
71 0.007979
85 0.003989
98 0.004989
111 0.005135
116 0.004986
128 0.004991
136 0.002029
141 0.005029
147 0.001994
152 0.004024
159 0.0
163 0.0
166 0.0
169 0.0
171 0.001012
167 0.000997
109 0.0
56 0.002027
54 0.00203
62 0.001989
72 0.002026
92 0.002883
103 0.003992
112 0.003999
120 0.003945
130 0.003991
136 0.003991
143 0.005015
150 0.005988
154 0.006041
157 0.005983
162 0.005988
165 0.004986
167 0.005004
170 0.004006
161 0.004989
76 0.004992
41 0.004992
29 0.003019
35 0.004986
50 0.002
72 0.003983
86 0.002991
99 0.002992
113 0.002991
123 0.0
130 0.001996
137 0.001001
143 0.001975
148 0.001896
154 0.00199
158 0.003034
163 0.004957
168 0.00399
170 0.005017
149 0.005982
45 0.005983
23 0.006987
12 0.005967
14 0.006003
33 0.006981
67 0.006132
82 0.005964
97 0.005004
109 0.006983
118 0.003985
129 0.007018
137 0.003965
141 0.006981
143 0.006002
145 0.004123
149 0.005024
155 0.002993
160 0.004985
166 0.000968
162 0.00098
128 0.000997
58 0.000959
49 0.00096
55 0.0
71 0.002992
89 0.001014
104 0.003023
114 0.000952
121 0.002975
131 0.003025
138 0.003025
145 0.002991
151 0.0
155 0.003031
157 0.0
162 0.000998
166 0.001992
169 0.002999
173 0.002997
166 0.003996
79 0.004983
34 0.005021
24 0.004937
35 0.004986
47 0.004986
72 0.005981
92 0.002983
99 0.002951
113 0.002992
124 0.003029
133 0.0
139 0.002993
146 0.003026
148 0.002991
153 0.003022
157 0.003032
162 0.002989
165 0.0
167 0.001995
157 0.002033
56 0.002059
16 0.00204
7 0.002972
11 0.00396
26 0.003995
62 0.004989
85 0.006009
97 0.005953
110 0.005987
119 0.005982
129 0.005003
138 0.002999
145 0.005986
151 0.004995
156 0.004025
160 0.004041
164 0.003988
168 0.0
168 0.002027
159 0.0
64 0.0
36 0.0
34 0.000969
41 0.0
63 0.000965
90 0.000966
101 0.0
116 0.0
125 0.0
133 0.000997
143 0.001001
152 0.002956
155 0.00296
160 0.003028
162 0.003003
167 0.003007
171 0.005963
173 0.006015
175 0.006987
173 0.006979
149 0.006981
42 0.004985
22 0.002999
23 0.00303
40 0.0
66 0.0
82 0.0
101 0.001031
115 0.001952
124 0.001995
137 0.00299
147 0.003962
151 0.003995
158 0.003824
163 0.003994
165 0.003958
170 0.003962
172 0.003992
174 0.005983
175 0.006268
160 0.006998
100 0.006021
33 0.003991
34 0.002974
38 0.00399
63 0.00197
81 0.004023
101 0.00296
116 0.0
123 0.0
133 0.0
143 0.0
146 0.000999
153 0.0
160 0.000746
163 0.000959
167 0.001028
171 0.001027
175 0.002002
175 0.00205
175 0.001989
158 0.001997
92 0.002042
69 0.002006
79 0.002041
89 0.001022
108 0.002001
114 0.00199
125 0.002055
135 0.002991
144 0.005992
148 0.005991
154 0.005977
157 0.006002
162 0.004987
166 0.003966
168 0.004003
171 0.003009
172 0.004984
175 0.002984
175 0.005017
163 0.005031
124 0.005017
74 0.003954
76 0.0
85 0.003024
102 0.000998
110 0.002994
119 0.0
128 0.000998
134 0.000957
141 0.0
147 0.0
149 0.000999
153 0.001028
158 0.003024
159 0.003024
163 0.004987
166 0.00497
170 0.005969
170 0.00598
168 0.004986
138 0.006982
85 0.006965
73 0.006962
78 0.007945
93 0.003028
103 0.006978
114 0.003951
118 0.005981
127 0.005005
137 0.002999
140 0.002997
146 0.002999
151 0.00204
153 0.003026
157 0.001981
160 0.00302
163 0.002996
163 0.003959
167 0.000967
165 0.004027
154 0.002987
127 0.002994
98 0.0
100 0.001001
109 0.00101
117 0.000998
120 0.001035
126 0.002889
132 0.00298
135 0.003956
141 0.00399
145 0.003991
148 0.004983
151 0.005953
155 0.005931
154 0.005941
158 0.006963
160 0.006018
162 0.004981
162 0.005957
158 0.004026
122 0.003993
81 0.007012
74 0.003985
79 0.004988
92 0.004986
99 0.003985
108 0.003026
115 0.000993
121 0.000965
127 0.0
133 0.001991
136 0.001953
142 0.001996
143 0.001994
147 0.00203
151 0.003989
161 0.003989
165 0.00399
167 0.003942
165 0.00403
114 0.003959
56 0.003989
31 0.003936
38 0.003989
51 0.004028
71 0.004983
87 0.006972
93 0.007013
107 0.006965
119 0.004026
125 0.007017
132 0.003987
137 0.006017
143 0.003993
149 0.003031
152 0.00303
156 0.00299
162 0.002992
164 0.002999
164 0.004986
156 0.002995
98 0.0
71 0.003024
78 0.0
90 0.003968
103 0.003042
109 0.001996
117 0.000998
125 0.002035
131 0.002995
140 0.003023
145 0.003025
149 0.003038
153 0.00396
157 0.00598
158 0.006982
163 0.003958
168 0.003987
167 0.002987
166 0.002991
136 0.002996
78 0.003002
35 0.002991
38 0.002996
52 0.0
66 0.003023
81 0.0
92 0.002984
104 0.000964
113 0.004028
120 0.0
130 0.001005
136 0.000997
144 0.000998
146 0.001007
151 0.000996
155 0.000965
157 0.001029
160 0.00203
158 0.002994
144 0.004023
43 0.003955
13 0.00399
9 0.003957
25 0.004977
41 0.004995
60 0.005968
77 0.007955
90 0.004994
99 0.007937
112 0.008015
124 0.00798
132 0.007978
138 0.007978
146 0.008011
153 0.004997
155 0.007964
159 0.004986
163 0.007986
163 0.004989
155 0.004998
120 0.003975
47 0.004988
47 0.004987
59 0.003993
79 0.002987
89 0.00303
100 0.00299
112 0.003989
118 0.0
129 0.003004
139 0.002993
144 0.002991
148 0.002993
153 0.000965
156 0.0
161 0.002025
165 0.001995
167 0.00296
168 0.005985
159 0.005006
122 0.00498
42 0.005947
35 0.005949
44 0.00603
64 0.006006
74 0.005987
91 0.005994
101 0.006983
111 0.004978
119 0.00697
131 0.004987
138 0.003994
144 0.002983
152 0.0
153 0.002992
159 0.0
160 0.0
165 0.0
170 0.0
166 0.000999
136 0.003008
39 0.002993
21 0.002994
25 0.002997
43 0.001959
58 0.002995
79 0.003037
90 0.003038
105 0.002992
118 0.003962
124 0.004991
135 0.004985
142 0.006027
147 0.006022
154 0.006987
158 0.006976
163 0.006981
167 0.00698
172 0.002993
172 0.003992
159 0.0
85 0.0
59 0.0
64 0.0
74 0.0
93 0.0
107 0.000976
116 0.0
125 0.0
131 0.001031
142 0.000969
147 0.003004
152 0.0
159 0.002
163 0.002013
165 0.000987
170 0.001979
176 0.002979
177 0.003029
177 0.00399
167 0.004993
133 0.005029
78 0.004809
76 0.004984
88 0.004981
102 0.004991
110 0.00499
115 0.006008
124 0.006159
130 0.005981
139 0.005987
147 0.005013
151 0.005007
155 0.007979
159 0.005975
