116 0.031955
116 0.0
114 0.0
113 0.0
112 0.000969
112 0.000967
111 0.0
110 0.0
108 0.0
108 0.0
108 0.0
109 0.0
109 0.0
110 0.0
110 0.0
111 0.0
107 0.0
101 0.000966
97 0.0
96 0.0
95 0.0
96 0.0
96 0.0
96 0.0
95 0.0
95 0.0
96 0.0
97 0.0
98 0.000994
99 0.000966
101 0.0
101 0.0
102 0.0
98 0.0
94 0.0
92 0.0
91 0.0
92 0.000997
92 0.0
93 0.000969
94 0.000966
94 0.000968
95 0.0
96 0.0
98 0.0
98 0.0
99 0.000999
101 0.000999
102 0.000984
103 0.000975
99 0.0
96 0.000968
92 0.000882
92 0.000966
92 0.0
92 0.0
94 0.000998
95 0.0
95 0.0
96 0.000998
96 0.000999
97 0.000985
99 0.001005
100 0.000952
102 0.000998
103 0.001021
105 0.0
105 0.0
98 0.0
96 0.0
95 0.0
96 0.000998
97 0.001005
98 0.000984
99 0.000958
100 0.000994
100 0.001006
101 0.000997
102 0.001008
103 0.001007
107 0.000956
109 0.001012
110 0.000997
112 0.000998
110 0.004987
106 0.005984
104 0.000996
103 0.000997
104 0.001995
105 0.001995
106 0.000998
108 0.001004
109 0.000998
109 0.000998
110 0.000985
109 0.000991
111 0.000999
113 0.0
115 0.000998
56 0.001008
62 0.002042
68 0.001995
51 0.000997
28 0.001
16 0.000997
22 0.000997
31 0.000991
37 0.000998
45 0.000998
56 0.000999
59 0.000997
62 0.000998
65 0.001994
70 0.001994
78 0.000997
87 0.001995
94 0.000997
100 0.000998
104 0.001002
93 0.001997
71 0.001945
57 0.000993
54 0.000997
56 0.002
58 0.001993
63 0.001997
70 0.000973
76 0.001995
79 0.000998
83 0.000998
89 0.000997
96 0.001995
104 0.000989
111 0.000997
118 0.001994
124 0.001995
130 0.002031
120 0.001995
91 0.000989
73 0.001999
73 0.001995
76 0.001995
82 0.000997
90 0.001987
97 0.001995
103 0.002993
107 0.001995
111 0.001997
116 0.002031
121 0.003038
128 0.002027
139 0.001995
143 0.00201
148 0.00099
146 0.000998
124 0.000997
103 0.001995
94 0.002992
93 0.001994
97 0.001994
101 0.001995
106 0.002996
110 0.002963
111 0.002025
113 0.001996
116 0.001956
123 0.000999
129 0.000998
134 0.001995
140 0.00298
145 0.001972
146 0.0
86 0.003006
80 0.001995
81 0.001995
84 0.002003
88 0.002031
92 0.002006
95 0.002036
97 0.001995
100 0.003006
104 0.002995
111 0.002002
116 0.002993
122 0.002992
130 0.003027
133 0.003024
118 0.001992
91 0.001987
73 0.001995
66 0.002992
66 0.002036
69 0.001995
73 0.002992
78 0.003025
85 0.002992
88 0.002991
89 0.002952
92 0.00298
100 0.001995
106 0.002026
111 0.001994
117 0.002952
123 0.002992
130 0.002044
133 0.003046
118 0.002968
83 0.00299
68 0.002992
65 0.002992
68 0.002993
75 0.002024
82 0.001995
88 0.002031
93 0.003032
97 0.002992
103 0.002026
109 0.002992
116 0.003032
124 0.003989
130 0.004024
146 0.003026
155 0.002992
161 0.003023
144 0.002024
115 0.003028
74 0.00304
63 0.003035
66 0.002043
72 0.002038
78 0.003028
89 0.003025
101 0.003028
104 0.003027
108 0.004022
114 0.003024
121 0.003026
129 0.003027
139 0.003034
145 0.003037
158 0.002027
167 0.001996
173 0.002999
146 0.00399
87 0.002991
78 0.003992
81 0.004024
91 0.002997
100 0.002988
107 0.003031
116 0.002992
118 0.002992
119 0.001994
121 0.002992
131 0.00299
142 0.003004
153 0.002992
161 0.002992
172 0.003989
179 0.004018
181 0.004022
131 0.003026
96 0.003989
86 0.00399
90 0.002985
96 0.00303
101 0.003027
109 0.004022
117 0.003036
120 0.003033
123 0.002992
129 0.004047
136 0.004045
147 0.003023
156 0.00399
164 0.003989
176 0.003024
180 0.002991
151 0.00295
107 0.003956
70 0.003947
63 0.003989
65 0.004023
69 0.004026
77 0.00402
87 0.004028
98 0.004021
102 0.00398
106 0.002996
113 0.003022
120 0.003034
128 0.004021
141 0.003033
147 0.005013
153 0.004981
125 0.00402
95 0.004021
60 0.003965
44 0.004021
44 0.003989
48 0.003989
58 0.00299
69 0.003023
79 0.003042
87 0.003002
92 0.003038
99 0.004029
107 0.003991
119 0.004025
129 0.004022
139 0.00402
147 0.005017
154 0.003953
149 0.00403
108 0.004028
71 0.004025
53 0.003989
59 0.003032
65 0.003947
72 0.003989
85 0.003988
92 0.003042
94 0.00404
97 0.004987
101 0.004986
113 0.004003
122 0.003969
131 0.00399
142 0.004039
149 0.003989
154 0.003989
123 0.004031
67 0.004021
50 0.003989
50 0.004024
56 0.004987
63 0.004987
75 0.000959
85 0.001001
90 0.004021
92 0.004035
97 0.00403
107 0.00402
116 0.004987
126 0.005039
138 0.00402
145 0.004022
154 0.005019
148 0.004986
92 0.003989
62 0.004042
56 0.004041
62 0.00398
68 0.004035
81 0.005035
90 0.004987
95 0.00502
97 0.004022
100 0.005042
109 0.004987
117 0.005001
130 0.004042
139 0.00399
152 0.00403
158 0.004045
140 0.004028
92 0.00503
56 0.004987
40 0.004023
42 0.004021
48 0.004031
55 0.005029
66 0.004997
80 0.005041
85 0.005028
93 0.00502
97 0.005018
107 0.005023
121 0.005016
130 0.005022
140 0.005028
150 0.00402
156 0.004033
138 0.005018
91 0.004989
47 0.005032
39 0.00502
45 0.005018
50 0.005018
60 0.004977
77 0.005012
86 0.005028
92 0.005007
98 0.005
106 0.005027
120 0.004986
131 0.005993
144 0.004982
153 0.004983
166 0.005021
171 0.005021
164 0.005019
119 0.004995
76 0.005023
59 0.00502
60 0.005027
67 0.005019
71 0.004999
80 0.005978
92 0.005017
97 0.004998
100 0.005018
106 0.005016
116 0.00502
126 0.006013
136 0.006022
145 0.005039
154 0.005027
159 0.005022
167 0.006029
151 0.005972
88 0.005017
60 0.005017
57 0.005002
64 0.005027
73 0.005018
84 0.006024
95 0.005984
102 0.006005
103 0.005998
105 0.006021
114 0.00602
123 0.005991
136 0.004937
146 0.005017
156 0.006025
166 0.005023
172 0.004987
169 0.006025
128 0.006015
68 0.005027
50 0.006017
48 0.005022
53 0.005958
58 0.005967
70 0.004979
83 0.005018
97 0.005021
101 0.00504
107 0.005026
116 0.005018
125 0.006015
135 0.007014
149 0.006029
158 0.006015
166 0.006015
172 0.005959
177 0.005976
129 0.006031
84 0.005984
62 0.006018
61 0.005032
67 0.005033
75 0.007024
86 0.007023
103 0.006017
111 0.006016
115 0.00603
120 0.006983
126 0.005984
143 0.006016
154 0.006031
166 0.005015
171 0.006019
182 0.005021
187 0.006981
193 0.006982
175 0.006015
123 0.006011
84 0.006017
72 0.006968
75 0.00698
87 0.006025
94 0.006014
105 0.006026
115 0.006013
120 0.006011
122 0.007012
127 0.007013
139 0.006
149 0.006022
159 0.00602
168 0.006985
177 0.007013
186 0.006982
188 0.005979
185 0.007013
143 0.006979
94 0.006971
68 0.007015
71 0.006982
81 0.006024
90 0.006017
102 0.006015
112 0.003024
116 0.006942
118 0.00702
122 0.006942
133 0.006966
141 0.007014
151 0.007132
164 0.006981
172 0.007013
182 0.006015
188 0.006015
189 0.006015
150 0.00699
82 0.00797
57 0.00701
61 0.00798
69 0.007029
78 0.007014
85 0.007011
99 0.007011
106 0.007018
108 0.00702
114 0.005958
122 0.006016
132 0.006983
142 0.006984
158 0.007979
169 0.007979
178 0.007013
184 0.007011
166 0.007012
111 0.006982
70 0.006981
56 0.006027
63 0.006045
65 0.006022
83 0.006979
104 0.006981
126 0.007978
131 0.007978
137 0.006019
145 0.007017
154 0.007011
164 0.007016
174 0.006944
184 0.007021
193 0.007122
202 0.006984
203 0.00695
157 0.006971
89 0.006982
80 0.006981
89 0.006949
96 0.006949
109 0.007016
99 0.007979
73 0.007979
56 0.006966
55 0.007013
61 0.007011
67 0.006981
82 0.00698
103 0.006981
119 0.006982
131 0.007013
144 0.005976
121 0.00698
68 0.007979
37 0.007979
34 0.007015
43 0.006927
55 0.007012
68 0.007949
87 0.007012
91 0.007937
91 0.007988
96 0.007018
104 0.007025
110 0.007024
124 0.00791
135 0.007979
146 0.006968
154 0.006951
147 0.007012
77 0.007959
34 0.007018
29 0.007979
36 0.007979
47 0.007012
57 0.00703
68 0.007971
75 0.007979
78 0.007979
81 0.007012
88 0.007011
99 0.006981
112 0.007979
126 0.007024
135 0.00702
144 0.007978
123 0.007944
58 0.007022
28 0.007035
30 0.007024
38 0.007024
47 0.007015
54 0.007935
67 0.007925
78 0.007944
86 0.007037
92 0.006982
101 0.007979
111 0.007979
130 0.007015
139 0.007016
148 0.007031
139 0.007022
93 0.00702
46 0.006949
38 0.006981
45 0.00703
60 0.007024
64 0.007979
81 0.007978
90 0.00798
95 0.006982
100 0.007014
109 0.007056
117 0.007031
127 0.006996
141 0.007024
149 0.007023
154 0.007013
91 0.007013
54 0.007979
44 0.007979
45 0.007978
60 0.007062
67 0.006948
76 0.008021
93 0.007941
97 0.007941
100 0.006981
107 0.006981
116 0.006982
133 0.006989
144 0.007021
154 0.007021
163 0.007014
148 0.006982
96 0.006946
59 0.007021
47 0.007013
52 0.007977
65 0.006999
76 0.007032
89 0.007013
102 0.007015
103 0.00702
105 0.006987
111 0.006988
125 0.007025
135 0.007022
145 0.006984
154 0.006975
162 0.007027
166 0.007021
146 0.003035
76 0.007012
44 0.007016
50 0.007022
59 0.00702
70 0.007016
88 0.007021
96 0.006946
101 0.007009
103 0.006018
107 0.006015
118 0.006026
129 0.007027
146 0.007021
155 0.007026
162 0.007045
169 0.007014
165 0.007025
95 0.007021
54 0.006804
42 0.007026
47 0.006032
56 0.006021
72 0.006016
86 0.005984
101 0.006029
103 0.007018
104 0.007013
111 0.007001
120 0.007021
133 0.007028
143 0.007013
153 0.006962
162 0.006019
169 0.006013
176 0.006025
147 0.005992
65 0.007017
49 0.005983
51 0.007022
57 0.007012
63 0.007056
76 0.006999
88 0.006932
95 0.007062
98 0.006987
101 0.006943
110 0.006969
121 0.006015
140 0.006007
151 0.006041
160 0.006029
168 0.00603
176 0.006013
175 0.006024
126 0.006038
75 0.006018
52 0.00602
51 0.00602
60 0.007027
68 0.007011
87 0.006029
97 0.006027
102 0.006015
103 0.006014
108 0.006015
121 0.005983
132 0.00599
141 0.005951
151 0.006067
161 0.006024
170 0.006014
178 0.004965
150 0.005032
94 0.004944
59 0.006024
51 0.00602
61 0.006015
73 0.006032
85 0.006023
99 0.00602
107 0.006025
109 0.005003
111 0.005019
117 0.006026
135 0.005037
146 0.005028
158 0.006023
169 0.005989
178 0.006018
188 0.006028
194 0.006031
164 0.005977
101 0.006021
62 0.006026
51 0.006015
56 0.005982
68 0.005038
83 0.004981
94 0.005033
102 0.005018
105 0.006027
107 0.005992
116 0.006024
127 0.006023
138 0.006026
149 0.005965
159 0.005979
173 0.005984
185 0.006018
171 0.004987
113 0.00502
70 0.005039
56 0.005012
58 0.004992
71 0.005025
79 0.006032
91 0.006035
102 0.006029
109 0.006031
115 0.006036
121 0.004987
134 0.004987
145 0.004987
157 0.004989
168 0.005025
177 0.004998
192 0.004987
193 0.003992
145 0.004942
90 0.005039
66 0.005003
70 0.005953
80 0.005984
93 0.004987
106 0.005044
114 0.005028
115 0.004997
115 0.004954
121 0.00502
131 0.005021
145 0.004959
157 0.004958
165 0.005042
178 0.004958
183 0.004947
131 0.004989
76 0.005994
50 0.00502
49 0.005027
56 0.005025
66 0.005035
76 0.004988
86 0.004991
92 0.00499
92 0.004989
96 0.004989
102 0.004988
115 0.005014
126 0.003998
136 0.003991
141 0.005046
151 0.004988
110 0.004993
53 0.004989
20 0.004989
13 0.005001
17 0.005023
32 0.004997
50 0.005036
71 0.005022
82 0.005021
88 0.004998
97 0.004986
108 0.005421
125 0.004989
138 0.004987
149 0.005017
160 0.005031
171 0.004989
158 0.004991
105 0.005046
56 0.003974
51 0.003996
56 0.003992
65 0.004017
75 0.004024
92 0.004989
102 0.005047
106 0.005005
111 0.005021
117 0.004987
130 0.005013
141 0.005024
156 0.003984
166 0.004031
174 0.003992
181 0.004026
167 0.003997
100 0.004015
70 0.004033
63 0.00402
69 0.004989
79 0.004988
96 0.004988
106 0.00499
112 0.003953
113 0.003948
115 0.003991
120 0.003991
130 0.004022
143 0.003991
151 0.00399
160 0.004001
167 0.004015
173 0.003957
126 0.00396
79 0.003956
56 0.003991
58 0.002994
64 0.004019
72 0.003991
82 0.004052
98 0.004022
105 0.004046
107 0.004044
112 0.004025
118 0.004016
134 0.004024
144 0.003993
157 0.004026
166 0.004021
174 0.003993
180 0.002993
170 0.003028
107 0.003991
74 0.003991
64 0.002993
65 0.004
77 0.004008
87 0.004021
101 0.004024
114 0.004029
117 0.003994
120 0.004042
126 0.004021
136 0.002992
145 0.002948
160 0.002993
168 0.003026
176 0.002994
186 0.002992
192 0.004025
185 0.004027
143 0.004032
94 0.004026
85 0.00399
87 0.00403
91 0.003991
96 0.004022
107 0.004027
117 0.002993
122 0.003024
124 0.002992
129 0.003104
137 0.002994
146 0.002993
158 0.003007
166 0.003036
173 0.003991
179 0.004028
185 0.004043
176 0.004044
132 0.003991
96 0.00299
76 0.003033
79 0.002994
82 0.002992
87 0.002993
102 0.004022
110 0.002993
115 0.002993
119 0.003007
124 0.002989
132 0.00299
141 0.003032
150 0.003023
166 0.002993
175 0.002994
183 0.003004
190 0.002993
185 0.003959
144 0.003962
103 0.002992
82 0.002943
78 0.002969
79 0.002952
82 0.002961
89 0.002996
103 0.002948
108 0.002996
111 0.003038
116 0.004023
126 0.002992
136 0.003022
145 0.002992
154 0.002993
163 0.002962
175 0.002994
182 0.003004
189 0.002994
145 0.002992
105 0.003027
86 0.002993
82 0.00303
85 0.00404
89 0.002993
97 0.002029
109 0.001995
118 0.002035
124 0.002994
127 0.002994
133 0.002993
147 0.003023
155 0.003026
164 0.003031
174 0.003035
184 0.00303
191 0.002005
197 0.002071
171 0.002992
125 0.002044
93 0.001997
91 0.003031
94 0.002995
103 0.002029
114 0.003023
124 0.001995
128 0.002035
132 0.00203
137 0.002041
145 0.002039
156 0.002031
167 0.00204
179 0.00204
188 0.002032
200 0.002993
205 0.001995
178 0.003045
132 0.002985
102 0.003029
97 0.002027
102 0.002012
107 0.001961
113 0.001968
122 0.002004
129 0.001996
129 0.002086
132 0.002029
138 0.001994
147 0.003034
156 0.00203
164 0.00306
175 0.003031
182 0.003048
188 0.002033
179 0.002026
134 0.001995
85 0.00203
73 0.001996
76 0.002027
80 0.001995
87 0.002009
96 0.002028
106 0.001996
113 0.001995
117 0.003025
121 0.000999
129 0.001996
139 0.000997
151 0.002047
161 0.002002
175 0.00203
173 0.002028
137 0.001997
96 0.001995
75 0.001994
71 0.001996
76 0.002001
82 0.001995
90 0.001965
101 0.00196
113 0.001995
117 0.000998
124 0.001
131 0.001996
141 0.002034
151 0.002026
160 0.001991
173 0.001995
181 0.001998
188 0.001996
171 0.001982
124 0.000997
86 0.000998
81 0.000997
87 0.000997
96 0.000997
104 0.002
116 0.002053
124 0.000997
127 0.000997
131 0.002006
137 0.001996
146 0.002037
156 0.000998
165 0.000996
176 0.000999
187 0.000998
196 0.000999
176 0.000999
127 0.000997
96 0.000998
89 0.00099
97 0.002029
105 0.001996
112 0.001996
122 0.001967
131 0.001952
132 0.001995
134 0.000997
142 0.000998
150 0.000998
158 0.000993
167 0.002007
175 0.000998
185 0.000997
191 0.002037
166 0.002029
121 0.002002
92 0.002
85 0.001986
92 0.000998
104 0.000961
111 0.001017
115 0.000998
119 0.000997
122 0.000998
127 0.000997
134 0.000997
143 0.002038
151 0.001008
160 0.000998
172 0.000998
183 0.000997
148 0.000997
100 0.000997
73 0.002033
66 0.0
69 0.001003
79 0.001001
87 0.000998
99 0.000997
108 0.000998
112 0.000997
117 0.000994
123 0.0
136 0.001995
146 0.000967
156 0.0
167 0.0
176 0.000999
166 0.0
118 0.00102
83 0.000997
70 0.000995
72 0.000998
86 0.000998
96 0.000966
110 0.000968
117 0.000997
120 0.000997
122 0.0
127 0.0
139 0.0
147 0.0
156 0.0
165 0.0
174 0.001
164 0.000999
115 0.000997
74 0.000998
71 0.000997
79 0.000997
89 0.000998
100 0.0
116 0.0
121 0.0
123 0.0
123 0.0
127 0.001008
141 0.000998
149 0.0
160 0.000998
167 0.0
174 0.000998
144 0.000997
96 0.001
64 0.001051
62 0.000997
68 0.000998
78 0.0
89 0.0
106 0.000998
110 0.000994
112 0.0
116 0.0
123 0.0
131 0.0
140 0.0
151 0.0
160 0.0
154 0.0
108 0.0
67 0.0
46 0.0
50 0.0
60 0.0
71 0.0
84 0.0
93 0.0
97 0.000997
101 0.0
108 0.0
116 0.0
125 0.0
135 0.0
151 0.0
154 0.0
104 0.0
65 0.0
50 0.0
52 0.0
60 0.0
75 0.000997
89 0.000998
100 0.000997
107 0.0
110 0.0
117 0.0
127 0.0
140 0.0
150 0.0
160 0.0
168 0.0
163 0.0
119 0.00104
80 0.0
67 0.0
74 0.0
84 0.0
102 0.0
113 0.0
119 0.000964
120 0.001011
120 0.000997
128 0.0
138 0.0
146 0.000963
155 0.000997
163 0.000963
171 0.000958
164 0.0
90 0.0
68 0.0
68 0.0
75 0.001046
84 0.001046
99 0.0
109 0.0
113 0.0
113 0.000998
114 0.000955
121 0.0
132 0.000965
142 0.000997
153 0.0
158 0.000997
166 0.00103
146 0.001045
80 0.0
52 0.0
43 0.0
42 0.001034
44 0.00103
52 0.0
68 0.000999
78 0.0
80 0.000997
86 0.0
94 0.000997
104 0.000998
116 0.000997
131 0.000943
139 0.0
152 0.001
145 0.001036
86 0.0
50 0.000998
47 0.000999
57 0.000984
66 0.0
80 0.000998
95 0.000967
109 0.0
113 0.0
117 0.0
123 0.001014
132 0.000999
147 0.0
161 0.002007
173 0.0
181 0.0
167 0.0
120 0.001001
83 0.001031
69 0.0
75 0.0
84 0.0
93 0.000999
105 0.001031
119 0.001058
122 0.001995
126 0.000967
132 0.0
141 0.0
151 0.000995
160 0.000987
171 0.000989
179 0.000962
183 0.001007
155 0.001028
110 0.000989
81 0.001023
85 0.001954
95 0.000999
104 0.001007
116 0.000986
124 0.000997
126 0.001995
127 0.000994
133 0.000999
141 0.0
151 0.001001
159 0.001996
171 0.001
181 0.001951
188 0.000998
169 0.001026
122 0.001007
88 0.001995
76 0.001977
77 0.00103
82 0.001018
89 0.00099
101 0.001043
113 0.00103
121 0.000954
124 0.00203
130 0.001996
142 0.000996
152 0.000996
160 0.002036
170 0.00199
182 0.000979
189 0.001995
179 0.001033
137 0.002008
102 0.001994
86 0.001022
89 0.001995
98 0.000994
107 0.000968
120 0.000965
130 0.001986
134 0.001995
139 0.000998
146 0.000993
156 0.000997
166 0.001987
175 0.001995
191 0.002027
199 0.001995
208 0.001018
207 0.001009
169 0.001001
129 0.002027
111 0.002023
109 0.000965
114 0.001034
119 0.000998
127 0.002992
136 0.003005
144 0.001991
145 0.001989
151 0.000996
159 0.000996
168 0.001015
178 0.002027
187 0.002039
198 0.000998
205 0.000998
211 0.001995
206 0.002992
168 0.002993
119 0.001995
115 0.003024
120 0.001004
126 0.001012
135 0.001024
145 0.002992
150 0.003023
150 0.002992
150 0.000964
154 0.000989
162 0.000957
171 0.001995
186 0.000987
195 0.001995
202 0.002994
209 0.001967
213 0.002002
186 0.001996
141 0.003029
113 0.002995
103 0.002048
105 0.001031
108 0.001028
114 0.003027
129 0.000982
134 0.001995
134 0.001996
137 0.000956
141 0.002005
150 0.001996
160 0.002992
169 0.003026
181 0.00199
188 0.001995
195 0.001994
198 0.002992
136 0.002029
104 0.003033
92 0.002986
93 0.000995
97 0.001006
102 0.001031
111 0.002987
120 0.002991
126 0.001994
129 0.001994
133 0.001991
139 0.002978
153 0.001992
162 0.003018
173 0.003033
184 0.002047
192 0.002044
197 0.000985
166 0.003025
121 0.003025
93 0.001983
93 0.00199
97 0.001998
102 0.002992
116 0.002007
123 0.002992
127 0.002992
127 0.001963
132 0.002039
139 0.001982
148 0.002992
157 0.004045
169 0.003027
176 0.003029
184 0.002026
185 0.003024
119 0.001994
90 0.003024
83 0.002992
89 0.002991
95 0.002029
103 0.002035
111 0.003992
115 0.003989
113 0.003024
111 0.003023
115 0.001976
124 0.002992
139 0.00295
149 0.003026
162 0.003022
182 0.001893
191 0.001988
156 0.002996
83 0.003997
41 0.003989
32 0.003037
40 0.001995
54 0.001995
82 0.001963
99 0.002005
121 0.002992
142 0.002992
163 0.001994
179 0.001989
195 0.001995
201 0.002995
205 0.003985
214 0.002994
221 0.00399
228 0.003024
166 0.002026
137 0.002993
129 0.003985
129 0.004024
131 0.002022
146 0.002017
159 0.001974
169 0.003989
172 0.002989
168 0.002989
168 0.002986
168 0.002991
167 0.003026
173 0.003025
175 0.004023
184 0.004026
188 0.003025
158 0.002992
120 0.003027
97 0.003989
85 0.003951
77 0.001995
77 0.003032
77 0.003037
82 0.002026
86 0.003019
89 0.003984
95 0.003991
101 0.002997
109 0.002995
115 0.00299
125 0.003993
132 0.00399
135 0.003026
99 0.003025
58 0.003
37 0.002969
41 0.002959
49 0.004021
59 0.004022
74 0.002997
84 0.002992
89 0.003006
92 0.004021
96 0.004029
106 0.002994
115 0.002993
116 0.004016
123 0.003985
128 0.004023
103 0.005017
56 0.004986
22 0.005018
11 0.00301
16 0.002992
23 0.002992
32 0.003987
45 0.00399
55 0.003041
61 0.003981
72 0.004022
82 0.002985
94 0.004016
107 0.00502
120 0.005043
137 0.002992
142 0.002999
111 0.003014
72 0.004032
50 0.003989
46 0.003007
54 0.003956
71 0.003957
84 0.003958
96 0.004021
104 0.005021
111 0.005018
121 0.003006
132 0.00399
143 0.004044
153 0.004986
163 0.005027
176 0.003024
185 0.002978
138 0.00399
105 0.003997
92 0.004019
93 0.004984
101 0.004987
114 0.003979
127 0.004043
138 0.004009
144 0.004987
146 0.004987
150 0.003037
157 0.005023
168 0.003995
176 0.003994
184 0.003986
193 0.005022
203 0.005018
180 0.004004
140 0.004019
116 0.004032
113 0.005028
116 0.004984
126 0.005017
140 0.005984
154 0.003996
158 0.003993
159 0.00399
162 0.004986
163 0.005028
169 0.003979
173 0.004028
179 0.005019
186 0.005985
193 0.005986
167 0.005036
124 0.005985
116 0.003986
124 0.003986
133 0.003993
140 0.00505
146 0.00502
152 0.003988
153 0.004957
153 0.003971
155 0.004987
161 0.005992
169 0.005037
179 0.00599
189 0.003963
193 0.003994
171 0.003986
131 0.005033
105 0.005019
98 0.004002
101 0.003959
106 0.004024
113 0.006027
122 0.006033
129 0.005018
129 0.005983
131 0.003972
134 0.00399
140 0.004008
146 0.005016
153 0.005022
161 0.003995
162 0.00399
130 0.003983
92 0.005984
72 0.006015
67 0.00502
71 0.005982
79 0.005019
85 0.003983
90 0.003983
93 0.005017
95 0.005016
97 0.00399
103 0.003997
111 0.004988
117 0.005984
125 0.006015
137 0.003989
143 0.005965
104 0.005024
67 0.005016
50 0.00498
45 0.00598
45 0.005964
50 0.00398
58 0.004029
63 0.005
67 0.005967
67 0.005984
69 0.004988
74 0.005984
84 0.004986
93 0.005
102 0.004974
110 0.005982
118 0.005984
92 0.003977
54 0.005024
33 0.004986
29 0.005984
33 0.006008
42 0.004986
54 0.005982
62 0.004997
64 0.005019
65 0.004992
67 0.005981
72 0.00698
83 0.005978
91 0.00603
100 0.005022
109 0.006982
113 0.007015
70 0.004993
32 0.00595
23 0.004991
27 0.004982
34 0.004999
45 0.005983
56 0.005985
63 0.005986
66 0.006014
68 0.004982
74 0.006877
85 0.007013
100 0.004981
106 0.005971
106 0.006
96 0.004994
62 0.00499
27 0.005988
11 0.005979
10 0.006983
17 0.004994
24 0.006013
35 0.006018
45 0.007007
55 0.005968
61 0.006967
67 0.006984
75 0.004983
81 0.004986
90 0.004966
100 0.005979
110 0.005982
95 0.005986
57 0.00601
27 0.006017
19 0.006981
25 0.005972
33 0.006982
44 0.007001
61 0.00502
70 0.004982
74 0.004983
80 0.006978
89 0.005983
100 0.005981
111 0.005985
121 0.006065
129 0.006981
128 0.006001
93 0.006981
60 0.006975
46 0.006006
50 0.006003
58 0.004986
68 0.007001
81 0.006982
91 0.007015
94 0.006019
96 0.006013
101 0.007979
115 0.00599
125 0.006972
134 0.006979
145 0.005977
151 0.006004
129 0.005982
90 0.006974
64 0.006986
57 0.006017
60 0.007024
65 0.007029
72 0.007979
89 0.005966
96 0.006993
101 0.006973
108 0.006018
116 0.005978
125 0.00599
134 0.006983
144 0.006984
156 0.006017
163 0.006015
145 0.00702
96 0.007973
74 0.006988
72 0.007977
77 0.007948
83 0.005983
94 0.005978
103 0.005989
111 0.006975
114 0.006976
121 0.005996
128 0.006983
137 0.006985
146 0.007978
161 0.006984
169 0.007931
177 0.007973
173 0.005993
137 0.006004
105 0.005988
91 0.00698
90 0.006974
95 0.006999
101 0.006983
109 0.00698
118 0.007946
122 0.006984
123 0.007976
128 0.007972
137 0.005981
145 0.005996
153 0.005982
162 0.007994
169 0.004955
180 0.006982
172 0.006979
135 0.006978
87 0.006978
82 0.006984
86 0.007968
92 0.007949
102 0.006023
114 0.005986
120 0.005979
122 0.007012
125 0.007012
131 0.00698
137 0.006979
145 0.006981
159 0.006982
167 0.006987
177 0.007949
183 0.007976
151 0.006983
110 0.00698
86 0.00695
78 0.008012
82 0.007978
87 0.006992
93 0.00699
103 0.006965
116 0.006981
119 0.006977
122 0.007014
129 0.006943
138 0.006981
146 0.006981
156 0.006981
167 0.00698
175 0.006981
176 0.006981
133 0.006981
94 0.006981
72 0.006987
73 0.007013
77 0.006973
85 0.00702
95 0.007012
105 0.006942
111 0.006952
114 0.00699
118 0.007931
128 0.007981
137 0.006987
150 0.007028
165 0.00698
173 0.006985
178 0.006982
182 0.00698
149 0.00696
97 0.006964
83 0.006972
78 0.006972
84 0.006945
90 0.007021
102 0.006968
111 0.006972
120 0.006968
123 0.006989
128 0.006971
135 0.007011
143 0.007028
155 0.006971
164 0.006985
172 0.006985
182 0.007011
189 0.006984
156 0.006977
114 0.006976
87 0.006976
91 0.006015
99 0.007021
107 0.00702
119 0.007026
128 0.007011
130 0.007011
130 0.006971
133 0.007021
140 0.007029
151 0.006971
160 0.007014
174 0.006014
183 0.006026
188 0.005979
166 0.006033
122 0.006019
83 0.007015
77 0.007011
82 0.006989
90 0.007014
99 0.00702
115 0.007019
123 0.006987
130 0.006983
133 0.005992
139 0.006016
147 0.00602
154 0.006018
165 0.005973
174 0.007017
181 0.007021
165 0.007022
120 0.006953
78 0.007021
69 0.006987
73 0.006989
80 0.006015
90 0.006017
102 0.005985
112 0.006026
117 0.006008
121 0.006014
127 0.005969
135 0.006964
143 0.007012
157 0.007031
172 0.007021
184 0.006016
173 0.00599
127 0.00598
87 0.006017
70 0.006015
71 0.005982
78 0.005968
86 0.006034
96 0.006015
105 0.006991
111 0.006967
114 0.006021
120 0.006013
129 0.006018
138 0.006019
148 0.006034
157 0.006017
169 0.006019
175 0.006022
147 0.00602
104 0.00503
77 0.006983
72 0.006028
83 0.006018
95 0.005985
106 0.006017
114 0.006025
116 0.00602
116 0.005986
119 0.001042
127 0.006014
135 0.005987
143 0.006019
152 0.006008
166 0.004989
163 0.004933
109 0.006026
75 0.006022
63 0.006016
65 0.006032
73 0.00603
87 0.005018
98 0.004986
104 0.003041
108 0.005021
110 0.004981
116 0.004953
126 0.005016
139 0.005976
147 0.006021
156 0.005997
165 0.005996
150 0.004986
89 0.005985
58 0.005944
47 0.006014
47 0.005987
54 0.00603
67 0.00604
82 0.005025
91 0.005022
94 0.005018
98 0.005024
105 0.005027
114 0.005023
122 0.005017
135 0.00497
144 0.005026
152 0.006017
145 0.005986
104 0.005943
46 0.006029
39 0.004974
44 0.005029
51 0.005018
62 0.005021
74 0.004987
83 0.005024
91 0.005028
95 0.005019
100 0.005042
109 0.005989
119 0.006003
136 0.00604
145 0.006026
156 0.00504
148 0.005033
106 0.005028
64 0.00502
46 0.005018
47 0.005031
54 0.005024
64 0.005032
76 0.004996
87 0.004989
96 0.005031
98 0.005038
106 0.005011
115 0.004992
125 0.005029
135 0.005033
145 0.00503
155 0.005019
164 0.005032
166 0.005027
133 0.005034
64 0.005027
50 0.005004
54 0.003992
65 0.004979
74 0.003993
86 0.003993
95 0.00402
100 0.005015
101 0.00401
105 0.003955
114 0.004987
124 0.004984
141 0.004996
150 0.004985
157 0.004947
169 0.004992
155 0.004991
110 0.004982
71 0.00503
55 0.00399
57 0.003986
66 0.00402
77 0.004021
90 0.005002
103 0.004029
106 0.004982
110 0.004981
117 0.005015
127 0.005029
138 0.005029
148 0.004
158 0.004029
169 0.004031
177 0.004028
167 0.00395
121 0.003991
61 0.004047
55 0.005026
59 0.004032
68 0.005026
78 0.005042
91 0.005022
101 0.005029
107 0.004956
113 0.004032
120 0.003994
128 0.003995
137 0.004022
153 0.003948
163 0.003957
170 0.004038
179 0.003948
169 0.004025
123 0.004023
79 0.004024
58 0.005047
56 0.00396
63 0.004956
72 0.004943
83 0.00399
102 0.004019
108 0.003989
111 0.00402
119 0.004062
128 0.004035
138 0.004024
149 0.004031
158 0.004065
171 0.004068
178 0.004023
184 0.003997
158 0.004026
84 0.003991
67 0.004
69 0.004033
82 0.00395
92 0.003992
106 0.003989
115 0.004033
120 0.002993
122 0.002992
126 0.003002
133 0.002997
142 0.002994
156 0.00402
165 0.004029
172 0.003991
185 0.00399
180 0.001953
118 0.004024
80 0.00399
67 0.003041
68 0.003026
76 0.002992
86 0.003006
98 0.004035
110 0.003028
112 0.003018
115 0.004029
124 0.004036
135 0.004032
144 0.00395
154 0.003989
164 0.002993
177 0.002994
180 0.002958
147 0.002992
96 0.002995
55 0.002991
53 0.002992
59 0.002957
66 0.002996
80 0.004041
91 0.004047
99 0.003033
103 0.002939
108 0.003027
118 0.002993
130 0.00299
148 0.003022
159 0.002993
169 0.002996
176 0.003028
160 0.003042
94 0.002993
62 0.002993
51 0.002991
53 0.003036
61 0.002993
74 0.003026
87 0.002992
102 0.003991
105 0.003027
109 0.003028
115 0.003026
123 0.003033
138 0.003027
148 0.002992
157 0.002999
167 0.003032
172 0.002992
129 0.002992
81 0.002992
52 0.003024
57 0.002994
65 0.002028
73 0.00202
85 0.002993
98 0.003049
100 0.002993
101 0.002992
105 0.003028
112 0.003036
124 0.002993
134 0.002992
151 0.003035
160 0.001959
148 0.002025
102 0.001995
61 0.002
42 0.001992
46 0.002041
55 0.003031
65 0.002993
78 0.002993
90 0.00296
93 0.002989
97 0.00308
104 0.001995
113 0.002996
123 0.002995
134 0.003043
147 0.003028
155 0.002992
137 0.003028
86 0.003017
46 0.003026
28 0.002993
30 0.001996
40 0.002033
52 0.001995
65 0.001968
73 0.00205
77 0.001996
81 0.003004
87 0.002993
95 0.003005
105 0.002992
116 0.002955
130 0.002991
139 0.002005
97 0.002961
53 0.002979
28 0.002026
22 0.002028
24 0.00201
35 0.001994
47 0.002026
61 0.002029
73 0.001963
78 0.002012
84 0.002028
91 0.002993
107 0.002993
119 0.001995
130 0.002025
140 0.002026
148 0.001995
134 0.001996
87 0.002032
50 0.001996
37 0.002044
39 0.000998
48 0.002056
57 0.000998
79 0.001996
87 0.000998
90 0.001996
93 0.001996
101 0.001998
114 0.00203
125 0.001995
136 0.002093
145 0.001995
154 0.001988
153 0.002008
103 0.00203
62 0.000992
57 0.000998
62 0.001002
70 0.001996
78 0.002036
93 0.001995
102 0.001996
106 0.001995
109 0.000989
115 0.002001
128 0.002027
140 0.001003
153 0.000997
161 0.000998
168 0.000995
167 0.000997
130 0.00203
77 0.002041
61 0.001966
60 0.002044
62 0.002035
67 0.001995
82 0.002005
97 0.002007
105 0.002033
109 0.001995
116 0.001
124 0.001038
134 0.000998
143 0.000998
157 0.00204
166 0.000987
175 0.000997
163 0.00201
121 0.001995
70 0.001996
63 0.001996
63 0.001996
68 0.000998
77 0.000998
91 0.000999
103 0.001004
112 0.001001
117 0.000874
123 0.000998
133 0.001995
143 0.001997
162 0.001995
172 0.002047
186 0.000967
194 0.00102
199 0.001987
179 0.001012
136 0.001036
97 0.001064
88 0.000997
89 0.001007
94 0.000997
100 0.00203
118 0.001987
127 0.000992
133 0.000997
136 0.001948
142 0.000999
152 0.0
162 0.000998
175 0.000966
184 0.000998
193 0.001049
199 0.000998
205 0.000995
204 0.000997
168 0.000997
126 0.000998
116 0.00097
117 0.001996
121 0.0
128 0.000999
140 0.0
148 0.0
153 0.000999
155 0.000997
159 0.001009
170 0.000998
180 0.001008
191 0.000997
200 0.000998
209 0.000997
218 0.000965
226 0.001
226 0.000997
195 0.0
158 0.0
138 0.0
134 0.0
138 0.0
142 0.0
152 0.000989
162 0.0
168 0.000997
170 0.000998
173 0.000999
182 0.000998
190 0.0
199 0.000998
208 0.000997
217 0.000899
142 0.0
236 0.0
231 0.0
197 0.0
165 0.0
149 0.0
146 0.0
150 0.000999
154 0.0
160 0.0
168 0.0
176 0.0
177 0.001008
179 0.001006
187 0.001008
193 0.0
200 0.0
207 0.0
216 0.0
224 0.0
229 0.0
236 0.0
215 0.0
156 0.0
143 0.0
143 0.0
150 0.0
155 0.0
162 0.0
170 0.0
174 0.0
173 0.0
174 0.000999
178 0.000998
184 0.0
195 0.0
203 0.0
207 0.0
215 0.0
220 0.0
200 0.0
161 0.0
134 0.0
122 0.000998
123 0.0
129 0.0
134 0.0
147 0.000997
150 0.0
151 0.0
153 0.0
157 0.0
166 0.001018
171 0.0
180 0.0
188 0.002044
196 0.002032
193 0.0
159 0.001002
102 0.0
90 0.0
88 0.0
91 0.002041
95 0.002026
105 0.0
111 0.0
115 0.0
118 0.002025
119 0.00204
125 0.0
133 0.0
147 0.0
155 0.0
163 0.0
170 0.0
154 0.001029
114 0.001
76 0.0
69 0.000997
69 0.000963
76 0.002016
83 0.001995
96 0.0
105 0.001996
108 0.0
110 0.0
115 0.0
123 0.001965
132 0.002022
139 0.000994
153 0.0
162 0.0
162 0.001028
130 0.001057
82 0.0
67 0.001029
72 0.001023
79 0.0
88 0.0
97 0.002025
103 0.002038
102 0.0
101 0.00094
105 0.0
113 0.002027
122 0.00204
134 0.000975
146 0.001029
152 0.0
124 0.0
97 0.000997
61 0.000998
56 0.001995
64 0.0
71 0.0
80 0.0
90 0.001994
95 0.001995
96 0.0
100 0.000998
108 0.0
117 0.0
126 0.000985
134 0.001995
143 0.001995
134 0.0
93 0.0
57 0.0
43 0.002029
42 0.002031
52 0.002021
60 0.002027
75 0.0
83 0.0
87 0.0
90 0.001037
95 0.00103
105 0.000966
115 0.0
125 0.0
135 0.000998
143 0.002041
104 0.002029
66 0.002026
44 0.0
43 0.0
48 0.0
56 0.002031
66 0.002994
81 0.000999
89 0.000992
93 0.000965
98 0.001028
105 0.001961
120 0.00104
131 0.002018
145 0.0
156 0.0
155 0.0
125 0.001997
89 0.001991
69 0.0
70 0.0
75 0.0
82 0.001023
93 0.000993
112 0.001995
118 0.00195
124 0.001043
131 0.0
140 0.001003
150 0.001995
159 0.001989
174 0.000941
183 0.0
191 0.000968
186 0.002001
155 0.002026
113 0.001995
110 0.001995
116 0.001998
123 0.0
131 0.0
140 0.00203
148 0.002038
153 0.00203
157 0.000962
164 0.0
172 0.002031
181 0.002031
194 0.002035
202 0.002031
211 0.001014
215 0.000965
197 0.001996
162 0.002993
140 0.003031
136 0.002024
140 0.002014
145 0.002003
151 0.001995
160 0.002027
167 0.001956
166 0.002011
170 0.001022
176 0.001006
183 0.001003
198 0.002992
207 0.000996
213 0.001983
220 0.000991
213 0.002992
180 0.003029
139 0.003023
134 0.002993
137 0.000996
140 0.002015
145 0.002012
153 0.002992
158 0.003025
160 0.001982
161 0.00203
166 0.002
172 0.002032
179 0.002041
191 0.001995
198 0.001962
205 0.002973
213 0.000984
214 0.00103
187 0.001027
150 0.001995
128 0.002955
119 0.000998
119 0.000999
121 0.001032
129 0.001958
136 0.000987
140 0.003028
140 0.002993
143 0.001996
148 0.001984
153 0.001999
161 0.003033
169 0.002992
178 0.002003
185 0.001028
191 0.001996
197 0.00103
171 0.001995
134 0.002992
112 0.003026
105 0.001
106 0.000984
109 0.000999
113 0.002989
120 0.003043
128 0.000963
129 0.002011
131 0.001995
138 0.00199
145 0.001998
152 0.002992
159 0.002992
170 0.001035
177 0.001012
182 0.001997
190 0.003989
191 0.003017
151 0.001999
118 0.002022
104 0.002013
105 0.001988
108 0.001994
112 0.002992
120 0.003007
127 0.001034
128 0.00199
129 0.001972
132 0.003022
136 0.00399
145 0.001999
153 0.001987
161 0.001955
173 0.001962
180 0.002012
188 0.002991
184 0.003033
139 0.001993
109 0.002001
98 0.001999
98 0.002986
101 0.003039
107 0.002029
115 0.001999
121 0.001954
126 0.001965
125 0.00196
129 0.00399
135 0.003989
144 0.001993
152 0.002006
159 0.002006
168 0.003051
175 0.002992
185 0.001997
181 0.002003
146 0.002018
89 0.001964
78 0.002009
78 0.004021
81 0.003989
85 0.001995
93 0.001994
100 0.001998
105 0.003028
107 0.003023
111 0.002994
116 0.003
123 0.001998
137 0.001991
147 0.001992
156 0.004999
164 0.003989
173 0.002003
152 0.001016
112 0.002966
81 0.00502
70 0.004039
71 0.003003
76 0.002035
83 0.002989
99 0.002981
106 0.002995
108 0.004025
110 0.003989
117 0.002031
124 0.002008
132 0.001987
141 0.00402
151 0.003974
161 0.001986
170 0.001976
166 0.00299
104 0.002992
79 0.002997
73 0.003989
78 0.003989
87 0.002999
95 0.002016
105 0.001993
112 0.003991
113 0.004026
115 0.002004
119 0.002993
130 0.002992
139 0.002995
147 0.002997
154 0.00399
163 0.004025
156 0.002993
116 0.002988
80 0.002994
63 0.004027
62 0.003995
71 0.002962
78 0.002952
93 0.003006
99 0.002992
101 0.002986
102 0.004987
107 0.005032
113 0.005028
124 0.002999
134 0.002996
142 0.002977
150 0.004989
143 0.00502
90 0.002987
49 0.004986
38 0.002979
41 0.002998
46 0.002952
53 0.004987
63 0.004986
73 0.002991
76 0.001996
78 0.003996
83 0.005016
87 0.016968
101 0.002017
115 0.005022
127 0.002972
114 0.003
77 0.002989
43 0.004986
27 0.005002
28 0.002956
34 0.002991
40 0.00399
51 0.004987
62 0.005018
68 0.003014
73 0.004987
82 0.003043
90 0.002994
100 0.002996
109 0.004986
119 0.004985
127 0.002984
100 0.00399
62 0.003963
40 0.00502
35 0.004987
42 0.002971
51 0.005023
67 0.00302
75 0.002994
79 0.003974
82 0.004986
87 0.004992
98 0.00396
108 0.00399
119 0.003988
129 0.005983
139 0.005948
139 0.002996
93 0.006039
61 0.003993
58 0.004
64 0.003978
70 0.004981
80 0.004975
93 0.003989
100 0.003003
102 0.002992
105 0.004987
110 0.005965
122 0.003989
135 0.005984
147 0.003987
158 0.002992
166 0.002993
157 0.005989
121 0.005984
81 0.002994
74 0.003991
74 0.004987
77 0.004986
83 0.004988
95 0.004026
107 0.005984
112 0.003951
116 0.00397
123 0.003955
131 0.005984
140 0.005984
153 0.002996
163 0.003988
171 0.00399
178 0.005019
165 0.006015
102 0.005977
84 0.006034
78 0.003982
80 0.003976
83 0.004985
90 0.005984
100 0.00598
111 0.003988
114 0.004006
117 0.004
122 0.005951
130 0.005989
145 0.005986
154 0.005949
166 0.004994
174 0.00495
181 0.004951
185 0.006001
163 0.00599
114 0.004977
93 0.003986
86 0.003993
87 0.005986
88 0.005971
98 0.006981
107 0.006015
116 0.004968
118 0.004021
120 0.003987
126 0.006019
134 0.005959
145 0.003958
154 0.003978
164 0.003978
171 0.005981
177 0.00698
187 0.006981
171 0.006981
121 0.004972
98 0.004008
91 0.004029
93 0.005984
95 0.005987
100 0.003984
110 0.003992
117 0.003989
119 0.006982
119 0.006981
127 0.006982
135 0.00698
146 0.004986
155 0.005984
163 0.005029
171 0.00602
176 0.006017
184 0.005002
185 0.003987
155 0.004988
115 0.006984
91 0.006977
84 0.007019
86 0.007012
91 0.004991
99 0.004986
106 0.005013
110 0.007023
111 0.005983
114 0.00597
122 0.003996
130 0.003982
139 0.00499
150 0.006981
164 0.004987
172 0.006981
179 0.006979
188 0.004988
185 0.004994
150 0.004995
107 0.007934
82 0.006999
73 0.003975
73 0.004982
75 0.004983
80 0.006979
94 0.004987
100 0.007021
104 0.00798
109 0.005
116 0.004991
125 0.004989
135 0.006982
149 0.007974
158 0.005998
167 0.005976
174 0.005957
181 0.006948
182 0.005983
146 0.007025
106 0.006982
82 0.004996
81 0.004994
84 0.004997
88 0.006975
94 0.007975
106 0.005034
113 0.005979
115 0.005985
118 0.006972
129 0.006007
138 0.006982
148 0.006991
162 0.004981
172 0.004984
180 0.00498
192 0.007952
196 0.007963
174 0.005969
136 0.006011
107 0.006024
104 0.005965
107 0.005985
113 0.006983
123 0.00698
136 0.004989
140 0.005988
143 0.005014
144 0.006961
151 0.007979
159 0.005978
168 0.005985
176 0.005948
189 0.005987
197 0.005987
204 0.007982
206 0.008015
166 0.005024
123 0.005023
98 0.004964
91 0.00797
93 0.007956
97 0.005978
101 0.005968
110 0.005979
120 0.005984
123 0.005988
126 0.006982
133 0.007979
147 0.005982
156 0.005976
164 0.005983
176 0.007962
185 0.007975
194 0.005974
188 0.005975
151 0.005985
97 0.005985
89 0.005984
90 0.00798
92 0.007979
101 0.00598
113 0.006963
118 0.00699
124 0.007973
128 0.007975
129 0.005933
135 0.00698
141 0.00599
154 0.005991
163 0.005988
170 0.007979
179 0.007989
167 0.005995
112 0.006961
83 0.006978
74 0.007984
73 0.007947
79 0.006986
86 0.006981
94 0.005992
107 0.005984
109 0.006003
109 0.007979
114 0.007991
120 0.005985
132 0.00698
138 0.006982
149 0.007018
158 0.007014
164 0.006983
141 0.00601
99 0.006988
66 0.006992
67 0.005984
72 0.007979
80 0.008005
93 0.005983
101 0.005994
105 0.006972
106 0.007006
109 0.006981
115 0.006929
123 0.006966
134 0.006981
149 0.006955
157 0.006965
152 0.007973
129 0.00797
73 0.006017
51 0.005986
46 0.006982
49 0.00701
54 0.007013
62 0.007015
72 0.006978
80 0.006964
87 0.006021
91 0.006991
96 0.006984
104 0.008019
112 0.007022
121 0.006975
130 0.006975
125 0.006984
88 0.007013
52 0.007006
33 0.006958
34 0.007014
42 0.006963
48 0.006976
60 0.006979
73 0.006977
80 0.006025
83 0.006985
89 0.006971
96 0.006981
105 0.006994
113 0.007023
126 0.006978
136 0.007016
115 0.00686
75 0.006983
43 0.006942
41 0.007023
46 0.007023
56 0.005992
66 0.005987
70 0.009958
78 0.000997
88 0.002011
92 0.006961
103 0.007013
114 0.006972
121 0.006974
129 0.006974
142 0.007012
144 0.007017
102 0.005973
69 0.005927
57 0.005979
59 0.006022
64 0.005022
74 0.007001
90 0.007022
99 0.006975
101 0.006976
105 0.005972
110 0.006027
117 0.00602
129 0.005982
137 0.00598
146 0.005983
152 0.006016
135 0.006018
84 0.006028
59 0.007012
58 0.006973
62 0.006033
70 0.00697
80 0.006022
91 0.006014
100 0.005981
102 0.005983
106 0.005983
113 0.006015
121 0.006014
133 0.005933
144 0.006982
153 0.005949
133 0.006988
92 0.006974
65 0.006011
54 0.006022
53 0.006016
56 0.00606
64 0.005983
75 0.005987
88 0.006021
96 0.005982
102 0.006021
112 0.005988
121 0.005977
131 0.005985
141 0.006015
149 0.00602
159 0.005938
145 0.005977
109 0.006014
79 0.005984
65 0.005995
66 0.005973
69 0.006016
80 0.005946
91 0.005952
100 0.005977
103 0.005037
105 0.005024
113 0.006019
121 0.006036
130 0.005995
138 0.006019
146 0.006017
157 0.005983
158 0.006027
116 0.005975
89 0.005036
82 0.005975
86 0.005019
92 0.004988
102 0.004988
114 0.005016
124 0.006
130 0.00599
132 0.006017
138 0.005984
150 0.005985
163 0.005984
173 0.004997
181 0.005019
189 0.005037
197 0.005008
190 0.004991
158 0.005019
131 0.005016
122 0.005028
122 0.006036
128 0.006024
135 0.006022
149 0.005985
157 0.005982
162 0.005021
165 0.005984
171 0.005027
181 0.00502
190 0.004924
199 0.005017
208 0.005059
216 0.005027
228 0.005022
229 0.00501
207 0.005023
171 0.004987
162 0.00504
162 0.005051
165 0.005042
169 0.005019
176 0.004983
185 0.005027
192 0.005017
195 0.005019
200 0.004999
206 0.004999
214 0.004983
225 0.004988
235 0.004989
243 0.004988
250 0.004959
255 0.004992
255 0.005031
255 0.005017
227 0.004976
201 0.005018
194 0.004985
199 0.005031
204 0.005016
209 0.004988
218 0.004945
223 0.005055
225 0.004989
225 0.00499
229 0.005023
234 0.00502
240 0.005027
245 0.005032
254 0.005033
255 0.004997
255 0.004024
255 0.003977
255 0.004025
255 0.000972
239 0.004023
221 0.003957
224 0.005019
232 0.005032
238 0.005035
243 0.00497
193 0.004986
194 0.004944
194 0.004989
195 0.004989
197 0.005032
198 0.00499
200 0.004988
201 0.005016
203 0.003991
204 0.004018
204 0.003989
205 0.004033
192 0.003948
177 0.005029
171 0.003989
172 0.004001
173 0.004987
174 0.003991
175 0.00499
176 0.004988
176 0.00498
175 0.00399
176 0.005025
178 0.005031
181 0.005022
184 0.004983
186 0.00396
189 0.004027
190 0.004028
192 0.003991
191 0.003986
178 0.003992
158 0.004035
153 0.00399
151 0.003952
151 0.004022
153 0.003948
154 0.00399
156 0.004988
156 0.003992
154 0.003976
154 0.004042
155 0.00399
157 0.00399
160 0.003991
163 0.003032
166 0.003993
169 0.003991
169 0.003991
159 0.003991
143 0.003018
129 0.002992
126 0.004033
127 0.002993
127 0.003998
129 0.003959
131 0.004022
133 0.004024
134 0.004031
136 0.004025
139 0.003991
143 0.003944
155 0.00399
159 0.003991
164 0.003948
167 0.002947
171 0.003066
161 0.003991
130 0.00402
115 0.004001
111 0.00399
113 0.003963
114 0.003993
117 0.004022
124 0.00399
131 0.003993
128 0.003992
124 0.002994
122 0.002994
123 0.002993
125 0.003006
124 0.004033
123 0.003006
126 0.003992
113 0.003024
92 0.003991
79 0.00399
78 0.003991
81 0.002994
85 0.002994
92 0.003019
97 0.002992
98 0.003992
98 0.002994
100 0.002993
106 0.003058
112 0.003031
117 0.003017
121 0.003993
128 0.003991
123 0.003951
100 0.003992
82 0.004025
75 0.002994
76 0.002986
79 0.003042
86 0.002994
96 0.003039
99 0.003013
99 0.003025
100 0.003022
104 0.003025
109 0.004029
113 0.003024
119 0.002958
126 0.00303
129 0.003987
103 0.003998
84 0.00295
78 0.003022
80 0.003031
83 0.003025
89 0.003018
91 0.003023
92 0.003024
81 0.003982
81 0.003989
84 0.00306
88 0.001965
98 0.003954
106 0.003012
111 0.002987
89 0.003022
56 0.003027
39 0.002994
31 0.002959
30 0.003027
35 0.002992
40 0.002027
45 0.002987
50 0.003021
51 0.002993
50 0.003054
58 0.003027
64 0.003055
70 0.002978
76 0.003001
83 0.003057
87 0.002992
59 0.003029
26 0.003033
7 0.00303
3 0.002993
6 0.003025
10 0.002983
23 0.003997
32 0.002992
36 0.003024
37 0.001996
41 0.00304
51 0.003022
53 0.013963
59 0.0
78 0.003006
87 0.002012
99 0.002034
92 0.003032
54 0.001992
37 0.003
35 0.003033
39 0.003018
44 0.003032
53 0.003026
63 0.002035
70 0.003033
76 0.00303
80 0.002992
89 0.002993
101 0.002993
116 0.001996
127 0.002991
136 0.001987
144 0.001996
151 0.003068
140 0.002978
115 0.002995
101 0.002042
101 0.00204
107 0.002993
120 0.002975
134 0.001977
147 0.001994
151 0.002047
154 0.002033
160 0.002025
167 0.001994
178 0.001995
187 0.001995
193 0.002042
200 0.000999
208 0.002047
217 0.00204
207 0.001996
176 0.002027
170 0.001996
176 0.002031
185 0.003013
194 0.001996
206 0.002008
213 0.00202
218 0.00301
221 0.000999
224 0.001996
149 0.000997
238 0.000997
245 0.002031
251 0.002004
255 0.001996
255 0.001996
255 0.001996
255 0.001987
236 0.002037
222 0.002056
222 0.001032
228 0.000962
239 0.001024
247 0.000961
252 0.001995
255 0.001995
254 0.00201
255 0.002023
255 0.001996
255 0.001995
255 0.002008
255 0.002035
255 0.002044
255 0.000999
255 0.000998
255 0.000998
237 0.002
149 0.002028
236 0.000998
243 0.002044
249 0.002027
255 0.002028
196 0.001027
197 0.000999
198 0.000999
197 0.001045
198 0.000965
200 0.000998
202 0.001
204 0.000998
205 0.002035
207 0.002031
209 0.002026
198 0.002029
185 0.002005
181 0.001959
182 0.002001
184 0.002013
187 0.001995
190 0.002027
192 0.000998
192 0.000997
191 0.001024
191 0.001995
192 0.000999
193 0.002047
195 0.001985
197 0.00199
198 0.000997
199 0.002041
198 0.002045
185 0.000999
174 0.000969
170 0.000966
172 0.000998
175 0.001996
177 0.000997
179 0.000997
181 0.002024
182 0.002029
181 0.000997
181 0.000997
183 0.001996
184 0.0
185 0.001068
187 0.000998
189 0.001007
189 0.000998
189 0.001016
179 0.000998
164 0.000998
160 0.000997
161 0.001001
164 0.000998
166 0.000986
169 0.000997
171 0.0
171 0.0
170 0.0
170 0.001009
171 0.000998
172 0.001004
174 0.001011
176 0.000997
178 0.000997
255 0.000976
253 0.000998
218 0.001006
190 0.000988
182 0.0
187 0.0
193 0.0
198 0.0
203 0.0
204 0.000997
202 0.000998
200 0.00103
199 0.000998
202 0.001041
204 0.000998
207 0.000997
212 0.000998
213 0.000998
215 0.0
213 0.0
179 0.0
131 0.0
119 0.000954
124 0.0
131 0.0
135 0.0
140 0.0
142 0.0
137 0.001013
135 0.000997
138 0.0
140 0.0
145 0.0
149 0.0
154 0.0
156 0.0
159 0.0
128 0.0
91 0.0
74 0.0
77 0.0
81 0.0
87 0.0
93 0.000998
99 0.000986
98 0.000997
97 0.000997
98 0.001022
100 0.000998
108 0.000965
113 0.0
128 0.0
134 0.0
145 0.0
132 0.0
91 0.0
62 0.000969
48 0.0
43 0.002029
46 0.001009
47 0.000998
61 0.0
65 0.0
69 0.000999
74 0.002029
81 0.002027
93 0.0
103 0.0
109 0.000994
115 0.00205
118 0.002055
115 0.001012
76 0.0
17 0.001013
5 0.000997
3 0.0
5 0.001995
7 0.002001
11 0.0
12 0.0
12 0.000948
10 0.002003
10 0.001995
16 0.0
26 0.001987
35 0.001027
43 0.001006
50 0.0
56 0.001996
41 0.002014
0 0.0
0 0.0
0 0.0
0 0.002022
0 0.001995
0 0.0
0 0.002993
0 0.0
0 0.000997
0 0.001039
0 0.002034
0 0.002027
0 0.0
6 0.0
15 0.0
22 0.0
30 0.002028
26 0.002029
0 0.001987
0 0.002032
0 0.000947
0 0.0
0 0.000951
0 0.00201
0 0.002044
0 0.000986
0 0.0
0 0.0
0 0.002028
0 0.002029
7 0.002026
17 0.001995
30 0.000998
39 0.0
48 0.000957
30 0.002027
0 0.002042
41 0.000964
38 0.0
38 0.0
40 0.002053
44 0.002047
51 0.003023
54 0.002027
55 0.0
58 0.0
63 0.000967
68 0.002029
73 0.003041
81 0.0
87 0.0
91 0.0
97 0.002037
100 0.002034
74 0.002023
62 0.002028
59 0.0
68 0.0
80 0.001001
88 0.002025
97 0.002029
109 0.000965
112 0.0
114 0.0
117 0.002028
121 0.002044
126 0.002045
131 0.001995
139 0.0
144 0.0
148 0.0
144 0.002028
128 0.001997
107 0.0
99 0.000975
97 0.000969
98 0.002002
99 0.001987
104 0.002044
105 0.002042
106 0.0
107 0.0
109 0.002038
112 0.0
130 0.001996
180 0.0
229 0.0
198 0.0
223 0.003036
250 0.002021
198 0.002042
195 0.002035
193 0.0
190 0.000965
185 0.001006
180 0.002026
175 0.002039
169 0.000934
164 0.001013
158 0.000995
154 0.002043
150 0.002004
146 0.002048
144 0.001995
143 0.0
142 0.0
141 0.0
140 0.001997
135 0.002027
125 0.0
120 0.0
117 0.0
116 0.002041
114 0.00095
114 0.002994
115 0.002993
115 0.001023
114 0.0
114 0.0
115 0.00201
116 0.002028
117 0.0
118 0.002006
120 0.0
121 0.002013
123 0.0
121 0.002993
115 0.002992
110 0.0
109 0.0
109 0.0
110 0.002037
111 0.003001
112 0.0
113 0.0
114 0.0
114 0.002024
116 0.000988
117 0.002992
118 0.002993
120 0.002977
122 0.003008
123 0.002028
124 0.004021
125 0.002022
122 0.002032
116 0.001998
112 0.0
111 0.002993
111 0.001994
112 0.002993
113 0.002992
107 0.002001
108 0.00299
109 0.001994
109 0.002993
110 0.002992
113 0.002011
115 0.001982
117 0.001989
119 0.003025
122 0.001996
123 0.002999
120 0.002977
109 0.001996
104 0.001995
102 0.002006
103 0.003011
104 0.003035
106 0.002992
109 0.002036
111 0.001983
112 0.001979
112 0.002008
113 0.000995
115 0.003033
117 0.002992
120 0.001977
122 0.0
124 0.001979
126 0.003031
124 0.002992
113 0.001996
106 0.001995
104 0.001994
104 0.002985
105 0.001978
107 0.002982
110 0.002991
112 0.001985
113 0.002945
114 0.001995
115 0.003992
117 0.002993
120 0.00199
122 0.001981
124 0.001997
128 0.001988
126 0.002024
118 0.003989
110 0.002993
104 0.001997
103 0.001979
103 0.001978
103 0.002992
104 0.004021
107 0.001998
109 0.004
110 0.002044
111 0.002039
113 0.002053
116 0.004104
119 0.004021
123 0.001984
126 0.001996
122 0.001988
130 0.003027
107 0.00399
45 0.00203
17 0.001975
6 0.001991
11 0.00199
16 0.002003
24 0.003987
35 0.003989
46 0.001994
50 0.002026
55 0.001995
62 0.002982
72 0.002993
85 0.001989
97 0.001996
114 0.002002
122 0.003961
127 0.001978
94 0.00399
51 0.003989
20 0.001999
20 0.002001
25 0.002045
31 0.00403
38 0.002986
52 0.001995
56 0.001977
59 0.002001
65 0.001991
72 0.001995
82 0.003989
93 0.003981
108 0.001994
118 0.002047
130 0.001983
122 0.003989
80 0.003985
31 0.002024
17 0.001994
19 0.001996
24 0.001992
32 0.001995
47 0.003989
54 0.003989
59 0.002
62 0.001993
69 0.002001
81 0.003989
92 0.004986
108 0.001976
120 0.002013
138 0.001991
118 0.001993
72 0.001991
37 0.004037
20 0.004027
16 0.001995
21 0.002989
29 0.002945
40 0.004987
54 0.004988
63 0.00302
67 0.001989
78 0.002004
89 0.001992
102 0.002014
113 0.003965
125 0.003989
141 0.001992
133 0.001995
89 0.001991
42 0.004986
18 0.00502
9 0.002992
8 0.002979
21 0.001996
36 0.001994
50 0.002
59 0.003989
67 0.00399
77 0.001996
84 0.001995
95 0.002995
108 0.004986
121 0.00502
138 0.003001
150 0.002994
143 0.002978
95 0.002998
49 0.001988
25 0.004023
18 0.00499
21 0.003022
26 0.002963
38 0.00299
53 0.005023
65 0.005019
74 0.002998
81 0.002947
98 0.002991
110 0.002962
123 0.002001
136 0.005026
149 0.005018
162 0.003016
173 0.002014
163 0.001993
116 0.002999
70 0.004986
49 0.003993
46 0.002981
50 0.00499
61 0.003009
75 0.002992
85 0.002994
90 0.004994
94 0.004988
103 0.002959
113 0.00301
125 0.001982
139 0.004986
151 0.005984
172 0.005988
183 0.004965
161 0.002993
116 0.002993
83 0.003021
73 0.005019
75 0.005026
85 0.002985
97 0.001983
110 0.004029
121 0.005028
127 0.005022
135 0.005992
141 0.005984
154 0.002997
166 0.002975
177 0.00298
188 0.005038
198 0.004987
203 0.003979
171 0.002997
126 0.00298
98 0.005021
91 0.004985
97 0.006007
103 0.004956
117 0.00399
128 0.003014
135 0.002991
143 0.006014
146 0.005984
157 0.002995
168 0.002992
173 0.002982
181 0.005029
190 0.005034
208 0.004992
195 0.005971
138 0.003995
106 0.002987
93 0.003981
92 0.005985
96 0.006013
104 0.002989
115 0.002986
126 0.002994
130 0.004983
134 0.005022
142 0.005993
150 0.005984
165 0.003959
177 0.003016
191 0.003995
202 0.006018
211 0.005997
197 0.004023
152 0.002995
115 0.003027
98 0.006035
95 0.006022
101 0.00497
105 0.006005
115 0.005981
121 0.000999
124 0.010963
130 0.005967
134 0.005984
143 0.003973
151 0.00399
160 0.003035
169 0.005984
180 0.006993
193 0.005984
171 0.005945
111 0.003984
87 0.003993
81 0.00399
84 0.005984
90 0.006018
102 0.003997
113 0.004007
122 0.003985
127 0.006023
129 0.006982
140 0.006987
149 0.006949
161 0.003982
172 0.003989
183 0.003981
194 0.006041
193 0.005984
143 0.003998
104 0.004007
88 0.004972
87 0.006982
93 0.007016
104 0.00698
114 0.006982
124 0.003987
126 0.004002
126 0.003992
130 0.006029
138 0.005984
150 0.003996
160 0.003009
170 0.003997
179 0.007036
182 0.003996
144 0.00698
100 0.006975
74 0.003994
70 0.004001
72 0.003993
77 0.006019
85 0.006025
99 0.003992
105 0.004002
110 0.00497
114 0.007015
126 0.00399
137 0.006978
150 0.00699
164 0.004001
174 0.003994
179 0.003985
154 0.005984
110 0.005984
74 0.003997
68 0.004987
70 0.004979
74 0.007014
86 0.004998
97 0.00698
104 0.006998
108 0.004038
113 0.004003
123 0.00403
135 0.004029
146 0.005989
160 0.00702
179 0.004987
190 0.004989
196 0.004986
144 0.00499
108 0.005005
97 0.006998
97 0.006986
106 0.004996
115 0.003989
127 0.003984
139 0.007979
146 0.007979
152 0.005
157 0.004991
166 0.004989
185 0.004986
197 0.004997
207 0.007004
218 0.006975
127 0.003972
210 0.004998
171 0.005994
145 0.007965
138 0.007973
143 0.004976
150 0.005005
159 0.004987
175 0.00499
179 0.005119
180 0.00698
184 0.007978
190 0.005993
198 0.005001
207 0.005019
219 0.007967
224 0.007978
237 0.004978
127 0.00499
194 0.004965
145 0.004983
138 0.003986
142 0.006958
148 0.006988
159 0.004986
170 0.00599
176 0.006019
179 0.007979
180 0.007979
185 0.00497
195 0.005009
203 0.004954
217 0.004951
226 0.004986
235 0.00701
227 0.006979
173 0.005984
140 0.005975
127 0.005993
125 0.00799
130 0.007981
136 0.005959
143 0.005018
152 0.005985
158 0.004996
160 0.005985
163 0.006974
168 0.007978
180 0.005987
191 0.005984
202 0.005981
211 0.007978
199 0.007976
157 0.005953
122 0.005986
106 0.005987
103 0.007979
103 0.0
105 0.0
112 0.0
134 0.005946
137 0.005967
139 0.005968
143 0.007953
151 0.007967
164 0.005976
173 0.006015
188 0.005979
197 0.005985
180 0.005992
128 0.007946
105 0.007007
101 0.005985
104 0.005983
112 0.005975
126 0.007027
137 0.00701
145 0.005971
151 0.005983
160 0.005976
168 0.005985
177 0.005986
190 0.007967
200 0.007967
210 0.005996
219 0.006973
205 0.006949
158 0.007012
139 0.006981
138 0.005939
145 0.005975
161 0.005993
171 0.005973
178 0.005973
182 0.007973
182 0.007973
188 0.005974
196 0.006976
204 0.006022
217 0.006982
225 0.006974
233 0.006015
238 0.005979
198 0.00598
167 0.005971
157 0.005982
163 0.007975
169 0.006982
179 0.006972
184 0.006981
192 0.006977
193 0.007013
195 0.007029
199 0.006055
205 0.005984
219 0.005987
228 0.005982
236 0.005983
249 0.007024
237 0.007022
201 0.006971
166 0.00695
162 0.006978
164 0.006982
169 0.007017
174 0.006983
185 0.006973
192 0.007022
193 0.005985
199 0.005967
202 0.005967
208 0.00702
216 0.00703
226 0.006951
235 0.006949
239 0.006974
219 0.007018
182 0.006972
154 0.005983
143 0.006986
147 0.005976
150 0.005972
153 0.005984
158 0.007005
160 0.007022
159 0.006941
160 0.00699
165 0.00698
171 0.007015
179 0.006984
186 0.006906
196 0.006979
196 0.005989
166 0.005979
129 0.005982
109 0.005989
105 0.006033
107 0.006985
111 0.006972
115 0.006982
121 0.007014
125 0.006983
126 0.006978
129 0.006981
135 0.006981
144 0.005984
152 0.005984
161 0.006001
169 0.006016
179 0.006002
162 0.006008
123 0.005982
93 0.007028
82 0.007016
86 0.007016
91 0.006976
99 0.006024
106 0.005988
110 0.005987
109 0.006019
109 0.005986
116 0.005995
123 0.00597
130 0.005974
140 0.005995
149 0.006976
162 0.006992
147 0.005972
93 0.006
68 0.005988
61 0.005982
65 0.005969
71 0.006013
80 0.005985
88 0.005953
94 0.005984
95 0.00699
96 0.005989
105 0.007022
112 0.006014
123 0.006024
132 0.005981
140 0.006018
148 0.006015
140 0.006015
87 0.005983
56 0.005953
44 0.005995
45 0.005984
49 0.005985
64 0.006015
72 0.005021
80 0.00501
81 0.004967
83 0.004986
89 0.005983
97 0.00601
109 0.00598
119 0.005954
129 0.005985
136 0.002995
131 0.006032
63 0.00599
35 0.005022
26 0.005015
30 0.005986
36 0.004977
45 0.005021
55 0.005019
63 0.004987
67 0.004954
71 0.005951
76 0.004988
85 0.005989
102 0.006026
112 0.006047
127 0.005984
129 0.00598
97 0.005967
56 0.006028
30 0.00502
26 0.0
27 0.0
36 0.004955
45 0.005022
57 0.005987
68 0.005983
72 0.005985
80 0.005994
89 0.005984
99 0.005984
111 0.005986
122 0.005021
138 0.00504
140 0.006008
105 0.004987
65 0.004975
43 0.005019
41 0.005029
49 0.005017
63 0.004983
74 0.004988
84 0.005057
88 0.004986
92 0.004985
101 0.005954
108 0.004988
119 0.004971
130 0.005014
141 0.005949
158 0.005037
141 0.004983
86 0.005992
59 0.004983
55 0.005021
60 0.005994
70 0.005026
84 0.004954
96 0.004987
103 0.004957
108 0.00499
112 0.004987
125 0.005012
134 0.005026
145 0.00502
159 0.004988
168 0.004022
176 0.004019
153 0.005032
110 0.00501
77 0.004957
76 0.005028
81 0.004987
95 0.003986
106 0.004977
114 0.005017
118 0.004014
121 0.004965
125 0.004985
133 0.004029
143 0.003988
153 0.003991
165 0.005005
176 0.004948
176 0.004958
112 0.004988
83 0.004988
76 0.005034
80 0.004995
89 0.005011
99 0.004979
109 0.004986
115 0.003989
114 0.004024
117 0.004023
122 0.004003
128 0.003961
145 0.003989
154 0.004877
165 0.005037
167 0.00503
120 0.004026
81 0.004987
64 0.005021
64 0.004025
69 0.004982
79 0.004017
87 0.004025
93 0.003989
97 0.003991
102 0.004022
107 0.003952
116 0.003989
131 0.00399
140 0.004993
150 0.005
158 0.004022
138 0.004012
76 0.004023
48 0.003951
37 0.003952
41 0.003996
49 0.00399
59 0.003985
69 0.00399
76 0.003971
78 0.003959
81 0.003978
87 0.00399
98 0.005016
110 0.00395
121 0.003991
131 0.00403
89 0.004988
47 0.003954
23 0.003026
15 0.004035
19 0.003962
24 0.004025
37 0.004023
48 0.003997
56 0.003949
60 0.003989
64 0.00403
72 0.00401
90 0.003025
101 0.003941
114 0.002996
125 0.002992
103 0.004024
60 0.003983
28 0.00396
16 0.004029
16 0.00399
25 0.004002
34 0.003952
46 0.004025
60 0.004051
63 0.004046
67 0.002993
76 0.002992
89 0.004036
101 0.003039
113 0.002992
124 0.002995
134 0.00399
114 0.003944
73 0.003991
47 0.004045
44 0.003989
52 0.003028
60 0.002993
71 0.002986
85 0.002974
91 0.003036
94 0.003027
99 0.002962
106 0.00295
121 0.00399
133 0.00399
153 0.004032
166 0.00396
178 0.002958
165 0.003001
123 0.002992
86 0.002984
79 0.002995
80 0.003018
84 0.002992
92 0.003025
107 0.002996
116 0.00404
123 0.00399
129 0.003993
136 0.003992
144 0.002994
156 0.002994
173 0.002995
184 0.002995
194 0.002992
204 0.002996
200 0.003991
150 0.003991
119 0.004054
107 0.004
112 0.003025
114 0.002001
120 0.003019
133 0.002994
142 0.002992
147 0.002993
151 0.002997
157 0.003019
165 0.004014
176 0.003032
192 0.003937
205 0.00299
217 0.003986
224 0.002028
228 0.002025
205 0.001996
164 0.001981
133 0.003036
128 0.002994
130 0.00302
134 0.002995
139 0.00303
150 0.00399
157 0.003023
159 0.002025
162 0.00199
168 0.001995
177 0.003023
186 0.001995
199 0.002028
208 0.002993
215 0.002916
223 0.00304
231 0.003026
209 0.00303
155 0.002993
129 0.002992
125 0.002992
128 0.003023
131 0.002028
136 0.002026
146 0.001992
150 0.002028
151 0.001995
153 0.001996
159 0.001985
170 0.002015
182 0.001998
194 0.00303
205 0.003025
215 0.002041
223 0.001985
232 0.001995
224 0.002034
179 0.002022
136 0.001996
115 0.001996
109 0.002026
110 0.002018
114 0.002026
127 0.002027
133 0.003008
135 0.003034
133 0.001995
134 0.001996
142 0.002042
151 0.002023
163 0.002045
174 0.002071
181 0.001997
192 0.003036
201 0.002022
209 0.001029
190 0.001996
145 0.001997
110 0.002029
97 0.00201
94 0.002027
96 0.002025
101 0.002044
108 0.002035
116 0.001995
119 0.001996
121 0.002
132 0.002031
143 0.002027
151 0.00203
157 0.002028
168 0.002061
178 0.001035
183 0.000989
189 0.000996
193 0.001995
164 0.001997
94 0.002026
77 0.002022
73 0.001979
76 0.001977
80 0.002044
89 0.002027
96 0.002009
99 0.000994
103 0.000997
110 0.000998
122 0.001996
134 0.002017
151 0.001966
160 0.001003
169 0.002046
175 0.002025
181 0.001967
176 0.001968
138 0.00204
84 0.002044
69 0.00203
69 0.001999
73 0.000998
74 0.000998
80 0.000998
85 0.000997
85 0.002011
86 0.000994
91 0.000997
100 0.002033
109 0.00204
125 0.001991
135 0.001034
143 0.002045
149 0.001996
155 0.002035
102 0.000998
55 0.001041
22 0.001993
19 0.000997
22 0.000998
24 0.001996
31 0.001996
42 0.00203
48 0.002028
50 0.001995
50 0.001991
61 0.000999
78 0.000963
94 0.001002
115 0.002052
129 0.001986
142 0.002014
144 0.002026
109 0.002019
46 0.002033
20 0.001995
14 0.001995
25 0.0
38 0.000998
57 0.001012
69 0.000998
79 0.000998
89 0.000999
96 0.000995
109 0.000951
126 0.002044
136 0.000998
146 0.0
156 0.0
170 0.002027
175 0.0
125 0.0
90 0.0
71 0.0
70 0.000999
76 0.000998
80 0.001007
91 0.000998
101 0.000997
112 0.000997
115 0.00099
121 0.000998
129 0.00099
144 0.000997
152 0.000997
155 0.0
163 0.0
172 0.0
151 0.0
114 0.0
89 0.0
83 0.000997
89 0.000997
100 0.000997
111 0.000988
129 0.000999
137 0.0
142 0.0
149 0.0
158 0.0
167 0.0
176 0.0
187 0.0
200 0.0
210 0.000997
210 0.000997
179 0.000988
130 0.0
124 0.0
128 0.0
134 0.0
138 0.0
141 0.0
142 0.0
143 0.0
140 0.0
144 0.0
150 0.0
166 0.0
178 0.000997
189 0.0
200 0.0
194 0.0
148 0.0
111 0.0
98 0.0
96 0.0
102 0.0
108 0.0
116 0.0
123 0.0
120 0.0
120 0.0
126 0.0
137 0.0
147 0.0
157 0.000974
163 0.0
171 0.0
161 0.0
123 0.000997
91 0.000998
71 0.0
72 0.0
77 0.0
81 0.0
90 0.0
94 0.0
96 0.0
100 0.0
107 0.0
118 0.0
125 0.0
135 0.000967
144 0.0
144 0.0
110 0.0
68 0.001004
42 0.00304
39 0.003035
43 0.0
49 0.0
57 0.0
65 0.002027
69 0.002027
71 0.00099
76 0.002991
88 0.0
95 0.0
104 0.0
114 0.002994
123 0.002033
112 0.000972
70 0.0
32 0.0
20 0.002038
22 0.001
25 0.000971
25 0.001994
34 0.0
38 0.0
44 0.0
51 0.002995
59 0.003023
73 0.0
87 0.0
101 0.0
111 0.002025
121 0.002025
104 0.001004
46 0.002028
11 0.0
9 0.000993
15 0.0
19 0.002993
26 0.002992
34 0.000968
35 0.0
37 0.0
42 0.002984
50 0.002989
62 0.000949
76 0.003024
91 0.001008
104 0.0
107 0.0
73 0.001997
27 0.002978
0 0.000966
0 0.0
0 0.0
0 0.002992
0 0.003025
9 0.000966
18 0.002028
21 0.000969
26 0.001017
36 0.0
50 0.000997
65 0.002034
78 0.002996
94 0.0
104 0.0
92 0.0
50 0.002996
0 0.0
0 0.001997
0 0.002983
7 0.0
14 0.0
26 0.001021
33 0.003001
36 0.003031
44 0.0
52 0.0
65 0.0
80 0.003019
105 0.0
119 0.003025
129 0.003026
132 0.0
99 0.000965
56 0.0
33 0.003022
29 0.002993
36 0.0
42 0.001
51 0.000956
64 0.002047
77 0.000957
79 0.001995
86 0.002983
101 0.001999
114 0.000965
127 0.0
140 0.00299
150 0.002994
162 0.000949
167 0.0
143 0.0
100 0.001987
63 0.0
63 0.001991
67 0.002987
73 0.000973
83 0.0
92 0.000997
96 0.002996
97 0.002993
103 0.0
112 0.0
123 0.000995
135 0.003013
155 0.0
166 0.003025
176 0.002028
187 0.0
168 0.0
123 0.0
84 0.002024
70 0.002994
68 0.0
72 0.0
77 0.0
89 0.003022
104 0.0
107 0.002992
110 0.002992
120 0.0
130 0.0
142 0.000997
155 0.003001
166 0.002026
180 0.0
188 0.0
196 0.0
188 0.003001
113 0.0
79 0.003026
69 0.002019
70 0.0
73 0.0
79 0.0
91 0.003023
102 0.002989
106 0.000968
109 0.000968
115 0.000999
125 0.002021
145 0.000969
159 0.002997
172 0.001999
186 0.000989
194 0.000997
204 0.0
194 0.003007
150 0.003038
95 0.000997
79 0.0
75 0.0
78 0.002955
84 0.0
94 0.002995
106 0.002027
114 0.000965
118 0.0
124 0.0
132 0.002958
140 0.002994
156 0.0
168 0.0
179 0.0
193 0.002987
209 0.0
205 0.002981
164 0.003025
106 0.0
88 0.0
83 0.0
86 0.00298
92 0.002993
104 0.0
113 0.000966
120 0.0
125 0.000957
130 0.0
138 0.002998
150 0.003035
168 0.0
181 0.0
192 0.0
201 0.002994
206 0.003037
213 0.002005
187 0.0
138 0.001039
91 0.0
89 0.0
94 0.00402
98 0.003027
113 0.0
123 0.001011
129 0.001004
131 0.003025
129 0.002984
137 0.002999
149 0.001009
161 0.002992
184 0.000954
196 0.002998
202 0.002953
217 0.003949
227 0.003958
176 0.003005
127 0.0
98 0.002023
91 0.002987
94 0.003032
105 0.002995
115 0.00197
134 0.002024
137 0.002995
139 0.002001
147 0.004027
149 0.004024
169 0.003
187 0.0
202 0.002997
215 0.002993
226 0.003027
243 0.002994
233 0.002993
146 0.001992
109 0.002022
96 0.001988
97 0.003989
102 0.003984
112 0.002995
125 0.002989
133 0.002989
136 0.003957
137 0.004029
144 0.002995
150 0.002992
167 0.002986
179 0.003005
191 0.002837
201 0.004028
211 0.004002
202 0.001986
150 0.002992
100 0.002991
76 0.003991
70 0.004025
75 0.001995
83 0.002986
100 0.003033
110 0.001
114 0.002986
116 0.002993
120 0.004029
131 0.002041
141 0.002027
151 0.001993
164 0.00402
175 0.003982
188 0.001987
189 0.002005
114 0.001985
73 0.002991
57 0.002996
58 0.004002
65 0.00399
77 0.002993
89 0.002998
99 0.001998
104 0.003992
106 0.004022
113 0.002009
121 0.001997
140 0.002009
151 0.001995
160 0.002959
170 0.004015
182 0.004991
151 0.002028
99 0.002992
63 0.002993
49 0.004026
50 0.003996
59 0.001996
72 0.004026
87 0.002988
91 0.002992
93 0.002986
97 0.004969
101 0.004986
113 0.001994
125 0.002985
138 0.002996
148 0.003989
158 0.00398
154 0.002995
91 0.003979
45 0.002016
36 0.002028
39 0.002992
45 0.004993
52 0.005012
67 0.002991
75 0.002993
78 0.002991
80 0.004023
85 0.004028
98 0.002991
113 0.004986
127 0.00201
138 0.001993
150 0.001993
146 0.005021
104 0.004986
44 0.002997
27 0.002966
23 0.002959
26 0.005006
34 0.005959
50 0.003995
66 0.004026
73 0.004003
77 0.002017
84 0.002992
93 0.004989
104 0.005
121 0.002001
134 0.002005
146 0.002992
154 0.00498
138 0.004989
74 0.002988
37 0.005984
32 0.002991
37 0.002996
45 0.001995
57 0.005018
71 0.005008
81 0.00498
88 0.003017
95 0.003964
103 0.002009
110 0.004987
119 0.005993
140 0.00602
153 0.005986
166 0.00399
140 0.001994
90 0.002992
56 0.004987
46 0.004986
50 0.001995
56 0.002992
66 0.004987
80 0.005978
89 0.005955
92 0.006029
93 0.006017
101 0.0
111 0.002021
124 0.001981
136 0.005985
147 0.004986
161 0.001987
142 0.001993
94 0.001998
57 0.005019
44 0.004989
50 0.005984
58 0.005937
72 0.003002
82 0.003021
86 0.002991
84 0.005979
86 0.005985
98 0.002973
110 0.001984
122 0.002994
135 0.004971
145 0.004986
154 0.005989
120 0.006019
63 0.00302
45 0.002994
42 0.002991
45 0.006002
53 0.005994
70 0.003002
82 0.001996
88 0.002998
91 0.00497
96 0.00498
111 0.005984
121 0.006017
138 0.002973
148 0.002987
158 0.002994
161 0.005979
130 0.005974
69 0.002997
47 0.002942
40 0.002987
41 0.005985
50 0.003999
62 0.006042
75 0.006017
87 0.002944
92 0.002989
97 0.002998
107 0.00595
119 0.005988
134 0.00298
145 0.00299
159 0.002989
169 0.007003
138 0.00296
89 0.006983
60 0.006981
46 0.003993
45 0.002991
48 0.003005
55 0.005987
70 0.00599
86 0.002998
93 0.003955
97 0.004
104 0.007001
123 0.00399
135 0.007016
148 0.00698
166 0.003983
178 0.002985
189 0.002994
190 0.005963
157 0.005957
103 0.003011
86 0.002992
80 0.002987
83 0.006985
92 0.003952
105 0.006982
120 0.007011
130 0.003991
135 0.003997
142 0.003031
152 0.007013
164 0.005976
183 0.002992
196 0.003989
208 0.002989
220 0.006995
237 0.002978
247 0.006991
231 0.007012
178 0.004013
156 0.003986
152 0.004006
153 0.006976
155 0.006989
158 0.004004
171 0.003989
182 0.003993
188 0.006986
198 0.004011
206 0.006979
216 0.006979
233 0.00399
245 0.003993
255 0.003986
255 0.006996
255 0.006947
255 0.003991
255 0.003988
235 0.00398
210 0.006979
205 0.003997
213 0.007029
218 0.006982
227 0.003982
234 0.003983
235 0.003965
232 0.006994
232 0.006985
239 0.004986
189 0.005003
193 0.004994
198 0.006956
207 0.004973
210 0.007013
213 0.007019
213 0.003991
195 0.003994
181 0.003978
174 0.006984
174 0.007043
176 0.00698
177 0.003946
180 0.003993
184 0.003954
187 0.005005
187 0.003987
188 0.006981
191 0.007982
196 0.004985
200 0.004001
206 0.003994
209 0.00698
212 0.006982
216 0.003992
211 0.004995
182 0.004989
171 0.004975
168 0.004975
168 0.007978
168 0.007973
169 0.003985
173 0.003976
175 0.003998
176 0.006983
175 0.006978
176 0.004955
179 0.004999
