87 0.010975
90 0.003993
94 0.005029
100 0.004984
105 0.003993
111 0.00399
119 0.00396
124 0.004984
128 0.003996
133 0.004987
136 0.00501
140 0.003987
147 0.004986
151 0.004919
104 0.004939
54 0.004918
35 0.004967
33 0.004993
45 0.005016
53 0.00499
58 0.005018
64 0.00503
70 0.005022
73 0.005
71 0.00499
65 0.003971
66 0.005957
70 0.005984
78 0.004986
85 0.005035
98 0.004986
106 0.004988
110 0.005021
117 0.004986
122 0.004987
130 0.00399
133 0.004986
137 0.004975
143 0.005985
149 0.005984
153 0.00599
140 0.004971
46 0.004982
28 0.004987
26 0.00502
34 0.00598
42 0.006026
50 0.005038
52 0.004986
57 0.00502
62 0.005988
63 0.005984
59 0.006017
56 0.006017
64 0.005017
70 0.005019
76 0.005014
84 0.006019
92 0.006016
102 0.005018
106 0.006024
108 0.00501
113 0.004967
118 0.005973
123 0.006983
130 0.006016
135 0.007014
140 0.006017
144 0.006018
149 0.005022
153 0.006015
120 0.006032
56 0.006018
24 0.005028
20 0.005992
28 0.006981
38 0.007051
47 0.006003
53 0.007012
59 0.005981
60 0.006026
55 0.006022
50 0.007021
50 0.007015
57 0.005986
63 0.007031
69 0.006031
77 0.006976
83 0.006982
92 0.006982
97 0.006982
102 0.007008
106 0.007011
111 0.005983
114 0.007031
119 0.006982
124 0.006983
123 0.006982
78 0.006982
37 0.007976
28 0.007976
38 0.007992
44 0.007979
52 0.006982
61 0.006982
65 0.007026
68 0.007023
66 0.006981
59 0.007972
59 0.007038
64 0.007007
70 0.007979
77 0.007979
92 0.007993
98 0.007952
104 0.007015
109 0.006986
115 0.007022
119 0.007978
123 0.007931
127 0.006981
133 0.006979
133 0.007977
80 0.006957
46 0.007932
29 0.006986
34 0.007006
41 0.006981
49 0.007941
52 0.007947
54 0.007005
61 0.007984
62 0.007975
59 0.005985
57 0.007971
60 0.007933
63 0.007979
76 0.006965
81 0.007009
87 0.006996
94 0.006994
98 0.006949
102 0.008008
105 0.006998
108 0.006991
112 0.00699
115 0.006983
118 0.007017
121 0.00702
128 0.006991
133 0.007006
120 0.006982
56 0.007025
30 0.007045
22 0.006994
25 0.006982
33 0.005984
39 0.005982
40 0.006983
42 0.006928
47 0.006971
48 0.006025
46 0.006028
46 0.006017
51 0.006944
56 0.005981
63 0.006027
69 0.006027
75 0.006014
84 0.006016
88 0.006005
92 0.006031
94 0.006017
101 0.005956
105 0.006007
109 0.005983
115 0.006987
120 0.006966
126 0.006977
129 0.006024
135 0.005992
142 0.005976
149 0.006026
155 0.006018
160 0.00599
102 0.005984
58 0.005953
41 0.005972
41 0.005983
50 0.005979
59 0.005981
65 0.00599
69 0.005017
75 0.00497
76 0.005036
70 0.005001
65 0.004987
69 0.005967
76 0.005951
84 0.005973
92 0.005976
100 0.006014
106 0.005937
111 0.004985
116 0.00499
120 0.005008
124 0.005036
129 0.005022
132 0.004987
140 0.004992
141 0.004986
113 0.004974
71 0.004982
45 0.003944
44 0.005
50 0.003997
57 0.00499
62 0.005056
67 0.005034
72 0.005004
75 0.004986
71 0.004977
68 0.004955
70 0.005055
75 0.00494
84 0.004987
92 0.003989
100 0.003992
107 0.003991
112 0.003989
120 0.003997
125 0.003993
128 0.004023
134 0.003956
138 0.003956
143 0.00396
148 0.004005
154 0.003997
160 0.005028
166 0.004989
172 0.003944
155 0.003989
80 0.003989
52 0.00399
44 0.004048
55 0.003995
62 0.00402
67 0.004044
68 0.003958
74 0.003024
77 0.003976
75 0.002948
72 0.002948
71 0.003991
77 0.004022
84 0.003989
91 0.004022
104 0.003943
110 0.003996
117 0.003986
121 0.004004
127 0.003989
134 0.003984
137 0.003039
142 0.00295
146 0.002992
151 0.003024
157 0.002992
164 0.002993
173 0.002952
180 0.003942
188 0.003941
190 0.002934
141 0.00394
68 0.00302
50 0.002989
50 0.002994
58 0.002992
67 0.003034
75 0.002992
81 0.002991
91 0.003032
91 0.002962
87 0.002951
83 0.002027
85 0.002944
93 0.002024
101 0.001962
109 0.001996
119 0.002942
127 0.001999
136 0.001995
141 0.003026
150 0.002949
154 0.002938
158 0.00296
162 0.002948
167 0.003001
173 0.002961
178 0.002973
183 0.002992
154 0.001929
100 0.002051
69 0.003031
66 0.002022
78 0.002038
86 0.002036
92 0.002041
98 0.001996
104 0.001995
104 0.001995
99 0.002
95 0.001963
96 0.002027
102 0.002029
111 0.002026
119 0.002026
131 0.002038
138 0.001964
143 0.000963
148 0.000971
153 0.000997
156 0.001009
160 0.00197
164 0.001999
166 0.001996
171 0.002002
176 0.002005
156 0.001995
88 0.001961
60 0.001003
60 0.001042
67 0.000999
73 0.002013
78 0.00199
82 0.001044
85 0.001033
88 0.000998
88 0.000997
84 0.002015
82 0.000986
88 0.00098
98 0.001001
105 0.000962
112 0.000953
118 0.001035
124 0.00101
128 0.000947
132 0.001002
136 0.0
140 0.000997
143 0.000998
148 0.000997
155 0.0
159 0.0
124 0.0
81 0.0
59 0.000963
55 0.00097
63 0.000958
71 0.000998
75 0.0
79 0.0
83 0.000997
88 0.0
85 0.0
83 0.0
85 0.0
92 0.0
99 0.0
106 0.0
115 0.000999
122 0.0
126 0.0
131 0.0
135 0.0
140 0.0
145 0.001038
149 0.0
154 0.0
156 0.0
129 0.0
93 0.0
73 0.0
74 0.0
81 0.0
88 0.0
94 0.0
98 0.0
104 0.0
100 0.0
96 0.000994
95 0.00097
100 0.0
104 0.0
113 0.0
120 0.00097
125 0.000965
131 0.0
136 0.0
138 0.0
141 0.0
145 0.0
148 0.000963
152 0.000992
157 0.0
155 0.0
119 0.0
88 0.001033
75 0.001039
76 0.0
84 0.0
89 0.001046
92 0.000959
94 0.001043
97 0.002022
97 0.001986
94 0.001053
94 0.001049
97 0.001015
103 0.001996
108 0.001998
113 0.000962
118 0.000998
121 0.000997
129 0.0
131 0.00099
135 0.002014
137 0.001005
141 0.001001
144 0.000959
147 0.000999
152 0.001995
156 0.002043
161 0.001015
183 0.000927
187 0.000997
104 0.001996
66 0.001011
56 0.00201
65 0.002008
82 0.002061
87 0.002047
89 0.001995
91 0.002038
95 0.001994
99 0.001995
96 0.002024
93 0.002027
99 0.001981
109 0.00096
117 0.001
126 0.001996
133 0.002989
139 0.00104
145 0.001981
149 0.00203
153 0.003
156 0.002959
163 0.002025
167 0.00202
175 0.001968
181 0.001981
187 0.001995
195 0.003005
202 0.002009
187 0.00302
130 0.003042
92 0.003027
83 0.00302
95 0.003024
109 0.003029
119 0.002029
129 0.00198
135 0.002059
134 0.001992
127 0.002986
123 0.00299
127 0.002992
135 0.002993
145 0.002991
154 0.00399
161 0.004005
169 0.003035
175 0.00299
182 0.002977
186 0.002987
187 0.003029
190 0.003004
194 0.003002
197 0.002993
203 0.00405
204 0.003026
155 0.00399
104 0.004021
81 0.003023
86 0.003023
103 0.002992
108 0.002985
111 0.003004
113 0.003994
119 0.003973
118 0.002962
113 0.003022
111 0.003024
115 0.004025
118 0.003992
124 0.00404
133 0.00403
151 0.003025
157 0.004141
165 0.00299
171 0.003952
174 0.005016
177 0.005003
182 0.002995
187 0.004019
191 0.003022
196 0.004022
203 0.004988
211 0.003992
221 0.004941
228 0.00396
177 0.004031
107 0.00402
77 0.004985
74 0.004969
89 0.004021
98 0.003982
104 0.004023
104 0.005028
107 0.004986
112 0.004029
109 0.005027
104 0.004039
105 0.003988
110 0.005019
120 0.004994
128 0.004975
138 0.004989
146 0.005019
154 0.005017
161 0.004987
167 0.004989
171 0.004027
178 0.006009
196 0.005044
197 0.004984
198 0.004983
205 0.005984
213 0.005953
219 0.005022
202 0.005022
147 0.005032
68 0.005029
57 0.006017
68 0.006042
94 0.006047
107 0.004967
113 0.003994
121 0.004966
124 0.006014
118 0.006053
109 0.00498
111 0.004986
117 0.00499
126 0.005985
136 0.006015
149 0.005024
160 0.005027
171 0.005014
174 0.005017
181 0.006035
186 0.005996
190 0.006013
194 0.007021
203 0.006032
203 0.005975
146 0.006015
89 0.007037
67 0.00698
78 0.006018
90 0.006019
99 0.005016
102 0.004985
108 0.004993
116 0.006053
120 0.006621
114 0.005953
112 0.006042
116 0.006024
123 0.006029
133 0.005971
148 0.006017
158 0.007013
168 0.00594
174 0.005956
179 0.005978
183 0.006982
186 0.006967
191 0.006014
195 0.006014
199 0.00603
206 0.006992
209 0.006951
115 0.006954
73 0.007921
61 0.006015
71 0.006995
83 0.006987
90 0.006974
93 0.006982
97 0.00704
105 0.007046
110 0.006014
107 0.007027
103 0.007979
109 0.007987
117 0.00799
127 0.007027
135 0.007016
142 0.006981
149 0.007972
156 0.007978
162 0.007031
166 0.007046
170 0.007029
175 0.006981
179 0.007978
189 0.007978
198 0.008002
205 0.007015
192 0.006984
119 0.007013
72 0.007979
59 0.007932
68 0.007037
80 0.007027
91 0.007029
97 0.007012
105 0.007038
109 0.006996
101 0.007031
96 0.006961
100 0.007976
105 0.006975
117 0.007992
124 0.007979
133 0.007978
144 0.006981
150 0.006996
157 0.00703
162 0.007014
170 0.006982
173 0.006987
156 0.006981
91 0.007011
64 0.006979
56 0.007016
64 0.007026
73 0.006985
80 0.006975
83 0.007027
88 0.007026
92 0.006969
83 0.007013
77 0.007
80 0.006982
91 0.007011
100 0.007023
107 0.006983
116 0.006983
122 0.006935
129 0.007025
134 0.006983
136 0.006985
139 0.007026
145 0.006987
145 0.00697
108 0.006952
49 0.006982
30 0.005972
30 0.005984
37 0.005955
41 0.005984
41 0.006017
43 0.006019
47 0.005984
47 0.006032
40 0.005986
39 0.00601
42 0.00601
50 0.005984
57 0.006033
65 0.006013
71 0.005996
74 0.005985
80 0.006013
83 0.005019
84 0.00499
86 0.00497
91 0.005989
96 0.006004
99 0.006
106 0.005987
114 0.006002
117 0.00598
90 0.006031
38 0.005983
4 0.006015
0 0.005023
4 0.004987
11 0.005033
8 0.005001
9 0.004954
13 0.005023
13 0.004989
11 0.006055
9 0.006015
13 0.005033
21 0.005984
29 0.006017
37 0.005034
44 0.005033
50 0.005032
56 0.004992
62 0.004984
66 0.004987
71 0.004986
78 0.004987
83 0.005038
91 0.004032
99 0.00399
105 0.004039
114 0.003996
120 0.003988
105 0.00402
36 0.00499
19 0.00495
21 0.005004
31 0.004986
40 0.004994
44 0.005026
51 0.005018
58 0.005018
57 0.00393
50 0.004038
50 0.004039
56 0.003993
70 0.00401
80 0.004042
87 0.003959
94 0.003967
106 0.004032
128 0.004022
145 0.003942
143 0.003989
141 0.002992
138 0.004044
136 0.003991
135 0.00407
137 0.004176
140 0.003992
144 0.00399
148 0.00396
129 0.004029
58 0.003992
31 0.003991
28 0.003989
37 0.002994
47 0.003022
52 0.002993
52 0.003024
61 0.002993
64 0.002961
61 0.003018
59 0.003958
62 0.003036
72 0.004066
81 0.004028
88 0.00399
95 0.002954
101 0.003033
108 0.003022
113 0.003035
118 0.002993
123 0.002973
129 0.002997
134 0.002994
139 0.003068
146 0.003024
152 0.003
157 0.004058
164 0.002992
169 0.002946
177 0.003958
185 0.001995
190 0.002997
141 0.002994
85 0.003005
62 0.003001
61 0.002945
75 0.002992
84 0.002992
86 0.002024
85 0.001995
92 0.001996
96 0.001995
92 0.001995
88 0.002962
94 0.001964
102 0.001998
113 0.001995
123 0.002026
134 0.001995
140 0.00201
145 0.001995
151 0.002992
155 0.002992
161 0.002998
166 0.001994
174 0.00202
179 0.001985
185 0.001988
192 0.001995
198 0.001995
185 0.001996
132 0.001995
92 0.001949
80 0.000997
85 0.000997
99 0.001013
105 0.000997
109 0.000962
117 0.001965
121 0.000967
117 0.000989
111 0.001995
111 0.001995
120 0.001992
127 0.001964
136 0.001982
145 0.002031
153 0.001995
160 0.001967
166 0.001964
172 0.001981
176 0.001
180 0.000997
185 0.000997
190 0.000946
198 0.000991
203 0.000997
209 0.000998
218 0.000998
220 0.00097
144 0.000997
84 0.000977
75 0.000997
82 0.000965
91 0.00101
96 0.000997
98 0.000997
102 0.000998
105 0.000997
106 0.000997
103 0.000998
100 0.000998
105 0.0
115 0.000985
127 0.0
134 0.0
143 0.0
150 0.0
155 0.0
162 0.0
167 0.0
172 0.0
177 0.0
182 0.0
190 0.0
199 0.0
211 0.0
222 0.000952
229 0.000998
179 0.0
103 0.0
66 0.000998
69 0.0
81 0.0
92 0.0
99 0.0
106 0.0
118 0.0
116 0.0
110 0.0
108 0.0
115 0.0
124 0.0
136 0.0
147 0.000968
157 0.000998
170 0.0
178 0.0
184 0.0
192 0.0
196 0.0
203 0.000982
207 0.0
215 0.0
222 0.0
229 0.0
228 0.001087
160 0.001021
84 0.0
68 0.0
71 0.0
84 0.000966
94 0.0
97 0.00102
101 0.000964
110 0.0
109 0.0
102 0.0
99 0.000997
102 0.000964
113 0.001034
124 0.000997
135 0.000997
152 0.001034
161 0.000993
169 0.001963
176 0.001963
184 0.000997
189 0.000998
194 0.000997
201 0.000997
208 0.001
218 0.0
226 0.0
236 0.0
239 0.000927
146 0.000999
76 0.001995
53 0.001995
59 0.000999
70 0.000997
80 0.000998
84 0.001995
86 0.002064
95 0.00101
98 0.000998
94 0.001996
90 0.001054
93 0.000987
101 0.002042
112 0.002964
124 0.003026
138 0.001996
150 0.002023
159 0.001014
166 0.001995
171 0.001995
181 0.001027
187 0.000998
197 0.001008
205 0.000955
214 0.001963
222 0.001995
231 0.001995
248 0.000994
190 0.001958
153 0.001962
105 0.003003
89 0.002992
88 0.001967
94 0.00196
104 0.001985
108 0.002036
112 0.002041
116 0.002999
116 0.002992
112 0.002045
110 0.003062
113 0.002031
118 0.003031
125 0.003023
132 0.003036
137 0.003036
147 0.001975
151 0.002002
154 0.001958
157 0.003031
160 0.002994
163 0.001995
165 0.002027
168 0.003019
172 0.002992
176 0.004023
179 0.003033
144 0.001978
94 0.002049
87 0.002002
90 0.001994
95 0.003043
100 0.003055
101 0.003036
103 0.003018
107 0.003043
107 0.003
105 0.003957
103 0.003026
105 0.003042
113 0.002996
119 0.002988
125 0.002967
130 0.003959
134 0.003955
140 0.002991
143 0.003001
146 0.002995
149 0.004029
152 0.003988
154 0.004001
159 0.00399
163 0.004986
167 0.003988
171 0.00399
172 0.004029
138 0.00398
98 0.004025
80 0.002951
80 0.002991
84 0.003
89 0.004998
91 0.00399
92 0.003037
95 0.005033
95 0.004019
93 0.004022
92 0.004023
93 0.005019
97 0.005041
104 0.004035
110 0.00402
115 0.003
121 0.005987
126 0.005044
131 0.00399
135 0.005036
139 0.003989
143 0.003985
147 0.004987
151 0.005984
155 0.006045
160 0.003957
166 0.00399
172 0.004038
175 0.00502
140 0.004988
91 0.00401
80 0.005037
85 0.004006
91 0.004004
95 0.004034
98 0.005995
102 0.005984
106 0.005019
104 0.005019
101 0.005019
100 0.005985
102 0.005984
109 0.005028
117 0.004994
125 0.003984
131 0.005024
134 0.004985
139 0.005985
142 0.005985
146 0.00498
149 0.004976
152 0.004968
155 0.005033
158 0.006029
162 0.006982
168 0.005038
147 0.005994
101 0.006025
87 0.005983
85 0.005991
89 0.006951
95 0.006998
97 0.005017
98 0.006016
93 0.004964
94 0.006023
91 0.00603
85 0.006025
88 0.007013
95 0.004975
102 0.006048
109 0.005984
115 0.006982
121 0.007012
128 0.005967
130 0.005954
133 0.006034
136 0.006988
140 0.006996
147 0.007027
151 0.007012
157 0.006972
163 0.007011
169 0.006014
163 0.00698
115 0.006981
70 0.005951
59 0.005999
62 0.005941
67 0.006942
70 0.006948
69 0.006986
72 0.006991
76 0.005979
75 0.006981
73 0.006972
72 0.007979
77 0.007978
85 0.007013
91 0.00702
97 0.006982
103 0.007978
109 0.007979
116 0.007966
118 0.007989
122 0.007012
125 0.006006
131 0.006029
138 0.006981
147 0.007979
158 0.006985
166 0.006961
173 0.006992
173 0.007979
115 0.007948
70 0.007014
62 0.007966
66 0.007979
76 0.006982
80 0.007015
80 0.007015
84 0.006982
87 0.007035
84 0.006992
81 0.006996
81 0.006955
84 0.007979
96 0.007011
105 0.007979
113 0.007978
124 0.00701
130 0.00703
135 0.007022
140 0.007036
144 0.007017
149 0.007054
153 0.00702
158 0.007032
163 0.007015
173 0.007013
177 0.007027
153 0.007024
102 0.006991
85 0.006991
82 0.007017
86 0.007042
93 0.007027
97 0.007016
100 0.007018
105 0.007021
106 0.007022
99 0.006989
98 0.006978
101 0.007028
110 0.007043
117 0.007016
124 0.006015
131 0.006031
135 0.006018
140 0.006018
144 0.006032
148 0.005989
150 0.006031
157 0.007043
161 0.007013
165 0.007014
171 0.006973
177 0.007028
184 0.006016
185 0.006034
147 0.006007
94 0.006049
77 0.00603
76 0.006043
81 0.005994
86 0.006017
85 0.005996
87 0.006003
92 0.006029
92 0.006015
89 0.00598
88 0.005964
90 0.005019
96 0.005019
106 0.005995
113 0.006034
119 0.005986
128 0.006063
133 0.006013
137 0.006051
140 0.006025
145 0.006027
149 0.00603
153 0.006028
159 0.006017
164 0.005019
172 0.00504
178 0.005035
185 0.004993
172 0.005032
118 0.005017
85 0.005024
73 0.005035
78 0.005019
85 0.005019
90 0.00498
91 0.004984
92 0.005019
96 0.004986
96 0.005039
92 0.00399
93 0.005022
97 0.005006
104 0.005017
111 0.005032
120 0.005018
126 0.005035
132 0.005053
137 0.005017
141 0.005018
147 0.004972
152 0.005018
157 0.004041
165 0.004019
170 0.003991
177 0.004029
184 0.004058
194 0.004024
187 0.00402
137 0.005052
101 0.005021
86 0.004988
90 0.00402
97 0.005034
103 0.004049
109 0.003984
115 0.003991
117 0.003991
113 0.003992
108 0.003989
109 0.00399
114 0.003963
121 0.003954
128 0.004018
138 0.003934
144 0.002992
151 0.004029
158 0.002989
163 0.002942
168 0.003027
171 0.003044
176 0.003035
183 0.004028
186 0.004071
190 0.003992
194 0.004011
201 0.004043
211 0.00399
205 0.004052
108 0.00399
81 0.003989
74 0.004037
78 0.004031
87 0.003027
94 0.003063
94 0.003017
97 0.002996
100 0.002993
100 0.003025
97 0.002991
97 0.002999
105 0.002977
112 0.003947
121 0.00402
129 0.00399
136 0.002964
145 0.002992
151 0.002995
157 0.002992
161 0.002992
165 0.002994
172 0.002992
176 0.00299
185 0.002992
192 0.001994
198 0.003062
205 0.002993
213 0.002993
223 0.002992
198 0.002993
127 0.002992
90 0.003001
78 0.002994
83 0.002992
91 0.002992
98 0.002992
99 0.001996
103 0.002992
106 0.001995
104 0.002033
100 0.001995
101 0.002011
105 0.001996
113 0.001986
121 0.001995
133 0.001999
142 0.002024
156 0.00197
162 0.002022
167 0.001995
170 0.002048
175 0.001966
181 0.002067
186 0.002025
193 0.002026
199 0.00201
206 0.001993
213 0.000997
225 0.002041
235 0.000997
161 0.000998
103 0.001021
84 0.001002
83 0.000997
91 0.000998
101 0.002
105 0.001969
108 0.002042
114 0.002032
115 0.002027
107 0.002033
102 0.002003
106 0.001006
112 0.000998
121 0.000999
131 0.001007
139 0.000997
150 0.000997
156 0.000991
161 0.000997
166 0.000997
168 0.000997
172 0.000996
176 0.0
183 0.000997
188 0.000997
193 0.000998
201 0.000997
208 0.000998
146 0.000998
93 0.000998
71 0.0
67 0.000997
72 0.000998
81 0.0
85 0.0
89 0.0
93 0.0
93 0.0
89 0.0
86 0.000998
90 0.000998
96 0.000997
103 0.000998
111 0.000998
119 0.0
128 0.0
134 0.0
139 0.0
143 0.0
147 0.0
149 0.0
153 0.0
161 0.0
166 0.000998
171 0.000994
177 0.000975
184 0.000998
179 0.000964
106 0.000998
76 0.000998
65 0.0
69 0.0
77 0.0
78 0.0
80 0.0
85 0.0
88 0.000999
87 0.0
84 0.0
84 0.000977
92 0.0
100 0.0
109 0.001029
116 0.000997
124 0.000967
130 0.0
133 0.000997
138 0.002021
142 0.002026
146 0.0
150 0.0
155 0.0
162 0.0
169 0.0
175 0.000999
182 0.000998
181 0.0
132 0.0
95 0.0
81 0.000997
81 0.001996
90 0.0
97 0.0
102 0.0
110 0.0
112 0.0
108 0.002035
103 0.001015
102 0.0
107 0.0
114 0.0
121 0.001031
126 0.001043
135 0.000967
141 0.000998
145 0.0
149 0.000953
152 0.000999
155 0.001995
158 0.002028
164 0.0
168 0.000998
172 0.000998
178 0.002057
172 0.002002
115 0.0
87 0.001006
76 0.000965
84 0.000997
90 0.00099
93 0.001017
94 0.001995
97 0.002007
100 0.000947
99 0.001026
95 0.000995
95 0.001995
99 0.001995
107 0.001956
113 0.001997
124 0.000997
130 0.001996
135 0.002061
138 0.002992
141 0.00302
145 0.000995
147 0.001015
151 0.001046
154 0.001995
158 0.001995
164 0.001989
169 0.001996
178 0.002044
172 0.001984
127 0.002962
90 0.002992
73 0.002992
74 0.001961
81 0.002034
84 0.00202
85 0.004042
85 0.002992
90 0.001944
91 0.001932
86 0.002009
87 0.001962
90 0.002011
96 0.002992
102 0.002992
112 0.001941
118 0.001029
124 0.001981
129 0.004025
133 0.00399
137 0.001952
140 0.003074
146 0.002969
150 0.001993
155 0.002991
160 0.004022
165 0.003986
172 0.00203
180 0.001973
186 0.002023
162 0.003995
113 0.003023
82 0.00196
81 0.002987
95 0.002947
102 0.002991
105 0.002974
109 0.003989
114 0.00402
111 0.002954
105 0.002992
102 0.003038
104 0.003036
110 0.004021
119 0.003993
128 0.004008
138 0.005032
145 0.002975
150 0.002993
155 0.002989
157 0.003989
160 0.004987
164 0.003018
167 0.003021
170 0.002886
175 0.005041
179 0.004998
186 0.003975
167 0.005006
107 0.003037
86 0.004024
83 0.002991
87 0.004987
94 0.004986
101 0.003026
102 0.00396
105 0.004011
108 0.004019
108 0.004022
102 0.003975
103 0.005019
109 0.003015
115 0.003969
122 0.003988
128 0.004987
135 0.005064
142 0.003051
146 0.004036
150 0.00402
155 0.006041
158 0.005062
162 0.00399
167 0.006037
172 0.003991
177 0.004023
182 0.003976
188 0.005028
195 0.004986
189 0.003989
133 0.003992
94 0.004006
79 0.004987
79 0.004989
88 0.004024
96 0.005984
100 0.004992
104 0.004965
109 0.005022
108 0.005984
104 0.005981
99 0.00499
101 0.005034
107 0.005036
115 0.006032
122 0.005985
131 0.004956
138 0.006924
143 0.005993
148 0.004997
152 0.004983
155 0.00499
158 0.006021
162 0.006016
168 0.004962
173 0.005033
178 0.004989
185 0.00598
193 0.00599
191 0.006987
133 0.006982
86 0.006036
80 0.004976
85 0.005033
95 0.00701
103 0.006015
109 0.004967
114 0.00502
119 0.004987
117 0.007013
111 0.005989
106 0.006032
110 0.00603
120 0.006043
129 0.005984
136 0.005984
143 0.006986
149 0.006981
156 0.006017
160 0.006014
162 0.005022
166 0.006986
168 0.006985
175 0.006997
178 0.007946
185 0.005955
191 0.005979
196 0.005953
160 0.006982
106 0.007013
76 0.00596
75 0.005966
81 0.00597
88 0.007019
92 0.006991
96 0.006981
100 0.007979
99 0.006012
95 0.007019
92 0.006017
95 0.007936
103 0.008001
110 0.005959
118 0.006024
125 0.006024
133 0.007933
140 0.007964
145 0.007027
149 0.006981
154 0.005984
156 0.006002
159 0.005998
163 0.007979
167 0.007978
175 0.006969
181 0.006974
188 0.00701
196 0.007006
166 0.008011
90 0.007029
68 0.007979
65 0.007948
75 0.006034
82 0.006978
85 0.006995
86 0.007026
90 0.007013
91 0.006979
89 0.006957
87 0.007001
84 0.007969
93 0.006985
100 0.007998
106 0.007979
115 0.006989
122 0.007035
127 0.006995
132 0.006982
134 0.007013
138 0.007031
142 0.00698
146 0.006997
150 0.006992
158 0.006952
164 0.007072
171 0.007014
181 0.007014
175 0.00694
141 0.006961
79 0.006032
63 0.006017
68 0.006982
77 0.005984
86 0.005982
91 0.005996
100 0.007038
103 0.00702
100 0.007014
92 0.007021
92 0.007016
97 0.007022
103 0.007017
111 0.007009
121 0.005925
128 0.005985
134 0.005977
140 0.005977
147 0.006015
151 0.00603
152 0.00603
159 0.006018
162 0.006015
167 0.004978
172 0.007024
179 0.006015
187 0.005977
168 0.00598
117 0.005988
88 0.005975
82 0.00602
89 0.006031
96 0.005949
100 0.005981
104 0.00603
108 0.006013
110 0.006018
106 0.004987
101 0.004989
102 0.006047
107 0.004977
115 0.005963
127 0.005033
134 0.005018
139 0.005021
144 0.005021
149 0.005015
153 0.005018
155 0.004989
157 0.006016
160 0.004958
164 0.005988
166 0.005962
170 0.005954
177 0.005041
180 0.005017
179 0.005024
137 0.005018
87 0.004972
74 0.005033
78 0.005021
87 0.005024
94 0.004988
100 0.004975
100 0.005059
106 0.004985
104 0.004031
104 0.003956
102 0.005022
105 0.004988
112 0.005002
117 0.005034
125 0.004988
129 0.004988
134 0.004987
141 0.004992
145 0.004942
148 0.004973
151 0.004023
154 0.003991
157 0.004066
160 0.004033
166 0.004021
171 0.00399
176 0.004028
181 0.00399
172 0.003991
109 0.003975
82 0.003961
76 0.004007
87 0.004027
94 0.00503
100 0.00403
101 0.00405
105 0.004051
105 0.004037
102 0.004022
98 0.003985
99 0.004009
103 0.003991
111 0.003994
118 0.003944
130 0.002993
134 0.004031
138 0.004024
142 0.004047
145 0.002993
149 0.002992
152 0.002993
154 0.002992
159 0.003955
163 0.002958
167 0.003974
172 0.003944
165 0.00402
123 0.004033
93 0.004025
85 0.002992
89 0.003028
100 0.002992
106 0.002992
113 0.002993
118 0.003001
122 0.002999
117 0.002971
110 0.002949
110 0.002993
114 0.003027
121 0.003991
129 0.002979
134 0.002992
141 0.002992
145 0.002992
148 0.002953
151 0.002984
152 0.003028
154 0.003022
155 0.00298
159 0.002992
163 0.002016
168 0.002027
172 0.003001
157 0.002037
99 0.002025
77 0.001989
72 0.002993
76 0.002036
83 0.001996
89 0.00199
89 0.002961
94 0.00199
94 0.001996
91 0.002022
87 0.001995
87 0.002021
94 0.000998
100 0.002992
107 0.00298
114 0.001993
120 0.00202
126 0.002032
130 0.002
134 0.00197
137 0.002003
140 0.000996
143 0.000998
147 0.001964
151 0.000998
156 0.002024
162 0.000966
168 0.002029
157 0.001081
109 0.000939
69 0.001989
60 0.002021
67 0.002057
71 0.002027
73 0.002032
73 0.001046
74 0.001995
78 0.001995
77 0.000944
75 0.000949
76 0.000997
80 0.000993
88 0.000967
97 0.000997
105 0.000998
111 0.000984
115 0.000997
120 0.002002
124 0.002002
129 0.001995
134 0.000985
138 0.000973
142 0.001014
147 0.00099
154 0.000998
161 0.000997
169 0.000997
175 0.000998
182 0.000999
188 0.000997
160 0.000998
89 0.0
66 0.0
61 0.0
66 0.0
73 0.0
79 0.0
81 0.000998
87 0.000997
88 0.000997
86 0.000931
83 0.000999
84 0.0
91 0.0
98 0.0
106 0.0
115 0.0
122 0.0
129 0.0
135 0.0
139 0.0
144 0.000997
148 0.000997
152 0.0
158 0.0
163 0.0
171 0.0
177 0.0
184 0.0
193 0.0
193 0.0
109 0.000998
80 0.0
79 0.000998
87 0.000998
96 0.001008
104 0.000997
109 0.0
116 0.001998
117 0.001984
107 0.0
102 0.0
105 0.0
117 0.0
125 0.0
132 0.001001
139 0.001068
147 0.0
151 0.0
154 0.0
158 0.001
162 0.000995
165 0.000978
168 0.0
171 0.000975
182 0.0
188 0.0
194 0.000985
203 0.001998
176 0.0
112 0.0
80 0.001032
71 0.001991
75 0.001049
85 0.0
91 0.0
92 0.0
98 0.000966
100 0.0
97 0.000992
93 0.001946
93 0.0
99 0.0
106 0.0
114 0.002042
122 0.001987
132 0.0
139 0.0
144 0.0
152 0.0
156 0.00099
159 0.002027
163 0.002052
170 0.000998
175 0.000997
181 0.000968
187 0.001033
196 0.001989
202 0.000995
157 0.001014
97 0.001041
55 0.00096
52 0.002017
56 0.002063
60 0.001995
62 0.002994
65 0.002053
71 0.001021
74 0.000957
72 0.003004
70 0.002959
71 0.000974
78 0.000961
93 0.001011
103 0.001045
112 0.000997
119 0.002992
126 0.001995
133 0.001012
137 0.001009
142 0.002011
146 0.001943
151 0.001992
158 0.00199
164 0.001995
174 0.001979
182 0.00203
190 0.001032
153 0.002992
99 0.002986
70 0.001025
69 0.000999
76 0.001945
84 0.003008
90 0.00302
99 0.00202
106 0.001963
104 0.002032
97 0.002055
94 0.002018
97 0.002992
104 0.002992
116 0.002992
126 0.002994
135 0.002961
142 0.003943
148 0.003984
154 0.00196
158 0.001989
165 0.001943
170 0.00197
176 0.001945
181 0.00399
159 0.003989
93 0.001995
70 0.001993
66 0.002024
71 0.002981
78 0.00296
86 0.002012
89 0.002997
95 0.002981
95 0.002015
93 0.003042
90 0.00402
92 0.003989
98 0.003983
110 0.002002
119 0.002012
125 0.003038
132 0.003973
140 0.004002
156 0.001997
168 0.004986
178 0.002997
167 0.002983
121 0.002996
88 0.004023
76 0.00399
79 0.002987
86 0.002962
92 0.003021
97 0.003978
101 0.004014
109 0.004006
105 0.004988
100 0.002994
100 0.004037
105 0.003025
112 0.005017
120 0.004984
131 0.002989
139 0.002993
145 0.002993
152 0.005011
157 0.00503
163 0.002992
168 0.005037
156 0.003992
112 0.003987
78 0.003987
65 0.004987
66 0.004986
74 0.003985
80 0.002974
84 0.002983
90 0.005019
95 0.004991
96 0.002982
91 0.004987
92 0.00301
98 0.004067
106 0.004023
115 0.005984
124 0.004986
135 0.004023
143 0.004006
149 0.004039
154 0.005017
158 0.005977
164 0.005038
169 0.006018
175 0.004993
182 0.005021
190 0.003989
199 0.005984
185 0.006023
114 0.003989
87 0.003991
81 0.004987
87 0.005017
96 0.005997
105 0.006982
116 0.006982
122 0.006019
119 0.004948
112 0.004983
108 0.004989
110 0.005975
117 0.005985
130 0.004975
139 0.005032
147 0.003976
155 0.005979
161 0.006016
168 0.006034
172 0.006015
178 0.004985
183 0.003969
186 0.004998
165 0.006985
120 0.007012
86 0.004943
82 0.004986
88 0.004984
96 0.00696
102 0.006971
111 0.006981
116 0.006981
115 0.005967
110 0.006006
107 0.005003
110 0.006982
117 0.00698
128 0.004989
137 0.005021
145 0.005016
152 0.007018
158 0.007015
167 0.006984
173 0.006984
179 0.005003
182 0.006053
186 0.005945
191 0.00798
197 0.007977
204 0.005989
211 0.005992
197 0.005975
134 0.006976
94 0.007012
79 0.006982
84 0.007979
92 0.006017
94 0.005945
96 0.006015
100 0.00798
104 0.007977
101 0.004982
98 0.005948
98 0.005987
104 0.007992
111 0.007945
122 0.007974
131 0.008023
142 0.005975
148 0.006995
154 0.006054
159 0.006029
164 0.007978
168 0.007987
171 0.006003
176 0.005987
182 0.005002
192 0.007946
203 0.006981
215 0.007023
224 0.007013
234 0.006976
239 0.006971
177 0.006976
104 0.006981
78 0.006954
76 0.006911
81 0.005937
94 0.006989
99 0.006993
106 0.007025
112 0.007978
115 0.007945
108 0.006968
105 0.006969
107 0.006992
113 0.006983
122 0.007018
132 0.006969
141 0.006977
149 0.006973
158 0.006979
167 0.006973
171 0.00603
174 0.006017
177 0.006018
179 0.005937
179 0.00597
183 0.005991
175 0.00694
118 0.006979
89 0.006967
81 0.007014
85 0.006972
101 0.006939
110 0.007013
118 0.006983
122 0.006008
113 0.006026
104 0.005973
98 0.005988
99 0.005983
107 0.005988
116 0.005981
122 0.00598
130 0.006968
140 0.007011
143 0.007012
147 0.007054
152 0.005985
156 0.005968
157 0.005985
128 0.005984
87 0.005983
63 0.005984
56 0.005983
60 0.005985
65 0.005985
72 0.006018
78 0.006034
84 0.006026
85 0.005983
80 0.00499
78 0.004974
81 0.004981
85 0.004986
89 0.004989
98 0.005024
104 0.005018
108 0.004987
116 0.005985
120 0.00601
123 0.006015
128 0.005985
136 0.004993
141 0.004991
125 0.004996
83 0.00499
56 0.004984
45 0.005024
50 0.005
56 0.004978
62 0.00495
65 0.004966
70 0.005017
72 0.003946
69 0.004944
67 0.004978
70 0.005036
74 0.004962
81 0.005009
91 0.005001
98 0.004987
104 0.004873
113 0.005022
117 0.005017
121 0.005023
124 0.005011
129 0.004015
133 0.004956
137 0.004984
142 0.004024
146 0.003958
151 0.004008
155 0.00401
158 0.003999
174 0.003991
187 0.004
183 0.00399
130 0.003994
83 0.00499
76 0.004956
80 0.00499
90 0.004001
99 0.003999
102 0.004982
104 0.003989
110 0.00401
110 0.004017
108 0.00403
109 0.00399
113 0.003988
119 0.003962
127 0.00398
133 0.003946
139 0.004003
145 0.002966
150 0.002985
156 0.00396
157 0.003956
161 0.00399
165 0.003991
170 0.00399
174 0.003984
179 0.003763
186 0.003948
192 0.003041
200 0.002992
197 0.002987
149 0.002947
102 0.00296
94 0.002953
103 0.002993
112 0.003016
118 0.002982
123 0.003007
129 0.002974
130 0.003991
125 0.004003
119 0.003965
118 0.003957
120 0.003974
128 0.003994
133 0.002959
144 0.002992
149 0.002992
153 0.002995
157 0.002996
161 0.002959
165 0.003985
169 0.002947
173 0.002972
176 0.003015
171 0.002993
119 0.00396
92 0.001994
84 0.002992
90 0.002026
97 0.002993
101 0.003008
105 0.002987
114 0.002998
116 0.002992
111 0.001994
107 0.002035
106 0.001994
111 0.002027
117 0.002039
127 0.002028
133 0.002017
139 0.001995
143 0.001965
147 0.002027
153 0.000998
156 0.000999
159 0.002998
163 0.002
165 0.001971
171 0.001982
177 0.001982
185 0.001995
167 0.001995
115 0.001995
84 0.001981
75 0.002009
79 0.002001
88 0.001974
94 0.002028
98 0.00202
101 0.000994
106 0.000971
105 0.001
98 0.001002
98 0.000998
102 0.001959
109 0.000998
116 0.001007
125 0.000987
131 0.00096
136 0.000973
141 0.001949
145 0.002012
149 0.001998
153 0.001997
158 0.00203
163 0.000998
167 0.000965
172 0.000998
175 0.000962
181 0.00099
189 0.000949
195 0.000987
201 0.000967
202 0.000968
150 0.0
86 0.000986
68 0.000998
73 0.000999
81 0.001026
88 0.000994
93 0.000963
98 0.000962
105 0.000931
102 0.001028
97 0.000999
92 0.00099
95 0.000988
102 0.0
111 0.0
122 0.0
128 0.0
134 0.0
139 0.0
143 0.0
148 0.000966
151 0.000973
154 0.000988
158 0.001042
163 0.000996
169 0.0
177 0.0
186 0.0
196 0.0
204 0.0
198 0.0
139 0.0
90 0.0
71 0.0
76 0.0
86 0.000997
96 0.0
104 0.000991
117 0.0
119 0.0
111 0.000996
105 0.0
103 0.0
106 0.0
115 0.0
123 0.002002
131 0.001027
141 0.0
149 0.0
153 0.0
159 0.0
161 0.0
165 0.001996
169 0.001992
173 0.0
151 0.0
105 0.0
78 0.000995
68 0.000991
72 0.0
79 0.0
86 0.0
93 0.000998
101 0.0
101 0.001998
94 0.002002
85 0.0
86 0.0
92 0.0
98 0.000978
106 0.001963
117 0.0
123 0.0
129 0.0
135 0.0
138 0.000958
141 0.000981
144 0.000988
148 0.000995
152 0.000992
158 0.0
131 0.002008
85 0.001994
53 0.0
49 0.0
55 0.0
67 0.0
71 0.0
74 0.001981
78 0.001991
77 0.0
70 0.0
67 0.0
69 0.002001
75 0.002958
86 0.0
95 0.002008
101 0.0
112 0.00097
115 0.001991
119 0.001955
124 0.001994
129 0.00197
135 0.002013
139 0.000995
143 0.001993
147 0.002028
152 0.001957
160 0.000995
153 0.000996
81 0.000951
58 0.002012
53 0.000994
57 0.002993
63 0.003027
68 0.000991
70 0.001049
76 0.000957
79 0.002987
77 0.002959
72 0.002026
72 0.001962
81 0.002043
89 0.002006
97 0.00199
105 0.001988
113 0.002017
121 0.002013
126 0.001032
131 0.001008
134 0.002992
136 0.002985
141 0.002068
146 0.000973
154 0.001
161 0.00202
169 0.002011
162 0.002995
118 0.003976
78 0.002
71 0.002014
77 0.002001
86 0.003987
95 0.003958
103 0.000998
110 0.002002
111 0.001993
105 0.001995
100 0.002016
101 0.003025
105 0.002978
115 0.001987
123 0.002007
129 0.001984
133 0.003984
139 0.004006
145 0.001966
150 0.001966
156 0.001963
162 0.002006
166 0.003021
170 0.003997
175 0.003965
153 0.00102
112 0.002
88 0.001936
83 0.002989
86 0.003986
92 0.003978
100 0.001991
101 0.003953
108 0.002026
109 0.002015
104 0.001994
100 0.003983
102 0.003981
108 0.002987
113 0.002992
120 0.002992
127 0.00502
134 0.00502
142 0.002992
145 0.00398
148 0.003011
149 0.001994
151 0.003003
154 0.004037
158 0.004031
163 0.002983
168 0.003007
171 0.002989
161 0.004966
118 0.005019
80 0.003001
71 0.005039
77 0.003012
81 0.003035
83 0.003998
85 0.004996
89 0.004997
92 0.003997
90 0.003012
88 0.002979
88 0.004984
92 0.004984
100 0.00299
109 0.005058
116 0.002992
122 0.002997
127 0.002996
130 0.006011
133 0.00602
137 0.004023
140 0.002995
144 0.004024
148 0.004981
153 0.005029
160 0.003937
168 0.005019
177 0.003964
186 0.003936
182 0.002979
134 0.005976
94 0.005983
74 0.003986
76 0.004002
82 0.003957
88 0.006015
90 0.005971
94 0.003989
100 0.006025
97 0.001992
93 0.004051
92 0.003992
96 0.002972
102 0.007032
110 0.00703
119 0.003986
125 0.004032
131 0.004014
135 0.005973
140 0.00599
147 0.006012
153 0.006022
159 0.002997
164 0.004999
169 0.004996
175 0.007027
181 0.006966
191 0.004985
200 0.004988
207 0.004988
194 0.00702
138 0.00704
91 0.005971
90 0.006013
100 0.004041
109 0.004022
115 0.004986
120 0.007013
126 0.006998
129 0.004939
122 0.004938
118 0.005958
120 0.006956
125 0.006991
138 0.007027
148 0.006991
158 0.004018
167 0.005004
177 0.005953
187 0.006948
195 0.006949
207 0.004991
212 0.005014
216 0.005021
222 0.007006
227 0.00705
237 0.007983
242 0.007971
249 0.005009
255 0.006018
244 0.006009
169 0.006984
114 0.007978
104 0.005982
106 0.004964
113 0.00502
121 0.006925
127 0.006981
139 0.007014
139 0.007979
129 0.005995
121 0.006008
122 0.005942
126 0.00793
133 0.007977
142 0.007979
153 0.006016
161 0.004926
168 0.004955
174 0.007932
180 0.004987
185 0.006981
189 0.007978
192 0.006982
195 0.005018
199 0.006018
205 0.007005
211 0.007006
218 0.005967
227 0.005987
117 0.005959
148 0.007979
88 0.005038
77 0.007962
83 0.007962
91 0.00598
99 0.005973
105 0.005983
112 0.006973
117 0.006978
114 0.005955
107 0.00599
103 0.007012
106 0.008009
115 0.006016
126 0.007974
135 0.007978
143 0.005985
152 0.006981
158 0.006975
163 0.007014
167 0.00694
171 0.006981
176 0.006968
178 0.006944
184 0.007013
190 0.006974
199 0.006025
206 0.005984
216 0.005986
223 0.005981
218 0.005978
142 0.006961
88 0.006988
70 0.006982
75 0.006986
85 0.006975
94 0.007027
107 0.006981
114 0.006993
120 0.005956
119 0.00599
112 0.005983
110 0.005983
114 0.005951
120 0.006001
130 0.005986
140 0.00599
148 0.005999
155 0.005973
167 0.005953
172 0.006021
177 0.005018
180 0.004986
185 0.005982
188 0.005981
192 0.005975
197 0.005981
202 0.005983
212 0.005977
221 0.005984
224 0.005983
122 0.005983
91 0.00598
87 0.006004
94 0.005985
109 0.006007
119 0.005973
128 0.005972
137 0.004958
145 0.004988
140 0.004986
130 0.005001
126 0.00504
131 0.004974
140 0.004985
149 0.006001
158 0.004026
171 0.00595
178 0.004956
184 0.005981
189 0.005982
194 0.004949
200 0.004986
205 0.005035
210 0.00502
165 0.004993
121 0.00499
105 0.004996
105 0.005028
117 0.004955
127 0.003989
138 0.003987
151 0.00399
161 0.00402
161 0.003952
148 0.003946
137 0.00502
138 0.005054
144 0.004996
152 0.004997
160 0.004974
171 0.005011
180 0.004008
188 0.004013
196 0.003995
203 0.003979
201 0.004006
157 0.004026
114 0.004005
84 0.00399
87 0.004003
96 0.003942
109 0.003974
131 0.003989
150 0.003989
161 0.003943
154 0.004007
140 0.00399
138 0.003959
149 0.003975
162 0.003987
182 0.00398
192 0.003959
199 0.003998
203 0.003959
205 0.003958
199 0.003996
159 0.002958
126 0.002997
110 0.002988
108 0.003006
114 0.004043
120 0.002992
128 0.004028
134 0.00396
136 0.003953
132 0.003942
124 0.003988
120 0.00394
123 0.00396
128 0.002991
134 0.003036
141 0.002975
148 0.002992
153 0.00305
158 0.002993
160 0.002991
162 0.003024
162 0.003001
160 0.002028
123 0.002993
86 0.00299
66 0.003031
60 0.002989
63 0.002992
68 0.003031
70 0.002992
73 0.002959
77 0.002992
78 0.002972
76 0.002992
73 0.00299
75 0.002989
81 0.001992
89 0.001978
97 0.001994
103 0.001993
110 0.001995
114 0.002025
121 0.002032
124 0.003026
127 0.002016
131 0.002963
134 0.002924
139 0.002993
144 0.00302
150 0.003024
156 0.001953
162 0.001954
162 0.001986
97 0.001994
55 0.001992
49 0.001976
55 0.001993
63 0.001992
67 0.001993
69 0.00198
76 0.001981
82 0.001965
82 0.00098
81 0.001995
80 0.001995
83 0.002025
92 0.002022
100 0.001995
105 0.001994
111 0.001925
117 0.002006
120 0.001959
126 0.001996
129 0.001963
133 0.001988
137 0.000997
142 0.00099
147 0.000998
153 0.000941
161 0.000996
167 0.000962
173 0.000949
179 0.001996
186 0.001987
173 0.001045
110 0.002013
75 0.001954
68 0.000999
73 0.001032
86 0.000998
96 0.001019
100 0.001008
105 0.000991
108 0.001008
109 0.000997
107 0.001031
107 0.001003
112 0.00099
118 0.000996
124 0.0
132 0.0
141 0.0
147 0.0
153 0.0
157 0.001029
161 0.000991
163 0.000958
167 0.001001
171 0.000985
176 0.000979
181 0.001013
186 0.0
192 0.0
200 0.0
208 0.0
215 0.0
204 0.0
141 0.0
105 0.0
97 0.0
106 0.0
118 0.000997
127 0.0
133 0.0
138 0.0
143 0.0
143 0.0
138 0.0
136 0.0
140 0.0
145 0.0
153 0.0
160 0.0
166 0.001994
172 0.00199
179 0.0
183 0.0
187 0.0
194 0.0
197 0.0
198 0.00201
199 0.001995
202 0.000971
206 0.0
212 0.0
218 0.001014
222 0.001991
168 0.0
128 0.0
114 0.0
123 0.0
134 0.0
143 0.002
149 0.002003
158 0.0
162 0.0
161 0.0
153 0.001998
149 0.002017
151 0.0
156 0.0
162 0.001013
171 0.000995
180 0.0
185 0.002007
190 0.002116
196 0.0
198 0.0
202 0.0
204 0.00201
206 0.00196
208 0.0
211 0.0
215 0.0
211 0.0
163 0.001003
128 0.001961
117 0.002035
122 0.0
130 0.0
138 0.0
143 0.0
148 0.001995
154 0.001937
155 0.000963
149 0.0
142 0.0
145 0.000967
149 0.0
155 0.001946
161 0.001958
168 0.0
174 0.001037
179 0.0
182 0.002039
185 0.002012
189 0.000994
192 0.002005
194 0.001959
196 0.001955
199 0.001996
202 0.002991
180 0.002995
122 0.001994
105 0.002039
104 0.002004
111 0.003034
120 0.003006
129 0.000961
132 0.001996
139 0.001993
138 0.002991
132 0.000994
127 0.002999
127 0.00299
132 0.001997
137 0.000993
142 0.001995
148 0.002988
153 0.002993
159 0.002035
163 0.001995
168 0.002008
170 0.001991
172 0.002036
173 0.003983
175 0.00299
177 0.001982
181 0.000979
184 0.000993
162 0.003004
118 0.002992
92 0.001
92 0.001006
104 0.002004
111 0.001994
115 0.001994
118 0.003991
123 0.002996
123 0.001988
117 0.001993
114 0.001995
115 0.003959
119 0.00398
127 0.001996
133 0.002048
141 0.003991
147 0.001998
152 0.002003
156 0.002959
158 0.003994
162 0.003987
164 0.001998
167 0.001982
170 0.002975
172 0.004986
175 0.003991
180 0.000987
143 0.005036
96 0.001997
84 0.002959
88 0.002994
95 0.004994
102 0.004006
109 0.001967
112 0.002001
116 0.003042
116 0.003989
112 0.003957
106 0.003008
108 0.005031
116 0.002946
121 0.002987
126 0.002992
131 0.005941
137 0.005967
144 0.003025
147 0.003004
150 0.00396
148 0.005987
146 0.005968
147 0.004037
150 0.004964
155 0.003987
139 0.002942
97 0.002956
70 0.004959
62 0.005027
69 0.002995
76 0.002993
82 0.003043
87 0.004986
94 0.005019
99 0.002988
91 0.004987
84 0.003979
85 0.003978
89 0.003986
95 0.006015
103 0.006014
112 0.003984
117 0.004014
122 0.003999
127 0.004991
131 0.004986
136 0.005019
141 0.005021
144 0.006022
133 0.003985
95 0.003988
69 0.003983
60 0.006015
62 0.005992
71 0.003989
79 0.004006
85 0.00399
92 0.005983
97 0.005967
89 0.005993
83 0.006988
83 0.004042
87 0.003977
93 0.003989
100 0.005962
106 0.006018
113 0.003997
119 0.003996
123 0.004992
127 0.006984
131 0.007009
135 0.007046
139 0.007022
142 0.004997
138 0.00402
101 0.00403
67 0.006975
50 0.00698
48 0.00497
54 0.004967
60 0.004987
65 0.007013
68 0.006969
75 0.006964
72 0.007971
66 0.004993
66 0.005034
68 0.005019
75 0.006977
81 0.006971
79 0.00502
87 0.004987
96 0.00502
103 0.006997
109 0.00798
115 0.007006
120 0.007978
123 0.004986
128 0.004976
134 0.004986
140 0.006982
145 0.007015
101 0.006005
48 0.004972
20 0.005026
15 0.006982
21 0.007028
37 0.007971
41 0.007985
47 0.003033
52 0.004013
51 0.005996
43 0.00798
41 0.006973
45 0.007971
54 0.005985
63 0.005986
73 0.005997
83 0.007957
98 0.004047
106 0.007089
112 0.00701
114 0.005982
113 0.005971
115 0.004985
120 0.007974
129 0.007939
138 0.005958
147 0.005996
156 0.006012
167 0.007013
106 0.00696
42 0.007977
24 0.007011
24 0.005983
32 0.006924
42 0.004987
49 0.007975
52 0.007031
59 0.006979
57 0.006979
49 0.006975
46 0.007012
50 0.006014
60 0.006982
69 0.006973
82 0.006984
88 0.006965
97 0.006967
105 0.006969
112 0.006993
116 0.006029
123 0.006981
126 0.006981
134 0.006992
144 0.006982
150 0.006982
157 0.00698
168 0.00698
174 0.006968
139 0.006946
71 0.006043
36 0.007016
27 0.006968
37 0.006015
48 0.006032
57 0.006018
66 0.005989
73 0.005983
75 0.005985
65 0.007019
62 0.005987
63 0.00696
72 0.007022
83 0.006967
93 0.007013
110 0.006027
119 0.006016
127 0.005976
137 0.005986
141 0.005988
145 0.006036
148 0.005998
153 0.005977
158 0.005972
164 0.005943
170 0.006011
178 0.006034
190 0.00595
183 0.00599
119 0.004953
57 0.004989
53 0.004953
62 0.005975
75 0.006016
92 0.004973
104 0.004986
114 0.005944
117 0.006034
107 0.005018
94 0.005019
93 0.005983
97 0.005032
113 0.004986
124 0.00499
134 0.004975
143 0.004972
156 0.004989
165 0.004969
171 0.005965
176 0.005994
181 0.005984
186 0.005019
192 0.004965
199 0.004995
179 0.005001
106 0.004993
62 0.004993
48 0.004996
54 0.004977
65 0.004987
76 0.004985
83 0.003991
86 0.004986
95 0.004925
94 0.003991
86 0.004019
82 0.004986
87 0.003958
97 0.003991
109 0.003976
125 0.004955
136 0.005004
146 0.004956
154 0.005061
159 0.004987
169 0.005019
174 0.004063
178 0.003991
189 0.003958
197 0.00399
206 0.003962
187 0.003978
93 0.003968
60 0.003943
53 0.004988
63 0.004989
76 0.005024
90 0.003989
101 0.00399
108 0.003975
115 0.00399
109 0.003941
105 0.003975
104 0.003953
109 0.003938
122 0.003993
132 0.004022
141 0.003996
149 0.002992
159 0.003033
171 0.002992
180 0.00399
193 0.003957
199 0.002995
203 0.003951
210 0.002966
219 0.003958
229 0.004024
217 0.003965
143 0.003993
89 0.003991
70 0.004023
72 0.004004
81 0.003957
96 0.00294
100 0.002943
108 0.002985
111 0.002993
108 0.002999
98 0.00403
96 0.002993
100 0.002992
109 0.004039
120 0.002039
135 0.002007
145 0.001995
158 0.002994
160 0.00299
162 0.001965
165 0.002015
170 0.002044
175 0.002992
181 0.002993
190 0.003027
200 0.002975
211 0.002992
172 0.003023
100 0.002963
57 0.002018
57 0.002034
70 0.001991
82 0.002028
92 0.001995
107 0.002027
114 0.001995
111 0.002026
101 0.001995
97 0.001995
99 0.002021
110 0.002993
127 0.002033
144 0.001996
156 0.001964
167 0.001989
176 0.001965
183 0.001996
192 0.001996
198 0.002026
203 0.002027
210 0.002037
216 0.002053
165 0.000997
85 0.001949
58 0.000965
60 0.000997
69 0.002011
79 0.000999
88 0.001964
98 0.002013
106 0.001968
105 0.001995
98 0.002036
90 0.002036
92 0.001082
104 0.001992
120 0.001031
135 0.000996
150 0.001999
163 0.000996
173 0.001046
185 0.000998
192 0.001003
195 0.000998
199 0.001994
202 0.000997
209 0.001995
219 0.001995
211 0.001994
130 0.002005
73 0.001997
51 0.000975
49 0.000998
61 0.000997
70 0.000997
75 0.001013
80 0.000997
89 0.000997
96 0.000998
86 0.000997
81 0.001009
87 0.001002
96 0.0
107 0.0
117 0.0
132 0.0
142 0.0
150 0.0
158 0.0
164 0.0
172 0.0
179 0.000959
186 0.0
195 0.000982
202 0.000998
213 0.0
223 0.0
201 0.0
103 0.0
65 0.0
53 0.0
57 0.0
68 0.0
78 0.0
83 0.0
94 0.0
94 0.0
89 0.0
85 0.0
87 0.0
97 0.002034
107 0.002027
124 0.0
133 0.000997
143 0.000964
153 0.000998
161 0.001027
168 0.001983
172 0.001991
181 0.0
189 0.0
197 0.0
206 0.002021
216 0.002026
227 0.000969
198 0.0
124 0.0
73 0.0
72 0.0
80 0.002013
89 0.002995
99 0.0
108 0.0
114 0.0
110 0.001987
98 0.002024
92 0.000971
98 0.000969
107 0.0
129 0.0
143 0.0
156 0.002015
168 0.002002
180 0.0
187 0.0
192 0.000997
196 0.002022
199 0.002022
204 0.000944
209 0.000965
216 0.0
231 0.001005
213 0.001003
130 0.001989
77 0.003008
53 0.000995
53 0.000954
62 0.0
71 0.001989
76 0.001997
85 0.002037
106 0.0
108 0.0
85 0.001
74 0.0
72 0.0
76 0.001993
82 0.00203
92 0.0
101 0.0
110 0.000964
118 0.002994
126 0.002994
136 0.000968
142 0.000967
153 0.0
161 0.0
170 0.0
179 0.002991
188 0.003006
202 0.001993
215 0.002
228 0.002029
213 0.001993
116 0.002992
44 0.001994
29 0.001993
36 0.001993
43 0.001999
49 0.001993
54 0.002965
62 0.002992
70 0.001994
64 0.001996
58 0.001995
60 0.003026
70 0.002998
86 0.001966
99 0.001991
116 0.001995
129 0.001976
138 0.001993
146 0.002992
154 0.003027
162 0.001992
168 0.001995
177 0.001998
184 0.003136
190 0.003029
197 0.002033
208 0.001996
226 0.002962
227 0.001985
152 0.001997
74 0.003989
44 0.004018
39 0.002022
48 0.002036
60 0.002038
72 0.00298
84 0.002992
100 0.002028
97 0.001994
76 0.001992
72 0.001999
75 0.002023
86 0.001992
100 0.004016
114 0.003992
133 0.00199
146 0.001992
157 0.001995
167 0.004005
177 0.00403
187 0.002963
197 0.004994
208 0.002033
203 0.001966
129 0.002022
65 0.005019
38 0.005021
35 0.002019
44 0.001961
56 0.001994
66 0.004019
75 0.003946
89 0.001997
89 0.00396
77 0.003012
74 0.002041
79 0.00299
90 0.005024
103 0.004986
122 0.003
135 0.001986
147 0.002957
159 0.004986
170 0.004987
179 0.00299
187 0.005029
195 0.001999
201 0.002988
208 0.002999
207 0.004982
143 0.004999
58 0.002958
33 0.002997
30 0.002973
36 0.004989
47 0.005035
55 0.003006
63 0.005001
70 0.00301
66 0.003061
59 0.003989
56 0.005953
60 0.005922
73 0.003991
86 0.003005
100 0.003052
114 0.007023
126 0.00601
139 0.002959
149 0.006035
158 0.003029
163 0.002972
167 0.003994
173 0.004014
181 0.006981
190 0.005986
200 0.003991
147 0.004014
72 0.003989
36 0.006028
25 0.005987
38 0.006007
47 0.005992
56 0.00399
66 0.003997
74 0.003023
73 0.007016
67 0.005984
61 0.00304
64 0.004977
72 0.004002
85 0.007058
98 0.007008
119 0.006015
131 0.005983
144 0.003984
151 0.003992
156 0.003998
161 0.006981
165 0.006978
174 0.003991
183 0.005019
192 0.004987
177 0.006982
112 0.005984
51 0.005984
46 0.00599
57 0.003985
70 0.004991
79 0.004941
92 0.006981
103 0.006983
99 0.004988
88 0.004994
82 0.004998
84 0.007038
91 0.006982
112 0.007017
126 0.007009
143 0.005996
154 0.005016
162 0.004944
170 0.006981
176 0.007015
182 0.004998
189 0.004996
195 0.004962
180 0.007053
115 0.00703
41 0.007981
36 0.007008
43 0.006007
53 0.005998
60 0.006019
68 0.007977
78 0.007953
78 0.005981
72 0.005999
66 0.005033
67 0.004976
73 0.006981
92 0.004976
105 0.007981
121 0.008001
129 0.005966
138 0.005985
146 0.005952
152 0.007931
155 0.007979
161 0.005993
165 0.005984
170 0.006952
183 0.008005
194 0.005017
139 0.006981
75 0.006982
41 0.005979
29 0.005986
32 0.005987
41 0.007966
44 0.007976
45 0.005986
51 0.005979
55 0.005979
52 0.007007
46 0.005988
50 0.006975
59 0.007018
71 0.006967
83 0.005982
95 0.006054
109 0.006967
118 0.007961
129 0.006938
132 0.006983
139 0.005942
147 0.006985
157 0.006955
165 0.006986
174 0.007016
188 0.006962
197 0.006957
156 0.006015
90 0.006016
54 0.006014
45 0.006031
54 0.005983
64 0.005985
72 0.006017
84 0.005981
93 0.006978
94 0.007017
86 0.005963
84 0.006965
87 0.006988
98 0.006982
108 0.005993
124 0.005989
136 0.005986
145 0.005984
156 0.006023
166 0.004974
176 0.005984
180 0.005956
187 0.006014
197 0.005988
202 0.005987
203 0.00601
159 0.005967
109 0.005999
81 0.00595
81 0.004988
93 0.005984
111 0.005975
121 0.005983
132 0.006022
136 0.00603
126 0.006008
117 0.005985
116 0.005979
120 0.005005
131 0.005032
145 0.005944
155 0.005977
166 0.005013
180 0.004988
187 0.005022
192 0.005018
199 0.005021
203 0.004969
211 0.004965
225 0.005925
216 0.00603
152 0.0061
93 0.005939
81 0.004987
86 0.004985
104 0.006012
111 0.006015
115 0.005019
124 0.004961
129 0.004984
125 0.005025
120 0.004985
120 0.00399
127 0.004979
139 0.004023
149 0.004023
160 0.004047
174 0.005004
181 0.005005
186 0.005034
193 0.005028
197 0.005027
201 0.005022
206 0.004987
212 0.005026
218 0.005025
216 0.005021
156 0.00493
100 0.004971
71 0.004022
78 0.003987
90 0.003988
101 0.003987
109 0.004991
117 0.00302
121 0.005029
118 0.003993
111 0.004032
106 0.004029
108 0.004035
116 0.00404
131 0.003984
142 0.004006
149 0.004022
158 0.004007
165 0.00403
172 0.00399
176 0.003991
181 0.00399
185 0.003035
191 0.003034
198 0.003992
207 0.002962
221 0.003996
185 0.004026
110 0.004033
71 0.003991
61 0.004027
74 0.00399
87 0.002992
96 0.002992
105 0.002993
116 0.002992
121 0.002983
114 0.001996
103 0.002992
107 0.003026
115 0.002992
127 0.00399
139 0.004035
152 0.002995
162 0.003027
170 0.002992
177 0.002998
183 0.002996
192 0.002993
199 0.002991
206 0.003961
161 0.002987
103 0.002994
73 0.002992
67 0.003044
79 0.001995
92 0.001983
102 0.001955
112 0.001994
122 0.001994
123 0.00195
113 0.002024
102 0.003029
107 0.002992
116 0.002992
130 0.002992
142 0.003022
159 0.002025
171 0.00202
180 0.001996
188 0.002004
195 0.002027
201 0.001996
206 0.002002
214 0.002009
182 0.001995
108 0.002025
65 0.001996
50 0.002016
54 0.002029
70 0.002034
79 0.001995
86 0.00202
94 0.001995
100 0.001995
96 0.001995
86 0.001995
86 0.001979
92 0.002008
103 0.002025
114 0.002027
125 0.000976
139 0.001001
148 0.000997
157 0.000998
164 0.000999
169 0.001955
175 0.00203
181 0.001995
189 0.002023
195 0.002027
168 0.001031
98 0.001032
54 0.000998
38 0.000997
45 0.000998
57 0.000997
65 0.000998
70 0.000997
80 0.000997
83 0.000997
74 0.002026
68 0.002026
70 0.000998
77 0.000997
87 0.00103
103 0.001031
115 0.000999
125 0.000998
134 0.000997
142 0.002
148 0.002028
154 0.000998
162 0.000139
169 0.0
177 0.0
167 0.0
109 0.0
57 0.0
47 0.0
53 0.0
65 0.000997
79 0.0
93 0.000997
107 0.000997
102 0.000998
90 0.0
84 0.0
86 0.0
94 0.0
106 0.0
122 0.0
133 0.0
143 0.0
152 0.0
158 0.0
167 0.0
173 0.0
180 0.0
173 0.0
120 0.000998
68 0.0
41 0.0
42 0.00204
53 0.0
65 0.0
73 0.0
80 0.0
90 0.000967
82 0.0
74 0.002026
74 0.002038
84 0.000963
94 0.000962
105 0.000972
116 0.003034
124 0.003023
135 0.0
143 0.0
150 0.0
157 0.0
161 0.0
167 0.001995
172 0.001982
183 0.0
185 0.0
134 0.0
74 0.00197
43 0.002027
39 0.0
50 0.0
60 0.0
67 0.0
70 0.0
73 0.002028
78 0.00203
77 0.001033
78 0.0
86 0.000964
98 0.003025
110 0.002999
127 0.0
138 0.0
147 0.0
160 0.000969
165 0.0
170 0.002028
175 0.002023
182 0.0
188 0.000918
195 0.0
202 0.002034
210 0.00399
224 0.0
236 0.0
247 0.0
146 0.000964
85 0.0
62 0.0
65 0.003058
77 0.003023
91 0.0
97 0.0
103 0.0
109 0.002045
110 0.001991
100 0.0
93 0.0
101 0.0
111 0.0
124 0.0
136 0.001988
148 0.002
159 0.0
165 0.0
171 0.001026
177 0.002944
182 0.003
188 0.000964
195 0.000964
209 0.0
218 0.0
226 0.0
185 0.003023
116 0.002024
76 0.001998
74 0.001994
84 0.001993
98 0.003035
111 0.003027
126 0.001993
137 0.002993
128 0.002989
116 0.0
113 0.002024
116 0.002994
127 0.002993
143 0.002952
155 0.002
168 0.001996
180 0.003989
191 0.003988
202 0.002007
209 0.001991
216 0.001994
218 0.001995
224 0.001962
232 0.001987
238 0.003053
170 0.001997
98 0.001996
65 0.001992
57 0.00399
65 0.003998
80 0.002029
87 0.002992
98 0.001967
104 0.001995
103 0.00299
94 0.00206
89 0.004023
91 0.004046
103 0.001998
115 0.002006
128 0.002986
140 0.004026
151 0.003989
165 0.001995
178 0.003994
185 0.002022
191 0.002037
196 0.003045
202 0.003988
209 0.004021
219 0.002013
184 0.002027
104 0.001999
60 0.004984
46 0.005019
53 0.001999
68 0.003989
77 0.003043
84 0.002006
93 0.002
96 0.003989
89 0.003991
80 0.002996
82 0.002029
89 0.002024
102 0.004987
115 0.004981
133 0.001996
151 0.004995
166 0.001954
175 0.00196
183 0.001999
189 0.004987
195 0.004949
203 0.00293
212 0.002993
223 0.002978
233 0.004948
199 0.005011
92 0.002991
54 0.004997
58 0.003029
71 0.002985
84 0.002991
96 0.005035
109 0.006045
121 0.002992
115 0.003011
103 0.003009
97 0.004987
100 0.004987
114 0.003026
133 0.005049
152 0.002043
165 0.003042
176 0.003005
185 0.00498
192 0.004963
201 0.003017
208 0.003008
215 0.003996
218 0.005014
171 0.004987
99 0.005983
52 0.005989
53 0.006016
68 0.003993
79 0.003988
90 0.003033
102 0.006027
112 0.006984
106 0.002987
95 0.002986
90 0.003989
94 0.006043
104 0.005981
126 0.005984
139 0.005981
156 0.00399
168 0.003988
180 0.003987
188 0.006016
196 0.007028
203 0.003988
207 0.003029
214 0.003973
221 0.006973
183 0.006965
141 0.007013
75 0.007005
42 0.004033
42 0.004031
52 0.00403
63 0.006986
70 0.006981
79 0.00399
87 0.004003
87 0.004991
81 0.007026
75 0.006978
81 0.007015
91 0.007012
108 0.003972
120 0.004022
133 0.006016
145 0.007013
156 0.007014
166 0.005996
174 0.004955
180 0.005045
185 0.007016
191 0.005959
201 0.008011
213 0.007987
224 0.004958
237 0.004984
238 0.004987
154 0.007032
82 0.00702
52 0.004985
57 0.004986
70 0.002956
83 0.007013
96 0.007963
109 0.004995
117 0.008014
116 0.008013
106 0.005017
105 0.00498
111 0.005006
121 0.00801
133 0.008011
150 0.004986
163 0.005989
172 0.005045
182 0.008007
193 0.005982
199 0.007982
203 0.007972
210 0.00595
215 0.005986
220 0.006028
231 0.007968
242 0.007966
242 0.005986
176 0.006004
116 0.005987
95 0.00697
106 0.006026
126 0.00698
140 0.007001
153 0.005989
166 0.006005
170 0.005955
158 0.007994
148 0.007045
147 0.006971
154 0.006031
163 0.006015
177 0.006977
192 0.006977
207 0.006979
216 0.007009
223 0.005984
228 0.005987
231 0.005984
234 0.006986
237 0.006992
188 0.006934
188 0.006968
173 0.006982
129 0.006988
113 0.006982
116 0.006006
122 0.006985
128 0.005987
133 0.005974
136 0.006003
142 0.007013
141 0.006034
134 0.005999
132 0.00598
134 0.006938
138 0.005989
145 0.005984
150 0.006015
154 0.006031
160 0.006982
163 0.00697
165 0.007005
167 0.006979
169 0.007014
171 0.005987
173 0.006006
175 0.005975
179 0.005975
164 0.005981
133 0.005984
115 0.00599
111 0.006016
117 0.005986
123 0.005979
129 0.005976
132 0.006021
136 0.005028
139 0.005981
138 0.004954
133 0.004987
133 0.004956
135 0.005983
139 0.005986
143 0.005991
148 0.005985
152 0.005031
155 0.005984
158 0.005985
161 0.005001
163 0.004985
165 0.00498
166 0.004992
169 0.004993
171 0.004994
175 0.005059
174 0.005017
136 0.004983
115 0.004943
109 0.003996
112 0.005031
118 0.005024
125 0.00496
129 0.005029
136 0.00499
143 0.004972
136 0.004957
129 0.005024
128 0.005028
135 0.004991
143 0.004985
151 0.004032
158 0.004053
165 0.00399
174 0.00395
179 0.003938
183 0.00399
188 0.005014
190 0.005013
193 0.005034
196 0.005018
184 0.004984
140 0.004022
108 0.004014
97 0.004024
101 0.003969
111 0.003998
123 0.003989
131 0.00399
143 0.004024
141 0.00399
132 0.003956
126 0.003996
125 0.00402
132 0.003989
139 0.002999
146 0.004001
153 0.004022
158 0.003977
166 0.003987
170 0.003958
174 0.003956
175 0.003991
176 0.00399
179 0.003992
179 0.004027
138 0.003026
98 0.002992
77 0.003027
74 0.002992
80 0.003029
91 0.002976
95 0.002981
103 0.004029
105 0.004023
102 0.004024
97 0.003
96 0.002982
98 0.002979
104 0.003025
112 0.002966
118 0.003062
124 0.002988
132 0.002991
137 0.003954
143 0.003031
145 0.002994
147 0.003026
150 0.00399
153 0.001994
158 0.002942
163 0.002958
167 0.002992
167 0.002993
131 0.00299
75 0.003008
57 0.002985
62 0.002984
70 0.003018
76 0.002992
78 0.002992
82 0.003034
86 0.002008
83 0.001995
76 0.002032
74 0.002974
77 0.002013
88 0.002009
96 0.001984
106 0.001976
115 0.002028
122 0.001996
129 0.002011
132 0.002026
138 0.002025
143 0.002054
147 0.002027
151 0.002027
155 0.002002
157 0.002026
164 0.001994
173 0.002015
186 0.000998
189 0.001996
146 0.00202
93 0.000998
67 0.001996
64 0.000998
75 0.00103
87 0.000989
94 0.000987
102 0.002026
112 0.001994
110 0.001996
101 0.001987
100 0.002051
105 0.002169
111 0.002036
121 0.000998
131 0.001996
139 0.000998
147 0.001963
153 0.000996
156 0.000964
161 0.002057
160 0.000998
165 0.001042
168 0.0
171 0.002029
143 0.002029
100 0.001997
70 0.000997
69 0.001008
77 0.001034
87 0.001019
96 0.001001
107 0.001015
118 0.000976
112 0.000997
105 0.002024
104 0.000994
108 0.001991
116 0.000998
129 0.0
137 0.0
145 0.0
153 0.0
159 0.0
167 0.000997
173 0.001008
177 0.00096
180 0.000997
183 0.000998
187 0.0
190 0.000997
144 0.0
94 0.0
69 0.0
62 0.0
69 0.0
78 0.000996
88 0.0
92 0.000998
100 0.000998
99 0.0
91 0.0
87 0.000957
89 0.001
96 0.0
106 0.0
116 0.0
124 0.0
132 0.0
143 0.0
150 0.0
154 0.001986
158 0.000998
162 0.00099
167 0.0
172 0.0
182 0.00302
190 0.003018
141 0.0
89 0.0
63 0.0
62 0.0
72 0.001009
80 0.002025
88 0.002032
98 0.00098
102 0.0
99 0.000998
91 0.002001
88 0.002987
103 0.0
113 0.0
117 0.0
134 0.0
142 0.0
147 0.003024
150 0.003024
154 0.0
157 0.000963
160 0.0
165 0.002039
169 0.002989
146 0.0
92 0.001023
61 0.0
53 0.001052
63 0.0
74 0.003036
85 0.003029
99 0.001045
108 0.0
108 0.0
99 0.002991
92 0.002993
94 0.0
100 0.0
109 0.0
125 0.0
136 0.0
145 0.0
153 0.002027
160 0.002014
168 0.0
173 0.0
177 0.000963
182 0.002994
183 0.003002
127 0.000996
80 0.000995
52 0.000952
57 0.0
66 0.0
74 0.003023
80 0.003991
88 0.0
93 0.0
89 0.0
82 0.001974
79 0.001996
81 0.0
89 0.0
103 0.000993
112 0.000992
121 0.000963
130 0.00306
138 0.003027
146 0.0
151 0.0
155 0.0
158 0.003009
163 0.002992
171 0.001004
178 0.0
114 0.0
67 0.001993
45 0.001994
44 0.00294
51 0.00297
63 0.001996
71 0.002991
78 0.003001
86 0.002992
87 0.002982
79 0.002038
75 0.002006
80 0.002021
89 0.001981
99 0.001994
111 0.004038
121 0.00404
134 0.001995
142 0.001997
148 0.001994
154 0.002991
159 0.003974
166 0.002995
172 0.003014
178 0.002994
148 0.003008
97 0.002994
67 0.002993
58 0.004033
62 0.003989
76 0.002992
85 0.001961
93 0.001994
103 0.003995
107 0.004013
97 0.001992
89 0.003992
92 0.002978
100 0.002987
110 0.002992
120 0.004037
130 0.003979
142 0.002994
150 0.002985
157 0.002991
163 0.003993
168 0.004028
172 0.002978
177 0.005024
184 0.001995
190 0.002013
183 0.001997
126 0.004987
76 0.004986
50 0.003001
51 0.002991
60 0.001996
70 0.00401
75 0.004015
83 0.002989
90 0.003989
86 0.002017
80 0.003011
78 0.002991
83 0.004996
92 0.005019
105 0.002986
116 0.002002
126 0.001995
135 0.004988
143 0.00502
152 0.003
157 0.004987
163 0.001995
167 0.003001
172 0.002965
176 0.005984
183 0.004975
191 0.00299
200 0.003956
209 0.002959
175 0.005024
101 0.005018
55 0.003013
51 0.005041
63 0.003996
72 0.002012
78 0.00204
84 0.006019
93 0.006011
93 0.003036
87 0.002994
82 0.002988
83 0.002993
90 0.004971
100 0.005028
119 0.004986
129 0.006017
142 0.00201
151 0.003004
156 0.002993
163 0.005984
166 0.005985
172 0.002989
177 0.002991
183 0.00199
191 0.005978
201 0.006006
172 0.005998
113 0.005985
75 0.004014
73 0.003988
82 0.003962
93 0.005986
105 0.00694
121 0.003012
133 0.002976
133 0.002995
123 0.005947
112 0.005959
113 0.006954
120 0.006949
136 0.00495
147 0.003954
157 0.004005
167 0.006982
177 0.006978
185 0.003923
192 0.004022
196 0.002971
200 0.00703
204 0.00699
204 0.007023
150 0.006976
81 0.005032
62 0.004977
60 0.005007
67 0.006936
77 0.006971
86 0.004184
94 0.004028
101 0.003982
101 0.006959
92 0.007938
84 0.006982
88 0.007979
99 0.00399
109 0.004991
120 0.00499
133 0.007972
139 0.007968
151 0.004993
159 0.004029
163 0.004034
166 0.006982
170 0.006988
178 0.007017
184 0.007021
176 0.007016
103 0.005006
62 0.004987
44 0.004991
39 0.006944
45 0.007981
54 0.004014
59 0.004019
65 0.004019
70 0.006986
66 0.004965
60 0.008012
59 0.006993
66 0.005996
74 0.005998
86 0.00495
96 0.008012
110 0.007944
120 0.004969
128 0.003929
134 0.004012
142 0.007963
149 0.005033
155 0.007949
161 0.007014
169 0.006017
177 0.005979
186 0.005979
161 0.007041
96 0.006983
57 0.004958
43 0.005942
45 0.004924
58 0.008005
70 0.005982
79 0.007968
87 0.006981
87 0.00695
77 0.006966
73 0.00698
75 0.006986
81 0.006985
92 0.005984
108 0.005984
116 0.004974
130 0.006981
141 0.005017
151 0.00698
156 0.007011
159 0.005978
166 0.005984
172 0.006903
180 0.006026
187 0.005983
170 0.005942
115 0.006982
69 0.006992
60 0.006985
71 0.006968
82 0.00698
90 0.007018
101 0.005982
112 0.005949
108 0.006015
99 0.005985
92 0.005984
95 0.005984
104 0.004986
115 0.005978
126 0.005974
145 0.005964
154 0.004987
162 0.005026
169 0.007028
176 0.005953
177 0.006014
180 0.005993
185 0.005981
190 0.005987
196 0.005946
187 0.005968
123 0.00602
53 0.004995
42 0.005953
46 0.006018
54 0.006034
62 0.00598
67 0.005983
75 0.006031
78 0.005961
75 0.005987
67 0.004986
66 0.006014
71 0.006019
89 0.004987
101 0.004993
113 0.004967
124 0.005017
136 0.004966
143 0.005016
148 0.004985
153 0.004994
158 0.00501
167 0.004987
173 0.005023
181 0.004986
197 0.004987
211 0.005985
224 0.005983
197 0.005983
93 0.004988
59 0.005984
49 0.004953
54 0.004958
65 0.004996
77 0.005004
84 0.004966
93 0.004957
100 0.004976
94 0.004983
89 0.005038
89 0.00506
99 0.003985
111 0.003945
123 0.004008
136 0.003986
148 0.005002
162 0.004984
170 0.004986
177 0.005024
186 0.004942
190 0.004956
195 0.005022
201 0.005024
211 0.003991
221 0.003994
233 0.003996
224 0.00399
150 0.003998
95 0.003955
72 0.004033
75 0.003959
94 0.003939
106 0.004951
117 0.003958
129 0.003989
132 0.00399
118 0.003011
110 0.003054
110 0.003989
116 0.002955
126 0.00397
144 0.003762
155 0.00399
175 0.003024
184 0.003026
192 0.003951
198 0.004004
202 0.00402
206 0.00396
209 0.003991
214 0.004001
219 0.003988
209 0.003985
115 0.002993
70 0.003979
53 0.002993
61 0.003079
71 0.003991
79 0.003025
84 0.003003
96 0.004004
96 0.002957
89 0.002996
79 0.002992
78 0.002994
86 0.003035
97 0.002992
118 0.00299
130 0.003034
143 0.002993
153 0.002993
162 0.002991
174 0.002993
180 0.00298
185 0.003026
190 0.002979
197 0.002992
205 0.002993
214 0.001996
182 0.001997
216 0.001995
131 0.00203
75 0.001995
53 0.001997
53 0.001999
61 0.003011
71 0.002992
77 0.001965
85 0.003004
93 0.002984
93 0.002997
82 0.002011
80 0.001996
87 0.002032
94 0.002021
106 0.002049
119 0.002008
136 0.001998
148 0.002006
159 0.002007
167 0.002034
174 0.001994
183 0.002025
190 0.001995
199 0.002033
206 0.001994
213 0.002025
222 0.001941
232 0.001986
249 0.00199
255 0.001038
242 0.001024
132 0.001022
70 0.000981
54 0.001972
73 0.002004
95 0.00202
108 0.002021
120 0.002024
132 0.001984
136 0.001991
122 0.00204
113 0.00103
112 0.001041
118 0.000965
129 0.001005
147 0.002002
167 0.000997
183 0.002028
193 0.00203
203 0.002045
209 0.002
213 0.000964
217 0.001018
220 0.001012
225 0.00206
232 0.001
240 0.001013
219 0.001997
116 0.002034
68 0.00199
62 0.000991
66 0.000998
77 0.002041
89 0.001041
105 0.001033
118 0.0
120 0.0
108 0.0
97 0.0
92 0.0
102 0.000998
119 0.001002
135 0.000997
149 0.0
163 0.000995
173 0.001003
184 0.0
193 0.0
198 0.0
203 0.0
206 0.0
210 0.0
220 0.0
183 0.0
211 0.0
120 0.0
64 0.0
44 0.0
40 0.001012
50 0.0
60 0.0
66 0.0
74 0.0
83 0.0
78 0.0
72 0.000999
66 0.0
71 0.002979
86 0.0
100 0.000966
109 0.000964
128 0.002968
139 0.003015
151 0.0
156 0.0
164 0.0
171 0.0
174 0.0
180 0.002024
186 0.002989
197 0.000996
207 0.0
219 0.000997
228 0.001991
182 0.001984
76 0.001005
45 0.0
38 0.001069
52 0.000965
63 0.0
75 0.003022
90 0.002993
97 0.0
95 0.0
79 0.0
65 0.003
59 0.002991
69 0.000972
81 0.0
95 0.0
124 0.0
142 0.0
156 0.004024
165 0.001994
174 0.001024
179 0.0
183 0.0
187 0.002992
195 0.002991
209 0.00399
232 0.0
242 0.0
128 0.0
72 0.0
54 0.000997
54 0.003956
64 0.003022
79 0.0
89 0.000998
104 0.001002
112 0.001999
106 0.001994
89 0.000995
85 0.001034
93 0.000993
103 0.001043
116 0.0
128 0.00299
141 0.002994
156 0.0
166 0.0
176 0.0
180 0.002993
182 0.002992
191 0.0
197 0.000999
119 0.000971
64 0.000966
39 0.000958
33 0.002986
39 0.002988
49 0.000999
55 0.0
62 0.0
71 0.002992
71 0.002038
61 0.0
55 0.001054
60 0.0
70 0.0
82 0.0
97 0.002992
111 0.002993
128 0.0
138 0.0
146 0.0
155 0.002991
161 0.002991
169 0.0
176 0.002984
173 0.0
116 0.002047
62 0.002018
34 0.003024
28 0.003001
32 0.0
40 0.001994
46 0.002987
51 0.003989
61 0.004013
65 0.002993
58 0.002992
55 0.003085
60 0.003005
69 0.002991
79 0.002944
91 0.003014
108 0.002002
119 0.001001
129 0.0
139 0.001995
148 0.003993
150 0.003905
155 0.0
162 0.003989
172 0.002991
181 0.002996
159 0.002995
90 0.003986
44 0.002994
22 0.002991
26 0.002019
36 0.002994
45 0.004023
52 0.00398
66 0.002026
72 0.003989
65 0.001993
61 0.002991
63 0.001987
71 0.003972
82 0.003995
100 0.002993
113 0.002989
127 0.002991
137 0.004987
146 0.004971
157 0.002991
165 0.005143
175 0.002996
183 0.003971
193 0.002962
196 0.003991
147 0.00496
75 0.00301
55 0.002984
53 0.002996
62 0.004986
73 0.004984
88 0.003018
107 0.006014
114 0.002989
107 0.003975
97 0.002948
96 0.005032
101 0.005017
119 0.002981
136 0.003021
153 0.002996
169 0.004958
183 0.005022
199 0.002991
210 0.005018
218 0.002003
224 0.002961
231 0.002993
239 0.004986
227 0.004988
128 0.002998
81 0.002995
64 0.002989
66 0.005978
74 0.005989
84 0.005984
101 0.005968
115 0.005984
117 0.002988
103 0.002987
93 0.002007
94 0.004988
103 0.005016
121 0.002972
136 0.003007
151 0.003012
164 0.00601
175 0.005988
191 0.006015
202 0.006011
217 0.002969
215 0.002994
155 0.003003
90 0.005985
63 0.005976
57 0.00396
65 0.003043
77 0.00304
92 0.006968
111 0.006973
130 0.005978
120 0.005971
103 0.002988
100 0.003002
107 0.002983
118 0.005988
130 0.006969
146 0.003956
158 0.003941
171 0.003982
183 0.006972
197 0.007045
199 0.007009
128 0.006979
58 0.004005
41 0.003026
41 0.003992
48 0.006975
58 0.00598
72 0.003946
85 0.003969
96 0.002975
97 0.006982
90 0.006925
88 0.007011
100 0.00695
124 0.003987
142 0.003983
165 0.002992
185 0.006995
200 0.006983
214 0.003984
216 0.003039
222 0.003987
224 0.006946
227 0.006982
234 0.00797
188 0.007981
187 0.004035
139 0.004019
95 0.004025
77 0.004027
71 0.007004
73 0.006987
78 0.003039
81 0.003993
83 0.004022
89 0.007945
94 0.004987
93 0.007978
93 0.007967
97 0.004014
103 0.003987
110 0.00394
118 0.006981
127 0.006952
137 0.004045
144 0.004018
150 0.00398
158 0.00701
165 0.005951
171 0.007012
176 0.006959
181 0.004985
186 0.004929
192 0.004071
200 0.007966
206 0.007982
212 0.003973
218 0.003962
223 0.003982
200 0.007978
108 0.00499
80 0.007979
76 0.006982
78 0.003994
83 0.005988
87 0.004973
89 0.007065
95 0.007012
100 0.005012
101 0.004963
100 0.005984
101 0.006989
106 0.004989
115 0.00696
123 0.005952
132 0.006029
140 0.00595
148 0.005925
157 0.006983
163 0.006994
167 0.005943
173 0.005984
178 0.006003
185 0.007002
195 0.005999
202 0.006986
208 0.005974
215 0.005991
219 0.005984
224 0.00607
227 0.005972
207 0.005986
