155 0.021941
156 0.005984
159 0.007013
162 0.005991
166 0.007012
165 0.006976
118 0.006982
61 0.006981
46 0.006976
55 0.007021
89 0.006013
117 0.005983
135 0.005984
133 0.005984
116 0.005984
100 0.005997
96 0.005977
110 0.00699
123 0.006943
134 0.006981
143 0.006981
148 0.006939
151 0.006944
150 0.005959
149 0.005984
150 0.005991
153 0.005991
156 0.005978
161 0.006025
157 0.005984
105 0.005985
55 0.006981
44 0.005984
56 0.005984
90 0.006023
117 0.005984
131 0.006078
128 0.006026
111 0.00595
98 0.00595
97 0.005983
112 0.005984
125 0.005983
136 0.005983
144 0.004986
149 0.005992
151 0.005034
151 0.005946
150 0.005992
151 0.006025
152 0.006031
155 0.005995
159 0.005995
164 0.005969
157 0.005026
104 0.005984
55 0.004994
45 0.005974
58 0.005943
99 0.005038
117 0.005013
131 0.004993
126 0.006004
109 0.006039
97 0.005992
97 0.005991
112 0.004997
124 0.005974
135 0.005026
143 0.005984
147 0.005985
148 0.004991
148 0.005984
147 0.005984
147 0.005986
149 0.005984
152 0.005925
157 0.004986
163 0.004991
150 0.00597
96 0.005024
54 0.006027
49 0.006002
82 0.005991
106 0.005996
126 0.005972
133 0.005984
124 0.005991
106 0.005983
95 0.004995
103 0.005028
116 0.005
127 0.004995
137 0.005028
143 0.005029
147 0.005026
147 0.004999
146 0.004979
146 0.005029
147 0.005029
149 0.00599
153 0.004988
158 0.004993
144 0.004987
89 0.004999
49 0.004997
43 0.005029
71 0.004989
94 0.005002
113 0.004985
120 0.00498
113 0.00502
98 0.003989
88 0.00399
94 0.003991
107 0.00399
121 0.004995
131 0.005019
138 0.005027
144 0.004972
144 0.005028
144 0.004977
145 0.003988
147 0.003964
151 0.004978
155 0.003993
155 0.003988
116 0.004
67 0.004035
51 0.004987
59 0.004987
98 0.004986
116 0.004949
131 0.004962
128 0.004962
113 0.004947
100 0.004021
99 0.003989
113 0.003998
126 0.004001
136 0.004029
143 0.003995
148 0.00399
148 0.004986
147 0.004997
147 0.004992
149 0.004987
152 0.005027
152 0.004987
122 0.003989
60 0.003959
49 0.003998
60 0.003998
83 0.004031
104 0.00399
127 0.003984
127 0.003959
108 0.003991
96 0.004017
98 0.003991
109 0.003987
122 0.003991
136 0.003991
144 0.004987
147 0.004026
148 0.004029
148 0.00399
148 0.00399
150 0.003991
154 0.003949
156 0.00399
128 0.003997
73 0.003946
48 0.003992
56 0.004028
76 0.003955
98 0.00399
113 0.003955
123 0.004004
112 0.002994
98 0.002959
93 0.002996
105 0.003987
119 0.003959
131 0.003992
140 0.00399
146 0.003948
149 0.003949
150 0.003988
150 0.002993
150 0.003991
155 0.002995
160 0.003018
164 0.002992
132 0.002993
76 0.002994
52 0.003006
56 0.002971
75 0.00399
105 0.00406
120 0.004055
130 0.002964
126 0.00399
102 0.004017
97 0.00399
105 0.003991
123 0.002993
136 0.002993
145 0.002992
150 0.002993
152 0.002957
151 0.00296
150 0.002994
151 0.002992
152 0.002961
159 0.002995
159 0.002992
126 0.003949
63 0.003998
54 0.003951
66 0.003991
89 0.002963
110 0.003004
130 0.002994
133 0.002959
121 0.002959
104 0.003034
99 0.00299
112 0.001972
126 0.002995
141 0.002992
148 0.002992
151 0.002986
152 0.003017
151 0.003019
151 0.003001
153 0.002991
156 0.003003
159 0.002992
115 0.002958
64 0.002992
49 0.002986
61 0.002997
82 0.001983
102 0.001993
116 0.001995
124 0.002996
114 0.003002
99 0.00296
92 0.002992
98 0.002962
122 0.003011
135 0.002962
143 0.00296
150 0.002955
152 0.002994
153 0.002985
152 0.002954
153 0.001959
156 0.001995
160 0.00196
165 0.00302
168 0.002993
107 0.003
62 0.002995
53 0.003175
71 0.002964
95 0.001994
116 0.001991
130 0.002028
136 0.002998
121 0.002999
107 0.002028
102 0.001957
111 0.002997
134 0.002
146 0.002986
155 0.002034
161 0.001992
162 0.001995
162 0.002032
160 0.001992
161 0.001982
164 0.001994
167 0.002028
172 0.002004
174 0.001984
101 0.001984
62 0.000991
59 0.000991
84 0.002008
112 0.001995
131 0.001994
145 0.001989
147 0.002014
125 0.001995
108 0.002004
106 0.001995
117 0.001995
140 0.001998
151 0.002042
157 0.00195
162 0.001997
162 0.001009
161 0.000996
161 0.00101
162 0.001003
165 0.000998
158 0.002012
109 0.00203
62 0.001995
58 0.001984
78 0.00198
104 0.000999
123 0.001005
139 0.00095
136 0.000995
120 0.001032
105 0.001022
103 0.001007
118 0.000997
132 0.001996
144 0.001995
157 0.002008
160 0.001064
161 0.000998
161 0.000995
161 0.000995
162 0.00096
165 0.000997
166 0.000999
136 0.000967
63 0.001027
49 0.001003
58 0.000998
98 0.001952
118 0.001956
132 0.0
137 0.001065
118 0.001956
103 0.000962
99 0.001024
108 0.001006
123 0.001007
141 0.000998
150 0.000998
157 0.000997
162 0.000972
161 0.000984
160 0.0
161 0.000987
163 0.000988
167 0.0
171 0.0
159 0.0
100 0.000998
53 0.00104
55 0.000998
76 0.000997
119 0.000988
134 0.000997
144 0.00101
135 0.000999
107 0.000997
97 0.000988
104 0.0
118 0.0
133 0.0
148 0.0
155 0.000997
158 0.000997
158 0.000996
158 0.000997
158 0.000997
160 0.0
163 0.0
136 0.0
78 0.000994
53 0.000997
56 0.0
85 0.0
111 0.0
130 0.0
143 0.0
127 0.0
108 0.0
100 0.000998
111 0.000999
125 0.001002
138 0.000987
148 0.0
155 0.0
160 0.0
160 0.0
159 0.0
159 0.0
162 0.0
165 0.0
159 0.0
85 0.0
50 0.0
47 0.0
62 0.0
87 0.0
115 0.0
128 0.0
131 0.0
117 0.0
93 0.0
95 0.0
108 0.0
128 0.0
140 0.0
148 0.0
154 0.0
155 0.0
155 0.0
154 0.0
155 0.0
158 0.0
164 0.0
156 0.0
103 0.0
52 0.0
52 0.0
69 0.0
103 0.0
122 0.0
135 0.0
133 0.000998
117 0.000998
100 0.0
100 0.0
119 0.0
129 0.0
140 0.0
150 0.001016
153 0.000948
152 0.0
151 0.0
151 0.0
153 0.000997
156 0.001002
155 0.0
95 0.000991
53 0.0
55 0.0
66 0.0
100 0.0
121 0.0
136 0.0
134 0.0
122 0.000999
98 0.000997
97 0.001008
113 0.0
133 0.001011
147 0.0
153 0.0
156 0.0
156 0.000987
156 0.000988
155 0.0
157 0.0
160 0.0
164 0.00101
159 0.001042
85 0.0
47 0.001007
56 0.001003
77 0.0
101 0.000971
117 0.00102
128 0.000952
119 0.0
107 0.000998
90 0.0
94 0.000997
108 0.001028
128 0.0
143 0.000997
151 0.0
154 0.000997
154 0.000998
154 0.000997
154 0.000999
157 0.001002
162 0.000952
167 0.000996
168 0.000998
131 0.000972
73 0.000997
54 0.000997
79 0.0
105 0.0
125 0.0
139 0.001
139 0.001043
117 0.0
103 0.001
103 0.001025
115 0.001989
130 0.002026
146 0.001035
156 0.002041
161 0.000989
161 0.001003
160 0.001007
159 0.001059
160 0.00102
163 0.001024
168 0.0
162 0.0
112 0.002033
64 0.001996
57 0.001021
85 0.001998
120 0.000998
132 0.000999
149 0.0
143 0.000999
122 0.002028
106 0.001009
111 0.000998
124 0.000996
138 0.001994
150 0.001995
160 0.000996
166 0.001954
167 0.00104
166 0.000968
166 0.000997
167 0.001899
170 0.002029
171 0.001031
132 0.001052
88 0.000956
48 0.001035
53 0.001996
84 0.001033
117 0.002031
133 0.001998
141 0.000997
126 0.000999
108 0.002029
100 0.002025
111 0.000968
126 0.001026
139 0.00103
150 0.001995
158 0.002005
163 0.001955
164 0.000999
164 0.001996
164 0.002027
166 0.001005
170 0.001033
174 0.002028
156 0.003024
93 0.002027
50 0.00103
51 0.002027
77 0.001994
107 0.00203
140 0.002045
150 0.002039
136 0.001044
115 0.001034
106 0.002032
111 0.003046
124 0.003025
142 0.002028
153 0.002026
161 0.002027
166 0.002992
168 0.002992
167 0.002041
166 0.001992
167 0.002031
170 0.001038
173 0.001969
152 0.002994
90 0.003026
49 0.002025
55 0.002027
79 0.000944
109 0.003024
131 0.002992
152 0.001993
141 0.003015
116 0.002036
101 0.003016
106 0.002028
119 0.002989
134 0.003039
150 0.001984
158 0.001956
164 0.001995
167 0.002992
167 0.003025
166 0.003026
166 0.003028
169 0.001992
158 0.00203
100 0.003026
50 0.00402
39 0.002993
58 0.001987
87 0.001989
112 0.001982
129 0.003023
139 0.002991
115 0.003001
96 0.003058
94 0.001996
105 0.002026
120 0.002001
134 0.002992
144 0.003988
154 0.002993
157 0.002988
158 0.002956
157 0.00399
157 0.003989
160 0.002976
164 0.003026
166 0.002989
120 0.001995
61 0.002979
41 0.004034
48 0.00399
82 0.003025
109 0.003034
128 0.003027
141 0.003989
137 0.004039
102 0.003029
92 0.00304
98 0.003041
116 0.002991
131 0.001989
143 0.004027
152 0.004022
157 0.003031
157 0.003012
155 0.003023
154 0.004005
154 0.00399
158 0.002992
162 0.004031
134 0.002991
93 0.003025
50 0.002962
47 0.00402
68 0.003989
106 0.002981
127 0.002975
143 0.003024
143 0.003989
122 0.00399
96 0.004025
100 0.003963
117 0.003044
131 0.002992
142 0.003032
150 0.004029
156 0.004029
159 0.003031
158 0.003892
158 0.003971
157 0.003973
160 0.003987
163 0.002971
140 0.004024
75 0.004024
37 0.002951
42 0.002969
63 0.002991
92 0.004986
115 0.00496
133 0.004041
131 0.00403
112 0.004017
94 0.005037
95 0.004018
109 0.005018
125 0.004024
138 0.004025
150 0.003025
156 0.003033
158 0.004031
158 0.004987
157 0.003996
157 0.002971
160 0.004027
163 0.003989
142 0.004015
81 0.004987
47 0.005022
50 0.003977
73 0.004022
102 0.004031
123 0.004973
139 0.005018
138 0.004017
115 0.003991
96 0.004033
93 0.004987
112 0.003024
127 0.004987
138 0.004027
148 0.004035
152 0.004019
153 0.005023
152 0.005023
152 0.005018
155 0.004014
155 0.004021
129 0.004033
71 0.004986
42 0.004028
54 0.004988
80 0.005986
113 0.004988
131 0.005036
139 0.00502
126 0.00502
104 0.00502
91 0.004018
98 0.004021
113 0.004006
128 0.006022
146 0.004989
152 0.005988
155 0.006022
156 0.00502
156 0.005021
156 0.005062
158 0.005984
159 0.005986
133 0.005041
56 0.004026
39 0.004022
44 0.004987
82 0.00402
106 0.004987
122 0.005029
128 0.004943
113 0.005021
94 0.00502
86 0.005984
94 0.005996
109 0.005026
125 0.00502
138 0.005018
150 0.005034
155 0.004981
154 0.005044
154 0.004985
155 0.004989
157 0.003978
161 0.004991
146 0.005997
88 0.005984
53 0.005011
49 0.004987
72 0.003986
99 0.005026
132 0.004981
141 0.006023
130 0.006019
99 0.005015
89 0.00503
96 0.00503
111 0.006023
127 0.005984
143 0.005026
148 0.005029
151 0.00503
151 0.006027
151 0.004029
153 0.006034
154 0.005989
114 0.00502
64 0.005018
48 0.005018
54 0.005992
73 0.006021
106 0.005039
125 0.005014
136 0.004983
129 0.005984
95 0.005982
90 0.006017
99 0.006017
114 0.006015
134 0.004952
144 0.005017
150 0.005984
154 0.006014
155 0.005025
155 0.005033
156 0.005019
159 0.005984
125 0.006031
68 0.006017
47 0.007014
48 0.006981
72 0.006017
95 0.005002
113 0.006018
126 0.006017
124 0.005985
99 0.005021
87 0.004992
89 0.004989
113 0.004993
129 0.005985
141 0.007015
149 0.006981
154 0.006016
154 0.005014
154 0.006019
155 0.007012
157 0.006982
161 0.00602
155 0.004987
103 0.005004
51 0.005025
56 0.005033
75 0.005984
100 0.006014
124 0.005954
135 0.006023
128 0.006036
106 0.006985
90 0.006975
94 0.006019
108 0.006017
124 0.005974
144 0.006016
150 0.005982
152 0.007935
151 0.008009
150 0.007018
151 0.007016
155 0.005995
157 0.007013
134 0.006981
66 0.005978
51 0.006028
57 0.006024
91 0.006017
112 0.007008
129 0.007012
133 0.007013
109 0.006023
92 0.005964
89 0.007016
100 0.006981
116 0.007012
136 0.005976
145 0.005983
152 0.005981
155 0.006022
154 0.006974
155 0.006985
156 0.006979
161 0.007016
163 0.007016
133 0.006958
75 0.007949
52 0.007978
56 0.007013
76 0.006017
100 0.005989
126 0.005994
130 0.005999
116 0.00702
97 0.007016
92 0.006982
102 0.006974
119 0.007006
135 0.007979
147 0.007978
157 0.006973
160 0.007979
160 0.007016
159 0.007978
160 0.007
163 0.006983
169 0.007979
169 0.006938
126 0.007014
72 0.007007
57 0.007979
63 0.007979
93 0.006984
117 0.007023
135 0.007012
143 0.007021
127 0.007013
98 0.007979
95 0.007979
110 0.006981
127 0.006982
142 0.006987
154 0.007982
158 0.007979
161 0.00701
160 0.00701
160 0.007019
164 0.00598
166 0.007014
145 0.00801
70 0.007021
52 0.007062
56 0.007015
75 0.00702
100 0.007979
125 0.007013
137 0.007561
133 0.00699
114 0.006992
95 0.006982
103 0.007023
118 0.007014
139 0.007002
151 0.007031
160 0.007028
163 0.007014
164 0.006983
164 0.007022
164 0.007979
166 0.006928
169 0.006981
169 0.006978
115 0.006934
56 0.007013
52 0.007025
65 0.007025
99 0.006984
121 0.006982
136 0.007019
141 0.007014
127 0.007012
102 0.00798
97 0.006981
114 0.007011
136 0.006997
150 0.006984
160 0.00699
167 0.006949
171 0.007024
171 0.007015
170 0.007029
170 0.006983
172 0.007018
177 0.006983
182 0.006994
176 0.007007
113 0.00701
58 0.006978
57 0.007018
76 0.007012
116 0.007013
138 0.007013
153 0.00699
156 0.007015
137 0.007025
108 0.007011
105 0.006022
127 0.006965
143 0.006993
156 0.006984
164 0.007029
169 0.007018
171 0.007021
170 0.00702
170 0.007019
171 0.007017
174 0.007023
176 0.007016
136 0.006017
58 0.005982
58 0.006974
76 0.005985
106 0.007019
132 0.006979
157 0.007022
162 0.007012
144 0.006019
120 0.006019
110 0.00703
121 0.007011
136 0.006018
158 0.005989
168 0.006006
174 0.006026
178 0.006023
179 0.006028
178 0.006996
178 0.00698
180 0.007015
182 0.007022
169 0.006984
80 0.005978
48 0.006017
59 0.005985
88 0.005986
118 0.006025
139 0.005983
153 0.005988
146 0.006014
122 0.006014
106 0.00703
104 0.007016
115 0.006024
136 0.006017
149 0.006024
165 0.005986
169 0.00598
170 0.006104
168 0.006023
167 0.006016
168 0.006024
171 0.006015
167 0.006017
117 0.006983
56 0.006024
39 0.006017
52 0.00502
99 0.006032
122 0.004979
140 0.005028
143 0.00608
125 0.005932
99 0.006022
96 0.006025
107 0.006025
123 0.006016
138 0.006016
154 0.006025
162 0.00602
167 0.004986
166 0.004981
165 0.005017
165 0.005022
166 0.005029
165 0.005028
103 0.006016
51 0.006017
40 0.004999
51 0.006025
76 0.006017
113 0.006017
138 0.004985
143 0.001012
118 0.004983
96 0.005024
91 0.005023
101 0.004987
122 0.004991
137 0.00602
148 0.006023
156 0.006018
161 0.005979
162 0.005023
162 0.004981
163 0.004962
165 0.005105
151 0.005024
91 0.004989
49 0.005021
46 0.005029
66 0.005022
96 0.004973
122 0.00502
141 0.005019
146 0.006019
116 0.00499
95 0.00499
99 0.004988
113 0.005019
129 0.005021
142 0.005032
155 0.005017
161 0.005018
164 0.005024
165 0.005028
165 0.005021
167 0.005018
151 0.004979
71 0.00394
47 0.004032
52 0.005037
74 0.00503
105 0.005022
138 0.005024
154 0.004983
152 0.005019
127 0.005027
104 0.004038
101 0.004022
118 0.003997
138 0.004001
150 0.00399
158 0.003993
163 0.004011
164 0.004029
165 0.005029
166 0.005021
163 0.004984
121 0.004986
62 0.005025
44 0.00499
66 0.003993
107 0.003995
132 0.003991
151 0.004028
152 0.004028
130 0.003991
101 0.003988
98 0.004024
110 0.005017
126 0.004987
140 0.004987
155 0.004024
163 0.003975
168 0.004029
168 0.004025
170 0.00399
165 0.004212
115 0.004028
46 0.004023
40 0.004027
54 0.004034
81 0.004035
110 0.004023
138 0.005023
143 0.003998
111 0.004032
91 0.004032
89 0.003992
103 0.004021
122 0.004031
142 0.004027
154 0.004021
161 0.004063
165 0.004035
166 0.004035
167 0.003991
170 0.003994
163 0.004017
103 0.004022
51 0.004043
42 0.004022
54 0.004024
92 0.00402
120 0.004029
141 0.004023
150 0.004008
137 0.004022
104 0.003028
95 0.003004
112 0.003024
129 0.004035
144 0.003959
155 0.004024
162 0.004023
165 0.00399
164 0.003997
164 0.004023
164 0.004028
167 0.002993
155 0.002991
60 0.002994
44 0.002959
59 0.002993
88 0.004034
117 0.004024
138 0.003993
151 0.003988
131 0.00404
105 0.004047
93 0.004001
99 0.003988
114 0.003027
141 0.002994
152 0.003024
161 0.003025
164 0.003026
164 0.002994
164 0.004001
166 0.002999
159 0.003949
104 0.004021
51 0.003029
38 0.004024
47 0.004032
91 0.003984
116 0.003014
138 0.002973
134 0.002995
113 0.002993
94 0.003023
89 0.002992
106 0.002992
123 0.003025
138 0.003033
149 0.003009
157 0.002996
161 0.002985
161 0.003005
161 0.003025
163 0.003045
164 0.002955
130 0.002993
66 0.002991
40 0.003038
49 0.002956
74 0.003015
103 0.002992
125 0.003041
141 0.002985
124 0.002992
97 0.002027
93 0.002035
105 0.001995
121 0.003024
137 0.003027
153 0.003024
161 0.003019
164 0.003031
165 0.002992
164 0.003036
166 0.002981
169 0.003038
155 0.003003
92 0.002992
52 0.001995
48 0.001995
64 0.002993
103 0.002993
128 0.002992
147 0.002992
151 0.003025
131 0.002992
97 0.00296
99 0.002994
119 0.003026
135 0.002992
149 0.002031
157 0.001999
163 0.001995
165 0.002028
165 0.001996
166 0.002047
168 0.001995
157 0.002004
60 0.001963
41 0.002992
54 0.001995
80 0.001995
108 0.002996
130 0.003001
144 0.00203
130 0.002026
107 0.001995
93 0.00203
97 0.001995
112 0.002027
140 0.002037
152 0.002036
162 0.001963
165 0.001966
165 0.001996
166 0.001965
167 0.001996
168 0.001994
141 0.001995
74 0.001996
43 0.002027
42 0.001967
77 0.001995
105 0.001995
131 0.002025
139 0.001964
126 0.001969
105 0.002021
92 0.001995
101 0.001995
118 0.000998
135 0.00201
148 0.001997
158 0.000998
166 0.001003
167 0.000999
165 0.000998
166 0.000997
169 0.000998
172 0.002031
164 0.001995
104 0.002028
48 0.001995
47 0.002059
66 0.000999
95 0.001042
135 0.000997
148 0.000999
139 0.000997
105 0.000997
91 0.000944
96 0.000986
112 0.002004
130 0.002005
148 0.001983
157 0.001
161 0.001967
163 0.002025
162 0.00203
164 0.001981
166 0.00201
147 0.000982
84 0.000994
50 0.000992
48 0.001031
65 0.001003
103 0.001001
128 0.000997
146 0.00101
148 0.000998
111 0.000975
97 0.001965
101 0.000997
122 0.001057
139 0.000998
152 0.00103
161 0.001
167 0.001004
168 0.000997
168 0.000998
168 0.000998
170 0.000997
156 0.000997
90 0.000969
47 0.000997
43 0.000997
61 0.000999
88 0.000998
113 0.000997
131 0.000998
135 0.000997
116 0.000997
96 0.000998
91 0.000997
112 0.000997
130 0.000997
145 0.001103
159 0.000998
164 0.000998
166 0.000997
166 0.0
165 0.0
168 0.0
171 0.0
174 0.0
143 0.0
53 0.0
48 0.0
63 0.001003
100 0.000998
126 0.000956
144 0.000999
148 0.000996
130 0.000998
107 0.0
97 0.001002
108 0.0
126 0.0
150 0.0
159 0.0
163 0.0
165 0.0
164 0.0
165 0.0
167 0.0
169 0.0
119 0.0
63 0.0
48 0.0
57 0.0
101 0.0
127 0.000997
147 0.0
148 0.0
126 0.0
105 0.0
102 0.0
113 0.0
134 0.0
148 0.0
159 0.0
166 0.0
170 0.0
170 0.0
171 0.000997
172 0.0
147 0.0
80 0.0
45 0.0
43 0.0
67 0.0
95 0.0
118 0.0
136 0.0
121 0.0
101 0.001009
94 0.000998
101 0.000997
117 0.000998
138 0.0
150 0.0
156 0.000998
163 0.0
165 0.000958
166 0.000972
167 0.0
170 0.000992
136 0.000997
71 0.0
46 0.0
49 0.001028
69 0.001029
107 0.0
130 0.0
146 0.0
141 0.000997
119 0.001004
97 0.0
103 0.000998
119 0.000998
135 0.000998
148 0.000998
159 0.000967
162 0.000997
162 0.000998
162 0.000997
163 0.0
165 0.000997
161 0.00103
93 0.0
48 0.000966
56 0.0
80 0.0
109 0.0
134 0.00087
149 0.000998
136 0.0
110 0.0
94 0.0
97 0.002041
112 0.000999
135 0.0
151 0.000998
160 0.0
162 0.0
163 0.0
163 0.00103
165 0.001022
160 0.0
107 0.0
54 0.0
40 0.001006
48 0.001033
80 0.0
115 0.00104
137 0.0
134 0.0
120 0.000968
93 0.000999
90 0.001953
106 0.0
124 0.0
139 0.0
150 0.001032
157 0.001029
159 0.0
159 0.001039
161 0.0
164 0.0
160 0.001038
112 0.001995
57 0.002025
42 0.000998
55 0.0
81 0.001035
108 0.001997
130 0.001001
140 0.0
115 0.001037
92 0.001023
94 0.0
103 0.000999
126 0.001037
142 0.001995
156 0.0
161 0.0
163 0.000998
163 0.001996
162 0.001995
164 0.000996
169 0.002993
139 0.0
74 0.001981
47 0.001003
50 0.001995
70 0.001965
108 0.000999
133 0.001
150 0.000998
144 0.002021
118 0.002029
93 0.001023
101 0.001994
124 0.000951
141 0.000991
153 0.001007
160 0.001995
164 0.001995
165 0.000998
166 0.000964
167 0.000957
169 0.002022
152 0.002028
68 0.000999
41 0.002032
56 0.000999
83 0.002033
111 0.001035
133 0.003001
145 0.002992
127 0.002028
104 0.000993
93 0.001011
99 0.002961
116 0.003028
139 0.000952
156 0.002018
165 0.001027
168 0.00099
168 0.001001
168 0.000986
169 0.001995
172 0.002028
166 0.001007
110 0.001987
55 0.001852
42 0.002992
52 0.002992
98 0.002992
124 0.002992
147 0.002029
143 0.00203
121 0.002034
101 0.002963
97 0.003026
114 0.002031
132 0.002033
147 0.001038
159 0.003037
166 0.002963
170 0.003027
170 0.003027
170 0.000992
173 0.001996
175 0.001996
152 0.002989
85 0.002992
47 0.001989
53 0.002022
76 0.001986
108 0.003036
135 0.002993
158 0.003024
142 0.002992
108 0.001994
99 0.001006
107 0.00101
124 0.004022
140 0.002992
158 0.002
166 0.001988
170 0.001983
172 0.002963
173 0.003024
175 0.003026
161 0.003027
74 0.002031
43 0.003019
43 0.003033
61 0.004023
91 0.00402
128 0.001973
147 0.001999
149 0.002
128 0.00399
105 0.002992
100 0.00403
114 0.002992
137 0.002002
150 0.003043
160 0.003023
166 0.004025
169 0.003989
170 0.001987
171 0.001961
172 0.001958
156 0.004028
88 0.004016
39 0.00399
47 0.003002
82 0.001957
113 0.002028
137 0.001989
151 0.003038
143 0.003033
111 0.001032
99 0.003036
103 0.003026
118 0.004026
136 0.003975
158 0.004027
167 0.004023
172 0.003019
172 0.003024
172 0.002034
174 0.003987
176 0.003989
151 0.003025
83 0.003021
48 0.001989
47 0.003027
65 0.003027
116 0.003023
141 0.003989
157 0.002981
139 0.003026
111 0.002988
96 0.004023
100 0.00399
121 0.002992
138 0.003027
151 0.002998
160 0.004031
165 0.003989
168 0.003992
169 0.003995
169 0.003039
139 0.002996
73 0.002987
43 0.003987
44 0.003989
73 0.002991
104 0.002986
130 0.002996
150 0.004025
148 0.004033
109 0.004986
97 0.005019
107 0.002987
123 0.002983
139 0.002991
152 0.005025
160 0.003977
166 0.00298
167 0.00399
168 0.003977
170 0.003991
169 0.00403
81 0.003032
39 0.004988
34 0.005022
55 0.003025
83 0.003022
110 0.003023
131 0.005035
138 0.005026
114 0.002975
94 0.002985
89 0.001957
99 0.004018
129 0.003005
144 0.004044
155 0.004987
164 0.004023
166 0.003984
167 0.003978
167 0.004987
169 0.004994
172 0.002991
152 0.003
83 0.003026
45 0.005018
50 0.003002
76 0.005031
106 0.004987
137 0.003993
147 0.003973
132 0.004025
107 0.005031
93 0.004972
100 0.00403
117 0.002974
135 0.003956
148 0.005008
160 0.003991
162 0.004996
161 0.005019
160 0.003988
162 0.003988
166 0.003986
168 0.004986
140 0.004987
59 0.00399
42 0.003024
50 0.004023
75 0.006008
123 0.003982
143 0.005984
147 0.004987
118 0.003984
98 0.003988
94 0.003986
104 0.004987
121 0.004986
141 0.004032
151 0.002965
158 0.004979
161 0.005034
162 0.004026
162 0.005984
163 0.006011
162 0.00399
115 0.003953
54 0.00399
33 0.005985
38 0.005984
68 0.003991
96 0.003994
119 0.003978
133 0.005077
113 0.004008
91 0.004986
84 0.006018
98 0.003992
115 0.003988
132 0.003991
145 0.006034
154 0.006102
160 0.004986
160 0.004988
161 0.004987
161 0.006016
167 0.004011
170 0.006038
144 0.006018
60 0.004964
40 0.004978
46 0.003989
70 0.005033
100 0.005028
132 0.004984
145 0.004988
137 0.005018
113 0.005987
93 0.005019
103 0.006016
120 0.005984
141 0.004019
152 0.004036
159 0.003992
162 0.005984
162 0.006034
163 0.004985
165 0.004987
168 0.004991
162 0.006025
69 0.004973
46 0.00602
51 0.005994
83 0.004979
114 0.005005
139 0.004989
155 0.005984
148 0.005983
115 0.004987
101 0.006012
104 0.005018
119 0.006939
146 0.004989
158 0.007013
166 0.007022
171 0.005022
172 0.005019
172 0.004988
174 0.006979
175 0.007019
127 0.004981
62 0.004954
40 0.004968
44 0.004955
84 0.005021
112 0.004025
133 0.006854
143 0.007015
123 0.005011
101 0.005023
91 0.006015
99 0.007014
115 0.007023
138 0.004991
151 0.004973
159 0.004988
165 0.004968
165 0.004984
166 0.006984
167 0.007011
172 0.005987
158 0.006017
93 0.006021
49 0.006987
41 0.007016
62 0.005025
91 0.005032
119 0.004999
145 0.004983
135 0.005985
112 0.00602
95 0.007015
99 0.005977
115 0.005992
133 0.006033
147 0.006981
157 0.007015
164 0.004986
165 0.006985
164 0.004999
166 0.005951
169 0.005982
167 0.007018
123 0.007013
54 0.005986
46 0.005979
60 0.005992
87 0.007014
117 0.006984
148 0.005024
153 0.006023
132 0.006015
97 0.004992
99 0.005996
119 0.007969
137 0.007978
151 0.006019
160 0.005985
165 0.005983
166 0.007016
167 0.00702
169 0.004998
170 0.005018
164 0.004999
67 0.005019
42 0.006018
43 0.007978
62 0.007979
100 0.005975
124 0.005987
141 0.006016
136 0.006982
115 0.006993
93 0.005961
96 0.005989
110 0.005998
138 0.005978
151 0.006027
159 0.007963
163 0.007979
165 0.007017
165 0.006006
165 0.005981
168 0.007979
171 0.007979
136 0.005984
69 0.005984
43 0.005985
55 0.006982
82 0.006982
110 0.007978
138 0.007978
142 0.006981
125 0.00598
104 0.005984
94 0.007975
102 0.007978
124 0.006992
141 0.005952
154 0.005987
166 0.006986
167 0.006982
167 0.007979
167 0.007979
170 0.006977
173 0.006982
167 0.005976
90 0.007977
59 0.007981
48 0.007013
65 0.005981
94 0.005955
138 0.006983
153 0.006985
145 0.007959
120 0.007979
97 0.006981
102 0.006988
117 0.007021
140 0.007945
153 0.007925
162 0.007016
166 0.005977
168 0.007002
169 0.006983
171 0.00698
165 0.008021
135 0.007979
56 0.006996
42 0.006981
50 0.006984
85 0.007979
115 0.006983
138 0.006981
148 0.00698
130 0.006984
97 0.006981
96 0.006959
112 0.006971
130 0.006982
141 0.007979
157 0.006951
164 0.00698
167 0.006945
168 0.007984
168 0.006965
171 0.006981
172 0.006977
94 0.006982
47 0.006978
36 0.00697
47 0.007015
72 0.007014
101 0.00699
125 0.006986
140 0.006982
127 0.006989
104 0.006989
90 0.006982
99 0.006987
128 0.006986
144 0.006984
155 0.006969
162 0.007015
165 0.007014
166 0.006983
166 0.006981
168 0.006989
171 0.006993
169 0.006963
96 0.006981
50 0.006984
48 0.00701
71 0.006971
102 0.006987
128 0.007019
147 0.007014
145 0.006981
111 0.006017
91 0.006029
92 0.005984
106 0.006992
131 0.006977
146 0.007015
159 0.006979
162 0.006979
163 0.006979
163 0.007016
165 0.006982
168 0.006982
149 0.006016
84 0.005985
48 0.005984
44 0.005996
67 0.005984
98 0.006994
142 0.006986
152 0.007011
136 0.006981
109 0.006974
95 0.007014
103 0.006975
120 0.006015
138 0.005986
152 0.005984
161 0.005985
166 0.005983
168 0.006022
169 0.006978
171 0.006989
169 0.006981
128 0.007016
62 0.007021
37 0.006985
46 0.00597
69 0.005992
97 0.005981
121 0.006058
140 0.006015
127 0.005978
92 0.006019
90 0.006015
102 0.00602
120 0.006014
138 0.006994
155 0.007031
163 0.005983
167 0.00597
167 0.005986
167 0.006
169 0.005989
172 0.00599
166 0.006014
104 0.005962
54 0.005985
43 0.006019
54 0.006019
90 0.006016
119 0.005983
141 0.005985
150 0.005988
134 0.005991
102 0.005984
94 0.006002
115 0.006013
133 0.005986
149 0.006024
159 0.006026
165 0.006021
167 0.005022
167 0.004998
167 0.005984
170 0.005994
173 0.005984
160 0.005822
96 0.005983
46 0.006015
55 0.006016
80 0.006016
112 0.005019
139 0.005009
160 0.005017
148 0.00499
121 0.004987
104 0.004991
106 0.005991
125 0.005995
143 0.005988
164 0.006016
171 0.004986
174 0.004984
175 0.006018
176 0.005016
177 0.005017
179 0.004968
178 0.004968
134 0.00499
65 0.005016
39 0.005988
49 0.00597
84 0.004979
123 0.006017
143 0.006013
148 0.005017
130 0.004985
106 0.005019
95 0.004993
106 0.004977
124 0.004996
141 0.004985
155 0.004983
167 0.004974
173 0.005016
174 0.006018
175 0.005984
176 0.00502
178 0.005022
182 0.005019
156 0.00499
82 0.00499
46 0.004989
43 0.004948
62 0.004993
104 0.004987
140 0.003991
156 0.005986
142 0.003992
116 0.005023
101 0.003993
103 0.005017
124 0.004992
141 0.004988
155 0.004986
165 0.004986
171 0.004992
172 0.004969
172 0.005023
173 0.005017
176 0.005018
178 0.005014
155 0.005016
86 0.004024
46 0.003982
52 0.004076
77 0.003989
111 0.00399
140 0.004992
166 0.005052
152 0.005028
116 0.004993
107 0.004983
114 0.005017
129 0.005023
145 0.004988
163 0.00398
171 0.00399
177 0.003988
179 0.003986
180 0.00399
181 0.004979
182 0.004995
140 0.005018
66 0.00502
38 0.004984
40 0.004983
60 0.003979
103 0.003982
131 0.004
151 0.003987
151 0.003989
128 0.003988
101 0.003955
101 0.003991
122 0.004997
138 0.005023
153 0.005021
163 0.004026
170 0.003967
173 0.003984
174 0.003991
174 0.004011
176 0.003989
179 0.003982
162 0.003955
69 0.00399
36 0.00399
44 0.003991
71 0.003044
104 0.004017
131 0.003952
154 0.00394
145 0.003993
119 0.00393
99 0.00403
98 0.003995
115 0.003989
138 0.00402
155 0.004022
164 0.004028
168 0.004008
169 0.00399
168 0.003958
169 0.003989
170 0.002953
173 0.002963
167 0.002959
110 0.003983
45 0.003941
46 0.004001
81 0.003989
114 0.004025
141 0.003991
160 0.003991
154 0.003955
119 0.002947
102 0.002959
103 0.002962
117 0.002961
134 0.002961
152 0.003994
165 0.004041
171 0.004033
173 0.00404
173 0.00399
174 0.00399
176 0.003957
162 0.003957
71 0.002944
36 0.002992
34 0.00298
52 0.002965
83 0.002992
129 0.002945
147 0.002979
135 0.002992
109 0.002992
93 0.002992
94 0.003016
108 0.002989
131 0.003007
145 0.002985
156 0.002993
162 0.004
166 0.002993
168 0.003989
169 0.002993
173 0.003027
162 0.003026
96 0.002993
44 0.003004
33 0.002999
53 0.002986
84 0.00301
115 0.002972
139 0.003006
151 0.002989
119 0.002993
98 0.002992
96 0.002992
110 0.002993
128 0.003028
143 0.002963
155 0.002989
164 0.002991
166 0.002997
166 0.003002
167 0.003037
169 0.002992
165 0.003022
111 0.002992
44 0.001993
39 0.003024
54 0.002985
84 0.002002
116 0.001961
149 0.002953
156 0.001969
136 0.003013
109 0.002998
97 0.002995
112 0.002027
129 0.002992
149 0.002992
159 0.002029
165 0.002024
169 0.001995
170 0.001989
172 0.001992
172 0.001982
144 0.001992
72 0.001994
37 0.001962
43 0.003037
69 0.002992
109 0.002962
133 0.002992
144 0.002006
131 0.001992
107 0.001999
89 0.001994
96 0.001997
112 0.001995
129 0.001995
144 0.001995
159 0.001996
163 0.002028
165 0.001995
167 0.001996
170 0.001991
168 0.002004
124 0.001013
47 0.002016
35 0.00197
46 0.002
71 0.001994
103 0.001992
142 0.001995
145 0.002041
117 0.002032
97 0.002037
94 0.001996
105 0.001997
122 0.001929
144 0.001993
155 0.001989
161 0.002009
164 0.001958
166 0.000985
167 0.000976
170 0.001005
147 0.002036
79 0.001996
44 0.001996
41 0.001987
58 0.000984
98 0.001993
127 0.001989
149 0.002015
151 0.001992
128 0.001047
95 0.000998
98 0.000998
119 0.000998
137 0.001005
151 0.001004
160 0.000998
166 0.001011
169 0.000967
171 0.000998
172 0.000994
166 0.001001
109 0.000996
37 0.001995
38 0.001965
57 0.002024
96 0.001995
123 0.001995
142 0.001998
141 0.002016
119 0.001996
93 0.001019
93 0.001003
107 0.000992
124 0.000989
149 0.000997
158 0.000998
164 0.000997
167 0.000989
167 0.002003
169 0.002014
171 0.000969
150 0.000995
62 0.001994
38 0.0
41 0.000998
60 0.000982
109 0.000998
134 0.001006
146 0.001002
125 0.001012
103 0.00096
93 0.00101
101 0.000992
117 0.001027
141 0.0
154 0.0
162 0.000991
166 0.0
167 0.000997
168 0.000998
171 0.000998
170 0.000997
128 0.000987
65 0.000995
43 0.000983
47 0.000994
79 0.002016
109 0.0
136 0.0
152 0.001011
125 0.000997
100 0.000997
92 0.001001
107 0.001041
125 0.000988
142 0.001001
154 0.000991
162 0.000993
166 0.000983
167 0.001004
169 0.000995
170 0.000987
118 0.0
57 0.0
38 0.0
49 0.0
74 0.0
104 0.0
130 0.0
147 0.0
130 0.000999
105 0.000999
92 0.000978
96 0.0
123 0.0
140 0.0
152 0.0
162 0.0
165 0.0
167 0.0
169 0.0
170 0.0
144 0.0
75 0.0
41 0.0
36 0.0
68 0.0
97 0.0
124 0.0
143 0.0
130 0.0
106 0.0
91 0.0
94 0.0
114 0.0
133 0.0
149 0.0
160 0.0
168 0.000998
169 0.000998
170 0.0
173 0.000996
173 0.0
136 0.0
69 0.0
44 0.0
52 0.001005
77 0.0
108 0.000962
143 0.001011
146 0.0
118 0.0
96 0.0
93 0.001007
106 0.0
124 0.000999
147 0.0
158 0.000962
165 0.000998
168 0.001999
170 0.0
172 0.000997
163 0.000965
101 0.0
52 0.0
41 0.002011
51 0.001999
86 0.0
116 0.0
134 0.001013
152 0.001988
138 0.002004
112 0.002007
98 0.000996
111 0.002004
134 0.0
150 0.0
162 0.0
168 0.002014
172 0.001022
174 0.0
176 0.000986
176 0.000966
143 0.000963
72 0.001029
39 0.0
51 0.002032
86 0.0
115 0.0
139 0.0
149 0.002016
135 0.002031
106 0.0
98 0.0
107 0.0
124 0.001
142 0.00103
160 0.0
171 0.00103
175 0.000968
176 0.000988
178 0.001001
180 0.000998
172 0.000995
86 0.001004
49 0.0
46 0.0
63 0.001943
92 0.001996
131 0.0
157 0.00203
142 0.0
115 0.0
99 0.0
103 0.002024
118 0.000981
142 0.000979
155 0.0
165 0.000993
169 0.00197
172 0.001999
174 0.0
177 0.002027
141 0.0
72 0.0
45 0.001014
47 0.000996
67 0.002024
109 0.001005
138 0.0
158 0.0
154 0.000988
129 0.001995
103 0.0
108 0.00103
130 0.0
147 0.0
156 0.000988
168 0.001035
173 0.001966
176 0.0
178 0.0
180 0.0
169 0.002071
102 0.002027
41 0.0
40 0.001995
69 0.000965
100 0.0
126 0.000961
144 0.000983
140 0.002032
110 0.001983
94 0.000943
96 0.00095
110 0.001034
129 0.002008
151 0.000935
165 0.001997
172 0.002004
174 0.0
175 0.0
176 0.002001
178 0.00195
138 0.0
67 0.0
41 0.0
43 0.001994
63 0.003006
104 0.0
140 0.002995
152 0.001007
133 0.0
107 0.0
95 0.001959
101 0.002956
124 0.0
142 0.0
157 0.001001
166 0.002993
170 0.002994
172 0.0
173 0.002992
176 0.001994
175 0.0
132 0.000996
66 0.002034
44 0.003031
54 0.002011
82 0.001983
116 0.001962
145 0.002956
163 0.002992
146 0.001981
110 0.002991
101 0.00099
113 0.002007
132 0.002013
149 0.00296
162 0.002965
170 0.002994
176 0.001028
178 0.001983
179 0.002016
180 0.003053
180 0.003036
86 0.002993
43 0.003027
39 0.001992
59 0.001993
90 0.000977
120 0.003025
145 0.002993
149 0.002021
126 0.001987
103 0.001954
95 0.002982
105 0.002941
134 0.002858
150 0.001979
165 0.0
171 0.001998
175 0.001991
176 0.003994
177 0.004038
180 0.001034
181 0.001997
155 0.000978
80 0.00296
42 0.002988
48 0.002991
76 0.002999
119 0.000993
144 0.001996
157 0.001952
142 0.002974
115 0.002949
96 0.001962
103 0.002037
120 0.002018
139 0.003025
154 0.003022
169 0.003036
172 0.003013
173 0.001977
174 0.001999
175 0.002042
178 0.00402
171 0.004035
86 0.001994
47 0.002995
44 0.002003
61 0.004022
92 0.003979
144 0.004035
164 0.003033
149 0.001993
120 0.001977
102 0.002027
104 0.003956
118 0.004013
142 0.001985
156 0.001994
166 0.001026
172 0.004008
175 0.004041
177 0.004021
179 0.002984
178 0.001993
135 0.00201
62 0.001966
35 0.002946
36 0.003038
66 0.001998
99 0.001999
129 0.002009
149 0.004019
148 0.003976
107 0.003989
93 0.00399
101 0.002007
118 0.001993
137 0.001999
152 0.002976
163 0.002967
171 0.00199
173 0.002008
174 0.002951
175 0.003989
177 0.004021
172 0.00399
108 0.004022
41 0.001958
36 0.002
52 0.003011
82 0.004023
115 0.004026
149 0.002961
156 0.001993
137 0.002005
111 0.003983
97 0.00396
112 0.003957
131 0.004035
152 0.002001
164 0.001992
172 0.002011
175 0.003992
176 0.005021
176 0.002028
178 0.002961
180 0.001964
175 0.004989
117 0.004988
41 0.003963
44 0.004014
76 0.001964
111 0.002958
141 0.002952
163 0.003987
161 0.004022
122 0.002967
101 0.002993
100 0.003038
113 0.005013
132 0.005027
157 0.002983
167 0.004989
174 0.001968
176 0.001983
178 0.00402
180 0.00398
181 0.004989
158 0.004989
60 0.003025
33 0.002995
34 0.002918
55 0.004989
111 0.003991
139 0.005016
156 0.004994
138 0.002025
111 0.001979
95 0.003991
98 0.006018
112 0.005025
137 0.003979
152 0.003957
162 0.002972
169 0.004985
174 0.002963
175 0.005019
176 0.005029
177 0.002957
145 0.003957
67 0.003941
31 0.004987
29 0.004957
58 0.002946
92 0.002959
124 0.003022
148 0.004946
141 0.003007
114 0.004988
95 0.005981
99 0.003972
115 0.002996
134 0.00399
150 0.005951
163 0.005979
172 0.003987
175 0.003027
176 0.003981
177 0.005008
180 0.003991
170 0.00599
104 0.00599
40 0.003989
37 0.003993
56 0.004045
89 0.005985
123 0.005986
157 0.00499
162 0.004942
138 0.004976
108 0.004987
97 0.004988
111 0.004985
130 0.005985
151 0.003999
160 0.003969
167 0.003987
171 0.006022
173 0.005985
176 0.00306
173 0.00398
125 0.003995
55 0.006027
34 0.00399
52 0.006017
83 0.005984
127 0.004987
153 0.004969
158 0.004012
136 0.005921
109 0.005943
96 0.004022
105 0.003969
123 0.003983
140 0.005985
160 0.003996
168 0.006064
172 0.006017
175 0.003987
177 0.004964
176 0.00496
137 0.005984
58 0.005954
26 0.004983
33 0.004935
56 0.005006
88 0.00602
134 0.005021
144 0.00602
128 0.005985
96 0.003968
88 0.004943
96 0.004946
113 0.00602
132 0.006988
152 0.004942
162 0.00496
168 0.003989
170 0.007017
172 0.00397
174 0.007016
176 0.007014
126 0.004987
57 0.005007
34 0.004972
39 0.006024
62 0.006017
106 0.004945
135 0.004992
154 0.004947
147 0.007017
103 0.004951
92 0.00703
99 0.006978
123 0.004954
141 0.00495
153 0.004969
161 0.005987
165 0.005949
167 0.006025
170 0.005056
173 0.004987
173 0.005988
83 0.004936
42 0.004977
37 0.007014
53 0.00702
93 0.005025
126 0.004956
152 0.004956
156 0.007047
134 0.007012
101 0.004935
96 0.004986
107 0.004996
136 0.006003
151 0.005986
162 0.007037
169 0.00702
174 0.003989
176 0.004977
178 0.004986
169 0.007021
102 0.006991
36 0.004987
30 0.004956
45 0.00499
95 0.004996
123 0.006014
144 0.007064
142 0.007015
111 0.005979
93 0.005982
94 0.005983
112 0.007978
130 0.007978
146 0.005983
158 0.00595
166 0.005983
172 0.004938
175 0.005949
177 0.007013
175 0.006982
104 0.005955
48 0.006013
34 0.005952
52 0.00798
82 0.007978
115 0.00595
142 0.00595
155 0.005983
122 0.005953
99 0.005989
95 0.007021
113 0.007988
131 0.006023
148 0.005988
159 0.005953
167 0.007978
171 0.007933
172 0.005934
174 0.005942
177 0.005981
131 0.005953
62 0.00604
37 0.007965
48 0.007977
76 0.00594
110 0.005954
141 0.005952
161 0.00798
144 0.00797
115 0.005983
97 0.006983
100 0.006015
127 0.005963
144 0.005979
161 0.007977
167 0.007959
172 0.005993
174 0.005985
177 0.006976
176 0.007016
139 0.007975
65 0.006974
34 0.006991
34 0.006982
72 0.005973
105 0.005978
140 0.00797
150 0.007977
128 0.006976
106 0.006971
99 0.005956
108 0.006991
126 0.006983
144 0.006012
159 0.005974
169 0.005981
179 0.006006
183 0.006014
185 0.007975
188 0.007982
185 0.005982
106 0.006968
53 0.006985
41 0.006977
55 0.00694
86 0.006016
120 0.006982
148 0.006991
164 0.006981
141 0.006988
113 0.007978
112 0.007973
125 0.006962
141 0.006982
160 0.006981
170 0.006976
175 0.006979
177 0.006985
179 0.00698
179 0.006971
127 0.006976
56 0.007
32 0.006962
36 0.006986
57 0.00698
100 0.006979
120 0.006967
144 0.006977
143 0.006985
118 0.006963
95 0.006967
97 0.006966
116 0.006978
139 0.006979
147 0.006987
160 0.006965
167 0.006997
171 0.006984
174 0.00697
155 0.006019
59 0.006986
30 0.007001
30 0.006971
47 0.006982
107 0.006974
125 0.006026
143 0.006974
128 0.005976
104 0.005989
90 0.005987
99 0.006023
115 0.005989
133 0.005984
148 0.006986
161 0.006984
168 0.006989
174 0.006979
170 0.006977
138 0.006956
51 0.00698
34 0.006982
49 0.005977
78 0.005986
111 0.00599
141 0.005984
158 0.00599
140 0.005984
114 0.006984
102 0.006937
114 0.006974
132 0.006975
148 0.006014
161 0.006016
171 0.005988
176 0.005975
179 0.005985
182 0.006019
176 0.005985
90 0.005974
45 0.005981
47 0.00699
73 0.006982
107 0.005982
140 0.005981
162 0.005967
149 0.00598
119 0.005973
99 0.005991
99 0.005992
112 0.005983
137 0.005988
152 0.005967
168 0.005986
173 0.005956
177 0.005981
179 0.005963
152 0.005983
57 0.00597
35 0.006004
39 0.005985
60 0.005983
92 0.006026
134 0.006016
154 0.005983
131 0.005984
104 0.005964
93 0.005984
100 0.005991
115 0.005984
140 0.005984
155 0.004987
165 0.004988
172 0.006002
176 0.00603
179 0.005993
153 0.006006
47 0.004991
35 0.005016
45 0.005993
70 0.005006
102 0.005008
142 0.005027
155 0.004983
142 0.004988
114 0.004993
97 0.004992
102 0.006032
117 0.006016
147 0.00598
161 0.005983
170 0.005977
176 0.004989
180 0.004979
184 0.004985
179 0.004983
120 0.004947
58 0.004992
42 0.005023
56 0.00503
84 0.004977
140 0.004989
163 0.004974
161 0.005983
133 0.005
104 0.005978
98 0.00598
110 0.004981
127 0.00499
145 0.004951
158 0.005027
167 0.005034
174 0.005017
179 0.005006
180 0.005036
138 0.004976
69 0.004981
45 0.004986
48 0.004947
79 0.003984
113 0.004974
145 0.004988
166 0.005022
161 0.005023
121 0.005019
100 0.00499
110 0.004989
127 0.00499
145 0.004984
159 0.004985
169 0.005011
177 0.00403
180 0.003949
183 0.003993
181 0.004018
130 0.005022
48 0.005031
39 0.004989
62 0.003991
94 0.004984
125 0.004987
149 0.003982
154 0.003987
123 0.004989
98 0.003982
93 0.003993
103 0.003986
120 0.004021
143 0.004053
161 0.004987
171 0.004987
175 0.004002
177 0.004988
179 0.004997
180 0.005009
134 0.004987
63 0.003992
40 0.003999
43 0.004025
63 0.004021
106 0.003989
145 0.003984
159 0.003954
139 0.003988
109 0.003991
96 0.00399
102 0.004003
123 0.004987
143 0.003993
158 0.004998
169 0.005035
176 0.004987
181 0.003989
182 0.003989
185 0.003989
184 0.00399
137 0.004
66 0.003987
45 0.003952
56 0.003003
85 0.003998
120 0.003954
150 0.003022
169 0.004027
153 0.004021
112 0.003997
101 0.003987
111 0.003989
130 0.003954
148 0.003987
162 0.003976
174 0.002996
179 0.003969
182 0.004024
184 0.003025
186 0.003
166 0.004026
68 0.004007
40 0.003972
50 0.004007
76 0.003994
111 0.004002
142 0.003999
168 0.003996
156 0.002999
127 0.004022
105 0.002989
103 0.002989
120 0.002993
144 0.003976
163 0.003992
172 0.00398
178 0.002993
181 0.003998
182 0.003985
184 0.002997
167 0.002969
91 0.002984
44 0.002993
37 0.002992
59 0.002999
105 0.002992
145 0.003967
165 0.003955
158 0.004003
132 0.00396
110 0.003981
108 0.002995
122 0.002957
141 0.003006
158 0.002973
170 0.002993
181 0.003995
187 0.003021
194 0.003994
198 0.002988
196 0.003003
144 0.00296
67 0.002985
44 0.002992
58 0.002998
91 0.001994
126 0.002959
155 0.003049
172 0.003032
144 0.002993
115 0.002992
106 0.003027
116 0.003006
133 0.002993
148 0.002992
159 0.002993
167 0.002957
170 0.004025
172 0.002028
174 0.002939
175 0.002979
95 0.002996
44 0.002998
36 0.002988
56 0.003001
88 0.003014
120 0.003002
147 0.003013
151 0.00299
124 0.003994
97 0.003025
88 0.001995
97 0.002994
125 0.001994
140 0.003025
154 0.00296
160 0.002995
164 0.002992
166 0.002993
168 0.002992
140 0.003034
63 0.002992
27 0.002186
24 0.002029
41 0.002027
91 0.001994
119 0.001995
139 0.001995
124 0.001994
96 0.001985
80 0.003003
84 0.001958
105 0.001995
124 0.002026
141 0.001995
153 0.001996
160 0.001992
166 0.002021
169 0.001965
169 0.001964
131 0.001954
59 0.001996
33 0.001977
36 0.00195
65 0.001995
97 0.002003
126 0.001994
146 0.001995
140 0.002032
95 0.001997
85 0.001993
98 0.002025
116 0.001964
135 0.001979
150 0.002007
160 0.002002
167 0.001998
169 0.002027
172 0.000999
172 0.00102
139 0.000998
45 0.001997
39 0.001995
62 0.002004
93 0.001963
126 0.00198
153 0.001994
158 0.001996
125 0.001031
100 0.000998
95 0.000997
106 0.001029
124 0.000997
152 0.002004
163 0.002005
170 0.002006
173 0.001941
175 0.001994
176 0.001999
165 0.002031
72 0.002035
37 0.001033
34 0.000999
51 0.000991
80 0.000999
129 0.000999
147 0.001999
131 0.002038
103 0.001948
89 0.002039
93 0.002006
106 0.000995
130 0.002
146 0.002028
157 0.002028
164 0.000995
167 0.000998
171 0.001009
172 0.001001
143 0.000999
70 0.001041
38 0.001991
36 0.000997
53 0.002017
92 0.001996
120 0.000998
143 0.000999
144 0.000998
120 0.000997
88 0.000998
93 0.000995
108 0.001002
132 0.000954
148 0.000992
158 0.001013
164 0.001
167 0.000998
170 0.000999
173 0.0
168 0.001032
112 0.000997
42 0.000978
44 0.001008
64 0.000997
105 0.000951
136 0.000993
157 0.000956
153 0.00099
124 0.000997
96 0.001999
99 0.001008
114 0.002025
132 0.0
159 0.0
168 0.001039
174 0.001017
178 0.001037
181 0.000997
181 0.000995
148 0.001003
72 0.001001
39 0.000997
46 0.0
69 0.000998
100 0.0
147 0.0
156 0.0
139 0.0
104 0.0
98 0.0
107 0.0
124 0.000997
143 0.000996
163 0.001006
171 0.0
176 0.000997
178 0.0
180 0.0
181 0.0
172 0.0
80 0.0
43 0.0
40 0.000998
57 0.0
87 0.0
128 0.0
152 0.0
157 0.0
136 0.0
99 0.0
101 0.0
116 0.0
142 0.0
158 0.0
170 0.0
177 0.0
180 0.0
182 0.0
184 0.0
185 0.0
157 0.0
54 0.0
44 0.0
58 0.0
99 0.0
132 0.000998
160 0.0
171 0.0
152 0.000967
112 0.000967
103 0.000965
111 0.00101
129 0.000998
162 0.000985
169 0.0
178 0.0
182 0.0
185 0.0
187 0.0
183 0.0
95 0.0
46 0.00204
38 0.002028
60 0.0
92 0.0
145 0.001019
163 0.001012
156 0.0
128 0.002007
105 0.001994
104 0.0
118 0.0
138 0.000952
155 0.002041
168 0.001862
176 0.0
183 0.001001
186 0.0
187 0.0
166 0.000954
85 0.000998
40 0.001995
34 0.000996
57 0.0
90 0.0
122 0.002027
149 0.00203
156 0.0
134 0.0
99 0.0
102 0.0
117 0.0
137 0.002025
154 0.001994
171 0.001006
178 0.000998
182 0.000961
184 0.000991
185 0.001996
187 0.002029
146 0.0
53 0.00199
38 0.0
53 0.0
84 0.0
120 0.002992
149 0.002001
167 0.000985
146 0.0
114 0.0
98 0.002038
102 0.002028
124 0.0
148 0.001983
164 0.0
171 0.0
175 0.000959
178 0.002995
181 0.002038
165 0.0
92 0.000963
46 0.0
39 0.002028
54 0.002028
96 0.0
141 0.002021
168 0.000996
157 0.0
127 0.0
105 0.001993
103 0.001997
120 0.0
138 0.0
154 0.0
165 0.001995
173 0.001994
178 0.0
181 0.001995
169 0.0
94 0.0
40 0.0
28 0.00197
40 0.001028
77 0.0
109 0.0
138 0.0
151 0.002028
137 0.002027
100 0.0
90 0.001997
107 0.0
127 0.0
145 0.0
159 0.000995
169 0.00203
176 0.0
178 0.0
180 0.0
175 0.002053
118 0.002036
43 0.0
38 0.003005
68 0.000986
103 0.0
135 0.0
158 0.002032
156 0.002025
120 0.00095
99 0.0
98 0.0
110 0.002039
128 0.002027
150 0.0
164 0.002027
172 0.001
175 0.0
178 0.001017
175 0.002044
123 0.002992
48 0.000953
39 0.0
52 0.0
80 0.001995
115 0.002028
154 0.0
157 0.001993
118 0.0
96 0.0
96 0.0
108 0.002957
126 0.002994
149 0.0
160 0.0
168 0.00202
172 0.002025
175 0.002027
147 0.0
53 0.002994
30 0.0
40 0.0
64 0.0
94 0.002996
123 0.002992
144 0.001998
128 0.0
99 0.0
85 0.003023
88 0.002992
107 0.001042
130 0.002026
149 0.001985
158 0.001989
164 0.001998
167 0.002963
164 0.002993
85 0.002005
40 0.002006
127 0.001981
127 0.002992
127 0.002992
127 0.001984
127 0.002993
127 0.0
127 0.002003
127 0.001992
127 0.002016
127 0.003037
127 0.002992
127 0.001997
127 0.001998
127 0.001995
127 0.002992
130 0.002993
134 0.002992
83 0.003001
0 0.00298
0 0.002003
0 0.001984
13 0.003028
54 0.00399
107 0.001984
124 0.000998
99 0.001993
59 0.003028
44 0.00398
62 0.003033
85 0.002991
116 0.00198
133 0.001996
144 0.001995
151 0.003029
156 0.004002
162 0.001983
138 0.001037
51 0.001994
3 0.004025
0 0.004029
39 0.00399
79 0.004027
134 0.001993
151 0.00204
126 0.00204
85 0.003032
68 0.003023
79 0.001993
100 0.002996
125 0.002996
146 0.00403
161 0.00395
176 0.003958
180 0.003988
183 0.002987
140 0.002991
45 0.001952
4 0.003945
3 0.003989
36 0.001982
74 0.001994
112 0.001982
143 0.003983
142 0.003989
86 0.002992
73 0.004056
85 0.002032
105 0.002007
129 0.001997
151 0.005022
167 0.005037
180 0.003019
186 0.001993
190 0.002998
194 0.004026
187 0.003989
51 0.002991
16 0.004023
26 0.002982
58 0.0
101 0.001994
140 0.004029
168 0.004027
153 0.002992
114 0.001982
91 0.001999
94 0.004009
112 0.003994
153 0.003995
174 0.00499
191 0.00205
197 0.002037
200 0.001989
202 0.003987
204 0.003992
207 0.002001
160 0.001983
63 0.00296
25 0.003948
29 0.00399
85 0.004023
132 0.005017
183 0.002
191 0.002004
159 0.002966
115 0.004987
98 0.004987
112 0.002006
136 0.002005
161 0.002028
181 0.004029
194 0.004028
207 0.004022
211 0.004022
215 0.002946
200 0.002015
104 0.002944
32 0.005021
16 0.004928
42 0.002949
84 0.002984
130 0.002992
168 0.005018
186 0.004988
141 0.004989
106 0.005021
100 0.002028
117 0.002982
142 0.002945
166 0.004987
185 0.004987
200 0.002027
206 0.001979
210 0.002996
213 0.002988
212 0.005024
81 0.002979
22 0.004987
14 0.004988
46 0.002992
92 0.003021
139 0.002953
176 0.006021
188 0.006018
150 0.003023
113 0.002959
99 0.00301
110 0.005017
151 0.003019
173 0.004987
190 0.005039
204 0.002834
210 0.002995
213 0.002997
216 0.006019
216 0.005984
131 0.002969
40 0.002995
16 0.002959
28 0.005023
98 0.002991
146 0.005018
183 0.005018
190 0.002032
151 0.003007
111 0.003001
98 0.006019
109 0.005989
140 0.003981
163 0.003989
180 0.003026
192 0.005024
204 0.002958
209 0.005008
211 0.004983
142 0.003001
39 0.002994
6 0.003986
12 0.00597
44 0.006018
107 0.003996
150 0.003985
179 0.002974
173 0.00602
109 0.002936
91 0.005985
97 0.005985
126 0.002992
150 0.002995
169 0.003
183 0.005984
193 0.005984
199 0.003995
202 0.004978
203 0.003948
164 0.00602
14 0.003996
0 0.005984
14 0.005985
67 0.002993
114 0.002953
153 0.003935
171 0.006981
152 0.006985
100 0.003988
82 0.003989
89 0.003987
110 0.005967
150 0.003998
168 0.00595
181 0.005985
189 0.003989
192 0.003997
194 0.003984
197 0.007021
176 0.007017
48 0.003977
6 0.003987
8 0.003978
35 0.005984
111 0.00399
152 0.005985
174 0.006015
141 0.003988
96 0.004
76 0.004997
83 0.007015
103 0.006977
135 0.004989
155 0.004023
168 0.003992
176 0.005978
183 0.004026
186 0.005978
169 0.005951
48 0.005011
6 0.005005
5 0.004986
29 0.006976
69 0.007016
129 0.004982
162 0.004987
163 0.004006
128 0.007013
82 0.004965
87 0.006035
106 0.005984
139 0.004994
159 0.005008
173 0.004948
183 0.007015
189 0.007015
195 0.004981
190 0.004029
109 0.003984
23 0.004007
65 0.004987
77 0.004987
98 0.006981
119 0.007013
141 0.004984
141 0.004987
125 0.004975
108 0.006989
103 0.006982
113 0.004987
126 0.004998
139 0.005002
154 0.004987
159 0.00402
162 0.007978
163 0.007982
164 0.004955
158 0.004954
112 0.005028
76 0.008007
68 0.007016
82 0.00499
104 0.00499
126 0.004997
153 0.005984
147 0.00499
126 0.007015
110 0.007981
110 0.004987
120 0.005955
133 0.005988
147 0.007974
152 0.007917
158 0.00498
161 0.004987
162 0.004987
162 0.004987
132 0.004998
78 0.00798
70 0.007975
79 0.002955
97 0.00499
120 0.004025
142 0.006978
155 0.007012
142 0.005988
120 0.005014
109 0.005021
117 0.005984
130 0.005983
141 0.007978
153 0.007976
158 0.005984
161 0.005022
164 0.006976
162 0.007977
127 0.006986
80 0.005999
64 0.005999
67 0.005987
94 0.005951
115 0.005951
138 0.007974
141 0.007981
126 0.005981
108 0.005984
103 0.004952
110 0.007978
122 0.00698
134 0.005971
145 0.005982
152 0.005973
158 0.005954
160 0.005979
163 0.007978
160 0.00796
123 0.005955
82 0.006003
70 0.004976
75 0.007978
100 0.006988
124 0.006007
145 0.00595
157 0.006039
139 0.006019
122 0.005997
115 0.007979
124 0.007962
136 0.005979
148 0.005979
160 0.006973
165 0.007017
168 0.008976
171 0.006942
173 0.006939
174 0.006935
118 0.006973
80 0.00698
72 0.006986
82 0.006987
103 0.006981
128 0.005986
149 0.006018
163 0.007022
152 0.006984
130 0.006019
116 0.005979
115 0.006955
133 0.00697
143 0.006982
151 0.007015
156 0.006974
161 0.005988
164 0.005983
158 0.006974
131 0.005967
73 0.006983
64 0.006985
72 0.005974
90 0.00599
127 0.005985
146 0.005979
150 0.005979
129 0.00701
113 0.00703
111 0.006979
116 0.006978
128 0.004985
143 0.007021
152 0.00703
159 0.006978
165 0.006016
163 0.005983
114 0.005984
75 0.005975
66 0.006017
74 0.00602
92 0.006975
124 0.006952
144 0.006971
154 0.007005
145 0.006971
121 0.006949
112 0.005977
121 0.00599
133 0.005969
144 0.00598
153 0.006019
160 0.006028
167 0.006018
170 0.005987
167 0.005991
123 0.007014
79 0.005992
69 0.006957
75 0.006982
119 0.005982
143 0.006976
158 0.005964
157 0.005969
140 0.00602
121 0.00598
120 0.005986
127 0.005988
139 0.006021
150 0.007028
158 0.006981
166 0.00598
172 0.005981
174 0.006981
174 0.005971
151 0.006018
94 0.005981
69 0.005989
75 0.006001
94 0.005981
120 0.005981
144 0.005979
162 0.00599
155 0.00598
120 0.006013
112 0.005965
116 0.005984
127 0.006017
139 0.006014
151 0.005984
158 0.005983
164 0.005983
167 0.005985
170 0.006038
150 0.005984
94 0.005994
67 0.004982
75 0.005984
94 0.005971
119 0.006049
142 0.006016
157 0.005985
146 0.005978
124 0.005952
110 0.005019
111 0.006017
123 0.004988
135 0.004973
152 0.004991
158 0.004985
163 0.004988
167 0.006019
168 0.006027
132 0.006017
82 0.005998
67 0.005982
70 0.005968
86 0.006002
118 0.005982
140 0.005988
154 0.004984
139 0.00498
118 0.004985
108 0.00502
111 0.005017
125 0.004985
137 0.005991
147 0.005984
155 0.006016
160 0.005989
164 0.005019
167 0.005983
158 0.004993
106 0.004993
74 0.004985
69 0.00502
78 0.005018
106 0.004981
131 0.004984
151 0.004983
158 0.005017
146 0.005969
116 0.006016
108 0.005019
119 0.005018
131 0.004979
143 0.004987
152 0.004986
158 0.005017
163 0.004988
165 0.004971
166 0.004983
166 0.004988
137 0.006016
79 0.005981
70 0.004982
88 0.005018
112 0.004984
137 0.004988
157 0.005021
160 0.005018
136 0.004978
115 0.004987
110 0.004993
115 0.004987
126 0.005028
138 0.004053
151 0.005022
159 0.005046
164 0.005025
167 0.005025
169 0.00497
164 0.005019
116 0.005039
70 0.004991
67 0.004983
78 0.00498
99 0.004023
124 0.00399
151 0.004005
153 0.004011
125 0.004989
108 0.004987
107 0.004987
114 0.005028
126 0.00502
143 0.005018
152 0.005001
158 0.003991
162 0.005022
164 0.00399
166 0.003989
165 0.003978
114 0.003999
75 0.004028
67 0.004021
75 0.003984
94 0.00493
127 0.004025
147 0.005033
156 0.003988
147 0.00399
124 0.004038
106 0.004043
112 0.004023
127 0.004035
139 0.00399
148 0.003989
154 0.00399
158 0.004047
161 0.004032
162 0.004023
163 0.004946
159 0.003037
119 0.004021
72 0.004033
70 0.00402
92 0.004021
116 0.004027
138 0.003984
154 0.003954
152 0.004048
125 0.003974
109 0.003989
107 0.003008
115 0.003026
127 0.002978
142 0.004022
153 0.003998
159 0.00404
161 0.004028
163 0.003994
164 0.003992
162 0.004031
108 0.004023
71 0.004024
64 0.002998
71 0.003004
90 0.002993
120 0.003028
144 0.002992
143 0.003995
123 0.003989
105 0.004019
102 0.004021
108 0.004025
124 0.004013
137 0.003026
146 0.003025
153 0.002992
157 0.003026
159 0.002984
160 0.003991
161 0.003989
143 0.004021
92 0.004022
68 0.004025
66 0.003027
84 0.003007
106 0.003027
128 0.002992
144 0.003034
146 0.002991
121 0.003051
101 0.002992
104 0.003025
115 0.003024
126 0.003962
139 0.004031
149 0.004018
157 0.003021
159 0.002997
161 0.00296
163 0.002959
157 0.003004
87 0.002993
51 0.003023
58 0.003996
78 0.002992
106 0.002992
133 0.002992
151 0.002992
140 0.002992
112 0.002992
96 0.003024
97 0.003022
107 0.003022
121 0.003035
143 0.004027
152 0.001992
160 0.004026
162 0.002992
164 0.001985
165 0.002993
151 0.003008
73 0.002963
48 0.003003
48 0.002992
63 0.003003
86 0.002993
127 0.002992
141 0.003022
122 0.003031
97 0.003031
88 0.002993
92 0.002992
103 0.003023
123 0.001997
136 0.001995
146 0.002026
152 0.002026
156 0.002031
158 0.001995
160 0.001996
144 0.001995
87 0.002029
56 0.00303
51 0.002972
63 0.002993
93 0.002992
118 0.003028
138 0.001973
140 0.002993
118 0.001996
90 0.001995
92 0.001995
106 0.002025
120 0.001997
133 0.002032
142 0.002031
147 0.002026
151 0.002985
153 0.002992
155 0.003024
154 0.001996
123 0.001996
61 0.002026
58 0.002029
76 0.001996
99 0.002026
124 0.002033
144 0.002034
144 0.002027
111 0.002012
97 0.000998
97 0.001995
105 0.002039
118 0.002026
139 0.001995
148 0.001996
155 0.002
158 0.002028
160 0.001995
162 0.002029
160 0.002045
100 0.002026
63 0.00203
55 0.000997
63 0.000997
83 0.001997
120 0.002044
138 0.001996
131 0.000978
108 0.002025
96 0.002
97 0.002027
106 0.002025
125 0.002027
140 0.001034
151 0.002029
158 0.000998
163 0.002
166 0.002018
167 0.002033
170 0.000997
158 0.001031
101 0.001991
67 0.001002
61 0.000998
79 0.000999
103 0.000998
129 0.000995
149 0.000998
154 0.001007
115 0.000997
102 0.00203
106 0.00198
118 0.002001
134 0.002041
147 0.001033
157 0.001029
164 0.000998
166 0.000997
167 0.000998
168 0.000998
170 0.000988
158 0.001996
101 0.002031
64 0.002026
67 0.001028
83 0.002026
109 0.001028
137 0.000999
162 0.000998
156 0.000997
129 0.000951
109 0.000997
106 0.002004
124 0.002029
140 0.002026
154 0.002032
166 0.002025
171 0.002028
174 0.001031
175 0.001033
176 0.000998
177 0.000998
153 0.002051
89 0.000863
60 0.000981
67 0.000997
89 0.000997
117 0.001059
148 0.001042
157 0.0
142 0.000999
116 0.000998
102 0.0
108 0.0
121 0.0
137 0.0
151 0.0
167 0.000999
172 0.000999
173 0.0
174 0.000998
175 0.000998
177 0.000993
172 0.000998
116 0.0
62 0.0
59 0.0
73 0.0
99 0.0
144 0.0
161 0.0
156 0.0
121 0.0
104 0.0
105 0.0
116 0.000998
131 0.000997
151 0.000998
162 0.0
169 0.0
172 0.0
174 0.0
174 0.0
176 0.0
161 0.0
99 0.0
64 0.0
60 0.0
73 0.0
110 0.000998
139 0.0
162 0.0
168 0.0
127 0.0
107 0.0
106 0.0
121 0.0
137 0.0
152 0.0
163 0.0
170 0.0
175 0.00096
178 0.000955
179 0.0
179 0.0
84 0.0
61 0.0
52 0.0
69 0.003045
96 0.000998
135 0.0
156 0.0
160 0.0
139 0.003028
111 0.00203
100 0.0
109 0.0
135 0.0
149 0.000981
161 0.0
168 0.002027
171 0.002998
173 0.001004
174 0.001015
175 0.0
164 0.002992
102 0.002016
55 0.0
54 0.0
87 0.0
118 0.0
143 0.0
159 0.002025
152 0.002029
115 0.0
98 0.001004
100 0.000997
112 0.002992
127 0.002985
147 0.0
158 0.0
167 0.0
169 0.0
169 0.001033
170 0.002032
171 0.002027
155 0.0
93 0.0
58 0.0
55 0.002033
68 0.002026
94 0.000985
123 0.0
159 0.0
145 0.0
114 0.0
96 0.003024
98 0.002017
113 0.0
129 0.0
144 0.0
154 0.0
161 0.002026
164 0.002035
166 0.0
168 0.002026
165 0.001019
122 0.001003
69 0.0
52 0.002045
57 0.002033
84 0.0
112 0.0
136 0.0
152 0.002043
144 0.003045
107 0.0
94 0.002027
104 0.0
118 0.0
134 0.000963
147 0.001994
156 0.002022
163 0.000952
164 0.000962
164 0.0
165 0.002025
167 0.002025
149 0.0
73 0.002027
52 0.0
61 0.0
82 0.0
109 0.003026
133 0.003025
152 0.0
139 0.0
112 0.000983
97 0.00199
98 0.001998
113 0.000998
133 0.002023
151 0.0
159 0.0
164 0.0
167 0.002029
167 0.002987
167 0.000992
169 0.000992
170 0.0
143 0.002997
82 0.002991
57 0.0
69 0.003026
103 0.0
131 0.0
153 0.0
158 0.001995
138 0.002026
102 0.000968
97 0.001004
104 0.000997
119 0.001994
135 0.003037
152 0.0
162 0.002027
166 0.0
167 0.0
168 0.0
170 0.003002
170 0.002994
120 0.0
71 0.000954
57 0.0
63 0.001991
84 0.001992
122 0.001941
153 0.002004
157 0.0
132 0.0
107 0.0
100 0.003038
106 0.003039
126 0.0
142 0.0
154 0.0
163 0.003031
169 0.002016
171 0.00097
172 0.002052
173 0.000946
174 0.0
156 0.001018
90 0.002993
57 0.002992
56 0.0
74 0.0
102 0.0
129 0.002993
150 0.002979
151 0.000962
116 0.002
97 0.0
101 0.000963
114 0.000995
131 0.002996
147 0.002953
162 0.003007
169 0.000966
172 0.00204
174 0.002959
174 0.003027
175 0.0
168 0.003028
92 0.002132
60 0.001951
58 0.001995
72 0.002957
99 0.004957
137 0.000951
158 0.002982
163 0.002987
143 0.003995
114 0.00299
102 0.0
114 0.003035
136 0.002001
151 0.00201
161 0.001992
168 0.003025
171 0.003043
172 0.003989
173 0.00301
175 0.001983
167 0.002033
111 0.002938
66 0.002993
61 0.003023
81 0.003029
121 0.002991
148 0.003001
166 0.002993
160 0.002993
134 0.002992
105 0.002994
105 0.001981
116 0.001994
132 0.003997
148 0.00401
165 0.003989
171 0.003989
175 0.001996
177 0.002995
178 0.002989
178 0.002992
150 0.003022
66 0.001989
48 0.0
54 0.0
74 0.00399
104 0.00399
145 0.00402
154 0.00402
131 0.003007
105 0.002041
96 0.003028
102 0.004013
117 0.003996
139 0.002002
152 0.0
162 0.003004
168 0.003961
170 0.003961
172 0.003991
172 0.00399
157 0.002989
93 0.002997
56 0.002031
51 0.004021
65 0.004026
102 0.003006
130 0.000963
152 0.000994
157 0.004038
138 0.004022
99 0.004021
99 0.004041
115 0.002991
132 0.002024
146 0.002029
156 0.003989
162 0.003986
166 0.00198
168 0.002982
170 0.002004
164 0.004952
113 0.004944
52 0.00399
55 0.00402
82 0.002993
112 0.002949
139 0.002986
157 0.004029
152 0.004026
116 0.003001
99 0.003003
100 0.002036
111 0.005035
127 0.005018
149 0.005017
158 0.005023
165 0.002993
168 0.003005
170 0.002994
157 0.004021
92 0.004021
46 0.003006
46 0.003033
62 0.003027
88 0.005039
114 0.004982
143 0.004983
133 0.004987
100 0.001993
90 0.002004
94 0.001993
106 0.004952
122 0.003989
140 0.002011
150 0.003023
157 0.003993
160 0.004988
163 0.005022
160 0.005019
110 0.005024
53 0.001986
47 0.002003
60 0.002027
84 0.005017
111 0.005019
140 0.001993
143 0.002986
123 0.003998
99 0.005023
91 0.00504
106 0.00502
121 0.004983
140 0.001988
150 0.002991
156 0.001995
160 0.004983
163 0.005034
164 0.006075
151 0.003041
93 0.003042
58 0.002989
53 0.004989
81 0.002065
108 0.005016
134 0.005025
150 0.003026
133 0.001983
105 0.001996
93 0.00502
97 0.006019
114 0.004
129 0.002995
143 0.004008
151 0.006023
160 0.002994
162 0.005018
164 0.004978
142 0.002992
82 0.003994
55 0.002985
52 0.006025
66 0.005985
98 0.003987
121 0.003955
140 0.004006
139 0.005985
102 0.003004
94 0.006039
98 0.005987
115 0.002967
130 0.002995
143 0.002018
151 0.004972
157 0.005986
161 0.003951
162 0.002982
163 0.003976
159 0.005985
78 0.002542
55 0.006003
57 0.00602
80 0.002985
105 0.002995
128 0.002991
144 0.005019
139 0.005957
109 0.002992
97 0.00401
100 0.003992
111 0.005986
136 0.002988
149 0.005981
157 0.00598
164 0.003022
166 0.002961
167 0.003993
168 0.005943
170 0.005986
156 0.003992
96 0.002944
64 0.00399
61 0.007012
91 0.002986
119 0.006017
143 0.006016
159 0.00299
140 0.003011
111 0.004017
99 0.006015
103 0.006983
120 0.003993
137 0.004027
150 0.003997
160 0.005986
167 0.00399
169 0.006017
170 0.006015
172 0.002976
166 0.003022
112 0.003016
70 0.00599
60 0.00704
77 0.004024
102 0.003999
129 0.003028
152 0.006015
154 0.003989
126 0.005983
107 0.006015
107 0.003983
119 0.003985
136 0.002999
151 0.007025
163 0.007026
173 0.004021
177 0.003997
178 0.003991
178 0.006985
178 0.00399
143 0.006997
79 0.006981
55 0.003998
63 0.004957
84 0.004993
112 0.007013
137 0.007021
157 0.003948
146 0.003993
118 0.003992
102 0.007023
109 0.003995
125 0.007021
142 0.005984
161 0.003992
170 0.003988
175 0.005009
177 0.007021
178 0.007019
178 0.004955
180 0.004982
176 0.004952
122 0.007014
58 0.003999
61 0.007017
79 0.007011
119 0.003988
145 0.003989
163 0.004958
153 0.007979
123 0.007976
103 0.004985
104 0.005984
115 0.003991
131 0.003984
156 0.00402
165 0.003997
171 0.006982
174 0.007017
175 0.003988
176 0.00498
178 0.005001
147 0.007977
100 0.007981
59 0.00399
62 0.003988
80 0.004021
130 0.004022
157 0.00397
171 0.007012
161 0.006983
121 0.003987
106 0.004977
110 0.003912
128 0.007995
145 0.007973
158 0.004989
168 0.004991
175 0.003989
180 0.004965
181 0.004022
183 0.007013
176 0.006983
90 0.004997
54 0.004981
50 0.00499
64 0.007979
102 0.00698
130 0.004987
152 0.003989
159 0.004951
123 0.004984
102 0.003974
100 0.007025
115 0.00799
132 0.004982
148 0.004978
161 0.004989
171 0.007978
176 0.007979
177 0.004981
178 0.004992
179 0.004036
160 0.004018
90 0.004993
50 0.00795
54 0.007981
75 0.004022
105 0.004091
134 0.00499
156 0.007979
159 0.007936
133 0.004962
107 0.005986
99 0.005016
117 0.004974
134 0.005005
149 0.007964
163 0.007979
169 0.004986
172 0.005984
173 0.005993
174 0.007013
174 0.006982
152 0.005022
87 0.005988
56 0.005984
65 0.005017
91 0.006952
134 0.007974
159 0.007982
169 0.004981
154 0.006
124 0.004986
104 0.00699
110 0.006982
124 0.004995
140 0.005971
154 0.005982
168 0.005966
174 0.00599
178 0.007981
179 0.007974
174 0.004983
118 0.005968
59 0.005988
45 0.00698
59 0.007012
86 0.005949
117 0.005985
143 0.005985
156 0.005984
133 0.005887
101 0.007989
98 0.00794
108 0.00498
124 0.00599
140 0.00596
156 0.006981
165 0.006967
169 0.005987
172 0.005953
173 0.005021
172 0.005989
129 0.005983
54 0.00698
45 0.007005
56 0.005034
82 0.006981
114 0.006948
148 0.006979
159 0.006985
145 0.004986
116 0.006034
98 0.005981
106 0.005986
121 0.005998
142 0.006982
154 0.006992
162 0.005982
167 0.006011
169 0.006013
171 0.00697
172 0.006978
156 0.005983
73 0.006017
49 0.006009
58 0.006981
81 0.006985
112 0.005974
149 0.006983
162 0.00697
139 0.006015
108 0.006011
95 0.006019
100 0.005978
113 0.005984
134 0.006014
147 0.005984
162 0.005982
166 0.005976
169 0.005965
171 0.006976
152 0.006977
68 0.006981
47 0.005949
50 0.005978
68 0.005976
97 0.005983
133 0.005985
152 0.005975
131 0.005985
103 0.005984
94 0.005983
98 0.006015
110 0.006994
126 0.005987
141 0.006978
154 0.005975
161 0.005991
165 0.005984
168 0.00599
167 0.006017
85 0.005982
51 0.004982
47 0.005964
60 0.006015
84 0.007013
120 0.005987
141 0.005984
147 0.005969
127 0.006023
101 0.006031
93 0.005984
101 0.005983
126 0.005983
141 0.005977
152 0.005978
159 0.004977
164 0.006013
167 0.005989
169 0.005989
168 0.006013
127 0.00598
70 0.00598
53 0.006019
64 0.005973
97 0.005979
133 0.005986
153 0.005983
153 0.005034
127 0.005017
97 0.004985
96 0.004996
106 0.004955
120 0.005993
135 0.005993
151 0.006013
158 0.00601
165 0.005952
167 0.006031
169 0.005985
156 0.005986
95 0.005951
57 0.004989
59 0.005985
76 0.00598
103 0.005026
131 0.004979
157 0.004987
152 0.00499
106 0.004982
97 0.004987
103 0.004987
115 0.00502
131 0.005982
149 0.005994
158 0.005983
164 0.005987
168 0.004983
170 0.004989
163 0.004989
106 0.005021
51 0.004979
54 0.004987
71 0.00499
97 0.005019
121 0.004966
145 0.004994
139 0.005017
113 0.005988
96 0.004958
94 0.004984
107 0.00603
122 0.005029
137 0.004991
155 0.004991
161 0.005004
164 0.005036
166 0.005986
167 0.004996
156 0.004958
96 0.005016
59 0.004967
53 0.003988
70 0.003982
95 0.004957
121 0.004997
149 0.004987
138 0.004957
112 0.005021
98 0.004972
101 0.004985
114 0.005005
130 0.005029
145 0.00498
156 0.004979
163 0.003984
168 0.004027
169 0.003983
171 0.004004
171 0.00399
142 0.003989
82 0.003988
59 0.00399
66 0.004987
88 0.004986
116 0.004986
141 0.005021
158 0.004988
143 0.005049
112 0.005021
98 0.003972
108 0.003999
123 0.003988
139 0.003992
151 0.003987
162 0.003985
166 0.003993
167 0.004954
169 0.003964
170 0.005014
145 0.005009
84 0.003989
56 0.004021
68 0.003984
91 0.00396
119 0.004002
144 0.003945
156 0.002963
135 0.004015
107 0.003977
98 0.003961
104 0.003007
121 0.004004
137 0.003999
156 0.004028
163 0.004011
167 0.003971
170 0.004011
171 0.003998
158 0.003955
94 0.00399
57 0.003977
50 0.003961
62 0.003989
92 0.002975
117 0.002982
145 0.003956
134 0.003026
108 0.003027
94 0.003999
96 0.003997
111 0.003998
126 0.003991
141 0.003956
152 0.00399
159 0.00399
164 0.004986
165 0.002991
166 0.00399
154 0.002993
96 0.002993
60 0.003957
54 0.003964
72 0.003988
98 0.003989
122 0.00299
143 0.003986
148 0.003994
119 0.004021
100 0.004029
102 0.003983
115 0.004004
131 0.003088
146 0.004023
156 0.00399
164 0.003977
166 0.004001
167 0.003989
168 0.002992
170 0.002994
155 0.002966
94 0.003025
58 0.003025
67 0.002993
89 0.002991
116 0.003988
141 0.002996
157 0.00399
137 0.003989
108 0.003989
97 0.003993
102 0.003988
119 0.002961
135 0.003028
155 0.003026
162 0.002993
165 0.002992
167 0.002995
168 0.002991
168 0.003997
136 0.002992
78 0.002965
56 0.003026
58 0.003024
83 0.003991
109 0.001996
146 0.003008
150 0.003004
128 0.002985
103 0.003025
96 0.00297
106 0.003035
120 0.003033
136 0.003023
149 0.001948
158 0.001945
165 0.001995
167 0.00201
168 0.001995
169 0.003035
149 0.003024
88 0.00299
59 0.002962
57 0.002991
79 0.003022
107 0.003026
132 0.002995
152 0.003022
154 0.002991
122 0.003026
101 0.001995
108 0.001977
123 0.001993
139 0.001995
154 0.001992
165 0.001995
174 0.001968
176 0.001972
177 0.00199
177 0.001993
179 0.002024
166 0.001996
85 0.00203
60 0.003022
70 0.001945
93 0.002988
124 0.003024
151 0.002006
170 0.00195
155 0.001959
123 0.00202
105 0.00199
107 0.001993
125 0.002036
147 0.002028
164 0.002025
172 0.002021
176 0.003028
179 0.00103
180 0.003026
180 0.001996
152 0.002028
86 0.001997
59 0.001964
60 0.001998
87 0.00203
128 0.00099
161 0.00202
169 0.002027
149 0.000993
119 0.002034
104 0.002025
112 0.001006
127 0.000996
143 0.001995
157 0.001993
167 0.00203
175 0.002033
178 0.002031
180 0.002004
172 0.002034
111 0.002025
60 0.002005
49 0.001007
65 0.000999
91 0.001003
119 0.000997
143 0.001015
156 0.002008
135 0.001951
102 0.001995
100 0.000994
111 0.001023
127 0.001994
143 0.000997
156 0.001985
167 0.002024
171 0.001976
173 0.001997
174 0.002025
175 0.001
157 0.000993
74 0.00105
51 0.001018
60 0.002002
84 0.002019
113 0.002024
140 0.00201
161 0.002025
149 0.002031
120 0.001038
102 0.001003
102 0.001997
119 0.000999
142 0.000997
160 0.000995
169 0.000997
174 0.002018
177 0.002
177 0.002009
179 0.00198
177 0.00204
135 0.001974
74 0.002033
56 0.001042
68 0.001993
105 0.000997
145 0.000963
166 0.000953
167 0.000967
141 0.000998
111 0.001014
103 0.001955
113 0.001007
129 0.000998
145 0.001012
158 0.0
169 0.001005
175 0.002022
178 0.002003
179 0.002003
167 0.0
103 0.0
59 0.000999
52 0.0
71 0.000997
100 0.000996
130 0.0
155 0.0
164 0.001008
