0 0.019915
0 0.003988
0 0.004882
0 0.004959
0 0.004953
0 0.005955
0 0.006981
4 0.007023
10 0.006013
14 0.006034
21 0.005984
25 0.004986
30 0.005035
37 0.003976
40 0.003989
48 0.00399
39 0.002991
24 0.002992
15 0.002992
19 0.000997
20 0.000998
24 0.000998
27 0.000964
28 0.0
33 0.0
34 0.000997
42 0.0
48 0.000998
52 0.000959
57 0.001995
64 0.004038
71 0.003991
76 0.004026
81 0.003991
72 0.005988
57 0.005952
54 0.005981
56 0.007969
59 0.007947
62 0.007946
66 0.005951
67 0.004854
69 0.005115
74 0.004988
80 0.004961
87 0.003029
94 0.002982
97 0.002974
103 0.003026
107 0.002992
109 0.002024
101 0.002021
80 0.000991
75 0.001034
75 0.001012
76 0.001994
79 0.002991
64 0.002991
63 0.002993
63 0.004956
67 0.004945
72 0.006087
77 0.006949
82 0.007943
84 0.00793
90 0.006948
95 0.006017
101 0.004982
104 0.003023
78 0.003027
61 0.003026
57 0.002987
58 0.00221
58 0.000998
62 0.000998
63 0.001995
61 0.002993
64 0.002992
70 0.002993
75 0.003026
80 0.005019
84 0.005984
90 0.006981
95 0.00697
100 0.006959
105 0.00704
110 0.007938
105 0.007757
75 0.006974
61 0.004114
61 0.004986
62 0.004022
65 0.003988
65 0.004022
62 0.00418
61 0.003991
66 0.003001
71 0.00399
74 0.003039
82 0.000997
89 0.002157
96 0.000985
102 0.0
109 0.000963
115 0.00196
100 0.002987
77 0.003952
4 0.005017
7 0.004955
10 0.004956
19 0.006988
20 0.007981
15 0.004986
17 0.003988
30 0.004029
38 0.00502
51 0.004
67 0.002993
73 0.000999
87 0.0
102 0.0
106 0.0
118 0.0
74 0.001046
33 0.000998
5 0.000998
1 0.003031
61 0.002867
64 0.004022
66 0.00399
63 0.004987
64 0.005948
68 0.005984
75 0.00579
83 0.005978
86 0.005985
93 0.007948
98 0.006981
104 0.007981
108 0.007017
114 0.00704
115 0.004977
85 0.002989
60 0.000999
58 0.000998
57 0.000998
57 0.0
62 0.001004
63 0.0
64 0.0
67 0.0
75 0.0
83 0.000998
91 0.002992
97 0.003993
102 0.006005
112 0.006978
116 0.007979
124 0.006987
131 0.005996
126 0.005983
112 0.007017
82 0.003991
81 0.003024
83 0.003016
86 0.002993
90 0.00301
90 0.005984
88 0.010972
88 0.005984
99 0.006983
108 0.001996
111 0.002991
120 0.002989
123 0.002993
130 0.00299
138 0.003977
151 0.004982
160 0.004987
168 0.005989
150 0.005983
107 0.005953
98 0.006982
100 0.007034
105 0.007016
110 0.007013
109 0.006948
108 0.006986
111 0.006944
120 0.006932
127 0.006978
134 0.007013
143 0.007047
147 0.007007
156 0.006981
164 0.006981
169 0.006983
176 0.005984
163 0.006041
136 0.003989
107 0.003998
105 0.003993
106 0.00399
111 0.003024
117 0.001996
115 0.000999
115 0.0
118 0.000998
123 0.0
134 0.000999
139 0.000997
142 0.003038
154 0.004041
155 0.003972
166 0.006023
171 0.006963
166 0.007016
125 0.007042
92 0.007186
86 0.005974
84 0.004981
83 0.004985
85 0.005029
84 0.004988
80 0.004987
87 0.004351
93 0.002028
100 0.003023
97 0.001039
113 0.000998
119 0.000957
129 0.000833
141 0.000999
152 0.001007
148 0.000997
114 0.000998
64 0.000998
56 0.000998
55 0.002958
53 0.00296
53 0.004987
48 0.00503
44 0.005024
48 0.004986
58 0.006981
65 0.006976
81 0.007016
88 0.006017
100 0.005027
111 0.003044
121 0.005984
132 0.000997
94 0.0
66 0.000996
30 0.0
31 0.0
34 0.001995
48 0.001989
53 0.001963
49 0.004939
52 0.005988
63 0.006966
74 0.006019
87 0.004986
101 0.006209
116 0.005023
123 0.005998
128 0.004937
136 0.005986
141 0.004015
112 0.004038
45 0.004021
23 0.002035
21 0.002146
18 0.00101
23 0.00105
29 0.0
25 0.0
24 0.0
38 0.0
53 0.00295
63 0.002962
72 0.003991
81 0.004788
89 0.005006
102 0.005039
111 0.005021
121 0.004997
117 0.005031
61 0.004988
14 0.005019
0 0.005946
0 0.006031
0 0.005963
0 0.006037
5 0.005981
2 0.007965
7 0.007976
21 0.006982
35 0.007025
44 0.006017
58 0.005023
72 0.004043
80 0.004017
96 0.002994
107 0.002992
118 0.000999
133 0.000998
100 0.0
59 0.001004
20 0.001995
19 0.003942
21 0.005967
32 0.005967
41 0.006016
39 0.005949
41 0.005979
48 0.006979
66 0.007027
82 0.006968
90 0.007789
99 0.006018
112 0.00502
117 0.006025
135 0.005022
139 0.005024
147 0.005019
83 0.004984
43 0.005029
20 0.005021
17 0.005017
20 0.003031
31 0.003024
33 0.00304
26 0.001956
29 0.002994
40 0.001995
56 0.00101
68 0.0
75 0.000998
86 0.0
99 0.000862
107 0.002027
120 0.004006
134 0.003989
129 0.003991
56 0.005023
54 0.00597
48 0.006974
45 0.006987
44 0.007059
52 0.00699
53 0.006979
53 0.006978
55 0.006984
59 0.006977
66 0.006972
71 0.007042
80 0.00603
84 0.006981
93 0.006954
98 0.006955
110 0.004986
118 0.002029
124 0.00199
117 0.000977
84 0.0
62 0.0
58 0.000998
61 0.001995
64 0.001995
71 0.001963
72 0.001962
70 0.00403
75 0.004
80 0.005983
86 0.007012
93 0.007016
99 0.006017
107 0.006016
111 0.007052
119 0.006014
124 0.006982
133 0.006022
133 0.00502
100 0.003989
80 0.00399
74 0.003962
80 0.003122
85 0.002034
91 0.002042
91 0.002029
89 0.001957
97 0.000998
104 0.0
110 0.0
118 0.002001
127 0.002041
138 0.001995
152 0.001994
157 0.001999
163 0.002026
124 0.002995
87 0.001964
63 0.003024
62 0.002993
68 0.003024
76 0.00296
80 0.002958
77 0.004014
79 0.005051
84 0.004987
102 0.007046
112 0.007011
121 0.007016
132 0.006986
139 0.006978
149 0.00698
161 0.007974
162 0.007978
117 0.006973
80 0.005982
56 0.00501
53 0.004987
53 0.004991
60 0.005025
64 0.004987
63 0.005019
68 0.004023
76 0.00402
89 0.004029
102 0.002993
109 0.003989
120 0.00304
134 0.00303
141 0.002992
153 0.003025
159 0.003028
138 0.003017
90 0.002026
64 0.0
60 0.001
59 0.0
67 0.001
76 0.00196
73 0.002993
75 0.003034
85 0.002983
92 0.00399
102 0.003953
109 0.003989
116 0.003949
124 0.006026
131 0.005984
136 0.006019
145 0.005984
143 0.006982
114 0.006985
64 0.006018
54 0.007016
56 0.00602
65 0.006015
70 0.005986
71 0.006023
71 0.006045
76 0.004023
89 0.004035
97 0.003989
110 0.004021
118 0.005026
127 0.003025
137 0.001995
148 0.000975
155 0.0
118 0.000998
73 0.001999
56 0.001995
55 0.00399
59 0.004024
65 0.003989
69 0.003986
66 0.007021
71 0.006981
82 0.006979
90 0.006977
102 0.006983
114 0.006978
116 0.00713
128 0.007018
138 0.006986
145 0.006967
153 0.00599
124 0.005995
83 0.004236
46 0.004031
40 0.003031
38 0.004032
44 0.004026
50 0.003989
52 0.002003
56 0.001042
63 0.001994
79 0.0
88 0.000968
96 0.000845
108 0.001961
119 0.002993
126 0.002962
140 0.004006
148 0.00399
161 0.006018
157 0.006002
133 0.006968
71 0.006985
54 0.006988
54 0.007013
55 0.007017
66 0.007979
70 0.005971
70 0.004987
72 0.006017
82 0.002983
92 0.003022
99 0.003013
106 0.002968
116 0.002032
121 0.003004
132 0.002028
143 0.001005
148 0.0
160 0.0
159 0.0
107 0.0
64 0.0
61 0.000998
67 0.000998
78 0.002036
86 0.00295
84 0.002993
86 0.003982
90 0.00399
104 0.003989
111 0.003819
125 0.003987
137 0.003991
146 0.00399
155 0.00399
161 0.004028
170 0.003978
163 0.005018
128 0.005006
79 0.006016
69 0.006984
70 0.006963
75 0.007028
86 0.006001
85 0.004994
84 0.004978
88 0.004968
99 0.005023
109 0.003012
121 0.000997
129 0.000982
139 0.001014
146 0.002029
153 0.002997
162 0.002992
170 0.002998
169 0.004023
103 0.00399
68 0.003954
46 0.003976
43 0.004955
44 0.004989
51 0.006958
55 0.006984
52 0.00604
57 0.005975
67 0.005978
81 0.006009
95 0.005984
105 0.005968
117 0.006011
124 0.007
134 0.004994
143 0.005966
152 0.004973
159 0.005986
128 0.005979
83 0.006027
38 0.005984
35 0.006015
36 0.005944
46 0.005026
52 0.004985
49 0.003972
51 0.001995
58 0.000977
68 0.001007
81 0.0
87 0.0
100 0.001996
113 0.001996
121 0.001996
129 0.003976
143 0.005962
152 0.006025
125 0.005978
82 0.005984
46 0.005987
48 0.006015
57 0.006968
71 0.006975
76 0.007038
75 0.007024
75 0.005986
83 0.007978
95 0.007944
110 0.006723
122 0.007955
127 0.006978
137 0.006986
145 0.005978
156 0.005989
158 0.005132
113 0.003983
51 0.002022
38 0.002014
42 0.002008
49 0.003025
59 0.0
59 0.0
57 0.001019
60 0.001999
73 0.001995
85 0.001997
95 0.001784
104 0.001962
113 0.002002
125 0.003
134 0.003987
141 0.005988
140 0.006019
67 0.007012
34 0.007968
21 0.006992
22 0.007004
26 0.005958
39 0.005024
40 0.004027
41 0.003991
49 0.002032
60 0.0
70 0.0
84 0.001006
94 0.0
104 0.0
117 0.001004
123 0.001941
136 0.001997
134 0.001962
83 0.001996
32 0.001965
19 0.002992
23 0.003993
30 0.003991
40 0.004075
44 0.003936
45 0.005005
50 0.004995
64 0.006014
77 0.005975
84 0.005833
98 0.005984
104 0.005984
113 0.007019
125 0.006982
133 0.007003
135 0.007016
87 0.007979
45 0.006983
18 0.006971
19 0.005985
33 0.005022
44 0.003997
45 0.00499
44 0.004018
55 0.003993
64 0.003993
83 0.004117
97 0.002037
105 0.001029
120 0.001
127 0.000998
143 0.000999
146 0.000995
118 0.0
51 0.001999
36 0.002994
41 0.004027
56 0.003957
66 0.004028
69 0.004987
67 0.005976
77 0.007954
84 0.00694
102 0.005982
118 0.003988
126 0.004022
141 0.002995
153 0.000997
162 0.001067
174 0.00098
159 0.0
129 0.000972
50 0.0
44 0.0
46 0.0
54 0.0
63 0.0
67 0.002032
69 0.002041
74 0.001914
87 0.001989
95 0.002965
110 0.003958
121 0.003997
129 0.004031
139 0.00399
150 0.005028
158 0.005034
166 0.004982
143 0.004953
68 0.004974
35 0.004992
43 0.005024
51 0.005031
57 0.005868
68 0.005984
65 0.005987
69 0.005984
81 0.006017
97 0.006035
104 0.006015
115 0.005988
123 0.005972
133 0.006017
139 0.007946
147 0.005976
156 0.005981
152 0.005019
118 0.005021
51 0.002991
37 0.001993
42 0.001018
50 0.0
58 0.0
55 0.001021
52 0.00199
59 0.002032
66 0.001973
81 0.001996
87 0.00294
100 0.004011
110 0.003988
117 0.003984
129 0.004043
135 0.003975
105 0.004988
48 0.006028
37 0.007979
41 0.006001
52 0.005988
69 0.003975
70 0.003991
66 0.002993
74 0.001973
83 0.003121
99 0.002017
107 0.003051
116 0.002014
127 0.0
136 0.0
149 0.001004
113 0.001998
68 0.001959
33 0.002026
33 0.001995
38 0.001991
49 0.002992
50 0.005025
48 0.00502
49 0.007937
62 0.007941
71 0.007946
86 0.007979
92 0.007978
100 0.007946
110 0.007013
116 0.007979
122 0.006977
94 0.007946
22 0.003991
0 0.003992
0 0.003996
0 0.003974
10 0.003989
14 0.003046
18 0.001948
23 0.002992
39 0.001013
52 0.001993
65 0.001016
76 0.001
90 0.000998
98 0.000998
114 0.001032
125 0.000992
133 0.001001
99 0.0
40 0.002049
12 0.003012
12 0.002993
11 0.003962
23 0.004986
36 0.004995
37 0.005022
45 0.004979
64 0.006019
74 0.005019
88 0.006989
102 0.006987
111 0.006014
125 0.005982
133 0.004962
148 0.003028
159 0.002993
171 0.002004
161 0.003029
96 0.002995
67 0.003027
64 0.002988
66 0.002173
74 0.003026
84 0.001988
83 0.001979
86 0.0
100 0.0
109 0.0
124 0.0
132 0.0
141 0.000998
156 0.0
163 0.0
174 0.000998
186 0.002942
195 0.002945
171 0.004
113 0.00399
100 0.004988
105 0.006019
114 0.006366
124 0.006994
130 0.006982
130 0.006995
132 0.008008
148 0.007946
155 0.007945
173 0.007976
182 0.006018
188 0.007011
199 0.006014
205 0.007015
216 0.006025
227 0.006023
188 0.005029
186 0.002991
129 0.001029
119 0.000998
120 0.001034
120 0.001984
130 0.000982
132 0.001996
130 0.000998
133 0.002018
144 0.002007
152 0.001996
166 0.001944
175 0.001017
180 0.001999
189 0.001904
195 0.002044
200 0.001977
209 0.002026
214 0.001996
203 0.001996
135 0.003026
107 0.005007
99 0.006072
95 0.005986
97 0.007978
106 0.005987
108 0.004019
105 0.004027
112 0.004022
122 0.003989
131 0.002012
141 0.003032
150 0.002029
158 0.003009
173 0.0
185 0.000982
195 0.002
203 0.002993
212 0.004987
211 0.005029
171 0.006983
104 0.007015
99 0.006937
104 0.007015
106 0.007004
113 0.006978
112 0.007016
107 0.006012
115 0.005987
123 0.005011
133 0.003988
141 0.004987
152 0.003987
158 0.004994
167 0.005019
174 0.004028
185 0.003978
200 0.002034
198 0.004027
151 0.001956
118 0.003023
105 0.001942
111 0.001981
120 0.00199
127 0.001111
125 0.0
123 0.0
128 0.000954
141 0.001028
148 0.004035
159 0.002991
162 0.004
173 0.004037
180 0.00405
185 0.004059
194 0.004989
195 0.006018
153 0.006988
112 0.007924
86 0.00798
84 0.007121
84 0.005968
92 0.004022
94 0.005021
90 0.00299
91 0.003989
101 0.002992
113 0.00291
121 0.002988
132 0.002989
142 0.00203
146 0.002034
155 0.0
165 0.0
170 0.000998
172 0.003021
114 0.002997
80 0.003001
67 0.003029
69 0.002993
73 0.002926
83 0.003042
86 0.004022
83 0.004988
91 0.006983
97 0.007044
111 0.006936
121 0.006962
131 0.006866
141 0.00698
148 0.007969
158 0.005982
169 0.00399
176 0.00298
185 0.002996
143 0.002025
104 0.001995
81 0.001993
81 0.001997
87 0.0
95 0.002027
95 0.0
91 0.000998
96 0.002034
103 0.000999
114 0.002024
126 0.001996
133 0.002025
141 0.001995
153 0.002952
158 0.004021
172 0.005052
178 0.00399
183 0.004025
131 0.003993
104 0.005953
99 0.006978
107 0.005969
119 0.006017
131 0.006018
127 0.002986
127 0.003021
136 0.001994
147 0.001992
158 0.0
167 0.001988
177 0.002067
183 0.001999
192 0.0
197 0.002028
193 0.0
152 0.0
119 0.0
113 0.0
121 0.0
131 0.0
138 0.0
137 0.0
136 0.0
144 0.0
151 0.001026
164 0.001995
169 0.002997
178 0.002993
187 0.003027
192 0.002992
200 0.002994
190 0.00499
142 0.00502
106 0.004984
100 0.006952
102 0.007022
105 0.005985
112 0.004984
113 0.004996
114 0.003981
120 0.004987
131 0.00303
146 0.004022
153 0.00303
163 0.003033
172 0.003012
179 0.004025
186 0.003017
192 0.003023
164 0.002995
116 0.00403
99 0.002997
101 0.002969
104 0.002025
110 0.002992
118 0.003023
114 0.002992
118 0.000939
125 0.000998
135 0.000998
146 0.001996
154 0.002995
160 0.003029
172 0.003046
183 0.003946
186 0.005983
196 0.006018
179 0.00695
155 0.00703
109 0.004993
103 0.004975
107 0.004023
114 0.001026
119 0.002028
114 0.0
112 0.001027
117 0.0
124 0.001979
136 0.001033
142 0.0
152 0.0
160 0.0
168 0.0
176 0.001999
185 0.001995
175 0.001996
123 0.002994
104 0.002995
105 0.002995
112 0.003952
120 0.005028
121 0.005032
118 0.004987
118 0.004989
129 0.006014
137 0.006968
144 0.006969
148 0.006994
153 0.005988
159 0.00698
165 0.006016
171 0.003986
172 0.004039
115 0.003992
74 0.003991
57 0.003952
59 0.003959
63 0.003989
77 0.002002
74 0.004029
72 0.00201
82 0.001946
88 0.0
104 0.0
119 0.0
124 0.0
137 0.000999
148 0.002993
156 0.003956
164 0.004022
173 0.004027
115 0.00498
43 0.00698
33 0.006957
35 0.004999
35 0.00602
47 0.005011
55 0.005984
46 0.006022
49 0.006023
58 0.006031
72 0.00302
77 0.00403
82 0.001997
83 0.004026
89 0.002007
96 0.001988
100 0.002019
108 0.001999
104 0.001003
60 0.000999
0 0.000981
0 0.0
0 0.0
0 0.00204
0 0.000968
0 0.0
0 0.0
1 0.001997
17 0.003941
33 0.00399
51 0.005026
65 0.005982
81 0.00595
91 0.005972
106 0.006018
118 0.006033
96 0.007981
44 0.005989
22 0.006982
26 0.003059
42 0.004035
55 0.004023
67 0.004019
65 0.004037
73 0.00204
91 0.002963
110 0.000993
128 0.003146
145 0.001996
157 0.002021
172 0.001031
190 0.0
199 0.0
193 0.000998
118 0.001997
83 0.003032
71 0.003988
76 0.005019
84 0.005019
92 0.006966
88 0.006968
89 0.006986
98 0.00698
109 0.006978
125 0.00499
142 0.005017
151 0.004987
162 0.00399
170 0.006009
180 0.003993
188 0.004041
181 0.001983
132 0.0
48 0.0
34 0.000999
28 0.001051
33 0.001997
41 0.00399
45 0.004024
46 0.004006
48 0.003991
65 0.003993
81 0.004033
92 0.004034
103 0.004994
118 0.005054
123 0.005026
138 0.004984
144 0.00498
155 0.005024
157 0.005022
116 0.005024
26 0.004995
4 0.004985
7 0.005908
13 0.005994
25 0.005987
33 0.006019
31 0.006014
35 0.006017
46 0.006989
51 0.006981
63 0.007017
73 0.006988
79 0.006965
84 0.00599
100 0.004988
105 0.003994
120 0.003978
130 0.002985
77 0.003027
7 0.002024
0 0.000997
9 0.001033
25 0.002043
42 0.000952
43 0.0
42 0.0
48 0.000998
69 0.002024
87 0.002997
99 0.003989
112 0.004032
127 0.005014
137 0.00498
150 0.005019
159 0.006021
119 0.006964
39 0.0068
24 0.007929
22 0.004987
38 0.003936
51 0.002993
59 0.001997
55 0.001991
59 0.001995
74 0.0
89 0.000997
102 0.0
113 0.001996
124 0.0
136 0.002041
150 0.001
156 0.002048
137 0.004986
60 0.005992
8 0.006973
7 0.007978
12 0.007025
22 0.00297
31 0.007013
30 0.004928
32 0.007023
43 0.004991
62 0.005159
70 0.004988
85 0.004994
94 0.005022
102 0.005014
113 0.004027
119 0.005986
129 0.003989
98 0.003997
5 0.002024
49 0.004023
50 0.001982
54 0.002028
63 0.001033
64 0.001147
60 0.000999
62 0.0
69 0.000997
75 0.002047
82 0.000997
87 0.000998
102 0.004024
109 0.003991
116 0.003985
125 0.004027
113 0.004021
74 0.005987
60 0.00603
62 0.006015
70 0.006006
83 0.00798
85 0.004987
82 0.006023
88 0.005038
97 0.004987
104 0.005035
112 0.005034
121 0.003026
129 0.001002
135 0.002029
142 0.002047
134 0.0
120 0.0
90 0.0
87 0.000997
89 0.001995
98 0.001983
103 0.002007
104 0.003027
107 0.002998
112 0.002993
119 0.002989
128 0.002992
135 0.003019
144 0.004993
146 0.005022
151 0.006016
140 0.006013
103 0.007983
92 0.00798
76 0.007978
79 0.007977
95 0.007956
102 0.006104
99 0.006028
99 0.004958
108 0.004973
116 0.00502
128 0.004025
135 0.00399
149 0.002026
157 0.000982
164 0.001016
153 0.000994
116 0.002994
94 0.0
97 0.0
107 0.001992
117 0.002061
124 0.001961
124 0.003004
123 0.004138
131 0.005984
143 0.005983
149 0.006027
160 0.005985
166 0.005983
177 0.006027
186 0.005982
192 0.006057
194 0.005983
170 0.005978
115 0.006014
101 0.006988
101 0.006994
109 0.006992
117 0.006942
116 0.006032
109 0.005034
115 0.00602
123 0.002974
132 0.004021
139 0.002009
143 0.00399
150 0.00403
152 0.003956
160 0.003029
171 0.00199
170 0.0
139 0.0
99 0.001039
92 0.001955
96 0.00402
99 0.004988
103 0.004992
109 0.005026
111 0.007018
117 0.006984
131 0.006969
138 0.006948
151 0.006984
159 0.005948
165 0.004986
171 0.006018
179 0.007203
187 0.005095
194 0.005029
177 0.004986
151 0.005023
129 0.004957
129 0.004956
135 0.005024
142 0.003013
149 0.004022
152 0.002991
154 0.003989
161 0.002985
171 0.00399
176 0.00304
186 0.001976
193 0.001972
202 0.002011
214 0.0
220 0.0
232 0.0
241 0.000999
246 0.0
221 0.0
189 0.001965
188 0.001996
197 0.001995
199 0.002
207 0.001995
211 0.001967
211 0.002023
213 0.003992
221 0.004071
229 0.005031
237 0.004976
241 0.005
248 0.005015
253 0.004987
255 0.005983
255 0.006985
255 0.005005
255 0.005004
255 0.004043
254 0.002989
233 0.001996
221 0.00203
229 0.002028
233 0.002028
238 0.000998
186 0.0
185 0.0
184 0.001989
187 0.002992
189 0.001965
192 0.002003
195 0.002966
196 0.002992
199 0.004988
199 0.004987
203 0.005028
203 0.005006
204 0.006014
203 0.005987
189 0.007054
179 0.005985
179 0.00593
181 0.005986
182 0.005062
185 0.006019
183 0.004
180 0.004986
181 0.004984
182 0.005018
185 0.004989
186 0.00502
188 0.004002
188 0.003024
189 0.003993
191 0.002186
192 0.000966
192 0.0
193 0.0
177 0.0
167 0.000949
166 0.002032
170 0.002977
170 0.002968
172 0.002993
171 0.002958
167 0.003998
168 0.005018
170 0.004988
171 0.006035
172 0.006027
173 0.006969
174 0.007937
175 0.00598
176 0.005985
177 0.006014
255 0.003989
255 0.005987
203 0.003989
188 0.004988
191 0.003988
199 0.003982
204 0.003989
202 0.004024
192 0.004022
191 0.003013
195 0.002025
198 0.001981
204 0.001992
207 0.002027
208 0.0
211 0.001012
214 0.0
219 0.0
223 0.0
216 0.0
157 0.001991
123 0.001995
129 0.00299
129 0.00399
134 0.005019
134 0.005021
120 0.004981
110 0.005984
113 0.007015
112 0.006978
115 0.006952
117 0.006955
118 0.00698
121 0.007013
132 0.005019
131 0.004977
136 0.003024
120 0.001994
73 0.002039
42 0.002026
42 0.002009
46 0.002028
49 0.001997
47 0.0
36 0.0
32 0.0
36 0.001995
40 0.002029
47 0.002958
56 0.004025
56 0.004022
63 0.004001
67 0.005033
72 0.006039
66 0.005973
5 0.00701
0 0.00697
0 0.006001
0 0.006016
0 0.005042
0 0.002982
0 0.005019
0 0.002953
0 0.003957
0 0.000991
0 0.001998
0 0.002993
0 0.001018
0 0.000996
0 0.0
6 0.000998
9 0.001995
0 0.002994
0 0.003991
0 0.005981
0 0.005971
0 0.005958
0 0.006015
0 0.00602
0 0.005979
7 0.005984
11 0.005952
16 0.003999
19 0.006011
23 0.00299
28 0.002987
33 0.003027
37 0.003028
44 0.002979
24 0.002025
6 0.002992
61 0.0
62 0.0
62 0.0
64 0.0
65 0.000993
62 0.002992
62 0.003986
66 0.005981
68 0.006982
71 0.005963
75 0.006982
77 0.005945
83 0.004973
85 0.003974
88 0.003987
88 0.005016
77 0.00501
67 0.002986
67 0.002992
68 0.002992
71 0.00201
73 0.00197
71 0.001995
72 0.0
74 0.002031
77 0.0
81 0.001001
83 0.002029
87 0.001966
92 0.002047
97 0.002976
101 0.003984
106 0.003944
105 0.003999
92 0.004023
85 0.00402
87 0.005976
91 0.006017
91 0.006023
92 0.005971
92 0.006017
93 0.005983
96 0.007012
100 0.007014
103 0.007023
109 0.006983
111 0.006988
116 0.006982
119 0.004982
122 0.006983
118 0.004995
91 0.002991
78 0.002998
74 0.000983
85 0.001994
91 0.0
96 0.000997
91 0.0
92 0.0
99 0.0
106 0.0
113 0.002962
123 0.003959
127 0.00403
134 0.003956
141 0.004021
148 0.004021
155 0.003978
150 0.00395
121 0.003992
99 0.003881
99 0.004986
102 0.00602
112 0.00702
111 0.007014
108 0.006978
113 0.007019
114 0.00698
123 0.004997
127 0.005998
127 0.004984
136 0.00499
141 0.002993
147 0.003002
149 0.003987
128 0.001963
100 0.001029
95 0.0
99 0.0
102 0.00101
105 0.002959
111 0.003958
113 0.003959
112 0.004022
115 0.005038
127 0.005983
131 0.005983
137 0.006016
146 0.006016
145 0.005977
162 0.00698
147 0.005962
115 0.004973
85 0.002998
86 0.001988
93 0.002018
107 0.0
112 0.001965
111 0.001965
107 0.003961
111 0.003993
118 0.004022
133 0.004007
141 0.004028
151 0.004023
161 0.003958
174 0.006029
183 0.006019
185 0.005983
155 0.006004
98 0.007021
88 0.006988
90 0.007929
92 0.006015
102 0.004992
102 0.004995
103 0.003992
109 0.002991
119 0.003
131 0.002985
138 0.002993
152 0.002996
161 0.003986
170 0.00194
179 0.002004
192 0.0
199 0.0
185 0.0
125 0.000998
102 0.001007
106 0.004007
112 0.004022
122 0.004028
125 0.005984
127 0.005847
127 0.006983
137 0.005938
146 0.005044
156 0.003984
171 0.00398
175 0.003956
188 0.003989
194 0.003983
204 0.001997
212 0.002992
194 0.002989
153 0.002987
114 0.002995
115 0.002988
117 0.003024
130 0.000993
135 0.002991
130 0.001996
131 0.002996
139 0.001991
151 0.002021
157 0.002003
168 0.001985
176 0.001002
182 0.001003
191 0.001996
203 0.002943
207 0.003028
165 0.002994
110 0.00399
100 0.004025
103 0.006039
107 0.00698
119 0.006983
124 0.007014
120 0.004995
123 0.004975
131 0.003989
140 0.003981
151 0.002998
163 0.0
171 0.000961
181 0.0
190 0.0
194 0.000969
202 0.000999
179 0.0
119 0.000997
85 0.001015
85 0.001024
88 0.000832
99 0.000985
101 0.000992
98 0.003002
100 0.005046
108 0.005996
121 0.006018
132 0.005994
140 0.005984
150 0.006019
157 0.006021
166 0.005991
175 0.005985
183 0.005988
184 0.007014
151 0.007012
96 0.007979
79 0.005988
83 0.005997
92 0.003979
102 0.002002
104 0.001995
101 0.001993
109 0.002018
117 0.001966
128 0.001994
141 0.002016
145 0.000991
156 0.000998
165 0.000987
173 0.001996
181 0.001995
187 0.001995
186 0.001963
131 0.003992
85 0.006108
75 0.007015
83 0.005998
91 0.003989
95 0.004988
96 0.002968
94 0.004987
100 0.002987
109 0.003003
118 0.003002
131 0.00299
138 0.00299
144 0.002998
154 0.003134
156 0.002987
169 0.001988
163 0.001995
112 0.0
71 0.0
63 0.0
68 0.002031
83 0.00296
88 0.004046
86 0.005027
84 0.004022
92 0.005029
101 0.004954
112 0.00502
118 0.005019
128 0.007031
138 0.006972
142 0.008009
145 0.006952
152 0.006974
131 0.006979
56 0.00599
34 0.005981
36 0.004187
48 0.003991
54 0.004006
59 0.003997
57 0.005978
61 0.003986
70 0.004984
81 0.003991
90 0.004976
102 0.005008
109 0.005019
119 0.003992
131 0.000997
137 0.002996
133 0.0
76 0.0
33 0.001014
9 0.001962
14 0.001995
18 0.001996
31 0.001989
32 0.001968
30 0.003027
39 0.002938
48 0.005015
63 0.006997
73 0.007017
79 0.006997
87 0.007991
97 0.007965
104 0.006983
114 0.00597
90 0.002994
44 0.004019
0 0.001994
0 0.001995
0 0.000991
12 0.0
16 0.000998
16 0.0
23 0.0
33 0.0
48 0.0
64 0.0
74 0.000994
88 0.002992
102 0.003991
109 0.004025
123 0.00497
134 0.005985
121 0.005984
61 0.006018
13 0.004987
7 0.006975
17 0.007979
26 0.007973
38 0.007926
38 0.00399
40 0.005951
51 0.004955
67 0.001994
79 0.001995
90 0.0
101 0.0
106 0.0
118 0.0
127 0.000948
138 0.0
117 0.001031
71 0.0
19 0.0
16 0.0
28 0.0
43 0.0
46 0.000998
41 0.0
43 0.002028
55 0.002949
65 0.001995
78 0.003024
87 0.002894
98 0.003028
104 0.004988
114 0.004961
128 0.006019
133 0.007023
99 0.005985
15 0.004978
59 0.004973
59 0.004977
62 0.002967
68 0.001992
72 0.002943
73 0.001977
75 0.0
82 0.002042
89 0.00099
94 0.002019
100 0.002027
103 0.000956
111 0.0
115 0.001022
121 0.0
126 0.000998
110 0.001996
82 0.001991
126 0.001997
125 0.003028
125 0.004
125 0.004988
125 0.004987
125 0.005988
125 0.00695
125 0.006965
125 0.006965
125 0.006974
125 0.005977
125 0.006972
129 0.006959
138 0.004976
144 0.006017
152 0.002997
155 0.003023
117 0.003989
81 0.004022
59 0.00398
62 0.00199
67 0.003025
80 0.001992
80 0.0
79 0.0
86 0.000939
92 0.0
104 0.0
113 0.0
118 0.001996
125 0.001994
132 0.002039
137 0.002032
147 0.002006
152 0.002959
144 0.002993
87 0.003033
65 0.002992
62 0.005035
67 0.006984
76 0.00695
80 0.006981
76 0.006982
75 0.006985
81 0.005989
94 0.002969
99 0.003986
108 0.00196
115 0.000966
123 0.0
129 0.0
138 0.0
143 0.0
113 0.0
77 0.000962
51 0.001017
57 0.000997
63 0.001994
77 0.002993
78 0.004956
76 0.005017
81 0.007
91 0.007034
98 0.007013
108 0.007029
113 0.006978
119 0.007983
124 0.005977
129 0.005984
137 0.003988
136 0.004017
106 0.003978
49 0.004001
37 0.00299
39 0.003991
46 0.001976
53 0.002003
56 0.002025
57 0.000996
61 0.0
68 0.002029
80 0.001994
86 0.001994
95 0.0
102 0.000998
109 0.002992
116 0.001954
124 0.004986
126 0.006019
87 0.006041
51 0.005985
32 0.005984
36 0.006977
41 0.006965
50 0.006967
55 0.006942
54 0.00594
60 0.003979
72 0.003996
78 0.001997
90 0.003024
96 0.002978
102 0.00198
108 0.002961
115 0.0
120 0.002042
126 0.001998
108 0.001998
54 0.0
34 0.0
38 0.0
47 0.002051
62 0.002006
64 0.002046
62 0.001968
66 0.001974
75 0.002926
88 0.005028
93 0.00602
93 0.00602
104 0.005964
110 0.005959
121 0.006946
128 0.005973
108 0.005985
37 0.004969
16 0.004156
23 0.005982
36 0.007013
52 0.003958
56 0.004991
53 0.002993
58 0.003007
72 0.001994
87 0.0
96 0.000993
104 0.0
116 0.000999
120 0.0
132 0.000998
137 0.001998
99 0.001984
22 0.001995
4 0.001957
4 0.001996
13 0.001995
23 0.001986
31 0.002049
31 0.003002
36 0.003
52 0.003026
59 0.002993
72 0.004961
81 0.005963
86 0.006029
93 0.007014
103 0.006948
111 0.007961
112 0.008007
64 0.00794
4 0.006977
0 0.004041
0 0.004987
0 0.001986
5 0.0
12 0.00198
15 0.002048
28 0.000996
39 0.0
58 0.0
69 0.0
76 0.001949
90 0.002983
103 0.003989
110 0.003957
122 0.003985
130 0.004007
93 0.005979
37 0.007016
19 0.005971
19 0.007972
25 0.007017
34 0.00698
47 0.004021
49 0.002979
54 0.001995
67 0.000994
81 0.001001
91 0.0
102 0.0
114 0.002046
123 0.0
132 0.002003
141 0.0
151 0.001995
143 0.0
105 0.001
53 0.001994
49 0.000902
57 0.000997
70 0.001965
80 0.001963
79 0.001996
80 0.003032
87 0.00399
102 0.005027
118 0.005979
124 0.005895
133 0.005979
143 0.004973
149 0.00502
162 0.004992
157 0.003947
120 0.002983
70 0.002019
68 0.003055
76 0.002959
89 0.002958
101 0.001981
100 0.002994
99 0.002046
107 0.002035
121 0.000958
133 0.000997
140 0.001972
148 0.001031
157 0.000999
164 0.000998
175 0.001996
179 0.003992
136 0.003992
76 0.003935
66 0.003991
68 0.005993
78 0.00602
87 0.006011
95 0.005984
96 0.005979
104 0.005985
119 0.005969
130 0.006014
143 0.005015
152 0.007968
161 0.005027
170 0.006015
180 0.004982
187 0.004987
196 0.005026
184 0.005023
112 0.005021
76 0.002966
73 0.004996
74 0.002008
78 0.005199
92 0.003011
98 0.002011
98 0.001994
108 0.002003
123 0.001964
131 0.000994
145 0.001999
152 0.001992
163 0.002016
172 0.003027
183 0.0
192 0.000999
201 0.0
182 0.0
113 0.0
88 0.000998
84 0.003028
87 0.001966
97 0.002005
107 0.003991
112 0.00404
113 0.005029
124 0.006022
138 0.005996
147 0.007008
161 0.00501
170 0.004001
176 0.002961
186 0.002979
196 0.002969
201 0.003002
212 0.002981
211 0.003015
154 0.002017
109 0.003018
100 0.001996
106 0.002966
115 0.002991
124 0.00204
127 0.002047
125 0.002027
133 0.003041
145 0.0
154 0.002048
166 0.000966
173 0.000999
177 0.002033
187 0.003028
196 0.004019
201 0.004028
209 0.005994
212 0.005978
181 0.006976
123 0.006024
102 0.006985
105 0.00694
119 0.006973
125 0.006016
129 0.006985
127 0.007972
131 0.006983
140 0.007969
151 0.006025
161 0.007978
170 0.006216
177 0.005017
187 0.003999
197 0.000966
200 0.003032
207 0.0
214 0.0
199 0.0
126 0.000998
97 0.002992
100 0.002992
112 0.004954
128 0.004988
127 0.005981
124 0.006965
128 0.008034
137 0.006046
150 0.006988
157 0.006014
168 0.007983
178 0.007982
181 0.007015
192 0.006143
200 0.003027
206 0.004019
200 0.001962
131 0.000968
101 0.0
95 0.000968
108 0.000979
121 0.001
125 0.000999
122 0.000996
120 0.0
131 0.000998
137 0.001981
151 0.002025
160 0.003
165 0.003989
177 0.00395
185 0.004029
193 0.003958
198 0.003985
169 0.004955
107 0.004983
78 0.005937
80 0.006015
94 0.006975
105 0.004989
106 0.007017
99 0.002995
103 0.002955
109 0.002001
121 0.001991
130 0.0
135 0.0
143 0.000997
147 0.003027
151 0.0
158 0.001995
143 0.001996
71 0.002007
40 0.00299
44 0.003991
62 0.004002
73 0.004022
72 0.004956
70 0.00495
77 0.004977
84 0.004859
100 0.005016
109 0.005986
118 0.005979
126 0.005975
134 0.005973
144 0.005987
143 0.005983
110 0.004991
56 0.004952
55 0.002937
67 0.002958
91 0.002992
95 0.002992
91 0.000999
92 0.002032
101 0.0
114 0.002041
130 0.002052
137 0.000847
146 0.002025
154 0.003018
161 0.003991
135 0.003959
70 0.005042
56 0.005993
66 0.005983
84 0.005973
96 0.007327
99 0.003029
96 0.002031
102 0.002954
115 0.001967
129 0.001965
135 0.00198
144 0.002943
149 0.002005
159 0.0
141 0.004015
80 0.000954
42 0.00204
41 0.0
46 0.0
61 0.002047
70 0.003033
71 0.004004
74 0.005986
87 0.00695
96 0.006977
109 0.006985
117 0.006976
123 0.007995
132 0.004978
138 0.007023
149 0.003973
127 0.003168
77 0.003008
23 0.002992
18 0.00201
18 0.002992
29 0.000994
45 0.001995
49 0.0
51 0.002055
65 0.000997
75 0.000998
88 0.000997
97 0.003031
105 0.002822
113 0.003987
121 0.005981
128 0.007014
137 0.007978
144 0.007949
142 0.007978
68 0.002999
16 0.002
12 0.00202
13 0.002007
19 0.002026
40 0.002028
46 0.002011
50 0.00199
61 0.000951
75 0.002019
86 0.0
97 0.002052
104 0.002027
115 0.000997
124 0.000998
131 0.002007
138 0.001996
145 0.003958
152 0.003962
154 0.005991
102 0.005976
41 0.006979
23 0.004956
27 0.004961
30 0.002995
52 0.0
61 0.0
61 0.0
70 0.000989
82 0.001996
95 0.000996
105 0.002043
116 0.003046
122 0.000998
131 0.002992
139 0.003956
146 0.005022
157 0.006002
168 0.005981
170 0.007979
126 0.007977
62 0.004012
40 0.006019
44 0.004024
51 0.005985
70 0.002993
79 0.003028
77 0.002992
81 0.001995
94 0.00199
103 0.0
112 0.0
121 0.0
126 0.000949
136 0.002027
144 0.002024
152 0.003959
164 0.003969
161 0.00499
107 0.004996
57 0.004987
47 0.004957
59 0.006013
79 0.005984
87 0.005981
87 0.005981
87 0.005991
95 0.005777
110 0.006991
119 0.006981
129 0.006979
133 0.004952
133 0.004973
139 0.004957
152 0.004988
160 0.00399
134 0.003982
80 0.003977
23 0.003987
23 0.005015
33 0.002002
50 0.002993
60 0.002989
59 0.003027
64 0.003034
74 0.002992
93 0.002036
104 0.000939
107 0.0
113 0.0
114 0.001009
122 0.000998
134 0.000998
145 0.001
139 0.000998
56 0.002008
15 0.003024
0 0.005031
4 0.005981
14 0.006981
29 0.004986
38 0.004975
35 0.00602
43 0.00399
58 0.004023
82 0.002961
95 0.002992
117 0.003032
122 0.004057
128 0.002001
135 0.0
136 0.0
143 0.0
125 0.000998
75 0.002994
21 0.00394
34 0.00399
45 0.005995
71 0.006974
87 0.004978
93 0.001999
93 0.00203
109 0.0
128 0.002027
148 0.0
163 0.00203
181 0.0
192 0.002027
199 0.001949
204 0.001994
208 0.003003
172 0.000987
87 0.0
72 0.0
79 0.0
104 0.000968
116 0.00303
121 0.00399
125 0.005019
131 0.004986
146 0.004985
155 0.004984
164 0.004962
178 0.005995
188 0.00698
193 0.005987
201 0.005954
158 0.003965
99 0.003935
55 0.005952
60 0.004987
67 0.003989
83 0.002997
93 0.001022
95 0.00203
97 0.0
115 0.000998
126 0.0
136 0.002993
148 0.003014
154 0.002988
161 0.004016
176 0.005984
184 0.006979
157 0.006966
63 0.005986
36 0.004987
41 0.004986
48 0.00399
71 0.002992
84 0.004024
79 0.001986
79 0.002993
92 0.00203
105 0.002027
117 0.001995
137 0.0
152 0.002991
161 0.0
179 0.001987
188 0.002008
164 0.004017
73 0.003959
45 0.003994
42 0.00399
47 0.003788
60 0.004023
83 0.005
91 0.004983
100 0.005992
111 0.006018
122 0.005984
144 0.006964
151 0.005951
153 0.004979
160 0.007032
169 0.004987
183 0.006981
167 0.007026
117 0.00702
53 0.005983
47 0.005992
60 0.005984
80 0.004987
89 0.005021
94 0.003016
104 0.001994
116 0.001996
141 0.0
168 0.0
179 0.000999
193 0.0
201 0.000993
210 0.0
171 0.0
119 0.000998
75 0.001008
83 0.002016
96 0.002961
116 0.003933
118 0.003993
118 0.003972
121 0.004989
135 0.004995
150 0.005021
172 0.004911
182 0.00502
196 0.004978
206 0.005023
213 0.006981
161 0.006014
80 0.007011
52 0.005975
55 0.004987
63 0.003994
82 0.003984
86 0.004102
88 0.002987
101 0.002993
110 0.003991
130 0.001985
148 0.002049
165 0.001003
174 0.001996
196 0.004013
197 0.00404
143 0.005984
74 0.007963
55 0.007957
57 0.007969
75 0.008012
95 0.003986
99 0.006068
99 0.001954
110 0.001994
118 0.002015
135 0.0
156 0.0
163 0.001008
176 0.000964
193 0.001044
202 0.001964
189 0.001996
132 0.001996
62 0.004002
57 0.003958
66 0.003985
87 0.003985
97 0.00438
109 0.004986
113 0.004908
120 0.00502
130 0.00499
147 0.005023
155 0.005021
171 0.006018
180 0.006948
198 0.006989
210 0.004021
175 0.004019
121 0.003954
75 0.001961
76 0.003989
90 0.001996
109 0.00399
113 0.001984
108 0.003027
116 0.003002
126 0.002994
150 0.002025
173 0.0
184 0.0
200 0.000959
218 0.000997
226 0.000971
189 0.000999
139 0.001005
101 0.000964
105 0.002993
116 0.002992
133 0.003962
129 0.005976
126 0.005985
133 0.005985
149 0.006947
160 0.006003
172 0.005985
178 0.005995
193 0.00599
209 0.007967
216 0.005006
195 0.007012
107 0.005987
80 0.005979
77 0.005984
93 0.001989
102 0.003989
108 0.002998
108 0.00399
112 0.002001
126 0.001965
136 0.0
149 0.0
161 0.0
168 0.0
185 0.0
194 0.0
205 0.0
142 0.0
92 0.000998
67 0.000997
72 0.002007
82 0.001013
96 0.002998
97 0.005002
98 0.006015
108 0.006975
120 0.007018
132 0.005983
148 0.005998
161 0.003973
169 0.005991
178 0.002984
190 0.001946
197 0.002003
145 0.001997
93 0.002016
56 0.001999
66 0.0
74 0.001009
93 0.001004
96 0.001995
94 0.0
100 0.000999
110 0.003981
119 0.002967
134 0.003993
141 0.003993
155 0.006979
164 0.007939
174 0.006985
184 0.005985
200 0.005017
147 0.001997
99 0.001994
76 0.0
95 0.0
112 0.0
129 0.0
128 0.0
126 0.0
138 0.001999
150 0.001994
163 0.001995
177 0.003988
183 0.003984
194 0.004994
205 0.006983
215 0.005988
228 0.006974
192 0.006981
128 0.004981
95 0.006995
101 0.006981
113 0.006981
135 0.005951
134 0.006025
131 0.004987
135 0.002988
148 0.002992
163 0.00301
180 0.001998
189 0.001983
202 0.0
208 0.000952
220 0.000966
222 0.0
180 0.001009
91 0.0
69 0.002994
69 0.0
81 0.001013
94 0.002991
93 0.003017
91 0.003962
99 0.005022
111 0.006972
124 0.007987
139 0.007976
147 0.006986
160 0.005972
172 0.00299
180 0.004987
191 0.0
164 0.0
110 0.0
54 0.0
54 0.000999
59 0.002045
77 0.003004
82 0.004017
81 0.00399
84 0.005985
92 0.007951
104 0.004975
117 0.004988
131 0.004983
142 0.004987
160 0.004987
174 0.001993
182 0.002993
199 0.00198
184 0.0
137 0.001008
75 0.001996
70 0.002993
77 0.002998
100 0.00498
107 0.004016
108 0.005992
118 0.00699
140 0.004995
151 0.003981
170 0.002993
181 0.004981
191 0.002175
200 0.00399
213 0.001999
229 0.003979
222 0.003993
179 0.003988
117 0.001994
114 0.0
124 0.002
145 0.000998
154 0.000883
152 0.003
151 0.002993
162 0.004976
170 0.004956
186 0.005003
193 0.00598
201 0.006027
216 0.004988
228 0.003961
225 0.00399
150 0.00398
107 0.003988
90 0.002001
98 0.003984
111 0.000993
120 0.002992
119 0.002991
117 0.003003
129 0.001002
143 0.002987
156 0.003991
169 0.005984
180 0.007024
191 0.007024
208 0.005993
218 0.006967
201 0.006979
132 0.006007
76 0.006976
74 0.005979
82 0.003982
97 0.002996
100 0.001996
99 0.001963
105 0.002992
119 0.0
132 0.002947
145 0.0
154 0.002027
167 0.003
175 0.003005
185 0.002016
195 0.002027
190 0.003041
127 0.003996
70 0.006008
67 0.006949
72 0.007975
86 0.005986
93 0.007129
90 0.00399
84 0.002992
88 0.001996
100 0.002988
109 0.001998
116 0.0
125 0.0
139 0.002027
149 0.0
160 0.001992
175 0.000966
170 0.002002
94 0.001991
57 0.002026
49 0.000967
59 0.001996
73 0.002994
76 0.002989
74 0.003989
76 0.004987
88 0.007014
101 0.004987
114 0.006982
130 0.004988
145 0.003025
152 0.001993
165 0.0
183 0.0
191 0.0
184 0.0
108 0.000995
76 0.001014
76 0.003035
91 0.004944
111 0.004948
115 0.005044
114 0.006979
119 0.007027
125 0.007974
144 0.003994
154 0.00598
171 0.002942
177 0.004986
184 0.002045
193 0.002989
199 0.001996
186 0.002003
98 0.001994
61 0.003016
52 0.001982
61 0.001994
80 0.0
87 0.002045
85 0.000997
86 0.002038
95 0.002029
104 0.002037
114 0.001996
114 0.002013
119 0.002019
124 0.002043
130 0.002992
142 0.002958
162 0.002859
149 0.002992
54 0.002982
10 0.003988
10 0.005024
22 0.005024
36 0.005029
50 0.005864
53 0.005979
57 0.004987
70 0.004003
85 0.003947
98 0.002031
114 0.001999
121 0.004022
133 0.001987
143 0.001957
159 0.0
168 0.001995
177 0.002988
123 0.003994
37 0.004956
20 0.00602
28 0.006849
37 0.003993
49 0.003988
61 0.001982
63 0.0
70 0.000956
86 0.000965
100 0.001972
111 0.0
120 0.0
134 0.001964
142 0.002027
156 0.002962
170 0.005955
180 0.005986
183 0.005988
129 0.00798
56 0.004982
28 0.005984
35 0.004004
46 0.003984
66 0.002963
69 0.0
72 0.003039
78 0.00096
96 0.0
104 0.000998
127 0.00303
148 0.003998
157 0.003973
167 0.003908
179 0.005948
188 0.007012
207 0.004987
186 0.002992
130 0.002957
75 0.00096
75 0.003023
89 0.001024
105 0.003017
113 0.003
111 0.003039
113 0.003027
120 0.003022
139 0.0
152 0.000998
167 0.002006
177 0.003046
195 0.003979
205 0.002966
217 0.00406
225 0.003981
198 0.006037
115 0.005979
67 0.003988
66 0.002961
81 0.002998
90 0.001992
90 0.001995
94 0.000967
100 0.002975
112 0.000994
130 0.001965
153 0.000998
160 0.00182
173 0.000997
183 0.000998
194 0.000999
204 0.002003
205 0.002993
145 0.003989
55 0.005931
44 0.005985
53 0.004975
70 0.003984
79 0.005073
80 0.003995
78 0.003988
85 0.003992
100 0.00398
115 0.003992
132 0.003056
147 0.004016
157 0.001995
167 0.002021
186 0.003027
191 0.002033
169 0.001002
96 0.002971
41 0.003031
41 0.004049
55 0.003991
66 0.002955
76 0.003993
70 0.004983
73 0.006035
87 0.005947
109 0.00599
123 0.005988
137 0.006974
146 0.005975
166 0.004973
181 0.005022
188 0.003974
146 0.001958
77 0.004019
51 0.002
57 0.002004
78 0.0
92 0.0
95 0.0
92 0.00399
100 0.004959
117 0.003985
139 0.006021
152 0.006939
164 0.006951
180 0.003992
190 0.007011
201 0.004977
196 0.003992
150 0.003976
49 0.00412
28 0.004036
33 0.003028
53 0.002967
61 0.001998
65 0.001999
65 0.002993
72 0.000997
84 0.001995
101 0.0
110 0.0
126 0.0
132 0.001995
146 0.002004
155 0.001996
164 0.003985
139 0.005023
43 0.006983
11 0.004993
12 0.006811
23 0.005988
38 0.007983
47 0.004986
47 0.003987
52 0.002998
69 0.002992
87 0.002003
98 0.002041
117 0.00298
129 0.004031
140 0.00101
151 0.003027
164 0.0
176 0.002952
145 0.00304
84 0.000992
20 0.003082
21 0.0
36 0.002005
54 0.000997
64 0.001995
64 0.001996
71 0.002014
79 0.002995
97 0.004015
117 0.004988
127 0.005953
144 0.005984
161 0.006982
173 0.006979
181 0.005142
198 0.004982
183 0.004944
93 0.004987
55 0.004985
54 0.003991
72 0.004985
93 0.003005
99 0.003024
97 0.0
102 0.002004
116 0.001995
132 0.000967
156 0.002989
166 0.004005
184 0.004816
198 0.004985
208 0.004986
216 0.005986
197 0.006019
111 0.004973
46 0.004985
41 0.004025
57 0.00399
73 0.005983
80 0.002994
77 0.006021
75 0.00398
87 0.005985
107 0.003966
121 0.004022
139 0.004032
155 0.001061
166 0.003025
180 0.002015
195 0.000997
198 0.000995
112 0.0
53 0.0
19 0.0
29 0.000955
39 0.00102
52 0.000998
55 0.000996
54 0.001995
65 0.00201
83 0.003028
94 0.003991
112 0.005997
126 0.006987
134 0.004987
148 0.007015
165 0.007971
170 0.008001
168 0.006052
121 0.005981
28 0.006019
12 0.003024
17 0.005982
34 0.002977
49 0.001995
50 0.003964
53 0.002998
59 0.001992
78 0.000964
93 0.0
102 0.0
116 0.0
131 0.001961
138 0.003022
155 0.002952
170 0.004022
176 0.005021
114 0.005983
44 0.006016
25 0.006979
31 0.006984
49 0.006982
57 0.00695
62 0.006984
62 0.007974
71 0.005987
88 0.003979
100 0.006022
118 0.002928
132 0.003029
140 0.003991
153 0.00397
160 0.001988
185 0.00299
204 0.001989
173 0.003009
100 0.002002
86 0.001996
95 0.0
114 0.0
131 0.0
129 0.001997
129 0.002987
140 0.00399
162 0.004994
180 0.005983
201 0.006019
210 0.007013
214 0.007971
224 0.004987
233 0.006953
241 0.003993
177 0.0
119 0.003004
77 0.002002
74 0.002011
84 0.000958
95 0.002001
93 0.0
90 0.001003
91 0.000948
96 0.001005
100 0.000998
116 0.003952
125 0.004032
140 0.004988
154 0.005962
163 0.006996
178 0.006986
174 0.006979
124 0.007013
57 0.005983
29 0.003032
28 0.005035
35 0.003013
56 0.001028
64 0.002996
67 0.002037
79 0.000998
87 0.0
107 0.002038
124 0.002997
134 0.003989
149 0.003843
162 0.003941
170 0.003957
192 0.00399
203 0.003993
185 0.005021
113 0.004987
77 0.005942
71 0.006983
80 0.007012
87 0.007012
98 0.006984
104 0.003034
111 0.005949
128 0.002026
140 0.00402
162 0.001947
181 0.0
192 0.000968
204 0.0
214 0.002026
220 0.000998
239 0.002027
196 0.002039
199 0.002016
172 0.002036
145 0.001995
129 0.002862
131 0.003995
139 0.004025
145 0.003939
147 0.004026
147 0.003992
150 0.003825
157 0.00498
163 0.005986
170 0.005984
177 0.002998
181 0.002953
188 0.001992
194 0.003023
198 0.000993
207 0.0
203 0.0
163 0.0
142 0.003029
140 0.001021
144 0.002
153 0.002037
155 0.002992
154 0.002988
153 0.002992
156 0.003038
162 0.005035
169 0.004989
172 0.004997
178 0.005033
181 0.004813
187 0.005998
195 0.005981
198 0.006015
184 0.005975
136 0.005988
125 0.005985
117 0.00499
118 0.004982
125 0.004983
130 0.002994
130 0.003031
131 0.001002
136 0.002046
143 0.000978
148 0.002224
167 0.003029
171 0.003034
183 0.0
192 0.002027
200 0.001995
207 0.002026
213 0.001963
200 0.001963
127 0.001995
99 0.001995
90 0.001995
94 0.001995
100 0.003019
108 0.003961
111 0.003991
112 0.004032
123 0.003954
130 0.003983
145 0.004994
158 0.004953
165 0.003957
178 0.004981
184 0.006988
192 0.004957
196 0.006983
203 0.005999
201 0.004975
147 0.00303
85 0.0
75 0.003023
76 0.0
84 0.002995
94 0.0
97 0.0
98 0.000996
104 0.0
119 0.001995
127 0.002008
145 0.001992
157 0.002994
165 0.002964
174 0.002981
176 0.002993
187 0.003992
197 0.004985
195 0.005983
160 0.00602
100 0.007977
87 0.005988
88 0.007979
101 0.00798
108 0.006977
113 0.006022
111 0.002999
115 0.003989
130 0.002995
139 0.005056
155 0.000949
164 0.0
171 0.0
178 0.0
187 0.001995
193 0.002001
185 0.002017
122 0.003954
93 0.002992
84 0.002992
97 0.004988
107 0.005989
113 0.006934
113 0.007973
111 0.005932
120 0.00795
134 0.005985
144 0.005983
158 0.004953
167 0.0
172 0.001995
180 0.0
187 0.000998
191 0.000998
151 0.000999
78 0.001993
60 0.002959
57 0.002991
60 0.003997
73 0.004987
79 0.00496
79 0.005965
84 0.005938
93 0.007981
107 0.00499
122 0.006983
137 0.004987
142 0.003989
151 0.003028
159 0.002977
165 0.003041
169 0.0
131 0.000994
79 0.001003
34 0.0
31 0.0
37 0.0
50 0.000997
54 0.0
57 0.0
62 0.0
70 0.000998
86 0.000957
98 0.001002
114 0.002924
128 0.002998
135 0.002966
147 0.002997
154 0.004024
161 0.003989
155 0.00498
93 0.005941
56 0.006017
39 0.005949
43 0.005991
52 0.007025
61 0.005946
63 0.007009
65 0.005028
74 0.005002
82 0.004985
100 0.004995
110 0.003987
124 0.003991
133 0.003001
140 0.00299
148 0.003009
155 0.004018
158 0.002988
127 0.004
62 0.002965
42 0.002993
45 0.002041
51 0.003029
65 0.00299
67 0.0
67 0.003003
74 0.000958
89 0.001006
98 0.001035
107 0.001995
116 0.001996
129 0.001976
138 0.00203
143 0.002992
149 0.002966
119 0.003992
79 0.004018
50 0.003984
51 0.004024
65 0.004997
80 0.00598
81 0.005989
79 0.005956
83 0.007012
94 0.004988
108 0.007013
121 0.005985
126 0.005938
139 0.00598
144 0.00599
152 0.006023
154 0.003029
129 0.003997
62 0.003007
44 0.001983
44 0.002002
52 0.003026
64 0.0
63 0.00096
64 0.0
74 0.000957
84 0.000997
102 0.001976
109 0.001847
124 0.002016
135 0.002005
143 0.002031
153 0.001991
155 0.002011
120 0.001996
66 0.00299
42 0.002909
44 0.003955
52 0.004952
61 0.005018
67 0.005018
69 0.004986
73 0.00602
86 0.004996
99 0.004994
107 0.004987
122 0.00399
129 0.004956
138 0.005985
148 0.003987
155 0.003989
141 0.002992
86 0.003961
55 0.000963
51 0.003044
62 0.00396
71 0.000998
80 0.0
82 0.002028
86 0.0
97 0.0
107 0.000968
119 0.002044
133 0.001996
140 0.003004
152 0.004995
163 0.004972
170 0.004983
180 0.005006
181 0.004986
127 0.004893
81 0.005025
76 0.006964
81 0.005986
89 0.007017
97 0.004993
99 0.006983
99 0.007071
104 0.006976
117 0.007015
127 0.007968
136 0.006992
146 0.003961
151 0.005004
161 0.002985
171 0.000965
182 0.0
186 0.0
145 0.0
109 0.0
92 0.0
96 0.0
110 0.0
119 0.0
118 0.000997
118 0.00196
126 0.003982
136 0.004015
151 0.005985
160 0.006985
170 0.006983
176 0.007976
187 0.007013
193 0.007121
204 0.005021
177 0.001995
135 0.004982
96 0.00299
95 0.0
100 0.00099
109 0.0
113 0.000957
112 0.001011
115 0.001038
125 0.002993
133 0.002992
146 0.003983
159 0.004989
166 0.004987
179 0.006017
183 0.005937
192 0.004983
197 0.00796
174 0.004971
108 0.007974
89 0.00699
89 0.005984
94 0.006026
101 0.005985
107 0.003957
107 0.002995
110 0.00399
122 0.003005
135 0.002994
143 0.002992
154 0.003002
164 0.0
171 0.0
180 0.0
191 0.001009
193 0.001993
150 0.003991
95 0.003959
89 0.004994
92 0.006023
99 0.005983
107 0.005014
111 0.007981
110 0.005001
116 0.00796
129 0.007974
137 0.007019
148 0.007977
158 0.004996
165 0.005978
176 0.002991
182 0.004986
191 0.002006
201 0.002026
190 0.002029
127 0.001995
102 0.002994
104 0.002962
111 0.00294
118 0.002997
120 0.00203
117 0.00399
119 0.002992
127 0.002003
138 0.002994
145 0.003022
156 0.002986
163 0.003043
173 0.002989
178 0.0
187 0.000997
194 0.001018
167 0.000998
128 0.000997
100 0.002015
101 0.001966
113 0.002001
126 0.002002
127 0.002012
127 0.002992
132 0.004987
142 0.005941
151 0.005984
165 0.005938
170 0.00497
179 0.004957
187 0.006016
192 0.006016
201 0.005983
202 0.005987
155 0.005984
101 0.002993
95 0.004984
100 0.0
111 0.000951
115 0.0
115 0.0
116 0.00101
121 0.000974
134 0.0
142 0.0
155 0.0
165 0.002994
173 0.000996
181 0.002997
190 0.001994
195 0.000998
184 0.002991
130 0.005035
93 0.00599
87 0.004996
93 0.004955
100 0.007008
109 0.005982
108 0.006987
110 0.006978
116 0.004969
127 0.007977
139 0.002995
154 0.002977
162 0.0
171 0.002031
181 0.0
185 0.0
194 0.0
192 0.000968
157 0.0
96 0.0
86 0.0
90 0.0
100 0.002
106 0.002012
105 0.000992
104 0.002017
110 0.003779
119 0.003992
132 0.003993
142 0.004025
154 0.00393
159 0.003975
167 0.003991
174 0.004986
179 0.005988
180 0.005964
157 0.005988
106 0.004986
84 0.002987
91 0.002998
100 0.0
111 0.0
111 0.001004
110 0.001006
116 0.002001
130 0.003997
141 0.004986
154 0.004947
162 0.006015
167 0.006002
176 0.007039
180 0.006984
186 0.006127
184 0.004991
128 0.002942
93 0.00305
79 0.0
88 0.0
96 0.0
104 0.00095
103 0.0
103 0.0
112 0.0
120 0.0
138 0.0
149 0.0
154 0.0
164 0.0
172 0.002043
176 0.002983
182 0.003987
151 0.006106
108 0.005949
76 0.006986
76 0.005989
82 0.006105
95 0.005984
100 0.002937
100 0.005983
104 0.003005
111 0.004958
126 0.003014
141 0.001972
148 0.002992
159 0.0
168 0.0
174 0.0
182 0.000996
176 0.0
147 0.002012
87 0.001968
78 0.002946
84 0.003995
95 0.003951
102 0.005018
103 0.004841
103 0.006979
109 0.007014
116 0.006981
131 0.007003
138 0.006018
149 0.006138
158 0.002985
162 0.006016
169 0.002992
180 0.002991
172 0.003007
115 0.003033
88 0.002989
81 0.003003
88 0.001996
101 0.000997
106 0.000955
104 0.000997
104 0.002992
115 0.002992
128 0.003044
139 0.002992
148 0.003011
157 0.004987
164 0.004989
172 0.00497
178 0.004978
167 0.004988
107 0.004987
87 0.005037
89 0.005979
93 0.005985
106 0.005946
110 0.004001
108 0.002954
109 0.00299
120 0.002992
129 0.002993
142 0.002988
151 0.002994
158 0.0
166 0.004035
174 0.0
178 0.0
160 0.003006
105 0.003991
71 0.005983
72 0.007011
80 0.007821
90 0.00399
93 0.006021
92 0.002996
95 0.0
102 0.0
114 0.001996
126 0.00294
133 0.001993
143 0.003985
152 0.005979
157 0.005983
167 0.005982
162 0.005988
129 0.005974
72 0.005986
62 0.007971
66 0.003989
76 0.006018
89 0.005019
89 0.003994
86 0.003024
92 0.0
101 0.001991
114 0.0
127 0.001033
133 0.001002
146 0.003
157 0.003949
161 0.004029
171 0.004953
165 0.004976
106 0.004996
75 0.00597
73 0.005947
83 0.003989
97 0.002974
101 0.00402
101 0.002993
104 0.002989
115 0.002024
125 0.003001
141 0.0
148 0.002037
159 0.0
167 0.0
175 0.001983
183 0.001995
166 0.004027
121 0.003986
70 0.005042
68 0.005984
72 0.005942
85 0.00499
90 0.005981
89 0.005985
91 0.004988
99 0.004986
112 0.00593
127 0.003989
136 0.004988
147 0.00299
155 0.003995
163 0.0
172 0.003033
172 0.003037
145 0.003003
77 0.003022
63 0.001994
67 0.003024
77 0.000952
84 0.002052
88 0.0
88 0.0
91 0.0
105 0.001045
121 0.001996
130 0.003977
140 0.004987
151 0.005987
155 0.005987
164 0.004972
174 0.004019
177 0.003
126 0.002993
77 0.005015
66 0.002968
70 0.002988
80 0.000999
84 0.002031
87 0.000978
86 0.001995
94 0.001931
104 0.004035
117 0.003787
125 0.003957
136 0.004991
143 0.005955
150 0.005018
160 0.004992
166 0.004953
167 0.003949
110 0.00299
74 0.002993
72 0.002984
79 0.00204
89 0.000957
96 0.0
94 0.001996
98 0.004021
106 0.005985
116 0.007042
129 0.006982
135 0.006986
147 0.007018
158 0.002988
164 0.00499
175 0.002988
177 0.003
154 0.0
98 0.0
89 0.0
94 0.0
106 0.000999
114 0.0
113 0.000998
111 0.001994
114 0.001988
131 0.002008
148 0.002024
156 0.001995
164 0.000978
169 0.003992
177 0.003956
184 0.003983
172 0.004003
124 0.005022
92 0.00698
92 0.007935
97 0.006977
103 0.003001
110 0.005126
107 0.002991
112 0.002963
118 0.003995
132 0.002938
140 0.002987
151 0.002992
163 0.000994
168 0.0
179 0.000965
180 0.000997
147 0.000956
94 0.001001
76 0.000955
80 0.001028
89 0.001016
97 0.002959
100 0.002997
100 0.004945
107 0.005982
112 0.007974
124 0.007014
139 0.003993
145 0.006969
156 0.003976
162 0.007014
172 0.003987
181 0.00203
173 0.002045
109 0.003001
73 0.003968
74 0.00299
82 0.003009
89 0.00299
95 0.002985
94 0.004998
95 0.002987
104 0.004016
116 0.003017
123 0.003016
131 0.004026
142 0.001003
151 0.0
160 0.000997
167 0.001997
175 0.001994
156 0.001994
116 0.002027
76 0.002976
77 0.003964
82 0.005986
97 0.004977
99 0.004961
98 0.005952
105 0.005989
112 0.006065
124 0.006009
135 0.005991
143 0.006015
154 0.005982
167 0.007999
174 0.003986
183 0.007017
163 0.002991
116 0.006975
92 0.00498
95 0.004025
109 0.002994
117 0.0
116 0.003028
112 0.000959
121 0.0
129 0.001027
142 0.0
149 0.0
159 0.000998
165 0.0
172 0.0
181 0.0
152 0.002048
106 0.002037
71 0.002985
73 0.004992
76 0.003995
89 0.004946
91 0.006035
92 0.006013
96 0.005947
105 0.005984
117 0.005984
128 0.006991
135 0.007978
145 0.00798
156 0.004987
165 0.007976
172 0.004019
144 0.007947
94 0.003957
73 0.00302
75 0.003974
81 0.001991
92 0.0
93 0.002985
94 0.000963
98 0.000953
103 0.002985
113 0.003965
120 0.004036
132 0.003035
142 0.001029
151 0.001006
159 0.000999
174 0.000998
170 0.001833
120 0.003024
88 0.003932
89 0.005021
96 0.005944
108 0.005028
113 0.004974
112 0.005016
113 0.004955
123 0.00602
136 0.00499
143 0.003989
155 0.002979
161 0.00602
170 0.00298
178 0.006019
187 0.002994
176 0.006017
123 0.003956
108 0.003017
109 0.003024
121 0.001995
132 0.003036
134 0.003025
131 0.001989
134 0.003995
145 0.004954
157 0.004949
166 0.005016
176 0.004935
185 0.005931
191 0.005942
203 0.006978
202 0.005952
166 0.004136
111 0.00499
104 0.003942
107 0.005017
112 0.006985
120 0.003031
121 0.003987
122 0.002982
124 0.004025
135 0.003026
146 0.0
153 0.002995
162 0.00096
168 0.003028
179 0.0
187 0.0
192 0.002032
157 0.001961
106 0.001996
98 0.001997
102 0.002989
112 0.002952
118 0.002958
120 0.003025
118 0.002991
127 0.003026
139 0.004993
146 0.004995
154 0.004986
162 0.006977
167 0.004942
175 0.006992
184 0.00698
189 0.006977
189 0.006981
138 0.0
108 0.004983
97 0.002965
100 0.00502
107 0.000979
111 0.0
114 0.0
115 0.0
122 0.0
128 0.0
141 0.0
151 0.0
158 0.0
166 0.0
171 0.000997
181 0.001959
191 0.003026
178 0.002992
124 0.002992
104 0.002992
106 0.003854
114 0.00395
126 0.003936
127 0.004047
124 0.006015
127 0.005955
138 0.006029
150 0.005996
155 0.005976
164 0.003003
175 0.002993
180 0.003
190 0.004964
205 0.000976
182 0.002993
96 0.000973
84 0.0
89 0.000999
100 0.002978
109 0.0
