96 0.032912
96 0.00093
90 0.0
98 0.0
107 0.0
113 0.0
117 0.0
120 0.0
122 0.0
123 0.0
113 0.0
84 0.0
63 0.0
69 0.0
85 0.0
107 0.0
113 0.001002
110 0.0
95 0.0
90 0.0
62 0.000966
79 0.000949
97 0.0
107 0.0
112 0.0
114 0.0
117 0.0
97 0.000969
36 0.0
61 0.0
66 0.0
82 0.0
96 0.000997
104 0.000998
106 0.0
100 0.000956
94 0.000997
90 0.0
95 0.0
108 0.0
114 0.0
117 0.0
118 0.0
119 0.0
122 0.000998
124 0.000998
100 0.0
69 0.0
58 0.0
66 0.000998
82 0.000969
100 0.000998
104 0.0
102 0.0
93 0.0
90 0.0
94 0.000977
100 0.000998
110 0.0
115 0.0
117 0.0
118 0.000994
121 0.000992
125 0.000949
128 0.001961
100 0.000997
73 0.000997
65 0.000996
75 0.001992
93 0.000997
108 0.000998
112 0.0
113 0.001954
106 0.000996
99 0.000999
104 0.000987
111 0.000998
118 0.001971
125 0.000999
127 0.000999
129 0.000998
131 0.001996
134 0.001965
136 0.000986
121 0.000998
91 0.000997
78 0.001991
92 0.001008
109 0.001996
120 0.001995
126 0.000996
123 0.001995
113 0.002002
91 0.001995
96 0.001995
108 0.002031
122 0.001957
134 0.001002
137 0.001995
142 0.000997
147 0.002033
146 0.001951
92 0.001996
60 0.001995
61 0.001996
82 0.000998
108 0.002993
125 0.001981
135 0.001988
133 0.001995
114 0.001995
107 0.001994
121 0.001603
134 0.00296
147 0.001959
152 0.000993
154 0.002051
155 0.002991
158 0.002992
166 0.001996
144 0.001995
89 0.001996
59 0.003033
80 0.002042
108 0.003055
125 0.003038
134 0.001996
129 0.001995
117 0.002034
109 0.002027
112 0.001995
123 0.003002
135 0.002027
144 0.002991
153 0.00302
155 0.00203
157 0.002944
160 0.002992
168 0.001996
151 0.002021
96 0.002991
61 0.003041
63 0.00286
95 0.002027
120 0.002993
131 0.00203
135 0.003041
121 0.002967
111 0.003031
112 0.003991
125 0.002039
134 0.003031
144 0.003989
154 0.002994
157 0.002993
157 0.002993
157 0.002992
163 0.001987
168 0.002992
171 0.002996
131 0.003026
66 0.002992
61 0.004024
81 0.003024
118 0.002994
131 0.003993
140 0.003999
134 0.00399
113 0.002992
106 0.003025
110 0.002993
131 0.002963
143 0.003992
150 0.00399
150 0.003999
152 0.002992
156 0.002992
160 0.003041
155 0.00399
114 0.004034
64 0.003026
65 0.00303
88 0.003028
129 0.003023
142 0.00399
145 0.003988
130 0.004987
111 0.003991
110 0.003989
118 0.004028
136 0.003989
148 0.00399
156 0.004987
158 0.002992
160 0.003956
166 0.003951
161 0.00396
110 0.003991
67 0.003985
61 0.004023
81 0.004987
109 0.003949
133 0.004988
141 0.003989
132 0.00399
117 0.002984
111 0.004025
123 0.004024
135 0.004023
146 0.004987
153 0.005019
158 0.004026
159 0.003989
163 0.004988
169 0.004989
158 0.004986
108 0.004979
66 0.004037
62 0.003989
102 0.004987
127 0.004985
141 0.004987
141 0.004987
122 0.004025
113 0.004017
114 0.00503
125 0.004987
137 0.005986
152 0.004027
157 0.004041
160 0.004934
164 0.00502
168 0.004945
162 0.004939
114 0.004988
65 0.003996
64 0.005031
94 0.00498
121 0.006021
138 0.005985
147 0.005985
135 0.005022
115 0.005021
109 0.004988
121 0.005008
136 0.004996
146 0.005984
152 0.005985
154 0.005036
157 0.00602
160 0.004997
137 0.005033
88 0.004987
63 0.005984
70 0.005985
122 0.004981
138 0.005022
146 0.005037
138 0.005984
118 0.006001
108 0.005985
113 0.005984
130 0.004987
143 0.00598
152 0.005968
156 0.00501
158 0.005018
158 0.006011
122 0.00604
75 0.005985
57 0.007015
73 0.005948
101 0.007025
123 0.006015
135 0.005988
135 0.005984
121 0.005983
109 0.006018
108 0.006014
125 0.005984
137 0.005989
147 0.005015
151 0.006983
154 0.006981
158 0.005991
160 0.005985
140 0.005986
75 0.005982
57 0.005984
70 0.006982
106 0.006019
128 0.006023
131 0.006038
123 0.005984
112 0.006979
108 0.006981
116 0.005984
128 0.007011
136 0.006941
145 0.006981
149 0.006981
152 0.007018
156 0.005993
160 0.007028
131 0.006985
67 0.007056
59 0.006982
77 0.006982
104 0.00703
124 0.006982
131 0.006983
128 0.006982
115 0.007017
104 0.007016
107 0.006007
127 0.006981
139 0.006987
145 0.007019
146 0.007979
148 0.00798
150 0.006983
152 0.006981
143 0.006982
115 0.006981
61 0.006941
59 0.006948
78 0.006983
117 0.007981
130 0.006982
127 0.006986
112 0.006982
98 0.00795
99 0.007963
114 0.006982
126 0.00698
135 0.006986
139 0.007978
140 0.007935
145 0.008009
149 0.007979
145 0.00705
100 0.007018
59 0.007014
56 0.007979
85 0.006998
117 0.007028
127 0.007027
130 0.007015
124 0.007937
105 0.007975
102 0.007395
117 0.006985
133 0.006982
141 0.006981
145 0.006986
146 0.006985
145 0.007031
151 0.007864
157 0.007978
161 0.007011
158 0.007978
92 0.007054
50 0.006944
69 0.007016
105 0.007018
119 0.007024
124 0.007426
121 0.007923
111 0.007934
101 0.006997
106 0.006986
116 0.007012
127 0.006364
137 0.007697
146 0.006024
150 0.007023
153 0.007015
156 0.007014
163 0.007017
167 0.007022
156 0.006018
82 0.00798
68 0.007976
62 0.007025
91 0.006952
117 0.006985
132 0.006981
130 0.006986
115 0.006985
106 0.007019
108 0.006982
117 0.007014
131 0.006031
144 0.005943
149 0.006202
151 0.005985
152 0.006981
156 0.006017
163 0.006057
136 0.005984
72 0.007015
59 0.006051
75 0.006971
104 0.007035
126 0.00703
139 0.006026
139 0.007023
122 0.006027
108 0.007017
107 0.006021
118 0.006102
142 0.006022
152 0.006022
156 0.006031
158 0.006025
162 0.005985
167 0.006017
162 0.006033
99 0.005983
65 0.005984
66 0.005984
90 0.005984
119 0.006986
144 0.005843
146 0.005414
128 0.006067
116 0.006021
116 0.00502
126 0.005018
140 0.00498
156 0.006988
163 0.00601
166 0.005951
168 0.006024
170 0.005004
178 0.006035
174 0.005985
102 0.005985
65 0.006023
65 0.006028
89 0.005985
118 0.005986
138 0.006019
143 0.005984
137 0.005984
123 0.006023
115 0.006014
125 0.005207
137 0.005033
153 0.00603
160 0.004964
162 0.004974
164 0.004991
167 0.004987
171 0.004991
176 0.004987
183 0.005028
160 0.006032
97 0.00498
61 0.005445
82 0.00499
124 0.004991
140 0.00504
146 0.005877
145 0.005008
130 0.004982
116 0.005031
119 0.005019
130 0.005019
143 0.00502
155 0.004986
164 0.005792
166 0.00399
169 0.005019
174 0.004989
179 0.005018
165 0.004841
109 0.005019
67 0.004957
76 0.005018
104 0.004989
133 0.004987
149 0.00502
153 0.004066
135 0.005019
114 0.004984
116 0.004988
129 0.003988
143 0.004988
153 0.004987
162 0.004994
164 0.004274
165 0.005039
168 0.004909
171 0.00417
103 0.003983
67 0.004063
67 0.00399
102 0.003984
129 0.003996
146 0.004004
155 0.00399
146 0.00399
117 0.003989
110 0.004023
118 0.004026
133 0.004029
155 0.005025
160 0.005039
162 0.004037
165 0.00402
169 0.00402
163 0.00399
115 0.004045
68 0.003979
61 0.003994
86 0.00399
115 0.004026
134 0.003791
145 0.002992
130 0.00299
113 0.002992
110 0.002993
118 0.003989
134 0.003988
147 0.003989
154 0.00399
157 0.004024
160 0.00399
161 0.003992
165 0.003991
164 0.002963
110 0.003062
61 0.003479
55 0.004048
81 0.003023
111 0.002991
127 0.003959
133 0.003991
126 0.002993
110 0.00301
101 0.003001
105 0.002993
126 0.002994
138 0.002995
147 0.003037
150 0.003989
152 0.002991
154 0.002993
158 0.002993
164 0.002958
162 0.002993
110 0.003523
59 0.002992
50 0.00399
89 0.003989
116 0.002992
128 0.002991
132 0.00287
120 0.002992
104 0.002992
99 0.002993
107 0.002992
125 0.002993
136 0.003295
146 0.001995
151 0.003029
153 0.003048
155 0.003025
159 0.002996
168 0.002995
174 0.002993
163 0.003029
103 0.002992
56 0.002993
57 0.002992
85 0.003025
116 0.002992
133 0.002993
137 0.002034
120 0.001994
103 0.001996
100 0.002029
113 0.001995
127 0.001993
140 0.002045
148 0.001995
152 0.001996
153 0.001994
156 0.001994
159 0.001995
169 0.002963
155 0.002029
101 0.002002
61 0.001031
63 0.002045
90 0.001995
120 0.001995
138 0.002055
147 0.001995
130 0.001994
106 0.001995
97 0.002048
115 0.000996
133 0.001015
146 0.000945
152 0.002008
155 0.002033
160 0.001995
164 0.002001
165 0.001995
134 0.002001
70 0.001995
58 0.001995
76 0.001983
122 0.001012
140 0.000997
150 0.000997
141 0.001031
113 0.001032
106 0.000998
116 0.000998
131 0.000997
146 0.001995
159 0.001995
162 0.001995
163 0.000997
169 0.001994
173 0.000997
140 0.001043
80 0.001033
52 0.000998
68 0.000998
96 0.001001
121 0.001002
134 0.000987
136 0.000995
121 0.000965
107 0.001003
110 0.000997
124 0.001004
138 0.001003
151 0.0
159 0.000998
160 0.001965
163 0.001018
167 0.001
174 0.000997
168 0.000997
111 0.001005
60 0.000997
62 0.001029
91 0.000998
116 0.000998
130 0.0
135 0.000998
122 0.000996
109 0.000997
105 0.0
112 0.0
131 0.0
145 0.001004
154 0.000997
160 0.001053
161 0.0
166 0.0
173 0.0
179 0.0
153 0.0
91 0.0
56 0.000997
61 0.000993
89 0.0
124 0.000998
138 0.0
138 0.0
121 0.000978
109 0.000997
110 0.000999
121 0.0
141 0.000998
153 0.0
159 0.0
160 0.0
162 0.0
167 0.0
173 0.0
148 0.0
90 0.0
60 0.0
66 0.0
91 0.0
127 0.000998
143 0.000967
147 0.0
125 0.0
106 0.0
103 0.0
114 0.0
141 0.000998
153 0.001013
157 0.000963
160 0.000997
165 0.0
166 0.000962
144 0.000997
75 0.0
56 0.0
67 0.0
96 0.0
122 0.000991
144 0.001042
138 0.000999
113 0.0
106 0.0
112 0.0
127 0.0
143 0.001042
157 0.0
159 0.0
162 0.0
166 0.000998
171 0.000998
135 0.000998
76 0.000999
51 0.000998
69 0.0
97 0.0
118 0.001027
129 0.000998
129 0.0
116 0.000999
105 0.0
107 0.001989
117 0.000999
141 0.000996
151 0.00199
157 0.0
159 0.001028
162 0.001003
169 0.001
175 0.000998
139 0.00095
79 0.000998
53 0.000999
62 0.002027
89 0.000998
127 0.001046
138 0.002043
133 0.001021
118 0.001028
110 0.001008
114 0.001036
126 0.001995
143 0.001997
161 0.000996
165 0.000999
165 0.000997
165 0.001048
171 0.000998
181 0.001966
182 0.001998
116 0.001046
66 0.000958
58 0.001028
78 0.001973
108 0.001995
138 0.000998
149 0.00101
142 0.000997
122 0.001995
107 0.000995
117 0.002008
132 0.001996
151 0.002048
159 0.000995
161 0.00104
163 0.001995
167 0.002001
175 0.000997
162 0.002018
109 0.002027
68 0.001959
76 0.000996
104 0.002993
128 0.003029
150 0.000996
152 0.001996
130 0.000996
113 0.002
110 0.002994
124 0.000997
139 0.001985
153 0.002038
159 0.003037
162 0.000998
166 0.002035
171 0.002993
150 0.000992
91 0.001023
57 0.001033
61 0.001992
86 0.00296
121 0.002003
136 0.002024
144 0.002049
134 0.002992
110 0.002031
111 0.003027
122 0.003049
138 0.002962
154 0.001043
160 0.001986
163 0.002955
165 0.001995
169 0.003026
177 0.002022
158 0.002026
96 0.002993
54 0.001997
73 0.002993
102 0.002994
129 0.001995
139 0.001994
138 0.002001
122 0.003998
111 0.002992
113 0.001985
124 0.00203
138 0.002992
151 0.00399
161 0.001993
162 0.002993
165 0.004005
171 0.003025
179 0.002987
180 0.002967
136 0.003947
75 0.00399
55 0.002991
76 0.001987
106 0.002004
130 0.003028
146 0.002041
141 0.003014
117 0.003021
106 0.002992
115 0.002989
129 0.003023
145 0.003024
156 0.003989
162 0.00399
163 0.001986
164 0.00299
168 0.002991
178 0.002992
174 0.002991
121 0.00399
66 0.003994
57 0.002967
81 0.00303
113 0.003025
137 0.003989
151 0.004024
140 0.002994
115 0.002036
101 0.004047
113 0.00403
126 0.004058
147 0.003988
157 0.003989
161 0.004024
161 0.002987
165 0.003024
171 0.003989
161 0.00399
88 0.003026
55 0.00402
58 0.003983
103 0.004025
122 0.004042
146 0.004027
151 0.004044
122 0.003945
105 0.003002
106 0.003929
119 0.003991
138 0.003991
157 0.00299
164 0.003988
165 0.002988
166 0.003989
171 0.003977
179 0.004987
180 0.005008
105 0.002991
52 0.004024
44 0.003976
65 0.004988
96 0.004991
129 0.004019
139 0.00402
135 0.00404
104 0.003989
98 0.003937
107 0.004992
122 0.004987
144 0.004024
154 0.00398
159 0.004013
160 0.005021
162 0.005951
168 0.004963
174 0.00399
180 0.003982
101 0.004042
50 0.003995
42 0.005982
63 0.005984
104 0.004
126 0.004987
138 0.004986
134 0.00598
114 0.005986
100 0.004993
101 0.005029
116 0.004005
142 0.003959
153 0.004955
158 0.005026
159 0.006022
161 0.006011
165 0.004019
171 0.005022
178 0.004988
186 0.005984
176 0.006025
87 0.00502
46 0.00499
64 0.004994
96 0.004987
124 0.005023
141 0.006016
145 0.006014
119 0.004987
101 0.004984
99 0.005018
109 0.006023
126 0.005984
148 0.005011
157 0.005018
161 0.005999
162 0.005034
165 0.005031
172 0.005984
178 0.005985
146 0.004983
83 0.004991
51 0.005044
57 0.005981
83 0.007033
125 0.006019
146 0.005929
146 0.00598
118 0.006018
98 0.006015
100 0.006015
115 0.006015
138 0.004958
152 0.004981
159 0.005022
162 0.006034
166 0.006012
171 0.005928
157 0.00497
66 0.00504
47 0.004985
62 0.006018
90 0.006979
119 0.00698
140 0.005987
150 0.006046
127 0.006021
105 0.005983
99 0.005973
115 0.004978
135 0.004988
157 0.005916
164 0.005986
166 0.005985
168 0.006982
172 0.007024
150 0.005993
84 0.005987
43 0.005983
43 0.007021
67 0.006975
108 0.007039
128 0.006967
137 0.006927
116 0.005987
98 0.005965
96 0.007013
107 0.006934
129 0.005953
145 0.005987
152 0.006015
157 0.006982
159 0.006984
165 0.007015
171 0.007022
123 0.005965
59 0.006995
35 0.00603
47 0.006979
86 0.0079
112 0.007015
127 0.007012
131 0.006978
115 0.007951
94 0.007939
91 0.007972
105 0.006982
128 0.006984
145 0.005981
151 0.00698
154 0.005998
156 0.007961
160 0.007949
170 0.006989
168 0.007014
119 0.006979
45 0.008023
37 0.00801
58 0.007004
101 0.007924
128 0.00697
135 0.006988
124 0.006982
104 0.007965
94 0.007972
103 0.006983
120 0.006987
136 0.007018
152 0.008015
157 0.007927
157 0.006988
160 0.007978
166 0.006985
175 0.006994
179 0.006986
144 0.007946
58 0.007006
40 0.006981
64 0.006982
98 0.006983
127 0.006982
144 0.006981
139 0.006981
111 0.007973
89 0.006941
94 0.006959
110 0.006995
137 0.007975
150 0.007016
155 0.007012
156 0.007013
158 0.007011
164 0.007013
170 0.00701
135 0.00698
57 0.007016
43 0.007767
57 0.007014
100 0.007247
128 0.006143
148 0.007892
149 0.007032
114 0.006888
93 0.007015
96 0.006977
112 0.006774
140 0.006013
159 0.006017
163 0.007014
165 0.006974
168 0.006983
174 0.006981
177 0.006983
114 0.006987
52 0.006983
33 0.007015
50 0.006982
83 0.007055
121 0.00698
140 0.00601
126 0.006019
103 0.006159
92 0.006015
97 0.006025
115 0.006015
140 0.006022
152 0.006017
158 0.006017
161 0.007009
163 0.007029
167 0.007014
172 0.00702
125 0.007022
43 0.007023
30 0.005987
50 0.005984
83 0.006012
112 0.005975
133 0.005987
131 0.006061
111 0.006191
94 0.005978
91 0.00601
114 0.005984
133 0.006981
150 0.005985
156 0.005985
158 0.005989
161 0.006017
167 0.006109
173 0.006031
137 0.006014
68 0.005984
33 0.006017
40 0.005929
91 0.006014
119 0.006015
138 0.006014
133 0.006027
112 0.005015
95 0.005018
93 0.004986
114 0.005023
133 0.005
148 0.005044
157 0.005012
160 0.005968
164 0.006002
168 0.006017
177 0.005981
164 0.005984
97 0.006016
43 0.006031
35 0.004995
69 0.004954
103 0.004981
129 0.004996
144 0.004991
138 0.004986
93 0.004992
85 0.005073
102 0.004992
122 0.005031
140 0.004994
149 0.005033
152 0.004996
154 0.005033
158 0.004031
161 0.004043
132 0.005034
70 0.004031
35 0.00493
57 0.004023
100 0.004013
124 0.003953
140 0.003995
133 0.004986
106 0.005018
86 0.005028
94 0.005019
112 0.004939
132 0.005022
146 0.003994
153 0.00503
156 0.004985
162 0.003973
162 0.004029
121 0.00402
56 0.003988
28 0.004015
47 0.003988
80 0.00399
106 0.003987
122 0.003989
124 0.003985
96 0.004035
86 0.003797
90 0.00403
111 0.004156
128 0.004039
142 0.003989
147 0.004025
149 0.004022
155 0.004022
162 0.00399
162 0.005036
122 0.00404
31 0.004034
29 0.003985
53 0.004028
93 0.004008
113 0.004023
120 0.002993
112 0.003989
94 0.002987
84 0.004036
91 0.003989
107 0.003025
125 0.003957
144 0.003952
147 0.003419
149 0.004024
153 0.002995
159 0.002992
168 0.002991
164 0.00399
109 0.002993
35 0.003994
28 0.004026
52 0.004024
86 0.004021
122 0.003991
128 0.003998
113 0.003028
90 0.003053
88 0.002994
97 0.004019
115 0.002992
132 0.002994
147 0.003989
150 0.003988
152 0.003987
155 0.00399
165 0.002985
171 0.003048
151 0.002994
65 0.003029
35 0.002993
45 0.003026
76 0.002991
108 0.003014
136 0.003037
142 0.002992
122 0.002991
96 0.003948
90 0.00395
108 0.002991
128 0.001995
148 0.002992
153 0.003006
155 0.002994
158 0.002992
163 0.002993
170 0.002994
139 0.002992
74 0.003031
38 0.002992
59 0.003033
93 0.002992
123 0.002991
146 0.003028
140 0.002994
115 0.002992
96 0.002996
96 0.00303
120 0.002992
141 0.002992
156 0.003017
163 0.002993
167 0.002996
174 0.002998
179 0.002046
172 0.002961
88 0.003029
39 0.002998
35 0.002018
60 0.001995
94 0.002033
127 0.002028
140 0.001985
133 0.001995
101 0.001995
96 0.001993
107 0.001992
125 0.00203
150 0.001995
161 0.002032
166 0.001995
167 0.001996
171 0.001996
180 0.001995
187 0.001995
160 0.001995
46 0.002032
30 0.000998
49 0.000998
83 0.000997
124 0.000998
140 0.001996
139 0.002008
120 0.002025
99 0.001995
97 0.002039
112 0.002027
132 0.002056
160 0.001995
167 0.000998
172 0.001001
174 0.000997
181 0.001994
190 0.000997
199 0.000998
170 0.000998
88 0.001994
34 0.000997
44 0.001995
76 0.001995
133 0.001019
154 0.000997
153 0.001011
128 0.001009
97 0.000997
97 0.000999
113 0.000997
135 0.000996
154 0.000997
170 0.001995
175 0.001004
177 0.001004
186 0.001001
191 0.000998
157 0.000997
80 0.000998
35 0.000998
51 0.001033
84 0.000997
120 0.001036
149 0.000998
165 0.000996
136 0.000997
104 0.000998
98 0.000998
119 0.0
142 0.0
160 0.00096
175 0.000997
179 0.0
182 0.0
187 0.000998
169 0.000998
73 0.000998
34 0.000997
38 0.000997
93 0.000997
126 0.0
152 0.0
158 0.0
132 0.0
96 0.0
94 0.0
110 0.0
134 0.0
154 0.0
170 0.0
175 0.000998
180 0.000992
187 0.0
183 0.0
121 0.000966
47 0.0
23 0.0
47 0.0
84 0.0
116 0.0
137 0.0
136 0.0
109 0.0
86 0.0
95 0.0
115 0.0
137 0.0
157 0.000997
163 0.0
165 0.000998
169 0.000993
178 0.0
182 0.000997
136 0.000998
57 0.000999
22 0.001037
46 0.000997
83 0.000997
115 0.000998
136 0.0
128 0.001032
104 0.000999
84 0.0
90 0.0
109 0.0
130 0.001031
147 0.001034
161 0.002004
164 0.000998
170 0.0
177 0.0
184 0.0
152 0.002035
71 0.000997
21 0.0
35 0.0
70 0.0
106 0.001033
133 0.000967
137 0.001995
110 0.001992
83 0.0
88 0.0
107 0.0
128 0.001039
145 0.001042
158 0.0
160 0.000997
164 0.000998
170 0.002048
173 0.001996
87 0.001995
34 0.000998
33 0.000984
63 0.001044
100 0.000991
130 0.001951
147 0.001973
127 0.0
94 0.0
79 0.0
89 0.002046
111 0.002028
146 0.00197
156 0.002004
160 0.002037
166 0.0
171 0.001041
151 0.001047
83 0.000998
31 0.001007
29 0.000998
59 0.000997
96 0.000997
122 0.001995
137 0.000996
111 0.001996
88 0.002032
87 0.001024
103 0.000962
126 0.000997
145 0.001995
156 0.002026
160 0.00096
164 0.001
170 0.000987
176 0.001995
97 0.000969
32 0.001994
15 0.002055
46 0.000961
83 0.00098
109 0.00099
124 0.002025
121 0.002028
94 0.000998
82 0.001995
86 0.001037
101 0.002993
133 0.001028
146 0.003022
153 0.003026
155 0.000997
159 0.000942
168 0.00096
178 0.002993
174 0.001995
82 0.0
26 0.001994
20 0.000998
49 0.002999
108 0.001959
131 0.002058
138 0.001979
111 0.001994
87 0.000981
80 0.002026
92 0.002992
117 0.002992
150 0.002026
163 0.002033
167 0.002042
167 0.003027
169 0.000997
175 0.003027
182 0.002029
160 0.002014
81 0.001986
31 0.001998
27 0.002992
56 0.003472
108 0.001985
137 0.001981
150 0.002007
135 0.002992
84 0.001988
82 0.002994
97 0.004032
129 0.001994
146 0.002043
155 0.001993
160 0.002992
166 0.002993
174 0.001995
178 0.002002
134 0.001988
59 0.003991
27 0.002004
52 0.003022
90 0.00399
135 0.001992
157 0.002017
146 0.003023
112 0.003989
90 0.003979
100 0.003016
123 0.001983
148 0.002038
168 0.002986
181 0.003025
182 0.002007
182 0.002992
168 0.002992
72 0.002
25 0.002993
25 0.002992
52 0.004026
90 0.003989
130 0.002991
145 0.003023
135 0.003034
94 0.002992
90 0.00303
104 0.003989
126 0.003989
155 0.002991
170 0.00299
178 0.002995
182 0.003989
188 0.003991
150 0.002997
66 0.003008
20 0.002988
40 0.002975
78 0.003008
112 0.00398
134 0.003989
137 0.003037
113 0.003026
93 0.003957
90 0.004955
105 0.004987
136 0.004034
158 0.004009
173 0.002985
186 0.002998
192 0.002997
193 0.00399
144 0.003993
40 0.002987
19 0.002993
37 0.004019
74 0.005017
114 0.004979
149 0.003976
152 0.004023
124 0.004023
87 0.002993
93 0.002992
114 0.004986
139 0.005985
164 0.002991
174 0.00399
180 0.00399
185 0.004986
181 0.004986
98 0.004022
35 0.00403
21 0.004038
68 0.004031
107 0.004035
139 0.004986
158 0.004986
128 0.003961
93 0.003989
83 0.003984
95 0.004987
118 0.005022
151 0.005
167 0.00496
176 0.005023
181 0.004982
171 0.003996
102 0.005984
36 0.004991
22 0.005035
49 0.005038
87 0.005013
121 0.005976
144 0.00599
138 0.004988
104 0.00399
83 0.004988
98 0.003993
121 0.00399
144 0.004954
159 0.005029
166 0.004987
170 0.004957
174 0.005022
175 0.004987
134 0.005984
53 0.006024
11 0.004041
28 0.003972
89 0.004987
118 0.003975
134 0.003997
127 0.006023
98 0.005974
76 0.004983
84 0.004982
105 0.004989
126 0.005991
144 0.005986
156 0.004989
160 0.005024
165 0.006025
168 0.005
130 0.004987
52 0.006976
15 0.007017
30 0.004972
65 0.004936
101 0.004985
127 0.005986
140 0.006982
112 0.004991
87 0.004985
88 0.004971
106 0.005015
126 0.005984
146 0.007035
158 0.006977
163 0.006024
166 0.005986
172 0.006009
176 0.006983
136 0.006982
37 0.004973
16 0.004986
57 0.005714
96 0.00598
130 0.005988
151 0.006986
143 0.006987
92 0.005999
76 0.005986
83 0.005984
103 0.006984
126 0.006982
151 0.005994
161 0.006982
166 0.004988
168 0.004979
149 0.005991
78 0.00797
25 0.007978
25 0.005984
57 0.005987
96 0.00599
130 0.006986
153 0.006982
131 0.005993
89 0.005985
77 0.005987
97 0.006017
123 0.006978
145 0.007936
161 0.007974
168 0.006985
171 0.005979
170 0.005984
121 0.006953
42 0.007986
8 0.006019
28 0.005984
92 0.005978
123 0.005988
142 0.007016
130 0.00795
94 0.007039
73 0.00801
82 0.006016
103 0.005986
126 0.006983
146 0.00798
157 0.00799
164 0.006979
171 0.007978
147 0.005968
67 0.006981
11 0.00698
13 0.00798
33 0.006983
83 0.00698
113 0.00698
131 0.006976
121 0.007966
92 0.007952
72 0.006984
84 0.007944
113 0.006994
133 0.006976
147 0.007002
154 0.007975
160 0.006984
167 0.006972
158 0.006943
91 0.006977
13 0.00703
11 0.007249
51 0.006951
101 0.007012
127 0.006981
134 0.006981
116 0.00698
87 0.007935
76 0.007936
91 0.006983
121 0.006987
140 0.006966
154 0.007037
162 0.006992
166 0.006981
173 0.006982
152 0.006982
75 0.006981
21 0.007029
22 0.007015
56 0.007036
109 0.007017
141 0.007008
153 0.007017
125 0.007013
88 0.007004
75 0.00702
97 0.007024
130 0.006013
149 0.006009
160 0.006016
166 0.00601
169 0.007018
149 0.006676
78 0.00695
25 0.005988
19 0.006026
44 0.006019
97 0.006009
141 0.006027
152 0.006016
115 0.00601
84 0.007014
80 0.007024
96 0.007014
129 0.006968
151 0.007019
165 0.006981
171 0.005985
175 0.005983
155 0.005988
54 0.005986
11 0.00624
28 0.005847
64 0.006297
100 0.006496
127 0.006017
138 0.006547
110 0.006021
83 0.005984
78 0.006016
92 0.006019
115 0.006015
148 0.006021
159 0.006029
167 0.006016
169 0.006024
142 0.006044
65 0.00595
15 0.006022
19 0.006983
51 0.005015
87 0.005139
115 0.00498
129 0.005518
100 0.005974
80 0.005984
84 0.005975
100 0.005985
122 0.004987
141 0.004986
153 0.004988
162 0.004987
168 0.004987
173 0.004987
151 0.006024
75 0.00598
15 0.006032
34 0.006011
85 0.004971
118 0.006055
139 0.005859
136 0.005271
110 0.005022
83 0.005013
88 0.004988
107 0.005016
130 0.005989
147 0.005025
163 0.006025
167 0.005021
173 0.005022
176 0.005019
137 0.005019
62 0.005022
26 0.005037
43 0.004019
82 0.005028
121 0.004966
150 0.004891
160 0.004014
105 0.003957
86 0.003958
97 0.00399
122 0.004989
146 0.004986
163 0.004986
172 0.00502
178 0.004987
181 0.004988
168 0.00501
101 0.004022
41 0.004036
41 0.005036
78 0.005021
129 0.003982
157 0.004037
163 0.004035
133 0.003992
100 0.00398
97 0.004964
116 0.004991
140 0.004988
163 0.004029
176 0.004031
184 0.004428
188 0.004978
190 0.004898
136 0.003989
54 0.003989
22 0.003991
35 0.004031
72 0.004026
123 0.003991
149 0.005018
157 0.002985
131 0.003034
94 0.002992
100 0.004987
119 0.003991
150 0.00399
168 0.00402
177 0.00402
181 0.004042
186 0.003983
194 0.003952
185 0.004037
108 0.002993
39 0.003954
37 0.003113
73 0.003956
115 0.003953
153 0.003989
159 0.00399
135 0.003988
106 0.003991
96 0.003992
113 0.00403
138 0.002993
160 0.002991
176 0.003042
185 0.002995
188 0.003039
193 0.003004
202 0.003009
171 0.00296
83 0.003011
30 0.002994
31 0.00199
79 0.003991
123 0.003989
157 0.002991
177 0.003989
136 0.003996
106 0.003023
103 0.002999
126 0.002997
152 0.002962
174 0.002987
189 0.002995
196 0.003955
200 0.004025
204 0.003029
211 0.003024
189 0.00199
55 0.002959
34 0.003945
55 0.002992
112 0.003005
156 0.003161
189 0.003024
191 0.003967
150 0.003154
103 0.002977
102 0.001995
124 0.002994
151 0.002029
187 0.002028
197 0.002998
202 0.002992
208 0.003057
197 0.003024
124 0.002992
56 0.002991
41 0.001993
75 0.002993
119 0.002994
163 0.002992
194 0.001999
165 0.002992
119 0.002992
104 0.002984
125 0.002993
152 0.001995
177 0.002027
196 0.002001
206 0.00203
212 0.002029
214 0.002022
169 0.002035
79 0.002021
34 0.002037
60 0.001996
102 0.002042
143 0.001996
176 0.003029
166 0.001988
129 0.001996
103 0.002028
103 0.000999
132 0.000998
158 0.000998
177 0.002008
194 0.001995
199 0.001995
203 0.001994
189 0.001996
82 0.001993
33 0.001996
33 0.001997
65 0.001001
105 0.00203
147 0.000969
160 0.000998
143 0.000992
101 0.000961
100 0.000997
116 0.001042
139 0.000998
167 0.001006
178 0.000998
184 0.000991
188 0.002038
193 0.001039
169 0.000991
91 0.000998
37 0.000996
49 0.002024
89 0.001995
124 0.000999
150 0.000998
153 0.00204
126 0.000997
101 0.002051
99 0.001032
114 0.000997
143 0.001033
163 0.001016
175 0.000996
184 0.000996
188 0.000998
190 0.000998
160 0.000999
64 0.000997
36 0.000994
51 0.000967
88 0.0
125 0.0
161 0.0
163 0.0
135 0.0
102 0.00099
107 0.001027
128 0.000997
156 0.001014
190 0.000997
202 0.0
207 0.0
211 0.0
215 0.0
199 0.0
120 0.0
61 0.001033
70 0.000998
107 0.000968
148 0.0
180 0.0
183 0.001062
144 0.000998
116 0.0
117 0.0
140 0.0
176 0.0
183 0.0
190 0.0
197 0.0
200 0.0
199 0.0
155 0.0
79 0.0
43 0.0
62 0.000998
100 0.0
138 0.0
170 0.0
168 0.0
130 0.0
96 0.0
108 0.0
133 0.0
158 0.0
174 0.0
182 0.000999
183 0.000999
185 0.00097
191 0.0
194 0.0
108 0.0
38 0.000965
35 0.001044
72 0.0
114 0.0
152 0.0
155 0.0
126 0.000953
94 0.001991
88 0.000997
106 0.000996
129 0.0
152 0.000998
168 0.000999
174 0.001
174 0.002042
179 0.000997
190 0.0
173 0.001011
91 0.002047
26 0.002041
22 0.000968
55 0.000993
97 0.0
131 0.00204
150 0.000999
119 0.000999
90 0.000999
85 0.000997
94 0.000991
125 0.0
148 0.001033
164 0.001067
170 0.000937
171 0.0
174 0.0
181 0.00204
190 0.002001
128 0.001036
43 0.001997
12 0.0
26 0.000969
79 0.0
121 0.001996
148 0.001995
148 0.0
113 0.0
87 0.0
84 0.002021
99 0.002028
141 0.001029
162 0.001042
176 0.0
176 0.0
177 0.0
182 0.001028
191 0.001997
194 0.001018
129 0.0
44 0.0
15 0.001995
34 0.002038
106 0.002029
146 0.001031
174 0.0
149 0.0
104 0.0
82 0.002002
88 0.001996
121 0.000966
149 0.002031
169 0.000998
178 0.002032
181 0.003036
186 0.001039
190 0.001995
159 0.001995
52 0.0
20 0.000999
33 0.000998
71 0.001995
116 0.001995
165 0.000954
175 0.001996
139 0.002003
95 0.003033
88 0.002038
112 0.002053
140 0.001997
170 0.001033
180 0.000937
184 0.001003
188 0.002995
190 0.002994
122 0.001969
40 0.002005
10 0.002003
24 0.003045
92 0.001031
130 0.002921
156 0.003006
137 0.000946
97 0.000981
76 0.000999
83 0.002025
107 0.001995
143 0.002008
162 0.001992
172 0.00201
173 0.003021
179 0.001994
187 0.002993
176 0.002992
60 0.000998
4 0.00203
3 0.000999
37 0.002993
80 0.003957
126 0.001033
141 0.001001
121 0.001003
87 0.002987
70 0.000997
86 0.002027
112 0.003039
142 0.001995
155 0.001995
161 0.001988
163 0.002992
169 0.003037
168 0.000999
106 0.001001
27 0.00195
0 0.004046
38 0.001954
81 0.00299
113 0.003027
133 0.001991
116 0.002971
86 0.001036
71 0.003991
79 0.003991
107 0.002016
132 0.001992
149 0.001994
158 0.003991
162 0.001995
168 0.002991
176 0.003023
144 0.001997
58 0.002998
7 0.003035
8 0.003988
42 0.00396
101 0.001961
131 0.001991
143 0.001975
122 0.003948
71 0.002004
72 0.002988
92 0.002992
128 0.001961
148 0.003015
157 0.002974
159 0.002996
160 0.004021
166 0.003961
165 0.003008
106 0.003026
33 0.001963
17 0.002009
52 0.002002
94 0.004022
129 0.005021
151 0.003006
124 0.00298
87 0.002988
74 0.005984
86 0.003989
120 0.002993
147 0.002993
163 0.003011
168 0.002014
168 0.003001
174 0.004983
184 0.004987
167 0.003991
80 0.002959
15 0.00296
6 0.003989
35 0.004989
93 0.003961
127 0.00396
144 0.00299
108 0.002991
81 0.002034
76 0.005026
90 0.00499
124 0.002988
148 0.002978
164 0.002971
170 0.005003
169 0.005955
173 0.003958
180 0.00399
191 0.004008
147 0.002991
50 0.003982
5 0.00502
11 0.004986
63 0.002993
107 0.003989
135 0.002992
143 0.004989
121 0.005985
82 0.002981
74 0.003982
88 0.003024
130 0.004141
154 0.002989
166 0.004979
170 0.005983
171 0.003997
175 0.003014
182 0.004032
195 0.005999
190 0.005949
76 0.003949
14 0.004003
11 0.003992
74 0.003981
118 0.004024
148 0.005977
157 0.006018
114 0.003995
80 0.004021
74 0.003992
91 0.005984
120 0.004971
155 0.004937
171 0.005
173 0.004053
174 0.003989
178 0.002993
186 0.005983
194 0.005985
139 0.004987
49 0.004988
10 0.004985
22 0.005984
60 0.005984
120 0.004959
156 0.004991
168 0.004989
104 0.00499
76 0.00499
79 0.004985
103 0.005997
132 0.006952
163 0.004986
176 0.004029
179 0.005003
183 0.006985
189 0.005984
171 0.005027
85 0.004978
9 0.00499
25 0.004988
66 0.004984
110 0.005984
145 0.005984
162 0.004997
128 0.005982
89 0.006029
77 0.006983
91 0.006983
127 0.004987
155 0.004988
179 0.004986
183 0.004984
188 0.004984
189 0.007018
141 0.006982
25 0.006038
0 0.006024
17 0.004992
58 0.00702
101 0.006982
137 0.00498
139 0.006022
87 0.005
73 0.004954
80 0.005949
102 0.006948
129 0.007016
155 0.005992
163 0.004989
166 0.005
169 0.007017
175 0.007022
159 0.005019
79 0.00599
1 0.004985
17 0.005976
54 0.004984
94 0.007979
128 0.00798
130 0.005985
103 0.005978
76 0.005984
71 0.007976
87 0.007978
111 0.005984
132 0.005985
152 0.004976
155 0.005992
157 0.005999
162 0.007981
157 0.007946
66 0.006987
12 0.007023
8 0.00598
47 0.007966
85 0.007975
114 0.005974
128 0.005957
97 0.00598
72 0.005984
69 0.005969
82 0.00798
103 0.00798
131 0.006981
144 0.005947
148 0.005951
152 0.006986
157 0.007952
160 0.007981
136 0.00695
23 0.007969
11 0.006982
34 0.006983
85 0.006971
119 0.006982
139 0.007978
131 0.00698
96 0.005984
70 0.006982
74 0.007954
92 0.006976
123 0.006965
141 0.007971
147 0.00597
149 0.006976
153 0.006966
156 0.007928
121 0.007019
51 0.006982
17 0.005973
37 0.00695
75 0.007017
112 0.007014
142 0.006959
143 0.007919
93 0.006965
72 0.006978
83 0.006979
107 0.00703
130 0.007014
151 0.007018
158 0.006991
160 0.006952
163 0.007024
155 0.007016
92 0.006983
17 0.006987
29 0.006941
79 0.005983
104 0.005986
139 0.006981
143 0.006985
106 0.006982
80 0.006986
79 0.00698
94 0.006982
117 0.006982
143 0.005951
156 0.007035
161 0.006963
166 0.006982
162 0.00602
103 0.005955
35 0.006014
18 0.006017
44 0.006987
84 0.005993
116 0.006977
134 0.00611
125 0.005988
89 0.006021
79 0.006956
92 0.005985
112 0.005998
132 0.005988
146 0.005983
155 0.004986
158 0.005987
163 0.006018
165 0.005006
125 0.006043
36 0.006969
25 0.006981
68 0.006982
106 0.006986
131 0.005987
143 0.006032
129 0.005924
91 0.006009
82 0.005963
93 0.006032
112 0.006354
133 0.005972
153 0.005072
158 0.00597
160 0.005939
167 0.005985
172 0.005969
151 0.005046
75 0.005985
30 0.005983
41 0.006022
78 0.005964
117 0.005977
146 0.005978
157 0.006034
108 0.006017
83 0.00602
87 0.006026
107 0.00502
131 0.004969
149 0.005015
158 0.005014
163 0.005026
166 0.005938
170 0.005986
152 0.004986
84 0.005984
32 0.005989
50 0.00602
100 0.004979
135 0.005015
157 0.005016
153 0.005017
118 0.005029
87 0.005027
93 0.005028
113 0.004986
137 0.004988
156 0.004988
171 0.005973
175 0.005014
181 0.005002
164 0.005015
92 0.004986
36 0.00502
29 0.00498
65 0.004988
103 0.004955
131 0.005011
147 0.003947
138 0.003993
96 0.004019
91 0.004016
110 0.00476
131 0.004986
149 0.004987
162 0.004988
170 0.004988
175 0.004988
180 0.004982
178 0.004988
118 0.003994
50 0.004026
38 0.00402
69 0.003991
118 0.005042
139 0.005021
148 0.004023
131 0.004021
106 0.004949
97 0.004983
110 0.005017
130 0.004001
152 0.003987
168 0.003996
180 0.004989
184 0.003989
191 0.00402
195 0.004032
158 0.00395
81 0.004026
44 0.004025
61 0.004014
98 0.004023
137 0.002951
163 0.002981
173 0.003994
126 0.003985
105 0.00399
107 0.002992
132 0.003989
156 0.003989
174 0.003992
184 0.003989
188 0.003989
192 0.004056
196 0.00402
191 0.004013
131 0.002932
54 0.003764
64 0.003542
96 0.003991
148 0.003171
175 0.004001
182 0.002957
152 0.002952
117 0.002992
110 0.002992
127 0.001995
151 0.002992
174 0.002989
192 0.002995
195 0.003022
197 0.003474
200 0.002963
163 0.002992
90 0.003815
54 0.003007
63 0.00398
105 0.003938
142 0.004345
168 0.003046
177 0.004155
132 0.003272
112 0.002991
116 0.002991
143 0.002993
164 0.002992
182 0.002993
190 0.00299
193 0.003042
197 0.00303
202 0.002947
184 0.002944
112 0.001988
47 0.002992
64 0.002023
99 0.002946
143 0.003042
164 0.002027
164 0.002028
140 0.001994
116 0.001995
114 0.002053
130 0.003019
152 0.003015
171 0.002041
188 0.002025
192 0.002027
197 0.001964
203 0.002012
190 0.002025
121 0.002024
61 0.00203
49 0.002987
85 0.002034
124 0.002009
155 0.001995
175 0.002992
147 0.001995
117 0.001994
109 0.001997
126 0.001997
151 0.002045
171 0.001995
183 0.002032
189 0.000974
193 0.002037
196 0.001036
200 0.001047
172 0.001046
61 0.002027
47 0.001993
70 0.002038
108 0.002051
158 0.002024
180 0.001995
172 0.000988
131 0.000998
105 0.001016
108 0.000996
130 0.001044
156 0.001032
183 0.001019
189 0.000989
191 0.001029
195 0.000998
170 0.002032
94 0.001994
45 0.002032
42 0.00203
70 0.001995
123 0.001995
156 0.000998
174 0.000998
132 0.00099
104 0.000991
101 0.000994
118 0.000974
150 0.001997
171 0.000997
182 0.000959
187 0.000996
190 0.00094
194 0.000994
165 0.000956
85 0.001024
25 0.001031
47 0.001031
85 0.001035
123 0.0
152 0.0
147 0.0
119 0.0
96 0.0
94 0.000966
116 0.001058
140 0.001034
158 0.001026
174 0.001038
178 0.00096
183 0.001036
185 0.0
132 0.0
58 0.0
27 0.0
38 0.0
74 0.0
125 0.0
149 0.0
156 0.0
111 0.0
94 0.001035
97 0.001042
116 0.0
149 0.000999
166 0.001046
175 0.0
179 0.0
182 0.0
187 0.0
174 0.0
101 0.0
26 0.001
42 0.001034
79 0.000999
120 0.000999
161 0.000987
163 0.0
126 0.0
91 0.0
83 0.0
105 0.0
131 0.0
155 0.0
174 0.0
178 0.0
179 0.0
172 0.0
113 0.0
31 0.0
24 0.0
52 0.0
93 0.0
131 0.000998
166 0.001999
152 0.0
89 0.0
83 0.002028
106 0.001021
120 0.0
140 0.00103
162 0.002032
169 0.001048
170 0.000956
161 0.000957
127 0.00099
25 0.000998
0 0.001995
37 0.001975
79 0.000999
122 0.0
134 0.001032
124 0.000998
82 0.001002
69 0.001031
82 0.0
106 0.000998
131 0.000998
147 0.002043
155 0.00204
162 0.002001
168 0.001996
147 0.000998
66 0.000997
8 0.000997
1 0.001996
28 0.002002
83 0.000988
114 0.0
131 0.0
116 0.002014
87 0.002051
70 0.002034
86 0.002025
117 0.001017
140 0.000995
155 0.001012
160 0.002007
162 0.002044
169 0.0
176 0.000963
156 0.0
75 0.002006
16 0.001038
24 0.002001
65 0.002037
118 0.0
145 0.0
142 0.0
108 0.002035
78 0.002028
76 0.000998
96 0.001976
122 0.0
145 0.001996
159 0.001994
167 0.002007
171 0.002
173 0.0
130 0.0
76 0.000995
12 0.00198
22 0.001996
72 0.0
114 0.0
148 0.0
160 0.002001
126 0.002
73 0.003003
78 0.001995
113 0.0
139 0.000964
158 0.0
168 0.001999
173 0.002051
176 0.002029
159 0.0
85 0.0
22 0.0
11 0.002992
63 0.000974
106 0.003041
139 0.002992
150 0.001995
116 0.0
83 0.0
77 0.002027
92 0.001996
128 0.000998
151 0.001989
165 0.00199
170 0.001995
175 0.001032
176 0.002985
133 0.002
26 0.002022
2 0.00205
21 0.000981
60 0.002993
100 0.00296
137 0.001958
135 0.002002
104 0.00096
79 0.002992
82 0.001995
106 0.002989
131 0.002992
154 0.001981
162 0.00199
166 0.002007
170 0.004001
175 0.003988
138 0.002004
53 0.001993
6 0.001
10 0.002992
72 0.001001
111 0.002996
137 0.003034
134 0.001004
101 0.001987
79 0.001989
81 0.003991
98 0.00399
133 0.002004
154 0.001996
167 0.000942
173 0.004028
180 0.002002
185 0.004057
168 0.003991
60 0.001987
13 0.002002
17 0.002024
53 0.003991
100 0.003956
147 0.00199
163 0.002028
137 0.001986
95 0.002952
80 0.001022
101 0.004032
129 0.004026
161 0.00103
172 0.002013
177 0.002025
181 0.004034
184 0.003995
153 0.001995
70 0.002021
19 0.001999
19 0.004051
81 0.001997
126 0.005022
162 0.004051
161 0.00195
114 0.002994
81 0.001994
82 0.004986
103 0.003989
131 0.005016
165 0.002993
179 0.002008
184 0.002025
188 0.001963
159 0.003005
73 0.004023
14 0.003991
19 0.002998
58 0.003991
103 0.002991
139 0.003956
163 0.004997
128 0.002993
88 0.001993
77 0.002978
107 0.002961
136 0.003985
158 0.005049
173 0.006059
181 0.002998
185 0.001957
177 0.001959
105 0.005042
24 0.005044
0 0.003991
29 0.003025
73 0.002019
133 0.002939
144 0.002989
121 0.004987
88 0.004987
74 0.002989
88 0.002958
113 0.003
138 0.004986
156 0.005959
168 0.002993
175 0.002992
178 0.003
107 0.004008
27 0.003981
0 0.00497
14 0.00498
70 0.002992
107 0.00405
132 0.002992
134 0.004931
107 0.006024
77 0.003974
79 0.002981
98 0.003005
138 0.004003
155 0.003987
165 0.006014
170 0.005995
176 0.003993
174 0.003035
115 0.002986
35 0.005985
4 0.005034
33 0.003029
76 0.002996
116 0.002992
148 0.002993
122 0.003989
86 0.005988
72 0.006029
89 0.00297
115 0.004974
141 0.003972
156 0.005984
163 0.006023
170 0.003997
173 0.003984
151 0.00398
33 0.004987
9 0.003942
29 0.005953
70 0.00595
125 0.003989
155 0.003988
149 0.004012
108 0.006031
80 0.005985
79 0.006015
107 0.003984
136 0.004017
167 0.004991
174 0.004985
178 0.004988
180 0.005984
152 0.006984
44 0.004054
6 0.003993
17 0.003986
56 0.006947
101 0.005983
142 0.003989
149 0.003989
97 0.004987
80 0.004974
88 0.004956
110 0.006984
137 0.007016
163 0.004987
171 0.003992
176 0.004977
182 0.006941
186 0.006981
138 0.004947
49 0.004019
5 0.004997
36 0.003988
80 0.004986
118 0.006977
142 0.006983
129 0.004994
98 0.004034
80 0.004987
85 0.007979
105 0.006981
141 0.004024
160 0.004984
172 0.004982
175 0.005979
180 0.00499
191 0.007964
164 0.007953
74 0.004988
15 0.005979
13 0.004987
47 0.006982
92 0.006983
144 0.004984
161 0.004989
116 0.005995
88 0.00598
85 0.005937
112 0.007978
140 0.007986
164 0.005986
179 0.005941
183 0.005022
186 0.007977
190 0.007017
197 0.004987
151 0.004966
24 0.004038
17 0.004984
49 0.005985
111 0.007978
152 0.007951
178 0.005984
157 0.005967
108 0.005975
80 0.007922
86 0.006936
120 0.005984
149 0.005984
181 0.005985
189 0.005985
193 0.005984
195 0.007977
158 0.007979
46 0.005982
13 0.005984
28 0.005984
86 0.00801
131 0.007728
169 0.005981
180 0.006992
107 0.007965
85 0.005985
94 0.006005
120 0.005985
160 0.007945
182 0.007022
196 0.00698
201 0.006981
204 0.006019
193 0.007982
108 0.007982
11 0.005981
25 0.006981
69 0.006972
114 0.006974
148 0.006939
154 0.006975
116 0.007011
81 0.00695
82 0.006983
98 0.006972
127 0.007932
163 0.007012
178 0.006995
187 0.007978
194 0.005984
187 0.006978
106 0.00698
22 0.006985
0 0.006839
34 0.006966
65 0.005964
110 0.005963
149 0.007452
145 0.007025
109 0.005947
76 0.007018
97 0.005985
123 0.00698
149 0.006019
168 0.007002
179 0.007016
187 0.006981
190 0.006981
179 0.006983
71 0.006978
11 0.007015
5 0.006945
67 0.007014
123 0.006976
152 0.005973
147 0.006017
110 0.004955
80 0.006016
80 0.005982
103 0.006991
132 0.006973
154 0.006857
168 0.006983
178 0.006981
182 0.005984
139 0.005982
53 0.006012
9 0.005987
16 0.005989
51 0.006017
111 0.005985
149 0.00598
161 0.005986
125 0.006977
85 0.007027
71 0.006953
103 0.006005
141 0.005985
163 0.006016
174 0.00495
179 0.005985
180 0.005987
128 0.006
45 0.004986
8 0.005942
19 0.006984
59 0.005986
118 0.006029
159 0.00602
137 0.005979
97 0.005987
80 0.005975
89 0.006023
113 0.00588
141 0.004987
169 0.004982
178 0.005989
184 0.005985
187 0.005989
162 0.005984
25 0.004987
1 0.004974
36 0.004967
79 0.005023
117 0.005987
143 0.005018
139 0.004986
94 0.004992
78 0.005988
85 0.005986
105 0.006023
131 0.004986
162 0.005041
171 0.005985
178 0.004927
180 0.005007
148 0.005055
60 0.005017
7 0.005038
71 0.005233
91 0.004986
113 0.005021
127 0.005016
133 0.00502
114 0.005023
104 0.004998
107 0.004991
118 0.00502
131 0.003985
141 0.004985
147 0.003988
150 0.003988
153 0.005983
156 0.00499
146 0.004986
105 0.00502
66 0.005013
76 0.005008
104 0.004986
124 0.003988
137 0.003946
136 0.003936
121 0.004021
107 0.005028
108 0.00399
118 0.005
132 0.004987
143 0.003991
152 0.004036
154 0.003992
157 0.004987
161 0.004996
160 0.004987
127 0.004987
85 0.00344
73 0.00399
88 0.004008
112 0.003999
134 0.003989
150 0.004058
135 0.003984
114 0.00299
108 0.004988
118 0.003989
132 0.003991
145 0.004987
153 0.003988
157 0.005029
158 0.004013
161 0.004022
160 0.004034
132 0.004025
78 0.002955
79 0.003238
104 0.003676
128 0.004035
148 0.002993
158 0.002965
144 0.002994
115 0.002986
111 0.004002
120 0.003918
136 0.00363
154 0.004468
171 0.004024
175 0.003001
178 0.002945
176 0.002969
132 0.002993
75 0.002983
55 0.002995
66 0.002992
105 0.002992
135 0.002993
156 0.002998
158 0.003031
117 0.00299
105 0.003989
112 0.00399
134 0.002992
152 0.003003
166 0.00298
172 0.002962
174 0.003039
179 0.002985
183 0.003027
160 0.003031
94 0.002993
49 0.00399
66 0.003995
97 0.002991
137 0.002006
156 0.002992
152 0.002991
126 0.003014
106 0.003027
106 0.003022
121 0.002986
140 0.003029
157 0.002987
173 0.002001
176 0.003028
179 0.001999
184 0.002028
158 0.002949
91 0.002945
53 0.002992
55 0.003035
90 0.002993
123 0.002993
150 0.002992
165 0.002993
131 0.002993
108 0.001997
105 0.001964
124 0.001991
144 0.002027
161 0.00102
173 0.001995
179 0.002
182 0.002992
187 0.002992
184 0.002029
132 0.002025
54 0.002021
58 0.002029
85 0.001994
131 0.002004
160 0.000998
175 0.001007
152 0.003027
115 0.002995
99 0.002992
111 0.002026
132 0.003025
152 0.002994
173 0.002042
177 0.002039
181 0.001026
181 0.002027
140 0.001988
76 0.002038
50 0.001995
59 0.001994
98 0.001994
133 0.001995
161 0.001996
171 0.002023
119 0.000949
100 0.002045
104 0.001998
122 0.002012
150 0.002025
167 0.002013
176 0.002003
180 0.001954
183 0.002041
178 0.002026
120 0.002029
58 0.000941
49 0.001994
77 0.001029
110 0.000992
140 0.000996
159 0.001
137 0.001018
107 0.002172
95 0.000997
102 0.000997
126 0.000999
146 0.001035
160 0.000997
171 0.001982
174 0.00202
178 0.002023
168 0.000998
83 0.001996
43 0.000997
43 0.001995
67 0.001005
100 0.001032
136 0.001008
150 0.000998
135 0.000997
96 0.0
94 0.0
106 0.0
126 0.0
150 0.0
161 0.0
166 0.0
169 0.001015
172 0.000999
174 0.00101
126 0.000997
63 0.001003
47 0.0
72 0.0
106 0.0
135 0.0
155 0.001031
136 0.0
106 0.000999
93 0.000998
99 0.000998
123 0.000997
143 0.000964
157 0.000997
165 0.0
166 0.0
171 0.000997
176 0.0
139 0.0
75 0.0
47 0.0
54 0.0
82 0.0
127 0.0
155 0.0
164 0.0
111 0.0
92 0.0
97 0.0
115 0.0
143 0.001048
159 0.0
167 0.0
170 0.0
174 0.0
168 0.0
115 0.0
51 0.0
53 0.002003
81 0.000997
116 0.000998
149 0.0
170 0.00095
145 0.002051
112 0.002042
101 0.0
115 0.0
137 0.0
158 0.001995
172 0.001994
181 0.000997
184 0.000996
181 0.000998
132 0.000998
52 0.000994
42 0.002028
59 0.003002
102 0.0
131 0.000961
151 0.0
145 0.002024
118 0.001034
99 0.002042
111 0.003054
154 0.001002
191 0.0
219 0.0
237 0.002028
251 0.00203
255 0.0
255 0.000967
206 0.000964
114 0.002041
86 0.002918
144 0.003035
207 0.002993
255 0.000991
254 0.0
255 0.0
240 0.002037
217 0.002044
229 0.0
255 0.0
255 0.0
254 0.001995
255 0.001995
255 0.001995
255 0.001994
254 0.0
255 0.0
180 0.001002
70 0.001992
50 0.002038
76 0.0
116 0.0
153 0.0
170 0.002039
148 0.00103
81 0.001994
73 0.001995
90 0.000997
114 0.0
137 0.000997
154 0.001996
160 0.002033
161 0.0
164 0.0
171 0.0
177 0.002026
150 0.002031
23 0.002029
7 0.002015
40 0.0
83 0.0
123 0.0
153 0.002032
149 0.001995
90 0.0
67 0.0
71 0.0
94 0.001995
121 0.00203
155 0.002003
163 0.00306
166 0.0
172 0.001015
174 0.000965
134 0.0
54 0.002031
17 0.003024
33 0.0
69 0.0
111 0.0
148 0.00203
153 0.0
108 0.002046
81 0.002993
88 0.000997
111 0.000955
138 0.00096
160 0.002949
173 0.002976
180 0.00198
184 0.0
188 0.001997
154 0.002991
28 0.001036
14 0.003018
36 0.002993
87 0.000999
124 0.001995
152 0.0
150 0.001991
114 0.001994
81 0.001983
85 0.0
104 0.001995
130 0.002988
164 0.002064
174 0.003979
180 0.002994
186 0.001999
166 0.002021
83 0.002982
24 0.00304
16 0.003033
51 0.001975
90 0.0
124 0.002001
146 0.002991
117 0.00296
89 0.003975
81 0.004033
98 0.002994
123 0.002006
147 0.001999
163 0.002985
172 0.00303
180 0.001998
184 0.00199
175 0.001997
102 0.003036
18 0.001995
28 0.004016
61 0.003986
113 0.001998
143 0.001998
152 0.001995
126 0.004027
93 0.003027
83 0.002049
97 0.002025
121 0.000983
145 0.004023
168 0.001987
173 0.004021
176 0.003026
183 0.001994
170 0.002
94 0.001987
33 0.004025
23 0.004037
58 0.001996
98 0.001994
135 0.001951
160 0.003989
118 0.002996
85 0.004997
77 0.00399
99 0.001981
124 0.002006
147 0.001989
162 0.00402
168 0.004034
171 0.003993
175 0.001991
147 0.001967
72 0.001996
23 0.002988
42 0.001995
78 0.004986
115 0.004987
153 0.002001
146 0.001979
108 0.001994
83 0.003982
82 0.004044
108 0.002028
133 0.002003
153 0.002053
168 0.002034
171 0.001975
176 0.004988
165 0.006018
69 0.003
23 0.001995
22 0.002029
48 0.003989
83 0.004023
124 0.001996
139 0.001996
122 0.001996
82 0.002985
81 0.002951
96 0.005027
119 0.005946
146 0.002962
158 0.002992
163 0.002996
166 0.00502
172 0.005021
173 0.002044
116 0.002992
43 0.001995
23 0.003986
51 0.003988
88 0.006022
118 0.005036
137 0.002982
119 0.003
94 0.002988
81 0.004986
88 0.004955
113 0.003007
135 0.002995
154 0.002985
166 0.003992
170 0.003991
174 0.006038
182 0.005985
178 0.002996
107 0.004012
40 0.003957
24 0.006032
43 0.005982
93 0.003993
129 0.002995
152 0.00401
126 0.004015
95 0.002998
84 0.006018
94 0.005023
124 0.00396
147 0.00299
163 0.004006
170 0.005985
173 0.004988
178 0.001996
185 0.002992
182 0.002988
70 0.003986
31 0.002962
36 0.005984
67 0.005984
120 0.00399
155 0.003984
169 0.003044
142 0.006016
102 0.006016
87 0.003995
102 0.004021
127 0.004017
166 0.00495
176 0.004965
180 0.005984
184 0.005991
189 0.006007
163 0.003989
83 0.004986
33 0.00399
31 0.006989
58 0.006984
110 0.00399
146 0.004009
162 0.004042
125 0.004982
96 0.004998
91 0.006028
107 0.005979
142 0.003988
165 0.004987
178 0.003989
184 0.006987
188 0.007015
194 0.003941
184 0.003988
53 0.005002
22 0.004989
34 0.004986
68 0.005984
108 0.006979
150 0.005014
160 0.004996
134 0.004995
102 0.006976
90 0.006987
105 0.005019
129 0.00396
166 0.005028
179 0.004998
186 0.005965
191 0.006985
196 0.006933
164 0.004986
78 0.004988
29 0.003977
36 0.007977
58 0.007019
113 0.003989
149 0.004987
163 0.004987
127 0.004989
98 0.004986
97 0.007978
108 0.006982
142 0.004988
165 0.004987
179 0.005028
187 0.006957
191 0.006982
198 0.004995
176 0.004988
48 0.005974
26 0.005988
43 0.00595
80 0.007976
124 0.00794
170 0.004987
172 0.004987
132 0.005985
94 0.006982
84 0.006982
107 0.004951
133 0.004992
169 0.005995
179 0.005988
185 0.005986
187 0.007973
167 0.007971
66 0.004958
27 0.004987
31 0.004989
61 0.007982
117 0.007921
154 0.005019
171 0.005983
112 0.005984
85 0.006981
86 0.005985
106 0.008019
141 0.007982
163 0.005007
176 0.005981
182 0.005987
185 0.005978
145 0.007955
62 0.007967
21 0.005983
41 0.006972
91 0.00698
115 0.005986
149 0.00698
140 0.006981
117 0.008005
83 0.006944
83 0.006012
100 0.006946
132 0.006949
151 0.006949
163 0.005973
176 0.007019
175 0.006969
146 0.006933
45 0.006975
18 0.006981
29 0.006985
62 0.005954
98 0.005986
128 0.005985
141 0.006981
128 0.007979
94 0.005985
93 0.006986
111 0.006943
135 0.006981
156 0.006015
176 0.006947
183 0.006953
190 0.006946
187 0.006962
153 0.006017
53 0.007017
30 0.00698
46 0.005984
109 0.006017
153 0.006935
165 0.006015
151 0.006957
104 0.007031
92 0.006801
103 0.007024
128 0.006938
155 0.006936
185 0.006982
199 0.007043
210 0.006954
216 0.005989
143 0.005986
67 0.00698
44 0.006969
61 0.006991
101 0.006982
160 0.005984
193 0.005984
190 0.005984
145 0.005986
109 0.007018
108 0.006951
142 0.006013
179 0.005004
197 0.006451
205 0.006001
210 0.005982
211 0.005729
135 0.005953
57 0.005013
33 0.005011
50 0.006015
87 0.006045
146 0.005998
180 0.006033
150 0.006032
109 0.006011
96 0.005957
107 0.006016
132 0.006016
159 0.005982
185 0.006001
193 0.005979
198 0.005678
199 0.005549
173 0.006146
39 0.004376
19 0.005469
50 0.005984
91 0.005984
128 0.004985
152 0.004986
147 0.004991
104 0.004985
88 0.004988
92 0.005948
113 0.005028
139 0.005006
169 0.005016
176 0.005984
182 0.00495
186 0.004992
176 0.005042
99 0.004514
31 0.004988
21 0.004992
49 0.005024
89 0.005002
123 0.006088
144 0.005
117 0.00499
91 0.005999
87 0.005029
104 0.005025
128 0.005016
151 0.005016
167 0.006026
173 0.004011
175 0.004957
179 0.004954
188 0.004988
195 0.004989
106 0.004988
37 0.004987
31 0.004988
62 0.004986
105 0.004987
146 0.004988
169 0.004955
143 0.004031
103 0.004023
87 0.004035
95 0.004031
117 0.004024
160 0.005027
175 0.004026
181 0.004035
183 0.005046
187 0.004977
194 0.005
187 0.005036
89 0.004021
41 0.005019
41 0.004025
69 0.003985
112 0.003991
179 0.003869
188 0.003775
130 0.004548
96 0.003841
95 0.003949
115 0.004655
143 0.004041
175 0.005024
187 0.005002
192 0.004987
196 0.003989
201 0.003991
167 0.00399
78 0.003995
32 0.004012
47 0.004019
84 0.004031
129 0.00396
167 0.003906
182 0.00397
143 0.003935
102 0.00399
93 0.003995
107 0.003036
149 0.003989
171 0.003991
182 0.00399
188 0.003986
190 0.004006
195 0.003975
199 0.004055
160 0.002992
43 0.002994
19 0.003997
36 0.004038
73 0.002992
145 0.002996
169 0.002993
160 0.003027
106 0.004031
85 0.003986
90 0.003991
111 0.003992
139 0.003992
168 0.003988
180 0.00399
186 0.002998
189 0.002993
198 0.001984
181 0.003046
91 0.003025
21 0.00299
27 0.00299
60 0.002993
106 0.003991
148 0.003985
178 0.003985
155 0.002992
108 0.00299
84 0.00299
103 0.002997
129 0.002994
153 0.003039
168 0.003989
170 0.002995
174 0.002992
182 0.002993
190 0.002992
133 0.003041
46 0.004038
14 0.002029
25 0.001983
88 0.001995
135 0.002035
169 0.002993
154 0.002993
101 0.002994
70 0.00299
72 0.002997
92 0.002992
125 0.002992
146 0.003024
158 0.002026
165 0.001976
168 0.001983
120 0.001995
45 0.00199
15 0.001954
34 0.001995
71 0.001968
115 0.001995
155 0.001991
160 0.00296
109 0.002967
75 0.002992
74 0.002025
111 0.001995
138 0.002027
159 0.002026
173 0.002025
177 0.002025
164 0.002027
87 0.002028
21 0.00203
11 0.001995
38 0.002028
77 0.001032
114 0.000998
143 0.001995
113 0.000999
78 0.001996
70 0.001996
86 0.001995
109 0.002036
132 0.001974
151 0.001995
161 0.002026
164 0.002027
138 0.002023
60 0.00198
5 0.000997
22 0.001951
56 0.000998
91 0.002036
122 0.001993
119 0.000998
92 0.001004
72 0.000998
71 0.000997
92 0.001068
112 0.000997
131 0.000999
150 0.00203
155 0.002001
153 0.002027
105 0.000998
23 0.002025
11 0.001027
31 0.001027
64 0.00101
96 0.001995
123 0.000997
116 0.000998
92 0.001996
76 0.000998
86 0.001996
106 0.002033
126 0.000995
144 0.00204
151 0.001996
155 0.001996
159 0.001996
146 0.001997
58 0.000998
21 0.000997
25 0.000997
77 0.0
110 0.000998
130 0.002029
128 0.0
94 0.0
78 0.0
81 0.0
98 0.000968
120 0.0
142 0.0
151 0.0
155 0.0
159 0.0
140 0.000997
75 0.00101
33 0.000997
36 0.000997
65 0.000959
99 0.000965
125 0.000998
138 0.000997
114 0.0
91 0.0
87 0.0
110 0.0
132 0.0
148 0.0
155 0.0
158 0.0
160 0.000998
165 0.000997
172 0.000997
137 0.0
46 0.0
27 0.0
41 0.0
96 0.0
120 0.0
131 0.0
121 0.000999
93 0.0
87 0.000944
95 0.0
112 0.0
131 0.0
152 0.0
157 0.00299
156 0.0
159 0.00201
167 0.000992
177 0.00098
157 0.00101
60 0.0
28 0.000998
36 0.001996
78 0.0
109 0.0
126 0.0
129 0.002049
111 0.002027
88 0.002025
92 0.001997
113 0.0
133 0.0
149 0.0
158 0.002041
159 0.002028
158 0.0
161 0.0
168 0.000963
179 0.002029
179 0.002029
67 0.002042
33 0.00299
47 0.0
80 0.0
115 0.0
136 0.002029
142 0.002028
117 0.000967
98 0.0
94 0.0
106 0.002994
126 0.003005
153 0.000964
170 0.002043
172 0.0
171 0.0
172 0.0
177 0.002994
187 0.002993
198 0.0
146 0.0
67 0.0
37 0.003024
49 0.002042
96 0.001016
146 0.002027
171 0.0
153 0.0
114 0.0
94 0.003073
98 0.001963
128 0.0
154 0.0
174 0.0
184 0.002993
184 0.003022
185 0.000994
194 0.002003
173 0.001021
95 0.0
48 0.0
47 0.003
73 0.003027
125 0.0
162 0.0
186 0.001017
174 0.001987
131 0.00203
104 0.001995
120 0.002992
155 0.000997
180 0.0
195 0.0
202 0.001999
204 0.002026
209 0.0
216 0.0
196 0.000991
103 0.002029
39 0.003024
37 0.000998
82 0.00299
139 0.0
168 0.0
175 0.001004
147 0.002003
111 0.002028
100 0.0
115 0.0
140 0.0
166 0.0
186 0.003024
197 0.002029
202 0.003026
206 0.002001
206 0.0
137 0.000955
51 0.0
24 0.002939
39 0.002991
90 0.0
133 0.0
164 0.0
175 0.002991
148 0.002992
99 0.001994
101 0.00199
128 0.001999
155 0.002001
179 0.001992
193 0.002999
200 0.002991
204 0.001999
210 0.001987
214 0.002992
163 0.003013
65 0.004037
27 0.002992
54 0.003041
115 0.001984
159 0.002028
186 0.001985
179 0.003039
134 0.003029
93 0.001986
98 0.001992
121 0.002994
150 0.004036
174 0.00402
196 0.003016
202 0.003988
207 0.002977
198 0.002992
118 0.001982
43 0.003991
24 0.003957
57 0.001995
101 0.000998
147 0.001991
182 0.003991
185 0.004034
106 0.004008
84 0.00402
102 0.001999
130 0.003031
160 0.001996
181 0.00303
193 0.004005
200 0.002989
196 0.003022
133 0.001991
47 0.004025
18 0.003991
53 0.004023
97 0.004026
152 0.001963
177 0.001992
157 0.00216
110 0.003026
85 0.002979
96 0.002993
122 0.002036
150 0.002027
173 0.004988
186 0.005015
193 0.003986
192 0.003947
105 0.00299
29 0.001992
10 0.001994
30 0.003988
69 0.004987
122 0.001996
150 0.001996
151 0.001994
118 0.004032
88 0.00399
90 0.003988
112 0.003956
138 0.004025
165 0.001991
175 0.001994
180 0.001994
184 0.004019
184 0.004955
101 0.001994
29 0.002992
12 0.001995
31 0.004983
97 0.00299
129 0.004026
147 0.004995
123 0.001993
93 0.002026
82 0.002001
92 0.003991
113 0.004021
145 0.003017
163 0.001997
172 0.002034
176 0.005029
185 0.002994
183 0.004989
122 0.004988
28 0.001995
19 0.002988
45 0.00299
84 0.005034
124 0.005024
158 0.001994
147 0.001996
111 0.002951
88 0.005984
98 0.00299
122 0.005028
148 0.004986
170 0.003001
177 0.003
181 0.002983
185 0.004972
187 0.005042
119 0.003017
46 0.003956
25 0.004046
44 0.005984
108 0.003003
147 0.005985
171 0.00602
140 0.003986
101 0.004009
86 0.002976
96 0.006023
121 0.00602
156 0.002961
172 0.004005
181 0.003993
185 0.006983
185 0.003991
131 0.004991
54 0.004991
26 0.003982
48 0.004015
86 0.00399
127 0.00599
160 0.005979
160 0.003986
120 0.003998
93 0.004975
92 0.006018
129 0.00299
156 0.005977
174 0.005948
184 0.003988
186 0.002992
191 0.002992
192 0.006018
140 0.006009
36 0.003655
18 0.003947
39 0.003999
77 0.00597
138 0.003951
156 0.003985
141 0.006982
107 0.006982
87 0.00399
97 0.003995
120 0.00399
145 0.006025
164 0.006949
177 0.004987
180 0.00399
185 0.004986
186 0.003986
121 0.003989
44 0.006984
19 0.005949
46 0.003994
85 0.004008
123 0.003985
150 0.006982
152 0.005983
113 0.004944
91 0.004965
91 0.003989
125 0.004951
149 0.003986
167 0.006958
176 0.007027
181 0.003969
186 0.003985
191 0.003981
163 0.006977
78 0.006981
23 0.004989
34 0.005988
69 0.005938
134 0.00399
161 0.003988
157 0.007002
123 0.006982
94 0.003989
98 0.004986
117 0.004986
144 0.006981
174 0.007978
183 0.005986
187 0.004986
188 0.005018
198 0.004989
202 0.004954
153 0.00698
64 0.007016
25 0.004992
44 0.005982
85 0.004956
146 0.007969
177 0.007949
176 0.00502
131 0.00602
96 0.005989
99 0.00499
125 0.004943
153 0.007949
179 0.007963
186 0.004945
188 0.005944
190 0.004944
188 0.006981
103 0.007972
40 0.005953
28 0.00597
52 0.004988
122 0.004975
163 0.004975
184 0.007494
142 0.007978
99 0.004987
89 0.004987
105 0.004988
132 0.007978
168 0.006981
185 0.005939
192 0.005986
196 0.005977
157 0.005985
67 0.005975
20 0.007955
24 0.007976
55 0.007978
114 0.005951
151 0.005019
171 0.006024
132 0.007012
96 0.006987
86 0.005998
99 0.006983
143 0.005944
166 0.005995
180 0.006
189 0.006993
190 0.007022
154 0.005991
64 0.005988
14 0.00599
22 0.007026
57 0.007022
98 0.006973
131 0.006983
138 0.006982
106 0.006981
83 0.005986
85 0.006985
105 0.006976
128 0.005984
149 0.005981
166 0.005989
172 0.005984
175 0.007021
163 0.005984
90 0.00594
10 0.006982
29 0.006981
66 0.00698
101 0.006986
126 0.006967
124 0.006045
107 0.00599
83 0.005984
79 0.005976
96 0.00595
126 0.004981
145 0.006796
159 0.006985
164 0.006979
168 0.005989
169 0.006976
117 0.007015
42 0.00598
15 0.006975
28 0.005985
75 0.007022
112 0.005987
142 0.005993
131 0.005985
83 0.005982
79 0.005989
92 0.005988
115 0.006016
136 0.007009
154 0.00695
160 0.006018
165 0.006953
169 0.005
161 0.004981
74 0.005987
28 0.00599
43 0.005972
80 0.005985
117 0.005981
148 0.006023
153 0.005986
107 0.00599
82 0.005975
85 0.004989
105 0.004995
130 0.005021
156 0.005021
166 0.004993
173 0.005527
177 0.005794
165 0.006028
96 0.005523
34 0.005836
26 0.005985
55 0.005947
94 0.004985
129 0.003989
154 0.004984
145 0.004986
100 0.004986
85 0.00499
105 0.004956
130 0.004968
153 0.004996
167 0.005018
170 0.005021
174 0.006051
181 0.004956
185 0.004983
144 0.004981
60 0.005018
17 0.004987
45 0.004989
96 0.005018
129 0.004974
148 0.004991
134 0.00499
103 0.005018
84 0.004985
92 0.003985
113 0.003957
137 0.003987
157 0.003978
169 0.003976
172 0.005021
178 0.005018
187 0.004997
190 0.00498
138 0.005022
53 0.004978
18 0.004445
38 0.00399
77 0.004987
116 0.004987
146 0.003995
147 0.00399
105 0.005017
86 0.004974
96 0.004987
118 0.00497
143 0.004987
165 0.004988
180 0.004996
181 0.004014
183 0.004008
187 0.00503
194 0.005674
205 0.003954
131 0.004955
33 0.004986
23 0.004955
49 0.004027
93 0.003991
139 0.004049
177 0.003991
165 0.004043
121 0.004025
91 0.005018
89 0.002976
118 0.002991
155 0.003991
180 0.003988
187 0.003963
190 0.003981
192 0.003989
199 0.003989
189 0.003989
110 0.003992
43 0.002989
29 0.002967
52 0.00295
111 0.003007
172 0.004576
198 0.003603
156 0.004114
106 0.00435
91 0.003962
105 0.00399
143 0.004153
171 0.003013
190 0.002993
199 0.003989
204 0.00299
208 0.002994
160 0.003994
66 0.003988
21 0.002951
39 0.003987
79 0.003984
128 0.003951
171 0.002991
192 0.003977
151 0.002994
105 0.003989
91 0.002992
105 0.002977
155 0.003011
181 0.002993
199 0.002991
203 0.002992
207 0.002991
209 0.00399
168 0.002959
41 0.003027
9 0.001994
24 0.001991
63 0.001995
110 0.003017
170 0.002998
168 0.002993
111 0.002991
86 0.00299
88 0.001993
110 0.003992
139 0.001994
171 0.001995
184 0.002987
191 0.002001
194 0.002962
198 0.001959
129 0.002985
38 0.002993
6 0.002027
29 0.002026
71 0.001993
116 0.003017
151 0.002199
157 0.001986
119 0.001009
87 0.001004
81 0.001997
96 0.002991
142 0.002992
165 0.002988
182 0.002997
188 0.00303
192 0.002026
196 0.002992
161 0.001943
42 0.003018
9 0.001999
22 0.001983
59 0.002026
106 0.002028
165 0.001995
162 0.001995
105 0.002019
80 0.001995
84 0.001963
105 0.002997
133 0.001995
164 0.001995
176 0.001995
181 0.000959
185 0.00099
189 0.000959
103 0.001994
30 0.002029
16 0.00198
46 0.001993
90 0.001027
135 0.001028
170 0.001995
154 0.001994
103 0.000984
78 0.000998
82 0.001995
106 0.000998
153 0.001995
171 0.002016
180 0.000997
184 0.000998
186 0.002028
147 0.001982
60 0.00101
14 0.00202
24 0.001981
60 0.001035
106 0.000999
144 0.000997
154 0.001995
112 0.001995
84 0.000998
88 0.000998
110 0.001997
139 0.000967
162 0.000987
174 0.0
180 0.0
184 0.0
189 0.001992
166 0.001004
28 0.001009
5 0.000954
24 0.000998
77 0.002036
119 0.00203
149 0.002037
150 0.0
117 0.000998
83 0.000997
83 0.0
101 0.0
127 0.0
162 0.002086
172 0.000995
177 0.000995
184 0.002026
190 0.000959
164 0.0
75 0.0
18 0.0
22 0.0
58 0.0
102 0.000973
141 0.0
160 0.000998
125 0.000998
94 0.000997
90 0.000996
109 0.001
136 0.0
159 0.0
174 0.001036
183 0.0
186 0.0
192 0.0
197 0.0
94 0.0
28 0.0
19 0.0
59 0.000998
106 0.000998
149 0.0
179 0.000998
166 0.0
103 0.001002
83 0.000998
91 0.001003
116 0.000964
162 0.0
177 0.000967
183 0.000997
188 0.001003
193 0.0
172 0.001035
88 0.0
28 0.000999
26 0.000997
59 0.0
105 0.0
149 0.001035
167 0.0
120 0.000946
91 0.0
92 0.0
112 0.003045
142 0.001995
175 0.001961
184 0.001032
192 0.002
196 0.00303
199 0.000998
138 0.0
28 0.002975
15 0.0
44 0.0
87 0.0
130 0.002992
160 0.002992
148 0.000999
110 0.0
88 0.00099
90 0.003039
110 0.002994
146 0.0
172 0.002996
184 0.001013
187 0.0
192 0.0
197 0.002992
168 0.003035
47 0.0
11 0.0
22 0.00096
58 0.004036
103 0.003025
153 0.001011
161 0.001994
114 0.0
91 0.0
92 0.000954
112 0.002991
140 0.002017
165 0.000956
186 0.0
191 0.0
195 0.003028
201 0.003025
190 0.0
74 0.002993
17 0.0
29 0.0
68 0.000997
115 0.001995
158 0.002
181 0.0
147 0.0
103 0.0
88 0.003022
99 0.003038
134 0.0
169 0.003027
188 0.0
194 0.0
198 0.0
198 0.002977
152 0.003032
42 0.0
18 0.000997
35 0.0
75 0.002047
124 0.003026
178 0.0
174 0.002026
107 0.000972
87 0.001
95 0.001006
121 0.003025
152 0.002956
183 0.001031
194 0.0
200 0.000958
200 0.002043
158 0.002985
40 0.0
13 0.00399
50 0.0
97 0.0
142 0.0
174 0.003002
166 0.002994
106 0.0
85 0.00099
91 0.001016
114 0.002024
143 0.002026
168 0.002993
188 0.002992
192 0.002989
180 0.0
97 0.0
22 0.0
5 0.002046
24 0.003024
78 0.000965
119 0.000978
148 0.001095
144 0.003032
110 0.003031
77 0.003014
88 0.003991
118 0.000998
143 0.001045
161 0.000966
171 0.003023
177 0.003991
177 0.0
122 0.000997
40 0.000997
7 0.00299
17 0.002992
77 0.003032
114 0.003023
145 0.0
129 0.000998
97 0.0
80 0.002982
84 0.002982
112 0.0
136 0.0
155 0.003005
165 0.004045
171 0.003998
180 0.00296
177 0.002993
85 0.000998
23 0.002998
13 0.000964
37 0.005018
77 0.004037
130 0.003005
155 0.002008
141 0.002983
102 0.003966
78 0.004025
92 0.00296
116 0.003024
148 0.001979
162 0.002002
168 0.001978
173 0.004043
177 0.00399
151 0.003988
74 0.0
26 0.0
23 0.003995
49 0.004987
117 0.002992
155 0.00299
158 0.000963
115 0.003047
85 0.003013
83 0.003988
103 0.003988
139 0.00299
161 0.001971
173 0.002028
178 0.005017
181 0.004002
170 0.003996
93 0.004989
20 0.003002
20 0.003013
49 0.002035
90 0.005011
129 0.005024
159 0.003002
138 0.002993
101 0.004009
83 0.004988
89 0.004988
127 0.005034
152 0.005038
169 0.002983
175 0.002989
180 0.001994
186 0.003989
179 0.004986
107 0.004987
21 0.001999
13 0.00307
39 0.001991
78 0.005024
138 0.002996
151 0.004987
127 0.005994
89 0.003006
83 0.003
96 0.00299
118 0.005022
143 0.005988
165 0.003957
173 0.004023
178 0.002996
184 0.005019
164 0.002988
80 0.004032
23 0.004956
24 0.002993
56 0.002981
98 0.002976
136 0.005981
160 0.00595
137 0.002988
103 0.002981
89 0.002981
95 0.004987
134 0.002026
158 0.004986
175 0.004987
183 0.002997
183 0.002992
187 0.002993
195 0.006014
202 0.006018
125 0.00299
43 0.003953
18 0.002995
35 0.006982
106 0.002991
150 0.005983
180 0.004977
153 0.002967
106 0.002992
84 0.002992
92 0.005997
115 0.006036
153 0.003001
173 0.004005
183 0.002014
185 0.00703
192 0.003032
198 0.006017
168 0.005981
54 0.003003
21 0.002989
32 0.002983
68 0.006029
116 0.006979
175 0.004001
191 0.004005
155 0.002964
107 0.00698
93 0.002989
117 0.005984
147 0.005986
180 0.002995
192 0.003949
197 0.00395
200 0.006983
206 0.006023
164 0.004989
65 0.004989
16 0.003019
19 0.005984
78 0.003003
123 0.00603
160 0.005953
164 0.003008
123 0.00399
92 0.003999
87 0.007028
103 0.006979
138 0.004099
164 0.003945
180 0.003866
189 0.004986
196 0.003005
203 0.005986
192 0.006943
105 0.006982
16 0.002994
13 0.003997
42 0.005014
104 0.007979
145 0.007977
172 0.003992
158 0.00399
116 0.002991
87 0.003984
100 0.003989
126 0.006982
155 0.007949
180 0.004034
190 0.004973
194 0.004986
198 0.00702
205 0.006981
175 0.003978
77 0.00399
19 0.004987
31 0.00399
73 0.003989
136 0.007978
169 0.007977
170 0.004995
129 0.004989
93 0.003967
83 0.007975
105 0.007981
133 0.004967
160 0.004938
177 0.005001
189 0.003991
194 0.004005
200 0.007983
149 0.007986
59 0.004998
19 0.004986
25 0.003896
74 0.007978
106 0.007979
168 0.004988
188 0.003993
157 0.005813
88 0.003976
88 0.004945
118 0.007956
139 0.006955
173 0.004957
187 0.004976
194 0.005941
200 0.007013
190 0.007995
109 0.005977
32 0.005031
12 0.004936
58 0.003988
106 0.003981
164 0.00798
181 0.007993
154 0.00497
107 0.006013
87 0.005987
102 0.006984
129 0.006989
159 0.005985
179 0.005982
191 0.004986
199 0.005014
202 0.005981
135 0.00698
41 0.006982
6 0.00399
16 0.005984
53 0.005985
115 0.006952
153 0.006951
169 0.005943
141 0.006015
102 0.005946
88 0.00494
107 0.004962
144 0.00603
166 0.006025
178 0.006968
183 0.005985
186 0.006016
192 0.004954
186 0.007977
106 0.006978
25 0.005962
3 0.005937
47 0.005989
93 0.00599
146 0.005973
163 0.006992
138 0.006033
100 0.006308
82 0.005024
88 0.006006
118 0.006997
145 0.006977
166 0.005995
176 0.006004
184 0.005951
190 0.00598
190 0.005985
122 0.005979
38 0.005987
11 0.005983
36 0.005984
79 0.00598
128 0.006954
165 0.006003
164 0.005981
118 0.006001
81 0.005982
87 0.005987
118 0.00598
145 0.005978
166 0.005975
178 0.00597
183 0.00498
186 0.005927
181 0.005977
111 0.006017
24 0.005981
17 0.005986
57 0.005954
104 0.005981
161 0.005989
181 0.00598
149 0.006014
103 0.005939
85 0.005986
101 0.006008
128 0.005998
156 0.005994
180 0.005983
188 0.005984
195 0.005983
181 0.005985
96 0.00499
25 0.004953
10 0.005964
45 0.004944
90 0.005026
133 0.005023
164 0.00598
161 0.005957
108 0.005984
85 0.005986
101 0.005995
127 0.004978
154 0.004953
172 0.00503
181 0.004945
187 0.004984
192 0.004944
194 0.004986
139 0.004982
47 0.006037
6 0.004974
26 0.005988
97 0.005019
138 0.00403
163 0.004997
148 0.004994
110 0.004952
84 0.004991
91 0.004981
113 0.005002
141 0.003993
163 0.004987
176 0.004986
184 0.004991
190 0.005023
196 0.003945
147 0.005053
55 0.004986
13 0.004025
20 0.003961
69 0.003936
116 0.003989
156 0.003976
174 0.00399
148 0.00394
98 0.003989
89 0.004988
115 0.003971
143 0.004003
167 0.00401
179 0.003998
184 0.005028
188 0.005952
195 0.003931
199 0.005015
152 0.005054
59 0.004987
13 0.00399
44 0.005035
107 0.004014
154 0.004021
186 0.00399
171 0.004044
120 0.003994
85 0.003988
93 0.003989
118 0.002992
149 0.002992
173 0.003026
189 0.00399
196 0.005037
200 0.003989
167 0.002962
75 0.002957
20 0.002959
18 0.002963
64 0.003035
114 0.003938
161 0.003958
191 0.002959
173 0.004004
105 0.00296
104 0.00399
143 0.003616
178 0.00299
204 0.002988
219 0.002952
225 0.002966
