94 0.01496
75 0.000981
67 0.001002
76 0.000999
91 0.001996
111 0.000985
131 0.001001
144 0.000998
144 0.001005
137 0.001001
134 0.0
139 0.001005
147 0.0
156 0.0
156 0.000997
118 0.00198
78 0.001957
64 0.000964
73 0.000955
89 0.000998
108 0.000965
129 0.000942
141 0.000961
139 0.000999
134 0.000999
132 0.0
137 0.000996
144 0.001959
153 0.001959
164 0.000999
134 0.000998
93 0.000997
75 0.002031
78 0.002016
97 0.000997
124 0.002992
148 0.000998
155 0.000994
153 0.001996
145 0.001995
143 0.00197
147 0.001051
152 0.000997
157 0.001995
170 0.001965
172 0.002001
120 0.001032
89 0.002026
89 0.001996
106 0.000997
123 0.001995
143 0.002034
155 0.002994
157 0.002992
149 0.002027
142 0.001995
139 0.002028
141 0.002027
146 0.001995
159 0.001996
143 0.002028
91 0.000997
71 0.001041
74 0.000992
87 0.003025
105 0.002993
129 0.001996
143 0.002007
144 0.002033
137 0.003023
131 0.001996
132 0.002044
138 0.002028
146 0.001995
152 0.001995
111 0.000997
71 0.003037
56 0.003035
60 0.002992
81 0.002027
99 0.001979
117 0.002992
130 0.002026
124 0.003025
120 0.002993
119 0.002012
124 0.001985
129 0.002994
141 0.002993
149 0.002997
125 0.002958
80 0.002993
53 0.001994
58 0.003091
79 0.003026
106 0.003027
124 0.003052
131 0.001982
128 0.002028
124 0.001995
124 0.002992
130 0.002993
142 0.003002
151 0.00299
163 0.003022
157 0.003009
101 0.002994
74 0.004017
79 0.002993
101 0.002025
120 0.002994
139 0.002955
150 0.004025
150 0.004004
142 0.002991
139 0.003036
140 0.002993
146 0.004017
160 0.002993
171 0.00304
177 0.003037
149 0.004024
112 0.002992
95 0.004038
100 0.003977
114 0.003978
132 0.003989
156 0.002992
165 0.002992
164 0.003986
159 0.003014
160 0.003991
163 0.003958
171 0.003979
183 0.003989
191 0.002991
169 0.002999
132 0.004954
112 0.003975
113 0.003988
122 0.003956
137 0.002945
164 0.003969
171 0.003958
170 0.004965
167 0.004987
164 0.003991
166 0.003991
169 0.003983
178 0.00399
181 0.00399
153 0.00399
115 0.003989
94 0.003986
98 0.003966
109 0.004048
128 0.003981
137 0.003989
141 0.00402
138 0.004988
134 0.004958
130 0.004987
133 0.004986
144 0.00399
150 0.003975
131 0.004024
68 0.004955
54 0.00399
57 0.004987
69 0.004987
92 0.003989
108 0.004989
117 0.004988
119 0.004967
116 0.005015
117 0.004975
122 0.005016
128 0.005019
146 0.00399
155 0.004038
163 0.004993
145 0.004974
74 0.004985
44 0.004988
38 0.004011
48 0.005953
64 0.005984
87 0.004987
102 0.004986
107 0.005028
106 0.005035
103 0.004937
103 0.005039
109 0.004977
118 0.005023
127 0.005017
136 0.004988
148 0.005986
155 0.00601
162 0.003999
161 0.004986
74 0.004987
35 0.005021
27 0.004986
40 0.005959
58 0.005985
80 0.004988
93 0.005999
104 0.005984
106 0.005984
100 0.006043
97 0.004988
100 0.006019
112 0.006012
123 0.005984
136 0.004987
142 0.005984
154 0.005985
162 0.005985
157 0.005985
109 0.005024
68 0.004987
53 0.005984
61 0.005984
83 0.005016
110 0.006851
131 0.005055
137 0.006026
135 0.005983
129 0.005985
127 0.005952
131 0.005984
137 0.005996
149 0.004986
159 0.005985
169 0.005985
172 0.006024
125 0.007021
99 0.005984
94 0.006041
104 0.005943
125 0.006003
144 0.006029
160 0.005984
168 0.006153
165 0.006017
162 0.006982
161 0.006981
166 0.005946
176 0.007544
184 0.006955
193 0.005982
196 0.006982
154 0.006982
130 0.006981
126 0.005986
137 0.006008
151 0.006024
169 0.007017
184 0.006982
191 0.006076
185 0.007019
182 0.006019
182 0.007017
185 0.006981
195 0.007978
201 0.007978
205 0.006981
193 0.006981
162 0.007031
145 0.007017
148 0.006982
163 0.006041
183 0.007979
200 0.006997
203 0.006981
202 0.007025
195 0.007979
191 0.007975
194 0.00702
195 0.006982
201 0.007027
206 0.006982
187 0.00698
161 0.006986
149 0.007956
159 0.006944
170 0.006981
183 0.006982
196 0.007964
197 0.00795
191 0.006951
186 0.006947
183 0.006985
185 0.007905
190 0.007015
194 0.007981
170 0.00798
141 0.007978
139 0.007977
143 0.00798
153 0.007981
170 0.007982
183 0.007979
191 0.006941
188 0.007016
181 0.007019
177 0.007939
180 0.007018
184 0.00701
182 0.007001
148 0.007011
132 0.006984
131 0.007979
136 0.00797
151 0.007977
164 0.007031
178 0.006239
180 0.007147
173 0.006984
164 0.007015
164 0.007986
165 0.007979
170 0.007979
166 0.007017
139 0.007018
121 0.007003
119 0.00702
131 0.00702
143 0.006847
155 0.00698
165 0.006982
163 0.006978
157 0.007022
153 0.00602
153 0.007031
158 0.007017
163 0.007023
157 0.007016
130 0.007003
111 0.007019
113 0.007015
123 0.006981
134 0.006981
154 0.007013
159 0.007014
153 0.005992
144 0.007016
142 0.006026
143 0.005902
146 0.006035
152 0.006018
138 0.007011
111 0.007038
98 0.007015
99 0.007018
109 0.007013
124 0.007025
137 0.00601
139 0.006008
129 0.005987
119 0.006015
118 0.005981
121 0.005986
130 0.005983
129 0.005987
97 0.005985
66 0.006981
61 0.007013
74 0.007017
89 0.00602
112 0.005982
121 0.006001
118 0.00602
109 0.00602
104 0.005972
104 0.006019
110 0.006019
118 0.006021
102 0.005986
48 0.005984
39 0.005984
49 0.005018
70 0.006035
88 0.006025
103 0.006018
106 0.006042
98 0.006039
90 0.006025
88 0.006019
92 0.005984
100 0.006011
102 0.006016
67 0.004991
37 0.006019
29 0.00499
43 0.005009
60 0.00499
78 0.005028
92 0.005023
93 0.005017
83 0.00598
77 0.006024
78 0.006021
90 0.006018
101 0.006017
107 0.005983
76 0.005025
32 0.005013
26 0.005027
37 0.004973
53 0.005021
72 0.005019
93 0.005014
94 0.005026
88 0.004983
83 0.004024
87 0.005995
95 0.005014
105 0.005024
122 0.005008
121 0.004973
81 0.005017
46 0.005024
38 0.005028
54 0.005036
73 0.005035
102 0.005021
109 0.005014
101 0.004987
93 0.004987
89 0.004992
94 0.004043
101 0.004025
112 0.004023
122 0.004023
132 0.005033
142 0.00502
111 0.005045
43 0.005066
39 0.005022
54 0.005028
73 0.005022
92 0.005022
111 0.003988
113 0.00399
106 0.003989
102 0.004017
103 0.004031
112 0.00399
123 0.004028
142 0.004003
152 0.003992
159 0.004014
166 0.004037
175 0.005039
138 0.004039
82 0.004023
55 0.004007
58 0.004024
73 0.004029
98 0.004027
114 0.004045
127 0.003988
122 0.00399
116 0.003992
116 0.004
122 0.003034
135 0.003993
147 0.004036
158 0.004036
168 0.004043
176 0.004021
184 0.004038
191 0.004023
187 0.00399
117 0.002975
81 0.00399
78 0.004021
93 0.00399
112 0.002992
136 0.003015
152 0.00305
156 0.00305
149 0.00399
143 0.004023
142 0.00399
152 0.00399
167 0.00399
178 0.003989
187 0.003051
193 0.002998
200 0.002993
209 0.002992
184 0.00299
129 0.002991
93 0.002992
87 0.002993
104 0.002994
127 0.002993
152 0.002993
159 0.003948
152 0.00395
142 0.002992
138 0.003035
141 0.003033
149 0.003045
159 0.003034
171 0.002994
180 0.003032
192 0.002988
188 0.00303
119 0.002991
82 0.001986
75 0.002021
88 0.002992
108 0.001995
133 0.002993
150 0.001991
156 0.001995
149 0.001991
142 0.002994
141 0.002993
149 0.00299
162 0.002994
171 0.003039
181 0.002992
191 0.00304
196 0.001995
136 0.001994
90 0.001995
77 0.001996
84 0.001996
102 0.003039
136 0.003002
153 0.002994
157 0.001963
151 0.002992
145 0.002993
146 0.002035
150 0.002031
164 0.002028
176 0.002028
187 0.001995
197 0.001995
208 0.001995
144 0.00296
103 0.00196
93 0.002958
107 0.002991
129 0.002942
150 0.001992
169 0.001996
180 0.001979
174 0.001995
165 0.001963
165 0.002009
168 0.001987
181 0.001976
191 0.00199
199 0.000998
212 0.000997
194 0.001994
139 0.000998
103 0.000998
95 0.001995
110 0.001953
129 0.001957
151 0.001963
169 0.001942
172 0.001958
163 0.001967
157 0.001051
160 0.000961
166 0.001034
176 0.001
187 0.000953
198 0.000949
184 0.000992
133 0.000999
100 0.00096
96 0.001942
123 0.000964
143 0.001964
167 0.001033
185 0.000997
182 0.001054
175 0.001032
169 0.001018
167 0.000976
174 0.000989
183 0.000998
192 0.000995
199 0.000998
138 0.0
100 0.0
86 0.0
95 0.000994
115 0.000974
137 0.000977
157 0.001011
165 0.000991
161 0.000997
155 0.000973
150 0.000995
154 0.0
169 0.0
181 0.0
194 0.0
154 0.0
108 0.0
91 0.0
97 0.0
111 0.000962
140 0.001002
163 0.001017
176 0.001023
175 0.000986
162 0.0
159 0.0
162 0.0
169 0.0
180 0.0
189 0.0
164 0.0
114 0.0
83 0.0
84 0.0
97 0.0
115 0.0
147 0.0
154 0.0
147 0.0
137 0.0
133 0.0
135 0.0
142 0.0
151 0.0
137 0.000999
87 0.001001
53 0.000973
48 0.000935
72 0.000965
94 0.0
116 0.0
133 0.0
134 0.0
124 0.0
120 0.0
122 0.0
126 0.0
139 0.000959
149 0.000997
83 0.001008
41 0.001021
30 0.001001
47 0.000951
67 0.000984
89 0.000996
110 0.000998
120 0.0
113 0.0
105 0.0
103 0.000957
106 0.000959
121 0.001024
132 0.000995
118 0.000965
81 0.000956
25 0.0
19 0.001997
33 0.001964
61 0.0
86 0.0
106 0.0
112 0.000965
105 0.000955
97 0.000953
97 0.000997
109 0.0
119 0.0
127 0.000966
129 0.000995
81 0.000987
30 0.000961
27 0.000958
41 0.000954
63 0.001957
88 0.001039
119 0.00098
119 0.000994
108 0.0
104 0.0
107 0.000986
115 0.000995
125 0.000998
141 0.001002
149 0.000994
110 0.000971
61 0.00196
42 0.001957
59 0.001966
82 0.00197
115 0.000995
133 0.000979
134 0.000955
125 0.000995
115 0.002028
114 0.000966
118 0.000999
125 0.000998
136 0.001955
148 0.001954
95 0.001995
55 0.001967
44 0.000998
58 0.000965
78 0.000998
103 0.001993
125 0.002018
133 0.000967
123 0.000981
112 0.000968
106 0.001997
109 0.001994
124 0.001994
137 0.001996
118 0.000997
66 0.000999
34 0.001951
30 0.002964
46 0.001946
68 0.00295
93 0.001943
120 0.000979
125 0.000967
117 0.001969
107 0.001
108 0.001975
116 0.002004
130 0.001961
141 0.002021
119 0.000993
69 0.002961
38 0.002988
38 0.002045
57 0.000998
80 0.001993
105 0.004014
128 0.002003
122 0.002001
113 0.001973
108 0.001963
112 0.001959
121 0.001994
134 0.002962
147 0.002983
111 0.001995
64 0.001979
45 0.001993
62 0.001995
83 0.001999
110 0.003991
133 0.002962
138 0.002964
131 0.002992
119 0.001995
117 0.002991
118 0.002988
130 0.001968
141 0.001989
142 0.002993
67 0.001999
42 0.002031
42 0.003982
57 0.002992
88 0.002994
114 0.002993
127 0.00296
124 0.002966
114 0.003041
106 0.00198
107 0.001955
115 0.002006
135 0.002022
128 0.001994
77 0.003993
35 0.003957
27 0.002989
42 0.002991
65 0.002997
90 0.003989
111 0.003954
117 0.002963
106 0.001983
99 0.002018
100 0.001993
110 0.002032
122 0.003992
134 0.003965
99 0.002953
47 0.002991
22 0.002992
27 0.004001
47 0.003953
80 0.003035
107 0.002992
123 0.003989
116 0.003006
110 0.002993
105 0.003957
111 0.003989
125 0.002961
138 0.003
152 0.002991
124 0.004004
70 0.004007
42 0.003986
48 0.003024
68 0.003989
111 0.003026
131 0.003028
134 0.003991
123 0.004982
114 0.005004
111 0.003988
114 0.003989
127 0.002992
138 0.00402
149 0.003988
107 0.004019
52 0.003958
28 0.003027
41 0.004014
63 0.00399
91 0.004987
113 0.004988
116 0.004013
106 0.003978
100 0.003981
97 0.00402
104 0.004024
120 0.00399
131 0.003996
117 0.004007
57 0.00402
18 0.004019
12 0.004956
29 0.004956
62 0.00402
87 0.003989
107 0.004986
109 0.00599
100 0.005985
91 0.004959
94 0.003986
109 0.003989
122 0.003949
134 0.003988
147 0.004987
118 0.004988
34 0.004025
4 0.00399
7 0.00399
28 0.004987
54 0.00599
87 0.003991
101 0.004988
93 0.004986
88 0.004987
88 0.004987
96 0.004986
108 0.004987
127 0.003987
141 0.003989
154 0.004988
166 0.004986
127 0.005984
39 0.004988
17 0.005984
43 0.004982
69 0.004986
95 0.004986
119 0.005985
125 0.005954
111 0.004998
104 0.005016
103 0.005019
112 0.005952
124 0.005936
142 0.004982
156 0.00601
172 0.004983
170 0.004986
108 0.004987
49 0.00598
29 0.00595
43 0.00502
66 0.005983
94 0.005985
119 0.006952
128 0.006939
122 0.005984
106 0.005992
108 0.005963
118 0.004986
131 0.004986
144 0.004986
156 0.005956
168 0.005936
140 0.00598
73 0.005983
34 0.005984
31 0.006952
49 0.006932
94 0.006982
121 0.006949
136 0.004954
131 0.00694
117 0.005014
113 0.005983
116 0.00699
129 0.005994
141 0.005982
153 0.005942
167 0.006952
177 0.006981
88 0.006982
40 0.006978
35 0.005983
54 0.003004
79 0.006023
105 0.006013
127 0.006967
131 0.005984
122 0.005954
115 0.005984
115 0.006948
121 0.006944
141 0.006947
153 0.006938
172 0.005983
174 0.005981
119 0.00698
62 0.006981
41 0.007976
54 0.006983
78 0.006981
106 0.005997
133 0.006944
146 0.006943
133 0.006953
124 0.006966
123 0.005983
130 0.007015
142 0.00698
153 0.007954
169 0.007941
175 0.006981
123 0.006979
72 0.006981
55 0.007979
61 0.00795
99 0.00698
129 0.006966
153 0.00602
151 0.00698
139 0.006891
132 0.00798
130 0.00798
139 0.006981
150 0.006981
162 0.006981
175 0.007978
155 0.007978
57 0.007979
51 0.007978
66 0.005986
100 0.007973
120 0.006978
146 0.007978
156 0.007979
146 0.006943
136 0.007009
131 0.006986
135 0.007942
151 0.007026
165 0.006995
164 0.007947
110 0.007939
55 0.006985
48 0.006971
58 0.006981
88 0.00798
115 0.008011
139 0.006983
149 0.00698
143 0.00698
130 0.007018
130 0.007013
136 0.007972
146 0.007978
169 0.007008
165 0.007013
113 0.007015
66 0.007012
52 0.006982
70 0.006981
94 0.006984
121 0.007948
152 0.007014
156 0.007012
144 0.007016
138 0.006984
139 0.006999
148 0.006986
161 0.007028
175 0.00698
189 0.007012
160 0.007016
105 0.006032
78 0.005969
91 0.005984
116 0.006977
143 0.006982
169 0.007993
179 0.006982
173 0.006968
165 0.007018
162 0.007024
166 0.007017
180 0.00701
192 0.007017
207 0.006972
194 0.006943
144 0.006985
117 0.006947
116 0.006021
137 0.005982
161 0.006003
185 0.006023
201 0.005986
202 0.00698
190 0.007015
183 0.007011
185 0.005978
199 0.006961
211 0.006977
222 0.005967
226 0.005973
170 0.005988
133 0.005952
125 0.005982
136 0.006016
156 0.006039
185 0.005983
205 0.005983
212 0.005981
199 0.006985
193 0.006016
193 0.005968
199 0.005984
213 0.006016
222 0.006016
233 0.006007
208 0.006014
159 0.00599
130 0.005978
138 0.005012
154 0.005018
188 0.005019
203 0.004985
208 0.004986
202 0.005988
194 0.005988
190 0.006015
196 0.006017
203 0.006004
213 0.005984
221 0.004982
229 0.00499
189 0.005018
129 0.004993
129 0.004987
144 0.004986
164 0.004987
184 0.004987
204 0.005984
205 0.005984
195 0.005982
188 0.00598
187 0.005016
194 0.005017
200 0.005015
216 0.004985
227 0.00499
211 0.004959
163 0.005017
133 0.004976
136 0.005023
150 0.003982
166 0.004986
186 0.004985
199 0.003989
195 0.004986
182 0.004988
176 0.004989
180 0.004993
186 0.00499
195 0.005018
201 0.004987
210 0.004985
175 0.00399
132 0.004022
115 0.00399
120 0.004033
141 0.00399
166 0.004956
187 0.004948
188 0.004985
180 0.004986
172 0.00499
170 0.004993
177 0.004986
183 0.004988
191 0.005052
202 0.005025
199 0.004952
139 0.005016
106 0.004998
113 0.00402
126 0.004021
143 0.003998
162 0.00399
172 0.004023
167 0.003952
160 0.003995
157 0.003989
158 0.003957
163 0.004956
175 0.004008
187 0.005005
195 0.003981
156 0.003961
110 0.003958
90 0.003959
96 0.003982
117 0.00399
137 0.003989
156 0.003962
167 0.003957
164 0.003957
153 0.002983
148 0.002993
151 0.002993
159 0.002993
167 0.003946
178 0.003976
188 0.003988
168 0.003988
108 0.003964
88 0.003957
91 0.002958
105 0.002992
122 0.002991
152 0.002989
157 0.003049
144 0.003998
136 0.003989
131 0.002991
132 0.002992
139 0.00299
150 0.002963
159 0.002992
163 0.00305
125 0.003031
83 0.001993
69 0.003959
81 0.003959
106 0.003961
127 0.003998
143 0.002952
142 0.003025
133 0.002996
123 0.00299
122 0.002992
127 0.002959
136 0.003023
145 0.001949
148 0.002936
103 0.00299
59 0.002953
54 0.002045
65 0.002993
84 0.003025
105 0.002993
130 0.002993
133 0.003
128 0.002987
118 0.00296
114 0.001977
122 0.002996
132 0.001994
147 0.001995
153 0.001992
117 0.001997
72 0.001994
54 0.002017
64 0.001995
82 0.002957
104 0.003008
127 0.002931
140 0.00296
133 0.002997
125 0.002999
124 0.002996
130 0.002993
138 0.002005
151 0.001994
162 0.001995
141 0.001993
92 0.001989
66 0.001988
65 0.001965
91 0.00196
113 0.001879
135 0.000997
144 0.003004
136 0.001995
127 0.00199
121 0.001984
119 0.001996
129 0.001991
138 0.001953
149 0.001949
137 0.00196
65 0.00201
53 0.001998
60 0.001966
77 0.000972
109 0.000998
130 0.000982
140 0.001951
134 0.001983
124 0.000998
117 0.001996
121 0.002012
127 0.001964
144 0.001958
138 0.001964
87 0.001996
44 0.001994
35 0.000996
48 0.000993
67 0.001001
91 0.001004
113 0.001006
120 0.000997
112 0.001955
104 0.000956
102 0.001964
108 0.001967
118 0.000996
131 0.000957
128 0.000965
76 0.001
34 0.000973
23 0.001011
33 0.0
60 0.001
84 0.000997
104 0.0
110 0.000997
102 0.0
96 0.000953
97 0.000975
105 0.001002
116 0.000998
129 0.000996
140 0.0
114 0.0
48 0.000993
27 0.000998
31 0.000998
64 0.000996
89 0.0
112 0.0
121 0.0
113 0.0
105 0.0
103 0.000997
108 0.000984
117 0.000993
132 0.000861
145 0.0
152 0.0
77 0.0
44 0.0
42 0.0
56 0.0
86 0.0
113 0.0
133 0.0
135 0.000961
127 0.000965
115 0.0
112 0.0
116 0.0
131 0.0
142 0.0
154 0.0
134 0.0
66 0.0
41 0.0
42 0.000966
58 0.000963
81 0.0
115 0.0
131 0.000997
130 0.000994
116 0.000997
113 0.0
116 0.0
128 0.0
139 0.0
151 0.000957
146 0.000959
74 0.0
47 0.000999
32 0.000958
46 0.001993
86 0.0
113 0.001004
130 0.000965
127 0.0
119 0.0
113 0.0
113 0.000995
121 0.000997
133 0.000999
147 0.001006
157 0.000996
132 0.001008
47 0.0
34 0.000997
44 0.001003
66 0.000997
101 0.0
124 0.000998
135 0.001996
129 0.000996
116 0.0
114 0.0
119 0.0
128 0.001034
148 0.0
162 0.000966
164 0.000965
96 0.0
57 0.0
49 0.0
62 0.000997
84 0.001965
119 0.0
142 0.0
148 0.0
139 0.002
121 0.0
118 0.000964
122 0.000998
133 0.0
143 0.0
155 0.0
139 0.000987
84 0.000994
42 0.000999
44 0.000998
59 0.002012
81 0.001951
126 0.001992
139 0.001988
136 0.001996
122 0.0
118 0.0
122 0.001001
130 0.00098
141 0.001953
157 0.000953
143 0.002036
85 0.001956
43 0.001992
39 0.000961
59 0.001959
86 0.001995
121 0.00096
136 0.001009
133 0.001004
122 0.002963
113 0.002993
114 0.000862
121 0.000999
133 0.000981
147 0.001948
142 0.001995
86 0.001993
42 0.001964
37 0.000996
56 0.000997
79 0.001996
107 0.001991
133 0.002989
142 0.002991
130 0.001003
121 0.001033
118 0.001995
129 0.000998
140 0.000993
153 0.001994
166 0.001958
118 0.000997
69 0.001009
50 0.002004
53 0.002992
71 0.002993
102 0.001981
127 0.001996
139 0.000998
122 0.002007
111 0.002002
106 0.002958
110 0.002034
123 0.000994
136 0.000998
146 0.001994
108 0.002955
52 0.002958
24 0.001996
33 0.002032
54 0.002045
101 0.001992
124 0.001982
132 0.002997
126 0.002993
111 0.001018
110 0.002004
115 0.000958
124 0.003989
136 0.00399
139 0.001995
83 0.001995
18 0.00199
19 0.001993
38 0.001952
64 0.002993
93 0.002992
121 0.001996
123 0.00199
113 0.001995
104 0.003989
101 0.003938
111 0.001995
122 0.001991
146 0.001994
134 0.001993
74 0.001994
32 0.002992
23 0.002993
45 0.002007
72 0.001995
102 0.002992
128 0.003987
139 0.003958
128 0.002985
117 0.002967
115 0.001947
124 0.001963
137 0.001995
152 0.003022
166 0.003024
120 0.001985
67 0.002973
45 0.002991
53 0.003989
74 0.003985
111 0.002978
142 0.002992
157 0.001995
147 0.001992
134 0.001993
126 0.003992
127 0.003989
137 0.002958
147 0.003124
157 0.002961
130 0.003959
74 0.003975
39 0.004989
42 0.003989
68 0.004987
108 0.002995
135 0.002992
145 0.003006
138 0.003961
127 0.003983
118 0.003016
123 0.002992
133 0.003958
145 0.004953
154 0.004953
91 0.003989
27 0.004988
23 0.003989
42 0.00399
68 0.003989
98 0.004988
122 0.004983
129 0.002995
119 0.002992
107 0.004039
103 0.005005
108 0.005003
122 0.003964
141 0.004987
120 0.004023
55 0.004019
13 0.003019
6 0.004989
21 0.005022
57 0.004023
86 0.003993
109 0.003989
114 0.004986
106 0.004946
92 0.003957
92 0.004995
103 0.00399
116 0.004029
132 0.004031
144 0.00499
106 0.004987
27 0.003998
5 0.004024
12 0.004026
35 0.005954
65 0.005999
103 0.003965
119 0.005984
107 0.003988
97 0.003988
94 0.004009
98 0.005015
109 0.004952
127 0.003993
142 0.003989
155 0.004987
116 0.005984
53 0.005962
19 0.005984
33 0.005955
67 0.003959
99 0.00401
122 0.003996
126 0.004984
114 0.005984
97 0.004994
94 0.005034
98 0.004954
109 0.005984
122 0.005996
147 0.006
136 0.006018
54 0.004001
19 0.003996
15 0.004008
34 0.005992
61 0.005983
102 0.003989
126 0.004983
130 0.004987
119 0.005984
108 0.005984
107 0.005984
115 0.005981
131 0.00499
145 0.005027
155 0.005017
111 0.005983
46 0.005987
12 0.006992
19 0.005003
41 0.004957
69 0.004954
101 0.006953
125 0.004987
118 0.005997
108 0.005953
103 0.004987
110 0.004987
121 0.004982
135 0.006952
151 0.006952
163 0.005983
109 0.005984
49 0.005984
26 0.006982
47 0.004989
75 0.006982
105 0.006982
138 0.005061
142 0.004945
130 0.005957
117 0.006947
113 0.006982
117 0.006025
125 0.005946
137 0.005985
152 0.006949
129 0.006012
66 0.006992
30 0.006983
33 0.005011
53 0.004982
81 0.005983
113 0.006974
137 0.007022
138 0.005984
127 0.00599
120 0.005989
119 0.007019
133 0.005984
145 0.007013
159 0.006986
148 0.005988
81 0.006981
34 0.007021
26 0.007936
44 0.007984
71 0.005978
102 0.005973
131 0.005997
141 0.006982
125 0.00598
115 0.006988
114 0.007949
125 0.006945
137 0.006983
151 0.006982
169 0.007979
143 0.007977
74 0.007012
34 0.00594
29 0.006011
52 0.007941
92 0.005979
125 0.007942
146 0.007939
144 0.006949
133 0.006984
126 0.006942
127 0.007984
137 0.007941
151 0.00698
170 0.006985
181 0.007012
180 0.00798
93 0.00598
50 0.007017
54 0.006982
76 0.006976
105 0.006984
138 0.007015
168 0.007979
170 0.007985
157 0.007002
144 0.006972
138 0.00701
145 0.007016
155 0.005987
168 0.006981
185 0.00698
158 0.006978
81 0.006978
57 0.007005
58 0.006997
73 0.007982
99 0.007976
153 0.006983
167 0.006978
167 0.006989
160 0.007011
150 0.006982
153 0.006985
162 0.006951
176 0.006945
190 0.006946
186 0.00698
107 0.006982
63 0.00698
58 0.006971
75 0.006956
114 0.006952
154 0.006956
173 0.006951
173 0.007013
160 0.007012
147 0.006969
147 0.006978
153 0.006981
165 0.006971
178 0.006985
191 0.005983
143 0.005986
62 0.005986
57 0.005985
72 0.006986
98 0.006983
128 0.00698
167 0.006967
176 0.00698
168 0.006945
156 0.006983
149 0.007014
152 0.005987
162 0.005982
185 0.005984
200 0.00598
173 0.00598
113 0.005985
79 0.005984
82 0.00698
102 0.007014
129 0.006958
161 0.006994
185 0.006986
185 0.006017
172 0.006014
152 0.005983
152 0.005991
157 0.005987
166 0.005987
180 0.006021
176 0.006021
120 0.005984
78 0.005984
67 0.005984
77 0.005987
107 0.004989
139 0.005986
177 0.005996
177 0.005996
165 0.005949
156 0.006021
152 0.006037
159 0.005984
169 0.005955
182 0.005987
172 0.005986
114 0.00595
68 0.004985
55 0.004951
77 0.004987
114 0.004988
144 0.005984
163 0.005989
165 0.005999
153 0.006015
138 0.005948
137 0.004991
142 0.00499
153 0.006056
169 0.005016
164 0.005016
92 0.005019
56 0.005013
62 0.00502
85 0.004988
112 0.004986
143 0.004987
171 0.00499
170 0.005981
157 0.005995
147 0.005984
145 0.004991
157 0.004997
172 0.004986
192 0.00495
173 0.004986
118 0.004952
84 0.00498
78 0.004961
102 0.004988
128 0.004987
159 0.003997
182 0.004985
186 0.004986
165 0.004987
155 0.004992
152 0.004985
158 0.005014
167 0.004983
178 0.004985
160 0.00402
90 0.004988
62 0.003985
62 0.00397
80 0.00399
106 0.002991
166 0.005983
160 0.00399
148 0.004987
140 0.004986
143 0.004987
151 0.004987
167 0.004984
168 0.003976
115 0.003959
61 0.003991
39 0.003988
58 0.003995
83 0.003991
124 0.003987
145 0.003997
149 0.003994
139 0.004966
128 0.00499
123 0.003993
129 0.004022
141 0.003988
155 0.004031
164 0.002958
83 0.003994
42 0.003955
37 0.003989
55 0.003988
80 0.00396
111 0.003961
135 0.002993
140 0.00399
131 0.003778
121 0.003957
118 0.003989
125 0.00399
146 0.003986
162 0.003991
169 0.002994
102 0.002961
59 0.003957
47 0.004003
60 0.003995
83 0.003956
124 0.003955
150 0.003989
159 0.003985
151 0.003029
134 0.002993
135 0.002991
141 0.002992
157 0.00399
173 0.002994
186 0.002992
164 0.003751
104 0.002989
60 0.002998
59 0.002993
77 0.002992
102 0.00295
147 0.003002
157 0.003001
148 0.001996
134 0.00299
129 0.002997
132 0.003948
141 0.001995
154 0.002989
172 0.002993
152 0.003028
92 0.002992
51 0.002986
47 0.003024
69 0.003001
97 0.00299
139 0.00299
152 0.002993
149 0.002986
137 0.002958
129 0.002955
129 0.002992
139 0.00296
150 0.001964
165 0.00295
137 0.002026
75 0.001997
40 0.002001
40 0.002988
61 0.002991
89 0.002995
121 0.002991
143 0.003021
144 0.002991
134 0.001993
124 0.001997
126 0.001996
135 0.001997
149 0.001967
164 0.001994
167 0.001995
111 0.001996
57 0.001994
36 0.001998
44 0.002955
78 0.002995
109 0.001992
139 0.001987
155 0.002029
146 0.001991
136 0.001995
133 0.001994
140 0.001997
152 0.001994
166 0.001956
181 0.001961
188 0.001002
120 0.001997
72 0.000966
60 0.001964
85 0.002
113 0.002024
145 0.00202
166 0.001964
165 0.001995
150 0.002005
138 0.002003
132 0.001006
136 0.00097
144 0.001003
160 0.001027
175 0.000997
116 0.001021
67 0.000996
49 0.000998
56 0.001996
78 0.001991
119 0.00197
150 0.001997
165 0.000949
163 0.000953
151 0.000965
141 0.001002
143 0.001027
157 0.001041
170 0.001019
167 0.000987
109 0.001
57 0.001961
38 0.001003
52 0.001029
78 0.000993
110 0.000967
140 0.000993
156 0.001026
150 0.001027
129 0.001028
126 0.001011
131 0.001001
142 0.000999
158 0.001964
157 0.001999
99 0.000981
52 0.0
37 0.0
46 0.000995
81 0.001028
113 0.001007
156 0.001994
157 0.000994
146 0.000995
135 0.000966
129 0.0
136 0.0
148 0.0
163 0.0
174 0.0
134 0.000995
66 0.000998
48 0.001012
68 0.0
92 0.001003
124 0.000967
148 0.0
152 0.0
133 0.0
120 0.0
115 0.0
118 0.0
128 0.0
147 0.0
136 0.0
44 0.0
22 0.000997
29 0.000975
50 0.0
78 0.0
124 0.0
143 0.0
141 0.0
127 0.0
117 0.0
114 0.0
126 0.0
143 0.0
130 0.0
67 0.000962
20 0.000965
8 0.000967
28 0.000968
54 0.000983
87 0.000982
116 0.000965
126 0.000961
117 0.0
99 0.0
101 0.0
108 0.001003
121 0.001015
141 0.0
115 0.0
52 0.0
13 0.001036
8 0.00097
32 0.0
52 0.000966
95 0.0
125 0.000957
123 0.0
111 0.001992
102 0.001996
106 0.0
117 0.0
130 0.0
147 0.000998
148 0.000995
71 0.0
32 0.0
25 0.0
58 0.0
89 0.0
121 0.001
142 0.001995
138 0.0
123 0.0
114 0.0
113 0.000997
118 0.000996
132 0.0
147 0.0
154 0.000996
59 0.000996
25 0.0
24 0.001967
43 0.001965
82 0.0
117 0.0
141 0.0
144 0.000997
131 0.000996
117 0.0
116 0.0
123 0.00096
140 0.000966
154 0.000965
122 0.001966
60 0.00199
20 0.0
26 0.0
50 0.0
80 0.00196
112 0.001962
141 0.0
139 0.000954
125 0.0
112 0.001995
117 0.001001
128 0.001966
140 0.001994
160 0.001995
136 0.000997
71 0.000998
32 0.002985
28 0.001996
55 0.000999
84 0.000998
120 0.000997
155 0.001007
151 0.000998
137 0.001989
128 0.001981
130 0.001002
140 0.002006
152 0.001995
168 0.001941
180 0.001976
117 0.001995
67 0.000997
50 0.000998
74 0.000989
103 0.00103
138 0.000998
163 0.002989
170 0.001982
152 0.000999
137 0.001994
130 0.001994
133 0.001964
142 0.001965
156 0.001994
169 0.001996
95 0.00204
51 0.001028
41 0.000997
54 0.002961
80 0.002963
124 0.000995
154 0.000993
164 0.001987
155 0.001963
141 0.001954
135 0.001995
141 0.002962
156 0.001999
169 0.001987
159 0.001028
93 0.002988
44 0.002963
31 0.001989
49 0.001037
77 0.000998
110 0.002988
140 0.00396
155 0.001995
141 0.003991
126 0.002994
124 0.001995
132 0.001996
145 0.002988
161 0.002994
163 0.001995
102 0.000998
50 0.000997
33 0.002992
44 0.004021
80 0.001996
124 0.003967
156 0.001991
158 0.001956
144 0.001955
131 0.00299
126 0.002995
135 0.001993
147 0.002961
161 0.001995
178 0.004004
155 0.00399
72 0.001956
43 0.003957
57 0.001994
83 0.001963
115 0.001962
145 0.00399
156 0.003948
143 0.001993
127 0.002016
121 0.001995
124 0.003991
134 0.003989
152 0.002992
165 0.004
94 0.003008
47 0.002001
34 0.001995
44 0.003989
70 0.00399
114 0.002988
144 0.002962
156 0.002961
150 0.00396
136 0.003958
128 0.002994
133 0.003989
150 0.002993
164 0.002001
161 0.001995
101 0.004017
46 0.003954
26 0.002961
41 0.002961
68 0.002032
99 0.002025
130 0.004951
145 0.003956
130 0.004987
116 0.004957
114 0.002995
122 0.002995
135 0.003024
151 0.004984
166 0.004987
124 0.002994
58 0.002993
27 0.002993
28 0.004983
49 0.004796
97 0.005978
127 0.004988
139 0.003018
127 0.00303
114 0.002995
108 0.004023
109 0.004021
125 0.003991
139 0.004023
158 0.003989
164 0.004987
112 0.004988
39 0.004959
39 0.005953
64 0.003032
94 0.003004
127 0.002946
148 0.005983
149 0.005956
133 0.004033
119 0.003944
118 0.003949
126 0.004986
148 0.003957
163 0.005985
152 0.004987
71 0.00398
35 0.004019
34 0.004023
55 0.005985
85 0.005984
127 0.004022
149 0.004021
151 0.004021
139 0.005952
122 0.004987
125 0.006022
135 0.00601
154 0.004022
169 0.004022
167 0.004026
109 0.005984
55 0.005985
36 0.003994
51 0.003989
78 0.004015
107 0.005942
147 0.004983
147 0.005956
137 0.006029
122 0.004954
120 0.00399
129 0.003982
145 0.005993
161 0.005984
177 0.004026
161 0.004957
96 0.004988
48 0.00698
45 0.004986
68 0.005985
97 0.005985
118 0.016955
118 0.002992
150 0.0
133 0.005984
123 0.00602
124 0.005985
138 0.00399
152 0.005011
168 0.004987
195 0.00499
176 0.004985
107 0.006965
56 0.006981
45 0.004969
64 0.004946
89 0.004946
122 0.005981
147 0.005984
150 0.005984
137 0.005984
128 0.004986
129 0.004987
140 0.005985
152 0.006982
166 0.006981
185 0.004988
153 0.004987
86 0.004986
48 0.006984
44 0.006982
70 0.00598
100 0.005961
132 0.005983
159 0.005985
152 0.005984
141 0.00698
135 0.006981
141 0.004987
151 0.004987
164 0.004986
179 0.006971
198 0.007979
162 0.005984
94 0.004985
56 0.005984
64 0.004986
89 0.005984
131 0.007979
152 0.00795
172 0.005016
164 0.004974
152 0.00502
145 0.007951
147 0.007975
159 0.005985
172 0.006017
185 0.005985
212 0.005985
198 0.005985
107 0.007933
75 0.006982
62 0.004989
78 0.005982
104 0.006982
135 0.007979
162 0.007946
168 0.005999
155 0.005942
144 0.005984
144 0.006952
155 0.006947
168 0.006976
180 0.007949
195 0.00604
196 0.005984
138 0.007024
65 0.007958
53 0.007978
67 0.004987
94 0.005985
149 0.005985
171 0.005984
177 0.006927
162 0.006981
152 0.007949
151 0.006982
160 0.006949
172 0.006942
185 0.006981
200 0.007945
206 0.006977
151 0.006982
63 0.00698
62 0.006979
84 0.006982
111 0.00698
145 0.006983
173 0.00698
179 0.00695
168 0.006981
157 0.006968
153 0.006984
157 0.006985
172 0.006972
189 0.006959
210 0.006982
197 0.007012
130 0.006979
80 0.007006
66 0.006985
84 0.006985
110 0.00695
130 0.006981
168 0.007014
178 0.006984
166 0.006938
149 0.005977
144 0.005983
152 0.005984
163 0.006983
178 0.006992
194 0.006949
159 0.006982
98 0.007011
66 0.006985
64 0.006985
83 0.006959
110 0.00698
164 0.005988
183 0.005988
179 0.005986
167 0.006013
159 0.005981
159 0.005997
169 0.006981
181 0.00606
194 0.006943
181 0.006974
117 0.006981
61 0.006958
63 0.005988
92 0.005988
123 0.006017
155 0.005987
173 0.00595
174 0.005983
160 0.005983
150 0.005993
149 0.005971
155 0.005984
166 0.006208
184 0.005984
162 0.005024
82 0.004945
56 0.005138
58 0.004992
76 0.005985
105 0.005953
148 0.005952
169 0.005981
170 0.005955
162 0.005985
150 0.005983
145 0.005984
153 0.004991
171 0.004991
184 0.004985
158 0.004988
99 0.004972
64 0.004984
62 0.004985
82 0.004973
111 0.006003
144 0.005983
168 0.005022
174 0.005988
156 0.004986
147 0.004988
146 0.004992
153 0.004991
165 0.004991
180 0.00502
176 0.004959
102 0.004959
65 0.00499
59 0.005984
71 0.005994
116 0.004978
147 0.005015
164 0.00499
155 0.00499
140 0.004991
132 0.004952
131 0.004987
136 0.004987
153 0.004987
166 0.004988
143 0.004952
84 0.004989
40 0.003993
50 0.003989
73 0.003993
114 0.004973
144 0.004987
156 0.004987
149 0.005031
137 0.00499
128 0.005016
129 0.004989
138 0.004986
151 0.004988
157 0.003993
99 0.003999
48 0.00399
31 0.003989
45 0.003996
71 0.003991
102 0.003989
131 0.004991
143 0.005008
133 0.003989
122 0.004957
116 0.004019
125 0.004042
136 0.00399
150 0.003991
158 0.004038
105 0.002941
50 0.003972
28 0.003957
36 0.003992
67 0.005008
99 0.00499
130 0.00495
144 0.00399
131 0.003989
119 0.003987
117 0.003969
125 0.00395
136 0.00296
151 0.004035
167 0.003989
163 0.004988
84 0.003988
46 0.003984
39 0.00396
54 0.002992
100 0.003988
131 0.00399
148 0.003981
139 0.003989
125 0.003996
117 0.004017
117 0.003955
124 0.003986
140 0.003966
153 0.003998
168 0.002993
141 0.002992
42 0.002982
27 0.002992
38 0.002993
62 0.002993
104 0.003989
135 0.003963
145 0.003958
137 0.003952
125 0.003962
117 0.002951
120 0.003003
130 0.002988
151 0.002993
166 0.002993
176 0.002992
132 0.002991
43 0.002992
16 0.002988
22 0.002992
45 0.003992
74 0.001995
111 0.002992
126 0.002988
119 0.002988
90 0.002991
80 0.002985
80 0.001994
88 0.001958
106 0.001994
118 0.002995
130 0.002953
126 0.002993
60 0.002027
0 0.002992
126 0.002979
125 0.002986
125 0.001995
125 0.001992
125 0.001993
124 0.001998
124 0.001997
125 0.001995
125 0.001995
125 0.002039
125 0.001995
125 0.002992
125 0.00298
124 0.001994
109 0.001994
27 0.001995
0 0.001984
0 0.001995
29 0.001995
73 0.001994
118 0.001994
145 0.001995
146 0.001995
124 0.001989
112 0.001963
121 0.002
135 0.001995
153 0.00199
170 0.001995
188 0.001995
186 0.001995
97 0.001995
20 0.002005
63 0.002015
67 0.001994
88 0.002006
108 0.002026
136 0.000957
138 0.001995
133 0.000964
127 0.001006
124 0.001995
129 0.001993
137 0.001985
145 0.001995
153 0.002026
163 0.002028
154 0.001995
107 0.001963
68 0.001013
72 0.000998
88 0.000996
106 0.001022
127 0.000999
145 0.001995
143 0.00103
135 0.001993
129 0.001982
128 0.001964
132 0.002003
142 0.001995
153 0.001039
166 0.000997
170 0.000997
134 0.000995
92 0.0
75 0.0
82 0.001995
98 0.0
118 0.001969
139 0.000999
152 0.0
151 0.001018
139 0.000997
136 0.001
138 0.000995
143 0.000999
150 0.0
158 0.0
168 0.000995
150 0.000982
107 0.000966
81 0.000997
77 0.0
92 0.0
117 0.0
143 0.000997
152 0.0
149 0.000998
142 0.0
136 0.00103
135 0.000988
140 0.000998
148 0.000997
156 0.000994
163 0.0
127 0.0
81 0.0
73 0.0
84 0.0
102 0.000984
123 0.000999
142 0.0
151 0.0
145 0.000993
137 0.000997
132 0.000997
133 0.0
140 0.0
151 0.0
160 0.0
135 0.0
94 0.000998
73 0.0
72 0.000954
90 0.000968
109 0.0
130 0.000998
144 0.0
148 0.0
138 0.0
132 0.0
133 0.001035
139 0.0
146 0.001001
155 0.001011
162 0.0
120 0.000998
86 0.0
75 0.0
84 0.000997
100 0.000997
128 0.000962
145 0.000997
151 0.0
144 0.001001
137 0.000997
133 0.001011
135 0.000998
143 0.000998
151 0.001995
164 0.0
151 0.0
109 0.0
77 0.000997
82 0.0
98 0.000997
117 0.001996
139 0.001995
155 0.0
155 0.000988
144 0.0
137 0.002025
136 0.001978
140 0.000964
146 0.0
171 0.000961
177 0.000996
123 0.0
77 0.002027
60 0.00203
72 0.0
93 0.000996
123 0.0
151 0.001995
166 0.001005
160 0.0
149 0.0
140 0.0
143 0.0
150 0.0
161 0.002029
173 0.001994
132 0.0
80 0.000999
56 0.0
58 0.000998
74 0.000998
109 0.0
137 0.0
159 0.000993
151 0.0
140 0.0
132 0.001997
134 0.001994
141 0.0
152 0.0
165 0.0
158 0.001994
104 0.001995
56 0.0
50 0.000998
81 0.0
99 0.000998
136 0.0
155 0.001996
154 0.001001
140 0.0
133 0.000997
131 0.0
136 0.001971
146 0.001938
162 0.0
169 0.0
93 0.0
61 0.000996
58 0.000997
72 0.002004
95 0.001995
132 0.001957
154 0.0
158 0.002002
149 0.001995
137 0.001965
129 0.001003
131 0.001965
146 0.000997
157 0.002044
162 0.002038
120 0.002993
72 0.003943
53 0.001038
61 0.001994
81 0.001996
109 0.001995
138 0.00198
152 0.001998
147 0.001994
129 0.000997
128 0.001994
131 0.000996
139 0.002012
151 0.00399
158 0.002992
100 0.001996
56 0.001989
40 0.001995
47 0.001982
68 0.001995
112 0.002992
135 0.002993
140 0.000998
129 0.002118
119 0.001996
116 0.002992
121 0.002993
133 0.002024
145 0.00199
157 0.001949
126 0.003953
71 0.002968
37 0.00299
49 0.002991
79 0.000996
106 0.001993
130 0.002
138 0.003957
130 0.002962
117 0.002033
113 0.001993
116 0.001991
124 0.002991
137 0.003989
154 0.003989
119 0.003989
57 0.001995
43 0.000996
52 0.001949
73 0.003988
101 0.003985
137 0.001995
146 0.002031
140 0.00097
129 0.003977
123 0.003958
127 0.003989
137 0.003988
154 0.001994
167 0.001995
148 0.001995
95 0.004986
62 0.003988
62 0.00295
79 0.001996
103 0.001972
131 0.003989
151 0.003989
145 0.003965
132 0.004987
123 0.001989
124 0.001994
132 0.001995
141 0.004956
155 0.004986
152 0.002993
102 0.002991
62 0.002993
50 0.003988
59 0.003989
98 0.003961
126 0.003959
147 0.001959
143 0.001996
133 0.002991
126 0.004952
126 0.004963
135 0.002991
145 0.003032
158 0.002944
164 0.004985
123 0.004986
50 0.004985
45 0.004987
69 0.00295
94 0.002976
122 0.002982
144 0.004958
150 0.004954
142 0.003958
130 0.00296
130 0.001996
136 0.002951
146 0.004988
167 0.002959
178 0.004987
143 0.004949
75 0.002993
59 0.002993
68 0.002995
88 0.005956
113 0.005985
148 0.00295
158 0.002992
148 0.003025
127 0.00499
108 0.002936
115 0.004933
131 0.004986
153 0.003949
171 0.003952
170 0.003951
120 0.005944
78 0.005952
68 0.002993
83 0.004
106 0.003986
135 0.005031
169 0.00395
169 0.004986
158 0.004992
151 0.003945
152 0.002999
158 0.003951
165 0.005946
177 0.005948
191 0.003971
168 0.003981
106 0.00399
60 0.003984
68 0.002992
90 0.006982
115 0.005985
150 0.005029
161 0.004984
155 0.00399
145 0.005953
136 0.006016
135 0.00396
143 0.00395
153 0.003948
171 0.003949
175 0.003945
128 0.00597
75 0.006979
53 0.004995
62 0.004957
84 0.004956
111 0.005984
138 0.005944
153 0.003963
149 0.003986
137 0.003955
130 0.003986
136 0.004951
144 0.006003
156 0.006943
173 0.004988
177 0.003961
131 0.00399
82 0.006964
62 0.006944
73 0.003994
97 0.003989
124 0.003989
162 0.004986
163 0.004987
155 0.006982
145 0.00695
140 0.005003
146 0.005018
154 0.005981
165 0.006985
177 0.00698
189 0.00598
149 0.003994
101 0.004999
83 0.004949
98 0.005041
121 0.004948
150 0.006982
173 0.007981
183 0.005951
176 0.005952
167 0.004953
164 0.006923
165 0.005944
175 0.005023
186 0.004987
206 0.004993
190 0.004949
143 0.005017
110 0.007946
104 0.006986
122 0.005981
144 0.005986
169 0.005984
190 0.007978
199 0.007977
194 0.005987
189 0.005943
188 0.005942
194 0.00595
203 0.005983
214 0.006981
212 0.007979
150 0.005985
113 0.005984
104 0.005978
112 0.007943
133 0.00796
154 0.005974
173 0.006011
180 0.005979
172 0.00598
164 0.005984
162 0.007946
163 0.007943
169 0.005976
176 0.006949
151 0.005952
83 0.007939
60 0.007947
56 0.00599
61 0.005979
87 0.00595
107 0.005974
116 0.006938
115 0.007977
107 0.006975
104 0.006981
105 0.006982
114 0.006982
123 0.007981
121 0.007994
74 0.005976
23 0.007946
17 0.005998
30 0.005953
51 0.005985
80 0.00698
96 0.006982
101 0.006949
94 0.006974
91 0.006951
89 0.006981
95 0.006982
105 0.00698
118 0.007979
128 0.006981
140 0.006982
146 0.006981
151 0.00698
155 0.007015
157 0.006934
161 0.006977
156 0.006949
90 0.00695
6 0.007014
0 0.006982
0 0.005997
21 0.007005
49 0.005958
67 0.005983
74 0.006979
72 0.006982
68 0.007008
69 0.006922
76 0.006949
90 0.006951
112 0.007013
127 0.006983
150 0.006017
161 0.005986
171 0.00695
181 0.00598
187 0.006019
195 0.006016
200 0.006019
210 0.005985
218 0.005983
223 0.00698
167 0.006983
110 0.006979
84 0.005991
99 0.006981
125 0.005983
147 0.005984
166 0.005984
177 0.005988
175 0.005985
168 0.006008
165 0.005988
170 0.005984
180 0.006982
193 0.006981
212 0.005954
223 0.005989
232 0.00698
243 0.005985
188 0.005997
190 0.006017
192 0.005981
195 0.005988
194 0.004986
175 0.004989
157 0.006015
151 0.006013
158 0.004992
166 0.004993
176 0.005985
183 0.005985
186 0.00602
184 0.005988
181 0.006011
179 0.006017
181 0.004986
184 0.005987
188 0.006016
192 0.005981
198 0.005988
201 0.00499
205 0.004991
207 0.00499
204 0.004989
188 0.005985
176 0.005972
174 0.006013
179 0.005988
186 0.004959
192 0.005983
198 0.005983
202 0.00499
200 0.004986
196 0.004946
195 0.00499
196 0.005021
199 0.005015
201 0.00499
204 0.005982
207 0.00495
209 0.004963
205 0.005955
190 0.005952
183 0.00499
186 0.004927
192 0.004987
199 0.004986
204 0.004989
206 0.003955
205 0.005072
202 0.003984
200 0.00399
199 0.004991
200 0.003999
203 0.003993
205 0.003951
208 0.005029
203 0.004971
187 0.005034
184 0.004987
186 0.004988
191 0.00499
255 0.003989
254 0.003989
255 0.003998
209 0.004991
204 0.003953
202 0.003957
202 0.003979
203 0.003987
205 0.005028
206 0.004981
208 0.004992
202 0.004988
191 0.004986
186 0.00399
188 0.003951
192 0.004986
199 0.003989
202 0.003992
202 0.003989
198 0.004985
194 0.003959
192 0.00496
192 0.00499
193 0.003957
195 0.003992
196 0.003986
190 0.004978
179 0.004957
176 0.00498
179 0.004001
183 0.003961
188 0.003989
193 0.003956
193 0.003988
190 0.003949
187 0.002951
184 0.003958
184 0.003956
185 0.002953
187 0.004998
184 0.003956
172 0.003965
165 0.003984
166 0.003952
171 0.003935
176 0.002961
180 0.002958
184 0.002992
183 0.002959
178 0.00304
175 0.002962
173 0.002977
174 0.002996
175 0.002979
177 0.003988
174 0.003975
159 0.00399
155 0.002954
157 0.002969
161 0.00299
165 0.002991
170 0.002992
171 0.002992
169 0.00299
163 0.002992
205 0.002991
205 0.002991
206 0.002991
209 0.001963
214 0.002958
199 0.002953
170 0.002991
159 0.003035
163 0.00299
175 0.002992
185 0.002958
199 0.002992
199 0.002993
190 0.002991
181 0.002993
176 0.002992
178 0.001995
182 0.001991
184 0.001993
188 0.001998
176 0.002026
138 0.002992
131 0.002995
142 0.002991
151 0.003018
161 0.001989
167 0.002968
166 0.001956
155 0.001947
145 0.001954
143 0.001995
145 0.001995
148 0.002992
153 0.001994
154 0.002032
117 0.002941
100 0.002994
99 0.002992
107 0.002995
117 0.001947
132 0.002029
138 0.001995
135 0.001948
127 0.001993
119 0.002028
116 0.00194
116 0.00103
123 0.001994
128 0.000948
120 0.000993
90 0.001996
73 0.001031
71 0.002976
80 0.001963
91 0.001961
101 0.001963
107 0.001032
103 0.001055
91 0.002027
87 0.001996
87 0.002039
92 0.002028
98 0.002028
102 0.001022
83 0.000998
54 0.001003
42 0.00101
44 0.001006
54 0.0
69 0.001003
83 0.001872
81 0.001987
73 0.00303
68 0.00204
66 0.002044
67 0.001008
76 0.001962
81 0.001997
84 0.000996
63 0.000998
35 0.001034
24 0.001995
36 0.000997
51 0.0
66 0.000998
74 0.002029
72 0.001008
65 0.001063
61 0.0
61 0.002022
65 0.0
73 0.0
81 0.0
87 0.000998
44 0.000986
24 0.001029
27 0.001005
37 0.000996
50 0.000997
65 0.000998
75 0.0
73 0.0
68 0.0
65 0.0
67 0.0
72 0.0
84 0.0
93 0.0
84 0.0
50 0.0
31 0.00105
33 0.001002
45 0.00104
63 0.0
79 0.0
89 0.0
89 0.0
80 0.000997
73 0.0
74 0.0
81 0.001022
87 0.0
96 0.001011
79 0.001
32 0.0
0 0.0
0 0.0
0 0.0
14 0.0
39 0.0
68 0.0
67 0.0
51 0.000997
49 0.0
53 0.0
62 0.0
73 0.000966
94 0.0
82 0.000998
25 0.001004
0 0.0
0 0.0
12 0.0
38 0.0
71 0.0
84 0.0
79 0.0
70 0.0
63 0.0
69 0.0
79 0.0
91 0.000995
106 0.001011
97 0.0
37 0.00099
0 0.001044
62 0.001033
73 0.001045
86 0.001146
99 0.000998
110 0.001007
112 0.0
106 0.001977
103 0.001994
104 0.0
112 0.0
117 0.001022
128 0.000986
129 0.002047
99 0.002993
69 0.001006
67 0.000969
76 0.000948
87 0.002044
102 0.002029
116 0.001998
119 0.0
113 0.002016
109 0.0
110 0.000985
114 0.000992
121 0.001994
128 0.001996
137 0.000999
116 0.0
86 0.0
74 0.001997
77 0.001992
91 0.0
111 0.002027
126 0.0
128 0.0
121 0.0
115 0.003013
114 0.002028
117 0.000949
123 0.000998
129 0.000964
137 0.002024
139 0.003034
102 0.0
76 0.002025
80 0.0
91 0.0
105 0.0
119 0.002029
129 0.002019
127 0.0
122 0.001005
119 0.000982
119 0.003025
123 0.002051
134 0.0
144 0.002992
135 0.000997
103 0.000998
85 0.000951
84 0.003021
92 0.002028
98 0.0
122 0.0
139 0.0
141 0.002044
135 0.002061
127 0.0
127 0.00203
137 0.0
148 0.000966
160 0.0
163 0.002028
121 0.00203
73 0.000957
69 0.0
82 0.0
101 0.003027
124 0.003039
152 0.00096
157 0.002994
148 0.0
146 0.0
149 0.0
155 0.00202
165 0.002027
183 0.0
189 0.0
151 0.0
107 0.002992
89 0.002992
95 0.001994
120 0.002992
149 0.003008
163 0.0
162 0.002043
152 0.003029
144 0.003045
141 0.002049
144 0.0
154 0.0
164 0.003039
175 0.003031
126 0.002994
89 0.003028
77 0.003
93 0.001985
112 0.002006
134 0.00199
154 0.004008
161 0.00399
151 0.002014
142 0.002042
139 0.001987
140 0.003991
154 0.00299
165 0.003019
173 0.004029
127 0.003004
89 0.002031
78 0.002046
87 0.003991
104 0.00399
133 0.001995
154 0.0
160 0.0
155 0.004034
142 0.001998
142 0.003026
148 0.004022
158 0.001
171 0.002946
173 0.002
131 0.004032
90 0.004027
78 0.0
89 0.001995
108 0.00199
131 0.003995
159 0.001971
159 0.003066
153 0.004029
143 0.001963
143 0.00198
151 0.002005
160 0.004043
171 0.004943
170 0.002011
123 0.001994
86 0.002004
77 0.004029
97 0.001997
120 0.004022
143 0.004989
160 0.001995
159 0.001989
150 0.002016
141 0.005018
142 0.003983
152 0.001992
160 0.002028
173 0.001984
172 0.005018
99 0.001995
77 0.003986
80 0.005022
104 0.002961
125 0.002959
148 0.003011
161 0.004991
159 0.004987
145 0.002027
140 0.001985
141 0.002031
148 0.005027
165 0.002988
174 0.004037
143 0.005026
85 0.002944
71 0.002946
76 0.002981
93 0.004987
116 0.006038
145 0.002004
152 0.001992
147 0.001995
136 0.004986
129 0.00201
132 0.003989
140 0.004979
154 0.00199
158 0.003978
121 0.003018
75 0.003959
53 0.004984
55 0.005022
74 0.002985
96 0.003999
117 0.001981
123 0.003012
114 0.001974
105 0.006016
104 0.004986
113 0.002993
125 0.003988
137 0.002988
141 0.006017
103 0.006029
53 0.003988
43 0.002054
52 0.003974
87 0.00203
112 0.002997
128 0.006017
126 0.006018
113 0.002976
107 0.003994
107 0.003041
113 0.005983
124 0.005994
143 0.002993
134 0.002993
55 0.003006
38 0.002993
44 0.002999
61 0.006021
83 0.006031
116 0.003997
124 0.003995
117 0.003993
107 0.005985
100 0.007016
102 0.003989
110 0.004957
131 0.002987
143 0.002973
112 0.00399
59 0.005984
29 0.00602
31 0.003957
46 0.004004
68 0.003992
92 0.006031
104 0.007062
96 0.002926
86 0.003997
81 0.003005
87 0.003997
95 0.003989
105 0.00698
115 0.007015
65 0.004987
16 0.004029
0 0.004998
4 0.005986
20 0.005985
52 0.003997
79 0.003973
90 0.003998
82 0.003989
75 0.003994
76 0.007034
85 0.006983
100 0.004995
114 0.005018
128 0.004992
96 0.007018
34 0.006982
0 0.003984
0 0.004989
32 0.003989
57 0.003986
80 0.004995
85 0.006962
78 0.00695
65 0.005006
62 0.004958
66 0.005004
76 0.004989
95 0.005983
109 0.007977
117 0.004986
24 0.000996
57 0.006981
54 0.002991
61 0.003988
72 0.007979
90 0.007978
100 0.004987
100 0.004988
95 0.004994
90 0.007043
90 0.007978
94 0.005952
104 0.006973
112 0.004972
120 0.005984
122 0.00603
95 0.007946
65 0.007937
54 0.006032
61 0.004987
73 0.005986
86 0.00798
100 0.007975
103 0.006969
94 0.007979
91 0.004972
92 0.004932
96 0.005967
103 0.007979
110 0.006997
119 0.005984
126 0.005991
126 0.005989
86 0.007982
69 0.007979
60 0.006004
76 0.007989
90 0.005978
105 0.005947
113 0.005986
111 0.006966
105 0.006975
101 0.005025
103 0.006017
108 0.00602
114 0.00798
120 0.00798
131 0.007959
142 0.007978
129 0.005983
93 0.005983
69 0.006002
66 0.006942
76 0.006982
91 0.006982
107 0.006982
119 0.005984
120 0.006958
115 0.007014
109 0.006972
112 0.006973
116 0.005998
123 0.005981
130 0.005998
143 0.007015
154 0.006988
151 0.006968
121 0.006917
69 0.005972
41 0.006981
47 0.006982
76 0.006981
97 0.006973
113 0.005964
116 0.005999
110 0.005992
98 0.007014
97 0.006982
103 0.006981
112 0.006983
126 0.006978
138 0.006975
148 0.00697
159 0.005971
108 0.00698
63 0.007013
45 0.006967
55 0.005987
73 0.005982
96 0.005953
117 0.005988
129 0.005972
122 0.005985
115 0.006968
108 0.007018
114 0.006984
125 0.007072
136 0.007026
149 0.006978
157 0.006941
166 0.006012
127 0.005983
79 0.005988
55 0.005994
60 0.005986
76 0.005015
98 0.006023
129 0.006025
133 0.006012
124 0.00602
113 0.006018
112 0.005984
117 0.004987
124 0.004989
134 0.005993
149 0.005982
160 0.006002
153 0.005977
104 0.005984
50 0.005984
52 0.005989
66 0.006017
94 0.006031
116 0.005981
129 0.004978
128 0.005034
120 0.004984
111 0.004949
110 0.004942
116 0.004994
126 0.005011
143 0.004981
155 0.006044
142 0.005988
78 0.005983
49 0.005984
46 0.005984
58 0.005019
78 0.005983
107 0.005018
124 0.005016
127 0.004984
121 0.005018
112 0.00502
114 0.004991
120 0.005018
134 0.004971
145 0.003957
159 0.003953
147 0.003989
100 0.004029
59 0.004987
58 0.004986
72 0.004985
91 0.004993
126 0.004986
138 0.004986
137 0.004987
124 0.004987
118 0.00497
118 0.004997
124 0.004988
131 0.003991
139 0.003989
155 0.003989
138 0.00399
67 0.004989
52 0.004987
56 0.004984
72 0.004987
93 0.004986
122 0.004986
133 0.003996
130 0.003989
119 0.003989
113 0.003989
115 0.00399
122 0.003998
139 0.003989
150 0.003989
130 0.003989
81 0.004956
50 0.00403
47 0.004985
61 0.004986
82 0.003997
104 0.003985
123 0.003989
127 0.004
118 0.003993
107 0.003988
109 0.003991
116 0.003982
125 0.003989
138 0.003986
139 0.003988
92 0.002991
52 0.002989
38 0.003989
45 0.00399
67 0.003988
90 0.003986
119 0.003495
120 0.003984
112 0.003984
106 0.003952
107 0.003844
118 0.004003
128 0.004014
143 0.003998
157 0.003983
144 0.002993
81 0.00299
58 0.003025
65 0.004016
84 0.003989
106 0.002992
127 0.002992
139 0.002996
131 0.002999
122 0.003983
118 0.002992
121 0.002992
128 0.002992
141 0.002992
153 0.003034
144 0.003961
95 0.003952
62 0.003951
56 0.002996
65 0.002995
88 0.003029
112 0.003025
129 0.002992
131 0.001958
123 0.001955
113 0.001995
112 0.002992
122 0.003975
132 0.003958
145 0.00299
144 0.002957
100 0.003033
59 0.002994
46 0.002992
55 0.001958
74 0.001959
97 0.001965
120 0.001995
131 0.001995
123 0.002994
113 0.002997
112 0.001984
119 0.002993
127 0.003034
139 0.003001
142 0.003003
94 0.001959
50 0.001963
34 0.001995
40 0.001957
62 0.001995
95 0.002997
117 0.001993
118 0.001963
109 0.001965
100 0.001993
99 0.002993
107 0.00196
116 0.00196
129 0.001955
143 0.001998
138 0.001996
56 0.001994
34 0.002027
42 0.002025
60 0.001953
84 0.002956
108 0.002974
123 0.001994
117 0.002047
108 0.000998
103 0.001994
105 0.001995
111 0.001999
131 0.002002
142 0.002028
144 0.002027
97 0.002034
52 0.002027
35 0.001996
40 0.000996
62 0.00097
87 0.000998
112 0.001995
121 0.001981
115 0.001994
101 0.000998
100 0.000998
108 0.001994
118 0.001995
131 0.001848
146 0.001997
138 0.000997
67 0.002992
35 0.001995
29 0.001994
42 0.001031
64 0.001005
106 0.000998
120 0.000993
115 0.000967
106 0.000997
100 0.001002
102 0.001996
110 0.0
126 0.000997
139 0.000975
148 0.001052
112 0.000996
58 0.000997
27 0.000966
39 0.000964
67 0.000996
92 0.001007
113 0.001031
118 0.001982
109 0.0
101 0.0
98 0.0
102 0.0
113 0.001005
125 0.000997
147 0.000957
124 0.00103
69 0.000996
30 0.001007
31 0.000996
45 0.001014
68 0.0
95 0.0
117 0.0
117 0.0
106 0.000996
98 0.000997
99 0.0
110 0.000996
120 0.000998
141 0.000999
149 0.000998
114 0.001
64 0.0
40 0.0
43 0.0
58 0.0
82 0.0
106 0.0
121 0.0
111 0.0
103 0.0
102 0.0
108 0.000966
120 0.000965
134 0.0
148 0.0
141 0.001034
91 0.0
51 0.001011
39 0.0
60 0.0
85 0.000996
113 0.0
134 0.0
130 0.000962
120 0.000951
111 0.0
111 0.0
121 0.0
130 0.0
143 0.000971
152 0.000998
79 0.0
36 0.0
35 0.0
53 0.002037
77 0.002037
112 0.0
129 0.0
129 0.000998
115 0.001995
106 0.002991
105 0.001994
113 0.001995
129 0.0
144 0.000968
150 0.001
106 0.001996
58 0.001996
37 0.002024
41 0.001995
67 0.0
93 0.001965
119 0.002029
137 0.0
128 0.001955
119 0.002002
115 0.000959
121 0.0
132 0.0
145 0.002992
158 0.002024
146 0.001028
94 0.0
61 0.000997
55 0.001994
66 0.001996
106 0.001992
134 0.001963
154 0.0
152 0.0
143 0.0
136 0.001962
136 0.002964
148 0.0
158 0.0
172 0.0
161 0.002035
110 0.001999
60 0.001992
63 0.001963
88 0.0
113 0.000999
140 0.000997
155 0.001991
152 0.001964
137 0.000986
130 0.0
131 0.000966
138 0.002992
148 0.003002
166 0.002991
130 0.003015
70 0.0
55 0.0
62 0.0
81 0.001995
107 0.002026
140 0.0
152 0.000997
149 0.000992
137 0.001992
129 0.002015
134 0.002002
144 0.003036
162 0.0
168 0.0
130 0.0
84 0.001997
63 0.001995
71 0.0
93 0.000965
119 0.000994
147 0.001995
161 0.002994
151 0.001998
140 0.001997
135 0.0
140 0.0
151 0.0
164 0.002993
176 0.002994
140 0.0
96 0.0
73 0.001013
73 0.002038
89 0.002036
132 0.001999
154 0.002992
158 0.0
149 0.000999
141 0.001994
138 0.002994
140 0.002996
154 0.0
166 0.0
163 0.001999
115 0.003959
74 0.003954
64 0.002954
80 0.002838
105 0.002957
143 0.001995
158 0.002989
157 0.002992
145 0.002992
135 0.002949
132 0.0
138 0.0
149 0.000997
163 0.003959
109 0.001987
65 0.002986
48 0.003991
60 0.003012
81 0.003007
107 0.001992
134 0.003025
145 0.004029
135 0.002993
123 0.003015
118 0.002988
127 0.001996
137 0.002027
151 0.003989
144 0.003987
79 0.00199
47 0.001993
43 0.003989
59 0.003988
111 0.000996
127 0.000998
139 0.000996
139 0.000997
123 0.002993
115 0.000998
118 0.003991
126 0.00399
143 0.00203
156 0.002008
134 0.001994
84 0.003995
55 0.004988
55 0.001995
73 0.001995
99 0.003003
142 0.001995
148 0.002993
140 0.00399
130 0.003985
122 0.002993
127 0.002997
138 0.001997
152 0.004
166 0.004021
141 0.001966
91 0.002992
65 0.001995
73 0.001995
94 0.001995
122 0.00399
145 0.00399
151 0.003006
141 0.002991
130 0.002992
126 0.004016
130 0.004987
144 0.002998
157 0.00296
165 0.002008
93 0.001961
62 0.001966
58 0.005026
72 0.004987
106 0.001995
135 0.002991
155 0.002997
157 0.00399
147 0.005023
132 0.002996
130 0.001997
136 0.003002
155 0.002957
167 0.00296
138 0.004985
84 0.004968
55 0.005018
57 0.002994
75 0.002037
100 0.001994
129 0.005985
147 0.005985
142 0.003023
132 0.002997
123 0.00299
126 0.003012
135 0.002997
144 0.005018
155 0.004994
123 0.003016
74 0.003002
52 0.002989
55 0.005043
72 0.005951
104 0.003988
129 0.003987
145 0.002999
138 0.002989
131 0.002987
127 0.006028
132 0.006018
145 0.002985
160 0.002995
177 0.002995
168 0.005986
118 0.00702
75 0.004007
72 0.003989
100 0.003004
127 0.003002
153 0.003991
163 0.004988
156 0.005955
142 0.00299
138 0.002994
138 0.003989
142 0.005985
151 0.005984
162 0.003989
112 0.005981
66 0.002998
64 0.002992
79 0.003004
103 0.006947
131 0.006956
163 0.004012
168 0.003998
159 0.004002
150 0.005947
147 0.005984
153 0.004989
171 0.005986
186 0.003997
164 0.002977
111 0.002992
80 0.006019
76 0.006981
98 0.003958
123 0.003989
150 0.002997
170 0.00798
170 0.007992
162 0.004948
154 0.006039
158 0.002992
170 0.00399
182 0.003984
196 0.006032
181 0.006016
115 0.00399
89 0.00399
92 0.004986
110 0.006979
133 0.006983
170 0.00399
187 0.006975
178 0.003991
166 0.003989
162 0.00396
165 0.006979
175 0.007945
189 0.00701
207 0.004986
190 0.003991
142 0.003989
111 0.007978
106 0.006982
132 0.006981
160 0.006981
191 0.004988
198 0.004987
190 0.004991
181 0.006955
173 0.007975
174 0.004988
184 0.004985
196 0.005978
200 0.007967
176 0.007977
112 0.006981
107 0.006981
125 0.00499
149 0.004986
177 0.004995
197 0.007988
200 0.007016
190 0.004989
182 0.00499
180 0.00602
186 0.00798
195 0.007978
186 0.007978
153 0.00797
102 0.004954
95 0.004951
106 0.00495
127 0.007966
154 0.007977
185 0.004991
187 0.00499
178 0.005996
167 0.007978
165 0.007968
175 0.00798
185 0.007978
188 0.005985
147 0.004986
102 0.004993
84 0.007964
96 0.007977
118 0.005983
143 0.004983
171 0.005984
184 0.006982
178 0.00797
166 0.00797
165 0.007974
177 0.006018
188 0.005988
202 0.005023
186 0.00798
140 0.007971
112 0.00499
112 0.005985
128 0.005983
157 0.006985
182 0.00798
198 0.006939
190 0.007976
180 0.005978
178 0.006003
186 0.00598
197 0.00801
211 0.007969
224 0.005979
205 0.005978
154 0.006979
143 0.007011
157 0.006981
183 0.007016
207 0.006969
225 0.005976
227 0.00698
220 0.005977
208 0.006982
204 0.006982
204 0.00698
207 0.006981
217 0.005983
218 0.005982
163 0.005996
126 0.00594
113 0.006981
121 0.006982
138 0.005984
155 0.005986
171 0.006377
173 0.007017
170 0.006981
166 0.00598
168 0.005984
172 0.005987
178 0.005984
167 0.006977
129 0.007019
99 0.007013
92 0.006924
97 0.006982
111 0.006979
126 0.007013
135 0.006982
130 0.006979
112 0.005985
103 0.005984
98 0.005983
105 0.005983
124 0.005983
139 0.005988
107 0.005982
69 0.006039
55 0.005984
64 0.005979
81 0.006982
104 0.005984
113 0.005999
115 0.005984
108 0.005983
99 0.005984
93 0.00595
100 0.005952
122 0.005983
138 0.005984
144 0.005985
116 0.005019
85 0.005107
79 0.005983
88 0.00599
101 0.005987
125 0.005989
137 0.006014
136 0.006013
130 0.005401
129 0.005944
133 0.005999
137 0.005991
143 0.005972
153 0.005957
156 0.005002
126 0.004987
100 0.004987
97 0.004987
108 0.00499
120 0.005951
135 0.005974
147 0.006004
143 0.004948
136 0.004986
134 0.005943
138 0.004986
147 0.005019
157 0.005018
166 0.00499
138 0.004986
111 0.004946
106 0.004942
113 0.004985
131 0.004995
144 0.005947
155 0.005973
161 0.005018
157 0.004986
148 0.004996
148 0.005011
152 0.00399
163 0.00502
169 0.005029
163 0.004991
132 0.005017
112 0.004975
112 0.004962
123 0.003986
138 0.003999
152 0.004985
162 0.004985
164 0.00499
153 0.00499
151 0.004987
161 0.004981
169 0.004958
179 0.003988
189 0.00402
162 0.00402
123 0.003989
107 0.003993
114 0.003988
131 0.003989
155 0.00399
174 0.004987
176 0.004985
167 0.004985
159 0.004987
159 0.004986
160 0.003988
168 0.004011
174 0.004023
174 0.003988
140 0.003989
107 0.00399
99 0.00299
115 0.003959
136 0.003948
153 0.004988
164 0.004957
162 0.004042
152 0.003991
146 0.003988
146 0.00399
150 0.003989
157 0.003993
165 0.004031
137 0.004023
97 0.003947
94 0.003988
107 0.004023
122 0.003992
141 0.003012
156 0.00399
160 0.003987
153 0.003988
147 0.00399
144 0.004026
147 0.00399
156 0.002994
164 0.003984
123 0.003986
96 0.003992
93 0.003021
102 0.003023
120 0.004008
149 0.002991
166 0.003027
173 0.003988
169 0.00399
161 0.003951
157 0.003007
160 0.003986
173 0.003986
176 0.002982
144 0.003036
111 0.002996
94 0.003021
108 0.003987
131 0.003036
160 0.003022
184 0.003015
196 0.002991
187 0.002995
168 0.002992
162 0.003029
163 0.002958
173 0.002992
180 0.003001
143 0.002992
89 0.002992
66 0.002993
75 0.002992
98 0.002992
124 0.002992
151 0.001995
170 0.002992
163 0.001995
149 0.001995
146 0.001995
151 0.002992
160 0.002993
163 0.002992
95 0.002991
53 0.003005
40 0.003002
51 0.002954
75 0.001994
123 0.001995
147 0.00199
151 0.001964
139 0.001998
126 0.002955
118 0.002952
121 0.002985
135 0.003008
130 0.002988
73 0.002955
27 0.001996
14 0.000999
39 0.001994
68 0.001995
113 0.002025
134 0.002026
137 0.001995
123 0.002028
111 0.001996
105 0.000966
111 0.001991
123 0.001995
132 0.001991
56 0.00199
20 0.002004
17 0.001965
43 0.001994
72 0.001976
105 0.001972
131 0.001998
138 0.001993
117 0.001988
103 0.001995
100 0.001994
102 0.000999
119 0.000994
105 0.001976
47 0.002003
0 0.002028
0 0.001945
22 0.001993
51 0.001983
87 0.001989
121 0.000971
125 0.000998
112 0.000969
101 0.000967
100 0.000966
110 0.000958
121 0.001991
69 0.001991
13 0.001995
0 0.001999
0 0.001999
23 0.002001
69 0.000996
104 0.000965
127 0.000959
122 0.001029
100 0.000998
94 0.001001
98 0.000996
111 0.001993
115 0.001994
65 0.001994
8 0.000999
0 0.001995
0 0.000998
30 0.000996
64 0.001029
98 0.00099
115 0.001035
104 0.000997
91 0.001994
85 0.001021
97 0.001995
112 0.000997
117 0.0
71 0.000958
18 0.000966
63 0.000965
70 0.000962
85 0.000994
115 0.000966
127 0.00096
126 0.0
118 0.0
112 0.0
112 0.0
116 0.0
125 0.0
131 0.0
100 0.000968
74 0.000965
68 0.000997
80 0.000962
95 0.0
112 0.0
123 0.0
117 0.0
108 0.0
103 0.0
104 0.0
108 0.0
121 0.0
120 0.0
91 0.0
57 0.000967
60 0.0
74 0.0
91 0.0
115 0.0
123 0.0
120 0.0
113 0.0
109 0.0
113 0.0
120 0.0
131 0.0
108 0.000962
72 0.000997
53 0.0
58 0.0
73 0.001977
91 0.001992
113 0.0
119 0.0
115 0.000966
108 0.001999
105 0.002005
111 0.002991
119 0.002994
133 0.0
127 0.0
89 0.0
58 0.002028
49 0.002993
60 0.0
77 0.0
97 0.0
112 0.001995
115 0.002001
105 0.003001
90 0.002995
95 0.00096
106 0.000961
121 0.0
136 0.002981
150 0.002994
117 0.0
52 0.0
14 0.0
12 0.002026
32 0.002035
80 0.001995
108 0.001996
118 0.000967
110 0.000998
103 0.001001
100 0.001013
107 0.002996
116 0.002992
135 0.0
147 0.0
159 0.0
168 0.001994
184 0.0
164 0.002973
84 0.002007
15 0.0
13 0.0
32 0.0
59 0.002996
89 0.002991
118 0.000963
113 0.000988
98 0.000958
88 0.002037
92 0.0
103 0.002003
117 0.002964
138 0.0
151 0.0
162 0.0
172 0.001965
179 0.00299
185 0.0
187 0.0
132 0.0
54 0.002996
12 0.000952
25 0.001994
49 0.002992
88 0.0
110 0.0
116 0.0
106 0.002992
92 0.002991
87 0.0
96 0.0
108 0.0
124 0.002002
147 0.001012
159 0.001963
170 0.002993
178 0.0
183 0.0
188 0.0
179 0.002961
103 0.00296
21 0.0
8 0.0
23 0.0
47 0.001982
95 0.001004
119 0.001961
121 0.001962
103 0.001007
95 0.000997
97 0.001991
104 0.002961
116 0.002962
139 0.0
152 0.0
166 0.001029
178 0.002962
195 0.0
181 0.001994
108 0.002991
32 0.0
25 0.0
40 0.000994
68 0.001994
97 0.002953
134 0.0
141 0.0
128 0.0
114 0.00296
106 0.000958
113 0.002959
123 0.002992
140 0.002992
153 0.002992
166 0.001999
177 0.002993
165 0.003024
97 0.002992
29 0.001995
24 0.002025
59 0.0
78 0.002962
123 0.0
142 0.002985
141 0.002992
124 0.001965
116 0.001995
119 0.003009
128 0.003988
141 0.002978
159 0.002995
174 0.003024
196 0.003987
149 0.0
69 0.001994
24 0.002989
17 0.003959
45 0.001992
76 0.002993
108 0.002993
134 0.004958
139 0.004993
123 0.002991
113 0.003023
116 0.002961
126 0.002991
139 0.0
155 0.002993
170 0.002993
187 0.001985
144 0.001978
66 0.003004
21 0.00399
13 0.00399
41 0.00196
70 0.002992
123 0.002989
137 0.003006
133 0.002951
124 0.003951
117 0.002993
122 0.002996
134 0.002
148 0.001995
162 0.00399
177 0.003989
193 0.001995
131 0.002992
36 0.002994
30 0.001995
48 0.002994
77 0.004951
111 0.00399
149 0.003002
155 0.002994
143 0.00299
130 0.003958
124 0.003985
130 0.001987
139 0.002992
163 0.002003
178 0.002002
185 0.001994
127 0.004989
60 0.004998
33 0.001984
45 0.002997
71 0.00295
104 0.004984
138 0.004035
157 0.002001
150 0.00301
134 0.002992
135 0.001994
142 0.001988
152 0.004984
166 0.005012
186 0.001995
193 0.002957
135 0.001998
63 0.004986
28 0.004986
35 0.002994
63 0.003
120 0.003002
148 0.003023
156 0.002001
147 0.004995
136 0.00499
130 0.001999
137 0.002992
148 0.001996
163 0.004988
179 0.005007
191 0.004986
129 0.001994
44 0.005985
30 0.002993
48 0.002989
79 0.002028
117 0.004994
149 0.004985
167 0.001995
160 0.002991
147 0.00296
142 0.005984
144 0.005956
162 0.004953
176 0.005943
196 0.002024
174 0.002981
101 0.002993
54 0.004985
46 0.00499
75 0.001995
106 0.002027
142 0.002958
170 0.005986
179 0.005983
160 0.00697
150 0.007027
148 0.003023
156 0.002993
166 0.002992
178 0.005952
188 0.005985
126 0.004008
66 0.003981
40 0.003027
46 0.005987
70 0.005986
124 0.006984
155 0.006943
164 0.002994
153 0.002992
141 0.002993
135 0.007008
139 0.006982
152 0.002993
165 0.003959
173 0.00396
120 0.005953
53 0.005992
24 0.006981
43 0.006982
85 0.002991
119 0.003986
147 0.002988
156 0.006991
147 0.006993
131 0.002952
128 0.003998
134 0.004003
147 0.00599
161 0.006018
165 0.006971
96 0.006978
34 0.003985
30 0.002956
48 0.004037
79 0.006985
114 0.006982
151 0.004026
157 0.002992
148 0.003989
136 0.006986
130 0.006992
140 0.006981
153 0.006953
176 0.003985
164 0.00296
99 0.004041
50 0.007015
38 0.006984
60 0.003989
93 0.00398
129 0.003989
159 0.006982
171 0.006981
155 0.007945
145 0.007947
146 0.006969
154 0.005007
167 0.004992
182 0.004027
189 0.006984
136 0.006983
66 0.004023
53 0.003991
66 0.003993
94 0.007951
150 0.004953
175 0.007009
172 0.007947
155 0.004995
148 0.004987
154 0.004955
180 0.007977
198 0.00699
249 0.003986
255 0.004954
233 0.004953
190 0.006985
194 0.004987
233 0.007961
255 0.00797
254 0.004986
254 0.004981
254 0.004985
255 0.007978
254 0.007979
255 0.00498
255 0.004981
254 0.004987
254 0.006981
254 0.005984
255 0.007978
255 0.007978
255 0.004986
255 0.004987
255 0.004987
254 0.007972
254 0.007979
255 0.004985
255 0.004987
255 0.00595
238 0.00597
238 0.005987
242 0.007928
220 0.007962
94 0.005028
21 0.005018
0 0.00499
68 0.007978
81 0.007977
96 0.005027
108 0.005019
108 0.005018
94 0.005993
89 0.005986
90 0.005985
91 0.00698
96 0.005984
102 0.005984
81 0.005984
32 0.007008
17 0.007014
24 0.00598
45 0.005953
73 0.005948
116 0.00698
126 0.005983
117 0.006984
108 0.007945
105 0.00602
109 0.005996
118 0.005992
133 0.007014
132 0.00701
97 0.005995
63 0.005997
46 0.00599
60 0.005983
74 0.005977
91 0.005954
104 0.006986
106 0.006987
102 0.006945
99 0.006017
98 0.005993
103 0.006003
111 0.005981
122 0.005983
108 0.005951
45 0.005983
43 0.005984
53 0.005984
69 0.005981
89 0.006018
110 0.005987
112 0.005984
107 0.006021
99 0.007106
97 0.006979
102 0.005017
110 0.006018
122 0.005976
86 0.006017
51 0.004949
38 0.005944
44 0.005984
66 0.005986
87 0.005986
105 0.005992
115 0.005983
114 0.006986
106 0.00698
103 0.006009
110 0.004982
118 0.005018
128 0.004987
131 0.005998
95 0.005994
44 0.005985
34 0.006021
42 0.006022
58 0.006021
78 0.005988
103 0.006013
112 0.006005
106 0.005016
102 0.005017
103 0.004991
108 0.00596
115 0.005018
128 0.00503
139 0.005988
132 0.005993
85 0.005985
49 0.006013
39 0.006013
51 0.006014
83 0.004988
104 0.004987
115 0.004988
116 0.005985
111 0.004992
106 0.004991
108 0.005017
114 0.00502
123 0.005018
132 0.004988
145 0.005983
154 0.004986
100 0.004991
62 0.004987
51 0.005024
59 0.004988
76 0.004953
102 0.004984
122 0.004987
130 0.004956
126 0.004949
118 0.004971
115 0.004958
119 0.003988
130 0.004974
139 0.004982
147 0.004004
157 0.004989
165 0.004984
116 0.004949
75 0.00495
60 0.004985
65 0.004937
80 0.004023
102 0.00399
136 0.003988
144 0.00399
136 0.003993
130 0.00396
129 0.004992
131 0.004987
138 0.004942
149 0.004991
157 0.004987
166 0.005029
172 0.004994
138 0.004983
73 0.003991
67 0.00403
81 0.004023
99 0.003026
121 0.003986
140 0.00396
146 0.003976
141 0.004954
134 0.00498
132 0.005002
135 0.005002
142 0.004994
155 0.003032
164 0.002993
165 0.003022
123 0.00296
86 0.004002
73 0.003958
78 0.004006
100 0.00395
120 0.003989
140 0.004988
152 0.003989
150 0.00399
139 0.003001
137 0.002978
142 0.002983
148 0.002999
154 0.00395
163 0.003961
170 0.003984
126 0.003997
91 0.002992
78 0.003988
83 0.002997
97 0.002987
132 0.002991
150 0.002991
158 0.002992
151 0.002989
145 0.003958
143 0.003989
145 0.003989
152 0.003998
160 0.003983
169 0.003974
159 0.003953
115 0.002976
78 0.002949
82 0.002951
102 0.001989
121 0.001995
143 0.002997
156 0.002993
156 0.002992
147 0.00399
143 0.003953
142 0.002987
146 0.002992
152 0.002993
166 0.001943
152 0.00399
98 0.00296
79 0.002952
80 0.002993
91 0.003957
110 0.003004
138 0.002992
153 0.002992
156 0.002994
150 0.002993
144 0.002993
141 0.001991
145 0.001989
152 0.001965
163 0.001993
152 0.002993
112 0.001994
85 0.001984
80 0.00196
93 0.002961
111 0.002961
132 0.002992
157 0.001995
157 0.001996
151 0.001949
144 0.001994
144 0.001995
146 0.001994
152 0.001996
161 0.001964
158 0.001965
109 0.001965
86 0.001996
84 0.001996
104 0.001008
123 0.001957
144 0.002
158 0.002026
158 0.001996
150 0.001995
144 0.001987
143 0.001995
145 0.001996
154 0.001994
163 0.002001
159 0.002021
78 0.001957
63 0.002955
68 0.000987
87 0.001993
125 0.001994
152 0.001992
166 0.00194
163 0.001962
152 0.002028
144 0.002
145 0.001996
151 0.002
168 0.002993
144 0.001998
90 0.002017
59 0.001994
55 0.001
74 0.001994
103 0.001039
134 0.002008
159 0.001993
167 0.001995
156 0.002027
145 0.001964
141 0.001994
147 0.001001
158 0.00103
158 0.0
95 0.001996
56 0.001996
44 0.001001
56 0.000997
77 0.001996
117 0.001996
142 0.001954
154 0.001962
142 0.000998
132 0.0
130 0.0
133 0.0
147 0.0
157 0.0
130 0.001963
76 0.001992
47 0.001994
48 0.000996
67 0.000965
95 0.000967
140 0.0
152 0.0
147 0.002035
135 0.001975
129 0.000996
