44 0.008976
67 0.005983
93 0.006031
101 0.006011
102 0.004986
105 0.003948
110 0.002023
119 0.001994
131 0.0
139 0.0
147 0.0
112 0.0
36 0.001009
22 0.001982
37 0.001986
57 0.002992
86 0.004975
98 0.005018
104 0.004986
104 0.007978
108 0.007964
117 0.00793
138 0.007932
141 0.007979
154 0.007974
147 0.007978
46 0.007975
36 0.00496
46 0.004937
76 0.005026
104 0.005993
122 0.004987
128 0.005022
129 0.004024
135 0.002992
145 0.003024
151 0.002992
164 0.003002
175 0.001995
181 0.001998
181 0.001966
119 0.002148
63 0.001995
61 0.001995
76 0.001997
113 0.000998
129 0.000998
141 0.000999
141 0.00101
142 0.000975
150 0.000964
159 0.001995
167 0.000997
179 0.000979
184 0.000967
191 0.001028
122 0.000998
78 0.001006
69 0.001
90 0.002994
115 0.003041
140 0.002965
154 0.002969
153 0.003018
152 0.003958
155 0.004991
166 0.005017
178 0.006982
185 0.007016
196 0.006982
158 0.007022
101 0.006981
62 0.006032
71 0.003976
87 0.004041
117 0.004029
132 0.003985
142 0.004037
139 0.004002
137 0.003946
143 0.00399
155 0.004123
163 0.003992
175 0.002992
182 0.004039
125 0.002993
51 0.002996
45 0.002962
67 0.002992
85 0.00302
117 0.000993
132 0.001
136 0.000997
134 0.0
139 0.0
147 0.0
159 0.001995
172 0.001999
179 0.001991
189 0.001996
160 0.002992
72 0.003992
55 0.004034
71 0.004031
96 0.005023
129 0.007022
143 0.006977
151 0.007014
150 0.006975
151 0.006997
157 0.006981
163 0.006982
172 0.007013
183 0.005984
186 0.006017
191 0.006014
110 0.004039
66 0.003995
58 0.003989
85 0.002992
106 0.002992
134 0.000993
142 0.001
140 0.000998
139 0.000998
143 0.000998
152 0.001173
161 0.0
172 0.0
180 0.0
156 0.0
83 0.0
51 0.001995
60 0.001997
90 0.003971
124 0.006016
140 0.007017
143 0.007017
141 0.006644
141 0.006983
150 0.006124
162 0.00596
168 0.005987
179 0.006025
152 0.005982
93 0.005952
42 0.006027
51 0.004975
73 0.005984
105 0.004996
121 0.004966
132 0.004986
132 0.004988
134 0.004988
140 0.004976
149 0.004983
161 0.003989
169 0.00503
151 0.002985
58 0.001995
32 0.0
43 0.0
64 0.0
83 0.0
112 0.0
123 0.0
123 0.0
126 0.0
131 0.0
144 0.0
157 0.0
164 0.0
175 0.000944
124 0.001999
52 0.002986
33 0.003989
53 0.004912
70 0.005027
103 0.004987
116 0.005029
123 0.00502
123 0.006003
127 0.005961
137 0.006025
145 0.007941
153 0.00792
169 0.007027
175 0.007015
183 0.006951
140 0.006981
66 0.006983
43 0.006982
62 0.006982
80 0.005985
111 0.005947
123 0.00597
124 0.005985
122 0.00502
126 0.005974
136 0.00502
145 0.006075
160 0.005018
171 0.004989
174 0.004994
165 0.005022
73 0.004985
44 0.003989
55 0.001989
80 0.001054
106 0.0
123 0.001005
126 0.0
122 0.000997
124 0.000982
130 0.000988
143 0.0
152 0.0
166 0.0
173 0.0
171 0.0
99 0.001995
32 0.001995
29 0.001996
53 0.001995
71 0.001995
101 0.003025
116 0.004031
118 0.00403
119 0.006018
128 0.006966
138 0.005989
145 0.005985
160 0.006017
168 0.006018
178 0.003988
182 0.003989
118 0.00302
44 0.00399
28 0.003989
42 0.003987
69 0.00399
88 0.002992
112 0.003032
117 0.003105
118 0.002992
122 0.002997
129 0.002992
143 0.002028
158 0.002026
166 0.002029
177 0.001982
186 0.002038
189 0.002031
195 0.00199
198 0.00199
203 0.001995
184 0.001995
95 0.00103
42 0.002002
40 0.001029
60 0.001996
92 0.001994
110 0.001954
121 0.002031
118 0.00211
115 0.000995
120 0.000998
131 0.000998
142 0.001003
160 0.0
167 0.0
178 0.0
183 0.0
188 0.0
193 0.0
161 0.0
62 0.0
41 0.0
43 0.000976
74 0.000997
95 0.000998
124 0.000967
130 0.000998
126 0.001995
127 0.001965
132 0.002009
145 0.00202
158 0.002031
169 0.002058
179 0.002027
188 0.001967
194 0.002008
199 0.002957
176 0.001948
70 0.002996
27 0.005001
33 0.005932
60 0.006953
84 0.005986
102 0.005972
116 0.005963
114 0.007022
115 0.004955
120 0.006017
131 0.005023
143 0.004986
158 0.004992
165 0.004986
175 0.003025
181 0.002021
146 0.002992
45 0.002024
19 0.003033
28 0.001988
58 0.002025
79 0.002007
104 0.002027
108 0.002028
106 0.001997
108 0.002028
113 0.002029
125 0.0
140 0.0
148 0.0
160 0.0
164 0.0
165 0.0
70 0.0
24 0.0
17 0.0
39 0.0
67 0.000998
92 0.001005
105 0.001999
102 0.001995
99 0.003018
104 0.002993
116 0.002937
131 0.002815
140 0.002993
152 0.002975
158 0.002978
119 0.003033
22 0.002993
5 0.003023
23 0.002984
44 0.002994
79 0.002993
101 0.003869
103 0.003006
100 0.004023
102 0.00402
114 0.003987
126 0.00399
139 0.003945
150 0.004032
162 0.00398
154 0.004015
51 0.00399
8 0.003989
4 0.003999
32 0.006019
51 0.006026
80 0.005787
90 0.005942
92 0.005981
94 0.00595
102 0.005982
117 0.006022
135 0.00698
140 0.006981
153 0.007018
159 0.007016
163 0.007016
95 0.007011
19 0.006012
4 0.007979
29 0.005988
47 0.004972
77 0.005025
91 0.005019
96 0.004982
95 0.00403
99 0.002995
112 0.00204
128 0.000989
136 0.0
148 0.000998
159 0.0
163 0.0
169 0.0
139 0.0
35 0.0
14 0.00096
28 0.0
63 0.000998
84 0.000998
109 0.0
109 0.000998
103 0.000997
105 0.001992
118 0.002958
128 0.00296
146 0.003031
162 0.003951
167 0.004888
175 0.004987
179 0.005023
123 0.005025
27 0.006015
17 0.00602
39 0.006019
68 0.006016
87 0.006022
106 0.006063
109 0.006015
108 0.006018
115 0.005984
126 0.005994
140 0.00602
154 0.006019
165 0.006019
175 0.006979
179 0.008022
186 0.006981
136 0.006979
46 0.006991
19 0.00599
44 0.00301
63 0.001975
95 0.002003
116 0.001037
118 0.0
118 0.0
121 0.0
133 0.0
146 0.001928
159 0.0
172 0.001005
179 0.0
190 0.000998
195 0.0
198 0.000997
184 0.0
71 0.0
33 0.001004
34 0.00103
59 0.000998
86 0.000997
116 0.00199
126 0.002031
120 0.003023
118 0.004029
124 0.005055
138 0.006062
153 0.007012
162 0.006021
175 0.006991
181 0.007025
190 0.007991
179 0.006019
118 0.006017
38 0.00599
39 0.006981
63 0.006028
92 0.006984
121 0.006018
137 0.007019
131 0.006017
127 0.005977
133 0.005986
147 0.004027
157 0.004987
173 0.003985
178 0.004987
188 0.004025
178 0.003996
114 0.00396
32 0.003964
28 0.004024
57 0.002972
89 0.002942
108 0.00296
125 0.000977
122 0.002002
119 0.000954
126 0.001995
139 0.0
149 0.0
163 0.001997
175 0.001995
180 0.002993
181 0.004021
125 0.003955
28 0.002994
20 0.003878
35 0.003972
64 0.003992
95 0.005953
107 0.006981
110 0.006969
110 0.007018
114 0.007083
127 0.007016
138 0.007019
154 0.007015
167 0.007981
172 0.007021
177 0.007978
149 0.007019
35 0.005992
7 0.00502
20 0.004986
48 0.005027
79 0.004024
93 0.005024
103 0.003034
104 0.001976
109 0.002033
123 0.001996
131 0.000999
150 0.000981
166 0.00201
177 0.004024
182 0.004023
188 0.003863
156 0.00399
44 0.004027
20 0.00399
35 0.005059
65 0.005988
85 0.007978
102 0.006982
114 0.007017
112 0.007025
114 0.007017
126 0.006982
136 0.007015
153 0.006989
168 0.004985
175 0.006023
185 0.003995
192 0.005031
195 0.005016
111 0.004984
74 0.005036
55 0.003956
86 0.004025
106 0.004021
136 0.003989
144 0.003991
139 0.003034
139 0.002992
145 0.001997
155 0.002992
171 0.003029
181 0.002992
194 0.002014
200 0.001991
208 0.001995
189 0.000997
125 0.002199
55 0.00103
54 0.001996
77 0.001004
104 0.001044
121 0.000949
136 0.0
135 0.0
135 0.0
141 0.001002
155 0.002989
164 0.003959
179 0.005984
189 0.007021
195 0.005989
202 0.005985
206 0.00699
150 0.005976
68 0.006981
46 0.004937
59 0.004972
87 0.004989
104 0.005056
128 0.005023
131 0.00397
130 0.004951
132 0.004023
140 0.003989
155 0.000962
171 0.00103
180 0.001042
192 0.00103
201 0.00099
207 0.000982
181 0.001995
96 0.000998
50 0.001996
61 0.000997
80 0.001
111 0.000992
130 0.0
138 0.000998
137 0.001005
139 0.002994
144 0.003026
159 0.002992
168 0.003034
182 0.00399
195 0.002993
200 0.004024
199 0.003991
147 0.004022
61 0.004045
60 0.004999
77 0.005055
110 0.004876
139 0.004981
148 0.004982
147 0.006018
147 0.007016
148 0.007977
158 0.007975
168 0.006981
180 0.007979
194 0.007977
198 0.007019
204 0.005984
128 0.00403
77 0.004023
64 0.003043
92 0.003026
105 0.003025
142 0.002026
151 0.002043
146 0.001986
142 0.002029
146 0.001006
158 0.002018
167 0.001047
181 0.0
190 0.001033
197 0.0
169 0.001086
75 0.00104
56 0.001061
74 0.0
93 0.0
127 0.001046
146 0.0
148 0.0
142 0.0
143 0.000999
150 0.001998
163 0.001995
172 0.001999
185 0.001995
195 0.005018
174 0.005018
69 0.004984
35 0.005024
48 0.004989
79 0.004986
99 0.004975
125 0.005024
130 0.004971
128 0.00483
131 0.005001
138 0.005986
150 0.006019
163 0.005986
172 0.005972
180 0.007979
140 0.007974
93 0.007016
27 0.004987
41 0.004021
60 0.004986
92 0.002002
116 0.001982
121 0.002032
117 0.002029
121 0.0
127 0.0
141 0.0
148 0.0
163 0.0
174 0.0
179 0.000997
182 0.000999
83 0.000997
33 0.000993
29 0.000998
48 0.001
83 0.000998
110 0.001998
121 0.002056
116 0.000998
111 0.000998
115 0.002037
129 0.001996
140 0.001995
156 0.001995
164 0.001995
174 0.001995
173 0.001995
118 0.001995
32 0.002027
37 0.003001
57 0.004027
92 0.003989
113 0.003982
127 0.005019
121 0.004985
119 0.005024
123 0.004986
139 0.005
148 0.00502
164 0.005065
173 0.004973
182 0.005018
151 0.004854
78 0.0051
17 0.004987
22 0.004998
53 0.005023
86 0.006981
104 0.006983
115 0.007979
112 0.00699
113 0.005984
122 0.003977
135 0.005026
149 0.002993
161 0.002101
174 0.002026
180 0.002023
173 0.001004
84 0.000998
19 0.000997
17 0.000997
41 0.000999
68 0.000964
99 0.000997
109 0.001032
108 0.000998
107 0.000997
112 0.002825
125 0.003027
136 0.002999
152 0.003994
165 0.005021
171 0.005022
178 0.005018
183 0.004815
161 0.004992
46 0.005984
16 0.006023
23 0.007013
47 0.007979
76 0.007015
105 0.007977
108 0.007097
103 0.006981
100 0.006022
112 0.002997
121 0.004024
138 0.001027
151 0.000998
159 0.0
168 0.0
171 0.000963
161 0.000997
51 0.0
14 0.0
23 0.0
57 0.0
86 0.0
108 0.0
112 0.0
106 0.0
109 0.0
116 0.0
132 0.002963
147 0.003028
159 0.003027
170 0.003017
177 0.002995
168 0.00302
55 0.002985
12 0.002956
14 0.003985
46 0.005018
66 0.005018
96 0.004994
105 0.004984
105 0.005023
107 0.004983
113 0.005984
129 0.005947
140 0.006016
157 0.005988
168 0.005988
177 0.005982
183 0.006018
135 0.006018
38 0.005991
6 0.006024
20 0.007017
45 0.00801
79 0.006013
96 0.007014
104 0.003991
100 0.002027
101 0.002003
113 0.002029
129 0.001995
139 0.002
152 0.002028
159 0.001029
166 0.000971
171 0.00103
112 0.001042
26 0.000997
12 0.001039
30 0.001033
67 0.000997
91 0.000959
113 0.000999
108 0.0
104 0.000997
107 0.000961
117 0.001996
132 0.0
149 0.0
157 0.0
169 0.0
174 0.0
106 0.0
15 0.002
10 0.001989
39 0.002026
75 0.002955
96 0.002988
113 0.002993
111 0.002993
109 0.002957
120 0.002993
128 0.002959
146 0.002992
160 0.003987
171 0.004987
180 0.004919
114 0.005973
65 0.007979
8 0.006966
27 0.006027
45 0.007015
78 0.00602
96 0.006017
108 0.003021
107 0.001994
111 0.000994
124 0.000998
141 0.00101
153 0.000998
169 0.001996
178 0.001995
186 0.000997
167 0.002047
75 0.0
27 0.001001
39 0.001027
58 0.001028
89 0.000991
107 0.0
120 0.000994
118 0.001037
122 0.00101
130 0.001011
146 0.003989
156 0.00502
173 0.006986
184 0.007014
188 0.006981
198 0.006865
156 0.006936
95 0.007017
61 0.006977
73 0.006981
104 0.006961
130 0.00497
145 0.004983
150 0.004988
146 0.005982
149 0.004987
159 0.005952
172 0.004949
184 0.005984
197 0.002991
203 0.003996
212 0.001996
211 0.000965
165 0.0
85 0.000989
81 0.0
95 0.000999
120 0.0
133 0.0
148 0.0
149 0.000991
148 0.000999
155 0.000998
168 0.000994
177 0.001037
192 0.000996
200 0.00101
210 0.001995
216 0.002
209 0.001993
135 0.002027
84 0.002026
81 0.003985
102 0.003993
115 0.004022
138 0.003994
149 0.003958
148 0.004029
150 0.00601
159 0.005978
167 0.005982
182 0.006022
191 0.006019
202 0.005981
211 0.006022
215 0.006027
221 0.005986
223 0.005982
174 0.007025
106 0.006965
88 0.005951
101 0.006999
124 0.006975
137 0.006981
151 0.006954
150 0.00696
144 0.007013
149 0.005951
157 0.006951
170 0.00499
178 0.00602
191 0.004993
202 0.004986
207 0.004012
213 0.003024
217 0.002989
183 0.002993
100 0.003042
84 0.003028
95 0.001977
113 0.004021
131 0.002025
145 0.002992
146 0.002995
144 0.002997
148 0.003022
154 0.002992
167 0.002995
180 0.000998
188 0.002026
198 0.001012
206 0.0
209 0.0
168 0.0
108 0.0
65 0.0
78 0.002032
89 0.003009
111 0.002993
128 0.005024
130 0.005047
128 0.005006
131 0.005021
139 0.00491
151 0.005986
159 0.005992
172 0.006021
181 0.006018
186 0.006019
191 0.005991
194 0.005992
140 0.007012
67 0.007955
46 0.00797
58 0.007011
84 0.005996
99 0.005994
115 0.006021
116 0.006006
110 0.006016
114 0.005993
122 0.005992
136 0.005987
147 0.004988
157 0.004003
164 0.004987
171 0.003985
177 0.002999
141 0.0
63 0.0
34 0.0
47 0.0
71 0.0
96 0.0
118 0.0
121 0.0
117 0.0
119 0.0
128 0.0
143 0.000997
152 0.002028
166 0.002984
176 0.004013
182 0.003982
179 0.003986
83 0.004026
39 0.003804
31 0.004035
48 0.004034
75 0.003987
96 0.005022
109 0.005025
110 0.005818
109 0.005987
113 0.006024
125 0.006024
136 0.00602
152 0.00599
166 0.006023
172 0.007021
178 0.006932
181 0.006983
187 0.006996
110 0.006982
49 0.005991
26 0.004982
52 0.003987
69 0.002986
98 0.002976
112 0.002035
111 0.001046
106 0.001994
111 0.001995
119 0.000997
133 0.0
142 0.0
156 0.000997
164 0.000957
170 0.000967
176 0.00101
151 0.000958
87 0.000964
29 0.00103
35 0.001032
67 0.000998
102 0.00099
117 0.001029
123 0.001
119 0.001041
118 0.001988
129 0.001959
138 0.001962
154 0.00201
163 0.001996
175 0.002959
184 0.004033
187 0.006027
123 0.006979
42 0.006981
21 0.006985
32 0.007971
64 0.006018
82 0.006015
109 0.005985
114 0.005018
111 0.006019
113 0.004987
120 0.005986
135 0.004974
152 0.005018
162 0.00398
174 0.003992
179 0.004032
185 0.00303
165 0.002993
56 0.001993
24 0.001998
34 0.001962
54 0.001976
85 0.002
113 0.00102
117 0.002028
112 0.000965
111 0.001007
117 0.000997
130 0.003016
146 0.00391
154 0.005039
167 0.004987
172 0.004985
178 0.005029
183 0.004982
152 0.005023
48 0.006969
29 0.006975
40 0.006978
74 0.006966
102 0.00697
123 0.005987
124 0.006978
115 0.005966
115 0.006989
125 0.006969
134 0.006965
151 0.006981
159 0.007011
171 0.00698
179 0.002998
181 0.003965
102 0.002994
25 0.002985
26 0.003
56 0.003035
77 0.003029
110 0.001957
124 0.000958
120 0.00097
117 0.00099
124 0.0
132 0.0
149 0.002016
166 0.000957
173 0.00199
182 0.001994
187 0.002022
111 0.00296
30 0.003026
18 0.002994
37 0.004009
70 0.005021
91 0.004987
113 0.006019
115 0.006027
112 0.005986
119 0.00602
126 0.006016
142 0.005905
158 0.006017
167 0.006032
178 0.005981
183 0.006018
189 0.006018
109 0.006994
60 0.00599
14 0.005989
32 0.006982
60 0.005989
86 0.006987
110 0.003991
112 0.002995
107 0.002001
108 0.000997
118 0.001014
134 0.000984
144 0.0
157 0.0
168 0.0
173 0.001014
178 0.002023
182 0.001995
159 0.001995
49 0.003991
21 0.003991
38 0.00399
74 0.003973
96 0.003982
121 0.005025
117 0.004988
111 0.004007
114 0.004987
124 0.006018
136 0.007015
149 0.007017
164 0.002987
170 0.003989
178 0.0
183 0.0
164 0.0
74 0.0
15 0.001867
23 0.003038
56 0.002989
91 0.00305
109 0.002994
119 0.003977
114 0.003866
114 0.004023
126 0.003022
136 0.004017
153 0.004028
166 0.004988
177 0.00602
182 0.006921
189 0.006974
178 0.005979
66 0.006019
11 0.004985
20 0.004985
52 0.002977
84 0.002002
101 0.0
110 0.0
108 0.0
107 0.0
120 0.0
128 0.000962
144 0.000996
160 0.000998
167 0.000998
178 0.003022
183 0.002995
185 0.004026
136 0.004002
61 0.003886
10 0.00399
25 0.003995
54 0.003992
81 0.003988
107 0.005043
109 0.005055
102 0.005024
101 0.004998
111 0.007014
124 0.005986
142 0.00398
153 0.003992
165 0.00399
170 0.003993
176 0.002992
176 0.003994
123 0.003987
27 0.00398
23 0.002997
48 0.000971
78 0.002028
107 0.000998
122 0.002028
118 0.00113
114 0.0
118 0.001035
130 0.0
146 0.0
159 0.0
173 0.0
181 0.001019
189 0.00204
189 0.002009
93 0.002028
16 0.001994
17 0.002001
46 0.001995
65 0.001996
98 0.002994
112 0.00505
111 0.00502
110 0.005983
117 0.006981
128 0.005982
145 0.006979
159 0.007098
169 0.003997
174 0.005978
175 0.005022
121 0.006017
21 0.004984
10 0.004986
35 0.004988
69 0.00399
89 0.004023
110 0.001996
110 0.002027
107 0.001025
116 0.002048
125 0.000999
143 0.000997
155 0.003032
167 0.0
176 0.000986
158 0.002053
87 0.002038
16 0.00196
23 0.003023
50 0.004022
77 0.004024
102 0.003883
114 0.005025
111 0.00602
110 0.006017
117 0.007011
131 0.003991
148 0.002991
157 0.001999
171 0.001966
178 0.002
138 0.001992
34 0.001988
18 0.00195
43 0.002079
72 0.001995
100 0.0
116 0.00099
117 0.0
112 0.0
117 0.000997
125 0.002035
142 0.003047
154 0.003027
165 0.002993
173 0.003046
180 0.003031
158 0.003017
54 0.003023
32 0.002987
53 0.002993
91 0.003058
113 0.005036
133 0.004804
127 0.005018
124 0.005022
130 0.005025
139 0.005993
156 0.006018
172 0.005983
179 0.005824
188 0.005956
192 0.005987
122 0.006016
51 0.005978
40 0.005978
64 0.006022
91 0.006022
118 0.005948
136 0.006967
134 0.006997
130 0.007021
134 0.00698
142 0.007015
159 0.004027
174 0.004018
183 0.003996
194 0.003985
198 0.004004
133 0.002969
42 0.003035
33 0.000991
59 0.000982
85 0.003009
108 0.001041
124 0.003002
127 0.000993
124 0.001054
130 0.001051
138 0.0
155 0.0
168 0.001995
181 0.001995
188 0.002003
196 0.001995
199 0.00185
121 0.001963
57 0.001994
34 0.002029
63 0.003958
83 0.00407
114 0.004957
127 0.005021
124 0.004022
121 0.00501
125 0.005039
139 0.005019
152 0.005071
166 0.005088
176 0.007938
184 0.007027
187 0.00697
192 0.005023
197 0.002986
179 0.003026
71 0.002027
44 0.00199
60 0.001946
98 0.000996
119 0.001086
143 0.0
138 0.0
132 0.0
133 0.0
145 0.000952
156 0.000997
172 0.000997
181 0.001029
193 0.000998
201 0.001996
204 0.001035
205 0.001995
133 0.002884
52 0.003962
34 0.002994
56 0.003995
84 0.004047
117 0.004952
132 0.00595
133 0.007975
128 0.00597
129 0.007017
141 0.005985
158 0.004948
169 0.003973
184 0.002979
195 0.00303
199 0.003025
206 0.003029
180 0.002938
64 0.002987
30 0.005035
46 0.003009
72 0.00399
100 0.002985
125 0.003989
133 0.004041
128 0.003022
125 0.00318
135 0.00204
144 0.000999
160 0.000997
176 0.0
183 0.0
191 0.0
194 0.0
199 0.003026
119 0.00304
54 0.002994
29 0.002868
58 0.003007
81 0.004022
117 0.00595
131 0.006976
123 0.006985
114 0.00698
118 0.007943
127 0.006177
140 0.007011
154 0.005016
166 0.007024
177 0.006984
183 0.007011
149 0.006019
38 0.003985
14 0.003989
30 0.002006
50 0.004021
87 0.003024
114 0.001925
116 0.001993
110 0.002024
113 0.002006
120 0.001997
137 0.002014
148 0.001962
164 0.001981
174 0.003032
181 0.002012
132 0.002992
36 0.002031
3 0.002992
23 0.001027
44 0.003032
78 0.0
100 0.0
107 0.0
104 0.0
105 0.0
114 0.0
131 0.000998
143 0.00203
159 0.002042
170 0.001999
175 0.001953
142 0.002031
67 0.001995
7 0.002947
26 0.004039
47 0.004042
81 0.00598
102 0.006018
107 0.005988
100 0.006021
102 0.006981
111 0.006979
126 0.007018
137 0.006974
151 0.006996
162 0.006978
168 0.006974
131 0.006976
61 0.007971
16 0.005001
32 0.004988
53 0.004985
89 0.003992
115 0.003025
114 0.00299
106 0.00206
109 0.003027
121 0.001033
134 0.002959
149 0.001958
160 0.002993
170 0.002961
176 0.002993
136 0.002992
65 0.003034
14 0.002992
35 0.001006
52 0.003031
80 0.001
101 0.0
104 0.000967
104 0.0
109 0.0
122 0.0
136 0.000998
146 0.001995
161 0.002035
170 0.002959
175 0.002958
141 0.003039
37 0.002961
18 0.002963
37 0.003002
53 0.002992
81 0.002958
101 0.003976
108 0.004998
108 0.006016
113 0.005971
121 0.005997
137 0.005982
148 0.005984
162 0.007017
169 0.00602
175 0.007975
179 0.005966
182 0.005993
186 0.005985
192 0.005987
167 0.005005
54 0.003993
32 0.003953
48 0.003947
82 0.004018
109 0.005043
122 0.003986
118 0.003987
113 0.001965
117 0.004027
131 0.003042
143 0.00203
159 0.001992
173 0.0
178 0.000999
182 0.000963
185 0.001993
189 0.0
185 0.0
127 0.0
47 0.000998
37 0.001991
54 0.002005
85 0.002027
115 0.004031
125 0.00402
124 0.00395
124 0.003995
132 0.003984
143 0.004983
158 0.004986
170 0.004967
184 0.006983
191 0.007982
198 0.007983
201 0.006974
194 0.007978
89 0.007036
44 0.007989
42 0.00598
72 0.006015
89 0.006025
117 0.004988
127 0.004994
128 0.00499
128 0.004986
135 0.004989
151 0.004957
165 0.004987
179 0.003027
188 0.003987
193 0.001987
131 0.002992
45 0.003036
40 0.002993
67 0.003958
99 0.000962
119 0.002021
136 0.001989
135 0.001993
131 0.001996
139 0.001002
148 0.001964
165 0.000978
173 0.0
186 0.000996
192 0.0
198 0.0
203 0.000997
209 0.000998
211 0.001964
218 0.001996
224 0.004024
227 0.004024
233 0.004004
182 0.004984
96 0.006976
39 0.007979
54 0.00598
76 0.006947
116 0.00399
144 0.001
142 0.00103
129 0.0
129 0.0
138 0.0
151 0.000961
165 0.0
182 0.0
194 0.0
201 0.0
205 0.000999
209 0.000998
212 0.00205
154 0.001998
78 0.001991
26 0.001872
46 0.001996
66 0.002995
101 0.002028
124 0.001995
131 0.003025
125 0.002005
125 0.002995
132 0.002835
148 0.003977
160 0.004987
178 0.004988
191 0.004988
197 0.004988
203 0.006958
201 0.005991
147 0.005151
37 0.004983
21 0.004987
43 0.004989
70 0.006015
98 0.004986
120 0.005982
121 0.004986
117 0.004983
118 0.005019
123 0.004987
139 0.004964
156 0.00199
164 0.002992
175 0.001993
183 0.001964
178 0.000966
68 0.0
22 0.0
24 0.0
57 0.0
79 0.0
106 0.000996
118 0.001997
111 0.002042
105 0.001963
115 0.00398
126 0.004028
144 0.003931
155 0.004021
166 0.006015
174 0.005988
170 0.005989
81 0.006018
7 0.006977
11 0.006988
42 0.007019
62 0.007013
94 0.00698
105 0.006978
101 0.006979
99 0.00698
109 0.005974
119 0.005991
138 0.005978
148 0.005979
161 0.006004
171 0.005984
174 0.005983
83 0.005017
7 0.00399
0 0.001992
21 0.004017
50 0.002989
68 0.002005
91 0.001995
95 0.0
94 0.002029
100 0.0
112 0.0
128 0.000888
145 0.000997
153 0.001
164 0.000997
168 0.001004
115 0.002994
14 0.002962
4 0.003994
27 0.003956
54 0.006027
73 0.006016
96 0.005985
99 0.006978
98 0.007016
104 0.007024
118 0.007977
128 0.005981
142 0.007979
156 0.005965
164 0.007972
170 0.007017
173 0.007014
171 0.007979
113 0.006981
20 0.005976
25 0.003989
45 0.005024
78 0.000996
107 0.000992
113 0.000971
107 0.0
111 0.0
118 0.0
137 0.0
151 0.0
161 0.0
172 0.0
176 0.0
182 0.0
173 0.001967
109 0.002991
28 0.004041
32 0.005985
51 0.005984
75 0.006979
105 0.005983
117 0.006981
120 0.005979
120 0.005978
125 0.005992
141 0.001994
159 0.000997
170 0.0
184 0.0
191 0.001996
192 0.0
197 0.0
145 0.001002
70 0.000973
24 0.000997
35 0.001028
63 0.001027
83 0.000999
105 0.000895
118 0.000998
118 0.000999
120 0.002015
133 0.002963
142 0.003014
160 0.003028
176 0.002966
184 0.002991
193 0.003023
197 0.003026
202 0.002996
193 0.002993
124 0.002999
34 0.002992
31 0.003
58 0.003961
86 0.004035
105 0.004024
123 0.003991
123 0.006018
123 0.006006
129 0.006017
142 0.006014
155 0.005975
172 0.006015
181 0.007016
191 0.007976
195 0.005979
198 0.006978
205 0.005983
132 0.003995
75 0.00398
57 0.004025
75 0.002982
111 0.00301
144 0.002991
153 0.003012
149 0.002994
145 0.002994
151 0.002991
162 0.004031
177 0.001994
190 0.001995
203 0.002038
210 0.001996
218 0.002031
225 0.0
197 0.002007
108 0.000998
66 0.002042
74 0.001996
103 0.001998
118 0.001994
146 0.001962
154 0.001994
151 0.001975
153 0.001996
160 0.002028
175 0.001963
190 0.002987
200 0.004998
213 0.006015
220 0.006981
224 0.00698
205 0.006949
138 0.007979
71 0.006016
61 0.006975
79 0.004985
101 0.00699
128 0.006017
139 0.004987
143 0.003995
140 0.000989
143 0.0
155 0.000968
170 0.000964
177 0.000998
192 0.000997
199 0.0
203 0.001001
209 0.000999
191 0.001963
85 0.001998
49 0.002993
60 0.002995
89 0.002951
112 0.005024
130 0.004991
134 0.004985
125 0.005016
126 0.005018
136 0.005021
145 0.005019
161 0.005991
172 0.006974
180 0.006975
188 0.007086
167 0.006968
100 0.006943
38 0.006984
40 0.006986
70 0.007023
102 0.005983
118 0.005983
127 0.005981
123 0.005983
120 0.005985
128 0.00798
139 0.005987
154 0.007006
165 0.006002
176 0.006974
186 0.006981
188 0.006956
110 0.004988
27 0.003025
22 0.004992
47 0.003004
64 0.00502
92 0.003165
111 0.002
112 0.000973
111 0.000952
120 0.002014
128 0.0
142 0.00103
159 0.00199
168 0.001994
178 0.002027
184 0.002961
142 0.001962
43 0.002992
28 0.003
46 0.002961
68 0.003036
91 0.002993
110 0.003026
115 0.00402
115 0.005032
120 0.00402
128 0.005017
145 0.007014
162 0.006969
169 0.007017
179 0.007043
188 0.005034
186 0.004985
96 0.004979
52 0.004035
60 0.002025
90 0.002027
114 0.002992
134 0.000985
139 0.002994
137 0.002006
137 0.002989
148 0.003034
157 0.003045
174 0.001979
183 0.001944
194 0.0
201 0.002029
183 0.001999
125 0.001996
71 0.002
74 0.002002
98 0.001993
123 0.001996
137 0.002994
145 0.002975
144 0.003014
145 0.002996
157 0.002972
166 0.00302
181 0.002961
189 0.005035
199 0.005017
205 0.004962
185 0.005949
110 0.004997
68 0.006019
72 0.006046
92 0.006016
113 0.007023
126 0.007784
135 0.007002
136 0.007976
137 0.006926
147 0.006026
155 0.006045
171 0.005983
185 0.004974
192 0.004994
202 0.005005
205 0.005016
133 0.003983
82 0.003989
79 0.002974
95 0.003985
116 0.002992
129 0.003027
144 0.00294
143 0.002955
144 0.000998
155 0.0
162 0.0
175 0.0
189 0.0
195 0.000998
205 0.002993
214 0.003001
218 0.002992
160 0.002993
123 0.002961
119 0.004001
141 0.006015
153 0.005987
172 0.006046
176 0.005985
171 0.005989
173 0.007016
182 0.005989
192 0.005984
202 0.005984
213 0.006982
220 0.006953
227 0.006976
155 0.007102
236 0.005984
169 0.003989
133 0.005982
127 0.003995
138 0.005981
153 0.003995
168 0.003975
173 0.002969
172 0.003981
171 0.001962
175 0.001977
185 0.001997
193 0.00103
204 0.002026
213 0.002996
220 0.001987
223 0.002993
162 0.001988
219 0.003004
137 0.001069
114 0.002152
117 0.001011
133 0.0
141 0.001994
154 0.000934
155 0.001995
151 0.0
152 0.000969
156 0.0
166 0.000994
177 0.000997
184 0.001995
194 0.002992
201 0.002971
206 0.004031
211 0.002992
215 0.002993
190 0.003026
123 0.003009
97 0.002951
103 0.00302
115 0.003998
131 0.004038
144 0.003991
142 0.004039
134 0.002993
134 0.003991
141 0.003991
152 0.005025
160 0.005985
171 0.006975
178 0.004972
185 0.003974
189 0.003979
195 0.003991
199 0.002982
172 0.004139
99 0.004949
64 0.00295
64 0.004987
76 0.002002
92 0.002993
109 0.003026
112 0.002994
108 0.003032
108 0.002009
113 0.003002
126 0.002
135 0.001995
148 0.001048
160 0.000968
163 0.0
165 0.001014
86 0.002024
44 0.001966
30 0.003955
48 0.004988
60 0.00502
82 0.005011
91 0.005021
89 0.005019
90 0.005988
98 0.007978
106 0.005974
117 0.007979
132 0.004956
140 0.004957
150 0.004982
155 0.004987
161 0.005019
167 0.002993
149 0.005024
51 0.002993
21 0.004987
25 0.001956
48 0.002989
62 0.002992
82 0.003182
84 0.001953
78 0.001973
81 0.002076
89 0.001995
103 0.001962
116 0.002992
127 0.0
134 0.002026
143 0.0
148 0.002028
100 0.002027
47 0.002039
17 0.0
32 0.0
55 0.0
76 0.000998
93 0.000999
98 0.000997
96 0.000998
99 0.000997
110 0.000998
126 0.002034
134 0.002992
147 0.003991
158 0.005982
164 0.005981
141 0.006945
81 0.00598
20 0.005996
25 0.006018
46 0.006949
66 0.006965
90 0.007028
98 0.006982
97 0.007018
97 0.007058
105 0.006982
119 0.006977
130 0.007012
144 0.006945
152 0.006979
159 0.005972
166 0.00697
168 0.006967
93 0.005984
40 0.006934
24 0.004973
49 0.003981
65 0.00398
90 0.003954
100 0.005949
97 0.003986
96 0.004022
104 0.004025
113 0.00399
127 0.004039
134 0.004024
146 0.003989
154 0.001987
158 0.00399
159 0.001999
114 0.005024
33 0.001998
34 0.0
46 0.001033
78 0.000847
106 0.001034
113 0.000999
110 0.0
110 0.000998
115 0.000854
130 0.002041
147 0.003954
155 0.004954
166 0.005955
173 0.006026
179 0.006981
154 0.006975
71 0.006976
33 0.007014
37 0.007019
53 0.007055
80 0.007013
104 0.005016
111 0.005022
112 0.003001
112 0.005016
121 0.002992
137 0.002038
146 0.002997
162 0.002997
172 0.003994
176 0.002028
182 0.000982
186 0.00103
162 0.0
57 0.0
32 0.0
46 0.00203
77 0.003033
93 0.003031
115 0.002991
116 0.004053
113 0.004021
114 0.003996
126 0.003998
136 0.00402
151 0.005003
159 0.004995
170 0.004978
175 0.005977
177 0.007987
181 0.006984
120 0.006988
63 0.006972
44 0.004976
74 0.003992
94 0.00303
126 0.002996
135 0.002988
128 0.0
122 0.0
127 0.00202
135 0.002993
151 0.004004
164 0.004024
174 0.004055
181 0.005028
187 0.005991
190 0.005988
188 0.006867
112 0.004986
53 0.006986
30 0.005986
45 0.00701
76 0.00497
104 0.002946
115 0.002015
116 0.001986
112 0.002012
116 0.001982
128 0.004023
141 0.001994
155 0.004019
169 0.004024
173 0.003014
181 0.002992
166 0.000948
102 0.002033
24 0.0
23 0.002028
51 0.000967
74 0.0
92 0.0
112 0.0
111 0.001035
111 0.002042
117 0.003961
132 0.005031
141 0.003991
157 0.005986
166 0.006985
171 0.006985
177 0.003992
180 0.006194
130 0.003988
45 0.005984
21 0.00499
36 0.005985
68 0.003987
86 0.002877
108 0.002992
106 0.0
102 0.00205
106 0.000984
117 0.0
132 0.0
144 0.0
153 0.0
164 0.0
171 0.000966
172 0.000968
84 0.000997
23 0.002995
28 0.00296
60 0.003001
93 0.004015
111 0.003991
118 0.004004
113 0.004004
111 0.004041
118 0.004987
133 0.006104
146 0.007978
158 0.007979
167 0.007976
177 0.007978
171 0.004977
114 0.005981
23 0.002976
21 0.001995
40 0.000975
69 0.001996
87 0.001983
106 0.0
104 0.0
103 0.000965
109 0.002029
124 0.001953
134 0.002985
151 0.004024
163 0.003956
168 0.003968
165 0.003959
85 0.006021
18 0.005987
12 0.006993
34 0.007961
52 0.007003
81 0.00702
95 0.007013
101 0.00601
99 0.002997
103 0.004978
116 0.002967
132 0.002988
143 0.002994
156 0.002993
162 0.002994
168 0.002994
174 0.001992
143 0.001028
39 0.0
19 0.002004
39 0.0
64 0.0
93 0.0
107 0.0
109 0.000998
104 0.003953
106 0.005013
121 0.005981
135 0.006979
148 0.007013
163 0.006978
171 0.005969
176 0.00499
183 0.004968
170 0.004991
73 0.00498
40 0.005003
52 0.004988
83 0.004021
104 0.004984
123 0.001996
126 0.002993
120 0.002034
122 0.001993
134 0.002031
143 0.002993
159 0.001963
172 0.001007
178 0.002004
185 0.000994
178 0.0
141 0.0
51 0.0
40 0.0
61 0.001024
88 0.000998
105 0.000997
125 0.000997
127 0.000998
125 0.001002
132 0.001996
140 0.001995
156 0.001994
171 0.00302
179 0.003025
188 0.004979
182 0.006971
128 0.006979
50 0.007018
49 0.007016
63 0.006984
91 0.005983
107 0.005966
128 0.006017
130 0.003991
130 0.005995
137 0.003994
150 0.003991
159 0.003988
174 0.003992
181 0.003075
190 0.002131
198 0.001992
182 0.001997
80 0.001992
46 0.004022
58 0.002005
81 0.002992
105 0.002008
125 0.001996
133 0.002012
131 0.0
131 0.001995
138 0.003004
149 0.002993
162 0.003003
176 0.003045
182 0.002961
190 0.002991
195 0.005036
198 0.006019
170 0.00598
103 0.005982
49 0.005992
66 0.005983
85 0.005983
117 0.005987
133 0.005986
136 0.005986
126 0.00602
127 0.00596
137 0.006976
150 0.007965
159 0.005976
170 0.0072
179 0.00599
187 0.006981
193 0.007023
194 0.007981
111 0.005985
44 0.001991
45 0.00399
75 0.0
108 0.001993
126 0.002014
136 0.001997
133 0.001977
130 0.000998
135 0.001996
146 0.002025
158 0.002003
174 0.0
181 0.000997
192 0.000997
195 0.001001
144 0.000992
59 0.000997
30 0.001996
45 0.002957
76 0.003992
94 0.003998
120 0.003953
124 0.004951
121 0.005979
124 0.005984
134 0.00594
142 0.004942
158 0.003985
173 0.001992
174 0.001997
90 0.001011
39 0.001043
43 0.0
67 0.002008
94 0.0
121 0.001993
134 0.002048
131 0.0
129 0.0
133 0.0
143 0.0
156 0.0
166 0.0
176 0.0
117 0.0
63 0.000999
45 0.000956
62 0.000957
95 0.001006
127 0.001945
136 0.004
131 0.004982
127 0.005022
132 0.005029
145 0.005985
156 0.006977
165 0.006986
175 0.00698
103 0.007972
55 0.004985
45 0.006981
64 0.004984
93 0.006018
126 0.00599
135 0.006165
132 0.004986
130 0.002001
135 0.001995
146 0.0
160 0.0
170 0.0
166 0.0
108 0.000979
36 0.0
40 0.0
58 0.001995
92 0.002004
121 0.002036
128 0.003002
125 0.003961
125 0.004024
131 0.004006
145 0.004016
155 0.003973
168 0.004024
169 0.003948
97 0.003972
37 0.004988
43 0.005984
64 0.006935
91 0.006952
122 0.004926
130 0.005984
127 0.002995
127 0.002981
133 0.002989
147 0.002998
157 0.001995
171 0.002002
179 0.002989
124 0.001992
52 0.000997
45 0.001
64 0.001003
101 0.000998
128 0.002993
136 0.003004
132 0.002992
129 0.004047
133 0.005017
146 0.004984
155 0.004989
168 0.005994
178 0.005985
160 0.006
78 0.005979
44 0.00599
59 0.005985
96 0.005983
119 0.005993
143 0.005991
139 0.004985
134 0.003984
136 0.004003
147 0.005984
158 0.003991
170 0.005192
183 0.003993
181 0.002987
83 0.002993
44 0.002992
51 0.002989
87 0.001991
109 0.002993
137 0.001006
139 0.0
135 0.0
134 0.000994
145 0.001958
155 0.003028
171 0.002992
179 0.003007
191 0.002988
144 0.002992
74 0.003027
34 0.002965
62 0.002992
83 0.002992
119 0.005016
136 0.00703
138 0.006016
133 0.007972
134 0.005985
143 0.00798
157 0.007977
168 0.00797
186 0.007973
195 0.004988
201 0.006981
208 0.00398
213 0.004968
218 0.002994
224 0.002987
227 0.003007
233 0.002993
238 0.002993
241 0.003004
246 0.002981
218 0.001994
76 0.001991
33 0.001995
48 0.0
76 0.002028
114 0.001997
131 0.001987
132 0.001018
118 0.000998
115 0.002026
121 0.00495
137 0.004029
149 0.004021
165 0.004952
173 0.005986
183 0.007015
189 0.006982
192 0.007015
197 0.006975
168 0.006942
75 0.006979
28 0.006978
34 0.005986
67 0.005983
104 0.00502
124 0.00502
136 0.004989
126 0.006981
122 0.004982
126 0.007016
137 0.004986
152 0.004979
168 0.005188
176 0.004987
187 0.004095
193 0.001963
196 0.005029
121 0.002012
50 0.001995
9 0.001993
32 0.001994
52 0.0
88 0.0
105 0.002045
107 0.000961
100 0.002004
100 0.0
110 0.001985
126 0.001988
137 0.002001
152 0.0
162 0.0
167 0.0
174 0.0
129 0.0
35 0.001035
65 0.0
70 0.000998
86 0.000958
96 0.000965
109 0.000997
111 0.001997
109 0.00197
109 0.002992
116 0.002997
121 0.002994
129 0.003959
133 0.005
139 0.005985
143 0.005984
139 0.005827
89 0.005978
67 0.005974
73 0.005983
86 0.005984
96 0.006017
112 0.006996
115 0.007016
112 0.006984
111 0.007004
115 0.005991
120 0.007979
128 0.005975
134 0.00798
139 0.005968
144 0.005988
139 0.005989
89 0.004986
69 0.003979
75 0.002979
90 0.001976
103 0.002992
115 0.002041
118 0.001993
116 0.0
116 0.002043
122 0.00203
127 0.0
135 0.0
141 0.001996
145 0.00195
149 0.001982
129 0.003003
96 0.003979
72 0.004031
77 0.003988
91 0.003033
89 0.005981
102 0.006019
108 0.00595
107 0.006967
108 0.006976
115 0.006922
126 0.006952
138 0.006926
150 0.006939
156 0.005942
161 0.005987
164 0.007979
154 0.005017
92 0.007978
49 0.005021
53 0.006983
76 0.005983
88 0.005985
107 0.004987
113 0.002001
111 0.002995
113 0.001994
122 0.000988
129 0.0
142 0.000998
150 0.000997
155 0.001003
161 0.000964
165 0.001018
162 0.001033
93 0.002992
69 0.003004
79 0.002993
102 0.002994
116 0.002992
133 0.003045
134 0.003025
131 0.003025
133 0.005952
137 0.006032
149 0.00602
161 0.006992
168 0.007026
173 0.00697
179 0.005008
183 0.004986
139 0.004975
95 0.00497
74 0.003986
91 0.00497
102 0.003991
121 0.002032
133 0.005018
135 0.002033
135 0.00404
139 0.001984
144 0.002041
155 0.001995
163 0.002044
173 0.002004
180 0.0
183 0.002028
155 0.0
109 0.002
75 0.001004
82 0.0
94 0.0
113 0.000963
132 0.0
136 0.000998
136 0.001021
137 0.000946
143 0.001
154 0.001033
160 0.000997
171 0.001016
180 0.001996
184 0.002995
188 0.002959
193 0.00394
193 0.005022
142 0.006032
92 0.004956
86 0.004983
104 0.005017
115 0.006008
135 0.006029
142 0.006016
141 0.007977
139 0.005969
142 0.00799
151 0.00598
163 0.004986
169 0.003968
179 0.004968
186 0.003974
190 0.003995
195 0.002044
179 0.002002
110 0.00199
91 0.004023
100 0.003005
116 0.003989
136 0.002995
146 0.001993
150 0.002027
147 0.00202
149 0.002964
156 0.00095
163 0.001996
173 0.0
184 0.0
186 0.0
194 0.001032
181 0.002998
136 0.00304
87 0.003031
86 0.002992
102 0.003037
120 0.003995
130 0.002994
141 0.003991
140 0.002992
140 0.004988
145 0.005967
152 0.007979
161 0.006019
170 0.006984
179 0.005984
183 0.005984
189 0.005986
191 0.005984
134 0.004991
80 0.002012
79 0.004029
95 0.002996
114 0.002004
125 0.001045
134 0.002991
133 0.002007
130 0.002035
133 0.002025
138 0.0
150 0.00103
161 0.000997
165 0.001039
173 0.001962
176 0.00103
154 0.000958
99 0.000991
78 0.001998
87 0.00399
108 0.004988
120 0.004983
137 0.007971
138 0.003975
134 0.002989
135 0.002955
142 0.001968
154 0.0
160 0.000964
170 0.0
175 0.0
182 0.0
152 0.002029
95 0.0
73 0.002037
80 0.000956
96 0.002029
115 0.003035
125 0.002029
130 0.001996
129 0.003
130 0.002987
136 0.00399
147 0.004029
154 0.003991
164 0.003986
168 0.004018
175 0.003991
122 0.003986
81 0.003847
65 0.003992
74 0.004024
93 0.004021
113 0.003999
121 0.004987
123 0.006951
122 0.006989
124 0.005982
131 0.004982
139 0.006028
148 0.003974
156 0.006014
161 0.003989
167 0.003992
139 0.002027
73 0.0
62 0.00203
76 0.000994
89 0.003072
110 0.0
123 0.0
122 0.0
119 0.0
121 0.0
132 0.0
143 0.000966
148 0.001006
157 0.0
163 0.000967
167 0.002047
125 0.000967
87 0.000998
74 0.002013
92 0.001995
104 0.001996
124 0.002008
131 0.002994
131 0.003031
130 0.002949
136 0.006017
143 0.007049
154 0.007024
160 0.00697
169 0.007946
175 0.003964
170 0.006981
104 0.003973
74 0.004989
78 0.005128
95 0.003996
104 0.003985
119 0.003989
124 0.001994
123 0.001993
124 0.00502
132 0.005017
138 0.005022
149 0.003936
155 0.00399
163 0.004022
169 0.003001
172 0.002995
161 0.000946
89 0.0
73 0.000997
71 0.001995
88 0.002996
98 0.004987
113 0.00599
115 0.005978
112 0.005991
113 0.005986
121 0.005987
128 0.005986
139 0.00599
145 0.005958
150 0.00698
155 0.006995
158 0.006979
155 0.006981
118 0.006966
66 0.006984
66 0.007979
82 0.007971
102 0.007981
117 0.005985
120 0.00796
118 0.00502
118 0.007976
123 0.005001
134 0.005019
140 0.00497
152 0.004017
160 0.004007
164 0.003005
168 0.002991
144 0.002995
74 0.001996
60 0.005017
71 0.001971
87 0.003992
106 0.002993
115 0.002043
119 0.003025
118 0.002026
120 0.0
129 0.0
137 0.002
147 0.002992
157 0.002992
161 0.003993
161 0.004987
100 0.005028
78 0.005027
84 0.004982
106 0.005004
119 0.00587
136 0.005984
139 0.00598
136 0.005741
141 0.005989
147 0.005984
158 0.005984
163 0.006983
174 0.006094
179 0.007005
145 0.004017
111 0.007019
115 0.007029
127 0.006983
146 0.004987
163 0.002979
167 0.003003
164 0.000955
169 0.0
174 0.0
184 0.000961
190 0.000974
198 0.0
198 0.0
166 0.001029
130 0.001029
138 0.0
148 0.0
163 0.0
171 0.000999
176 0.001003
173 0.00101
175 0.000998
182 0.000998
188 0.000998
197 0.000964
204 0.00203
211 0.004026
217 0.002992
223 0.004986
226 0.005987
148 0.005986
235 0.005985
239 0.005946
244 0.004988
249 0.00396
233 0.002031
167 0.001991
157 0.004027
168 0.001992
182 0.004026
191 0.003017
197 0.004187
193 0.004022
187 0.004024
186 0.003968
191 0.0
196 0.002989
202 0.002992
206 0.002991
209 0.001996
213 0.0
215 0.0
218 0.0
189 0.001995
155 0.004028
138 0.003006
147 0.002994
152 0.00399
162 0.00303
166 0.003994
164 0.004987
157 0.006021
157 0.004985
162 0.004988
166 0.007026
170 0.006982
176 0.006977
180 0.006997
184 0.006983
166 0.007004
126 0.007971
96 0.007013
94 0.003994
100 0.005988
108 0.003983
115 0.002969
114 0.003987
106 0.002991
101 0.001973
101 0.002
104 0.001992
108 0.001999
115 0.0
111 0.001989
70 0.001011
40 0.002042
40 0.0
47 0.001053
60 0.001013
69 0.002993
70 0.004993
66 0.005987
67 0.006036
72 0.006021
82 0.005982
89 0.004977
96 0.00702
92 0.004001
38 0.001989
23 0.002025
30 0.0
47 0.0
56 0.0
66 0.0
67 0.002027
64 0.002996
69 0.003031
75 0.002997
86 0.002989
98 0.003989
105 0.003026
78 0.002986
39 0.003022
31 0.004018
41 0.004012
55 0.003995
69 0.004
81 0.004022
84 0.004987
86 0.006997
91 0.005981
97 0.007959
109 0.004948
118 0.007986
128 0.00499
138 0.004983
142 0.002991
150 0.003037
156 0.002995
160 0.00199
166 0.003076
173 0.00299
177 0.003006
159 0.002952
112 0.002985
66 0.003023
67 0.0
75 0.002993
81 0.0
92 0.0
96 0.0
96 0.0
98 0.0
104 0.0
114 0.0
121 0.000967
131 0.001997
140 0.001999
143 0.002012
148 0.002995
152 0.002992
149 0.003996
90 0.003977
68 0.004003
67 0.003989
76 0.004016
86 0.003986
96 0.004006
101 0.003998
101 0.003956
103 0.004033
107 0.005017
117 0.00498
124 0.004983
134 0.005978
142 0.005984
145 0.005978
151 0.005984
135 0.005984
97 0.005979
66 0.005988
69 0.004986
79 0.004966
93 0.004976
102 0.005005
109 0.00507
109 0.005007
109 0.002993
116 0.005035
126 0.00499
133 0.004979
143 0.003977
148 0.004987
154 0.003022
159 0.0
163 0.000997
164 0.001997
115 0.002988
66 0.004021
64 0.006015
77 0.005983
89 0.006977
96 0.006969
107 0.006008
110 0.005956
111 0.006032
116 0.002995
124 0.002993
134 0.000964
141 0.0
150 0.002003
154 0.001999
158 0.002947
161 0.004986
161 0.004979
116 0.005005
67 0.006984
65 0.005984
80 0.007012
91 0.005098
101 0.006991
112 0.004983
113 0.007014
111 0.003996
117 0.003999
123 0.003993
134 0.003988
144 0.002959
149 0.002994
155 0.000984
159 0.0
162 0.001962
141 0.000998
79 0.001015
68 0.001008
80 0.000997
92 0.000997
109 0.000993
121 0.001977
124 0.001995
122 0.001995
124 0.002015
131 0.001963
142 0.002037
147 0.003023
157 0.003989
165 0.005978
167 0.005994
171 0.006979
168 0.006971
133 0.006976
82 0.005985
69 0.007015
78 0.004985
91 0.005984
108 0.003989
117 0.00399
120 0.004038
120 0.002984
123 0.001997
132 0.0
140 0.002026
150 0.0
159 0.0
162 0.000963
167 0.000992
169 0.00101
157 0.0
87 0.0
67 0.0
72 0.0
84 0.0
102 0.0
114 0.002012
120 0.001
117 0.002031
117 0.000997
122 0.003015
133 0.003993
141 0.005
150 0.005977
156 0.006006
161 0.005983
165 0.006989
160 0.008024
95 0.003985
72 0.005018
75 0.004009
86 0.005992
106 0.002003
124 0.00299
126 0.003008
124 0.002998
125 0.0
130 0.0
138 0.0
150 0.003002
155 0.002956
163 0.004983
169 0.004989
172 0.004952
156 0.004955
97 0.005025
65 0.004952
67 0.005037
82 0.004982
97 0.004033
115 0.004992
120 0.005958
120 0.006969
119 0.005951
123 0.007971
132 0.005998
140 0.007994
148 0.005985
156 0.005989
152 0.004985
89 0.004973
63 0.004994
63 0.003997
82 0.003991
95 0.00399
115 0.003991
118 0.005985
116 0.004008
117 0.006014
121 0.003988
130 0.006988
140 0.006016
146 0.006017
153 0.005974
125 0.005994
63 0.005984
57 0.001994
69 0.004021
91 0.001994
112 0.001994
117 0.003009
114 0.001995
113 0.001994
120 0.002996
130 0.003994
137 0.001989
147 0.003989
154 0.002004
139 0.00402
73 0.002977
59 0.002991
73 0.003024
96 0.002992
111 0.002991
125 0.0
127 0.002992
125 0.0
131 0.001016
136 0.0
145 0.001996
157 0.002009
163 0.002007
133 0.003987
74 0.003952
66 0.003944
82 0.002949
103 0.004984
116 0.005977
128 0.005987
129 0.005987
128 0.005985
132 0.006978
139 0.005986
147 0.007972
157 0.007979
166 0.007977
130 0.007942
89 0.007947
69 0.006975
82 0.002993
95 0.005987
117 0.002993
130 0.002006
131 0.001995
129 0.002987
134 0.0
139 0.0
150 0.000965
157 0.000979
166 0.0
168 0.001964
121 0.000994
74 0.001953
73 0.0
86 0.000979
108 0.000933
121 0.001013
129 0.002955
124 0.003959
123 0.003969
129 0.004989
139 0.006978
148 0.00595
154 0.007028
163 0.003994
167 0.006981
172 0.001996
177 0.002001
179 0.002
182 0.002006
187 0.002
189 0.003008
173 0.001986
120 0.002993
67 0.001999
70 0.003001
88 0.0
107 0.003021
126 0.002995
127 0.001986
121 0.001994
119 0.002037
125 0.002029
137 0.0
143 0.001996
155 0.0
163 0.00195
167 0.001959
172 0.003999
176 0.003989
166 0.003959
91 0.00396
62 0.003959
61 0.005987
80 0.005018
94 0.005994
113 0.006003
120 0.005871
118 0.00598
117 0.005985
121 0.005973
131 0.005988
142 0.006982
148 0.006981
157 0.007015
161 0.007015
167 0.006982
155 0.004985
107 0.006977
53 0.003988
57 0.001999
71 0.002975
93 0.002006
111 0.001995
114 0.000966
109 0.0
109 0.001998
116 0.0
125 0.001996
134 0.0
143 0.002999
151 0.000993
157 0.00299
142 0.002989
82 0.00399
52 0.005985
58 0.005999
81 0.007969
99 0.002983
112 0.006161
118 0.003026
116 0.005987
117 0.002992
126 0.003008
132 0.002998
144 0.003999
151 0.002991
160 0.002991
166 0.001993
144 0.001992
73 0.00299
57 0.003989
68 0.002997
83 0.003981
98 0.001991
113 0.003997
117 0.003987
116 0.00399
118 0.001985
128 0.000949
134 0.001997
146 0.001001
152 0.003007
161 0.0
167 0.0
162 0.0
94 0.0
60 0.000997
65 0.001995
84 0.002
103 0.00399
112 0.003988
115 0.004948
113 0.004973
115 0.004958
124 0.004957
131 0.004989
142 0.004981
150 0.006019
155 0.004983
158 0.006022
163 0.005988
131 0.006033
70 0.004993
63 0.006012
79 0.006048
91 0.006019
110 0.006975
120 0.004981
119 0.007974
115 0.002992
120 0.003005
126 0.001988
137 0.002986
147 0.003015
152 0.002997
158 0.003
162 0.00305
152 0.002004
94 0.004021
59 0.002991
60 0.003993
79 0.00199
90 0.001995
108 0.001993
114 0.001989
113 0.00205
114 0.0
118 0.0
130 0.000983
140 0.0
147 0.0
155 0.00201
161 0.003992
164 0.004988
159 0.006981
86 0.006981
58 0.005978
62 0.00698
70 0.005967
88 0.005961
102 0.007979
112 0.003953
112 0.004023
113 0.00399
118 0.00203
129 0.002002
141 0.0
148 0.003035
157 0.0
161 0.0
165 0.0
170 0.0
164 0.0
108 0.0
60 0.002041
62 0.001995
81 0.003017
102 0.00402
112 0.003943
120 0.003995
116 0.004002
117 0.004036
126 0.003988
134 0.003996
147 0.003956
156 0.007001
162 0.005981
169 0.006991
175 0.008004
177 0.007976
147 0.007979
95 0.003993
83 0.005996
95 0.00399
108 0.004989
130 0.001986
146 0.000992
148 0.0
146 0.0
151 0.0
157 0.0
170 0.0
179 0.002043
186 0.0
195 0.0
200 0.0
206 0.0
165 0.0
128 0.0
112 0.0
121 0.000876
135 0.000998
148 0.002025
159 0.001991
163 0.001995
163 0.001916
164 0.001992
172 0.001996
179 0.002012
190 0.002021
200 0.003993
206 0.003991
214 0.004988
218 0.005951
203 0.004986
149 0.005987
138 0.004996
145 0.003003
159 0.003992
169 0.005025
177 0.003032
179 0.003036
178 0.002993
180 0.002995
189 0.003025
198 0.0
203 0.0
210 0.0
215 0.0
222 0.000967
219 0.0
190 0.0
158 0.0
166 0.003037
175 0.002036
187 0.002041
195 0.002016
198 0.003027
194 0.003007
194 0.003026
200 0.003044
206 0.003984
212 0.004958
218 0.005018
222 0.005012
227 0.004948
225 0.005022
197 0.00502
160 0.005987
163 0.006981
173 0.007987
181 0.005992
191 0.004987
194 0.004001
191 0.003972
189 0.003989
192 0.003994
198 0.003994
202 0.003003
208 0.002966
212 0.004987
215 0.0
218 0.0
175 0.000997
150 0.000998
146 0.0
155 0.001999
163 0.003036
170 0.002029
174 0.002993
171 0.002967
165 0.002992
166 0.002992
170 0.002962
176 0.003988
180 0.006018
184 0.005941
186 0.005979
189 0.004986
185 0.004983
154 0.00499
113 0.003984
114 0.002994
121 0.00399
128 0.0
134 0.001984
132 0.0
127 0.0
124 0.0
126 0.0
133 0.002027
139 0.001828
142 0.001996
147 0.001007
151 0.002009
153 0.001995
109 0.001997
78 0.003026
63 0.003062
69 0.003035
74 0.003003
84 0.003956
87 0.004979
84 0.004986
82 0.004957
84 0.005001
91 0.004985
100 0.004987
105 0.005995
113 0.005785
118 0.005971
123 0.00599
88 0.007981
55 0.005027
36 0.00598
42 0.006143
48 0.006017
61 0.006017
72 0.002994
73 0.004956
73 0.002998
76 0.005024
84 0.003
94 0.003006
100 0.002018
111 0.00212
120 0.0
124 0.0
129 0.0
97 0.002998
54 0.000958
45 0.003024
50 0.000997
66 0.002002
82 0.0
89 0.0
90 0.001995
88 0.001997
92 0.002022
99 0.001995
108 0.002036
117 0.002009
127 0.002963
132 0.004024
139 0.003996
144 0.003982
125 0.003962
71 0.00498
60 0.004981
69 0.004953
86 0.004979
98 0.004988
110 0.004992
109 0.004984
107 0.004958
110 0.006966
115 0.00502
126 0.007978
136 0.00794
140 0.006981
148 0.006956
155 0.002963
156 0.00396
106 0.002991
63 0.003
63 0.002992
76 0.003002
85 0.002989
102 0.003004
109 0.001006
107 0.000965
107 0.001006
112 0.001992
117 0.0
128 0.000877
135 0.0
145 0.000998
153 0.001045
156 0.001954
150 0.000998
98 0.00201
62 0.001996
62 0.001996
74 0.002008
88 0.002993
104 0.005001
107 0.004947
105 0.006984
97 0.005023
103 0.007986
112 0.004993
125 0.004966
133 0.004976
144 0.004039
149 0.004975
157 0.004029
137 0.004959
86 0.004973
43 0.003972
52 0.007013
71 0.004043
93 0.007012
109 0.003955
113 0.004985
110 0.004986
110 0.005018
119 0.00399
133 0.000997
141 0.003033
151 0.001034
162 0.0
166 0.0
173 0.0
153 0.0
71 0.002022
49 0.004002
62 0.006984
76 0.005941
99 0.003987
112 0.004952
113 0.00498
109 0.004932
110 0.004009
121 0.00399
131 0.00694
142 0.004989
151 0.00702
161 0.005181
165 0.005018
172 0.005019
154 0.005026
70 0.004985
46 0.002989
55 0.002994
77 0.000962
98 0.000971
107 0.0
108 0.001032
103 0.0
105 0.002025
114 0.000997
123 0.000998
136 0.001994
147 0.000997
153 0.000997
159 0.001995
165 0.001995
156 0.002982
92 0.003998
47 0.00395
47 0.00399
70 0.004027
86 0.003996
109 0.00399
112 0.003958
108 0.003992
106 0.004983
112 0.004984
120 0.003985
134 0.004003
146 0.004019
153 0.002991
161 0.003027
164 0.003011
144 0.0
72 0.002994
35 0.0
42 0.003028
67 0.003025
82 0.003023
103 0.0
108 0.000997
103 0.003022
103 0.002007
111 0.00199
121 0.002006
136 0.002
145 0.001997
155 0.001972
164 0.002947
169 0.002993
111 0.003939
36 0.006014
28 0.005986
42 0.005993
67 0.005019
82 0.003976
100 0.00299
102 0.003989
100 0.000997
103 0.002993
114 0.003037
123 0.002028
138 0.003023
145 0.0
156 0.0
162 0.0
166 0.0
164 0.000975
78 0.0
36 0.001005
32 0.001996
57 0.003993
73 0.004984
97 0.004976
104 0.005977
101 0.005984
98 0.005984
102 0.004989
114 0.003999
130 0.003994
139 0.003
151 0.002991
156 0.00598
162 0.00302
168 0.00502
121 0.004023
67 0.003026
37 0.002991
59 0.0
76 0.000997
101 0.001022
118 0.000998
119 0.002031
112 0.002985
111 0.002986
121 0.002993
136 0.003033
144 0.002992
158 0.003993
166 0.004981
171 0.004982
169 0.005016
123 0.006021
43 0.005994
36 0.005946
49 0.005935
78 0.007971
100 0.006977
113 0.005984
115 0.005993
110 0.003003
111 0.003959
123 0.0
138 0.000997
146 0.000998
159 0.000998
165 0.0
172 0.001024
163 0.001972
69 0.002952
33 0.00299
33 0.003007
48 0.002993
73 0.003004
98 0.004967
107 0.004986
106 0.005002
106 0.004982
113 0.00498
125 0.005008
137 0.004988
149 0.00499
161 0.005021
159 0.006019
81 0.005973
40 0.004985
40 0.007974
65 0.005985
87 0.00798
107 0.002993
120 0.001998
119 0.0
121 0.001014
130 0.001007
139 0.0
153 0.0
163 0.0
170 0.00102
143 0.000997
65 0.001
53 0.000988
71 0.002001
92 0.002994
113 0.003022
127 0.002994
127 0.004981
124 0.006947
129 0.006979
138 0.003994
147 0.005954
160 0.003976
166 0.006016
176 0.003981
123 0.002993
76 0.002985
61 0.003014
86 0.002996
101 0.003001
127 0.002993
134 0.002992
129 0.002999
126 0.001972
131 0.001014
142 0.00203
155 0.002996
163 0.002993
174 0.003025
178 0.003026
183 0.003008
188 0.000997
191 0.0
196 0.000998
201 0.002036
204 0.00201
210 0.002046
213 0.002042
165 0.001996
70 0.002014
55 0.002063
71 0.001998
96 0.001996
109 0.001996
120 0.002994
116 0.003829
110 0.003959
116 0.005998
121 0.005943
136 0.006978
150 0.006977
156 0.006981
165 0.006977
169 0.006981
174 0.006979
177 0.005988
181 0.007946
124 0.004043
50 0.003021
42 0.001984
60 0.001966
82 0.002038
96 0.002996
111 0.002937
112 0.002976
108 0.002996
114 0.006001
123 0.003008
137 0.003028
151 0.002991
160 0.00303
171 0.003036
178 0.0
182 0.0
167 0.0
93 0.0
45 0.000998
48 0.000913
62 0.001988
86 0.002063
109 0.003007
116 0.003992
115 0.003931
114 0.003988
120 0.004985
134 0.006003
141 0.004987
157 0.005987
166 0.004983
170 0.004983
178 0.004017
168 0.003978
96 0.0
45 0.003035
47 0.002992
61 0.002992
87 0.002987
111 0.0
117 0.002993
115 0.001002
115 0.001989
121 0.000966
135 0.0
143 0.0
158 0.000962
167 0.0
173 0.0
179 0.001985
183 0.001998
162 0.002031
69 0.002006
44 0.002981
54 0.00304
82 0.002995
98 0.002996
119 0.002992
123 0.003001
118 0.002993
118 0.003992
126 0.004963
138 0.006018
152 0.007014
160 0.007976
169 0.007999
177 0.002988
181 0.005011
187 0.002992
169 0.001994
115 0.0
60 0.0
70 0.0
85 0.0
114 0.001065
135 0.002002
139 0.002047
132 0.003958
131 0.003993
137 0.003991
151 0.003985
160 0.003056
174 0.003958
183 0.003947
189 0.003954
197 0.003957
201 0.003818
184 0.00399
100 0.003017
74 0.002984
81 0.003993
94 0.004034
119 0.005951
140 0.004967
143 0.004975
139 0.005987
139 0.00595
142 0.002991
154 0.003009
165 0.004996
177 0.003004
186 0.004985
193 0.00502
197 0.004981
203 0.005018
195 0.004021
110 0.002976
67 0.0
68 0.0
83 0.0
105 0.0
119 0.0
129 0.0
123 0.000994
121 0.002029
128 0.000997
134 0.001993
148 0.002893
161 0.003962
168 0.004988
176 0.005
181 0.006018
184 0.00602
166 0.003992
97 0.006989
61 0.003989
65 0.006981
85 0.007015
100 0.006996
121 0.00701
126 0.007149
120 0.006981
119 0.003992
123 0.006015
136 0.001993
150 0.0
157 0.0
168 0.0
176 0.0
181 0.000972
169 0.0
120 0.000998
66 0.0
66 0.003025
81 0.001009
98 0.0
111 0.0
124 0.0
119 0.0
117 0.0
121 0.0
131 0.001999
142 0.002958
152 0.002992
164 0.004021
169 0.004054
176 0.004999
180 0.004958
143 0.005032
65 0.005018
50 0.004999
57 0.005022
69 0.005035
86 0.004954
99 0.00503
100 0.005988
97 0.005983
99 0.003992
104 0.003989
117 0.002991
126 0.00399
136 0.003004
146 0.002992
152 0.002972
156 0.002999
157 0.003031
100 0.0
45 0.000965
35 0.0
45 0.003022
61 0.0
79 0.001
87 0.0
83 0.0
81 0.0
84 0.0
97 0.0
106 0.0
120 0.0
130 0.0
135 0.0
142 0.0
145 0.0
111 0.0
49 0.001996
28 0.00208
39 0.00198
61 0.003953
75 0.005974
91 0.007981
89 0.00397
86 0.006981
89 0.001996
101 0.0
115 0.000965
124 0.001004
136 0.0
143 0.0
149 0.001001
154 0.002989
158 0.000996
141 0.0
70 0.0
30 0.000996
33 0.002029
45 0.00303
64 0.003959
80 0.003023
87 0.003959
87 0.006021
90 0.006974
95 0.007979
106 0.00797
121 0.005986
133 0.007978
