95 0.011982
96 0.003002
98 0.002993
101 0.002981
103 0.001988
102 0.001995
95 0.001977
92 0.000998
93 0.0
95 0.0
96 0.0
99 0.0
101 0.0
102 0.0
104 0.0
107 0.000994
108 0.001957
111 0.001972
112 0.00197
115 0.002953
117 0.003969
118 0.003998
120 0.005967
122 0.007978
123 0.006981
120 0.005984
110 0.002992
108 0.001995
90 0.001995
92 0.0
96 0.002006
99 0.001942
101 0.002021
104 0.001985
106 0.002966
110 0.002941
112 0.002972
115 0.002939
119 0.002963
122 0.002964
125 0.004992
128 0.005016
130 0.004978
133 0.005954
135 0.00596
137 0.005982
125 0.005962
111 0.006985
108 0.00796
113 0.007967
114 0.007971
116 0.007956
117 0.007965
118 0.007975
119 0.006978
121 0.006958
124 0.006969
127 0.006988
130 0.006997
133 0.006002
135 0.005993
138 0.006033
141 0.00599
143 0.005984
145 0.006018
147 0.005965
141 0.005979
125 0.004978
124 0.003001
128 0.004022
132 0.003989
133 0.003973
134 0.003983
134 0.004015
135 0.003982
139 0.003029
138 0.002996
137 0.002999
156 0.002976
159 0.002991
164 0.002052
164 0.002039
174 0.001032
185 0.000991
185 0.017956
150 0.000998
145 0.002953
144 0.002954
150 0.003002
155 0.003948
162 0.004997
167 0.004991
170 0.007957
177 0.007959
184 0.007966
186 0.007933
191 0.007979
196 0.006982
185 0.007971
148 0.007015
127 0.007962
129 0.006972
135 0.006972
138 0.006996
142 0.006988
137 0.007006
136 0.006987
138 0.00602
142 0.006008
150 0.005979
156 0.007025
159 0.005966
162 0.005939
163 0.005948
171 0.005966
173 0.005982
176 0.005983
144 0.00397
109 0.003046
107 0.004002
113 0.002992
117 0.003975
121 0.002995
114 0.003028
111 0.002992
113 0.000994
123 0.000967
131 0.0
141 0.0
148 0.000968
151 0.001004
159 0.000998
163 0.000987
155 0.001995
92 0.00199
74 0.001967
80 0.002993
86 0.002962
93 0.002958
99 0.002933
98 0.003006
94 0.003009
103 0.005006
109 0.006983
122 0.007968
128 0.006975
135 0.006981
150 0.005017
160 0.00399
154 0.003978
90 0.003989
65 0.005026
68 0.004027
75 0.003989
78 0.004018
85 0.003988
85 0.00399
86 0.003986
94 0.004029
104 0.004035
115 0.004024
127 0.002992
133 0.00399
140 0.002991
144 0.003018
153 0.00303
152 0.003022
85 0.000997
59 0.001995
58 0.00203
63 0.002019
69 0.001996
78 0.001964
82 0.002981
84 0.003021
94 0.00398
103 0.004987
115 0.004987
120 0.004987
133 0.004983
142 0.004997
148 0.004988
156 0.004987
165 0.004987
170 0.005984
178 0.005985
184 0.006983
144 0.007973
90 0.006982
77 0.007978
84 0.006938
91 0.00702
95 0.005036
97 0.005017
96 0.004035
97 0.004041
104 0.004027
110 0.004017
115 0.003046
116 0.003989
118 0.002957
123 0.003989
131 0.003035
138 0.003992
147 0.001995
150 0.001995
157 0.0
119 0.000998
72 0.000999
66 0.000999
79 0.000999
86 0.000998
93 0.001995
92 0.028923
86 0.0
88 0.0
91 0.006947
76 0.00797
81 0.00798
89 0.006981
92 0.004987
98 0.003991
95 0.003029
97 0.003989
108 0.003028
117 0.003991
130 0.002992
137 0.002994
143 0.003059
151 0.002995
157 0.002022
167 0.001994
173 0.002031
171 0.000998
106 0.000955
74 0.0
75 0.000975
86 0.002984
92 0.002991
96 0.002994
96 0.002946
94 0.002993
102 0.003021
110 0.002992
120 0.002992
128 0.003036
135 0.002947
139 0.003976
145 0.004987
150 0.005021
157 0.004986
159 0.004986
127 0.004954
67 0.004987
65 0.005994
73 0.007013
84 0.006978
87 0.007008
87 0.007948
78 0.006983
84 0.003992
91 0.004044
106 0.003989
113 0.004024
121 0.002988
129 0.000997
134 0.002
141 0.000998
147 0.001012
132 0.006982
67 0.000999
49 0.0
63 0.0
73 0.0
80 0.0
82 0.0
80 0.0
85 0.0
96 0.0
105 0.0
117 0.0
127 0.0
132 0.0
141 0.0
146 0.000967
155 0.002994
161 0.003991
128 0.003988
74 0.006012
58 0.006986
66 0.007015
77 0.006981
84 0.007013
91 0.006016
88 0.004014
93 0.003023
104 0.0
110 0.0
121 0.0
121 0.0
129 0.000972
144 0.000999
153 0.001996
156 0.003003
153 0.005042
151 0.005022
118 0.004966
60 0.006981
46 0.006968
46 0.006995
47 0.007977
50 0.007978
60 0.007981
59 0.007959
57 0.007979
66 0.006981
72 0.00795
86 0.006991
90 0.007962
103 0.007013
112 0.007012
116 0.007014
126 0.006013
141 0.005007
144 0.003995
157 0.003953
127 0.00399
60 0.004045
56 0.004979
66 0.004021
76 0.00399
92 0.004023
93 0.004028
90 0.003989
93 0.004022
103 0.004024
119 0.002993
128 0.003992
142 0.003022
150 0.004043
159 0.003025
168 0.003027
173 0.00305
185 0.002004
188 0.002023
182 0.002001
106 0.002025
81 0.001032
86 0.000996
96 0.001995
101 0.000997
104 0.000992
191 0.004021
139 0.00399
77 0.003988
75 0.003927
87 0.003973
94 0.00401
97 0.005028
98 0.004986
99 0.00598
104 0.00596
116 0.006009
127 0.005984
139 0.005975
148 0.006011
152 0.006013
157 0.005962
163 0.005999
170 0.006987
174 0.006982
180 0.006985
119 0.006997
79 0.006999
78 0.007979
94 0.007017
108 0.007962
115 0.006977
112 0.006975
110 0.007036
111 0.006978
119 0.006994
134 0.005994
144 0.005981
151 0.006011
160 0.005978
163 0.006954
170 0.005946
146 0.004954
102 0.004954
65 0.003971
76 0.003961
89 0.003969
101 0.002971
96 0.003006
95 0.003026
97 0.002967
104 0.002991
124 0.00298
136 0.001969
142 0.001965
155 0.000968
161 0.001
171 0.000999
129 0.0
79 0.0
49 0.0
64 0.0
71 0.0
80 0.0
83 0.0
78 0.000992
85 0.001006
92 0.000999
100 0.000993
111 0.001002
115 0.000999
125 0.000999
130 0.001026
139 0.000964
94 0.000998
46 0.001971
27 0.001993
37 0.001991
47 0.001992
58 0.001993
57 0.001996
57 0.001993
63 0.002954
71 0.003989
84 0.004023
94 0.004017
104 0.005943
110 0.006983
117 0.006963
120 0.006984
131 0.006982
94 0.00698
27 0.006984
23 0.006983
35 0.007937
48 0.006974
57 0.006961
60 0.006955
58 0.006979
63 0.005986
81 0.006022
92 0.005984
109 0.005943
117 0.005977
123 0.005976
134 0.005946
142 0.00399
147 0.003962
83 0.004027
41 0.003038
46 0.003009
62 0.002982
68 0.002984
81 0.002991
79 0.001998
80 0.002985
93 0.002008
104 0.002001
117 0.001995
136 0.000997
143 0.000987
155 0.000983
161 0.001031
170 0.0
180 0.000999
187 0.0
62 0.000993
85 0.006981
90 0.007938
101 0.005964
109 0.004984
116 0.004991
124 0.003018
131 0.002989
146 0.001992
153 0.002002
160 0.001994
148 0.001973
64 0.000953
44 0.0
47 0.0
46 0.0
48 0.0
52 0.0
50 0.000989
52 0.000994
59 0.000978
71 0.001
87 0.000999
96 0.001994
112 0.001984
126 0.001986
140 0.003033
153 0.003986
169 0.003971
176 0.003955
185 0.004004
190 0.003986
149 0.003945
74 0.005012
66 0.004993
81 0.004985
93 0.005985
98 0.005985
100 0.005987
97 0.005973
103 0.005971
113 0.006001
125 0.005953
136 0.006972
146 0.00797
150 0.007977
161 0.00795
168 0.007936
178 0.007968
186 0.007009
192 0.007972
200 0.006018
204 0.006989
140 0.00598
76 0.005969
72 0.005972
82 0.006005
89 0.004979
95 0.004996
97 0.004977
96 0.005021
101 0.005027
111 0.005983
125 0.005002
138 0.005986
146 0.004968
155 0.004986
165 0.004971
168 0.004956
177 0.004989
186 0.002987
194 0.002994
203 0.002013
211 0.00298
161 0.0
92 0.0
76 0.0
86 0.001998
96 0.002011
102 0.001991
108 0.00393
107 0.00399
110 0.003954
122 0.003993
137 0.003982
144 0.003939
154 0.004977
162 0.004986
171 0.005013
179 0.004996
187 0.004954
193 0.004989
197 0.004988
205 0.004967
179 0.006012
125 0.005956
81 0.006972
90 0.007019
99 0.007009
111 0.006973
113 0.006984
109 0.006982
106 0.00597
111 0.006003
125 0.005978
138 0.005969
147 0.005979
158 0.005985
162 0.005011
170 0.004994
174 0.005953
181 0.00499
187 0.005965
142 0.004983
81 0.005957
66 0.006008
73 0.005982
84 0.004987
94 0.003021
92 0.003028
90 0.001993
95 0.002985
107 0.002012
119 0.002946
127 0.000998
134 0.0
71 0.007012
75 0.007022
75 0.006981
73 0.00701
73 0.006976
86 0.006984
95 0.006986
108 0.006978
117 0.006012
122 0.006979
132 0.005959
137 0.006981
147 0.005987
123 0.005995
63 0.005014
36 0.004972
45 0.004956
59 0.005015
66 0.004987
65 0.004988
59 0.005013
63 0.004992
78 0.005015
89 0.00499
97 0.003992
108 0.003029
116 0.002008
121 0.0
131 0.0
131 0.0
78 0.0
37 0.0
41 0.001006
52 0.002966
66 0.002937
70 0.002994
67 0.002951
68 0.002993
75 0.003042
91 0.002997
105 0.002992
113 0.003019
123 0.003032
130 0.002995
139 0.003959
146 0.003991
145 0.004988
90 0.004979
43 0.004976
40 0.005021
53 0.004984
56 0.005988
66 0.006972
70 0.005981
69 0.005972
76 0.004041
91 0.002981
100 0.002959
112 0.001001
121 0.001008
128 0.001026
136 0.000996
145 0.001985
152 0.000971
159 0.001999
138 0.000965
59 0.001008
40 0.000997
44 0.000993
50 0.001027
54 0.000999
62 0.000996
62 0.0
64 0.000984
75 0.0
86 0.0
95 0.0
108 0.0
112 0.0
121 0.0
129 0.0
135 0.0
144 0.001
150 0.00097
129 0.001
54 0.002038
39 0.001995
49 0.001996
55 0.001994
66 0.001995
69 0.001998
67 0.001996
71 0.002005
82 0.001997
99 0.002995
107 0.001962
118 0.002989
126 0.002993
135 0.003957
139 0.003991
147 0.004017
156 0.004006
113 0.005016
57 0.00602
52 0.006014
68 0.007021
72 0.007009
79 0.007017
84 0.005983
84 0.005984
88 0.00499
102 0.005012
116 0.005973
126 0.004979
134 0.005021
141 0.004007
147 0.003979
156 0.003989
163 0.004029
175 0.004026
160 0.004036
78 0.003987
54 0.003017
60 0.004022
65 0.002992
71 0.002029
75 0.000998
77 0.0
80 0.0
92 0.0
109 0.0
116 0.0
126 0.0
136 0.000967
139 0.0
164 0.0
83 0.004017
82 0.004014
89 0.001995
98 0.003016
118 0.001995
134 0.0
141 0.0
148 0.000986
160 0.001997
172 0.003989
183 0.004986
130 0.005013
90 0.004987
77 0.005036
95 0.006023
102 0.006013
113 0.006012
112 0.005987
111 0.006018
119 0.006014
127 0.006989
142 0.006981
153 0.005968
157 0.005951
166 0.00497
181 0.004028
188 0.004018
199 0.003999
153 0.002982
106 0.003038
82 0.003031
92 0.002001
104 0.003005
114 0.004022
121 0.002025
121 0.002988
123 0.001995
134 0.002992
150 0.000995
158 0.001007
167 0.000997
179 0.000996
183 0.001037
191 0.00099
200 0.000999
204 0.001994
148 0.002025
102 0.001966
87 0.001997
101 0.001965
107 0.001995
110 0.001987
107 0.001988
108 0.002992
121 0.002952
131 0.002993
144 0.003031
155 0.002957
157 0.003962
161 0.005026
168 0.00698
173 0.00698
179 0.007009
178 0.006969
117 0.00798
75 0.007978
71 0.007979
79 0.00601
88 0.005031
91 0.00601
84 0.003021
80 0.002989
85 0.001987
97 0.000995
107 0.000963
110 0.00096
119 0.0
122 0.0
130 0.0
111 0.000993
58 0.0
37 0.000998
44 0.0
56 0.001001
72 0.0
75 0.000999
67 0.001968
68 0.001996
81 0.002022
92 0.002038
105 0.002023
116 0.002051
123 0.001996
132 0.001995
113 0.00196
65 0.001988
30 0.002989
42 0.002994
50 0.003989
66 0.004987
70 0.007009
71 0.007014
77 0.007005
94 0.005983
105 0.005983
116 0.005989
120 0.006987
123 0.005011
124 0.005986
75 0.005003
28 0.00597
26 0.005969
39 0.005983
51 0.006004
61 0.005975
68 0.004982
67 0.00296
72 0.003985
91 0.002001
106 0.001984
116 0.001992
129 0.00197
143 0.001003
130 0.0
68 0.001003
85 0.0
91 0.000963
94 0.001001
95 0.001953
107 0.002927
122 0.002994
144 0.002992
165 0.002993
176 0.003988
176 0.002992
177 0.00399
175 0.003936
158 0.003974
111 0.003983
66 0.005979
71 0.005992
67 0.005974
65 0.005987
79 0.005984
74 0.00594
68 0.005987
76 0.005954
84 0.005987
103 0.004981
127 0.004011
131 0.002001
146 0.000968
156 0.0
164 0.000947
173 0.000974
190 0.000995
210 0.0
223 0.001999
218 0.001994
215 0.002928
215 0.002949
210 0.002975
130 0.005975
94 0.006988
102 0.006994
106 0.006983
104 0.007954
111 0.006971
130 0.005986
122 0.005984
131 0.004985
140 0.005973
148 0.005023
163 0.005979
184 0.005999
188 0.005998
188 0.006009
181 0.006025
183 0.00498
171 0.004001
171 0.004996
175 0.003988
188 0.002993
172 0.002995
119 0.002994
106 0.00299
103 0.002994
116 0.000999
122 0.0
161 0.0
207 0.001005
227 0.000994
255 0.001962
255 0.002952
255 0.002932
255 0.002993
255 0.002952
255 0.003931
255 0.003951
254 0.00399
255 0.004983
255 0.005004
255 0.004981
254 0.004966
255 0.004977
255 0.004971
251 0.004951
255 0.004963
255 0.005986
255 0.006949
255 0.006973
255 0.006974
255 0.007018
255 0.007
255 0.007001
255 0.007043
207 0.006984
214 0.006983
214 0.004977
211 0.005007
213 0.003993
206 0.004966
213 0.005032
220 0.004985
220 0.004979
199 0.003036
194 0.003995
201 0.002004
206 0.003018
211 0.001989
206 0.002004
199 0.002022
192 0.001984
197 0.000972
200 0.000998
202 0.000996
202 0.000998
201 0.000965
202 0.000998
203 0.002002
202 0.003924
204 0.003954
206 0.003976
211 0.00399
213 0.00396
195 0.00397
185 0.003927
188 0.003949
193 0.004986
197 0.006996
199 0.006973
199 0.007008
201 0.006967
203 0.006971
203 0.024933
204 0.0
209 0.006994
209 0.006965
209 0.006978
208 0.005989
209 0.005977
210 0.005945
211 0.005987
211 0.005993
206 0.005991
190 0.006962
255 0.00503
255 0.005978
255 0.004981
240 0.005999
243 0.004974
184 0.004946
183 0.004988
187 0.003001
188 0.003989
190 0.001959
190 0.003989
189 0.002987
188 0.003021
186 0.002991
185 0.001997
175 0.0
166 0.0
164 0.0
169 0.0
171 0.0
172 0.000964
169 0.0
165 0.001995
164 0.001986
165 0.001999
166 0.003981
166 0.003994
166 0.003973
168 0.003947
170 0.004981
172 0.005985
157 0.005983
149 0.005996
149 0.005985
151 0.005967
153 0.007017
153 0.00696
148 0.006012
146 0.005017
145 0.005984
145 0.005986
146 0.005986
146 0.00604
145 0.004975
144 0.005996
144 0.003998
135 0.003975
118 0.00399
114 0.003989
115 0.003942
116 0.003029
114 0.002987
108 0.000979
105 0.0
105 0.0
96 0.0
98 0.00096
102 0.0
101 0.000992
103 0.001003
105 0.002012
90 0.002993
71 0.003983
58 0.002977
63 0.002948
65 0.00395
69 0.003986
66 0.004017
60 0.003988
61 0.005977
66 0.005983
70 0.005997
75 0.005962
77 0.005986
82 0.005978
84 0.005982
83 0.006946
58 0.00697
42 0.007969
40 0.006974
46 0.006992
51 0.005996
53 0.00404
51 0.004022
51 0.003012
56 0.00202
59 0.001994
65 0.001997
70 0.002993
74 0.002002
77 0.000991
84 0.000925
85 0.000998
58 0.000997
45 0.0
49 0.000998
58 0.001995
65 0.002024
67 0.001997
62 0.002033
63 0.002025
70 0.001992
74 0.001998
82 0.002036
87 0.001996
54 0.002031
62 0.002963
73 0.006035
47 0.007028
4 0.00698
3 0.024933
4 0.0
12 0.000976
37 0.006978
34 0.007012
44 0.006974
59 0.006999
66 0.007009
73 0.006995
82 0.006043
90 0.005985
95 0.005987
104 0.005011
75 0.006013
24 0.005021
26 0.003989
37 0.004032
43 0.00399
49 0.003985
51 0.00399
50 0.003968
58 0.003989
72 0.00399
81 0.005039
90 0.004017
101 0.004987
104 0.003021
115 0.003992
122 0.003024
129 0.00399
78 0.00302
45 0.001994
40 0.001995
52 0.0
59 0.0
63 0.000999
63 0.0
61 0.0
72 0.000999
81 0.000998
97 0.000999
108 0.000999
113 0.000999
124 0.002041
134 0.003992
140 0.005018
148 0.005977
132 0.006991
90 0.006956
54 0.00696
67 0.007979
69 0.007008
76 0.007979
78 0.006985
75 0.007949
77 0.006022
83 0.006022
97 0.004993
110 0.002994
118 0.002998
127 0.003
133 0.002991
140 0.001995
147 0.00302
154 0.00303
156 0.00304
106 0.003028
63 0.000971
65 0.001997
78 0.000999
89 0.002022
94 0.001028
90 0.001028
84 0.0
91 0.0
103 0.001
114 0.002955
125 0.004018
132 0.004018
140 0.004987
145 0.007011
155 0.006983
142 0.00696
101 0.006987
65 0.00602
76 0.00603
87 0.005014
101 0.003022
100 0.002968
94 0.003022
95 0.00296
107 0.004018
120 0.002987
130 0.002992
140 0.002027
145 0.003031
153 0.003019
159 0.003023
164 0.003018
121 0.001025
78 0.002029
56 0.000966
66 0.001026
80 0.0
87 0.0
89 0.0
84 0.0
87 0.0
97 0.0
112 0.000998
123 0.003994
126 0.004987
133 0.005949
142 0.005973
150 0.006035
144 0.005983
105 0.005988
48 0.006013
49 0.007978
60 0.006029
67 0.006981
76 0.006983
74 0.007008
71 0.007014
75 0.007016
88 0.007012
104 0.005023
113 0.006016
124 0.004997
135 0.003045
140 0.002041
155 0.001984
148 0.001988
75 0.0
47 0.0
59 0.0
78 0.0
87 0.001011
85 0.000997
77 0.000996
82 0.000999
92 0.001996
108 0.004993
116 0.004988
127 0.006996
131 0.007979
140 0.006981
148 0.005021
145 0.005029
76 0.002066
57 0.00203
69 0.0
90 0.0
101 0.0
102 0.0
93 0.0
94 0.0
108 0.0
116 0.000997
133 0.001004
139 0.000997
148 0.0
153 0.002033
160 0.000999
136 0.001996
58 0.001995
43 0.001996
64 0.002
78 0.001995
91 0.002993
86 0.00295
79 0.003055
82 0.003996
100 0.004022
109 0.005014
122 0.004982
134 0.005021
141 0.005985
152 0.00698
160 0.005985
130 0.005015
51 0.006011
41 0.004983
56 0.003946
72 0.00397
81 0.003983
77 0.004987
71 0.00502
76 0.004989
93 0.004986
104 0.003032
106 0.004027
113 0.002001
118 0.003981
131 0.001969
140 0.001982
107 0.000996
33 0.000963
35 0.0
49 0.0
69 0.0
75 0.0
70 0.000997
65 0.0
71 0.002014
88 0.004017
105 0.003985
110 0.003989
119 0.004025
127 0.004026
134 0.003991
149 0.003937
112 0.003988
52 0.006011
34 0.005981
47 0.006013
71 0.007012
79 0.006981
74 0.006979
66 0.00599
66 0.007008
77 0.006014
84 0.004985
93 0.006016
114 0.004987
123 0.005022
128 0.004993
87 0.004953
36 0.00496
10 0.004997
33 0.006013
50 0.005021
67 0.005986
63 0.004994
54 0.005983
65 0.005982
79 0.006
98 0.005013
113 0.00299
121 0.00303
133 0.001997
139 0.002996
143 0.001967
61 0.002018
23 0.000983
27 0.0
49 0.00098
59 0.001029
69 0.000999
64 0.001013
63 0.000966
77 0.000977
89 0.001937
106 0.002955
118 0.004992
126 0.005014
135 0.005991
143 0.005975
139 0.005942
73 0.006977
18 0.007979
18 0.007965
41 0.006974
55 0.005979
61 0.006988
58 0.003975
58 0.005989
72 0.003983
90 0.003982
97 0.003998
108 0.003991
117 0.003981
126 0.004002
138 0.004008
144 0.003996
150 0.003015
83 0.004006
32 0.0
31 0.000964
56 0.001014
69 0.000992
77 0.000982
67 0.001983
66 0.001994
75 0.001992
90 0.002986
107 0.002949
119 0.002955
124 0.003989
132 0.003997
141 0.004012
149 0.003981
140 0.003982
84 0.003985
32 0.003987
49 0.00399
64 0.004986
82 0.004952
84 0.004988
73 0.005991
80 0.005973
92 0.005981
111 0.006937
125 0.006973
138 0.006981
145 0.006947
158 0.006981
166 0.006977
177 0.006968
178 0.006972
108 0.00797
59 0.007975
42 0.006985
65 0.006982
74 0.006974
86 0.006987
79 0.006019
78 0.005988
91 0.003978
101 0.004
119 0.003989
133 0.004947
140 0.003981
148 0.004958
159 0.00499
166 0.004988
173 0.00494
134 0.004986
52 0.004989
49 0.000999
63 0.001978
81 0.000994
85 0.001003
80 0.001034
78 0.001001
87 0.001041
103 0.000971
116 0.0
122 0.000967
132 0.002975
146 0.003988
153 0.004977
164 0.004987
164 0.004991
114 0.005988
46 0.006988
50 0.006953
70 0.006959
87 0.00697
92 0.007939
84 0.006969
80 0.005992
86 0.005992
105 0.005984
119 0.005001
126 0.005985
135 0.004984
139 0.005988
152 0.003954
159 0.003997
123 0.002998
49 0.003023
56 0.002986
73 0.002972
94 0.00299
99 0.00302
90 0.001993
85 0.003012
95 0.000965
111 0.000996
128 0.000964
134 0.000998
147 0.002002
156 0.002004
164 0.001994
170 0.001997
118 0.001975
55 0.00198
47 0.002001
62 0.002005
79 0.002986
90 0.003943
84 0.00499
81 0.005995
96 0.006976
107 0.006962
124 0.006984
130 0.006986
139 0.006964
147 0.006939
152 0.006984
162 0.005951
128 0.007991
57 0.006019
35 0.006981
49 0.005983
65 0.005993
79 0.004971
78 0.004979
72 0.004984
81 0.00301
94 0.004987
113 0.003002
125 0.005
135 0.002984
145 0.000995
150 0.002982
164 0.001993
166 0.002991
84 0.003031
43 0.001993
50 0.000998
74 0.000997
89 0.001988
92 0.000998
80 0.001003
84 0.0
93 0.000999
112 0.000998
123 0.000966
134 0.002965
142 0.001992
149 0.003017
161 0.002963
86 0.002977
49 0.00294
50 0.002995
64 0.002992
86 0.002978
92 0.002992
86 0.002944
85 0.002994
95 0.00402
115 0.004962
133 0.004986
138 0.004978
151 0.004971
161 0.004972
167 0.004969
95 0.004951
50 0.004952
40 0.005002
60 0.006988
67 0.006948
81 0.007975
82 0.007942
79 0.007943
88 0.00798
97 0.006937
119 0.006978
133 0.005001
142 0.006967
149 0.004984
164 0.003977
159 0.003004
71 0.001968
32 0.002017
42 0.000994
56 0.001967
66 0.002001
74 0.002
70 0.001996
73 0.000999
87 0.0
107 0.000976
118 0.002954
131 0.003976
142 0.004985
149 0.004936
161 0.004984
164 0.004982
112 0.004958
44 0.007004
48 0.005983
63 0.005938
87 0.003983
94 0.002995
87 0.002999
85 0.002993
94 0.003013
116 0.002994
130 0.002985
141 0.001024
152 0.002021
163 0.0
172 0.0
142 0.001996
73 0.00301
52 0.002974
74 0.002959
95 0.002943
114 0.003002
109 0.002996
102 0.002946
111 0.003022
134 0.002955
147 0.003996
163 0.005984
175 0.00701
184 0.006981
193 0.004985
200 0.00602
154 0.005988
71 0.004981
64 0.004989
87 0.004985
104 0.00698
115 0.004982
117 0.005971
109 0.004987
118 0.00602
137 0.006004
148 0.006035
166 0.005987
174 0.005984
185 0.005984
197 0.003992
207 0.005014
157 0.003985
73 0.004002
66 0.003985
92 0.003045
104 0.00303
119 0.002993
114 0.002979
110 0.003009
120 0.002992
134 0.003
153 0.003014
163 0.004028
174 0.003015
184 0.003992
192 0.003028
204 0.003982
192 0.004032
131 0.004023
72 0.002995
91 0.001965
107 0.002992
129 0.0
129 0.0
118 0.0
118 0.0
128 0.00098
149 0.003002
168 0.002992
174 0.005012
186 0.005999
196 0.006015
206 0.006016
162 0.005978
81 0.006012
75 0.005991
101 0.006019
119 0.006017
138 0.006036
132 0.006014
124 0.007011
131 0.006991
148 0.006982
163 0.007008
178 0.00702
185 0.006973
194 0.007979
206 0.004967
215 0.006976
152 0.004982
95 0.006013
73 0.004996
100 0.004985
112 0.004998
126 0.005035
116 0.004987
110 0.002009
120 0.002001
137 0.00299
151 0.00099
160 0.001996
169 0.000997
176 0.001989
189 0.002029
191 0.002005
105 0.001996
63 0.001995
62 0.001994
89 0.0
104 0.002032
110 0.0
99 0.0
95 0.0
106 0.0
119 0.0
137 0.0
151 0.0
157 0.0
169 0.0
182 0.000998
152 0.000998
63 0.001981
51 0.001977
76 0.001997
101 0.002025
117 0.001996
109 0.001963
96 0.001955
99 0.002994
120 0.003008
133 0.002965
148 0.004031
157 0.003964
164 0.003961
176 0.003961
138 0.003961
51 0.005022
49 0.004986
66 0.004989
94 0.005015
103 0.005018
91 0.005962
87 0.005987
95 0.006969
112 0.006995
128 0.007979
139 0.006985
149 0.00795
160 0.006982
167 0.006981
129 0.006998
66 0.006981
28 0.00601
54 0.004986
69 0.005984
86 0.003982
78 0.003022
72 0.00103
82 0.001016
94 0.001003
113 0.001013
124 0.001006
132 0.000993
141 0.000997
153 0.002022
140 0.0
57 0.0
24 0.0
32 0.0
58 0.001041
73 0.001969
74 0.002992
62 0.004017
65 0.005038
80 0.007016
100 0.007021
110 0.007007
123 0.00698
133 0.006962
142 0.007968
154 0.004952
118 0.004973
56 0.004999
25 0.004985
39 0.004977
67 0.004987
83 0.003977
78 0.003987
66 0.004025
75 0.002988
94 0.0
110 0.001995
124 0.002048
133 0.0
143 0.001952
156 0.003018
145 0.002989
67 0.002992
33 0.002966
47 0.002993
75 0.002996
90 0.003991
92 0.005984
84 0.006018
87 0.007975
102 0.006994
127 0.006034
136 0.005988
149 0.006011
155 0.005992
164 0.005984
181 0.005975
168 0.005979
65 0.005983
36 0.005991
48 0.004982
62 0.007013
79 0.005995
81 0.00698
77 0.004989
81 0.006007
99 0.006017
111 0.005984
128 0.005986
139 0.003992
143 0.003989
157 0.0
167 0.000997
181 0.000964
144 0.000963
39 0.0
38 0.000991
63 0.0
71 0.000998
91 0.0
86 0.000999
81 0.002023
91 0.002003
113 0.002024
127 0.00203
142 0.002992
150 0.001997
163 0.003961
173 0.004016
183 0.005031
197 0.004939
157 0.004987
90 0.00502
53 0.00601
80 0.006988
100 0.007011
118 0.006983
112 0.00698
100 0.004995
105 0.004015
119 0.004969
142 0.00303
160 0.003988
167 0.002994
179 0.00302
188 0.003025
198 0.001
201 0.002992
118 0.001974
60 0.001996
69 0.002003
87 0.001
109 0.0
122 0.0
114 0.0
110 0.001957
126 0.002029
141 0.001997
162 0.001995
171 0.001951
184 0.003024
195 0.002958
202 0.002992
206 0.002993
146 0.002945
60 0.002992
66 0.005019
82 0.004982
104 0.00498
110 0.004005
101 0.006019
96 0.007932
107 0.006009
120 0.005985
141 0.004986
156 0.002996
165 0.004979
177 0.0
192 0.0
195 0.0
114 0.001024
46 0.000969
50 0.00204
80 0.00203
99 0.001961
109 0.003029
95 0.002963
92 0.005977
111 0.006979
133 0.006957
143 0.006966
156 0.003003
164 0.004014
180 0.003012
189 0.003026
110 0.001995
60 0.001974
53 0.001993
84 0.0
102 0.001994
113 0.000959
97 0.0
97 0.0
115 0.000962
131 0.0
152 0.000986
165 0.0
172 0.0
182 0.000998
193 0.000946
95 0.000963
42 0.001021
42 0.001041
72 0.000997
97 0.000999
99 0.000998
88 0.00099
86 0.000987
104 0.000998
120 0.000986
138 0.002934
148 0.003989
158 0.005937
167 0.005976
180 0.005981
91 0.005958
44 0.005969
42 0.005978
57 0.005974
81 0.00598
85 0.005958
78 0.00599
68 0.006968
74 0.006982
89 0.005975
118 0.004963
128 0.00501
139 0.003002
152 0.004972
165 0.003
161 0.004997
62 0.004968
31 0.005003
44 0.003999
64 0.00395
88 0.001958
85 0.001994
74 0.001994
78 0.0
99 0.0
112 0.0
126 0.00099
137 0.001952
148 0.0
164 0.000963
172 0.000968
90 0.0
35 0.000982
35 0.000948
67 0.000997
85 0.000998
97 0.002994
83 0.004954
81 0.005966
96 0.005978
115 0.005989
130 0.005939
141 0.005987
154 0.005991
158 0.00698
174 0.007948
154 0.005016
86 0.006981
28 0.00499
37 0.005984
66 0.004995
86 0.004983
85 0.004975
75 0.003998
79 0.003976
97 0.00299
121 0.002956
132 0.002992
144 0.002957
152 0.001996
160 0.0
171 0.0
177 0.0
102 0.0
35 0.0
29 0.0
49 0.0
67 0.001994
74 0.004949
71 0.005986
72 0.005949
83 0.005972
99 0.006012
118 0.006002
125 0.005986
136 0.005978
147 0.005982
153 0.005989
168 0.005982
168 0.005975
71 0.006012
26 0.005017
36 0.003014
54 0.004987
72 0.00497
74 0.004991
71 0.004014
77 0.00196
85 0.004031
105 0.001993
118 0.003045
130 0.00097
141 0.0
149 0.000963
160 0.000986
177 0.0
174 0.0
76 0.0
40 0.0
48 0.001031
70 0.0
83 0.001996
91 0.003028
82 0.003949
82 0.003962
101 0.003951
122 0.003941
137 0.004976
148 0.00496
157 0.004947
166 0.005976
176 0.006981
187 0.006977
151 0.006949
58 0.006981
47 0.00698
65 0.005976
88 0.004976
102 0.004988
102 0.004987
95 0.005004
104 0.004987
126 0.004958
139 0.004961
154 0.003988
166 0.003964
174 0.001957
186 0.002029
196 0.002
202 0.000998
185 0.0
92 0.003003
48 0.002959
57 0.002962
76 0.001967
89 0.002958
96 0.002946
94 0.00296
96 0.002939
105 0.002957
127 0.00293
146 0.004983
154 0.005928
167 0.005961
177 0.005943
183 0.00595
197 0.005966
206 0.00595
147 0.005947
56 0.005986
53 0.005966
78 0.005987
95 0.006962
105 0.006952
103 0.007979
95 0.005997
102 0.007954
124 0.007993
137 0.007938
152 0.006973
168 0.003984
172 0.003991
185 0.001959
194 0.0
206 0.0
167 0.0
82 0.000976
56 0.0
73 0.000989
90 0.000982
118 0.003976
112 0.002946
106 0.002993
108 0.004958
132 0.005992
141 0.00696
159 0.006035
169 0.006958
179 0.004005
187 0.004964
204 0.004987
199 0.004975
100 0.004016
70 0.002963
85 0.003981
113 0.001938
124 0.003988
125 0.002005
112 0.001992
119 0.001949
137 0.002005
159 0.000994
166 0.002007
180 0.000949
186 0.0
202 0.002013
194 0.001967
119 0.0
69 0.0
78 0.0
93 0.001983
113 0.001995
115 0.001983
111 0.001995
110 0.002954
115 0.002959
137 0.002955
154 0.00399
160 0.003958
167 0.003951
176 0.003994
184 0.003984
112 0.005985
73 0.005932
69 0.006985
85 0.005989
97 0.005982
110 0.003024
104 0.003988
103 0.002003
110 0.002037
129 0.0
143 0.002958
154 0.00296
160 0.003949
170 0.005986
180 0.005959
159 0.005984
108 0.005991
69 0.005985
89 0.005973
102 0.005981
119 0.005981
113 0.006947
107 0.00698
109 0.00697
120 0.007012
137 0.006976
150 0.006016
156 0.005929
167 0.005986
176 0.005984
165 0.005998
88 0.007951
71 0.005989
87 0.006982
108 0.007008
123 0.005946
120 0.003024
112 0.000952
116 0.002002
131 0.0
147 0.001996
161 0.005014
165 0.005022
174 0.006967
186 0.006983
189 0.006951
111 0.006025
77 0.006015
79 0.005003
102 0.002972
110 0.003987
117 0.00399
114 0.005984
117 0.003993
128 0.00503
144 0.003957
154 0.005026
166 0.004992
172 0.004989
180 0.004987
193 0.00196
196 0.002992
124 0.0
83 0.002993
83 0.002016
99 0.0
105 0.0
114 0.0
113 0.0
112 0.0
125 0.0
134 0.0
150 0.0
162 0.001031
168 0.001045
176 0.000998
179 0.000997
190 0.000999
182 0.000998
130 0.000998
75 0.001001
84 0.000998
100 0.000999
115 0.001052
117 0.000998
109 0.003948
111 0.004037
121 0.004026
138 0.003964
152 0.005983
159 0.006011
172 0.005992
175 0.005991
187 0.006998
177 0.005977
124 0.006
78 0.006987
95 0.006978
107 0.006009
130 0.006941
131 0.006981
122 0.006933
123 0.007978
132 0.003026
149 0.004986
165 0.002993
171 0.003024
182 0.003029
192 0.002
199 0.003035
154 0.0
100 0.001968
75 0.001962
99 0.000955
109 0.0
124 0.000998
119 0.002006
115 0.002995
122 0.00399
142 0.003962
152 0.003985
168 0.005015
178 0.006962
184 0.005024
197 0.004977
196 0.006042
144 0.005021
70 0.004986
78 0.005023
92 0.004988
110 0.002963
114 0.004987
112 0.005013
111 0.001995
121 0.002005
138 0.002966
150 0.002978
162 0.001957
173 0.002984
180 0.001994
195 0.0
146 0.002026
77 0.00097
68 0.002025
89 0.0
107 0.002025
122 0.002024
118 0.0
110 0.000997
119 0.002992
135 0.002991
147 0.002993
161 0.004998
167 0.004999
181 0.005007
189 0.005979
146 0.006978
82 0.006997
79 0.00498
99 0.004971
125 0.003967
135 0.004006
123 0.004003
121 0.003985
126 0.00399
148 0.003952
163 0.005984
174 0.00399
182 0.003989
197 0.000999
179 0.003025
89 0.002992
70 0.002993
89 0.003023
115 0.0
128 0.002023
123 0.000968
117 0.0
121 0.001994
139 0.002006
154 0.001997
165 0.002003
178 0.002049
183 0.00203
201 0.002943
119 0.002949
74 0.002956
74 0.002989
93 0.002965
113 0.004019
120 0.003982
118 0.004023
116 0.00594
127 0.005984
143 0.00596
157 0.005977
169 0.007978
170 0.007973
178 0.006027
177 0.002021
124 0.002995
50 0.001987
51 0.003025
77 0.000965
99 0.002018
101 0.001995
93 0.001997
102 0.002019
113 0.002003
134 0.0
139 0.0
153 0.0
164 0.0
174 0.000962
154 0.002024
64 0.002037
49 0.001992
73 0.002995
92 0.004986
106 0.006938
103 0.006979
97 0.006971
101 0.006991
117 0.007969
127 0.004961
137 0.007016
150 0.003
162 0.001992
160 0.00197
78 0.002025
44 0.002045
56 0.001015
81 0.0
96 0.0
100 0.0
88 0.0
91 0.0
109 0.00097
128 0.002994
139 0.002992
156 0.002968
163 0.002969
120 0.004983
60 0.005003
55 0.004968
78 0.005036
109 0.004981
115 0.004972
101 0.004992
100 0.006979
108 0.006973
129 0.006972
145 0.006982
158 0.004934
160 0.004995
112 0.00496
46 0.004987
61 0.004042
79 0.002993
106 0.002991
109 0.002992
97 0.001975
101 0.001993
115 0.0
134 0.001994
150 0.002027
158 0.00198
159 0.002021
105 0.002018
43 0.0
41 0.0
58 0.0
83 0.000997
93 0.000999
86 0.000999
89 0.000999
107 0.001981
121 0.002938
137 0.004957
151 0.004971
158 0.004998
93 0.005966
41 0.006003
32 0.005988
62 0.006026
80 0.005988
95 0.00599
91 0.007979
88 0.007979
96 0.007955
111 0.007956
132 0.007022
144 0.005979
150 0.006977
160 0.004988
166 0.006972
91 0.004977
33 0.004961
41 0.002993
70 0.002973
88 0.002947
86 0.001993
74 0.002939
78 0.00297
93 0.002993
117 0.003996
130 0.001976
137 0.002993
147 0.004004
156 0.002982
107 0.00203
36 0.000962
38 0.001987
68 0.00101
87 0.002013
95 0.000997
85 0.000951
82 0.001018
99 0.000992
127 0.001008
141 0.000987
155 0.000966
163 0.000998
175 0.001984
182 0.001966
131 0.002001
46 0.003991
54 0.003958
71 0.003949
93 0.00396
101 0.003964
99 0.003955
99 0.005014
113 0.005983
132 0.005955
152 0.006981
161 0.006946
172 0.006948
178 0.007977
192 0.006992
196 0.004002
97 0.002003
57 0.002006
65 0.00199
80 0.001001
98 0.000938
103 0.0
100 0.0
103 0.0
114 0.0
135 0.0
148 0.001993
162 0.0
171 0.001002
182 0.0
189 0.0
205 0.0
191 0.0
81 0.0
55 0.0
72 0.000989
97 0.001991
115 0.002988
112 0.002958
101 0.005954
113 0.006007
125 0.00599
148 0.005998
161 0.005973
172 0.005969
186 0.006972
188 0.006972
207 0.006975
153 0.006973
92 0.006969
73 0.004986
89 0.004959
124 0.004934
144 0.006986
137 0.005946
127 0.006947
137 0.006943
152 0.00698
176 0.00698
186 0.006977
198 0.003992
211 0.001977
220 0.003989
228 0.001948
117 0.001946
72 0.001966
73 0.001989
90 0.001989
118 0.0
129 0.0
122 0.000997
121 0.000993
135 0.000984
148 0.0
171 0.001007
187 0.000996
194 0.000961
207 0.001995
218 0.001987
199 0.002967
102 0.003961
65 0.004985
75 0.004989
104 0.004949
121 0.004983
126 0.004987
114 0.004987
111 0.003988
134 0.004988
145 0.004981
167 0.004994
178 0.004946
185 0.00401
193 0.003982
207 0.005975
201 0.003988
110 0.005994
53 0.003952
56 0.005978
89 0.005981
106 0.005984
115 0.003989
97 0.000982
97 0.002983
115 0.000995
129 0.002981
150 0.001983
165 0.0
173 0.0
192 0.0
187 0.000958
124 0.000998
57 0.0
51 0.0
75 0.0
109 0.0
119 0.0
100 0.001003
92 0.001992
102 0.001987
127 0.001996
139 0.002005
156 0.002955
170 0.002963
185 0.002951
147 0.002964
47 0.003997
33 0.00495
58 0.004958
74 0.004949
96 0.004954
84 0.004976
79 0.004992
92 0.005958
118 0.005985
129 0.005983
139 0.00597
154 0.003977
165 0.002984
123 0.001986
32 0.003027
4 0.000966
18 0.002946
36 0.000986
52 0.00202
54 0.001998
50 0.0
57 0.0
73 0.0
91 0.001001
107 0.000994
118 0.001959
126 0.001996
135 0.002964
46 0.004986
2 0.004981
4 0.004991
17 0.004986
35 0.004976
47 0.005005
46 0.005991
48 0.006972
63 0.004999
77 0.004012
97 0.002943
107 0.004041
118 0.001989
128 0.003988
140 0.001986
122 0.004019
25 0.004021
5 0.004028
25 0.003986
40 0.0
49 0.002994
50 0.000968
48 0.002021
54 0.001992
74 0.001996
95 0.001967
105 0.001995
119 0.003962
127 0.003981
139 0.005966
150 0.005987
160 0.005972
114 0.005006
24 0.004961
18 0.004995
43 0.003982
60 0.00402
72 0.001999
67 0.001997
64 0.002031
74 0.002029
95 0.000962
111 0.000971
122 0.00097
132 0.000962
142 0.00097
149 0.001983
164 0.00296
155 0.002964
91 0.003038
31 0.002991
39 0.003984
63 0.006981
87 0.005983
92 0.005992
81 0.005975
84 0.003999
102 0.002995
121 0.0
134 0.002024
145 0.002026
154 0.002
163 0.001022
172 0.001948
181 0.004006
193 0.005018
102 0.006012
50 0.006973
39 0.006017
63 0.005982
75 0.005942
92 0.006003
90 0.005992
90 0.003005
104 0.002997
118 0.002968
139 0.002991
152 0.004978
161 0.00299
171 0.005015
180 0.002944
192 0.004997
207 0.00499
196 0.004005
83 0.004021
50 0.00403
62 0.00299
83 0.002005
95 0.002999
100 0.001993
95 0.001995
97 0.001995
118 0.002996
132 0.0
150 0.000982
164 0.0
170 0.0
182 0.0
193 0.0
198 0.0
199 0.0
136 0.000998
51 0.001999
61 0.001979
78 0.002966
101 0.003991
105 0.004983
97 0.005983
93 0.006985
110 0.006981
120 0.006981
135 0.006949
144 0.005994
152 0.007963
163 0.005016
168 0.006997
172 0.004978
95 0.004982
21 0.003977
0 0.002018
32 0.001997
55 0.002011
79 0.001998
72 0.00199
64 0.001018
67 0.0
91 0.001006
107 0.000996
131 0.001957
144 0.003961
157 0.004987
170 0.005022
184 0.005028
132 0.004945
30 0.004992
21 0.005993
47 0.006992
73 0.006975
82 0.006985
82 0.006975
73 0.006985
84 0.00693
109 0.006958
120 0.006951
146 0.006954
152 0.006021
166 0.005988
182 0.005981
192 0.004974
126 0.004006
36 0.006031
19 0.002957
40 0.002992
65 0.002066
78 0.00201
79 0.001994
74 0.000998
85 0.0
101 0.0
116 0.0
134 0.0
148 0.0
156 0.000956
169 0.001992
188 0.002957
177 0.003994
60 0.003996
29 0.003948
45 0.004991
74 0.00499
89 0.004952
92 0.004991
82 0.004923
87 0.004945
108 0.005947
131 0.00693
143 0.004991
154 0.006986
169 0.005974
176 0.005028
194 0.003975
149 0.001991
79 0.004027
40 0.002
55 0.004004
88 0.002003
111 0.001031
105 0.00203
88 0.002006
90 0.001971
113 0.001992
132 0.002994
151 0.001986
160 0.002022
173 0.001996
185 0.001995
124 0.00201
60 0.001976
38 0.003005
69 0.0
90 0.001996
110 0.0
97 0.001033
89 0.001024
99 0.000997
115 0.000999
140 0.001982
155 0.002995
164 0.002992
178 0.004984
161 0.005989
89 0.005959
27 0.005984
40 0.005974
59 0.004016
83 0.002012
91 0.003993
83 0.001033
84 0.001998
102 0.001971
116 0.001996
136 0.0
150 0.000984
162 0.000984
176 0.000995
137 0.002997
70 0.003991
29 0.005981
48 0.005978
66 0.006985
82 0.005979
81 0.005994
73 0.005996
79 0.003044
99 0.001995
113 0.0
129 0.002031
143 0.002025
156 0.0
171 0.002993
145 0.0
58 0.001993
31 0.001988
47 0.001996
74 0.001992
86 0.002004
82 0.000956
72 0.0
77 0.002012
94 0.000987
118 0.0
126 0.000988
136 0.001996
143 0.001979
162 0.001959
93 0.003029
42 0.002991
35 0.002964
64 0.002947
82 0.004959
93 0.005986
82 0.004985
81 0.004007
97 0.003983
115 0.005981
132 0.00399
142 0.00502
156 0.001993
165 0.00201
181 0.001982
94 0.0
44 0.001998
40 0.0
62 0.000998
75 0.001948
91 0.003029
89 0.003023
84 0.002967
101 0.003017
116 0.003021
136 0.003951
150 0.00399
159 0.002992
170 0.00399
179 0.003989
178 0.003981
75 0.003988
42 0.003963
54 0.00395
67 0.003945
85 0.004991
93 0.006982
89 0.005984
89 0.004986
105 0.003989
127 0.001996
140 0.001989
155 0.000978
161 0.00204
173 0.0
185 0.000948
197 0.000995
142 0.0
62 0.0
47 0.000978
70 0.001929
94 0.001965
106 0.002015
102 0.001958
95 0.001977
104 0.00299
126 0.001952
140 0.002993
154 0.002993
163 0.003028
174 0.003988
185 0.004922
200 0.004972
161 0.004988
64 0.004971
54 0.004968
80 0.004959
102 0.005984
123 0.006
117 0.006984
108 0.006981
114 0.005996
143 0.006947
154 0.006981
172 0.006942
181 0.006973
192 0.005978
203 0.007992
213 0.005984
206 0.007977
109 0.006001
52 0.007939
73 0.007943
90 0.007978
109 0.007976
115 0.006
110 0.007966
113 0.004016
124 0.006989
149 0.004969
170 0.004981
176 0.003986
191 0.002994
202 0.00299
211 0.001994
225 0.002936
180 0.003029
68 0.001996
54 0.002964
76 0.0
96 0.00299
113 0.001956
113 0.001992
106 0.002012
109 0.0
130 0.001995
150 0.000988
166 0.000998
180 0.000997
194 0.000998
201 0.001995
213 0.001961
223 0.001987
161 0.002005
60 0.001962
54 0.001986
85 0.002998
117 0.003964
127 0.003954
112 0.003986
100 0.004944
109 0.006964
130 0.006955
148 0.006958
163 0.00399
174 0.006982
186 0.005
201 0.005982
185 0.005966
108 0.005971
46 0.004911
68 0.000998
89 0.002997
121 0.002
122 0.003002
104 0.00094
109 0.001964
125 0.002001
150 0.0
169 0.000986
176 0.0
187 0.0
199 0.0
206 0.0
93 0.0
45 0.0
45 0.0
78 0.0
93 0.0
103 0.0
94 0.0
90 0.000969
103 0.000992
125 0.00104
142 0.001992
154 0.001983
168 0.00299
181 0.002951
189 0.002952
94 0.00395
26 0.002936
29 0.002952
60 0.003987
78 0.003989
91 0.004006
78 0.003938
80 0.003947
96 0.003988
121 0.004989
132 0.005984
145 0.005972
157 0.007972
169 0.003986
177 0.004985
82 0.004987
36 0.004985
36 0.004982
58 0.004985
88 0.005033
96 0.002994
83 0.00499
78 0.001992
87 0.004021
111 0.0
130 0.0
138 0.0
153 0.0
163 0.0
108 0.0
29 0.00099
28 0.000997
59 0.001016
88 0.002999
96 0.0
85 0.000998
79 0.002013
90 0.002993
115 0.005025
132 0.005008
142 0.004995
154 0.006977
169 0.00604
125 0.006989
38 0.004987
20 0.004027
39 0.002993
66 0.002004
83 0.001983
80 0.001985
74 0.0
87 0.002025
105 0.000962
123 0.002044
141 0.000998
150 0.001997
162 0.007943
164 0.004987
77 0.005984
24 0.007952
35 0.007981
46 0.007019
67 0.007039
80 0.003019
76 0.006021
77 0.001998
96 0.0
112 0.0
132 0.0
141 0.0
150 0.000998
167 0.000999
178 0.000998
117 0.001999
35 0.000996
34 0.000998
65 0.001995
94 0.002963
99 0.003017
83 0.003033
78 0.004032
91 0.00399
112 0.003989
131 0.004021
145 0.003988
160 0.004986
172 0.007016
175 0.006984
116 0.006985
46 0.006987
55 0.006985
77 0.00797
108 0.005015
114 0.004991
102 0.003988
100 0.003989
110 0.004016
137 0.003931
153 0.003989
162 0.003987
174 0.00399
190 0.004024
183 0.003001
89 0.002033
34 0.003017
46 0.002033
76 0.002046
96 0.002028
103 0.00203
94 0.0
96 0.002992
118 0.000997
139 0.0
153 0.001034
163 0.001003
170 0.001997
188 0.001954
198 0.002984
163 0.00399
49 0.003989
27 0.005974
41 0.00599
63 0.005987
84 0.006927
84 0.00602
83 0.005976
96 0.007973
114 0.004993
135 0.006978
155 0.005013
164 0.006963
170 0.007028
181 0.007011
203 0.007017
160 0.00698
57 0.007016
53 0.003953
74 0.006023
104 0.002018
116 0.002994
111 0.003031
107 0.001995
118 0.002005
152 0.001994
179 0.000991
191 0.003025
204 0.002004
217 0.003036
229 0.0
167 0.000976
74 0.001994
71 0.002992
106 0.004983
134 0.00499
145 0.004987
132 0.00601
123 0.006984
131 0.006984
155 0.006982
172 0.00797
191 0.007984
203 0.004982
218 0.007926
187 0.005985
76 0.005015
58 0.00504
85 0.003981
109 0.003999
139 0.003942
131 0.003992
121 0.002038
130 0.002005
152 0.003989
170 0.002029
190 0.002025
203 0.001957
212 0.001995
212 0.0
91 0.000997
53 0.000998
68 0.001997
89 0.002002
121 0.002032
125 0.004017
119 0.003991
121 0.003962
145 0.004022
163 0.004979
184 0.005922
200 0.006936
211 0.006977
197 0.006955
119 0.006955
58 0.006016
65 0.007028
90 0.006969
112 0.006965
118 0.006022
111 0.006981
111 0.007982
118 0.006987
141 0.005983
162 0.001994
174 0.003995
189 0.00097
205 0.0
175 0.000966
66 0.000969
54 0.000994
74 0.0
107 0.0
120 0.0
110 0.0
102 0.0
105 0.0
128 0.001996
150 0.001997
163 0.002001
177 0.001985
190 0.00199
143 0.003989
62 0.004989
50 0.004991
75 0.004987
112 0.006983
125 0.006981
120 0.006982
107 0.003984
114 0.005984
137 0.002989
161 0.001994
170 0.001994
186 0.002998
190 0.0
126 0.0
38 0.0
39 0.0
68 0.0
101 0.0
111 0.0
102 0.000997
100 0.000999
109 0.001998
133 0.002992
151 0.002987
166 0.00399
179 0.005015
187 0.004949
132 0.005021
37 0.004989
33 0.004989
63 0.00699
84 0.004986
98 0.007968
97 0.00502
94 0.005977
104 0.003994
127 0.002997
150 0.003035
159 0.003018
173 0.003011
182 0.003023
154 0.002955
61 0.004987
33 0.002957
52 0.004956
79 0.0
99 0.002993
100 0.001995
93 0.001944
98 0.002999
120 0.000956
136 0.00203
156 0.000955
167 0.0
176 0.001002
194 0.000998
170 0.000997
64 0.000999
50 0.000998
68 0.000999
106 0.002962
122 0.002993
112 0.003993
101 0.003949
110 0.003953
135 0.003961
157 0.005943
167 0.00598
181 0.005987
197 0.006026
167 0.005984
77 0.005994
46 0.006954
66 0.006977
107 0.006983
123 0.007979
128 0.007025
108 0.003984
113 0.007039
138 0.004985
163 0.002967
172 0.002001
187 0.00197
206 0.001985
203 0.0
88 0.002986
49 0.003029
60 0.00096
88 0.002978
114 0.0
122 0.000998
109 0.001991
107 0.001995
128 0.003986
149 0.005026
165 0.004988
179 0.005015
196 0.005014
205 0.005058
145 0.004986
70 0.004987
41 0.004959
71 0.004996
90 0.005956
112 0.005997
111 0.00096
104 0.005968
117 0.005982
126 0.006951
149 0.004991
170 0.007968
179 0.005034
192 0.00794
205 0.002993
148 0.006983
48 0.004941
42 0.003986
75 0.003986
107 0.002941
116 0.004003
106 0.002025
106 0.0
116 0.0
138 0.0
150 0.0
169 0.0
178 0.001995
188 0.0
185 0.000994
75 0.000999
44 0.00101
60 0.000997
79 0.001
113 0.00099
110 0.00195
99 0.00197
103 0.00197
123 0.002967
141 0.003942
154 0.005987
165 0.005986
176 0.007978
135 0.007982
54 0.004936
34 0.007923
57 0.004987
80 0.00697
106 0.004942
93 0.005004
86 0.004028
95 0.003989
108 0.003954
131 0.002992
147 0.002968
155 0.003009
143 0.002954
58 0.00599
20 0.002979
37 0.004994
63 0.002999
85 0.005014
83 0.004984
77 0.003992
79 0.002995
102 0.0
115 0.002988
128 0.000998
142 0.002991
154 0.002958
105 0.002992
22 0.002992
19 0.003991
44 0.00497
68 0.004993
76 0.004994
72 0.005021
72 0.004986
87 0.00596
108 0.005985
121 0.00599
132 0.006951
141 0.006939
159 0.005959
117 0.006951
55 0.005984
24 0.00797
40 0.00701
52 0.006029
70 0.00495
72 0.002029
72 0.004025
81 0.00302
93 0.004018
115 0.001985
131 0.001994
138 0.001965
149 0.0
164 0.0
170 0.0
82 0.001008
39 0.000975
39 0.000991
58 0.002033
71 0.0
86 0.001011
81 0.00196
80 0.002992
96 0.003948
113 0.003956
130 0.003949
145 0.003991
152 0.003992
162 0.00601
174 0.006028
183 0.006012
138 0.006994
65 0.002957
48 0.004986
71 0.002988
96 0.002994
108 0.003955
102 0.002993
100 0.00301
108 0.000965
137 0.0
152 0.003048
165 0.0
171 0.00303
179 0.0
188 0.001995
202 0.0
183 0.0
80 0.0
57 0.000998
74 0.001995
94 0.00201
113 0.003987
113 0.003954
107 0.006017
117 0.006981
128 0.006942
154 0.005999
171 0.004029
177 0.004984
187 0.002014
199 0.003022
205 0.0
219 0.003049
172 0.0
84 0.001979
62 0.0
78 0.002022
98 0.0
113 0.000998
115 0.000998
109 0.000981
120 0.001957
133 0.003964
154 0.005017
173 0.005984
183 0.006988
189 0.005985
201 0.005984
209 0.004989
228 0.003989
142 0.001995
84 0.0
75 0.0
100 0.0
115 0.0
132 0.002991
122 0.002953
117 0.002962
130 0.002984
150 0.003964
166 0.004963
181 0.005983
193 0.006979
197 0.007972
210 0.007014
221 0.001997
172 0.002963
78 0.0
80 0.000961
95 0.0
125 0.000999
143 0.000999
134 0.001995
126 0.002025
143 0.001997
158 0.001996
180 0.003988
195 0.005988
202 0.006979
211 0.004996
226 0.006982
225 0.004017
133 0.006975
72 0.003999
73 0.006998
104 0.00699
121 0.007004
134 0.005029
125 0.002964
126 0.005015
143 0.001971
156 0.004978
179 0.001989
195 0.001998
203 0.001988
217 0.002
233 0.000963
192 0.0
95 0.0
68 0.000999
85 0.002022
112 0.001995
126 0.001989
129 0.001995
124 0.003954
131 0.003989
152 0.004986
171 0.004975
186 0.004985
199 0.004975
206 0.004977
221 0.005013
214 0.004947
141 0.004996
73 0.004987
89 0.004953
111 0.005978
135 0.005955
139 0.004988
127 0.004961
120 0.004007
133 0.004963
156 0.00299
180 0.002014
192 0.001972
211 0.002006
220 0.004019
180 0.002946
95 0.003024
72 0.002992
95 0.002989
131 0.002026
149 0.002032
143 0.003
128 0.0
129 0.000969
150 0.001997
179 0.002993
193 0.00399
210 0.005013
209 0.005987
147 0.006985
78 0.00602
79 0.005976
98 0.006018
131 0.005978
145 0.005958
130 0.005984
121 0.005993
131 0.005989
149 0.00502
162 0.004963
182 0.004986
193 0.007978
149 0.004987
59 0.006985
37 0.007022
52 0.007033
80 0.005972
93 0.005984
88 0.006035
76 0.002027
81 0.004013
105 0.00202
123 0.001995
132 0.001996
149 0.001996
154 0.001997
62 0.002997
8 0.002984
11 0.00097
37 0.001995
57 0.002992
65 0.002993
68 0.002992
73 0.000998
83 0.002994
102 0.004986
126 0.007035
138 0.006981
155 0.00698
167 0.006021
114 0.006983
35 0.004958
23 0.00798
43 0.004986
65 0.003989
75 0.000997
76 0.004986
76 0.000998
76 0.000998
106 0.003989
121 0.004987
127 0.011969
132 0.0
147 0.000995
166 0.003989
177 0.005985
89 0.00798
29 0.007978
32 0.005985
58 0.005984
73 0.005985
84 0.003989
79 0.002022
78 0.003989
95 0.001958
116 0.001991
130 0.002971
144 0.0
157 0.0
163 0.0
172 0.000997
184 0.000972
196 0.000993
143 0.000964
72 0.00095
44 0.000992
74 0.001018
92 0.001951
109 0.002994
98 0.003992
90 0.003961
100 0.005976
126 0.005951
140 0.00596
156 0.006995
163 0.007981
172 0.00797
183 0.004979
188 0.006979
208 0.005012
144 0.004958
78 0.003989
57 0.004024
79 0.004002
110 0.003993
128 0.003
121 0.002001
109 0.000999
119 0.001995
141 0.000998
158 0.001995
173 0.0
182 0.001995
193 0.002993
200 0.002962
208 0.003989
223 0.005986
165 0.004987
87 0.00399
48 0.005984
62 0.005999
89 0.005945
107 0.005967
105 0.007002
99 0.00499
104 0.003987
115 0.002992
139 0.000997
160 0.000993
169 0.002994
181 0.001995
189 0.002992
200 0.001994
212 0.002004
213 0.0
142 0.001956
49 0.003988
49 0.006982
72 0.006976
86 0.00598
103 0.003998
98 0.002997
95 0.00399
108 0.002006
123 0.004015
148 0.0
165 0.0
174 0.0
183 0.0
195 0.001994
203 0.001995
219 0.001975
140 0.002027
71 0.001993
50 0.00399
79 0.004988
94 0.005955
112 0.005989
111 0.006013
104 0.006971
116 0.007009
130 0.006981
155 0.0
175 0.007009
187 0.005998
197 0.00699
206 0.006951
220 0.006981
187 0.005982
172 0.006939
77 0.005985
57 0.005979
81 0.003996
114 0.003012
128 0.002997
120 0.003013
109 0.005982
114 0.002996
133 0.006018
151 0.002999
164 0.004986
179 0.003984
184 0.003989
197 0.003991
212 0.0
176 0.003019
64 0.0
46 0.002983
73 0.0
110 0.0
121 0.0
111 0.0
101 0.0
107 0.0
132 0.00099
146 0.000997
163 0.0
172 0.002984
183 0.0
192 0.002989
179 0.0
83 0.001024
31 0.0
41 0.0
76 0.0
99 0.0
98 0.0
84 0.0
84 0.000962
100 0.002
126 0.00196
137 0.001973
152 0.002958
164 0.002962
174 0.003962
167 0.003956
98 0.004984
19 0.005988
34 0.005984
52 0.006014
75 0.005943
84 0.004994
75 0.004003
74 0.003989
88 0.005973
107 0.002981
126 0.005979
139 0.003004
149 0.005979
163 0.006021
172 0.005979
120 0.004978
25 0.002959
17 0.002992
46 0.0
78 0.000998
87 0.0
75 0.0
70 0.000993
79 0.001948
102 0.001982
116 0.003004
131 0.001967
145 0.002947
154 0.002997
165 0.002993
71 0.003941
27 0.004961
27 0.005974
60 0.006968
79 0.005973
90 0.006978
81 0.00601
75 0.006969
89 0.006996
103 0.005992
124 0.006001
138 0.002985
147 0.005989
160 0.003031
160 0.001994
97 0.0
19 0.0
31 0.0
50 0.0
71 0.001978
79 0.001976
71 0.001984
68 0.001994
80 0.002956
103 0.003954
123 0.005984
131 0.005984
144 0.005951
154 0.007976
162 0.004016
159 0.006967
54 0.007009
16 0.007008
24 0.006995
38 0.006962
59 0.006982
66 0.002992
64 0.005983
66 0.003002
90 0.001996
103 0.002991
122 0.002015
131 0.00197
143 0.002994
154 0.003005
164 0.002979
165 0.002973
81 0.002038
24 0.001006
26 0.00199
49 0.000972
59 0.000972
75 0.003989
72 0.003943
74 0.004972
87 0.00596
111 0.006971
122 0.006973
139 0.006989
153 0.001995
159 0.001996
170 0.001966
186 0.002979
193 0.001988
97 0.0
40 0.002992
45 0.0
70 0.002003
92 0.000958
100 0.001001
91 0.001002
88 0.000997
103 0.000938
125 0.001995
142 0.001995
155 0.00196
164 0.001944
171 0.002
186 0.001992
196 0.003002
165 0.004991
59 0.004961
48 0.004989
74 0.006019
100 0.005985
117 0.004988
113 0.004983
106 0.00498
108 0.004986
132 0.004986
148 0.004997
167 0.003988
176 0.003986
184 0.002996
196 0.001973
212 0.002983
166 0.003025
58 0.0
49 0.0
73 0.0
100 0.0
118 0.002951
115 0.003953
105 0.004983
120 0.005981
137 0.005969
161 0.006021
173 0.005986
184 0.005999
196 0.004995
204 0.004963
219 0.004028
211 0.003995
130 0.004055
43 0.003986
44 0.003986
71 0.003982
91 0.006981
101 0.001992
102 0.004971
99 0.004996
108 0.004995
133 0.003993
149 0.003996
170 0.003957
184 0.001965
194 0.003976
206 0.002998
221 0.00298
231 0.003014
139 0.002992
66 0.000962
50 0.000943
79 0.002985
94 0.001995
112 0.0
111 0.003006
103 0.0
113 0.003005
134 0.0
155 0.003011
175 0.002997
185 0.002996
199 0.0
209 0.0
222 0.0
234 0.0
175 0.0
74 0.0
55 0.000978
73 0.00192
107 0.002969
122 0.003024
120 0.002976
106 0.00396
114 0.00397
138 0.00496
164 0.005948
175 0.004957
188 0.00598
201 0.003982
211 0.002033
227 0.002987
163 0.003964
73 0.002978
55 0.004026
90 0.002996
115 0.00298
142 0.002032
134 0.002993
111 0.003022
123 0.000969
139 0.002955
163 0.000969
179 0.0
187 0.000961
202 0.001004
208 0.0
136 0.0
41 0.000989
38 0.000995
72 0.002032
110 0.004947
121 0.005984
104 0.005984
93 0.00602
98 0.007978
127 0.004988
149 0.007946
160 0.004026
170 0.008005
186 0.00498
175 0.006953
54 0.00801
21 0.006012
36 0.00399
69 0.002991
86 0.004023
84 0.001944
75 0.005022
78 0.0
100 0.0
115 0.0
134 0.0
142 0.001998
157 0.000987
162 0.002981
86 0.0
18 0.0
20 0.0
37 0.0
67 0.0
73 0.003016
63 0.003955
61 0.003994
80 0.005017
96 0.004984
118 0.004002
133 0.004962
144 0.003984
160 0.004978
124 0.005968
42 0.005015
19 0.003944
37 0.003954
70 0.002977
86 0.003002
78 0.002026
68 0.003005
79 0.004034
99 0.0
116 0.002981
132 0.003031
142 0.002993
158 0.0
97 0.000949
28 0.001043
22 0.000998
45 0.000997
73 0.00104
87 0.001021
79 0.000998
74 0.000983
82 0.001993
105 0.001997
125 0.002065
133 0.002024
148 0.000997
160 0.002993
124 0.003963
31 0.003991
20 0.002964
43 0.003944
67 0.004951
77 0.00496
78 0.005981
74 0.007972
82 0.003991
103 0.007951
125 0.007952
130 0.00698
144 0.004986
155 0.002991
163 0.004985
131 0.003989
67 0.003991
26 0.000971
51 0.0
60 0.001004
77 0.0
75 0.00099
73 0.000971
84 0.0
98 0.001964
121 0.0
136 0.0
145 0.000971
155 0.000998
167 0.001988
177 0.00202
171 0.001988
107 0.001989
40 0.003934
51 0.006018
78 0.005947
93 0.006001
104 0.006997
98 0.007943
93 0.00698
114 0.003997
130 0.007014
150 0.004032
161 0.004007
168 0.004003
179 0.003985
188 0.003984
192 0.003986
96 0.003995
60 0.003995
70 0.003016
88 0.003959
114 0.004015
121 0.00599
116 0.002979
117 0.005024
137 0.005017
154 0.004988
173 0.002956
186 0.000972
194 0.002994
206 0.0
213 0.000998
221 0.001995
217 0.002022
97 0.004005
61 0.004038
72 0.003975
86 0.003991
104 0.004961
113 0.00599
111 0.005961
111 0.004982
130 0.004977
144 0.00498
167 0.004996
180 0.007008
187 0.002992
196 0.003989
210 0.002992
219 0.00202
238 0.002992
231 0.002956
114 0.002992
72 0.0
86 0.0
109 0.001992
129 0.000998
137 0.000997
126 0.001964
128 0.00303
140 0.002992
170 0.001949
184 0.002999
195 0.001953
208 0.002954
214 0.002975
173 0.003021
223 0.003953
139 0.004991
85 0.007989
96 0.006983
116 0.00698
143 0.007011
158 0.006982
150 0.004986
147 0.004983
163 0.0
182 0.000958
204 0.000966
213 0.002025
222 0.002025
237 0.001996
190 0.002021
194 0.002991
143 0.003964
114 0.003993
112 0.003991
129 0.005977
134 0.004989
143 0.005017
140 0.007968
137 0.004984
142 0.00698
155 0.006011
165 0.005981
178 0.005992
182 0.005956
189 0.004987
196 0.0
177 0.0
139 0.0
113 0.001996
123 0.002992
131 0.002992
147 0.003017
149 0.00299
141 0.002994
140 0.00302
145 0.004991
157 0.004941
167 0.005979
171 0.006009
178 0.005985
184 0.006931
161 0.00496
111 0.007985
106 0.00399
122 0.00799
139 0.007974
146 0.00798
142 0.008011
132 0.003056
134 0.006008
