71 0.022938
76 0.006981
84 0.007014
92 0.007012
98 0.006982
102 0.005981
103 0.005983
105 0.005984
108 0.005986
117 0.006038
119 0.00598
124 0.005944
132 0.005984
114 0.005985
77 0.006981
52 0.006983
54 0.005983
60 0.00599
69 0.005985
75 0.005983
82 0.005984
87 0.005984
87 0.005985
89 0.005984
94 0.005984
103 0.005984
108 0.004985
114 0.005985
120 0.005984
103 0.005984
63 0.005981
62 0.005983
73 0.005985
82 0.005983
89 0.005983
96 0.005984
96 0.005983
103 0.005981
106 0.005985
107 0.004988
105 0.004989
108 0.004987
119 0.005984
128 0.005982
122 0.005986
70 0.005981
35 0.006026
30 0.005985
44 0.005985
61 0.005986
67 0.005986
76 0.004987
85 0.004987
94 0.004987
97 0.004974
108 0.004986
120 0.005984
128 0.005982
133 0.005985
136 0.005985
142 0.005984
88 0.004971
36 0.005004
23 0.004987
32 0.004987
42 0.004992
56 0.004985
62 0.004999
71 0.004983
70 0.004992
65 0.00498
58 0.004989
57 0.004983
58 0.00495
61 0.004991
70 0.00495
79 0.004994
64 0.004977
0 0.004987
54 0.005031
67 0.004994
76 0.003983
84 0.004988
91 0.003982
97 0.003984
102 0.004031
105 0.003936
106 0.003992
108 0.005015
111 0.004988
117 0.004987
125 0.004976
128 0.005015
93 0.005002
79 0.004978
83 0.003988
88 0.003988
94 0.003978
101 0.003989
106 0.003982
109 0.00399
109 0.004976
108 0.005004
103 0.004981
105 0.004977
110 0.004996
119 0.004975
126 0.003951
129 0.003996
106 0.003984
75 0.003931
73 0.003998
77 0.003953
88 0.00398
92 0.00399
96 0.004959
98 0.018963
109 0.004958
106 0.003989
109 0.003988
112 0.003988
117 0.004025
122 0.003982
123 0.003993
128 0.00401
118 0.003983
86 0.004002
68 0.00303
73 0.003992
85 0.003954
93 0.003998
100 0.004
106 0.004029
109 0.003988
112 0.003986
115 0.003989
120 0.003979
123 0.003993
127 0.003989
135 0.004031
141 0.002948
140 0.002945
88 0.003988
54 0.002992
56 0.002938
67 0.003992
84 0.003948
94 0.003978
107 0.003938
116 0.003996
119 0.002993
125 0.002957
131 0.002954
136 0.002992
145 0.003025
154 0.002929
165 0.002951
162 0.002978
99 0.003999
64 0.002958
62 0.002982
74 0.003001
85 0.003979
100 0.002957
110 0.003
115 0.002992
118 0.002991
118 0.002946
122 0.002947
128 0.002945
139 0.00396
146 0.002991
154 0.002004
135 0.002958
85 0.00294
60 0.002941
70 0.002957
82 0.003001
91 0.002951
101 0.002957
110 0.002955
119 0.002957
121 0.002967
124 0.003035
128 0.002039
136 0.002977
141 0.002046
150 0.002993
126 0.00296
66 0.002956
53 0.00299
59 0.002993
70 0.00299
79 0.002961
85 0.002964
95 0.001999
103 0.001989
108 0.001994
112 0.001999
121 0.002952
127 0.003047
133 0.002014
142 0.002962
141 0.002958
100 0.002961
58 0.002956
45 0.002993
60 0.001979
71 0.001995
74 0.001992
79 0.001996
93 0.001993
100 0.001994
106 0.001999
108 0.001996
113 0.002958
119 0.001985
125 0.002945
130 0.002971
140 0.002036
116 0.001955
65 0.00205
41 0.002
53 0.001993
66 0.001995
71 0.001996
84 0.001999
94 0.002028
102 0.001992
107 0.001987
110 0.001005
116 0.001003
122 0.000993
127 0.002036
135 0.002038
144 0.002002
149 0.001972
146 0.001962
81 0.001974
50 0.001978
51 0.000995
63 0.000997
72 0.000996
79 0.001029
88 0.001015
96 0.000959
102 0.001999
105 0.001998
111 0.001984
115 0.001996
123 0.001999
130 0.001945
135 0.000957
141 0.000999
148 0.000978
153 0.001007
107 0.000989
60 0.000998
54 0.000993
70 0.001995
82 0.001011
90 0.001948
101 0.001005
105 0.001995
108 0.000996
111 0.000964
114 0.000964
122 0.00103
126 0.0
136 0.001
79 0.000964
89 0.001001
101 0.001004
107 0.001005
110 0.000993
114 0.000998
118 0.000982
128 0.000991
135 0.001
142 0.000973
150 0.0
154 0.0
146 0.0
95 0.0
53 0.000954
48 0.001
60 0.000988
75 0.000994
81 0.001015
91 0.001003
100 0.001004
104 0.0
106 0.0
109 0.0
116 0.0
122 0.0
129 0.0
134 0.0
139 0.000991
127 0.000957
74 0.000999
45 0.000999
45 0.0
54 0.0
67 0.0
72 0.0
79 0.0
88 0.0
94 0.0
98 0.0
101 0.0
110 0.0
117 0.001001
122 0.0
128 0.0
135 0.0
145 0.0
125 0.0
72 0.0
43 0.0
44 0.0
59 0.0
68 0.001025
80 0.000963
87 0.000957
94 0.0
96 0.0
99 0.0
105 0.0
112 0.0
118 0.0
125 0.0
132 0.0
140 0.0
147 0.000973
115 0.000965
64 0.000963
49 0.0
58 0.0
71 0.0
80 0.001015
85 0.000999
96 0.0
104 0.0
105 0.0
108 0.000997
113 0.000971
123 0.000993
128 0.000991
141 0.0
148 0.0
154 0.0
141 0.00101
89 0.001012
53 0.000998
57 0.000964
71 0.000998
82 0.0
92 0.000999
105 0.000999
110 0.000998
112 0.000955
114 0.0
119 0.0
125 0.000998
130 0.000959
140 0.0
147 0.0
151 0.000998
116 0.000997
54 0.001
54 0.001026
66 0.001034
77 0.001007
84 0.000965
94 0.0
99 0.000999
102 0.001014
105 0.001038
112 0.0
118 0.000999
124 0.000998
133 0.001025
142 0.000999
143 0.002022
99 0.001045
55 0.001011
46 0.000999
53 0.00097
64 0.000968
71 0.000999
79 0.000999
90 0.001048
97 0.000999
102 0.000996
107 0.000999
113 0.001948
118 0.001994
127 0.000995
133 0.001
140 0.001034
126 0.001966
77 0.000998
42 0.000945
38 0.000999
47 0.000982
58 0.000963
64 0.001039
72 0.002039
79 0.001962
87 0.000949
91 0.001
95 0.001031
101 0.00296
108 0.002993
115 0.002022
123 0.002016
129 0.001993
134 0.002008
73 0.000998
37 0.002023
33 0.002032
46 0.000992
53 0.000999
60 0.000997
70 0.002988
77 0.003023
85 0.001978
88 0.001996
91 0.001994
102 0.001995
108 0.001996
114 0.001993
122 0.001994
130 0.001003
134 0.001997
140 0.001962
138 0.018948
81 0.001005
58 0.002
67 0.001994
75 0.003989
81 0.002991
85 0.001996
89 0.002993
96 0.002993
105 0.002992
110 0.002992
120 0.001994
125 0.001995
132 0.001994
140 0.001991
104 0.001985
57 0.002987
41 0.00299
52 0.002992
61 0.002991
70 0.002986
81 0.002992
91 0.002992
99 0.003015
100 0.001978
106 0.002021
114 0.001998
121 0.001996
126 0.002991
135 0.003986
145 0.002993
153 0.002992
140 0.002988
89 0.002988
60 0.002993
56 0.002992
66 0.002992
82 0.002993
93 0.002028
99 0.001995
106 0.002006
109 0.002992
112 0.003989
119 0.002986
127 0.002986
134 0.002991
142 0.004033
147 0.003989
153 0.002991
158 0.002997
114 0.002992
60 0.001996
54 0.002992
62 0.00403
72 0.00399
77 0.002999
85 0.002993
97 0.002993
104 0.003994
107 0.003989
113 0.002997
119 0.00399
129 0.002985
132 0.003018
138 0.004017
149 0.003986
152 0.003993
159 0.002965
139 0.002954
86 0.002965
56 0.004025
53 0.00399
68 0.003022
75 0.004022
82 0.004029
91 0.00399
100 0.003954
105 0.003989
106 0.003949
110 0.003958
118 0.004018
128 0.003021
134 0.004046
142 0.005039
151 0.004037
161 0.004956
169 0.003994
176 0.004017
149 0.004038
93 0.005015
63 0.004992
67 0.003979
75 0.003998
87 0.003004
97 0.004017
108 0.003989
118 0.003029
121 0.004007
124 0.003993
128 0.004014
136 0.004036
144 0.004987
150 0.004953
152 0.004002
156 0.004026
164 0.004
144 0.003991
95 0.005015
67 0.005013
71 0.004994
87 0.004016
96 0.003942
107 0.003988
118 0.004994
127 0.004972
130 0.003959
131 0.003989
136 0.003959
143 0.00601
149 0.005985
156 0.005019
165 0.004986
169 0.005021
129 0.005001
74 0.003974
67 0.00496
76 0.004977
88 0.003999
94 0.003962
102 0.00396
111 0.005986
118 0.006021
121 0.006009
125 0.006009
133 0.005988
142 0.004986
148 0.004992
153 0.004947
163 0.004947
166 0.004958
112 0.003973
71 0.004975
59 0.004975
66 0.005983
80 0.005015
84 0.005983
93 0.005972
103 0.004979
109 0.00504
114 0.004986
117 0.004991
122 0.005994
129 0.006009
137 0.005957
146 0.004954
151 0.006025
160 0.004948
149 0.005986
97 0.005968
55 0.004987
57 0.004991
66 0.005013
73 0.006019
77 0.006012
85 0.00599
90 0.005985
95 0.005985
98 0.0
115 0.000998
123 0.006
136 0.005024
140 0.005021
146 0.004994
152 0.005971
160 0.006948
166 0.006001
128 0.006002
80 0.005984
62 0.006016
65 0.005993
78 0.005984
83 0.005955
92 0.00499
102 0.005967
111 0.005004
112 0.005982
114 0.006982
119 0.005989
127 0.006011
137 0.006019
142 0.006981
154 0.005988
159 0.005989
164 0.00598
168 0.005976
114 0.004967
74 0.005976
64 0.006987
71 0.006977
87 0.005983
95 0.005983
101 0.005954
107 0.007017
116 0.005992
115 0.00701
117 0.007019
127 0.005962
131 0.005984
139 0.006942
150 0.006992
157 0.007013
168 0.005942
155 0.005942
106 0.005985
74 0.00698
76 0.006984
86 0.006959
95 0.007011
102 0.005954
111 0.006951
121 0.006982
125 0.007975
126 0.006984
134 0.006003
142 0.005993
147 0.006971
156 0.006977
166 0.005985
172 0.006984
177 0.006981
134 0.006018
85 0.006988
63 0.006973
71 0.007971
78 0.006977
86 0.007965
89 0.007022
95 0.006985
105 0.006987
115 0.006978
120 0.006968
128 0.007983
132 0.007021
143 0.006984
151 0.006974
156 0.007007
166 0.007943
171 0.007975
150 0.007019
96 0.006959
63 0.006975
67 0.007979
71 0.007979
81 0.006979
84 0.007941
95 0.006988
101 0.007023
106 0.006948
110 0.007972
116 0.007962
123 0.007009
132 0.006978
145 0.007009
156 0.006986
162 0.006952
171 0.007973
176 0.007974
176 0.006011
129 0.006983
80 0.006981
64 0.007971
69 0.007982
85 0.007027
93 0.006999
106 0.006987
115 0.007007
119 0.006934
120 0.007019
123 0.006983
132 0.007023
139 0.006981
147 0.00698
154 0.007973
160 0.007977
171 0.007015
171 0.006954
109 0.006983
72 0.00698
76 0.00698
90 0.007008
101 0.006966
105 0.006986
114 0.006976
122 0.006968
126 0.00794
129 0.007971
132 0.006992
144 0.007008
155 0.007007
161 0.006977
170 0.006959
176 0.006981
172 0.006984
106 0.007016
75 0.006999
72 0.006975
85 0.006983
96 0.006971
100 0.007008
110 0.006953
123 0.006981
125 0.006975
126 0.00701
131 0.006944
137 0.006973
147 0.006966
155 0.006975
163 0.006983
171 0.005982
151 0.006988
89 0.005973
72 0.005984
81 0.00695
90 0.00699
97 0.006983
106 0.006978
114 0.006975
121 0.006954
124 0.006974
126 0.007039
131 0.005972
138 0.005986
149 0.005932
154 0.005984
165 0.005987
148 0.005977
132 0.009973
94 0.0
72 0.006987
76 0.006986
79 0.006985
89 0.005981
101 0.005978
103 0.005938
110 0.005984
119 0.005982
127 0.005974
136 0.005963
142 0.006034
150 0.005974
137 0.006966
84 0.006982
50 0.005975
44 0.005975
51 0.005982
60 0.005957
66 0.005981
78 0.005981
86 0.005955
91 0.006006
93 0.005975
95 0.005952
105 0.004955
114 0.004951
124 0.004938
134 0.005987
143 0.005987
152 0.006014
132 0.006013
65 0.005979
43 0.005978
46 0.005961
57 0.005954
64 0.005957
67 0.005965
75 0.005006
85 0.004947
92 0.004985
94 0.004975
98 0.005021
107 0.005983
119 0.00597
126 0.005955
134 0.005957
144 0.005985
150 0.005986
162 0.004988
168 0.00495
154 0.004983
100 0.004991
60 0.004958
58 0.004989
66 0.004995
75 0.004988
80 0.004983
89 0.00502
98 0.004975
103 0.005978
106 0.004989
112 0.004981
120 0.005007
128 0.004997
138 0.004978
149 0.004978
157 0.004986
166 0.005011
174 0.004987
180 0.004989
149 0.003991
97 0.004973
74 0.004951
81 0.00499
92 0.00499
100 0.004978
106 0.005
123 0.00498
128 0.004974
129 0.003968
134 0.004017
140 0.00498
147 0.003969
156 0.003989
165 0.00399
170 0.004035
176 0.004987
182 0.004988
189 0.004989
119 0.005015
85 0.00499
81 0.003984
97 0.004018
105 0.003983
109 0.003993
117 0.003998
128 0.003972
135 0.00399
138 0.004019
140 0.003993
148 0.004015
160 0.004976
165 0.004985
173 0.003988
181 0.003993
183 0.00398
187 0.003955
193 0.004015
192 0.003958
126 0.003992
90 0.003989
86 0.003913
95 0.003013
106 0.003974
109 0.002992
119 0.003987
129 0.00402
135 0.004004
137 0.003988
143 0.003994
148 0.003994
158 0.003972
165 0.003992
171 0.003993
177 0.003935
186 0.002967
193 0.004
193 0.002959
128 0.003019
90 0.002959
88 0.002958
101 0.004007
113 0.003987
121 0.003989
129 0.003972
136 0.004019
142 0.00401
143 0.002937
149 0.002992
161 0.003004
170 0.002955
175 0.002968
181 0.00296
185 0.002951
191 0.002952
195 0.003957
151 0.00399
105 0.002993
99 0.00399
112 0.00299
122 0.002989
128 0.002965
138 0.002957
145 0.002989
150 0.002938
151 0.002929
154 0.002957
160 0.002955
166 0.003001
172 0.003007
184 0.00298
189 0.00296
196 0.003008
201 0.003028
170 0.00299
115 0.002993
89 0.002959
90 0.002947
103 0.002992
112 0.002958
112 0.002044
118 0.002006
129 0.001989
134 0.002966
138 0.002966
142 0.002966
148 0.00293
153 0.002952
160 0.002975
169 0.002992
175 0.003008
178 0.002992
188 0.002994
185 0.002006
100 0.001995
75 0.001993
81 0.002992
93 0.002992
103 0.001994
110 0.002992
117 0.002994
125 0.00298
130 0.002991
132 0.002992
137 0.001996
143 0.001996
152 0.001995
160 0.001995
167 0.001995
174 0.001993
180 0.002026
187 0.001996
154 0.001959
101 0.000996
80 0.002043
84 0.002023
102 0.002024
111 0.001998
123 0.002029
131 0.002026
138 0.001995
139 0.001995
140 0.001997
147 0.001961
153 0.001
160 0.000996
167 0.001026
173 0.000998
182 0.00197
177 0.000998
97 0.002022
78 0.001996
84 0.001995
98 0.001996
108 0.001951
117 0.001996
127 0.001995
135 0.000998
141 0.000998
143 0.000997
146 0.000998
152 0.000998
164 0.001997
168 0.000999
172 0.002026
179 0.002024
160 0.001996
89 0.002031
70 0.001039
76 0.000997
91 0.000997
103 0.00104
113 0.000997
122 0.001037
131 0.000959
132 0.000962
129 0.000997
130 0.000998
137 0.001995
147 0.001025
154 0.001026
163 0.001026
168 0.000969
133 0.000997
71 0.000997
62 0.000998
79 0.000998
87 0.000997
88 0.000968
95 0.000998
105 0.000999
115 0.000998
116 0.000998
119 0.000994
124 0.000997
129 0.000997
137 0.000999
144 0.000998
148 0.000998
107 0.000998
58 0.0
46 0.000997
53 0.0
65 0.001036
70 0.0
72 0.0
81 0.0
91 0.0
102 0.000999
103 0.000978
109 0.001008
117 0.000998
123 0.000998
126 0.001001
139 0.0
128 0.0
58 0.0
38 0.0
40 0.0
48 0.0
54 0.0
56 0.0
68 0.000998
80 0.000998
85 0.0
89 0.0
93 0.0
101 0.0
110 0.0
114 0.0
120 0.0
131 0.0
114 0.0
36 0.0
27 0.0
35 0.000998
42 0.0
44 0.0
48 0.0
59 0.0
71 0.0
78 0.0
80 0.0
85 0.0
93 0.0
111 0.000997
118 0.0
124 0.000999
128 0.000997
137 0.0
97 0.0
47 0.0
25 0.0
28 0.001007
36 0.0
39 0.0
43 0.0
59 0.0
68 0.0
74 0.000999
78 0.00099
86 0.0
89 0.016956
95 0.000996
113 0.000997
118 0.000998
128 0.0
138 0.0
144 0.0
157 0.0
163 0.0
168 0.000998
154 0.001
75 0.0
47 0.0
47 0.0
53 0.000997
58 0.000997
61 0.0
65 0.0
75 0.0
88 0.0
93 0.0
98 0.001048
106 0.001026
116 0.0
124 0.0
128 0.0
133 0.000996
141 0.000996
149 0.0
157 0.0
165 0.000996
97 0.000996
58 0.0
51 0.001004
60 0.001025
77 0.0
81 0.000998
82 0.001
90 0.000997
99 0.000997
107 0.000973
111 0.001043
123 0.000996
131 0.000999
139 0.000996
146 0.001936
152 0.001958
159 0.002034
170 0.0
179 0.001025
185 0.000991
161 0.000995
103 0.001988
68 0.000998
79 0.001996
99 0.001023
103 0.000998
107 0.000996
116 0.001967
124 0.001993
127 0.000951
128 0.000994
136 0.000997
147 0.001967
155 0.002026
163 0.000965
172 0.002032
182 0.001
186 0.000941
195 0.000994
184 0.001998
130 0.001992
83 0.000993
86 0.001006
98 0.000993
108 0.002989
115 0.002988
123 0.000978
131 0.001994
139 0.000993
142 0.000961
146 0.001006
153 0.001926
163 0.002983
169 0.001995
176 0.001995
184 0.001994
192 0.002966
195 0.002991
205 0.001999
168 0.003022
98 0.000998
84 0.000961
93 0.001029
108 0.00194
114 0.002
118 0.001995
126 0.001995
132 0.00204
139 0.002977
144 0.002994
148 0.001996
157 0.003025
161 0.002036
169 0.002026
175 0.001966
183 0.002011
189 0.001994
200 0.001952
200 0.001995
160 0.002006
104 0.002962
82 0.002995
88 0.001996
105 0.003036
112 0.002028
121 0.002019
129 0.002028
136 0.003991
138 0.003984
143 0.002997
147 0.001974
154 0.00198
161 0.002967
170 0.002993
179 0.001999
184 0.002992
193 0.002023
200 0.002021
169 0.002045
109 0.003988
81 0.003981
91 0.00299
104 0.003016
113 0.00299
116 0.003962
123 0.004009
133 0.002034
138 0.002992
139 0.002016
144 0.002016
148 0.002966
156 0.00299
163 0.003989
170 0.003989
179 0.002995
188 0.001967
193 0.002951
155 0.004002
79 0.003034
79 0.003989
92 0.003988
108 0.001991
116 0.002007
124 0.002996
131 0.004
135 0.003995
139 0.003003
141 0.002993
146 0.00302
152 0.003999
164 0.003018
170 0.003973
175 0.004015
183 0.004022
183 0.003985
134 0.002951
81 0.00401
65 0.003986
76 0.00305
87 0.002993
94 0.003001
100 0.004054
112 0.00306
118 0.004987
123 0.004987
125 0.004034
131 0.004028
138 0.003953
144 0.004983
150 0.004956
159 0.002992
164 0.002949
171 0.002965
151 0.004017
69 0.002993
55 0.00402
62 0.004982
75 0.003018
82 0.004033
87 0.002988
93 0.003989
99 0.003984
107 0.003974
109 0.002992
112 0.002974
120 0.003992
131 0.002993
138 0.004997
144 0.004981
155 0.003964
162 0.004012
148 0.003964
92 0.004977
53 0.004952
47 0.003945
59 0.003994
70 0.004986
75 0.006013
89 0.003991
96 0.004994
102 0.004983
108 0.003964
114 0.003991
118 0.00398
123 0.005013
132 0.004982
143 0.00399
151 0.004013
158 0.003999
167 0.004969
114 0.004987
62 0.004986
47 0.005022
60 0.005024
76 0.003989
85 0.003961
91 0.00502
97 0.004986
106 0.003991
109 0.003991
109 0.004016
115 0.005975
133 0.00499
142 0.00498
152 0.005972
157 0.005975
163 0.00495
170 0.00503
139 0.004017
82 0.004986
58 0.004987
63 0.004962
74 0.004987
84 0.005007
94 0.004961
103 0.005014
112 0.005959
113 0.005947
116 0.005019
120 0.005017
129 0.003989
136 0.006012
145 0.00697
157 0.004987
164 0.004984
170 0.004967
121 0.004985
67 0.004945
47 0.00604
51 0.005983
66 0.004989
73 0.004987
77 0.004987
86 0.005988
95 0.006973
101 0.005985
104 0.005989
112 0.005998
121 0.004986
128 0.004987
132 0.005975
138 0.006023
150 0.004972
156 0.004997
142 0.005983
85 0.006985
44 0.007004
39 0.004987
51 0.005984
65 0.005984
70 0.004986
79 0.005983
89 0.006981
95 0.005986
99 0.004986
105 0.005984
112 0.004986
121 0.006948
130 0.006979
142 0.005986
149 0.006027
163 0.005984
157 0.005983
104 0.005984
57 0.006981
48 0.006982
61 0.005984
74 0.005983
81 0.00599
87 0.007013
94 0.006973
103 0.006023
107 0.006012
115 0.005934
123 0.005989
132 0.005974
141 0.00697
150 0.006945
159 0.006026
168 0.005987
171 0.005979
111 0.00795
66 0.007927
54 0.005958
62 0.005984
81 0.005995
86 0.005959
93 0.005994
101 0.007004
105 0.010026
109 0.00798
114 0.00701
123 0.007012
134 0.007015
143 0.00798
155 0.007977
163 0.005983
172 0.007942
175 0.005986
129 0.00598
77 0.005979
53 0.007978
61 0.00795
71 0.00701
79 0.006028
85 0.005988
94 0.00798
104 0.007946
109 0.00598
116 0.007942
125 0.007025
134 0.007011
141 0.006024
150 0.006974
157 0.007969
164 0.006976
173 0.006956
174 0.006981
106 0.007997
74 0.007945
54 0.006976
74 0.007945
84 0.006985
87 0.006983
99 0.006944
108 0.007016
110 0.006983
114 0.006993
120 0.006953
127 0.006968
138 0.007979
146 0.007944
157 0.007012
173 0.006944
182 0.006975
189 0.006968
133 0.006918
79 0.006963
65 0.00695
79 0.00697
88 0.006952
100 0.006971
107 0.006975
116 0.007929
121 0.006977
124 0.00699
131 0.006974
139 0.00701
148 0.006973
155 0.00701
164 0.007009
175 0.006972
184 0.006992
190 0.006985
157 0.006979
99 0.007029
66 0.00694
74 0.006986
92 0.006897
99 0.006978
105 0.006928
112 0.006954
116 0.006983
116 0.006935
120 0.00698
129 0.00697
139 0.006935
147 0.006949
162 0.00694
170 0.005975
185 0.005952
187 0.006011
137 0.006975
80 0.006965
60 0.006981
68 0.007006
80 0.00698
88 0.005948
96 0.006023
104 0.006981
114 0.005973
116 0.005984
120 0.005958
126 0.005987
137 0.00595
147 0.005988
158 0.007029
167 0.007022
174 0.006982
182 0.006986
158 0.00702
98 0.006025
56 0.006014
64 0.006002
77 0.005974
86 0.006014
93 0.005981
102 0.00597
109 0.006043
114 0.005983
117 0.006008
122 0.007017
134 0.007021
144 0.005984
158 0.005964
168 0.005965
176 0.00595
188 0.00599
154 0.005949
92 0.005961
63 0.005984
64 0.00595
86 0.004979
96 0.005024
102 0.005984
112 0.005952
120 0.005977
119 0.005989
120 0.005945
133 0.005968
145 0.005992
155 0.004974
165 0.005987
172 0.005995
180 0.005017
190 0.004961
158 0.004992
96 0.004975
64 0.004948
74 0.004943
87 0.005942
98 0.005975
107 0.005964
117 0.005966
122 0.005983
123 0.005987
128 0.004994
135 0.004987
145 0.00495
153 0.004964
167 0.004994
176 0.004981
184 0.004954
184 0.004921
130 0.004975
75 0.005978
57 0.004984
62 0.00594
77 0.004979
85 0.004983
90 0.004936
99 0.005013
112 0.004943
116 0.004948
118 0.004959
125 0.004948
132 0.002004
144 0.003948
153 0.004003
161 0.004998
174 0.00495
180 0.004931
152 0.004988
64 0.004954
53 0.00497
62 0.004993
77 0.00495
89 0.004001
98 0.004995
107 0.003972
114 0.003959
116 0.004
120 0.004029
127 0.003988
138 0.004995
152 0.005038
163 0.005013
172 0.004967
181 0.004987
186 0.005014
141 0.004955
88 0.004024
67 0.00403
74 0.00402
93 0.003962
102 0.004022
113 0.003991
129 0.003991
131 0.004989
132 0.005029
134 0.00499
143 0.00503
154 0.004019
162 0.004017
169 0.004025
176 0.003994
183 0.003968
188 0.004022
146 0.004019
70 0.004023
66 0.004047
76 0.003985
88 0.004999
95 0.004019
107 0.00402
117 0.00403
124 0.003983
125 0.004033
128 0.004024
138 0.004024
149 0.003973
163 0.00397
170 0.003025
174 0.00402
181 0.003021
184 0.003022
115 0.002994
67 0.004024
56 0.004026
63 0.00402
77 0.003994
88 0.003993
96 0.003991
112 0.00399
115 0.003998
117 0.004038
123 0.003032
132 0.002991
145 0.002993
154 0.002994
163 0.002994
170 0.002962
179 0.003991
180 0.004013
130 0.004036
63 0.003025
64 0.003997
77 0.003007
88 0.002994
100 0.002994
114 0.002993
126 0.002998
130 0.003017
130 0.002998
131 0.002991
142 0.002991
154 0.002993
168 0.00304
175 0.003047
181 0.003037
189 0.002993
160 0.002991
86 0.002961
63 0.002994
67 0.003027
79 0.002994
90 0.001999
99 0.003032
109 0.003024
120 0.001995
122 0.002994
125 0.002966
132 0.00296
142 0.002993
153 0.002994
161 0.002992
170 0.002993
178 0.002994
182 0.002992
125 0.002037
72 0.002959
58 0.001995
69 0.002005
77 0.002029
82 0.002994
88 0.002992
99 0.003037
107 0.002966
110 0.003033
114 0.002993
123 0.002958
136 0.001997
147 0.00202
162 0.001995
169 0.001995
178 0.002036
172 0.002967
117 0.002024
69 0.001996
58 0.002993
71 0.002001
83 0.00299
89 0.001988
97 0.002024
113 0.002022
118 0.001995
118 0.002027
123 0.002036
135 0.001995
147 0.002064
157 0.002019
171 0.002024
178 0.002026
184 0.001994
180 0.000998
129 0.000998
62 0.002
65 0.002022
83 0.001996
93 0.001995
99 0.002025
108 0.001997
115 0.001996
121 0.001995
124 0.001998
131 0.002052
140 0.000999
148 0.001029
163 0.001998
170 0.000998
176 0.001995
185 0.001996
167 0.00197
105 0.001996
64 0.001995
60 0.000999
73 0.000996
83 0.000964
88 0.000998
95 0.001035
109 0.000999
113 0.000998
118 0.000996
127 0.000965
135 0.000998
145 0.001996
155 0.001966
166 0.001969
174 0.000997
182 0.000994
187 0.001004
151 0.000999
63 0.000998
58 0.000997
77 0.000998
87 0.000998
96 0.000998
106 0.000997
117 0.000998
121 0.000998
125 0.000998
128 0.001023
136 0.000997
145 0.000997
157 0.000998
167 0.000988
177 0.000998
188 0.001008
194 0.000998
151 0.000998
90 0.0
70 0.000997
81 0.0
96 0.0
106 0.0
116 0.0
131 0.000998
134 0.000986
134 0.001013
138 0.000998
148 0.000997
156 0.0
163 0.0
172 0.0
178 0.0
186 0.0
192 0.0
154 0.0
70 0.0
64 0.0
75 0.0
91 0.000997
100 0.000997
107 0.0
115 0.0
122 0.0
124 0.0
127 0.0
128 0.0
143 0.0
153 0.0
161 0.0
167 0.0
178 0.0
178 0.000998
125 0.0
69 0.0
50 0.0
62 0.0
76 0.0
87 0.0
98 0.0
105 0.0
111 0.0
114 0.0
118 0.000998
123 0.000998
135 0.000997
146 0.000998
156 0.0
165 0.001037
175 0.001043
178 0.0
111 0.001024
55 0.0
57 0.0
72 0.0
85 0.001003
94 0.000998
106 0.0
115 0.0
119 0.000953
120 0.002023
124 0.002028
134 0.0
146 0.001029
159 0.0
167 0.0
173 0.0
181 0.000997
175 0.001031
99 0.0
72 0.000961
64 0.000997
78 0.000999
93 0.002002
107 0.0
119 0.001995
126 0.0
125 0.0
127 0.0
133 0.001039
142 0.001048
153 0.0
160 0.0
167 0.0
173 0.000961
179 0.000997
158 0.00096
68 0.001045
55 0.0
70 0.0
84 0.0
91 0.000999
96 0.001031
109 0.0
115 0.0
119 0.000985
121 0.001995
128 0.001
140 0.000965
150 0.001996
161 0.000959
169 0.001001
177 0.0
173 0.002011
118 0.001941
59 0.0
55 0.0
66 0.000998
76 0.000997
84 0.001023
91 0.001991
104 0.001993
110 0.001996
115 0.00203
119 0.0
126 0.000996
137 0.001996
143 0.002037
156 0.000971
164 0.000998
172 0.000969
179 0.000996
151 0.001992
76 0.004992
65 0.002032
71 0.000966
84 0.000972
91 0.00095
99 0.001992
108 0.001996
116 0.000996
117 0.001003
121 0.001002
129 0.002022
137 0.002995
154 0.002991
161 0.001982
171 0.000971
178 0.000995
185 0.00097
166 0.001996
106 0.001972
63 0.001993
70 0.002024
88 0.000959
102 0.002987
115 0.000996
126 0.00298
134 0.00299
134 0.001016
135 0.002021
141 0.001967
151 0.001995
160 0.00199
170 0.001958
175 0.000956
180 0.001968
188 0.003003
176 0.001022
114 0.003
73 0.002997
72 0.001
87 0.001018
100 0.001032
107 0.002959
116 0.001989
127 0.000973
132 0.001969
133 0.001961
136 0.002993
149 0.001978
156 0.002992
163 0.002981
173 0.001024
177 0.000969
183 0.000975
191 0.003949
191 0.00399
120 0.001962
73 0.001997
63 0.001976
76 0.002973
96 0.001968
102 0.002978
107 0.002999
117 0.002022
123 0.00202
123 0.001969
125 0.003033
130 0.003987
143 0.001982
152 0.002035
161 0.002007
168 0.002992
180 0.001955
187 0.002988
192 0.002993
136 0.00198
79 0.002002
62 0.002985
69 0.003988
84 0.003989
97 0.001996
103 0.00199
110 0.001994
120 0.00399
124 0.001998
126 0.004001
131 0.003011
142 0.002989
152 0.002965
160 0.002987
168 0.002993
176 0.003953
182 0.003988
192 0.001994
171 0.002994
108 0.002997
68 0.001969
79 0.001995
95 0.004984
107 0.00499
119 0.002993
128 0.002979
136 0.002984
136 0.003984
136 0.004015
143 0.003004
150 0.002992
156 0.002992
166 0.001986
172 0.002992
178 0.003951
186 0.003998
191 0.002966
146 0.002965
84 0.002988
63 0.004978
66 0.004019
85 0.00302
95 0.002992
101 0.003024
114 0.003001
121 0.003026
124 0.004049
124 0.004949
128 0.003013
138 0.00298
145 0.002963
152 0.005009
160 0.004989
171 0.002998
177 0.002963
177 0.002994
118 0.003026
65 0.002984
49 0.003961
56 0.004988
76 0.003983
83 0.003986
88 0.003973
97 0.004993
104 0.004991
111 0.002991
114 0.00296
124 0.002998
134 0.003986
142 0.003027
151 0.004985
159 0.005031
169 0.002991
177 0.002978
185 0.003994
144 0.004993
79 0.004994
47 0.003038
60 0.003019
87 0.002981
94 0.00396
101 0.003952
109 0.005985
116 0.005919
116 0.003983
119 0.004016
126 0.003984
138 0.005027
143 0.004965
154 0.003991
163 0.003989
176 0.004
185 0.003987
148 0.003955
85 0.005975
56 0.005946
62 0.004
76 0.003971
90 0.004013
99 0.005954
110 0.004985
118 0.002058
119 0.003987
121 0.003967
126 0.004978
135 0.00499
143 0.004019
152 0.005981
159 0.005986
167 0.003991
173 0.003951
153 0.003977
88 0.006946
45 0.005993
44 0.004023
66 0.00601
76 0.004964
83 0.003946
92 0.004989
100 0.005984
104 0.005982
109 0.003998
114 0.004001
122 0.004015
130 0.005943
138 0.005975
149 0.003984
156 0.006981
167 0.004939
137 0.004938
74 0.005012
42 0.006016
43 0.005951
61 0.004998
71 0.004994
74 0.004989
81 0.00605
90 0.006949
99 0.004989
102 0.006985
111 0.004996
118 0.004961
128 0.004981
136 0.006017
144 0.005988
153 0.004978
161 0.004985
166 0.004981
134 0.00697
70 0.00698
38 0.005008
54 0.006948
73 0.004988
82 0.00497
89 0.004992
98 0.006954
105 0.006973
106 0.005986
109 0.005971
117 0.004987
126 0.006927
134 0.006992
146 0.006012
154 0.00702
166 0.006029
165 0.005985
116 0.004973
56 0.007944
53 0.006982
69 0.004961
84 0.006035
94 0.005981
103 0.007938
111 0.007954
118 0.006951
118 0.006984
124 0.005983
131 0.005023
141 0.005994
148 0.006972
155 0.006975
166 0.004991
172 0.005953
176 0.005967
119 0.007922
79 0.007975
53 0.007923
67 0.00696
83 0.005984
89 0.006929
96 0.006001
107 0.00796
111 0.007957
115 0.005979
118 0.00699
122 0.006007
134 0.00795
142 0.007971
156 0.007943
160 0.007944
166 0.005979
171 0.00601
145 0.005951
82 0.00697
47 0.007968
55 0.007963
70 0.00698
81 0.007016
84 0.006947
94 0.007969
105 0.005991
110 0.007913
110 0.007994
117 0.005966
126 0.005992
134 0.006987
145 0.007979
151 0.007972
159 0.006992
166 0.006972
173 0.006985
162 0.007979
69 0.006983
53 0.007972
70 0.007951
85 0.005953
92 0.005995
99 0.006947
109 0.006983
115 0.006939
120 0.006984
120 0.006965
126 0.006969
136 0.007969
148 0.006981
153 0.007975
162 0.007973
171 0.006979
176 0.00696
168 0.006953
107 0.006964
62 0.006942
57 0.006954
69 0.006982
87 0.006978
92 0.007978
101 0.007001
112 0.006976
116 0.007978
119 0.00698
124 0.006956
132 0.006987
140 0.007008
149 0.006977
158 0.006956
164 0.006982
172 0.006957
178 0.006984
158 0.006936
91 0.007956
55 0.006946
58 0.00698
72 0.006971
82 0.006941
86 0.006983
92 0.006948
102 0.00698
109 0.006947
112 0.006954
113 0.006977
120 0.003989
132 0.006986
142 0.005985
152 0.00698
159 0.006979
165 0.006987
173 0.006981
180 0.00698
134 0.006977
72 0.006982
47 0.006989
64 0.006982
77 0.006941
86 0.005985
93 0.006032
104 0.006012
111 0.005957
114 0.005972
115 0.006991
121 0.006983
132 0.006953
141 0.006955
149 0.006959
161 0.005985
168 0.005984
176 0.006014
184 0.005986
157 0.005984
91 0.005984
56 0.005993
58 0.005991
72 0.006955
90 0.006948
100 0.006983
108 0.006949
119 0.005986
121 0.005986
123 0.005985
128 0.005986
136 0.006032
149 0.006013
156 0.006022
164 0.006937
170 0.006974
178 0.006015
187 0.006019
157 0.006956
64 0.006012
56 0.005942
68 0.006024
82 0.005985
92 0.006011
101 0.005999
110 0.005974
118 0.006012
120 0.005986
121 0.005968
128 0.004965
138 0.004987
153 0.005017
161 0.00502
168 0.005984
174 0.005957
181 0.005984
181 0.006012
123 0.006013
65 0.005981
47 0.005972
54 0.005019
72 0.004987
80 0.004988
87 0.00503
95 0.005038
101 0.004988
104 0.004987
110 0.00503
116 0.005018
126 0.005014
135 0.00602
145 0.00605
153 0.006029
164 0.005017
172 0.005016
165 0.004987
103 0.004987
54 0.005013
43 0.005014
56 0.004988
76 0.004987
83 0.005015
90 0.005015
98 0.005025
104 0.003993
110 0.005024
110 0.005033
123 0.004988
131 0.004987
136 0.002042
150 0.005014
157 0.005017
167 0.005014
175 0.005047
181 0.004992
152 0.005017
85 0.004024
44 0.004016
50 0.004028
77 0.004989
84 0.004985
91 0.004988
99 0.004986
107 0.005018
109 0.005012
110 0.003993
115 0.005024
124 0.004022
135 0.003989
146 0.003989
155 0.004017
168 0.00399
177 0.004989
176 0.004987
119 0.005012
64 0.004991
53 0.005013
66 0.004988
81 0.003993
92 0.004018
103 0.004019
111 0.004041
116 0.003991
116 0.004027
123 0.004023
131 0.003991
140 0.003992
151 0.004017
159 0.004017
167 0.005028
173 0.00399
179 0.004035
158 0.004023
95 0.00402
45 0.003991
54 0.003992
74 0.00399
81 0.003989
88 0.003027
98 0.002992
105 0.003023
106 0.002994
110 0.002993
117 0.003005
129 0.003991
137 0.004022
151 0.003992
158 0.004022
165 0.003991
174 0.00399
163 0.002992
99 0.002995
50 0.002992
45 0.002992
60 0.002994
73 0.003993
79 0.002992
87 0.002994
100 0.003993
106 0.003989
109 0.0
111 0.000999
122 0.002992
131 0.002958
140 0.003021
151 0.002992
159 0.002992
166 0.002953
174 0.003031
158 0.003041
60 0.002993
45 0.002986
62 0.004034
76 0.003991
82 0.002959
88 0.002967
98 0.002991
107 0.002991
108 0.002993
110 0.002988
117 0.002945
126 0.003
142 0.002991
151 0.002993
161 0.003989
169 0.001995
178 0.001994
173 0.002993
118 0.002991
55 0.002993
53 0.002991
69 0.002992
85 0.002993
95 0.003028
111 0.002992
117 0.001994
120 0.002022
120 0.002021
124 0.001995
133 0.002992
143 0.001962
152 0.002993
160 0.002985
167 0.002991
172 0.002959
177 0.002992
101 0.001995
58 0.001996
56 0.001995
69 0.001997
81 0.002023
88 0.001996
96 0.001995
109 0.002992
114 0.001992
116 0.000996
117 0.001996
127 0.003018
140 0.002994
148 0.001994
155 0.002023
165 0.001989
172 0.001996
181 0.001995
144 0.002
79 0.001995
47 0.001993
56 0.001996
69 0.002
77 0.001992
85 0.002951
96 0.001995
103 0.002025
107 0.001997
107 0.001994
113 0.001996
120 0.001996
131 0.002034
143 0.002031
151 0.002022
158 0.002038
171 0.001023
169 0.000998
114 0.000999
56 0.000998
43 0.001992
54 0.001993
68 0.001996
75 0.001995
82 0.001965
94 0.001994
101 0.002025
103 0.002025
108 0.000997
117 0.000995
127 0.000997
135 0.000998
148 0.000998
155 0.000998
162 0.000998
172 0.001994
170 0.002
93 0.001996
52 0.001994
51 0.000997
75 0.000998
84 0.000997
90 0.000998
99 0.000999
107 0.000999
108 0.000999
110 0.000998
117 0.000998
125 0.002023
138 0.0
147 0.000999
155 0.000997
165 0.000997
171 0.000998
172 0.000999
118 0.001995
45 0.000999
36 0.000997
49 0.000998
62 0.002001
69 0.0
75 0.00103
82 0.0
90 0.000997
95 0.0
99 0.001023
106 0.000998
116 0.001001
128 0.000998
139 0.000997
149 0.0
157 0.000999
162 0.0
160 0.0
106 0.0
52 0.0
42 0.0
55 0.0
64 0.0
65 0.000961
75 0.000961
86 0.000998
91 0.000998
94 0.0
99 0.0
111 0.0
120 0.0
131 0.0
146 0.0
155 0.0
163 0.0
171 0.0
161 0.000998
98 0.000997
50 0.000968
43 0.0
55 0.0
71 0.0
80 0.0
87 0.0
104 0.0
109 0.0
110 0.0
113 0.0
123 0.000997
140 0.000998
148 0.000998
157 0.000997
165 0.0
173 0.0
181 0.0
168 0.0
73 0.0
55 0.0
68 0.0
82 0.0
91 0.0
96 0.000999
108 0.002044
118 0.0
120 0.0
123 0.0
130 0.001025
147 0.0
155 0.000985
162 0.000992
170 0.000971
178 0.000946
188 0.0
196 0.001991
164 0.001985
81 0.0
61 0.0
69 0.0
83 0.001996
93 0.000974
100 0.000985
112 0.000999
123 0.0
126 0.000966
128 0.000967
134 0.000963
142 0.000996
154 0.0
164 0.0
173 0.0
181 0.001989
194 0.0
200 0.001994
181 0.001995
96 0.0
67 0.0
74 0.000996
91 0.000999
103 0.000999
111 0.000991
117 0.000986
130 0.000987
136 0.001995
138 0.0
145 0.001969
154 0.001962
166 0.0
175 0.0
183 0.0
190 0.001956
196 0.000963
208 0.000967
206 0.00096
150 0.0
96 0.000997
94 0.0
111 0.001992
125 0.001992
136 0.0
147 0.0
154 0.0
158 0.001954
159 0.001988
163 0.0
169 0.0
176 0.0
183 0.000981
196 0.000965
202 0.001959
209 0.001995
217 0.0
189 0.0
124 0.0
89 0.001989
93 0.002
113 0.0
123 0.0
130 0.0
138 0.0
152 0.0
155 0.001997
155 0.001957
159 0.001957
169 0.001046
177 0.000996
184 0.0
192 0.002026
198 0.002018
203 0.0
211 0.0
208 0.002027
110 0.001995
84 0.000994
89 0.003011
104 0.001996
116 0.001995
122 0.001992
128 0.001997
135 0.001995
140 0.001995
143 0.000987
147 0.00099
153 0.000983
165 0.000998
172 0.001983
179 0.002954
186 0.002924
194 0.001981
199 0.001989
204 0.001976
165 0.001974
101 0.001961
75 0.00203
86 0.002031
101 0.001051
116 0.000994
123 0.000998
132 0.002987
138 0.002992
141 0.001994
143 0.002004
148 0.001972
154 0.002949
162 0.002973
173 0.00204
180 0.001998
188 0.001023
196 0.001025
197 0.001005
150 0.003008
91 0.002992
74 0.000996
88 0.000997
105 0.001005
114 0.002992
122 0.003015
133 0.00199
137 0.002006
139 0.002024
140 0.001985
148 0.001994
155 0.002993
162 0.003003
172 0.00099
179 0.001995
186 0.001016
198 0.002995
194 0.003936
117 0.001043
75 0.000993
81 0.001002
96 0.001996
105 0.001972
110 0.002991
118 0.002992
122 0.018924
129 0.0
128 0.001026
132 0.003015
138 0.003988
152 0.002
156 0.001936
166 0.001995
174 0.00199
184 0.001967
186 0.003983
136 0.004017
64 0.00197
57 0.001993
67 0.002962
80 0.002993
86 0.00397
89 0.004007
97 0.001917
107 0.00402
117 0.001983
120 0.001995
127 0.002992
136 0.004024
142 0.004037
149 0.001988
160 0.002994
168 0.003016
176 0.003984
175 0.003992
104 0.002975
51 0.003945
57 0.001959
70 0.002002
79 0.002964
84 0.00494
89 0.003985
102 0.001987
108 0.002945
111 0.002955
114 0.004984
120 0.004987
131 0.002992
142 0.003972
151 0.002
159 0.001968
166 0.001964
173 0.00399
153 0.003991
73 0.003012
47 0.002972
49 0.003009
64 0.004961
76 0.004964
85 0.002994
97 0.003992
106 0.002946
110 0.003009
110 0.001955
115 0.00399
124 0.004988
136 0.002983
143 0.002973
150 0.002996
158 0.005023
165 0.005015
175 0.003
128 0.004957
57 0.002988
43 0.003955
59 0.003033
75 0.004954
86 0.004987
100 0.002951
109 0.003046
114 0.00299
116 0.005036
117 0.004986
127 0.004999
133 0.004996
146 0.003014
153 0.002966
162 0.002997
167 0.005022
176 0.006022
158 0.003992
95 0.003946
51 0.002955
47 0.004981
59 0.004987
79 0.004985
87 0.004997
99 0.002957
105 0.003994
111 0.004033
112 0.005975
116 0.005984
127 0.003987
136 0.004007
142 0.003992
150 0.004986
159 0.005022
170 0.004993
177 0.005008
128 0.003961
65 0.003961
41 0.003993
48 0.005981
61 0.005985
73 0.003994
77 0.003989
84 0.004011
93 0.006019
100 0.005983
105 0.004958
109 0.005983
117 0.005999
130 0.004017
140 0.003965
148 0.003977
155 0.006019
163 0.005983
174 0.003996
151 0.003983
86 0.003987
43 0.006979
47 0.004013
61 0.006035
70 0.007014
81 0.00497
90 0.004009
98 0.004994
102 0.005985
104 0.005959
108 0.004019
118 0.003991
129 0.004003
138 0.005981
151 0.003959
158 0.006941
165 0.007021
172 0.004986
122 0.005015
63 0.00499
44 0.007013
52 0.006981
71 0.004987
81 0.004018
90 0.003991
99 0.005983
109 0.005
111 0.006984
113 0.006972
120 0.005022
129 0.004991
140 0.005001
150 0.006981
156 0.006971
164 0.004991
175 0.005003
170 0.005004
110 0.00601
41 0.005012
46 0.006982
60 0.007016
72 0.004983
79 0.004986
89 0.004976
98 0.007013
103 0.007006
106 0.004956
110 0.004973
117 0.00397
129 0.007943
140 0.004982
149 0.006982
158 0.007013
170 0.004976
173 0.005027
123 0.004985
63 0.006982
37 0.007007
47 0.004987
59 0.005939
66 0.005993
69 0.007979
84 0.005986
93 0.007978
97 0.007009
102 0.004964
111 0.005037
122 0.004989
128 0.006982
139 0.00697
151 0.005957
158 0.006006
168 0.005998
142 0.005994
76 0.005976
39 0.007979
38 0.00693
62 0.00598
73 0.004963
76 0.004977
85 0.007016
96 0.006993
102 0.005983
103 0.005971
107 0.005976
122 0.005993
133 0.005954
142 0.005972
154 0.007979
159 0.007976
171 0.005033
171 0.005027
119 0.006943
54 0.006964
46 0.007935
60 0.005993
74 0.006024
89 0.005963
98 0.005983
106 0.006011
113 0.007979
113 0.00795
118 0.005981
128 0.006027
139 0.00695
151 0.006952
160 0.006981
169 0.006988
177 0.006945
183 0.006021
132 0.00603
70 0.006036
42 0.00702
47 0.007976
64 0.005975
73 0.006942
78 0.006947
90 0.006939
98 0.006936
103 0.006947
105 0.006943
118 0.006949
125 0.006009
136 0.006978
144 0.007959
154 0.007945
164 0.006979
172 0.006037
154 0.006977
88 0.006978
43 0.006981
41 0.006934
55 0.006949
67 0.006954
72 0.006025
83 0.006028
96 0.006987
101 0.006989
104 0.006972
109 0.006955
122 0.006947
131 0.006939
142 0.006982
155 0.006939
164 0.006955
176 0.006972
165 0.006949
102 0.005986
56 0.006983
49 0.006981
65 0.005949
79 0.005958
86 0.005983
96 0.006949
107 0.006927
115 0.00698
117 0.006948
123 0.006941
131 0.006981
142 0.006981
153 0.005984
162 0.005984
174 0.006012
183 0.005983
191 0.005952
157 0.006005
89 0.005976
47 0.00598
51 0.005993
72 0.007001
79 0.006975
87 0.005986
96 0.005972
104 0.006013
109 0.005986
111 0.005945
118 0.005988
127 0.005965
137 0.005986
151 0.005972
164 0.005973
172 0.006008
183 0.006023
174 0.00504
112 0.005983
57 0.005956
44 0.005984
56 0.005985
66 0.005984
71 0.005985
79 0.00599
91 0.00598
105 0.005938
107 0.00602
110 0.004941
111 0.010971
121 0.0
141 0.004937
151 0.00499
161 0.005983
170 0.006021
181 0.005969
181 0.004963
130 0.005977
49 0.005986
48 0.005022
68 0.004962
80 0.004989
87 0.004998
96 0.004986
106 0.004979
111 0.004977
111 0.004961
117 0.00598
128 0.006024
138 0.006012
154 0.005976
161 0.005024
172 0.004975
183 0.005028
187 0.005001
141 0.004964
75 0.004998
49 0.004958
60 0.004994
74 0.004987
83 0.003993
90 0.005004
108 0.004963
116 0.004975
117 0.004997
122 0.005018
131 0.004991
141 0.004943
149 0.005013
163 0.004981
172 0.004921
179 0.004978
190 0.003994
185 0.004987
80 0.003969
46 0.004018
50 0.005003
62 0.004983
70 0.004985
74 0.004984
81 0.004991
98 0.004996
104 0.004976
108 0.004988
111 0.004988
119 0.003981
138 0.003981
147 0.004028
160 0.003988
171 0.00402
181 0.003965
184 0.003997
140 0.005008
58 0.004999
40 0.00399
48 0.003996
62 0.003989
71 0.00399
84 0.004012
95 0.003983
106 0.003956
108 0.003987
111 0.003988
121 0.003981
134 0.003955
143 0.004039
157 0.002985
167 0.003979
176 0.003995
189 0.00403
162 0.004029
92 0.003992
55 0.00399
56 0.003977
73 0.004
85 0.003953
95 0.003969
105 0.003945
118 0.00295
121 0.002945
122 0.003981
126 0.003946
141 0.003959
153 0.003991
164 0.00397
176 0.003942
184 0.002992
195 0.002993
186 0.003945
123 0.002992
55 0.003025
49 0.002952
60 0.00295
78 0.002951
85 0.002947
98 0.003
107 0.002987
114 0.003983
117 0.003986
122 0.003988
131 0.004001
142 0.002946
155 0.002956
166 0.002963
175 0.003027
191 0.002993
187 0.003001
125 0.002992
64 0.003983
45 0.003953
55 0.002988
67 0.002946
71 0.002942
77 0.00295
92 0.002987
101 0.002955
106 0.002983
113 0.002989
123 0.002992
134 0.003013
145 0.00299
160 0.002999
168 0.00303
177 0.001927
187 0.002963
189 0.002957
109 0.002958
57 0.002957
44 0.002983
68 0.002986
78 0.003023
83 0.001992
93 0.002989
106 0.00305
111 0.002025
113 0.001954
117 0.002041
127 0.001995
141 0.001949
153 0.001994
164 0.003005
179 0.002993
190 0.001985
190 0.003021
136 0.003016
63 0.001988
52 0.001992
65 0.001953
80 0.001991
88 0.002002
101 0.001993
113 0.001959
121 0.001996
123 0.00202
129 0.002007
138 0.002976
148 0.001999
160 0.002007
170 0.00203
180 0.001999
190 0.001986
201 0.002017
183 0.001964
92 0.001966
55 0.002038
59 0.002022
72 0.002042
81 0.001032
86 0.001959
96 0.001966
111 0.001996
115 0.001991
117 0.001958
123 0.001967
133 0.001963
146 0.002009
155 0.001982
172 0.001991
183 0.000957
193 0.000991
188 0.001017
129 0.000964
56 0.002021
47 0.000999
58 0.00199
72 0.000964
82 0.001984
94 0.001996
105 0.000983
115 0.000985
118 0.000997
123 0.00103
133 0.000952
144 0.001016
158 0.001998
168 0.001042
178 0.000997
188 0.001967
200 0.001
162 0.002035
95 0.001024
58 0.001995
70 0.000951
86 0.000992
98 0.001018
109 0.000986
123 0.001032
129 0.000992
130 0.001987
133 0.001968
140 0.001989
154 0.000965
166 0.000997
180 0.000997
188 0.000998
197 0.000996
207 0.000996
173 0.001002
81 0.000988
56 0.001034
62 0.001011
75 0.0
87 0.001026
100 0.000997
113 0.0
124 0.0
124 0.0
128 0.0
134 0.0
144 0.000998
158 0.000998
168 0.000982
178 0.001032
186 0.000998
196 0.000997
178 0.0
87 0.0
50 0.0
58 0.0
73 0.0
82 0.0
88 0.0
101 0.001032
110 0.000997
117 0.000998
118 0.000997
121 0.0
134 0.0
149 0.0
163 0.0
172 0.0
182 0.0
192 0.0
194 0.0
117 0.0
61 0.0
48 0.000999
60 0.000997
77 0.000998
89 0.001001
104 0.0
114 0.0
121 0.0
122 0.0
126 0.0
137 0.0
153 0.0
162 0.002034
172 0.000992
184 0.0
191 0.001
195 0.001001
96 0.000985
59 0.000963
57 0.002031
70 0.000999
89 0.0
98 0.0
107 0.0
118 0.002011
123 0.003044
125 0.0
129 0.0
139 0.0
155 0.0
165 0.000993
175 0.002012
182 0.001026
192 0.001025
187 0.0
123 0.0
63 0.002033
45 0.002025
56 0.0
70 0.0
78 0.0
91 0.0
103 0.0
109 0.001982
111 0.002989
115 0.001001
123 0.0
134 0.0
146 0.001995
156 0.002018
170 0.0
180 0.0
188 0.0
161 0.017954
73 0.0
40 0.002006
48 0.00195
66 0.0
77 0.0
85 0.000985
96 0.002022
105 0.001056
110 0.000998
111 0.0
125 0.0
135 0.0
148 0.0
158 0.001965
168 0.001991
182 0.0
188 0.0
147 0.0
80 0.001995
49 0.001946
57 0.000995
72 0.000961
92 0.0
103 0.0
115 0.0
120 0.002036
119 0.001993
123 0.0
132 0.0
142 0.0
153 0.001995
163 0.001989
174 0.0
179 0.0
178 0.000999
117 0.00095
60 0.000999
41 0.002028
48 0.000992
65 0.0
73 0.0
79 0.0
90 0.001993
98 0.001981
102 0.001977
104 0.0
115 0.001994
128 0.0
137 0.0
146 0.000971
155 0.002996
164 0.001993
174 0.0
136 0.0
66 0.0
30 0.001994
28 0.001984
46 0.002003
57 0.001996
67 0.002019
77 0.001046
84 0.000967
90 0.00296
93 0.002961
99 0.002058
110 0.0
122 0.001002
133 0.001996
143 0.002029
156 0.002005
167 0.001994
144 0.002008
74 0.001959
31 0.002021
28 0.002989
42 0.002954
57 0.001983
63 0.001999
73 0.001975
85 0.002945
92 0.003947
96 0.002038
103 0.002992
117 0.001995
129 0.001995
142 0.001996
154 0.00302
163 0.003025
176 0.001996
182 0.001995
142 0.001998
75 0.002994
43 0.002965
53 0.001993
73 0.003993
84 0.001004
96 0.001993
110 0.002007
116 0.002963
116 0.002992
120 0.002
130 0.002015
143 0.002004
155 0.002983
167 0.002994
180 0.001996
195 0.004001
188 0.002001
128 0.001989
72 0.001998
59 0.002996
69 0.003019
87 0.001995
98 0.001992
110 0.002001
122 0.002991
131 0.00399
130 0.001995
134 0.00399
144 0.001995
155 0.000999
165 0.000966
175 0.003978
186 0.003025
199 0.001985
178 0.001984
112 0.001969
66 0.002999
59 0.003964
80 0.003981
92 0.003989
107 0.001973
120 0.001974
131 0.001976
136 0.003982
138 0.004009
138 0.001996
148 0.001954
159 0.002003
169 0.002996
178 0.003959
194 0.001995
182 0.00396
116 0.003974
56 0.001983
56 0.001993
72 0.001994
88 0.003994
97 0.004025
111 0.002967
123 0.001995
131 0.002946
132 0.004975
138 0.001985
147 0.003986
159 0.003995
170 0.002002
181 0.001991
193 0.00196
198 0.00401
156 0.003986
68 0.002962
47 0.003034
51 0.002964
63 0.004982
72 0.002933
79 0.004979
90 0.004974
102 0.004988
110 0.001989
113 0.001972
119 0.004961
129 0.00498
144 0.003016
155 0.002954
166 0.002999
176 0.004975
141 0.00299
71 0.004984
35 0.004984
37 0.001985
46 0.001995
52 0.002046
56 0.004984
65 0.004988
84 0.002971
94 0.002991
100 0.003007
106 0.004995
122 0.002996
134 0.004963
145 0.004991
161 0.003986
171 0.001993
178 0.002965
140 0.005988
72 0.005935
36 0.003023
42 0.002998
55 0.002991
66 0.004986
77 0.002994
93 0.004989
106 0.004999
112 0.002991
119 0.002961
129 0.003989
140 0.005934
150 0.00598
167 0.003982
177 0.002959
185 0.002966
193 0.00499
152 0.002999
87 0.004977
60 0.004962
70 0.003943
89 0.003991
102 0.004013
111 0.005993
123 0.005957
139 0.003978
143 0.004026
146 0.003977
152 0.006015
166 0.003001
176 0.006013
185 0.00601
197 0.00392
205 0.003995
214 0.003996
222 0.005961
204 0.005983
117 0.003977
87 0.003992
95 0.003989
125 0.003996
135 0.003992
146 0.00601
155 0.006017
163 0.006999
167 0.003991
168 0.003939
175 0.003964
183 0.005959
191 0.005956
203 0.004001
212 0.00405
224 0.003939
231 0.004008
237 0.004965
208 0.006927
139 0.006995
103 0.004012
115 0.004025
137 0.004029
151 0.006988
160 0.006021
172 0.003986
179 0.003991
181 0.003998
182 0.004006
186 0.00399
193 0.007015
202 0.007017
213 0.004961
220 0.00303
226 0.004987
233 0.00698
240 0.006981
236 0.00399
170 0.003989
111 0.003989
124 0.004987
145 0.004965
163 0.00701
174 0.007011
187 0.005005
193 0.004992
193 0.00499
192 0.006976
193 0.007009
201 0.005956
209 0.004968
220 0.005006
225 0.004966
187 0.004977
237 0.007019
244 0.007009
195 0.004997
132 0.004963
112 0.004986
127 0.006982
148 0.00698
169 0.004985
179 0.004986
192 0.00499
195 0.003989
194 0.004988
194 0.007979
198 0.007976
207 0.004987
215 0.004986
220 0.004987
225 0.006997
232 0.006986
241 0.00498
189 0.006007
143 0.006009
123 0.004982
123 0.004986
132 0.007971
144 0.007963
149 0.004958
153 0.005018
158 0.004956
159 0.007024
158 0.006936
159 0.005944
161 0.005025
168 0.005996
172 0.004995
175 0.004951
178 0.007953
181 0.007953
185 0.004957
183 0.004016
150 0.004972
121 0.007013
117 0.007961
128 0.005981
137 0.005988
146 0.005991
151 0.005028
154 0.005947
153 0.005983
152 0.007944
152 0.0
155 0.002024
158 0.004946
161 0.004993
165 0.006938
168 0.006961
171 0.005983
175 0.007033
156 0.004991
123 0.005986
110 0.005022
113 0.007966
124 0.007943
135 0.003989
140 0.005985
143 0.006944
146 0.006991
145 0.006974
143 0.006946
144 0.006973
148 0.005019
152 0.005974
155 0.00601
159 0.007979
162 0.007978
166 0.005021
169 0.005985
150 0.006011
113 0.007004
109 0.006985
125 0.006942
135 0.006986
145 0.00602
152 0.006015
160 0.005984
160 0.007013
157 0.007963
160 0.005979
163 0.00695
168 0.006978
178 0.007005
185 0.007021
192 0.006954
196 0.006965
202 0.005909
185 0.006018
131 0.006035
98 0.006951
108 0.006032
130 0.005984
144 0.006009
151 0.006969
161 0.006974
165 0.006977
162 0.006981
162 0.006984
167 0.005982
170 0.00601
175 0.006017
185 0.006014
192 0.006025
197 0.005944
201 0.005986
201 0.00597
163 0.006018
113 0.00597
99 0.007007
115 0.006979
131 0.005983
139 0.006967
146 0.005983
151 0.005974
152 0.005994
148 0.005995
147 0.005953
152 0.005988
157 0.005981
164 0.00598
174 0.006982
178 0.005976
183 0.005939
190 0.006984
152 0.005978
100 0.005944
85 0.005982
100 0.005981
116 0.005959
126 0.005977
133 0.00598
141 0.005971
146 0.006995
144 0.005971
143 0.005992
146 0.005016
150 0.005995
155 0.005943
163 0.005994
169 0.005983
172 0.006015
177 0.005985
155 0.005992
100 0.005992
75 0.006985
89 0.005012
105 0.004992
120 0.004984
124 0.004975
129 0.004989
135 0.004958
135 0.005976
133 0.005942
134 0.005994
140 0.005983
145 0.005985
153 0.006
158 0.005982
163 0.004987
166 0.004954
126 0.005001
79 0.004985
67 0.005025
75 0.004975
95 0.004953
105 0.005013
110 0.005987
121 0.005981
123 0.005986
124 0.004955
125 0.004982
129 0.00495
135 0.004989
142 0.004969
148 0.00498
152 0.004973
158 0.004987
161 0.004998
144 0.004985
67 0.004992
59 0.004973
70 0.004995
84 0.005
97 0.004987
102 0.004992
107 0.005034
109 0.00502
107 0.00499
106 0.004984
108 0.004991
113 0.00499
122 0.005003
127 0.003984
133 0.003995
137 0.004002
138 0.00399
127 0.004991
80 0.00495
47 0.004991
45 0.004994
64 0.004978
77 0.005013
88 0.003989
102 0.003981
105 0.003929
101 0.003957
99 0.003993
103 0.004009
106 0.00399
112 0.00399
118 0.011923
124 0.005008
129 0.00499
133 0.005028
133 0.004987
61 0.004022
40 0.003991
48 0.004002
52 0.003993
64 0.004004
77 0.004024
86 0.003989
84 0.003983
81 0.003986
77 0.003954
80 0.004992
83 0.003983
91 0.004006
98 0.003991
103 0.003998
109 0.003988
113 0.003992
113 0.003959
76 0.003979
24 0.003963
5 0.003963
11 0.00396
20 0.002957
29 0.003989
41 0.00401
51 0.003985
59 0.004007
64 0.003956
67 0.003993
79 0.00399
88 0.004012
96 0.002994
107 0.003989
116 0.002992
127 0.002993
134 0.002993
131 0.002992
85 0.002965
50 0.004022
46 0.003984
56 0.003991
73 0.003994
82 0.003985
85 0.003004
92 0.002965
99 0.002991
100 0.002958
102 0.002948
111 0.002991
120 0.002983
127 0.003025
134 0.003987
139 0.002976
148 0.002964
154 0.002966
140 0.002992
89 0.002961
57 0.002954
60 0.003021
74 0.002985
90 0.002987
98 0.002956
104 0.002992
107 0.001989
103 0.00398
103 0.002991
109 0.00403
115 0.002991
122 0.00293
130 0.002941
136 0.003041
142 0.002958
149 0.002993
121 0.002992
70 0.002999
47 0.00202
51 0.002989
66 0.002029
74 0.001965
79 0.001995
86 0.001992
92 0.001949
94 0.001958
95 0.002974
100 0.002941
106 0.002998
112 0.002986
119 0.003012
125 0.003007
131 0.00202
137 0.00201
132 0.001945
82 0.002009
43 0.001963
36 0.001993
49 0.002008
61 0.001978
66 0.002964
73 0.003
80 0.002964
84 0.00199
84 0.002
87 0.001989
93 0.001983
101 0.001992
107 0.001996
115 0.000999
125 0.002057
134 0.001993
128 0.002036
80 0.001958
43 0.002022
37 0.001987
50 0.00199
62 0.001962
68 0.001961
73 0.002023
82 0.001989
89 0.00196
88 0.002
90 0.001967
99 0.001996
108 0.001986
116 0.000982
122 0.001
129 0.000931
141 0.001991
143 0.001958
104 0.001982
60 0.001985
47 0.001984
64 0.001984
76 0.001967
84 0.001937
93 0.000994
100 0.001
101 0.000962
100 0.001996
102 0.000964
110 0.001002
117 0.001011
125 0.001996
132 0.000965
143 0.000996
148 0.001023
150 0.000965
103 0.000965
56 0.001022
43 0.000986
51 0.001957
64 0.001003
70 0.001966
74 0.001987
81 0.001974
88 0.001973
92 0.001975
94 0.000954
101 0.000979
108 0.000984
116 0.000971
123 0.001005
130 0.001029
138 0.000996
145 0.00097
138 0.001991
88 0.0
48 0.001995
46 0.000952
59 0.0
70 0.0
74 0.000939
83 0.000998
90 0.000963
93 0.000999
95 0.000997
99 0.000966
106 0.0
115 0.001037
127 0.0
135 0.0
143 0.0
153 0.0
153 0.0
108 0.0
62 0.0
52 0.0
68 0.000967
82 0.0
90 0.000997
99 0.0
111 0.0
113 0.0
111 0.0
116 0.0
124 0.0
133 0.0
140 0.0
148 0.0
156 0.0
162 0.0
169 0.000956
151 0.0
72 0.0
60 0.0
66 0.0
83 0.0
91 0.0
95 0.0
105 0.000998
107 0.0
109 0.0
112 0.000953
116 0.003018
128 0.0
139 0.000998
146 0.000995
154 0.0
160 0.0
167 0.002037
163 0.002024
94 0.0
59 0.001003
55 0.0
66 0.002022
78 0.000997
85 0.0
96 0.003021
106 0.0
110 0.0
110 0.0
114 0.002042
122 0.002029
134 0.0
142 0.0
151 0.0
158 0.001995
166 0.001991
175 0.0
152 0.002023
81 0.000986
61 0.0
67 0.0
82 0.003021
93 0.001998
102 0.0
111 0.0
118 0.0
120 0.002026
119 0.001996
126 0.0
137 0.002036
149 0.0
156 0.00096
162 0.000958
167 0.002026
176 0.002992
178 0.0
132 0.000991
84 0.0
68 0.001998
75 0.001998
93 0.0
105 0.001992
117 0.000976
122 0.000961
125 0.0
125 0.001995
127 0.001964
136 0.000999
147 0.0
155 0.0
162 0.003021
170 0.002992
180 0.0
190 0.002023
154 0.0
97 0.0
66 0.0
66 0.002035
78 0.001996
92 0.000965
98 0.001035
106 0.000996
113 0.002023
116 0.002993
119 0.0
122 0.003029
132 0.0
141 0.0
149 0.0
156 0.002035
164 0.001995
174 0.0
181 0.0
155 0.0
96 0.001995
61 0.003035
66 0.002001
80 0.001986
91 0.00099
101 0.0
110 0.0
115 0.002
117 0.002988
118 0.0
123 0.0
133 0.0
142 0.000999
151 0.001994
165 0.000962
172 0.002023
180 0.002992
168 0.0
109 0.0
69 0.0
63 0.003012
75 0.002995
96 0.0
106 0.0
118 0.0
125 0.001962
128 0.0
126 0.002031
130 0.002031
140 0.00097
148 0.0
158 0.0
166 0.002996
173 0.002995
183 0.0
187 0.0
143 0.0
84 0.00301
60 0.001983
71 0.003019
85 0.002993
97 0.001967
106 0.002987
114 0.0
119 0.002992
119 0.002967
121 0.001969
126 0.001987
135 0.002005
145 0.002997
158 0.001991
167 0.004018
176 0.003026
178 0.00299
130 0.0
75 0.002011
52 0.002994
55 0.002988
73 0.002982
82 0.002985
88 0.001966
97 0.002992
106 0.002005
107 0.002996
107 0.003989
115 0.002987
125 0.001989
133 0.002983
139 0.002995
149 0.002992
161 0.002992
169 0.002014
154 0.002
98 0.003999
44 0.00202
49 0.00399
65 0.003988
83 0.001993
91 0.002954
97 0.002005
101 0.003986
102 0.003966
101 0.001986
107 0.002994
117 0.001981
126 0.002966
144 0.002995
152 0.004025
163 0.004015
172 0.002021
139 0.001995
82 0.002011
53 0.003995
53 0.003994
70 0.002017
82 0.001962
92 0.002992
103 0.00402
110 0.001992
109 0.003989
110 0.003989
118 0.001989
127 0.002007
137 0.002051
147 0.004005
154 0.003989
165 0.001966
172 0.001971
144 0.001971
84 0.004992
43 0.001993
50 0.002001
62 0.004036
71 0.004034
80 0.003033
90 0.001998
96 0.002031
99 0.003959
99 0.003986
106 0.00201
116 0.001966
131 0.001967
141 0.001987
150 0.00299
157 0.004986
164 0.005019
118 0.002929
63 0.002994
39 0.002989
41 0.003988
54 0.003995
65 0.001978
70 0.00199
86 0.001985
91 0.002021
92 0.001995
94 0.004986
101 0.004993
115 0.002017
125 0.001974
135 0.001999
144 0.004025
154 0.004988
164 0.002021
152 0.002985
59 0.002947
38 0.002008
43 0.003005
55 0.005017
67 0.005018
78 0.002017
88 0.002006
96 0.002997
99 0.005967
100 0.005986
107 0.002956
119 0.002999
135 0.001997
143 0.001993
151 0.002989
159 0.005015
170 0.005049
144 0.003048
85 0.002022
53 0.002937
52 0.005985
63 0.006015
78 0.002991
87 0.002988
103 0.002995
108 0.002958
108 0.002995
110 0.004986
116 0.005951
128 0.003971
139 0.003028
147 0.002997
155 0.005958
162 0.005978
174 0.002988
164 0.003021
73 0.002964
45 0.002992
48 0.002982
60 0.005984
70 0.005014
80 0.002997
89 0.003026
98 0.003947
100 0.005979
100 0.005949
105 0.002992
114 0.002956
133 0.002994
143 0.002993
152 0.003021
161 0.005986
170 0.005964
166 0.003943
111 0.004
61 0.003979
45 0.00596
52 0.005984
69 0.004015
77 0.004005
86 0.005984
98 0.00302
103 0.002991
103 0.003995
108 0.007014
117 0.007008
132 0.004025
143 0.003993
154 0.004001
163 0.007009
172 0.005987
184 0.002992
169 0.005985
88 0.004011
56 0.003009
55 0.004027
68 0.006956
83 0.006985
92 0.004027
104 0.003963
112 0.003989
118 0.006979
117 0.006982
123 0.006013
133 0.006982
149 0.004989
159 0.005009
167 0.004009
175 0.006981
187 0.007017
192 0.003988
150 0.003993
88 0.004013
59 0.006981
63 0.007017
87 0.007009
99 0.00795
109 0.004959
119 0.004952
123 0.004995
125 0.007007
126 0.006991
135 0.004009
146 0.004983
156 0.004039
165 0.007011
175 0.007015
193 0.00794
202 0.007941
189 0.004991
125 0.004959
72 0.00499
56 0.00798
64 0.006985
81 0.005016
87 0.004054
93 0.003982
103 0.007008
112 0.007009
119 0.007949
122 0.007976
131 0.005022
142 0.004958
153 0.004977
162 0.007979
175 0.007969
183 0.004991
194 0.004984
196 0.004026
147 0.007019
84 0.00704
59 0.007943
68 0.007966
84 0.005003
94 0.00497
102 0.004992
114 0.007925
117 0.007981
119 0.005001
124 0.004004
131 0.005013
146 0.007976
157 0.007975
174 0.007951
181 0.007979
194 0.005983
203 0.005983
178 0.005982
112 0.00798
67 0.007979
64 0.004999
81 0.004971
97 0.004986
112 0.00698
123 0.007013
134 0.00602
137 0.007951
135 0.007952
141 0.005956
149 0.005978
160 0.005984
171 0.007977
183 0.007943
191 0.004991
202 0.005989
202 0.004984
123 0.006981
62 0.005986
62 0.006928
76 0.006986
88 0.00599
99 0.005948
111 0.006014
120 0.007947
123 0.007941
123 0.005008
126 0.004986
133 0.004995
150 0.006931
163 0.005989
175 0.006994
183 0.006974
194 0.005996
190 0.005956
129 0.006022
56 0.006977
45 0.007971
54 0.006023
68 0.006018
77 0.006011
87 0.006959
100 0.005968
108 0.006943
109 0.006981
112 0.005937
121 0.006032
132 0.005984
148 0.005947
159 0.006021
169 0.005982
183 0.005976
190 0.005989
99 0.006944
63 0.00697
41 0.007014
54 0.006974
69 0.005983
82 0.005982
92 0.005991
103 0.005984
109 0.005997
111 0.006002
112 0.005937
121 0.005982
142 0.006967
152 0.00698
163 0.006981
172 0.006983
180 0.005972
190 0.00595
167 0.005971
80 0.005959
49 0.005952
56 0.005984
70 0.005987
83 0.005985
102 0.00599
113 0.006978
118 0.00601
117 0.006976
119 0.006982
127 0.005986
138 0.005972
149 0.005985
157 0.005967
168 0.00596
175 0.005964
189 0.005976
153 0.006987
87 0.006953
48 0.006961
53 0.00698
67 0.006945
85 0.005985
98 0.005958
108 0.00595
112 0.006007
110 0.005986
108 0.005989
114 0.00598
131 0.005985
141 0.005949
152 0.005944
161 0.005978
172 0.004987
176 0.004987
122 0.004981
60 0.005025
35 0.004989
38 0.004977
56 0.005982
68 0.006001
88 0.00601
99 0.004989
101 0.004986
102 0.004974
105 0.004975
116 0.005017
127 0.004986
139 0.005016
150 0.004976
160 0.004986
170 0.004989
176 0.005011
93 0.005977
46 0.005964
34 0.005025
45 0.005001
59 0.005006
70 0.004989
79 0.004986
92 0.004991
98 0.004993
98 0.004993
100 0.004958
108 0.004991
128 0.00499
139 0.003989
150 0.004989
159 0.004954
168 0.004993
176 0.004987
131 0.00498
69 0.004956
40 0.004978
42 0.004974
61 0.004979
72 0.004987
88 0.004988
99 0.003983
104 0.003979
104 0.003981
105 0.003948
117 0.004954
129 0.005023
140 0.004989
150 0.004983
161 0.005008
174 0.004989
186 0.004974
149 0.00399
83 0.003989
47 0.003992
46 0.003986
60 0.003921
79 0.004958
90 0.003991
101 0.003999
110 0.004938
112 0.004956
112 0.004974
121 0.00498
134 0.00399
147 0.004037
157 0.004017
167 0.003986
178 0.003983
191 0.00396
199 0.003987
167 0.003953
99 0.003955
60 0.003962
60 0.003961
80 0.003989
98 0.003958
109 0.003986
119 0.003989
123 0.003988
121 0.00395
123 0.003959
132 0.003987
143 0.003991
155 0.002992
166 0.003988
180 0.003963
190 0.003008
201 0.004015
164 0.003975
96 0.003989
59 0.003985
58 0.003972
77 0.003953
90 0.003963
101 0.003958
112 0.003932
121 0.002954
123 0.002965
123 0.003
129 0.002997
143 0.002996
155 0.003013
165 0.003997
174 0.003957
184 0.003946
196 0.003955
199 0.002969
150 0.003952
81 0.002981
48 0.002943
57 0.002992
71 0.002954
82 0.002987
90 0.00299
100 0.002993
107 0.002977
108 0.003019
113 0.003989
120 0.003952
129 0.002931
141 0.002992
152 0.00299
168 0.002972
176 0.00301
188 0.003022
148 0.003018
79 0.003027
45 0.002969
46 0.003023
62 0.00402
73 0.002949
81 0.001995
93 0.002022
102 0.002967
106 0.003028
107 0.003021
115 0.002991
126 0.00299
137 0.002992
147 0.002996
155 0.002946
168 0.001993
179 0.001995
181 0.001989
133 0.001995
67 0.002022
39 0.001995
51 0.001995
70 0.002992
79 0.002992
88 0.001992
97 0.003009
102 0.001977
101 0.001975
105 0.001984
114 0.001982
125 0.001966
135 0.00203
153 0.001996
162 0.001994
175 0.001989
180 0.001963
140 0.002012
75 0.003003
43 0.001985
50 0.002004
66 0.001962
79 0.001958
88 0.001999
105 0.00199
108 0.001989
107 0.001958
109 0.001996
118 0.001991
130 0.001024
141 0.000971
151 0.001007
163 0.000956
170 0.001997
179 0.002049
180 0.00196
80 0.001987
41 0.001984
40 0.002013
54 0.002019
72 0.001956
79 0.000971
89 0.000997
97 0.001033
102 0.000992
103 0.000997
106 0.000946
116 0.002008
134 0.001985
146 0.002007
155 0.001964
162 0.000997
175 0.00199
179 0.000962
136 0.000962
70 0.001994
39 0.000994
46 0.001012
62 0.001009
72 0.001996
84 0.000996
93 0.001995
99 0.00096
99 0.000983
103 0.000997
111 0.000943
123 0.000989
135 0.000964
146 0.000969
157 0.000996
167 0.001993
175 0.001992
162 0.001008
94 0.001982
46 0.0
40 0.0
62 0.0
75 0.000936
82 0.001034
91 0.000997
100 0.00098
105 0.001001
104 0.000961
107 0.001001
123 0.001038
135 0.001
147 0.0
157 0.0
167 0.0
174 0.0
184 0.0
163 0.0
94 0.0
43 0.001013
47 0.001029
62 0.00099
80 0.000992
88 0.0
97 0.0
104 0.0
106 0.0
108 0.0
115 0.0
126 0.0
136 0.0
151 0.0
159 0.0
168 0.0
181 0.0
186 0.0
145 0.0
74 0.0
38 0.0
46 0.0
60 0.0
70 0.0
74 0.0
87 0.003008
94 0.0
98 0.000995
101 0.000963
108 0.000997
122 0.0
130 0.0
144 0.002018
154 0.001992
166 0.000997
175 0.0
184 0.001012
157 0.0
85 0.00302
37 0.0
47 0.000999
63 0.003021
77 0.0
85 0.00097
96 0.0
104 0.00202
107 0.002039
110 0.000997
116 0.00097
127 0.000965
139 0.003035
157 0.000996
166 0.002991
174 0.003012
185 0.0
194 0.0
175 0.0
103 0.002992
55 0.002995
56 0.000997
75 0.000967
90 0.000967
99 0.002022
114 0.000977
122 0.002994
122 0.002028
124 0.0
129 0.0
139 0.0
152 0.00303
163 0.003025
175 0.000971
182 0.000981
190 0.0
199 0.002023
165 0.0
93 0.002029
58 0.003028
66 0.0
83 0.0
96 0.0
105 0.003032
113 0.003005
126 0.0
129 0.0
127 0.0
130 0.003022
143 0.0
155 0.001996
165 0.002026
176 0.000967
185 0.000986
192 0.000997
201 0.002023
200 0.002985
114 0.0
63 0.0
56 0.0
69 0.003025
92 0.0
98 0.003992
106 0.002998
116 0.0
122 0.000954
125 0.0
126 0.002024
132 0.002024
148 0.000962
156 0.000957
165 0.0
174 0.00303
186 0.0
194 0.003024
194 0.002997
112 0.0
60 0.0
52 0.0
66 0.003027
82 0.002035
96 0.0
103 0.0
113 0.0
123 0.002024
124 0.0
126 0.00302
132 0.002016
146 0.0
155 0.0
161 0.000946
168 0.003992
176 0.003019
187 0.0
194 0.000968
155 0.000997
84 0.000977
53 0.000988
68 0.001
88 0.002031
99 0.002021
110 0.0
118 0.0
122 0.0
121 0.002997
121 0.003036
130 0.0
139 0.0
148 0.0
165 0.0
170 0.0
176 0.001995
185 0.001995
150 0.0
84 0.0
52 0.0
56 0.002994
73 0.00303
92 0.0
100 0.0
115 0.0
119 0.00299
119 0.0
119 0.003036
124 0.002993
135 0.0
143 0.002981
153 0.0
161 0.002992
167 0.002992
180 0.0
179 0.002957
76 0.0
42 0.003014
45 0.003006
62 0.004026
76 0.003991
84 0.0
92 0.002981
100 0.000963
106 0.002991
109 0.002992
111 0.002045
118 0.001991
135 0.002994
143 0.002991
154 0.002002
161 0.004035
167 0.003993
172 0.002998
120 0.003007
59 0.002997
41 0.004017
53 0.003985
73 0.002996
82 0.002023
93 0.000998
104 0.002019
108 0.001998
109 0.003948
111 0.004031
118 0.003014
128 0.001983
137 0.002994
146 0.003944
155 0.003989
165 0.002993
173 0.003009
132 0.003027
68 0.003004
44 0.003004
52 0.004027
70 0.00399
87 0.001993
92 0.002018
102 0.002992
109 0.00399
112 0.004024
110 0.003031
115 0.003004
130 0.002992
139 0.002995
148 0.002993
156 0.00399
163 0.003991
172 0.003019
172 0.002047
121 0.001995
65 0.00399
51 0.004016
64 0.00399
88 0.001967
101 0.004987
112 0.002976
121 0.002981
124 0.002992
122 0.004986
123 0.004017
132 0.002981
142 0.001994
152 0.002994
159 0.004029
166 0.004008
176 0.001989
179 0.004978
108 0.001993
63 0.001983
62 0.003061
78 0.005033
96 0.005031
109 0.002983
116 0.002986
125 0.002993
128 0.00498
127 0.004987
125 0.00203
136 0.005034
146 0.002025
155 0.001993
162 0.003005
168 0.005003
175 0.004989
158 0.003004
93 0.002982
54 0.002024
55 0.004985
71 0.006025
88 0.002995
93 0.005016
103 0.002016
111 0.002026
114 0.00203
113 0.004991
116 0.005014
126 0.002988
136 0.002996
145 0.003005
154 0.006012
162 0.006021
172 0.005998
127 0.006019
54 0.001994
44 0.001993
54 0.002993
66 0.00501
73 0.004983
76 0.001975
85 0.002009
95 0.002996
100 0.006048
102 0.005984
110 0.005975
119 0.005984
130 0.002996
137 0.002977
144 0.003018
153 0.005983
162 0.004986
117 0.002018
59 0.002986
40 0.002967
50 0.005985
62 0.006022
75 0.005994
79 0.006021
90 0.002997
98 0.003002
102 0.003006
106 0.006017
112 0.006017
127 0.003993
137 0.003992
144 0.002976
150 0.005963
159 0.006019
171 0.00602
161 0.005984
77 0.002991
46 0.003007
51 0.003001
67 0.006022
80 0.005984
88 0.004025
95 0.004022
103 0.002991
108 0.007012
110 0.006011
118 0.002992
128 0.005986
138 0.005984
150 0.003992
160 0.003949
170 0.002994
176 0.007021
181 0.007017
165 0.003988
97 0.003991
56 0.003989
55 0.00699
81 0.003019
92 0.007016
98 0.005984
110 0.003991
118 0.003961
119 0.003993
121 0.006978
126 0.006982
137 0.004022
148 0.004003
159 0.003991
167 0.006982
179 0.004947
187 0.006982
193 0.007007
153 0.003989
87 0.003989
60 0.004026
68 0.006982
87 0.006985
107 0.004005
115 0.004002
125 0.00403
133 0.006953
134 0.003993
134 0.007002
140 0.006982
153 0.004993
163 0.004975
173 0.004012
181 0.006983
189 0.007009
199 0.003999
205 0.004012
164 0.003994
97 0.006982
69 0.004956
85 0.00798
104 0.007949
113 0.004977
123 0.00496
133 0.004984
137 0.00798
138 0.008006
138 0.004992
144 0.003986
154 0.004029
172 0.003991
181 0.003991
190 0.007991
197 0.007969
208 0.004997
200 0.004984
133 0.004983
69 0.007974
65 0.007964
83 0.004994
98 0.004956
108 0.005013
122 0.004009
129 0.003984
134 0.007986
133 0.007943
136 0.005
144 0.004973
155 0.004986
164 0.007979
175 0.007954
184 0.004994
190 0.004977
199 0.004988
169 0.004968
98 0.004991
58 0.00698
67 0.006981
86 0.005989
99 0.004996
105 0.005014
114 0.007972
126 0.00799
127 0.004992
126 0.005957
130 0.004028
145 0.005946
154 0.005025
164 0.005954
176 0.00698
183 0.006953
192 0.004978
200 0.00504
175 0.004955
84 0.00797
57 0.00799
64 0.005006
82 0.005957
104 0.004989
111 0.005039
120 0.005957
125 0.006925
123 0.006946
125 0.005978
132 0.005991
142 0.005982
155 0.006984
165 0.005984
173 0.006944
181 0.005961
196 0.005954
193 0.005985
136 0.006
63 0.006985
55 0.006997
69 0.00597
87 0.005984
100 0.005958
112 0.00697
123 0.006955
126 0.005947
124 0.005956
131 0.005961
138 0.005974
151 0.005984
163 0.006963
172 0.006945
179 0.006006
185 0.006014
197 0.006014
169 0.006957
98 0.005913
55 0.005944
62 0.005982
84 0.005984
102 0.005982
109 0.006978
123 0.006948
128 0.006981
126 0.005985
126 0.005983
129 0.005991
142 0.005983
153 0.005938
165 0.006925
174 0.00695
188 0.005948
197 0.005965
188 0.006985
121 0.006986
64 0.005989
49 0.006973
58 0.00602
80 0.005945
91 0.006011
100 0.00594
110 0.006973
116 0.005979
117 0.00598
120 0.005983
129 0.006984
139 0.006967
148 0.006979
159 0.006946
168 0.006968
179 0.006033
188 0.005979
177 0.00598
86 0.005945
42 0.005984
54 0.005929
71 0.005951
83 0.00597
92 0.005964
101 0.004986
111 0.00499
111 0.004991
111 0.00495
118 0.004983
128 0.00498
142 0.005943
158 0.005983
167 0.005943
179 0.005944
188 0.005941
182 0.005984
117 0.004929
56 0.004963
42 0.005019
58 0.004982
75 0.004986
88 0.004989
97 0.004987
