151 0.006004
155 0.005985
158 0.00698
163 0.006969
172 0.006936
178 0.005998
149 0.007009
104 0.006981
78 0.007016
75 0.007017
84 0.006982
94 0.006982
98 0.007017
104 0.006981
105 0.007016
102 0.006981
97 0.007005
102 0.006981
110 0.005996
118 0.006014
125 0.005983
131 0.005984
135 0.005984
140 0.006021
143 0.005983
146 0.006025
151 0.005985
158 0.005985
164 0.005984
138 0.006981
79 0.005051
60 0.005987
60 0.005982
68 0.006019
75 0.005984
80 0.005984
85 0.005993
87 0.005956
86 0.005002
84 0.004995
86 0.004993
96 0.004987
104 0.005982
114 0.004975
120 0.006024
125 0.005984
130 0.005984
135 0.005028
140 0.005984
145 0.006028
152 0.004987
159 0.005019
149 0.004986
73 0.005085
48 0.004951
48 0.004987
55 0.004996
58 0.004986
60 0.004987
63 0.004987
69 0.005984
71 0.005962
71 0.005929
73 0.004986
84 0.004998
93 0.005028
102 0.004987
111 0.004986
117 0.004987
123 0.004986
128 0.004939
133 0.004987
140 0.00502
146 0.005029
153 0.005023
157 0.00498
96 0.004982
54 0.004981
40 0.003977
44 0.003949
50 0.005018
51 0.004987
52 0.004987
57 0.005016
62 0.005019
64 0.005019
66 0.004988
70 0.00502
83 0.005029
93 0.004988
102 0.004029
111 0.004
118 0.003991
123 0.003999
127 0.00399
133 0.004002
140 0.003986
145 0.003946
152 0.003991
155 0.004021
91 0.003987
50 0.003955
36 0.005007
44 0.004972
49 0.00399
51 0.003991
55 0.004014
60 0.003957
62 0.004079
64 0.00399
66 0.00399
71 0.00396
84 0.003948
93 0.00399
100 0.003991
108 0.004026
112 0.003958
118 0.003989
123 0.00399
129 0.003995
135 0.002993
145 0.00396
152 0.003987
148 0.002999
78 0.00399
49 0.002992
47 0.002992
56 0.002992
67 0.004031
72 0.004021
80 0.002993
82 0.003032
81 0.003995
80 0.003943
84 0.00396
92 0.003953
107 0.003984
116 0.002992
123 0.003025
129 0.002953
136 0.003008
141 0.002999
144 0.00302
149 0.002989
155 0.002998
164 0.003991
168 0.004004
144 0.00399
67 0.002026
51 0.002996
55 0.003036
64 0.002986
70 0.00299
75 0.003029
81 0.00296
83 0.002985
83 0.002024
84 0.002994
88 0.002025
96 0.002993
111 0.003049
121 0.002995
127 0.002994
133 0.00302
141 0.002997
145 0.002992
150 0.003021
156 0.001679
161 0.001972
168 0.001994
175 0.001995
142 0.001996
88 0.001995
54 0.002008
47 0.001989
54 0.001993
62 0.002021
63 0.002992
68 0.002993
72 0.002992
74 0.002992
74 0.001947
77 0.001946
88 0.001995
97 0.001995
106 0.001995
113 0.001991
120 0.001995
128 0.001995
134 0.001965
140 0.001995
146 0.001995
150 0.002007
158 0.001995
163 0.001994
173 0.001995
163 0.001997
112 0.001991
63 0.001995
41 0.001994
42 0.001995
53 0.001995
59 0.002001
62 0.000999
66 0.001001
68 0.000998
67 0.001596
68 0.001964
76 0.000964
87 0.000997
98 0.001018
107 0.00104
113 0.000997
119 0.000998
124 0.001016
127 0.001988
131 0.001006
136 0.000972
143 0.001995
153 0.001996
160 0.002045
149 0.000998
98 0.001012
52 0.00099
32 0.001027
40 0.001003
51 0.000997
58 0.001006
67 0.000998
73 0.001007
69 0.000998
66 0.000998
69 0.000998
77 0.000996
86 0.000993
95 0.000995
104 0.001995
114 0.001995
119 0.000998
124 0.000998
129 0.001003
133 0.000997
141 0.000997
150 0.000999
131 0.00101
79 0.000997
39 0.001013
27 0.000998
33 0.000998
47 0.000997
54 0.0
62 0.000997
67 0.0
65 0.0
62 0.0
65 0.0
77 0.0
88 0.0
97 0.0
107 0.000798
114 0.000998
121 0.000997
125 0.0
130 0.0
135 0.0
141 0.0
151 0.0
126 0.0
53 0.0
21 0.0
18 0.0
26 0.0
33 0.0
35 0.0
41 0.0
46 0.0
48 0.0
49 0.0
54 0.0
65 0.0
77 0.0
87 0.0
95 0.0
101 0.0
107 0.0
113 0.0
118 0.0
125 0.0
136 0.0
133 0.0
72 0.0
27 0.0
10 0.0
18 0.001015
27 0.000997
30 0.0
37 0.0
44 0.0
48 0.0
49 0.0
53 0.0
60 0.0
77 0.0
90 0.0
99 0.0
107 0.000999
113 0.00098
120 0.0
127 0.0
135 0.0
135 0.000998
99 0.000997
36 0.0
21 0.0
32 0.0
41 0.001052
47 0.0
55 0.001
60 0.001029
63 0.000968
63 0.001031
68 0.00105
76 0.002003
87 0.001034
98 0.000998
106 0.001036
118 0.001006
124 0.001057
133 0.001037
137 0.002001
123 0.001022
61 0.0
28 0.00105
24 0.000998
32 0.001994
43 0.002026
50 0.000964
62 0.000988
66 0.0
66 0.0
68 0.000998
74 0.001025
84 0.000976
98 0.0
105 0.000998
113 0.000998
121 0.001032
127 0.00102
133 0.002047
141 0.001021
89 0.000988
44 0.000998
27 0.001045
34 0.001961
47 0.002044
59 0.001039
69 0.000998
75 0.001052
74 0.001995
72 0.001995
75 0.001028
83 0.001057
101 0.001027
111 0.001031
116 0.001992
125 0.001971
130 0.002026
134 0.002027
140 0.002026
147 0.002025
131 0.002024
79 0.001995
38 0.00203
28 0.001046
43 0.002036
52 0.002027
60 0.00203
69 0.002033
70 0.003029
68 0.003025
71 0.002022
75 0.002028
84 0.002036
99 0.002013
110 0.002031
118 0.002029
128 0.001998
134 0.000984
140 0.000994
147 0.001026
153 0.003031
142 0.002961
70 0.002021
29 0.002018
22 0.00203
29 0.003028
37 0.002992
42 0.003034
52 0.00303
61 0.002046
63 0.001995
64 0.001992
69 0.00305
80 0.00305
92 0.00303
102 0.003024
111 0.003028
122 0.003023
128 0.003022
138 0.003026
144 0.003023
152 0.00201
159 0.001995
167 0.002037
176 0.00299
163 0.003029
80 0.002002
33 0.003025
22 0.003024
29 0.004026
34 0.00399
35 0.004021
44 0.00304
55 0.002982
60 0.003038
64 0.002014
69 0.003028
77 0.00304
91 0.003027
102 0.003024
111 0.003059
119 0.004021
125 0.004022
135 0.004027
142 0.00404
150 0.00304
155 0.003039
162 0.003097
172 0.005024
179 0.004029
185 0.004034
142 0.003022
97 0.003992
35 0.00403
29 0.004023
45 0.004022
48 0.004025
51 0.002978
59 0.004031
65 0.003027
67 0.004036
69 0.004031
78 0.003033
86 0.002992
97 0.004015
107 0.004987
116 0.005018
126 0.002966
131 0.004022
137 0.004034
145 0.003032
151 0.003021
156 0.003001
163 0.003995
170 0.004031
179 0.00403
179 0.004031
134 0.003973
59 0.004041
39 0.003021
52 0.004985
63 0.005018
75 0.003025
83 0.004037
86 0.004027
83 0.005025
81 0.005
86 0.003972
95 0.003975
108 0.004021
118 0.005024
133 0.004022
139 0.005022
145 0.00502
150 0.005033
154 0.005027
161 0.004024
170 0.005043
174 0.004796
148 0.005017
71 0.004029
39 0.004006
37 0.004986
59 0.004047
69 0.005022
79 0.005017
88 0.004019
88 0.003991
86 0.004988
88 0.006028
94 0.005984
107 0.00502
119 0.005012
129 0.005025
138 0.005008
149 0.004021
154 0.005023
160 0.005031
166 0.00494
172 0.004025
180 0.003991
185 0.005953
158 0.006008
71 0.005035
31 0.005017
26 0.00502
46 0.005021
53 0.005027
60 0.006022
67 0.006011
72 0.005029
73 0.00502
73 0.004016
78 0.004974
88 0.006037
102 0.005032
114 0.00495
120 0.005991
137 0.004962
143 0.005022
147 0.006017
152 0.006019
161 0.004981
169 0.005035
173 0.005026
141 0.006027
76 0.005986
25 0.005036
25 0.00602
38 0.006027
55 0.006023
63 0.00602
72 0.006016
75 0.00703
75 0.00603
75 0.006011
81 0.004983
88 0.006055
103 0.006994
113 0.005984
127 0.005028
135 0.006002
144 0.006022
148 0.006033
153 0.006029
159 0.007003
168 0.007005
175 0.006015
139 0.006024
80 0.00601
45 0.007014
41 0.006981
61 0.005025
74 0.006012
91 0.005979
96 0.007013
95 0.005982
92 0.007011
91 0.007015
99 0.00602
109 0.00602
121 0.006029
131 0.006987
140 0.007979
149 0.007019
153 0.007014
159 0.007017
165 0.006962
171 0.005987
140 0.007012
86 0.007019
49 0.006001
52 0.00602
65 0.00599
77 0.007979
92 0.007978
100 0.007015
100 0.007014
96 0.007021
99 0.007016
107 0.007015
120 0.007973
131 0.007972
140 0.007047
144 0.007012
151 0.007019
158 0.006982
163 0.007949
170 0.007979
153 0.005986
62 0.005985
36 0.006971
38 0.007015
49 0.00798
58 0.00797
62 0.006982
69 0.007019
73 0.00701
74 0.007979
75 0.007978
81 0.007026
89 0.007022
107 0.006977
117 0.007023
126 0.007
133 0.006984
137 0.007979
142 0.007972
153 0.007997
148 0.007976
121 0.006981
67 0.007943
35 0.007978
35 0.007029
44 0.007977
47 0.006981
56 0.006981
67 0.006977
73 0.006959
76 0.006986
84 0.006977
94 0.007005
105 0.007015
114 0.007979
123 0.007979
140 0.006977
147 0.006984
155 0.006988
163 0.007018
170 0.00698
177 0.007057
186 0.006981
198 0.007012
199 0.007029
166 0.006994
119 0.007026
95 0.007032
101 0.007021
106 0.006024
106 0.007028
112 0.006993
121 0.006983
127 0.006996
129 0.007024
134 0.006964
142 0.006985
151 0.00702
161 0.006982
168 0.007024
179 0.006979
183 0.006979
191 0.006977
196 0.005979
202 0.005986
209 0.005984
217 0.005986
229 0.005986
235 0.005989
218 0.007014
177 0.006979
149 0.007016
153 0.006995
162 0.006983
166 0.006976
170 0.006973
176 0.005988
177 0.006066
176 0.005983
178 0.005985
183 0.005908
190 0.005984
197 0.005984
203 0.006018
211 0.005984
214 0.00598
218 0.006012
221 0.005973
225 0.006984
228 0.005994
234 0.005996
232 0.005971
198 0.005983
160 0.005978
145 0.006016
149 0.006018
152 0.005978
149 0.005988
152 0.005988
158 0.004977
161 0.004993
159 0.005001
158 0.004995
161 0.005019
168 0.005019
173 0.005977
179 0.006024
183 0.006015
189 0.005983
192 0.004987
195 0.005975
201 0.005978
204 0.005984
208 0.005985
212 0.00598
215 0.004989
191 0.004988
149 0.005019
126 0.005022
125 0.004997
132 0.004997
130 0.00504
128 0.005029
135 0.00498
137 0.004988
137 0.005976
137 0.005995
140 0.004972
147 0.004979
153 0.005021
159 0.00502
163 0.005001
170 0.005032
172 0.004993
176 0.005056
181 0.00495
186 0.005025
192 0.003957
196 0.003958
201 0.004993
208 0.004971
214 0.00502
217 0.005074
174 0.004996
138 0.004988
128 0.003981
136 0.005021
145 0.004991
144 0.004978
145 0.003989
150 0.004024
153 0.003937
151 0.00399
152 0.00396
156 0.004033
166 0.003959
172 0.003953
177 0.003987
181 0.00399
185 0.003961
188 0.003958
191 0.003958
195 0.003998
197 0.003989
203 0.003957
207 0.003991
211 0.003989
218 0.003988
221 0.003952
206 0.003956
163 0.004989
135 0.004988
139 0.003992
152 0.003957
160 0.003813
165 0.003956
171 0.003959
167 0.004027
161 0.003991
158 0.003956
164 0.002985
171 0.00296
179 0.00399
188 0.003995
192 0.00296
194 0.003013
197 0.002995
199 0.008975
203 0.003958
206 0.003958
212 0.00399
226 0.003958
232 0.00396
216 0.003957
162 0.003937
121 0.002993
113 0.003964
124 0.002951
135 0.002992
141 0.002991
144 0.00299
142 0.00399
138 0.002992
134 0.003959
139 0.003972
145 0.002998
155 0.003989
163 0.002989
169 0.003956
173 0.003958
177 0.003942
178 0.002998
180 0.002996
188 0.003044
195 0.002992
147 0.003013
91 0.002987
67 0.002987
69 0.002993
81 0.002991
86 0.002959
87 0.002975
90 0.002986
92 0.002991
88 0.001988
87 0.002992
89 0.002993
101 0.002962
111 0.002992
119 0.002958
125 0.003036
129 0.002993
135 0.002991
139 0.002991
146 0.003027
152 0.002992
155 0.001993
98 0.002991
47 0.002042
28 0.001995
38 0.001948
45 0.001995
45 0.001996
48 0.001995
54 0.001973
53 0.002039
50 0.001999
51 0.00203
56 0.002031
68 0.002044
78 0.001995
91 0.003043
97 0.00199
100 0.001958
105 0.001996
109 0.001963
117 0.001995
125 0.002029
131 0.001995
100 0.002007
44 0.002009
3 0.001995
11 0.001958
25 0.001993
26 0.00103
32 0.001001
36 0.000998
36 0.000998
35 0.000998
36 0.000997
43 0.001002
52 0.001998
63 0.001995
71 0.001995
82 0.001993
87 0.002022
93 0.001958
100 0.000949
108 0.000997
117 0.000992
99 0.000999
28 0.000997
0 0.000994
0 0.001001
11 0.0
18 0.000997
24 0.001012
33 0.002023
36 0.001999
34 0.000995
36 0.00102
44 0.000998
55 0.000992
69 0.000988
78 0.000976
86 0.001032
91 0.000982
98 0.000996
108 0.000995
115 0.000996
125 0.0
131 0.000963
103 0.0
39 0.000988
0 0.0
0 0.001003
1 0.001014
1 0.0
0 0.000999
2 0.000998
16 0.000961
18 0.000994
20 0.000988
27 0.000989
37 0.000997
49 0.0
60 0.000998
71 0.000966
79 0.000953
87 0.0
95 0.000994
101 0.0
115 0.001
123 0.0
134 0.0
141 0.0
147 0.0
153 0.0
161 0.0
168 0.0
173 0.0
178 0.0
185 0.0
191 0.0
114 0.0
37 0.0
1 0.0
8 0.0
12 0.0
6 0.0
63 0.0
67 0.0
71 0.0
73 0.0
74 0.001002
76 0.0
85 0.0
89 0.0
95 0.001031
99 0.001
104 0.0
106 0.000954
110 0.001011
114 0.0
118 0.000996
122 0.001008
128 0.0
132 0.0
138 0.0
141 0.0
144 0.000996
149 0.000964
143 0.000998
98 0.0
72 0.0
67 0.000948
72 0.000999
79 0.00095
79 0.0
82 0.001005
86 0.0
85 0.0
85 0.0
88 0.000997
94 0.001029
101 0.0
108 0.0
113 0.001012
117 0.001
119 0.000961
124 0.0
128 0.000991
134 0.0
138 0.0
143 0.0
148 0.001996
152 0.001966
156 0.000998
143 0.000973
106 0.0
77 0.002018
70 0.001028
79 0.0
86 0.001044
86 0.001015
90 0.000974
93 0.000972
93 0.000998
93 0.00197
97 0.0
102 0.0
109 0.001031
115 0.002024
117 0.002014
123 0.000983
131 0.001994
138 0.001011
142 0.001004
148 0.001
155 0.001961
161 0.001053
168 0.0
173 0.000991
177 0.000952
183 0.001994
177 0.002011
106 0.001062
51 0.002018
46 0.001031
55 0.000998
59 0.001042
56 0.002004
56 0.002021
65 0.001039
67 0.000997
69 0.001996
72 0.002027
76 0.002036
85 0.000998
96 0.00203
106 0.001009
112 0.000997
117 0.001042
122 0.001981
127 0.002037
133 0.002008
141 0.002045
147 0.001998
152 0.001995
157 0.003044
162 0.002991
170 0.002988
175 0.003029
140 0.000993
81 0.001038
42 0.000997
37 0.001996
47 0.002031
58 0.001997
58 0.001001
59 0.000997
63 0.002992
67 0.003026
67 0.003025
70 0.003009
80 0.002052
90 0.002
100 0.000986
107 0.003036
112 0.003025
119 0.002048
122 0.002027
126 0.001996
132 0.00303
138 0.003024
148 0.003025
155 0.003028
165 0.00199
168 0.001983
138 0.001997
81 0.002981
43 0.003021
38 0.001993
50 0.001031
62 0.001996
69 0.004036
77 0.004029
79 0.004019
76 0.004011
76 0.001994
81 0.003001
91 0.002038
101 0.002991
111 0.003048
121 0.001998
126 0.002018
130 0.001992
134 0.003027
140 0.002961
145 0.003987
150 0.003989
160 0.002988
166 0.002991
158 0.002994
106 0.004033
52 0.00403
26 0.003039
34 0.00201
47 0.00199
53 0.004007
60 0.003023
64 0.004032
64 0.004023
64 0.002997
66 0.002986
72 0.003988
85 0.00395
96 0.004033
106 0.002994
114 0.002992
119 0.003991
124 0.004001
131 0.003045
136 0.004974
142 0.00502
148 0.00295
155 0.002954
161 0.002978
151 0.005126
93 0.00502
35 0.004988
11 0.003021
18 0.002981
27 0.003051
27 0.003003
31 0.002997
39 0.005026
44 0.005022
47 0.004112
52 0.003029
59 0.004056
67 0.005018
78 0.005026
89 0.004022
96 0.004023
102 0.00402
110 0.004032
115 0.004024
120 0.005029
127 0.005029
136 0.004038
143 0.004023
127 0.004048
72 0.004992
25 0.004973
11 0.003956
22 0.00399
30 0.003984
33 0.003999
41 0.004003
48 0.005037
50 0.006011
54 0.004024
60 0.004029
68 0.00399
78 0.00599
89 0.005984
98 0.003948
104 0.004028
109 0.003988
117 0.003979
123 0.004023
131 0.005035
135 0.005023
93 0.004026
39 0.004992
11 0.004956
14 0.005101
28 0.005987
38 0.005004
42 0.004994
51 0.005036
56 0.005012
54 0.003988
56 0.006016
64 0.005987
77 0.005037
88 0.005021
97 0.005111
105 0.006049
110 0.006023
115 0.005097
120 0.004032
127 0.005044
140 0.005021
127 0.003981
77 0.006025
32 0.007033
21 0.004984
33 0.00499
44 0.004998
50 0.006023
58 0.006022
67 0.005006
67 0.004992
69 0.005011
76 0.005021
86 0.005021
99 0.005951
109 0.005991
117 0.006019
123 0.005027
128 0.006033
132 0.00602
136 0.007022
142 0.007019
151 0.006013
155 0.005984
91 0.004989
38 0.005004
19 0.005028
26 0.006008
34 0.006032
36 0.004989
39 0.005994
49 0.006005
56 0.007017
60 0.007013
63 0.005987
73 0.007015
87 0.005992
99 0.006022
107 0.004999
114 0.007023
120 0.007002
128 0.004978
133 0.005977
139 0.005967
147 0.007016
154 0.007012
163 0.005987
174 0.007016
174 0.005987
126 0.006035
64 0.005985
33 0.007967
36 0.007981
44 0.006031
42 0.007017
39 0.006023
47 0.007982
60 0.007984
65 0.006008
67 0.006982
77 0.005979
87 0.006007
96 0.005951
106 0.007018
114 0.007017
122 0.006985
128 0.006982
134 0.00702
142 0.00797
148 0.007982
156 0.006983
166 0.007975
172 0.007032
176 0.006016
183 0.00599
189 0.007026
175 0.007015
95 0.007004
52 0.006982
45 0.006971
58 0.007982
63 0.007987
60 0.007017
66 0.007984
75 0.006996
78 0.00604
80 0.006022
87 0.007983
96 0.006986
110 0.007972
117 0.006983
124 0.007013
133 0.007986
139 0.007967
144 0.006974
153 0.007943
161 0.006992
168 0.007012
175 0.007015
184 0.007976
192 0.006985
200 0.007018
198 0.00697
155 0.006976
104 0.006981
84 0.007012
94 0.006983
109 0.008012
112 0.007979
120 0.006986
126 0.006975
125 0.006999
124 0.007978
128 0.007968
134 0.006985
143 0.007
157 0.00698
164 0.00697
171 0.006982
177 0.007017
183 0.007015
189 0.006994
195 0.007022
202 0.006975
209 0.006981
215 0.006986
223 0.006974
159 0.007017
205 0.005984
155 0.006976
117 0.006988
124 0.006983
136 0.007002
142 0.006978
146 0.006985
151 0.006993
151 0.006985
149 0.00698
150 0.00697
155 0.006989
165 0.006986
174 0.006993
185 0.006026
190 0.006013
194 0.006017
199 0.005982
202 0.00598
207 0.005985
212 0.006985
217 0.006993
225 0.006982
159 0.006987
236 0.006979
241 0.006966
231 0.006024
180 0.006018
134 0.006032
118 0.006021
125 0.005983
132 0.005983
133 0.005982
131 0.005954
135 0.00598
139 0.005986
140 0.005981
141 0.005987
149 0.00602
156 0.006023
165 0.006017
175 0.006979
180 0.005984
185 0.005988
190 0.006002
195 0.005988
200 0.005941
205 0.005984
211 0.005983
217 0.00597
225 0.006024
159 0.005984
234 0.006019
239 0.004992
244 0.005015
187 0.005971
167 0.005983
140 0.004984
124 0.005015
125 0.004985
130 0.004987
131 0.004983
130 0.006018
131 0.005978
132 0.005993
131 0.00598
131 0.005987
133 0.005981
136 0.005947
140 0.005995
144 0.004984
148 0.004993
150 0.004992
152 0.004981
155 0.004973
157 0.005097
159 0.005022
161 0.004983
165 0.00499
167 0.004983
169 0.005985
171 0.004992
174 0.004976
176 0.004987
164 0.004986
138 0.004984
115 0.005028
117 0.005019
122 0.005023
126 0.00403
129 0.004985
131 0.004987
130 0.004957
127 0.003993
125 0.003987
125 0.004987
129 0.005001
134 0.004955
140 0.00502
143 0.004979
145 0.005022
146 0.004988
148 0.005002
149 0.004958
152 0.003965
154 0.003989
156 0.003956
160 0.003989
162 0.00399
151 0.003985
124 0.003992
103 0.005037
97 0.005037
101 0.003938
108 0.00502
112 0.004983
114 0.00494
115 0.004084
104 0.004026
100 0.003992
98 0.004994
107 0.005023
114 0.005021
120 0.003943
127 0.004021
132 0.003957
136 0.003983
139 0.003954
143 0.003962
145 0.003988
148 0.003971
154 0.003955
157 0.003971
165 0.003997
167 0.003957
143 0.003993
94 0.002993
59 0.003997
49 0.002973
58 0.003955
65 0.003962
68 0.004021
69 0.003983
73 0.003944
72 0.003947
71 0.003992
75 0.004036
82 0.003992
89 0.003006
97 0.002992
107 0.002993
111 0.002989
115 0.00299
118 0.002955
120 0.002993
124 0.002992
129 0.003953
135 0.003999
140 0.003957
145 0.004003
150 0.003989
147 0.003993
110 0.003961
49 0.003964
31 0.002998
35 0.003962
45 0.002987
53 0.002991
56 0.00301
61 0.003029
61 0.003024
60 0.003028
60 0.003027
66 0.002979
74 0.00314
85 0.002992
92 0.002992
98 0.00299
102 0.00205
106 0.002001
110 0.001988
115 0.002026
121 0.002029
125 0.002038
132 0.001994
138 0.002018
134 0.002992
79 0.002992
43 0.002992
31 0.002958
37 0.002992
49 0.002987
61 0.001984
70 0.003002
71 0.00295
67 0.00295
65 0.002994
68 0.002992
74 0.003024
86 0.00299
95 0.001994
103 0.001964
108 0.001996
112 0.001962
116 0.001991
120 0.001995
125 0.001995
131 0.001995
138 0.001995
133 0.001963
94 0.001993
41 0.001991
28 0.001994
34 0.000988
45 0.001993
51 0.002004
56 0.000989
62 0.001031
60 0.000998
60 0.001999
63 0.001995
70 0.001997
79 0.002
91 0.001957
97 0.001985
102 0.002016
105 0.001998
109 0.000957
114 0.000985
118 0.001047
126 0.000999
133 0.000997
137 0.000997
119 0.001
71 0.000992
30 0.001987
17 0.002011
25 0.002006
31 0.001
31 0.001954
37 0.001995
45 0.001003
49 0.000998
52 0.001017
57 0.000998
65 0.001008
74 0.000997
83 0.000992
92 0.000978
98 0.000993
103 0.000998
107 0.002005
116 0.001994
121 0.000997
127 0.001994
135 0.0
141 0.000999
148 0.0
154 0.0
146 0.0
86 0.0
51 0.0
44 0.000968
51 0.0
57 0.0
56 0.0
61 0.000963
72 0.0
76 0.000998
79 0.001007
83 0.001003
89 0.000997
100 0.001005
108 0.001
115 0.000995
121 0.000991
129 0.0
133 0.0
139 0.0
146 0.0
152 0.0
157 0.0
163 0.0
168 0.001003
175 0.0
179 0.00102
167 0.0
123 0.0
77 0.0
79 0.0
87 0.0
92 0.001039
92 0.0
98 0.0
102 0.0
103 0.0
104 0.0
107 0.0
114 0.000965
122 0.0
134 0.0
139 0.0
142 0.0
146 0.00203
150 0.001042
156 0.0
160 0.0
165 0.0
170 0.000948
176 0.001008
182 0.0
166 0.000968
111 0.000998
84 0.0
89 0.0
98 0.0
102 0.000998
105 0.001
112 0.0
112 0.001001
112 0.000979
112 0.000996
115 0.000997
124 0.0
134 0.001024
143 0.0
147 0.0
150 0.0
153 0.001029
156 0.000995
161 0.0
166 0.0
169 0.0
174 0.000996
180 0.000997
184 0.001009
154 0.001964
107 0.000997
76 0.000998
78 0.0
86 0.00202
90 0.002027
88 0.0
93 0.0
99 0.0
101 0.001021
102 0.001031
108 0.000999
116 0.000999
127 0.000999
133 0.000999
139 0.000996
144 0.002026
148 0.001996
153 0.0
158 0.001029
163 0.001038
169 0.001997
175 0.001012
184 0.00204
189 0.002009
196 0.000997
201 0.000998
183 0.000996
137 0.003032
101 0.001041
95 0.000966
103 0.000957
108 0.002015
106 0.001994
106 0.001983
116 0.001995
121 0.002026
124 0.001008
128 0.000997
136 0.002044
144 0.001996
151 0.001044
159 0.000942
164 0.000997
168 0.000942
172 0.002021
177 0.002016
185 0.002028
189 0.00195
195 0.000965
201 0.001993
204 0.000969
207 0.001988
212 0.001007
217 0.000997
203 0.001
162 0.001032
130 0.002989
121 0.003029
134 0.001013
139 0.003021
138 0.002032
141 0.001008
144 0.000997
145 0.001991
144 0.002028
146 0.002994
152 0.001954
158 0.001979
165 0.001989
170 0.003004
177 0.002025
179 0.003036
181 0.003039
185 0.002027
188 0.00103
192 0.00103
196 0.004027
199 0.004025
204 0.00198
209 0.001962
212 0.001025
198 0.002997
137 0.002028
123 0.003056
127 0.002992
139 0.001994
145 0.001996
147 0.000988
150 0.004025
149 0.00402
145 0.001986
143 0.001986
146 0.001975
150 0.004026
160 0.001987
165 0.002992
169 0.003033
171 0.001991
172 0.002029
174 0.00203
176 0.004028
178 0.004028
182 0.002027
187 0.003035
190 0.002993
195 0.003988
156 0.003001
122 0.003989
107 0.003989
112 0.003027
119 0.002029
125 0.002983
127 0.004043
130 0.004029
128 0.001953
123 0.00299
121 0.00296
125 0.002984
131 0.002997
137 0.003989
142 0.004036
148 0.003023
150 0.003029
152 0.00304
154 0.003032
156 0.004992
161 0.003023
167 0.003008
172 0.00299
154 0.002992
115 0.002987
89 0.004944
82 0.004002
92 0.00299
97 0.002995
100 0.002988
103 0.004029
106 0.004988
104 0.003036
102 0.002992
103 0.002949
111 0.004024
118 0.002976
124 0.002962
131 0.004987
135 0.004987
140 0.003015
142 0.002999
147 0.003992
149 0.005045
154 0.004008
161 0.003013
165 0.00398
126 0.003984
85 0.003992
66 0.003991
67 0.004999
73 0.005022
78 0.004019
77 0.004024
79 0.00401
83 0.004984
86 0.005024
88 0.00303
89 0.002994
99 0.004041
107 0.003993
114 0.003973
120 0.004988
125 0.004986
131 0.00396
134 0.003799
138 0.003991
142 0.004988
147 0.005035
154 0.003028
158 0.002946
127 0.003995
82 0.004017
57 0.004021
54 0.005984
60 0.006024
66 0.003987
64 0.005017
65 0.003988
70 0.006018
74 0.006053
76 0.004031
79 0.004022
88 0.003962
97 0.003988
103 0.003987
110 0.004978
115 0.005984
121 0.004986
124 0.004984
129 0.004953
133 0.006016
138 0.006018
145 0.00497
151 0.003983
133 0.004974
87 0.003997
56 0.004024
49 0.006016
56 0.007015
65 0.00502
66 0.005016
69 0.004048
74 0.007022
76 0.006981
77 0.005067
80 0.004988
90 0.005019
98 0.005017
105 0.004984
111 0.006952
117 0.006981
122 0.004986
126 0.004989
130 0.004993
134 0.007031
138 0.007007
146 0.004988
153 0.006982
157 0.006981
120 0.006018
79 0.006016
61 0.005984
63 0.006982
74 0.007021
86 0.004978
90 0.005025
96 0.004987
97 0.006023
96 0.007035
95 0.006983
100 0.007065
111 0.005979
119 0.005981
126 0.005979
132 0.006975
135 0.007018
140 0.006037
143 0.006026
146 0.005031
151 0.007018
159 0.007982
164 0.007988
141 0.007979
89 0.00598
73 0.00598
76 0.005989
87 0.006981
97 0.006992
105 0.005977
110 0.005998
110 0.007014
108 0.007026
107 0.007975
114 0.008012
122 0.007011
134 0.007015
140 0.005984
144 0.006982
150 0.007978
153 0.007987
155 0.00595
158 0.006003
163 0.005987
168 0.007014
174 0.00798
146 0.007022
90 0.007973
72 0.007011
76 0.006981
85 0.007021
93 0.007976
95 0.007979
101 0.005969
103 0.006026
104 0.00601
103 0.007977
107 0.007982
116 0.007978
125 0.007979
135 0.006987
139 0.007011
144 0.007011
148 0.007979
151 0.007978
156 0.006011
161 0.007025
165 0.007016
173 0.007978
177 0.007976
151 0.007019
101 0.007012
71 0.006951
68 0.006985
77 0.006977
86 0.006981
87 0.007978
91 0.006984
96 0.006984
99 0.006992
101 0.00697
103 0.007019
112 0.007014
120 0.007012
128 0.007028
134 0.00699
140 0.00698
144 0.007144
148 0.007018
151 0.007015
156 0.007011
160 0.007011
164 0.006979
169 0.006982
176 0.006979
147 0.007015
98 0.00697
67 0.006981
71 0.00602
81 0.007024
88 0.006986
90 0.006967
95 0.006977
97 0.007013
98 0.006976
98 0.006981
103 0.00698
110 0.006949
118 0.007018
127 0.006975
132 0.00698
137 0.006981
140 0.006019
142 0.006023
147 0.005983
151 0.005991
154 0.005989
164 0.00698
165 0.007016
135 0.007018
90 0.006017
63 0.007013
69 0.006019
80 0.006013
88 0.006035
93 0.006014
99 0.005953
99 0.006045
96 0.00598
97 0.006011
102 0.006017
110 0.006023
118 0.006984
127 0.006029
132 0.005018
136 0.005021
138 0.00592
141 0.005987
145 0.005978
149 0.005985
155 0.006029
147 0.005951
106 0.00502
72 0.005021
61 0.005019
73 0.005675
84 0.005021
91 0.006005
99 0.006014
102 0.00602
98 0.004975
95 0.004992
97 0.005981
109 0.005019
118 0.005018
126 0.005021
132 0.004982
138 0.004956
141 0.005038
144 0.005029
148 0.004987
153 0.005002
160 0.005025
158 0.004977
122 0.004985
69 0.006024
69 0.005983
79 0.006016
87 0.00502
91 0.005033
98 0.005018
102 0.004997
104 0.004989
104 0.004998
107 0.004986
117 0.004958
125 0.004991
138 0.004992
143 0.005032
148 0.005039
152 0.00502
155 0.003991
160 0.003987
166 0.004023
172 0.00402
177 0.004032
171 0.004981
121 0.004955
93 0.004986
94 0.005022
103 0.004955
106 0.005021
107 0.00499
111 0.005086
118 0.005019
118 0.00499
119 0.004994
123 0.004039
129 0.003955
140 0.005032
146 0.004987
155 0.00499
158 0.004991
161 0.005024
164 0.004032
167 0.003991
174 0.00396
179 0.004024
180 0.003993
158 0.00399
121 0.003948
98 0.003956
102 0.003959
113 0.00399
115 0.003993
117 0.004956
121 0.003992
122 0.003992
122 0.003992
123 0.004019
129 0.003999
135 0.003992
142 0.003957
148 0.003968
152 0.003989
157 0.004012
159 0.003999
162 0.002992
165 0.003049
169 0.00399
176 0.003992
180 0.003028
178 0.004024
146 0.002992
111 0.004018
100 0.003996
110 0.004014
118 0.003957
121 0.003992
124 0.00399
126 0.003989
124 0.003027
122 0.002992
125 0.003993
131 0.002992
137 0.002984
142 0.003073
148 0.002992
152 0.003944
154 0.002995
156 0.003991
160 0.003999
165 0.003986
168 0.002993
163 0.002987
120 0.002992
96 0.003023
93 0.002992
101 0.002993
108 0.002967
113 0.002993
118 0.002993
118 0.00399
116 0.002992
116 0.003025
120 0.003054
126 0.001995
135 0.001995
141 0.002993
145 0.003058
148 0.003001
151 0.002994
155 0.003038
158 0.003026
164 0.002992
169 0.003026
165 0.003042
132 0.003027
80 0.003032
60 0.003029
69 0.002028
79 0.002003
79 0.001987
79 0.001997
91 0.002026
94 0.001995
96 0.002026
98 0.002031
105 0.00203
116 0.002992
128 0.002992
139 0.003008
144 0.002998
150 0.003026
155 0.002999
160 0.002988
169 0.002999
176 0.002999
186 0.002016
188 0.002026
146 0.002029
88 0.002025
59 0.002027
64 0.001983
74 0.001995
76 0.002035
74 0.001998
79 0.002009
93 0.001996
96 0.002025
102 0.000998
107 0.000997
117 0.001002
129 0.000997
138 0.001995
149 0.001995
155 0.002028
162 0.002006
168 0.001997
175 0.002038
186 0.000995
192 0.001039
200 0.000998
207 0.000998
213 0.001004
217 0.000997
222 0.001996
89 0.002032
235 0.000997
210 0.000998
149 0.002047
105 0.001003
104 0.001028
117 0.000997
121 0.000991
120 0.000997
124 0.00103
130 0.001049
131 0.001015
132 0.000997
136 0.001024
142 0.001
152 0.000984
166 0.000997
174 0.001995
178 0.000997
181 0.001997
187 0.001046
191 0.001002
196 0.001022
203 0.000997
209 0.000998
214 0.000997
220 0.000997
227 0.001003
235 0.000998
226 0.000968
176 0.000966
130 0.0
115 0.0
128 0.0
140 0.0
146 0.0
150 0.0
155 0.000998
153 0.000997
148 0.001014
151 0.000997
158 0.000997
166 0.000997
176 0.000997
184 0.000998
189 0.000998
193 0.0
197 0.0
200 0.0
205 0.0
211 0.0
215 0.0
224 0.0
227 0.0
233 0.0
235 0.0
181 0.0
123 0.0
95 0.000999
94 0.0
106 0.0
116 0.0
115 0.0
117 0.0
119 0.0
118 0.0
118 0.0
121 0.0
129 0.0
138 0.0
146 0.000997
151 0.000998
155 0.000997
161 0.0
164 0.0
170 0.0
173 0.001
178 0.0
185 0.000997
190 0.0
196 0.001996
202 0.000994
193 0.000996
137 0.0
82 0.0
60 0.001995
64 0.001996
83 0.0
91 0.000997
95 0.0
97 0.0
93 0.0
90 0.000997
89 0.001005
94 0.000997
107 0.000997
117 0.0
124 0.000998
132 0.002028
138 0.002028
144 0.002062
147 0.002025
153 0.0
159 0.0
164 0.0
170 0.001997
176 0.001042
139 0.0
78 0.0
43 0.0
38 0.000999
51 0.001027
75 0.000998
82 0.001996
89 0.0
87 0.0
83 0.0
80 0.001955
83 0.001
93 0.000992
107 0.0
117 0.0
126 0.001995
132 0.001995
140 0.000992
143 0.000974
151 0.0
156 0.0
161 0.000998
168 0.001003
172 0.001995
112 0.0
51 0.0
23 0.0
24 0.001969
46 0.001004
54 0.002028
59 0.002029
64 0.0
62 0.0
60 0.0
62 0.001031
67 0.001033
81 0.000969
92 0.000997
102 0.0
109 0.001996
118 0.001995
122 0.001995
126 0.001995
132 0.000998
138 0.0
145 0.000997
152 0.00203
134 0.003024
52 0.0
10 0.000998
2 0.000997
14 0.003027
36 0.002005
43 0.002992
49 0.002025
49 0.0
46 0.001998
44 0.001995
48 0.001988
57 0.001995
73 0.001995
84 0.002007
92 0.00205
100 0.002044
110 0.002027
115 0.002052
119 0.001995
127 0.000997
136 0.000997
145 0.000998
132 0.002997
73 0.002993
11 0.000961
2 0.000963
15 0.000996
33 0.00204
52 0.002006
61 0.002034
60 0.002957
54 0.001001
52 0.000998
56 0.001034
66 0.000998
79 0.002992
91 0.002991
104 0.001009
112 0.000998
117 0.000993
124 0.001997
128 0.00201
136 0.002986
144 0.00303
121 0.001995
59 0.001001
13 0.001999
3 0.003006
14 0.002994
35 0.001002
46 0.000986
54 0.000997
59 0.001995
55 0.001963
55 0.003987
61 0.003989
75 0.00202
88 0.001978
101 0.002005
111 0.002981
118 0.002992
125 0.001993
130 0.000975
135 0.001993
148 0.001961
143 0.001994
87 0.003989
28 0.004029
1 0.001966
11 0.002029
26 0.002005
35 0.004023
39 0.003983
50 0.00201
51 0.002995
50 0.001994
56 0.002984
65 0.003023
78 0.004023
90 0.004022
103 0.003
111 0.00198
116 0.002027
121 0.003989
127 0.004019
134 0.002994
104 0.003008
13 0.002027
0 0.002042
7 0.001995
23 0.003992
35 0.00399
46 0.00299
52 0.002967
55 0.002997
55 0.004986
55 0.00502
64 0.002995
77 0.002977
99 0.003033
109 0.002987
117 0.002995
124 0.003989
130 0.003989
133 0.002996
92 0.002996
33 0.003006
3 0.003025
8 0.00502
29 0.004019
40 0.002986
55 0.002999
62 0.002988
63 0.003015
63 0.003002
67 0.005018
78 0.004986
94 0.003988
108 0.004
120 0.004025
128 0.004989
134 0.004977
141 0.004011
150 0.005021
150 0.003014
102 0.003003
44 0.003039
18 0.005009
26 0.00502
48 0.002984
59 0.00301
69 0.003034
77 0.004987
78 0.004992
77 0.003989
82 0.005985
97 0.003993
110 0.003991
122 0.002994
133 0.005027
141 0.005024
148 0.004029
153 0.003035
157 0.003037
161 0.006048
169 0.005978
182 0.002993
192 0.005984
135 0.004023
73 0.003989
49 0.003991
58 0.005986
77 0.006015
96 0.004002
107 0.003985
113 0.003989
111 0.006016
105 0.005984
106 0.002986
119 0.005997
135 0.00499
149 0.004991
159 0.004986
165 0.005989
168 0.005989
173 0.003998
179 0.004021
186 0.003975
193 0.005988
174 0.006019
96 0.003988
59 0.006982
72 0.004
87 0.005009
98 0.005008
105 0.00602
114 0.005984
114 0.004983
111 0.004997
113 0.004989
121 0.005985
131 0.005985
149 0.004983
163 0.005984
170 0.006982
176 0.003994
181 0.004991
184 0.007015
190 0.006982
200 0.004027
203 0.004996
159 0.004988
90 0.005991
53 0.006979
57 0.003976
73 0.006021
79 0.005002
82 0.004986
89 0.005016
94 0.006978
95 0.006978
97 0.006981
107 0.004976
118 0.004973
130 0.004991
140 0.007018
153 0.00598
159 0.006976
163 0.007017
170 0.005985
177 0.005955
184 0.005982
191 0.007012
198 0.007014
203 0.005021
154 0.004996
82 0.004985
48 0.007012
59 0.004993
74 0.007976
74 0.007981
79 0.005981
88 0.00598
93 0.005994
94 0.007023
97 0.00703
108 0.005986
119 0.005982
133 0.005034
144 0.005004
157 0.005986
163 0.007019
169 0.007979
170 0.009039
183 0.005983
190 0.006022
199 0.00795
204 0.007948
215 0.006014
221 0.005984
194 0.005985
130 0.00702
78 0.006066
89 0.006982
105 0.007949
119 0.004988
125 0.005982
131 0.005988
132 0.008
131 0.007975
132 0.006015
140 0.005993
151 0.005991
164 0.007959
176 0.005985
183 0.007011
189 0.007015
193 0.006116
196 0.006983
200 0.006982
207 0.007979
214 0.007949
223 0.005967
228 0.005996
192 0.005983
121 0.007981
105 0.00698
122 0.007021
136 0.007004
148 0.006983
156 0.006951
157 0.006982
153 0.007972
147 0.007979
149 0.006986
157 0.006977
168 0.006994
181 0.007975
189 0.006017
196 0.007016
199 0.00698
203 0.006976
207 0.006976
211 0.00698
218 0.006987
224 0.007026
215 0.006983
160 0.00698
108 0.006984
94 0.007986
114 0.007
122 0.006981
126 0.007025
133 0.007015
133 0.006975
130 0.006981
128 0.006969
133 0.007002
140 0.007015
150 0.00695
164 0.00598
170 0.006974
177 0.005971
180 0.005977
183 0.007016
189 0.00699
195 0.006976
199 0.006959
204 0.006981
214 0.006977
220 0.00702
202 0.006982
117 0.00698
69 0.005987
76 0.005987
90 0.005981
96 0.006051
97 0.006003
102 0.006028
104 0.006024
102 0.005993
103 0.006022
106 0.007029
118 0.00702
128 0.006947
141 0.00598
147 0.006989
153 0.006972
157 0.006016
160 0.005986
167 0.00601
174 0.006009
178 0.00602
185 0.005983
191 0.006014
185 0.006016
128 0.006018
58 0.005985
58 0.004987
72 0.005019
83 0.005017
87 0.005021
94 0.006035
97 0.006051
95 0.006017
94 0.005995
96 0.006019
105 0.005984
116 0.006022
133 0.005987
141 0.004971
146 0.005981
151 0.005033
154 0.005018
163 0.004989
170 0.004988
177 0.005031
182 0.005019
154 0.004983
87 0.004989
68 0.005075
82 0.004985
95 0.004988
103 0.005037
111 0.004989
117 0.00499
112 0.005027
108 0.006017
110 0.005998
117 0.005979
127 0.006021
141 0.005035
151 0.005013
158 0.004984
164 0.005018
167 0.004987
172 0.005056
179 0.005023
185 0.005022
160 0.00502
106 0.004972
71 0.005022
65 0.003992
75 0.005035
90 0.005045
94 0.005029
102 0.003951
103 0.005021
101 0.005017
101 0.005021
106 0.004957
115 0.000959
129 0.00402
138 0.004013
145 0.005081
151 0.004989
158 0.003992
164 0.003959
170 0.003997
176 0.00402
184 0.00396
190 0.00399
174 0.005017
98 0.005027
61 0.004987
59 0.005002
73 0.005023
84 0.00502
85 0.003983
91 0.005018
96 0.003977
97 0.004025
97 0.004038
100 0.004014
109 0.003993
122 0.005022
131 0.003992
139 0.00402
145 0.004034
150 0.002994
156 0.002994
163 0.00399
170 0.003948
178 0.004034
185 0.003992
183 0.00399
138 0.00403
76 0.004004
65 0.004026
76 0.003987
90 0.003958
97 0.004002
106 0.004021
108 0.002987
105 0.003994
102 0.003966
105 0.002993
113 0.002992
124 0.00399
136 0.003951
144 0.003955
150 0.003991
154 0.003993
157 0.00399
162 0.004001
168 0.002991
179 0.002977
185 0.003024
162 0.002992
110 0.00299
73 0.002994
71 0.004039
85 0.002987
95 0.002992
101 0.002992
108 0.002993
109 0.003998
105 0.00397
104 0.003977
110 0.003029
119 0.003033
131 0.002992
139 0.003025
146 0.003024
152 0.003024
155 0.002994
158 0.002992
164 0.002993
174 0.002948
180 0.001976
159 0.001965
87 0.001997
58 0.001995
57 0.002994
69 0.002992
79 0.003018
85 0.003024
92 0.002992
96 0.002992
96 0.002023
97 0.003023
102 0.001996
112 0.002005
128 0.001995
138 0.001996
144 0.001995
151 0.001993
156 0.001997
163 0.001995
168 0.002981
173 0.002992
180 0.002993
192 0.002997
195 0.001993
161 0.001982
83 0.001996
59 0.001995
62 0.002028
76 0.001995
85 0.002002
87 0.002028
92 0.001996
97 0.001997
97 0.002028
98 0.001988
104 0.001983
114 0.001966
127 0.00196
135 0.001997
141 0.002028
147 0.001996
150 0.001995
156 0.001995
160 0.002028
165 0.002026
170 0.002031
180 0.000947
187 0.001006
183 0.00201
113 0.000996
65 0.000998
51 0.001996
59 0.000997
73 0.002042
84 0.002002
88 0.001978
92 0.001996
91 0.001996
85 0.002019
88 0.002025
95 0.001984
108 0.000997
118 0.000998
127 0.000998
133 0.000965
137 0.001015
142 0.000998
145 0.000997
149 0.000998
160 0.002005
169 0.001987
163 0.001014
115 0.001962
53 0.001042
43 0.000991
53 0.000998
68 0.000997
79 0.000998
87 0.000997
93 0.001994
89 0.001995
81 0.002001
85 0.001
94 0.001964
106 0.000954
116 0.00096
128 0.000999
134 0.00204
137 0.000997
140 0.000997
144 0.001001
152 0.001007
159 0.000997
121 0.001009
63 0.000993
31 0.001
28 0.001032
41 0.001009
57 0.000997
62 0.0
70 0.000997
72 0.0
70 0.0
68 0.015926
68 0.00096
87 0.0
99 0.0
110 0.0
118 0.0
125 0.000977
130 0.0
134 0.001014
139 0.000998
147 0.000998
155 0.0
146 0.0
87 0.0
13 0.0
13 0.0
26 0.0
37 0.0
40 0.0
46 0.0
52 0.0
53 0.0
54 0.0
56 0.000997
69 0.0
81 0.0
99 0.0
107 0.0
114 0.0
120 0.0
124 0.0
131 0.0
138 0.0
148 0.0
148 0.0
101 0.000983
40 0.000999
7 0.00203
18 0.001993
32 0.000986
41 0.0
48 0.001002
55 0.0
57 0.002035
55 0.002033
60 0.0
70 0.0
82 0.0
94 0.002036
104 0.001039
117 0.00096
124 0.002021
128 0.0
135 0.000989
144 0.001017
150 0.002045
125 0.002037
54 0.0
28 0.0
33 0.0
48 0.002029
62 0.001989
79 0.000976
87 0.000998
86 0.00099
83 0.0
81 0.000988
89 0.0
101 0.001029
115 0.001996
129 0.0
136 0.0
142 0.0
147 0.002032
156 0.0
162 0.001978
158 0.002019
91 0.0
45 0.0
35 0.0
47 0.002029
64 0.002044
74 0.0
84 0.0
87 0.017952
90 0.0
84 0.000998
90 0.002993
101 0.002028
117 0.0
128 0.0
137 0.0
144 0.001995
149 0.002035
154 0.000965
160 0.0
165 0.001995
168 0.000989
162 0.001029
38 0.002028
26 0.002028
41 0.0
52 0.001006
56 0.0
62 0.001999
67 0.0
73 0.001992
77 0.002001
94 0.0
106 0.0
117 0.001993
127 0.002001
135 0.0
141 0.000983
146 0.001973
151 0.002028
157 0.001995
169 0.001032
168 0.002004
121 0.001005
29 0.000965
22 0.000976
34 0.002002
44 0.002992
47 0.0
55 0.001991
62 0.001037
66 0.00405
66 0.002992
71 0.002
79 0.0
91 0.001998
110 0.0
119 0.000997
126 0.002994
132 0.002962
140 0.0
145 0.001989
153 0.000993
161 0.003033
170 0.002991
133 0.001998
69 0.001989
35 0.001992
44 0.001981
60 0.002041
68 0.003005
76 0.002957
84 0.004011
85 0.001995
83 0.001994
85 0.002003
93 0.002992
105 0.002992
122 0.001995
133 0.001003
145 0.001971
150 0.001995
153 0.001996
158 0.003034
165 0.002983
176 0.001993
179 0.00201
141 0.001993
82 0.004022
49 0.004025
55 0.001995
71 0.001993
89 0.002024
98 0.00204
102 0.002012
100 0.003034
97 0.002962
101 0.001966
110 0.001994
124 0.002001
137 0.004044
147 0.003989
157 0.001994
163 0.001991
170 0.001975
174 0.0
180 0.001996
187 0.003034
194 0.003027
178 0.002
113 0.00296
56 0.001941
40 0.003989
42 0.019915
57 0.0
77 0.003969
87 0.002995
90 0.003005
90 0.001973
91 0.003018
95 0.002991
108 0.002992
120 0.002956
133 0.002992
141 0.004988
148 0.003989
155 0.002027
163 0.003964
168 0.001032
171 0.004035
176 0.001957
183 0.001994
195 0.004989
146 0.002983
75 0.003012
35 0.002988
33 0.004989
49 0.004987
63 0.002994
70 0.004987
79 0.001998
81 0.002991
79 0.002034
81 0.004033
88 0.004989
103 0.002959
116 0.002047
128 0.001996
137 0.003979
141 0.0
148 0.001967
156 0.005006
162 0.002975
169 0.002957
176 0.002953
180 0.004989
144 0.004988
57 0.002989
28 0.002998
32 0.003024
51 0.002989
65 0.004987
75 0.004986
87 0.006001
87 0.005022
82 0.002949
84 0.002927
93 0.00297
106 0.004988
118 0.004986
134 0.002996
143 0.003011
149 0.002987
153 0.004987
157 0.004997
169 0.004942
176 0.005985
156 0.003985
97 0.003995
51 0.004014
40 0.005984
52 0.005984
65 0.0
79 0.0
109 0.003011
112 0.004999
104 0.004987
91 0.005986
98 0.006029
113 0.00396
126 0.002997
139 0.003948
148 0.005987
154 0.00602
161 0.003993
165 0.003005
169 0.003988
173 0.006018
139 0.006739
45 0.005986
29 0.005992
47 0.00399
67 0.00404
82 0.004023
95 0.006012
100 0.005982
90 0.003988
81 0.003998
83 0.00399
93 0.005985
106 0.005984
127 0.005984
138 0.006982
147 0.00399
149 0.006953
155 0.003987
161 0.006017
148 0.005984
61 0.004019
13 0.003993
4 0.004002
19 0.006017
37 0.006015
53 0.005986
62 0.006033
64 0.004959
61 0.004948
60 0.004986
67 0.007022
80 0.007012
98 0.004955
111 0.004952
122 0.004988
129 0.007017
139 0.004986
147 0.007973
152 0.007981
154 0.006982
110 0.000991
4 0.006937
11 0.007024
31 0.00498
39 0.004987
45 0.004988
54 0.00498
59 0.00399
62 0.004958
69 0.007038
79 0.007058
98 0.004933
112 0.005945
123 0.006018
133 0.006981
140 0.007019
150 0.005988
156 0.005989
163 0.005983
179 0.00595
189 0.004985
184 0.006983
127 0.007017
55 0.004989
46 0.005028
59 0.004951
74 0.006984
82 0.006982
93 0.004986
100 0.006004
101 0.005975
103 0.005946
105 0.023892
110 0.0
132 0.000998
150 0.005941
158 0.006937
166 0.006005
169 0.0
178 0.008008
183 0.004988
191 0.005991
200 0.005017
212 0.005953
175 0.005952
118 0.00797
86 0.007948
93 0.005997
108 0.00599
121 0.005955
131 0.007965
140 0.007986
139 0.006949
134 0.006978
134 0.005982
148 0.006014
160 0.005987
175 0.006983
180 0.007981
189 0.005997
193 0.005953
195 0.005993
199 0.007974
204 0.007978
211 0.005982
220 0.005991
198 0.006979
124 0.006956
96 0.006974
102 0.006985
117 0.006978
127 0.005985
136 0.005986
143 0.00602
142 0.007978
136 0.007942
133 0.006001
140 0.006971
151 0.006979
167 0.00698
175 0.006981
179 0.006974
182 0.005979
185 0.005977
187 0.006978
191 0.006978
199 0.006018
205 0.006029
184 0.007026
108 0.005981
76 0.005973
71 0.000963
76 0.0
101 0.00702
108 0.006981
115 0.006981
115 0.006942
109 0.006973
109 0.006958
115 0.007011
122 0.008976
133 0.000998
147 0.0
161 0.006014
166 0.005977
168 0.006973
172 0.00696
179 0.006973
185 0.006978
155 0.006976
115 0.006029
57 0.00698
51 0.006024
67 0.006002
76 0.005982
81 0.005994
88 0.006019
91 0.005984
90 0.006027
91 0.00599
98 0.005991
109 0.005993
120 0.005968
132 0.006028
140 0.00602
149 0.005981
155 0.005984
160 0.005984
166 0.005972
175 0.005983
181 0.005977
157 0.005991
75 0.006015
39 0.005971
36 0.005984
48 0.006019
58 0.005965
61 0.005997
72 0.004964
79 0.004971
81 0.004985
83 0.005978
90 0.005982
99 0.005994
115 0.005947
127 0.005967
136 0.005979
144 0.006018
151 0.006017
157 0.005024
164 0.004995
174 0.004984
182 0.004985
189 0.004958
197 0.004957
197 0.004988
121 0.004978
55 0.005952
30 0.004943
36 0.005018
50 0.006048
57 0.005035
62 0.005981
73 0.004968
74 0.0
81 0.004986
89 0.004986
103 0.004986
115 0.004986
127 0.005017
135 0.005027
143 0.003983
147 0.004986
155 0.005994
160 0.004997
169 0.005
176 0.005029
184 0.004984
192 0.004985
188 0.004971
106 0.004982
46 0.004991
26 0.004985
35 0.005022
52 0.005019
69 0.004983
77 0.004023
82 0.003983
81 0.004981
81 0.004967
84 0.003993
93 0.004013
111 0.003984
124 0.004025
135 0.004987
144 0.003933
144 0.02792
151 0.000998
158 0.001
179 0.004987
186 0.00399
193 0.003989
196 0.003989
129 0.003989
65 0.004027
38 0.004021
42 0.003924
61 0.003989
88 0.003986
101 0.003995
106 0.002997
99 0.003002
94 0.003985
96 0.004054
106 0.002991
123 0.002991
135 0.003954
146 0.003954
155 0.003956
164 0.003972
166 0.003978
170 0.003032
180 0.003988
174 0.00396
124 0.00399
65 0.004002
37 0.002982
44 0.003984
52 0.0
104 0.004027
114 0.002983
106 0.003982
97 0.002992
97 0.00399
107 0.002991
120 0.003024
134 0.002992
147 0.002973
158 0.003001
164 0.002992
171 0.003032
175 0.002992
147 0.002993
83 0.003995
39 0.002994
35 0.003942
54 0.002983
76 0.002995
98 0.002989
114 0.003012
114 0.002958
103 0.002992
95 0.003026
94 0.003026
100 0.028876
113 0.00295
141 0.001995
152 0.002002
163 0.002991
168 0.001962
173 0.001994
177 0.001995
144 0.002026
51 0.001995
14 0.001993
14 0.002973
50 0.002992
57 0.012962
70 0.001994
87 0.001994
86 0.001998
76 0.002977
75 0.001992
83 0.002994
97 0.002985
116 0.002026
128 0.002035
138 0.001977
148 0.001964
152 0.001992
156 0.001997
159 0.001994
96 0.001988
22 0.001962
0 0.00199
0 0.001985
9 0.002015
31 0.001996
43 0.001992
52 0.001995
48 0.001979
44 0.001991
46 0.001995
52 0.0
61 0.0
89 0.002018
102 0.001998
112 0.002001
118 0.002025
124 0.001995
130 0.000999
135 0.000997
146 0.000997
135 0.001
67 0.002006
0 0.001976
0 0.001959
0 0.002002
0 0.001983
13 0.001996
24 0.001992
34 0.001963
32 0.002054
29 0.000998
39 0.000993
50 0.002012
66 0.001003
82 0.001011
96 0.001997
105 0.00199
111 0.000995
115 0.002
120 0.001991
129 0.001987
137 0.001028
147 0.000997
151 0.000993
152 0.000961
0 0.000998
52 0.001028
63 0.001978
74 0.001995
80 0.000955
87 0.001981
89 0.000994
86 0.002024
84 0.002043
89 0.0
98 0.001996
107 0.002009
114 0.001993
119 0.0
122 0.002036
125 0.00103
126 0.000997
128 0.0
132 0.0
136 0.0
142 0.0
146 0.0
105 0.001055
71 0.000972
57 0.000999
62 0.001
74 0.000946
87 0.0
95 0.0
98 0.0
96 0.0
88 0.0
96 0.0
108 0.0
114 0.0
119 0.0
123 0.0
125 0.0
127 0.001008
130 0.0
133 0.0
138 0.0
137 0.0
99 0.0
61 0.0
59 0.0
70 0.0
81 0.0
90 0.0
98 0.0
97 0.001028
92 0.0
90 0.0
93 0.000996
100 0.000997
112 0.003034
123 0.00098
127 0.000991
130 0.002005
132 0.0
134 0.0
137 0.0
148 0.000967
137 0.002039
65 0.000993
26 0.000991
21 0.0
33 0.002034
52 0.0
59 0.002992
66 0.002033
69 0.001002
66 0.0
67 0.0
74 0.002973
84 0.00298
99 0.001013
109 0.0
116 0.0
121 0.002031
124 0.0
137 0.002045
145 0.0
153 0.0
154 0.0
109 0.001997
50 0.001993
18 0.001963
23 0.0
35 0.0
41 0.0
50 0.000952
58 0.0
62 0.00204
64 0.002993
71 0.0
80 0.0
91 0.0
102 0.003022
113 0.002983
123 0.000959
128 0.0
134 0.000999
144 0.0
152 0.000998
159 0.002024
166 0.002021
176 0.001006
184 0.001007
186 0.0
148 0.002036
91 0.002027
56 0.0
62 0.0
78 0.0
80 0.0
85 0.0
93 0.00203
97 0.001973
101 0.001013
105 0.0
112 0.000973
122 0.003
129 0.015921
138 0.001953
160 0.000997
166 0.001009
172 0.0
178 0.002024
184 0.002025
193 0.0
199 0.0
207 0.001022
214 0.003019
208 0.002026
148 0.0
114 0.0
114 0.001028
126 0.0
134 0.001996
138 0.002993
144 0.001994
145 0.000967
143 0.0
144 0.0
149 0.003043
157 0.003039
169 0.0
177 0.002038
184 0.0
187 0.0
191 0.00097
193 0.003025
197 0.002984
202 0.002006
206 0.002992
211 0.000988
219 0.00101
221 0.002992
174 0.00199
136 0.001995
127 0.003005
139 0.0
148 0.002022
153 0.003965
158 0.002996
159 0.001998
157 0.002012
155 0.00299
157 0.003037
165 0.002941
176 0.0
183 0.002038
190 0.00296
194 0.00304
197 0.001037
200 0.002028
202 0.003962
206 0.002976
213 0.003948
218 0.001999
224 0.002948
226 0.002969
197 0.002978
140 0.001989
123 0.002961
133 0.002982
141 0.003005
141 0.001993
143 0.004038
147 0.004032
149 0.002029
148 0.001989
150 0.001998
156 0.004025
163 0.003034
173 0.001999
181 0.003016
187 0.002027
190 0.002031
193 0.002994
197 0.003988
198 0.019945
201 0.001973
203 0.0
214 0.00205
219 0.003005
223 0.002998
211 0.002991
150 0.003959
115 0.00298
115 0.002995
124 0.002007
129 0.00399
128 0.004008
129 0.002035
131 0.002001
131 0.002991
130 0.003991
130 0.019961
131 0.002035
147 0.000998
156 0.001961
160 0.002043
164 0.002039
167 0.004021
170 0.005003
174 0.002004
177 0.002019
181 0.002029
184 0.003991
189 0.003975
195 0.004986
198 0.0
200 0.0
133 0.001996
94 0.002052
83 0.004959
89 0.004953
102 0.002028
105 0.002998
107 0.002034
110 0.003985
108 0.005031
103 0.005039
104 0.005028
113 0.001997
121 0.002003
128 0.001999
134 0.00498
139 0.005019
143 0.001985
145 0.005021
146 0.000996
147 0.0
154 0.004987
162 0.004988
167 0.005014
173 0.003002
176 0.002997
157 0.002034
107 0.005981
71 0.005996
62 0.003008
74 0.002964
87 0.002986
97 0.003026
104 0.005019
105 0.002
90 0.0
111 0.002958
120 0.006022
127 0.005986
133 0.003955
137 0.003035
138 0.003954
141 0.006018
146 0.003008
152 0.006
156 0.006007
116 0.002963
71 0.003029
52 0.0
61 0.005952
77 0.002936
86 0.002957
92 0.003941
91 0.006024
83 0.003985
82 0.005986
88 0.006024
98 0.0
120 0.00403
126 0.006019
130 0.005988
135 0.003026
137 0.003021
140 0.00398
145 0.006983
151 0.003986
119 0.005981
67 0.005931
29 0.00399
33 0.00398
45 0.003988
56 0.005985
62 0.005986
70 0.003993
71 0.003958
69 0.003034
69 0.007026
77 0.004012
87 0.006981
97 0.000947
100 0.0
115 0.003991
120 0.003991
124 0.00596
127 0.005985
132 0.003994
137 0.004979
143 0.004989
131 0.006956
49 0.004993
23 0.007022
25 0.007017
43 0.005986
52 0.003995
56 0.003991
65 0.007934
67 0.007016
66 0.003995
67 0.003997
72 0.004979
88 0.003991
97 0.00498
105 0.007017
112 0.007079
119 0.004986
122 0.005029
126 0.004985
131 0.007068
136 0.007015
145 0.004954
147 0.004989
110 0.005006
74 0.0
27 0.0
46 0.007978
55 0.007973
65 0.007978
73 0.00497
77 0.004998
77 0.004007
75 0.007021
79 0.007977
86 0.004949
97 0.00404
112 0.004989
119 0.003921
123 0.004954
128 0.007017
130 0.007025
134 0.003964
138 0.003985
143 0.004976
149 0.007012
156 0.007977
150 0.00404
100 0.005989
37 0.005982
40 0.005948
56 0.005945
73 0.007973
81 0.007981
88 0.005964
88 0.005951
83 0.005951
81 0.007016
83 0.007019
95 0.005985
106 0.005938
121 0.004989
127 0.005956
132 0.005942
136 0.007032
137 0.007358
143 0.005999
149 0.005947
155 0.005949
148 0.007979
102 0.007972
58 0.005978
44 0.005949
63 0.005944
77 0.005972
86 0.00595
96 0.007975
94 0.007977
88 0.00595
85 0.005986
89 0.006019
101 0.006975
112 0.007009
125 0.006981
129 0.00598
136 0.005991
137 0.006026
139 0.005989
144 0.007961
151 0.00797
151 0.023903
154 0.001024
79 0.000939
37 0.00698
45 0.006986
62 0.006974
71 0.00696
83 0.006128
88 0.006981
86 0.006028
81 0.006977
83 0.007961
92 0.005953
102 0.006976
113 0.006977
124 0.006981
129 0.006977
132 0.006981
135 0.006978
143 0.006956
145 0.006979
109 0.006979
58 0.007013
31 0.007014
32 0.006987
50 0.006019
58 0.006015
62 0.006016
72 0.005994
78 0.00598
79 0.006971
80 0.007017
85 0.008982
90 0.000935
93 0.0
122 0.006977
129 0.006025
135 0.005983
137 0.00698
142 0.005983
148 0.005987
153 0.005986
109 0.00602
58 0.006017
34 0.006973
43 0.006976
52 0.006976
60 0.006978
63 0.005978
75 0.006977
83 0.005978
86 0.005977
88 0.005982
94 0.006017
111 0.00609
122 0.005918
133 0.005947
136 0.0
150 0.002993
157 0.006022
164 0.006976
170 0.005984
176 0.005984
183 0.005984
188 0.009922
195 0.002992
139 0.006023
67 0.005984
55 0.006002
64 0.005982
75 0.005984
76 0.005979
79 0.005953
88 0.005987
94 0.006023
98 0.005982
101 0.004945
111 0.00502
120 0.005026
134 0.00499
143 0.006009
148 0.005981
152 0.005991
157 0.005979
164 0.005985
169 0.005983
175 0.004947
181 0.004967
187 0.005024
198 0.005025
204 0.005029
188 0.005039
135 0.004944
104 0.001032
98 0.004987
114 0.004984
117 0.0
121 0.004988
128 0.004996
131 0.005952
133 0.005025
137 0.004993
149 0.00503
159 0.004984
168 0.005054
175 0.004986
181 0.005019
186 0.004991
190 0.004945
196 0.005017
202 0.003989
208 0.005053
216 0.004956
193 0.004989
153 0.004942
128 0.00396
135 0.004026
148 0.004011
157 0.003988
164 0.003964
172 0.004954
170 0.004935
169 0.010971
166 0.0
172 0.001995
182 0.004024
191 0.003985
199 0.003938
205 0.003962
208 0.003986
209 0.0
222 0.00399
220 0.003959
190 0.004949
160 0.003956
150 0.000961
159 0.0
174 0.003973
184 0.003951
190 0.003995
189 0.002952
184 0.00396
182 0.003956
186 0.003987
193 0.003989
201 0.003026
211 0.00403
215 0.004021
218 0.002992
219 0.004033
223 0.00501
226 0.003939
162 0.00399
217 0.003958
182 0.004001
155 0.003959
158 0.003962
168 0.004001
182 0.003992
188 0.003995
190 0.004058
185 0.003994
179 0.003995
178 0.003987
182 0.002989
188 0.002992
195 0.003992
201 0.002994
203 0.002993
205 0.004005
207 0.003984
210 0.004023
209 0.003023
187 0.002029
142 0.003985
128 0.003955
132 0.002985
142 0.002995
147 0.002993
153 0.002005
156 0.00301
152 0.002994
143 0.002953
143 0.002992
147 0.002993
154 0.00205
161 0.002017
165 0.00199
168 0.002956
170 0.002007
171 0.012966
173 0.0
175 0.000966
143 0.002992
92 0.002992
90 0.002992
96 0.00299
104 0.002989
107 0.00295
111 0.002992
113 0.002033
110 0.001996
106 0.001966
106 0.001955
112 0.001989
119 0.001964
129 0.001966
133 0.002005
137 0.002033
139 0.001994
141 0.001994
146 0.003013
148 0.001989
126 0.001991
85 0.001971
58 0.002002
56 0.002008
64 0.001987
69 0.001995
71 0.002034
75 0.00203
76 0.002983
76 0.002042
77 0.00197
81 0.000996
89 0.001985
97 0.001997
104 0.001965
110 0.001948
115 0.002003
121 0.002024
124 0.001993
129 0.001999
134 0.001995
139 0.002008
123 0.001977
78 0.001995
46 0.000993
40 0.000992
47 0.001013
57 0.002039
57 0.014958
58 0.0
69 0.001987
68 0.001999
68 0.001984
72 0.002006
80 0.001994
89 0.000997
97 0.001002
104 0.000998
109 0.000999
115 0.001001
118 0.001008
120 0.030917
122 0.000997
136 0.001978
142 0.001993
147 0.002002
153 0.00201
158 0.001994
161 0.000982
165 0.000989
168 0.002009
130 0.000964
65 0.000998
46 0.0
55 0.002043
64 0.002045
66 0.001993
66 0.0
69 0.015958
72 0.000973
73 0.0
75 0.001023
79 0.000968
91 0.000984
102 0.000989
108 0.000997
115 0.002029
120 0.001
123 0.000997
126 0.000997
130 0.0
137 0.0
142 0.002006
148 0.0
150 0.015957
154 0.000978
165 0.0
169 0.0
144 0.0
93 0.0
61 0.000997
57 0.001004
67 0.0
83 0.001001
88 0.0
94 0.0
96 0.0
93 0.0
91 0.0
95 0.0
106 0.0
115 0.0
122 0.001007
129 0.0
134 0.0
137 0.015906
140 0.001049
147 0.0
150 0.0
157 0.0
162 0.0
169 0.001997
171 0.01597
172 0.000997
163 0.001042
68 0.000971
63 0.000995
77 0.001001
90 0.001016
102 0.0
109 0.0
103 0.0
97 0.0
96 0.002025
101 0.002027
113 0.0
121 0.0
130 0.0
136 0.001992
140 0.001952
144 0.0
145 0.0
146 0.001017
152 0.0
156 0.000956
162 0.002037
166 0.002036
134 0.000966
89 0.001003
63 0.0
62 0.002992
74 0.00296
93 0.0
105 0.0
114 0.0
106 0.0
97 0.0
95 0.003027
99 0.003025
110 0.0
120 0.0
129 0.001018
136 0.002958
140 0.002002
143 0.0
144 0.0
145 0.000953
146 0.000996
151 0.0
67 0.000963
48 0.002989
55 0.000968
69 0.000961
81 0.0
92 0.00302
99 0.003028
93 0.0
83 0.002008
83 0.0
91 0.0
100 0.0
111 0.001991
118 0.002027
126 0.0
129 0.001011
131 0.0
134 0.002995
138 0.002982
132 0.0
123 0.033909
91 0.0
46 0.0
49 0.0
58 0.002027
69 0.00099
71 0.0
67 0.001014
62 0.002972
61 0.002987
71 0.001001
86 0.002026
100 0.0
106 0.0
111 0.0
114 0.002992
116 0.003026
122 0.0
123 0.0
94 0.000961
42 0.00399
9 0.003041
8 0.0
25 0.003025
34 0.0
40 0.0
48 0.001002
50 0.00203
50 0.002031
53 0.00098
60 0.000996
71 0.0
81 0.003991
91 0.003012
101 0.0
107 0.002969
112 0.0
115 0.001994
121 0.0
128 0.002031
130 0.001993
77 0.0
26 0.002986
7 0.002992
9 0.002991
23 0.002994
32 0.0
39 0.003027
50 0.001993
53 0.001963
55 0.001979
59 0.00304
66 0.002992
81 0.001002
91 0.002993
101 0.000955
108 0.003998
114 0.003956
120 0.003018
126 0.003027
132 0.003024
140 0.002002
146 0.002985
153 0.003002
159 0.003038
166 0.002991
139 0.002999
76 0.002989
31 0.002026
22 0.003003
33 0.002967
49 0.003953
49 0.003989
58 0.001995
64 0.003009
67 0.001983
70 0.003043
75 0.002993
86 0.002
97 0.001999
108 0.002008
116 0.004039
122 0.00399
131 0.003989
135 0.003989
142 0.002993
148 0.002027
154 0.002032
161 0.004029
167 0.003954
176 0.002024
182 0.001002
179 0.002993
132 0.004968
71 0.005009
40 0.004019
53 0.004023
69 0.002995
72 0.002998
77 0.002991
83 0.003985
86 0.004025
86 0.001996
91 0.001991
99 0.003023
109 0.005023
126 0.001995
134 0.004947
140 0.005019
144 0.001993
148 0.002997
153 0.002008
159 0.00402
164 0.004989
172 0.001997
178 0.003019
182 0.003023
187 0.005022
195 0.001987
200 0.005032
186 0.005017
107 0.001995
65 0.001994
56 0.001996
69 0.004983
84 0.005043
96 0.002029
103 0.002978
106 0.003992
104 0.00495
101 0.001994
106 0.004987
115 0.00504
125 0.005021
140 0.003005
147 0.001996
152 0.005018
156 0.005984
160 0.005985
163 0.002976
167 0.002995
172 0.002999
181 0.003001
185 0.002977
190 0.004996
195 0.004968
202 0.002991
200 0.003007
156 0.003976
97 0.005018
66 0.005986
70 0.003991
89 0.003014
104 0.004013
124 0.002991
125 0.002961
119 0.006035
112 0.006027
111 0.001957
119 0.002018
130 0.002992
142 0.005986
151 0.005984
160 0.003993
164 0.003026
167 0.003994
170 0.003009
173 0.003033
176 0.00602
181 0.006009
188 0.002962
194 0.002987
199 0.002996
183 0.006982
126 0.006975
70 0.004011
63 0.004021
76 0.003986
105 0.003988
119 0.003996
129 0.005981
127 0.006022
114 0.003004
109 0.003029
111 0.002994
119 0.006985
130 0.006983
143 0.003946
151 0.00396
155 0.006982
162 0.003982
163 0.004005
165 0.007014
167 0.007019
174 0.003995
178 0.003825
162 0.003988
105 0.006983
58 0.006983
41 0.004043
54 0.003996
71 0.005027
93 0.003951
103 0.003988
102 0.00701
94 0.007026
87 0.004958
89 0.004987
98 0.004988
110 0.006928
122 0.007003
133 0.004022
139 0.003964
144 0.002993
146 0.003996
149 0.003986
154 0.006978
158 0.007979
114 0.004991
56 0.003999
30 0.006982
20 0.00696
35 0.007017
55 0.004987
64 0.003932
76 0.003989
75 0.003982
71 0.004019
70 0.004028
75 0.007015
85 0.006983
101 0.00499
112 0.004985
120 0.004956
126 0.008022
131 0.00802
133 0.004024
141 0.007959
148 0.004992
152 0.00499
118 0.005007
56 0.006982
13 0.007019
7 0.003983
22 0.004991
33 0.005954
40 0.007972
46 0.007014
54 0.005983
56 0.006979
58 0.005986
64 0.005986
75 0.005979
91 0.007971
99 0.007977
111 0.005999
117 0.005037
122 0.005945
126 0.008017
131 0.007995
138 0.005009
148 0.007973
156 0.004979
166 0.004956
169 0.004983
101 0.007936
35 0.007987
3 0.005018
4 0.00499
17 0.006005
29 0.006982
30 0.006981
35 0.008976
47 0.006959
49 0.005984
53 0.004988
60 0.005022
74 0.00796
86 0.007976
97 0.005007
105 0.005115
112 0.005985
119 0.007976
124 0.007978
129 0.005985
140 0.006976
146 0.005985
153 0.006986
163 0.006979
163 0.006982
114 0.006982
46 0.005982
9 0.005999
7 0.00597
26 0.006982
37 0.006982
42 0.005993
54 0.006988
56 0.00695
56 0.00698
58 0.006947
68 0.006992
76 0.00302
91 0.006981
102 0.00698
111 0.006949
119 0.006974
124 0.006979
130 0.006986
139 0.006979
145 0.006019
152 0.006017
159 0.005983
167 0.005986
173 0.003979
139 0.005981
53 0.00595
20 0.006058
21 0.006019
40 0.006067
56 0.006166
72 0.00598
78 0.006018
76 0.005983
74 0.005984
74 0.004987
84 0.007021
96 0.006049
112 0.00598
122 0.006019
131 0.005986
137 0.005997
143 0.005956
146 0.006009
151 0.006022
158 0.005995
164 0.006006
172 0.006004
180 0.00603
181 0.006016
121 0.005989
60 0.00602
31 0.005993
35 0.005987
66 0.005982
76 0.002992
91 0.005981
94 0.005985
88 0.005996
83 0.00598
85 0.00498
94 0.004981
111 0.004981
122 0.005037
132 0.004985
139 0.00497
146 0.004986
149 0.005023
152 0.006021
157 0.005985
162 0.005994
168 0.005985
175 0.005984
183 0.005984
171 0.005979
110 0.004961
55 0.005983
36 0.004987
58 0.004985
78 0.005022
94 0.005088
108 0.005018
106 0.004989
96 0.004846
90 0.00499
92 0.005019
105 0.004951
118 0.004988
131 0.004987
141 0.004991
151 0.00499
153 0.004049
155 0.003996
159 0.003995
163 0.003989
169 0.004947
175 0.004978
178 0.005088
119 0.004954
62 0.004986
37 0.00499
42 0.004982
73 0.004985
88 0.00498
101 0.005028
104 0.00495
92 0.003977
84 0.003963
84 0.004026
93 0.003986
105 0.003961
120 0.003956
129 0.003965
135 0.004947
140 0.004947
141 0.004954
145 0.004954
151 0.00402
153 0.010009
118 0.003958
61 0.003995
25 0.00408
21 0.004026
39 0.003972
55 0.003954
67 0.00501
78 0.004942
75 0.00399
69 0.002992
69 0.003989
79 0.003989
92 0.003944
105 0.003992
116 0.001978
122 0.004027
128 0.00403
130 0.003954
133 0.004
142 0.003992
131 0.004051
78 0.00399
26 0.003999
6 0.003994
17 0.003024
30 0.003001
37 0.003992
44 0.003024
55 0.003952
56 0.002989
57 0.003995
62 0.00398
72 0.00398
84 0.00399
96 0.003023
108 0.003025
113 0.003022
117 0.003024
121 0.003034
127 0.002992
137 0.003024
146 0.002989
101 0.003026
40 0.001963
8 0.002982
6 0.002981
17 0.002992
27 0.003033
29 0.003025
38 0.00303
48 0.003028
53 0.002993
57 0.003003
63 0.003001
81 0.003023
95 0.003025
106 0.00296
114 0.002962
121 0.002993
129 0.003028
134 0.003025
140 0.002999
147 0.002029
154 0.001995
163 0.001997
170 0.001996
181 0.002028
187 0.001986
173 0.001995
111 0.002043
48 0.00203
23 0.002031
31 0.003026
42 0.003031
42 0.002993
43 0.002993
51 0.003028
63 0.002954
67 0.002018
72 0.002034
81 0.002004
91 0.002032
103 0.001041
113 0.001963
124 0.001995
130 0.002044
136 0.002035
142 0.001933
147 0.002017
156 0.002032
166 0.00103
174 0.002064
180 0.002025
186 0.002033
190 0.001995
196 0.001995
201 0.002027
171 0.001985
102 0.002007
53 0.001994
41 0.001993
56 0.001995
67 0.002021
69 0.001954
77 0.000963
83 0.000965
86 0.000999
88 0.000997
95 0.001961
104 0.001995
115 0.002023
126 0.002035
136 0.001979
145 0.002
151 0.002041
158 0.002026
164 0.002034
170 0.002034
177 0.001999
184 0.001027
193 0.001
198 0.000957
203 0.000997
209 0.002051
213 0.001996
220 0.002006
190 0.002028
107 0.001961
73 0.002025
72 0.002029
87 0.002042
100 0.001996
108 0.000996
114 0.000992
118 0.000999
116 0.000999
115 0.001036
120 0.002011
133 0.000998
148 0.001996
158 0.002057
166 0.00103
171 0.002027
175 0.000997
181 0.000998
185 0.001006
191 0.000956
196 0.0
203 0.0
213 0.0
219 0.0
225 0.0
233 0.001004
236 0.0
206 0.000998
145 0.000947
103 0.000997
97 0.0
111 0.000998
127 0.0
139 0.0
151 0.0
149 0.0
143 0.000968
140 0.0
146 0.0
156 0.0
167 0.0
179 0.0
191 0.0
196 0.0
201 0.0
203 0.00098
208 0.0
212 0.000968
217 0.0
225 0.0
231 0.0
238 0.0
238 0.0
203 0.0
134 0.0
111 0.0
119 0.0
130 0.0
155 0.0
166 0.006021
169 0.001013
162 0.00096
154 0.002949
152 0.0
159 0.000996
166 0.0
179 0.002947
189 0.001962
196 0.0
199 0.0
202 0.001004
204 0.0
206 0.000961
209 0.002025
213 0.002992
221 0.0
209 0.0
161 0.0
114 0.003028
95 0.00299
104 0.0
120 0.0
134 0.002992
150 0.00096
149 0.000963
142 0.00197
134 0.002027
134 0.0
141 0.000969
152 0.001018
162 0.003042
170 0.002031
177 0.0
181 0.0
184 0.0
186 0.0
190 0.0
190 0.003046
157 0.002025
90 0.0
67 0.0
69 0.0
83 0.002031
96 0.002046
107 0.001002
114 0.0
112 0.001016
108 0.0
108 0.00096
113 0.003008
122 0.002984
132 0.002985
145 0.0
150 0.001995
157 0.0
159 0.003034
161 0.003026
166 0.0
172 0.003026
137 0.0
81 0.0
45 0.0
40 0.002033
51 0.002041
67 0.000964
70 0.001036
75 0.0
81 0.003025
83 0.003025
84 0.000949
89 0.003024
101 0.00099
111 0.0
122 0.0
130 0.003022
136 0.002995
142 0.0
146 0.000973
150 0.000984
155 0.002988
160 0.002989
172 0.002998
173 0.00204
112 0.0
55 0.0
30 0.0
34 0.003026
49 0.003039
60 0.0
63 0.0
69 0.0
75 0.002031
77 0.002044
81 0.002045
88 0.002032
102 0.000996
112 0.000991
121 0.000989
129 0.003023
135 0.003011
140 0.0
145 0.0
149 0.0
154 0.002993
160 0.002991
172 0.002037
178 0.00295
149 0.002958
87 0.0
45 0.000964
38 0.003022
51 0.002994
70 0.0
76 0.0
83 0.000963
88 0.004029
88 0.003023
89 0.003019
94 0.003027
107 0.0
117 0.0
128 0.0
137 0.00303
142 0.00303
147 0.002994
151 0.0
155 0.001997
159 0.004026
164 0.004032
174 0.003026
180 0.00398
188 0.002989
185 0.002993
138 0.00207
78 0.002995
47 0.003035
54 0.002991
71 0.001996
84 0.002995
93 0.003991
100 0.00399
97 0.002999
95 0.004021
95 0.00402
102 0.002995
111 0.0
121 0.0
131 0.003023
140 0.003025
147 0.000997
150 0.001015
153 0.00203
156 0.00402
165 0.001987
172 0.004027
178 0.003988
150 0.003
93 0.002991
56 0.003004
51 0.004034
66 0.005014
90 0.002006
106 0.001972
118 0.002993
118 0.00399
105 0.002006
102 0.003993
107 0.004048
121 0.001994
133 0.001997
143 0.002984
150 0.005024
156 0.005018
159 0.002991
161 0.002991
164 0.002994
169 0.004032
166 0.002994
121 0.004036
71 0.003985
49 0.002998
60 0.002963
80 0.002018
96 0.004955
110 0.004998
118 0.002983
111 0.002989
102 0.002989
101 0.003
109 0.003015
121 0.005022
132 0.004988
143 0.001995
148 0.003006
152 0.002991
154 0.004023
157 0.005019
163 0.001967
164 0.001996
129 0.001985
43 0.001997
29 0.001996
40 0.005039
59 0.005032
78 0.002974
90 0.002992
96 0.002986
91 0.005019
83 0.004986
83 0.001997
90 0.002994
101 0.003004
121 0.002987
131 0.002024
137 0.00502
140 0.004998
143 0.002446
147 0.002989
152 0.002989
137 0.005983
82 0.005978
20 0.001995
11 0.002992
24 0.002992
49 0.002989
57 0.002995
66 0.00502
70 0.005019
68 0.00199
67 0.001996
71 0.002947
81 0.006016
94 0.005016
106 0.005985
119 0.002996
125 0.002995
131 0.002986
135 0.002993
141 0.002993
143 0.005991
114 0.00605
33 0.002992
3 0.003002
4 0.003003
20 0.00499
33 0.007017
42 0.00299
51 0.002992
60 0.004005
60 0.003017
63 0.004005
71 0.006001
83 0.006016
100 0.002993
111 0.002992
119 0.003012
125 0.005984
130 0.005997
136 0.003005
141 0.002988
153 0.00299
161 0.003981
161 0.003002
112 0.007013
45 0.006982
7 0.004021
15 0.003995
31 0.003985
41 0.005983
46 0.005971
57 0.002973
62 0.003036
66 0.003032
71 0.003008
80 0.002987
92 0.005977
105 0.007016
120 0.003994
127 0.003994
133 0.003991
138 0.007015
143 0.006989
150 0.00399
156 0.002992
167 0.002997
174 0.003002
182 0.003989
187 0.00703
155 0.00698
59 0.003987
18 0.003988
16 0.00399
33 0.006982
48 0.006973
55 0.00399
63 0.004981
72 0.004986
75 0.004982
77 0.004043
84 0.007017
94 0.006963
110 0.003989
121 0.004015
130 0.003989
136 0.007001
142 0.007025
146 0.00399
152 0.007018
161 0.003991
167 0.003989
174 0.004015
181 0.005968
188 0.008016
171 0.007981
104 0.002989
46 0.003959
28 0.00499
45 0.007978
57 0.007968
74 0.007018
81 0.006979
87 0.004987
86 0.004988
87 0.005025
94 0.007955
105 0.007979
118 0.004955
131 0.004988
141 0.00499
150 0.007977
154 0.00798
161 0.007956
165 0.007965
170 0.004986
175 0.003986
182 0.004942
192 0.006962
197 0.006981
164 0.004978
95 0.003989
48 0.005021
44 0.007977
63 0.007969
87 0.00798
104 0.007972
110 0.004989
107 0.004956
101 0.004987
100 0.006981
107 0.007983
119 0.004977
132 0.005986
143 0.005984
156 0.006949
162 0.00698
167 0.006972
170 0.007982
173 0.005985
179 0.005986
185 0.004987
193 0.006981
171 0.006985
107 0.005998
58 0.005981
44 0.005983
65 0.007
86 0.006979
117 0.006974
125 0.006983
120 0.005984
109 0.005943
103 0.005987
110 0.00698
122 0.006981
135 0.006003
152 0.005983
157 0.005976
166 0.006988
170 0.006984
174 0.006969
179 0.00698
184 0.00502
180 0.006004
131 0.005981
63 0.006967
49 0.00698
61 0.005982
83 0.005985
110 0.005957
127 0.006018
133 0.005986
117 0.005943
110 0.006024
113 0.006982
122 0.005974
136 0.00599
153 0.006966
163 0.006975
171 0.007035
176 0.005939
178 0.005983
181 0.005976
188 0.006073
160 0.005969
99 0.005953
61 0.005953
59 0.005984
78 0.005984
97 0.005984
114 0.006024
128 0.005974
126 0.004973
117 0.005984
