132 0.014959
92 0.0
59 0.000997
66 0.000997
88 0.0
104 0.0
121 0.0
128 0.0
127 0.0
125 0.0
131 0.0
144 0.0
149 0.0
155 0.0
162 0.0
168 0.000998
169 0.000998
116 0.0
63 0.0
53 0.0
73 0.000997
96 0.0
119 0.0
129 0.000997
128 0.000998
127 0.000991
132 0.0
140 0.000999
147 0.000998
155 0.0
159 0.0
161 0.0
165 0.001997
165 0.001995
114 0.000997
57 0.001007
65 0.00101
92 0.000996
113 0.000965
131 0.000987
132 0.001014
130 0.001014
129 0.000993
134 0.0
138 0.001981
144 0.001988
151 0.001959
155 0.001999
160 0.000997
164 0.000962
155 0.000958
89 0.000964
59 0.000983
70 0.000961
99 0.000999
120 0.002007
136 0.001977
136 0.002004
130 0.001997
132 0.002004
141 0.000981
149 0.001009
155 0.000999
159 0.001976
164 0.002953
168 0.000982
156 0.000953
107 0.001991
67 0.001964
80 0.002002
122 0.001956
135 0.002011
139 0.000996
131 0.001032
128 0.000995
134 0.002017
141 0.002019
148 0.000998
155 0.001998
158 0.001968
161 0.002002
162 0.001971
89 0.00199
51 0.001995
56 0.002006
82 0.001998
113 0.0
123 0.002001
122 0.002009
117 0.001012
119 0.001005
124 0.002024
130 0.003022
134 0.002996
143 0.001995
148 0.001993
152 0.001996
136 0.001995
82 0.00199
41 0.00199
55 0.001997
81 0.002965
106 0.001995
113 0.002001
109 0.001984
104 0.002979
109 0.002013
117 0.003007
123 0.002976
131 0.002004
133 0.001977
136 0.002995
140 0.003021
110 0.00294
57 0.002935
37 0.002945
50 0.00298
85 0.002976
111 0.001985
111 0.002978
106 0.002993
109 0.002004
115 0.003039
122 0.003015
129 0.003983
135 0.002984
140 0.003001
146 0.002965
144 0.002993
89 0.002993
47 0.002959
68 0.003006
93 0.002975
113 0.001994
117 0.002947
110 0.002992
105 0.003971
111 0.004025
119 0.002999
127 0.002987
134 0.003
138 0.002982
141 0.002995
107 0.003962
57 0.002978
40 0.002981
55 0.003985
87 0.00299
103 0.00398
107 0.003995
103 0.003015
101 0.003035
104 0.002988
115 0.003017
121 0.002967
126 0.003981
132 0.002994
132 0.002996
91 0.003976
41 0.003988
35 0.003989
55 0.003957
76 0.00398
93 0.00304
95 0.003029
88 0.003025
92 0.003017
98 0.00495
106 0.004997
112 0.003995
114 0.003992
123 0.003972
114 0.00399
63 0.003984
17 0.003986
13 0.003994
32 0.003989
64 0.003996
75 0.003978
77 0.005016
76 0.004992
82 0.003984
90 0.003994
97 0.00403
102 0.003994
108 0.004989
115 0.004993
116 0.003984
96 0.00398
14 0.003989
19 0.003024
32 0.004954
58 0.004988
70 0.004995
78 0.004031
76 0.003997
79 0.004031
88 0.004988
98 0.005002
109 0.003984
114 0.003978
124 0.003979
130 0.005025
124 0.004988
56 0.004987
22 0.004966
28 0.004974
57 0.00399
70 0.005005
88 0.004936
91 0.004982
87 0.003994
91 0.003996
104 0.004951
113 0.004963
121 0.004978
128 0.004981
136 0.00496
144 0.004998
131 0.003983
96 0.004987
37 0.004989
40 0.005025
71 0.004989
91 0.004986
108 0.004991
104 0.005016
101 0.004999
106 0.005987
115 0.005023
124 0.004997
128 0.004992
136 0.00499
143 0.004987
149 0.004983
147 0.00498
100 0.005976
31 0.005023
48 0.004979
71 0.005018
90 0.005984
102 0.00598
103 0.004991
101 0.004988
105 0.004971
112 0.005983
122 0.00499
131 0.00598
138 0.005987
148 0.006012
154 0.004986
149 0.005984
78 0.006024
32 0.00601
36 0.005015
57 0.004976
73 0.005985
88 0.006984
96 0.006976
96 0.005949
97 0.00598
108 0.005983
116 0.005936
126 0.006008
137 0.007011
143 0.005993
152 0.006011
161 0.004979
155 0.005984
105 0.006987
43 0.006994
29 0.005978
54 0.00698
70 0.007036
87 0.006017
93 0.006018
95 0.005982
96 0.005961
103 0.005994
112 0.005982
121 0.006983
130 0.006983
141 0.006984
147 0.007015
159 0.007018
154 0.007017
82 0.006034
36 0.006013
34 0.006011
56 0.00699
77 0.007974
97 0.00596
106 0.007026
108 0.006977
107 0.006956
111 0.00698
126 0.006987
136 0.007023
148 0.006012
155 0.006016
163 0.006982
169 0.006972
175 0.006974
146 0.006993
80 0.006985
45 0.007023
53 0.007957
81 0.007979
114 0.007018
124 0.007034
122 0.005987
124 0.006015
128 0.006944
137 0.007935
149 0.007975
158 0.007026
165 0.006993
170 0.006986
175 0.007974
181 0.007976
168 0.00698
107 0.007008
59 0.006032
72 0.006039
108 0.007991
129 0.007946
139 0.007949
138 0.006992
130 0.00699
130 0.006978
141 0.007954
147 0.007986
157 0.007014
166 0.007967
171 0.006992
175 0.005978
179 0.007027
143 0.007977
99 0.007953
56 0.007979
58 0.007978
85 0.007979
119 0.007979
135 0.007008
130 0.007931
125 0.007979
134 0.007024
146 0.007011
156 0.007014
167 0.006982
175 0.006979
179 0.007979
185 0.007979
187 0.007956
158 0.007978
90 0.007978
58 0.007977
83 0.007978
122 0.00704
133 0.006981
133 0.007008
126 0.007001
127 0.007016
142 0.006954
153 0.007002
160 0.007977
162 0.007979
165 0.007946
175 0.007023
168 0.007978
116 0.006982
56 0.00698
57 0.007048
81 0.006995
105 0.00698
121 0.007008
123 0.00702
114 0.007013
112 0.006982
119 0.005984
134 0.005984
142 0.007007
145 0.007009
155 0.00701
157 0.007009
119 0.006982
61 0.006982
35 0.007013
54 0.007012
77 0.00698
97 0.006983
103 0.007018
99 0.006022
97 0.006027
103 0.006021
115 0.006009
121 0.00702
125 0.007022
131 0.006982
137 0.006988
127 0.007016
70 0.006982
22 0.007007
31 0.007002
52 0.006013
68 0.005976
80 0.005984
83 0.006009
82 0.005982
86 0.00594
92 0.006025
101 0.007042
109 0.006982
115 0.00701
121 0.006982
123 0.00602
76 0.006019
22 0.006022
8 0.005984
28 0.006019
43 0.005973
58 0.006021
68 0.006011
69 0.006046
70 0.006981
78 0.005984
87 0.004995
103 0.006033
110 0.005987
118 0.006019
123 0.005987
128 0.006016
94 0.006026
36 0.006009
13 0.006009
21 0.006011
43 0.005028
57 0.005018
70 0.005036
75 0.005019
76 0.005011
82 0.004989
93 0.00601
106 0.006013
113 0.005985
119 0.005012
127 0.006011
134 0.006033
121 0.005025
65 0.005028
28 0.004987
41 0.00498
60 0.005012
76 0.004958
89 0.004988
91 0.004979
87 0.005012
91 0.005018
100 0.006016
111 0.005984
120 0.004984
130 0.00502
138 0.005014
150 0.004987
142 0.004995
88 0.005005
42 0.005034
38 0.004987
61 0.004986
77 0.004014
95 0.004022
102 0.004016
100 0.004018
98 0.005026
106 0.005012
126 0.00503
134 0.004987
141 0.005014
149 0.004986
155 0.004988
163 0.004975
147 0.004023
86 0.004023
47 0.004018
45 0.003989
67 0.004017
79 0.003991
103 0.004987
106 0.005039
102 0.004986
104 0.004987
114 0.004986
128 0.00497
140 0.003989
148 0.00399
155 0.00399
160 0.003991
170 0.004019
154 0.004025
72 0.003989
47 0.004027
54 0.002992
69 0.003989
78 0.005021
98 0.004025
107 0.004035
106 0.004032
107 0.004025
115 0.00399
128 0.004037
143 0.004019
154 0.003951
162 0.003991
168 0.004025
175 0.002964
178 0.002992
129 0.002994
70 0.002959
52 0.004012
62 0.004029
78 0.004035
91 0.003991
108 0.004017
116 0.004016
116 0.004013
122 0.003987
132 0.003026
144 0.003019
156 0.002955
164 0.002993
170 0.002994
176 0.002992
183 0.002992
188 0.003989
132 0.004022
63 0.003997
61 0.004047
78 0.004029
91 0.00303
104 0.002993
118 0.002992
125 0.002993
125 0.003029
128 0.002992
135 0.003025
147 0.002993
163 0.002994
171 0.002992
178 0.003991
184 0.00399
189 0.003052
195 0.003026
189 0.00302
110 0.002993
67 0.002991
70 0.002993
92 0.002992
112 0.002993
134 0.003021
140 0.002992
137 0.002991
140 0.001995
149 0.002992
161 0.003034
168 0.00299
180 0.002956
187 0.002993
193 0.002992
197 0.002953
205 0.002957
203 0.003019
148 0.003021
79 0.002033
82 0.001994
107 0.002963
128 0.002992
144 0.00199
152 0.002988
147 0.002992
142 0.002993
147 0.002993
158 0.002992
176 0.002994
183 0.001994
191 0.002036
197 0.002025
204 0.002031
210 0.001995
206 0.001998
128 0.001995
78 0.001998
76 0.002992
100 0.002992
124 0.001996
148 0.002025
148 0.001991
142 0.001996
143 0.001995
150 0.002
162 0.001995
173 0.001984
183 0.001996
190 0.001996
197 0.001997
202 0.001998
205 0.001995
159 0.001025
91 0.001995
61 0.001994
81 0.001973
107 0.00199
125 0.001996
136 0.002003
133 0.001995
129 0.001969
129 0.002033
137 0.001995
156 0.000999
166 0.000999
172 0.000997
182 0.000996
189 0.000998
197 0.002027
192 0.001996
130 0.002011
51 0.001995
49 0.001995
72 0.001995
92 0.000998
117 0.000998
120 0.000997
119 0.000998
119 0.000997
128 0.000998
138 0.000998
145 0.000997
151 0.000961
158 0.000997
168 0.001995
175 0.000998
178 0.000996
98 0.000965
45 0.000984
38 0.001025
61 0.000991
88 0.000986
101 0.000998
107 0.000999
106 0.000996
104 0.000997
109 0.000979
118 0.001955
129 0.0
144 0.000985
153 0.001005
159 0.000995
165 0.000977
160 0.001
107 0.001049
48 0.000989
35 0.000997
56 0.0
82 0.0
98 0.0
106 0.0
104 0.0
105 0.0
112 0.0
123 0.000999
137 0.001015
143 0.0
150 0.001015
156 0.000993
164 0.0
161 0.0
111 0.0
55 0.0
55 0.0
81 0.0
102 0.0
116 0.0
117 0.0
113 0.001004
113 0.000999
120 0.0
131 0.0
143 0.0
148 0.0
157 0.0
169 0.0
173 0.0
148 0.0
89 0.0
53 0.0
68 0.000997
102 0.0
121 0.0
126 0.0
122 0.0
115 0.0
116 0.0
133 0.0
145 0.0
153 0.0
160 0.0
168 0.000971
176 0.000949
148 0.0
87 0.0
50 0.0
56 0.000934
80 0.000998
100 0.0
119 0.0
118 0.0
109 0.0
112 0.0
123 0.000966
134 0.000995
143 0.0
149 0.0
154 0.0
161 0.0
159 0.000998
66 0.0
32 0.000963
40 0.001004
68 0.0
77 0.0
94 0.0
99 0.000969
96 0.00096
96 0.0
103 0.0
113 0.0
124 0.00096
136 0.0
144 0.000989
151 0.000948
148 0.000963
100 0.00095
43 0.00093
25 0.000997
40 0.000972
63 0.0
74 0.0
86 0.0
93 0.001012
93 0.0
100 0.000956
110 0.001968
124 0.000997
132 0.000994
139 0.000966
146 0.001998
154 0.001999
156 0.000962
136 0.000946
75 0.000997
37 0.001008
63 0.0
77 0.001009
89 0.001007
101 0.000969
100 0.001025
100 0.000955
106 0.00199
118 0.002003
133 0.000997
144 0.000945
154 0.001007
160 0.002012
172 0.000994
174 0.000936
139 0.001994
67 0.000995
58 0.000955
81 0.000995
107 0.002001
132 0.002005
154 0.000982
154 0.001026
152 0.001027
155 0.001991
170 0.000997
181 0.002969
190 0.00298
198 0.001995
203 0.001996
208 0.001998
216 0.00196
204 0.002
123 0.00095
82 0.000964
86 0.001994
111 0.001999
141 0.001026
147 0.002989
141 0.003004
132 0.002005
136 0.002
147 0.00198
163 0.001971
173 0.001996
183 0.001958
190 0.001948
196 0.000997
201 0.001959
177 0.001989
114 0.001991
73 0.002992
74 0.002994
103 0.002031
120 0.001972
132 0.002036
135 0.002999
129 0.002992
125 0.00199
131 0.001986
146 0.00298
162 0.00199
168 0.002033
171 0.002992
176 0.003002
183 0.002021
167 0.002031
105 0.002037
56 0.002972
51 0.002992
79 0.002008
97 0.001972
109 0.003003
113 0.00299
113 0.002995
111 0.002991
119 0.002975
134 0.001957
144 0.002004
151 0.001995
158 0.002972
162 0.003967
171 0.002026
171 0.002996
86 0.003027
41 0.002998
41 0.002987
63 0.003992
80 0.003984
92 0.003006
101 0.003018
104 0.002
104 0.002972
107 0.002982
119 0.002991
130 0.002992
145 0.003027
152 0.003027
159 0.003026
166 0.003998
170 0.004011
124 0.002994
65 0.00301
41 0.002994
48 0.002985
70 0.00399
90 0.003006
100 0.002978
103 0.002996
103 0.003045
107 0.003028
117 0.004011
127 0.003989
139 0.002998
146 0.003021
154 0.002988
161 0.004945
167 0.004939
150 0.003977
92 0.00302
42 0.003031
60 0.002971
82 0.003007
96 0.003968
105 0.003977
109 0.00299
106 0.003989
106 0.002985
114 0.004987
125 0.004986
137 0.003996
146 0.003999
157 0.003944
164 0.003999
167 0.004002
146 0.003989
93 0.003982
56 0.002973
66 0.003004
86 0.00395
104 0.00399
115 0.004943
116 0.004952
106 0.003979
108 0.004998
120 0.003992
130 0.003995
138 0.003974
145 0.004981
151 0.004996
158 0.003992
154 0.003958
110 0.003979
60 0.004995
41 0.005031
63 0.003995
86 0.004987
102 0.003999
102 0.004011
97 0.004018
98 0.005021
103 0.006021
115 0.004959
124 0.004991
130 0.004993
135 0.00597
141 0.00498
141 0.004011
87 0.004992
34 0.003974
36 0.003994
53 0.004027
67 0.005983
81 0.005966
88 0.005013
86 0.005004
87 0.005032
94 0.006018
102 0.006016
114 0.005007
126 0.00601
139 0.003992
146 0.004033
142 0.004956
102 0.006026
57 0.005982
47 0.004949
64 0.004984
79 0.004995
95 0.005994
101 0.005984
97 0.00499
99 0.006013
108 0.005025
118 0.005931
126 0.006024
133 0.006027
141 0.00598
151 0.004992
145 0.004996
108 0.005012
69 0.006009
62 0.006022
96 0.00601
115 0.005988
131 0.004994
126 0.006009
117 0.005983
119 0.006988
128 0.00698
141 0.006016
148 0.005052
154 0.004973
162 0.00602
164 0.006027
98 0.005961
59 0.006026
58 0.005944
77 0.006015
95 0.005998
108 0.005987
110 0.006982
102 0.007018
97 0.006023
104 0.006048
113 0.005019
123 0.007981
138 0.005982
146 0.006979
139 0.007014
71 0.00602
34 0.005982
35 0.005989
49 0.007015
69 0.007018
93 0.006029
99 0.006019
94 0.006029
89 0.006981
99 0.006011
107 0.007026
116 0.00701
128 0.006021
137 0.006014
112 0.005983
57 0.006988
24 0.006982
27 0.006034
42 0.006011
58 0.005017
74 0.007978
80 0.006009
82 0.007961
87 0.007971
93 0.006028
103 0.005991
109 0.004995
115 0.007024
122 0.007977
96 0.00499
38 0.005987
10 0.005997
20 0.007978
37 0.007017
47 0.007946
65 0.007983
72 0.007016
74 0.00703
78 0.006036
91 0.007973
103 0.007007
112 0.00603
121 0.006001
130 0.006981
139 0.007934
105 0.006989
43 0.007995
14 0.007979
24 0.006984
36 0.006962
46 0.007008
66 0.007955
74 0.007943
76 0.006984
77 0.007016
87 0.006954
100 0.007007
116 0.006982
124 0.007977
133 0.007981
144 0.006981
145 0.007009
116 0.006944
41 0.008002
26 0.007012
45 0.007011
59 0.007011
74 0.006962
87 0.006981
92 0.006976
92 0.007014
96 0.007983
110 0.007015
122 0.006955
133 0.007013
142 0.007946
148 0.007021
157 0.007026
162 0.007028
143 0.00701
51 0.007029
41 0.006969
59 0.006991
77 0.007037
101 0.006999
111 0.006988
114 0.006955
111 0.007949
114 0.006981
122 0.00698
136 0.006968
146 0.006981
161 0.006973
166 0.007009
171 0.00695
175 0.007008
165 0.007008
89 0.005943
60 0.006985
68 0.007021
89 0.006986
108 0.007023
129 0.007027
130 0.006982
125 0.006956
129 0.006953
138 0.006973
150 0.006988
160 0.006988
167 0.006982
174 0.006014
183 0.006007
187 0.006027
180 0.005988
112 0.005971
76 0.007002
98 0.006969
123 0.006948
142 0.006947
152 0.00698
149 0.006995
139 0.005988
143 0.006013
152 0.006022
163 0.006013
171 0.006019
181 0.005988
187 0.005986
196 0.005961
195 0.005986
159 0.006994
101 0.006966
82 0.005985
104 0.006022
130 0.006023
150 0.00598
158 0.006013
154 0.006011
143 0.006018
146 0.006007
163 0.00598
173 0.005984
180 0.006014
186 0.005981
193 0.005017
198 0.005001
171 0.005984
110 0.006015
81 0.006013
92 0.006023
128 0.005995
149 0.005982
159 0.005983
155 0.005999
151 0.005989
153 0.004979
161 0.00497
176 0.005042
184 0.004989
189 0.005016
196 0.006
200 0.006007
177 0.005998
117 0.005977
88 0.005957
109 0.005996
134 0.004995
151 0.004988
158 0.005015
155 0.005019
145 0.004987
148 0.004986
157 0.004992
166 0.005024
174 0.005025
182 0.004958
190 0.004956
188 0.004991
152 0.005024
99 0.005018
84 0.005044
100 0.004991
133 0.005027
152 0.005033
158 0.005021
152 0.004991
145 0.004977
145 0.004991
156 0.00403
168 0.004029
175 0.004025
184 0.003947
187 0.004995
185 0.005014
137 0.005029
94 0.004986
89 0.004991
110 0.005023
134 0.004987
155 0.00402
152 0.004018
141 0.00402
141 0.00399
149 0.004028
160 0.004019
167 0.004034
174 0.004989
179 0.004987
178 0.005013
151 0.005023
102 0.003993
92 0.004018
111 0.003983
137 0.004048
148 0.004018
146 0.004025
137 0.004004
133 0.00402
139 0.003994
149 0.004018
157 0.004003
164 0.00399
168 0.002992
161 0.003989
114 0.004029
73 0.004037
79 0.00399
98 0.004016
115 0.004017
126 0.003991
127 0.003992
122 0.004013
121 0.004019
124 0.00302
133 0.002993
146 0.002993
152 0.002937
159 0.002962
154 0.004029
117 0.004039
78 0.004017
73 0.004033
93 0.00399
107 0.00399
120 0.003982
123 0.00302
117 0.002993
115 0.002993
121 0.002992
131 0.002992
138 0.002993
145 0.002994
152 0.002993
153 0.003001
134 0.003021
79 0.00399
66 0.002992
77 0.002997
93 0.002993
115 0.002993
118 0.002993
112 0.002993
109 0.003
116 0.003031
124 0.003044
131 0.002954
135 0.00299
143 0.002024
148 0.002994
145 0.002023
109 0.002937
60 0.002965
68 0.002961
84 0.002991
100 0.00304
108 0.003046
108 0.002994
102 0.002002
103 0.002983
113 0.001994
120 0.001965
127 0.002988
132 0.00199
141 0.002952
141 0.002996
112 0.002999
65 0.002979
62 0.002989
75 0.002987
89 0.001963
99 0.001993
105 0.002001
103 0.002016
100 0.001987
103 0.001996
115 0.002005
122 0.001995
128 0.001994
137 0.001948
142 0.001991
140 0.001997
102 0.001974
60 0.001986
51 0.001977
63 0.001995
73 0.00201
88 0.001948
94 0.00194
96 0.000968
98 0.001995
104 0.001959
113 0.002001
121 0.000998
130 0.000992
136 0.001969
144 0.001996
149 0.001994
145 0.001943
77 0.001988
57 0.001981
65 0.001995
80 0.001998
92 0.001992
102 0.00093
108 0.000947
107 0.000997
104 0.000979
113 0.000984
123 0.001965
133 0.001962
147 0.001986
153 0.001954
158 0.002014
160 0.001973
146 0.000998
101 0.00097
71 0.000998
72 0.000993
87 0.000994
99 0.000997
114 0.000998
119 0.001004
116 0.001005
118 0.001001
128 0.000999
137 0.001002
145 0.001027
155 0.001007
161 0.001007
165 0.001
169 0.001014
173 0.001005
140 0.000986
89 0.000998
75 0.001008
90 0.000999
100 0.001004
111 0.001003
120 0.0
123 0.0
121 0.0
125 0.000989
136 0.000963
147 0.001001
158 0.001013
167 0.001027
175 0.000987
180 0.000973
184 0.0
181 0.0
139 0.0
84 0.0
87 0.0
106 0.0
120 0.0
130 0.0
142 0.001025
142 0.000985
141 0.001006
150 0.001
158 0.0
169 0.0
175 0.0
183 0.0
187 0.0
192 0.0
198 0.0
200 0.0
163 0.0
107 0.0
99 0.001013
118 0.0
133 0.0
145 0.0
150 0.0
148 0.0
147 0.0
152 0.0
159 0.0
172 0.0
179 0.0
182 0.000937
190 0.000971
192 0.000998
197 0.000984
193 0.0
153 0.0
90 0.0
88 0.000985
113 0.0
128 0.0
137 0.0
142 0.000959
140 0.000952
139 0.001002
145 0.001013
157 0.0
164 0.0
171 0.0
175 0.000959
180 0.002005
184 0.0
190 0.0
183 0.0
134 0.0
77 0.0
93 0.0
116 0.000947
129 0.000982
140 0.0
143 0.0
140 0.0
139 0.000957
144 0.000991
158 0.0
166 0.000969
173 0.0
180 0.0
185 0.0
190 0.000995
192 0.000996
150 0.0
100 0.0
83 0.000938
102 0.001962
126 0.000957
144 0.000998
149 0.000997
146 0.000968
137 0.000968
140 0.0
150 0.001994
157 0.000996
164 0.000994
167 0.000997
171 0.000994
176 0.001024
175 0.001022
121 0.000997
72 0.00095
64 0.000999
98 0.000951
113 0.000966
122 0.001959
124 0.002002
118 0.0
117 0.001021
124 0.000995
133 0.001957
140 0.001996
148 0.000968
154 0.000958
160 0.000997
156 0.000997
111 0.001004
59 0.001979
46 0.001991
70 0.000996
86 0.000998
99 0.00097
105 0.002962
105 0.002993
102 0.001033
104 0.00096
111 0.000998
124 0.000995
132 0.000996
137 0.001987
144 0.001982
148 0.000944
126 0.000972
72 0.001995
38 0.002964
42 0.002973
67 0.001962
80 0.000997
90 0.001964
94 0.001005
93 0.000997
96 0.002012
102 0.001995
114 0.000998
125 0.000979
134 0.002002
139 0.002966
146 0.003001
138 0.001033
94 0.001993
51 0.001969
57 0.001947
78 0.001065
92 0.001995
104 0.003027
106 0.004034
100 0.001998
99 0.002017
108 0.001998
118 0.002958
128 0.003
136 0.001991
143 0.001972
153 0.002005
141 0.002038
95 0.001956
54 0.003003
53 0.004002
79 0.001968
94 0.002004
106 0.001999
109 0.002992
102 0.003001
97 0.002017
107 0.002964
122 0.001996
129 0.002001
134 0.002011
141 0.003009
146 0.00402
111 0.002995
62 0.002992
44 0.003015
56 0.003985
75 0.00399
96 0.002001
105 0.002975
98 0.001984
93 0.001966
99 0.002005
107 0.003976
116 0.003954
125 0.003021
135 0.002994
139 0.002963
118 0.003972
64 0.004014
29 0.002996
46 0.004013
63 0.001998
75 0.002
84 0.002995
85 0.003975
83 0.004027
89 0.002994
99 0.003002
110 0.002955
117 0.003983
125 0.003989
135 0.003003
121 0.00499
51 0.003045
26 0.002998
33 0.003995
46 0.004988
54 0.004982
73 0.003029
80 0.002988
81 0.003026
81 0.004026
87 0.00402
101 0.003007
115 0.004995
127 0.003962
136 0.003989
142 0.003962
129 0.004985
75 0.004995
32 0.002993
37 0.004006
49 0.003031
57 0.00499
68 0.004985
82 0.003013
86 0.003973
90 0.003983
99 0.003997
111 0.003996
121 0.003964
131 0.004987
139 0.004981
148 0.003977
152 0.004027
136 0.003973
81 0.004991
46 0.004993
57 0.005985
69 0.005014
83 0.004006
96 0.003971
102 0.003989
100 0.004991
103 0.004986
115 0.003998
128 0.003996
137 0.003988
145 0.004965
151 0.005995
164 0.005985
168 0.006024
124 0.003987
72 0.003997
57 0.004023
70 0.004988
87 0.005012
104 0.003985
114 0.003984
116 0.004018
112 0.005029
116 0.005982
132 0.005985
144 0.006018
153 0.004986
160 0.004999
169 0.004006
175 0.005996
177 0.006022
129 0.003989
73 0.004004
56 0.004986
70 0.005989
87 0.00599
109 0.006043
118 0.006003
117 0.004991
117 0.005014
124 0.004992
133 0.006021
144 0.006009
155 0.005023
161 0.005011
167 0.005014
173 0.006971
177 0.004987
139 0.006023
79 0.005986
58 0.004959
73 0.005012
87 0.005022
96 0.006021
110 0.00696
116 0.005016
115 0.006033
118 0.005983
127 0.006981
145 0.004989
153 0.006982
161 0.006986
170 0.005008
177 0.004992
183 0.005019
177 0.006012
127 0.00602
62 0.004987
63 0.005997
84 0.005958
99 0.006983
118 0.005984
122 0.005983
120 0.006981
121 0.006981
131 0.004986
143 0.00502
154 0.005008
163 0.007975
169 0.00702
179 0.005992
186 0.005994
191 0.005984
135 0.005985
79 0.005985
65 0.006982
86 0.006946
109 0.005984
125 0.004987
136 0.004986
133 0.006984
127 0.00698
135 0.005983
145 0.005984
153 0.005983
169 0.005983
177 0.005985
184 0.006982
190 0.006981
194 0.005983
163 0.004985
98 0.005984
61 0.007977
75 0.007978
97 0.005979
111 0.005983
123 0.005984
125 0.005984
122 0.005983
125 0.006982
135 0.006981
149 0.005984
159 0.006982
166 0.006982
171 0.007978
182 0.007978
185 0.006981
162 0.005984
100 0.006976
65 0.006996
80 0.006961
108 0.007941
120 0.007995
125 0.006926
124 0.006915
119 0.006969
125 0.007978
132 0.007937
147 0.006953
156 0.006975
164 0.006994
176 0.006977
179 0.006952
160 0.007941
88 0.006951
60 0.006964
73 0.006983
105 0.006974
125 0.006995
133 0.007978
133 0.006976
128 0.006973
126 0.006992
141 0.007006
153 0.006978
165 0.007944
173 0.006998
185 0.006977
186 0.006981
148 0.006973
93 0.006962
70 0.006985
92 0.006972
114 0.006966
137 0.007018
139 0.006985
129 0.007027
122 0.007961
130 0.006967
145 0.00698
154 0.006973
162 0.006975
169 0.006985
173 0.006922
148 0.006978
70 0.006985
50 0.006993
78 0.006965
98 0.005984
112 0.006944
115 0.006983
110 0.007023
107 0.006978
112 0.006947
123 0.006967
135 0.006975
141 0.006975
151 0.006954
152 0.006991
95 0.006973
45 0.00602
36 0.005987
54 0.005984
74 0.005981
93 0.005959
99 0.006973
97 0.007023
94 0.007009
97 0.006939
111 0.006994
125 0.006964
136 0.006972
144 0.005973
147 0.005985
123 0.00599
65 0.005979
31 0.005989
44 0.00599
63 0.00598
78 0.006995
90 0.006996
93 0.00695
89 0.006985
97 0.006012
109 0.005979
119 0.005985
130 0.005968
138 0.005984
147 0.005984
140 0.005976
91 0.00498
41 0.005973
33 0.005978
56 0.004993
80 0.005969
98 0.005972
99 0.005978
96 0.005975
99 0.005975
107 0.005986
124 0.005952
134 0.005946
142 0.005015
151 0.005984
160 0.005985
150 0.004992
76 0.004965
40 0.005952
54 0.004981
74 0.00498
90 0.00602
105 0.005959
108 0.00599
103 0.005986
104 0.005005
112 0.004995
124 0.005019
137 0.004995
148 0.004962
159 0.00494
164 0.004967
147 0.004979
91 0.004964
53 0.005951
62 0.005961
83 0.004999
103 0.004992
117 0.00499
118 0.004987
106 0.004987
109 0.004978
125 0.004979
137 0.005021
144 0.004991
151 0.003986
160 0.004968
161 0.004979
104 0.003979
49 0.004019
35 0.004971
50 0.004999
70 0.004994
96 0.00498
102 0.004986
97 0.004988
99 0.004979
108 0.004974
119 0.004999
130 0.003974
143 0.003987
149 0.003985
158 0.004008
163 0.003982
91 0.003998
36 0.00499
28 0.004982
51 0.004989
64 0.00497
78 0.004971
90 0.004932
93 0.004984
93 0.003982
99 0.003975
109 0.004017
122 0.003953
141 0.003992
150 0.003981
156 0.003964
165 0.004964
169 0.003948
138 0.003949
67 0.004979
33 0.004991
47 0.003938
64 0.003986
76 0.003991
90 0.00398
101 0.003992
99 0.003943
102 0.003939
119 0.003937
131 0.004029
142 0.003976
151 0.003959
159 0.002947
168 0.003959
175 0.003992
168 0.003986
117 0.003991
49 0.003938
60 0.003944
80 0.003981
101 0.003987
114 0.004001
118 0.003944
115 0.002975
117 0.002959
129 0.00296
142 0.002972
156 0.002962
164 0.00296
178 0.00398
186 0.003949
195 0.003949
185 0.003991
124 0.004027
70 0.003019
65 0.002993
89 0.002993
116 0.002994
134 0.002993
140 0.002963
136 0.002974
131 0.002998
142 0.002992
156 0.004028
172 0.004039
182 0.003022
190 0.002992
196 0.003
205 0.003022
210 0.002994
186 0.002995
119 0.002992
75 0.003019
98 0.003031
125 0.002992
146 0.00302
156 0.003004
149 0.001996
141 0.002993
143 0.002992
154 0.002963
169 0.002957
185 0.003031
193 0.003026
199 0.003011
212 0.002992
210 0.003033
157 0.002034
88 0.002031
66 0.001996
91 0.001996
116 0.001995
133 0.002015
142 0.003019
136 0.003029
129 0.002988
132 0.003027
153 0.001995
165 0.001997
175 0.002028
181 0.002022
192 0.001996
196 0.001996
173 0.002036
101 0.002029
50 0.002033
55 0.003001
82 0.00196
110 0.001996
118 0.001994
117 0.001995
110 0.001995
110 0.001968
124 0.001995
136 0.001995
146 0.001996
156 0.001996
162 0.002
172 0.002026
177 0.002003
93 0.001995
35 0.00103
27 0.000999
49 0.000998
70 0.002046
87 0.002022
96 0.001993
96 0.001966
94 0.001996
96 0.002036
110 0.001985
122 0.002025
138 0.000966
147 0.000982
154 0.000997
159 0.000997
150 0.00098
71 0.001006
31 0.001996
33 0.002029
53 0.001997
70 0.00197
90 0.001997
95 0.001999
92 0.000997
94 0.001027
104 0.00103
118 0.001031
129 0.000998
141 0.000997
148 0.000998
157 0.000997
164 0.001966
157 0.001992
82 0.001961
36 0.000997
43 0.000998
71 0.001024
86 0.000998
98 0.000998
102 0.000998
102 0.000998
106 0.000997
114 0.0
128 0.000968
140 0.000962
152 0.0
161 0.000999
174 0.000972
183 0.000999
161 0.000998
100 0.000998
57 0.001015
61 0.000998
94 0.000998
110 0.000965
124 0.000988
129 0.0
123 0.0
120 0.0
133 0.0
151 0.0
163 0.0
171 0.000999
179 0.000998
187 0.00095
189 0.000967
151 0.000997
92 0.0
65 0.0
77 0.0
110 0.0
132 0.0
135 0.0
126 0.0
121 0.0
128 0.0
138 0.0
153 0.001003
163 0.0
170 0.0
179 0.0
182 0.0
143 0.0
60 0.0
48 0.0
70 0.0
95 0.0
106 0.0
116 0.0
112 0.001995
110 0.000995
118 0.0
131 0.0
144 0.0
153 0.0
165 0.0
173 0.0
177 0.001025
125 0.0
57 0.0
34 0.000963
45 0.000999
65 0.002023
87 0.0
100 0.0
102 0.0
99 0.0
103 0.0
115 0.001032
128 0.001049
142 0.0
151 0.0
159 0.0
167 0.000997
171 0.001013
126 0.0
60 0.0
37 0.000972
62 0.000996
76 0.000997
92 0.000998
107 0.002023
106 0.002027
105 0.0
110 0.0
122 0.0
134 0.001027
144 0.000997
156 0.0
164 0.0
180 0.0
185 0.000997
155 0.0
90 0.000998
54 0.000997
74 0.0
102 0.0
119 0.0
132 0.002035
135 0.001987
126 0.0
127 0.0
147 0.0
162 0.0
172 0.0
180 0.001964
187 0.001958
199 0.000999
205 0.0
197 0.0
139 0.001996
82 0.001995
76 0.000988
103 0.0
141 0.0
152 0.00097
146 0.0
137 0.001996
135 0.002051
147 0.002001
159 0.0
169 0.0
175 0.001994
181 0.001986
191 0.001018
189 0.000966
99 0.001001
56 0.001002
59 0.000998
83 0.003018
104 0.002987
122 0.001989
123 0.000952
116 0.001976
112 0.001966
117 0.001995
135 0.001991
147 0.001982
163 0.001018
170 0.002036
181 0.000989
183 0.002984
139 0.002993
53 0.000971
40 0.000988
58 0.001948
79 0.002047
93 0.001993
107 0.000992
107 0.000977
105 0.002005
111 0.001996
123 0.001999
136 0.003025
147 0.00299
160 0.001001
168 0.001016
175 0.000996
170 0.002993
119 0.003004
43 0.001959
38 0.001009
65 0.003028
85 0.001949
99 0.001997
105 0.002031
101 0.002989
100 0.003038
109 0.001021
120 0.00103
133 0.000996
144 0.002986
152 0.002968
166 0.003947
170 0.004024
137 0.002002
73 0.001952
39 0.001993
46 0.002991
66 0.003028
87 0.001031
102 0.000989
107 0.002001
105 0.003002
106 0.002996
122 0.003989
133 0.004016
148 0.001967
157 0.001964
165 0.001997
174 0.00399
181 0.003991
149 0.00196
86 0.002
51 0.001958
60 0.00399
83 0.004019
108 0.003989
118 0.00399
114 0.002024
108 0.001986
113 0.001986
125 0.003988
138 0.004021
151 0.001967
160 0.00196
167 0.002984
174 0.003976
176 0.003974
112 0.004024
64 0.004035
60 0.00299
84 0.002992
104 0.001996
119 0.00399
124 0.004034
117 0.002963
115 0.002955
121 0.00299
133 0.004999
144 0.004974
156 0.004017
163 0.004029
174 0.002987
180 0.002993
157 0.002958
90 0.005024
41 0.004027
48 0.002963
70 0.003039
84 0.002979
98 0.004942
105 0.004981
103 0.00497
106 0.004992
120 0.002995
134 0.002995
146 0.002991
156 0.004001
166 0.00399
178 0.002983
181 0.002973
156 0.002998
93 0.004959
53 0.005012
67 0.004989
86 0.005036
107 0.003001
115 0.002999
114 0.003029
113 0.003976
117 0.00499
130 0.004007
143 0.004004
154 0.004001
165 0.005019
173 0.004979
187 0.003033
185 0.004987
139 0.004972
65 0.002996
57 0.002985
78 0.003968
99 0.005943
117 0.006024
127 0.003941
123 0.003992
117 0.003945
119 0.004986
141 0.004004
155 0.004981
165 0.00592
175 0.003989
185 0.00299
194 0.003984
191 0.005987
145 0.00595
77 0.00398
72 0.003988
93 0.004012
114 0.004973
139 0.004012
139 0.004977
127 0.004998
124 0.003948
134 0.003042
145 0.003993
157 0.005943
165 0.005974
172 0.003999
179 0.003989
181 0.003976
102 0.003989
49 0.00399
42 0.006017
61 0.006016
84 0.00396
98 0.005038
103 0.005
99 0.005996
97 0.005988
104 0.004998
116 0.004009
127 0.003993
142 0.003972
151 0.003989
160 0.005953
163 0.005984
128 0.005013
64 0.004976
26 0.004972
32 0.005977
51 0.00598
69 0.00501
83 0.004998
89 0.004985
87 0.004979
91 0.004044
100 0.006963
113 0.006977
127 0.004985
136 0.004987
144 0.004986
153 0.006982
160 0.005976
127 0.00496
65 0.004968
32 0.004988
51 0.004984
67 0.004982
80 0.006993
93 0.006978
96 0.006006
94 0.006014
97 0.00498
108 0.006952
121 0.006989
136 0.004967
147 0.004989
155 0.004971
169 0.004976
168 0.004985
129 0.006974
70 0.006977
43 0.007022
62 0.005994
84 0.004987
100 0.004962
114 0.006965
117 0.006994
111 0.005003
113 0.004991
133 0.005986
146 0.005992
159 0.006012
168 0.006982
176 0.00699
190 0.005981
194 0.005985
171 0.005991
109 0.006969
69 0.006956
78 0.004991
100 0.005
132 0.005988
139 0.005991
134 0.005954
126 0.007942
131 0.007941
143 0.005984
158 0.005957
168 0.005986
175 0.006984
182 0.006974
191 0.005989
192 0.00502
108 0.006974
63 0.006005
61 0.00594
82 0.007967
103 0.007977
126 0.005974
129 0.005987
122 0.005976
117 0.006942
123 0.007972
137 0.006012
149 0.006017
161 0.006989
166 0.006986
173 0.005982
178 0.007952
143 0.007951
73 0.00601
36 0.005984
41 0.005995
71 0.007922
83 0.007974
99 0.006979
103 0.006019
98 0.006985
102 0.006964
112 0.006984
124 0.007979
138 0.007945
150 0.00698
154 0.007017
163 0.007007
164 0.006971
124 0.006978
60 0.006987
32 0.006999
52 0.006969
67 0.00696
80 0.00698
92 0.006952
91 0.007986
89 0.006944
93 0.005943
104 0.006947
120 0.006984
132 0.006984
143 0.006981
154 0.006957
160 0.00696
139 0.006983
79 0.006982
36 0.00798
36 0.007941
55 0.006996
71 0.006975
86 0.006964
98 0.006917
97 0.00696
96 0.00696
109 0.00701
122 0.007007
139 0.00698
146 0.006957
156 0.006948
166 0.006971
172 0.006977
156 0.006953
99 0.005971
54 0.00601
53 0.005983
72 0.005978
102 0.006977
116 0.006977
116 0.00695
112 0.006948
112 0.006982
123 0.006979
135 0.005982
148 0.005942
156 0.005994
165 0.005968
173 0.005969
178 0.00599
125 0.00599
73 0.00599
62 0.006994
83 0.006954
105 0.005985
125 0.006976
133 0.005976
124 0.00596
118 0.005981
123 0.006018
135 0.005967
148 0.00598
162 0.005992
170 0.005989
179 0.005949
172 0.005986
119 0.006953
60 0.005949
42 0.006029
68 0.005953
89 0.005934
106 0.006018
114 0.005989
111 0.005947
106 0.005959
114 0.006009
129 0.005975
139 0.004992
148 0.00498
155 0.004978
163 0.004981
167 0.005001
133 0.00498
64 0.005984
29 0.005976
34 0.005992
66 0.006004
80 0.006
96 0.005958
95 0.00501
92 0.004971
95 0.004948
106 0.00499
122 0.004995
135 0.005001
144 0.004987
151 0.005032
160 0.004944
156 0.005951
102 0.00499
33 0.005969
31 0.004993
51 0.005013
69 0.005026
84 0.004982
97 0.004995
97 0.004986
96 0.004991
101 0.005032
119 0.004978
131 0.00399
142 0.005001
153 0.004977
162 0.004992
167 0.004987
160 0.004981
107 0.005013
50 0.004987
45 0.004985
67 0.004964
87 0.005015
116 0.004976
120 0.003991
115 0.004984
114 0.003954
126 0.003989
141 0.003976
155 0.003987
165 0.004986
173 0.004985
186 0.004936
191 0.00497
182 0.004954
85 0.004001
60 0.004991
74 0.00401
99 0.003991
126 0.003993
137 0.003993
136 0.003991
124 0.004032
124 0.003979
138 0.004953
152 0.004953
164 0.003992
176 0.003993
186 0.00398
194 0.003982
190 0.003944
119 0.00397
67 0.004011
60 0.004014
83 0.00399
108 0.002962
131 0.003957
135 0.003946
126 0.00399
122 0.003995
131 0.003973
144 0.004032
155 0.003956
166 0.00398
172 0.003981
180 0.003988
185 0.004021
161 0.00399
68 0.00395
36 0.003961
46 0.002994
83 0.002994
99 0.002993
108 0.002994
105 0.002959
99 0.004
105 0.004017
116 0.004019
129 0.003989
140 0.002989
152 0.002994
160 0.002993
168 0.002996
161 0.002992
102 0.002993
45 0.002992
36 0.003049
61 0.002992
82 0.003019
98 0.003991
104 0.003991
101 0.002995
100 0.003991
107 0.002966
118 0.002994
140 0.00302
152 0.002994
161 0.002992
170 0.002993
177 0.002993
166 0.002999
109 0.00402
57 0.002993
51 0.002038
81 0.003026
100 0.002993
116 0.002994
120 0.002992
114 0.002993
115 0.003024
125 0.002992
137 0.003028
154 0.002995
161 0.003003
168 0.002992
177 0.002024
183 0.001995
161 0.001995
102 0.001996
59 0.00199
78 0.00298
101 0.00302
119 0.002992
130 0.003029
122 0.003028
113 0.002992
117 0.001994
128 0.002039
140 0.002038
152 0.001995
160 0.001955
170 0.001993
171 0.001995
145 0.001996
79 0.002041
38 0.002038
46 0.002022
68 0.002026
83 0.001997
97 0.002029
101 0.002037
96 0.001998
98 0.001991
113 0.001995
123 0.001962
133 0.001994
141 0.001996
150 0.002023
158 0.001004
157 0.000993
118 0.000999
55 0.001996
28 0.001996
44 0.001996
66 0.001996
86 0.001954
95 0.001997
94 0.001996
95 0.001031
102 0.00201
118 0.000999
132 0.000998
142 0.000998
151 0.000947
160 0.000958
169 0.000997
160 0.001964
82 0.001995
46 0.001996
51 0.002032
72 0.000997
89 0.000997
109 0.000998
112 0.000996
107 0.001997
105 0.001998
112 0.000998
129 0.000997
143 0.000998
153 0.000998
161 0.0
168 0.00203
170 0.001066
145 0.000999
68 0.000998
47 0.001028
59 0.000998
80 0.000998
97 0.00099
114 0.000997
111 0.000995
107 0.000998
116 0.002025
128 0.000999
138 0.000995
146 0.0
155 0.000999
164 0.000998
171 0.000997
172 0.000998
133 0.000998
64 0.000998
38 0.000959
56 0.0
76 0.0
88 0.0
94 0.0
94 0.0
94 0.0
102 0.0
114 0.0
126 0.0
136 0.001004
144 0.001
156 0.000963
163 0.0
148 0.0
90 0.0
46 0.0
45 0.0
64 0.0
84 0.0
100 0.0
107 0.0
105 0.0
104 0.0
118 0.0
131 0.0
144 0.0
154 0.0
161 0.0
169 0.0
174 0.0
158 0.0
100 0.0
59 0.0
60 0.0
92 0.0
115 0.0
122 0.0
118 0.002031
112 0.002025
118 0.0
130 0.0
143 0.001008
152 0.001024
158 0.000998
169 0.001021
173 0.0
139 0.0
74 0.0
47 0.0
55 0.002023
76 0.002034
97 0.0
112 0.0
114 0.0
109 0.002027
109 0.002023
120 0.0
133 0.0
149 0.000968
153 0.000998
163 0.0
170 0.002006
168 0.00099
102 0.0
47 0.0
38 0.0
54 0.002018
72 0.002031
93 0.0
103 0.0
104 0.002032
102 0.000962
111 0.000967
123 0.000968
136 0.001039
148 0.001025
161 0.0
172 0.0
178 0.0
171 0.002029
116 0.002031
51 0.0
61 0.001994
92 0.000956
110 0.0
124 0.0
125 0.001038
119 0.001995
121 0.000965
132 0.000973
147 0.000947
160 0.001022
171 0.002022
179 0.0
192 0.002003
182 0.0
127 0.0
70 0.0
61 0.001994
83 0.00202
117 0.0
135 0.000965
144 0.000964
135 0.001996
123 0.002006
133 0.0
148 0.002005
163 0.0
169 0.0
178 0.000992
184 0.002024
185 0.00202
119 0.000994
58 0.001989
43 0.002
61 0.002992
84 0.00299
110 0.00198
116 0.001962
107 0.001985
108 0.001981
116 0.000987
127 0.001996
139 0.002033
152 0.000994
158 0.000992
166 0.001995
168 0.002984
146 0.002994
55 0.001967
30 0.002969
55 0.001954
73 0.00198
90 0.001993
99 0.001994
98 0.00206
94 0.002031
99 0.001991
110 0.001035
123 0.00302
136 0.002962
148 0.001994
161 0.002965
164 0.001989
131 0.001996
65 0.001986
38 0.001969
48 0.00299
79 0.001982
97 0.001994
110 0.001992
113 0.002995
108 0.003029
112 0.002001
124 0.003005
137 0.00299
152 0.000997
161 0.001986
171 0.001986
179 0.003994
176 0.003999
106 0.001994
58 0.00199
57 0.001031
79 0.003018
118 0.001999
131 0.003011
128 0.00299
114 0.00099
115 0.001006
127 0.002009
140 0.004017
152 0.004035
162 0.001997
171 0.002003
178 0.00201
169 0.004021
68 0.001985
41 0.002982
52 0.003991
84 0.001023
104 0.001995
118 0.001994
118 0.004038
111 0.00399
113 0.001986
123 0.001997
136 0.001996
147 0.003989
161 0.001984
170 0.00399
178 0.004
146 0.002961
71 0.002984
36 0.000997
42 0.004026
63 0.004014
88 0.00202
103 0.001974
105 0.001998
101 0.003989
103 0.001994
115 0.003992
128 0.004976
144 0.002986
153 0.002987
161 0.002996
169 0.005012
172 0.00502
116 0.002983
56 0.002992
43 0.002991
62 0.004034
97 0.002005
115 0.003996
122 0.004977
117 0.002995
116 0.002992
126 0.002969
139 0.004994
153 0.004988
166 0.002996
173 0.002994
184 0.003001
192 0.00501
159 0.002989
91 0.004987
57 0.004979
75 0.003
103 0.002993
122 0.002992
137 0.00496
136 0.004985
124 0.004991
122 0.002969
135 0.002993
148 0.003948
168 0.004009
175 0.003989
183 0.006013
189 0.005967
155 0.003019
83 0.00299
48 0.004011
57 0.004983
83 0.00498
110 0.002993
123 0.002999
123 0.003033
115 0.00398
121 0.003991
134 0.006019
148 0.005973
160 0.003991
168 0.00399
178 0.003989
185 0.004985
181 0.004986
97 0.002992
40 0.002992
47 0.003985
70 0.003999
86 0.00399
103 0.005963
108 0.005979
104 0.004006
106 0.003993
115 0.003992
129 0.005995
142 0.005974
157 0.003997
164 0.003975
178 0.003975
177 0.003968
134 0.004986
66 0.005999
41 0.006044
63 0.003992
86 0.003992
105 0.003988
119 0.005983
121 0.005984
116 0.004959
121 0.00497
143 0.004962
156 0.004984
168 0.004972
176 0.005986
184 0.005976
197 0.004015
198 0.003991
155 0.004014
80 0.00693
53 0.005975
77 0.004979
104 0.004994
135 0.00499
137 0.004984
128 0.004986
121 0.005973
127 0.006988
147 0.004996
161 0.005925
172 0.00599
181 0.006959
189 0.006979
197 0.004937
189 0.004995
81 0.004959
53 0.004996
68 0.004986
98 0.006947
121 0.006995
139 0.005004
136 0.004947
128 0.005958
128 0.005016
142 0.007942
157 0.007977
169 0.005965
181 0.006982
194 0.004989
201 0.004981
199 0.00502
141 0.006969
62 0.006979
42 0.004985
68 0.005949
94 0.006002
117 0.007967
123 0.007972
120 0.005985
117 0.007981
127 0.005011
143 0.005981
157 0.005011
166 0.006988
174 0.006978
187 0.004986
194 0.005985
188 0.005979
102 0.007949
59 0.007929
46 0.005984
92 0.007975
115 0.005021
130 0.005976
130 0.00594
122 0.007975
121 0.00798
136 0.00598
150 0.005953
165 0.00598
176 0.007957
187 0.00795
196 0.005964
204 0.00796
166 0.005955
89 0.004985
53 0.006939
75 0.006966
105 0.006944
126 0.005963
138 0.006952
134 0.006019
120 0.007966
120 0.007952
132 0.005966
156 0.007978
168 0.005974
175 0.005977
181 0.006017
190 0.00693
181 0.006979
95 0.00698
56 0.00698
46 0.006978
78 0.006977
101 0.006974
126 0.007988
121 0.007969
112 0.006009
112 0.005997
129 0.006964
144 0.006976
154 0.006916
163 0.00696
170 0.006945
179 0.006953
180 0.006962
138 0.00698
34 0.006988
30 0.006985
54 0.006932
81 0.006973
95 0.006967
100 0.006947
97 0.006939
96 0.006941
102 0.006975
118 0.006977
133 0.007013
143 0.006986
155 0.005984
165 0.007009
170 0.00601
140 0.005954
71 0.005989
32 0.006973
41 0.006963
68 0.00697
88 0.00697
109 0.006978
114 0.006948
109 0.006947
112 0.006962
124 0.005986
139 0.005987
155 0.005988
163 0.005987
172 0.006004
182 0.00598
185 0.005931
166 0.006949
81 0.006964
50 0.006972
63 0.006973
103 0.005966
122 0.005978
127 0.005984
116 0.005994
110 0.005981
117 0.005949
130 0.005943
142 0.006004
156 0.005985
164 0.00499
174 0.005012
180 0.006919
137 0.005972
66 0.006011
37 0.005985
57 0.006016
81 0.006015
97 0.005974
109 0.005992
108 0.00597
103 0.005979
107 0.005981
119 0.005926
132 0.005987
149 0.005009
157 0.005027
163 0.004988
174 0.005975
174 0.005986
129 0.005999
54 0.005976
24 0.00598
43 0.00597
64 0.005986
79 0.004963
93 0.004959
96 0.005018
93 0.004986
100 0.004982
120 0.004985
133 0.005013
144 0.004975
155 0.006021
164 0.005984
175 0.005994
180 0.005978
160 0.004999
90 0.004992
40 0.004994
60 0.004987
83 0.005013
107 0.004967
118 0.00497
118 0.004989
111 0.004963
115 0.004983
132 0.005938
148 0.004014
162 0.004988
172 0.004985
185 0.00495
194 0.005
199 0.004991
165 0.004987
90 0.004982
53 0.004967
66 0.004947
94 0.004946
114 0.003989
133 0.003993
132 0.003966
120 0.003989
125 0.003991
138 0.004983
150 0.004982
160 0.004985
170 0.004995
177 0.004959
182 0.004017
188 0.003989
186 0.003996
112 0.00399
45 0.00399
45 0.004035
72 0.003989
91 0.003987
105 0.004003
107 0.003995
102 0.004985
103 0.005003
113 0.004953
126 0.00399
138 0.004009
149 0.003947
158 0.003944
171 0.003991
179 0.003989
183 0.003964
154 0.003979
78 0.00399
32 0.004014
49 0.002934
76 0.003947
95 0.002957
110 0.002967
117 0.004022
115 0.003985
128 0.003982
144 0.003989
160 0.003949
171 0.00399
179 0.004016
195 0.00399
204 0.00299
216 0.002993
222 0.002992
192 0.003986
88 0.002984
54 0.003016
88 0.004001
112 0.003979
127 0.003996
132 0.00399
125 0.003989
114 0.003946
121 0.003977
134 0.003972
149 0.002994
162 0.002993
173 0.002987
179 0.003954
191 0.002934
191 0.002026
139 0.002986
67 0.00295
40 0.002993
63 0.002992
87 0.003001
105 0.002949
116 0.002991
112 0.00296
105 0.002992
108 0.002987
129 0.002994
138 0.002992
147 0.002992
154 0.002022
161 0.001992
168 0.001979
170 0.002965
128 0.001996
53 0.002993
20 0.002992
31 0.003019
65 0.002992
87 0.002993
96 0.002988
92 0.002992
91 0.002024
97 0.002004
109 0.001996
125 0.002028
136 0.002031
143 0.001949
151 0.001996
159 0.002021
165 0.003022
127 0.001995
37 0.002974
20 0.002025
37 0.001996
59 0.001971
73 0.001995
88 0.001995
89 0.001996
86 0.001966
90 0.001995
99 0.002027
120 0.001987
130 0.000999
142 0.000997
152 0.000995
160 0.002024
166 0.002024
152 0.001995
65 0.001949
32 0.001995
41 0.001996
68 0.002022
89 0.002001
108 0.001993
106 0.002019
104 0.000998
110 0.001
123 0.000997
136 0.001006
148 0.000965
158 0.001995
166 0.001996
175 0.001995
182 0.000998
177 0.002024
77 0.001031
43 0.000998
60 0.000998
84 0.001043
103 0.001999
115 0.000997
114 0.002008
102 0.000998
106 0.002016
119 0.001996
131 0.002003
141 0.002024
153 0.001033
160 0.000972
169 0.001009
167 0.001001
123 0.000997
55 0.001033
30 0.00099
50 0.001995
74 0.001997
91 0.002033
101 0.002033
100 0.001048
94 0.001005
103 0.001028
120 0.000997
133 0.000968
144 0.000963
151 0.000962
157 0.000961
168 0.000997
165 0.002049
124 0.002037
56 0.0
30 0.0
58 0.0
79 0.0
95 0.0
102 0.000997
97 0.000998
95 0.000997
103 0.000969
115 0.000998
133 0.00099
144 0.000998
152 0.0
159 0.0
170 0.0
162 0.0
104 0.0
36 0.0
37 0.0
60 0.0
81 0.000999
100 0.000997
108 0.0
105 0.0
103 0.0
110 0.0
132 0.0
142 0.0
153 0.0
164 0.0
172 0.0
179 0.0
179 0.0
136 0.0
53 0.000998
45 0.0
66 0.0
91 0.0
117 0.0
117 0.0
111 0.0
110 0.0
121 0.0
136 0.0
149 0.0
161 0.0
166 0.002034
174 0.001998
177 0.000997
167 0.000999
53 0.0
41 0.0
58 0.0
81 0.002035
97 0.001981
107 0.000992
103 0.0
100 0.0
105 0.002025
117 0.001996
133 0.000964
143 0.002
152 0.0
158 0.000998
166 0.001005
161 0.000998
111 0.002001
31 0.0
25 0.0
45 0.0
62 0.002027
74 0.002023
89 0.0
87 0.001978
90 0.000994
99 0.0
113 0.0
125 0.002025
136 0.001997
148 0.0
152 0.001
162 0.000952
164 0.002068
148 0.002031
63 0.0
28 0.001993
42 0.001974
64 0.0
77 0.0
90 0.0
94 0.002026
93 0.002001
99 0.00096
111 0.000974
125 0.000995
135 0.002022
146 0.001036
160 0.001996
167 0.002
175 0.0
172 0.0
127 0.0
59 0.002005
35 0.001997
55 0.0
73 0.0
88 0.0
102 0.002036
105 0.001988
104 0.001996
111 0.002021
126 0.000997
144 0.0
154 0.0
164 0.002019
173 0.001962
181 0.0
190 0.0
193 0.0
176 0.001998
109 0.002021
52 0.002023
70 0.001992
102 0.00097
118 0.0
128 0.0
126 0.001995
122 0.001968
128 0.0
142 0.0
159 0.0
171 0.002022
178 0.001994
189 0.001996
195 0.001991
203 0.000962
203 0.000969
165 0.0
94 0.002962
59 0.002989
77 0.001967
105 0.00103
125 0.002018
136 0.002022
135 0.002035
124 0.00299
132 0.002993
151 0.002013
164 0.001962
174 0.001972
182 0.00299
188 0.002966
198 0.002
205 0.002002
207 0.001045
182 0.002993
106 0.002024
49 0.002
71 0.003019
106 0.001983
123 0.001986
130 0.001967
126 0.002985
121 0.002984
127 0.002004
141 0.00198
156 0.001984
168 0.002994
183 0.001026
193 0.004
198 0.003993
207 0.001992
204 0.00196
154 0.002003
75 0.003001
42 0.002993
55 0.002992
91 0.002003
109 0.001983
121 0.00199
117 0.002012
115 0.001964
120 0.003986
134 0.003983
153 0.000997
164 0.001997
174 0.001995
183 0.003017
189 0.002985
199 0.002
200 0.001995
163 0.001962
52 0.002001
44 0.001962
69 0.003988
97 0.003964
121 0.001988
126 0.001993
122 0.002947
118 0.00496
123 0.004961
142 0.001053
157 0.001962
169 0.001999
184 0.001965
190 0.002992
202 0.003983
208 0.00399
174 0.002021
101 0.002027
60 0.001996
67 0.003992
95 0.003993
129 0.001032
143 0.002032
138 0.002022
118 0.001967
122 0.001997
134 0.00399
148 0.003989
161 0.002027
168 0.001991
173 0.001996
178 0.003989
176 0.003993
112 0.002992
49 0.002976
33 0.002992
70 0.001966
90 0.001995
104 0.004988
105 0.00399
98 0.001993
98 0.001997
107 0.001994
120 0.003999
133 0.003987
145 0.002964
153 0.002994
160 0.003006
163 0.002974
119 0.002965
51 0.004981
23 0.004983
44 0.001996
66 0.002979
80 0.001989
92 0.003984
94 0.004987
89 0.002992
94 0.002989
106 0.002983
128 0.002966
138 0.002986
145 0.004992
154 0.005974
162 0.002985
143 0.002952
82 0.003034
37 0.00601
36 0.005957
63 0.003019
81 0.002999
97 0.002995
102 0.00298
98 0.003007
103 0.00496
114 0.004988
129 0.004981
144 0.003029
154 0.002029
166 0.004
172 0.005997
163 0.00601
91 0.002994
53 0.002981
71 0.002983
95 0.003003
117 0.003
129 0.006001
122 0.005985
112 0.003993
119 0.003949
132 0.002993
147 0.005987
156 0.005993
170 0.004003
177 0.005964
146 0.002996
89 0.002989
60 0.002995
68 0.005948
92 0.005991
125 0.003991
134 0.004017
126 0.004008
116 0.006013
119 0.00596
134 0.004
151 0.005997
163 0.003948
171 0.002959
170 0.002978
129 0.007017
64 0.006001
42 0.003961
61 0.003978
82 0.003979
102 0.006034
112 0.006022
105 0.003993
102 0.006018
115 0.003985
129 0.004981
138 0.002987
148 0.006962
156 0.007012
156 0.004983
110 0.003977
53 0.00299
38 0.006018
52 0.00701
79 0.003989
102 0.006016
105 0.003987
99 0.003955
99 0.004991
111 0.007009
123 0.007008
137 0.004016
148 0.003993
157 0.003986
155 0.006987
116 0.006998
49 0.004969
47 0.00602
74 0.004979
96 0.005001
111 0.004021
112 0.007012
109 0.006982
112 0.004022
124 0.003994
138 0.003989
148 0.006959
159 0.006929
170 0.005002
145 0.007005
68 0.004998
48 0.004994
63 0.004956
86 0.007025
108 0.007009
123 0.004985
117 0.004985
110 0.004027
114 0.004981
128 0.006981
145 0.007989
161 0.006943
169 0.007953
163 0.005028
114 0.004961
64 0.004999
56 0.007962
82 0.007995
105 0.004989
125 0.004974
127 0.005006
118 0.006991
115 0.007979
132 0.007978
148 0.00797
158 0.004986
168 0.004987
173 0.00503
141 0.007978
70 0.007982
36 0.004991
49 0.005014
71 0.005044
96 0.007945
106 0.007918
103 0.007979
103 0.007969
115 0.005976
128 0.005986
139 0.005982
154 0.007986
164 0.007991
164 0.004987
125 0.005988
63 0.005031
42 0.007968
68 0.006049
94 0.007009
112 0.006937
117 0.006029
115 0.005968
117 0.005958
138 0.007979
149 0.007987
165 0.005984
174 0.005984
184 0.005984
179 0.00698
99 0.005935
50 0.006993
59 0.006975
83 0.005985
104 0.005953
121 0.005968
122 0.006975
117 0.00602
120 0.005989
134 0.006918
148 0.005954
164 0.007011
179 0.005984
187 0.006962
162 0.00698
96 0.006022
61 0.006044
67 0.005982
101 0.006968
127 0.006942
142 0.005974
138 0.005958
127 0.005027
133 0.006988
150 0.00602
168 0.006973
177 0.007017
187 0.005984
188 0.004986
141 0.004986
56 0.006981
48 0.006983
69 0.00699
100 0.006001
120 0.005956
124 0.005935
116 0.00595
118 0.005949
130 0.006991
144 0.006966
160 0.006933
167 0.006032
178 0.006014
178 0.006982
121 0.005942
43 0.005984
40 0.005984
61 0.005941
94 0.005979
108 0.005954
109 0.006003
107 0.00595
111 0.005979
118 0.006986
138 0.006969
151 0.00599
160 0.005981
176 0.005986
175 0.005938
126 0.005987
44 0.005962
51 0.005946
75 0.005984
98 0.005953
120 0.005025
124 0.004989
120 0.005984
122 0.004991
133 0.005987
152 0.006011
165 0.005993
176 0.005987
195 0.005975
185 0.005976
120 0.005991
63 0.006015
62 0.005974
88 0.005969
113 0.004986
133 0.004987
138 0.004987
127 0.004981
127 0.005022
137 0.005975
162 0.005976
173 0.005997
185 0.005969
194 0.005978
186 0.005986
126 0.004987
71 0.004986
66 0.005045
91 0.004985
127 0.004976
147 0.00498
150 0.004983
134 0.00592
137 0.004989
150 0.005987
163 0.005024
179 0.00499
189 0.004977
195 0.004977
171 0.004987
96 0.004981
47 0.004987
60 0.004987
100 0.004999
119 0.004985
123 0.004987
118 0.004988
114 0.003996
124 0.005
137 0.004982
151 0.004995
161 0.005
173 0.004978
180 0.004987
139 0.004997
39 0.004942
38 0.004964
59 0.003989
79 0.003993
99 0.003978
107 0.003961
104 0.004986
105 0.003943
113 0.003989
125 0.004952
139 0.004017
154 0.004976
169 0.00399
164 0.004965
110 0.004959
52 0.004015
39 0.003988
55 0.003962
86 0.003995
106 0.004009
116 0.004018
114 0.00395
112 0.003976
122 0.003986
143 0.003963
159 0.003989
172 0.003988
183 0.003993
186 0.004016
146 0.003986
68 0.003988
59 0.003991
80 0.003992
106 0.003989
131 0.003991
140 0.002963
128 0.003011
131 0.003953
145 0.002984
161 0.004022
173 0.00399
185 0.003991
196 0.003963
183 0.003991
120 0.003993
70 0.003956
68 0.003953
98 0.003952
130 0.002992
143 0.002945
133 0.002988
126 0.002981
132 0.003026
147 0.003022
162 0.003987
173 0.003955
183 0.003988
184 0.003952
138 0.003975
55 0.00399
50 0.002947
79 0.002991
97 0.002997
113 0.002992
113 0.003007
107 0.003005
110 0.002947
121 0.002995
134 0.00295
145 0.003946
157 0.003991
168 0.00296
129 0.002992
46 0.002994
32 0.002996
47 0.003015
70 0.002969
91 0.002988
107 0.003
106 0.002987
103 0.002995
107 0.002994
121 0.002994
139 0.001993
156 0.002033
169 0.003019
163 0.003
104 0.002991
46 0.003014
36 0.003008
61 0.002966
79 0.003007
98 0.002959
107 0.002002
107 0.002034
110 0.002033
121 0.001996
135 0.002014
151 0.002009
164 0.001983
174 0.001997
171 0.001996
120 0.002993
54 0.002993
54 0.001993
75 0.001992
100 0.001996
129 0.001995
128 0.001995
122 0.001994
130 0.001995
144 0.001995
157 0.001995
170 0.001994
184 0.001982
194 0.001991
177 0.002036
111 0.002042
63 0.001996
79 0.001995
104 0.001994
129 0.002031
141 0.001945
132 0.001995
125 0.00199
133 0.002025
147 0.001026
164 0.000999
174 0.000967
184 0.002
187 0.002022
100 0.002034
54 0.001995
54 0.002024
85 0.00199
108 0.001994
124 0.000997
125 0.000999
118 0.000999
121 0.000997
133 0.000998
147 0.001014
156 0.001039
175 0.001004
179 0.002012
144 0.002005
52 0.001004
37 0.001991
53 0.000992
75 0.000987
94 0.000997
110 0.000995
110 0.000998
106 0.000997
113 0.001017
134 0.001001
148 0.00201
158 0.001968
173 0.001966
174 0.00204
128 0.000998
62 0.000989
41 0.001001
63 0.000985
86 0.000998
109 0.00102
120 0.001024
116 0.002002
120 0.000999
131 0.001995
150 0.002005
163 0.00197
176 0.0
189 0.0
195 0.0
135 0.002004
68 0.001017
53 0.000991
71 0.001003
115 0.000996
135 0.000972
136 0.001988
129 0.001007
131 0.0
143 0.0
158 0.0
171 0.0
183 0.0
199 0.0
199 0.0
152 0.000988
59 0.000996
65 0.001
90 0.000997
116 0.0
139 0.0
138 0.0
129 0.0
129 0.0
140 0.0
160 0.0
170 0.0
179 0.0
191 0.0
151 0.0
70 0.0
36 0.0
51 0.0
76 0.0
97 0.0
111 0.0
112 0.0
109 0.001983
114 0.0
137 0.0
149 0.0
163 0.000993
176 0.0
180 0.0
146 0.002988
70 0.001996
34 0.0
52 0.0
75 0.0
96 0.00199
110 0.001988
110 0.001999
111 0.002004
124 0.001008
139 0.000948
154 0.000964
169 0.001998
182 0.00299
193 0.0
167 0.0
89 0.0
48 0.002989
56 0.002024
100 0.001995
124 0.002007
135 0.0
130 0.0
127 0.0
135 0.002001
152 0.001988
173 0.000998
184 0.000983
198 0.000984
210 0.002988
206 0.002972
94 0.002978
63 0.001998
86 0.0
117 0.0
145 0.0
158 0.001997
150 0.001997
137 0.0
144 0.000952
159 0.001003
175 0.003033
187 0.002003
206 0.00199
210 0.001998
137 0.0
65 0.0
48 0.0
68 0.001995
96 0.001979
120 0.001997
130 0.0
123 0.000969
118 0.0
124 0.00201
146 0.001013
158 0.001996
166 0.002008
182 0.001003
176 0.0
112 0.0
43 0.002048
29 0.001999
54 0.0
77 0.0
98 0.0
106 0.001997
101 0.0
102 0.001965
113 0.001986
131 0.000935
144 0.0
154 0.000991
165 0.001978
165 0.002012
93 0.0
35 0.0
27 0.0
45 0.002001
81 0.0
98 0.001995
101 0.002
96 0.0
100 0.0
113 0.000962
127 0.001993
140 0.001995
155 0.0
166 0.0
164 0.0
115 0.002987
38 0.0
48 0.00292
70 0.002009
102 0.0
117 0.0
117 0.000959
112 0.002991
115 0.002991
133 0.0
146 0.0
156 0.0
168 0.002953
184 0.0
168 0.002993
99 0.003016
46 0.000992
57 0.0
83 0.002006
107 0.001973
126 0.003
124 0.000962
114 0.001996
118 0.002965
142 0.002988
155 0.001997
165 0.002986
178 0.002993
186 0.002024
152 0.001985
80 0.002038
48 0.003989
57 0.003991
88 0.002005
113 0.001997
127 0.002001
116 0.001997
112 0.001981
123 0.002995
135 0.002992
148 0.002962
159 0.00202
169 0.002998
170 0.001991
124 0.003992
50 0.003983
25 0.001999
44 0.002013
76 0.001984
92 0.001978
97 0.002012
95 0.002998
96 0.003002
108 0.001991
123 0.002992
136 0.002991
145 0.004025
157 0.003998
165 0.002992
123 0.002023
24 0.002002
23 0.001989
41 0.001997
59 0.004951
78 0.004997
92 0.001979
92 0.003007
92 0.003003
101 0.003984
114 0.003978
133 0.002029
144 0.00203
164 0.002022
167 0.002966
128 0.001974
61 0.003996
34 0.005012
53 0.001999
74 0.001964
98 0.002002
113 0.005013
115 0.003956
112 0.002004
119 0.001984
139 0.003989
156 0.002989
169 0.002992
180 0.004998
190 0.004987
178 0.001974
107 0.001988
54 0.001981
52 0.004983
76 0.004987
108 0.001988
130 0.001999
128 0.001984
122 0.002953
128 0.002964
141 0.00498
156 0.004994
172 0.003028
182 0.002024
194 0.002988
194 0.005009
139 0.004987
55 0.002988
52 0.001995
91 0.002957
115 0.001988
130 0.002967
129 0.005025
124 0.005016
128 0.002958
141 0.003007
154 0.002991
167 0.005011
177 0.004994
192 0.002993
194 0.002993
77 0.002032
37 0.002962
41 0.002988
64 0.002987
86 0.005983
106 0.006012
114 0.002959
113 0.002957
114 0.003014
125 0.005002
137 0.005025
160 0.004981
172 0.005994
190 0.003992
195 0.00399
164 0.003016
78 0.00601
38 0.006017
50 0.002982
75 0.002942
97 0.002956
115 0.006982
120 0.006019
120 0.005929
129 0.006016
148 0.003989
165 0.00399
178 0.00399
191 0.00601
206 0.006023
214 0.002986
174 0.002977
90 0.002994
54 0.00602
64 0.005983
111 0.006974
136 0.006013
146 0.003998
140 0.003989
136 0.003999
145 0.00603
161 0.006034
185 0.003019
198 0.00297
212 0.003033
227 0.006981
231 0.007007
127 0.006965
66 0.006986
68 0.003996
99 0.003989
128 0.004009
148 0.006983
150 0.006037
139 0.004011
141 0.003956
156 0.00399
175 0.006984
189 0.00698
208 0.006976
222 0.006966
218 0.004001
136 0.003985
58 0.003984
44 0.006963
67 0.006957
103 0.002987
126 0.004987
133 0.003971
126 0.007011
120 0.007022
135 0.00698
151 0.006977
169 0.004985
177 0.005016
189 0.004009
199 0.006986
182 0.006999
72 0.003978
29 0.003978
34 0.004018
68 0.007978
93 0.00795
111 0.006982
111 0.006986
107 0.004967
116 0.003991
131 0.004986
148 0.006984
163 0.00798
174 0.004984
190 0.005019
192 0.005024
147 0.004991
52 0.007984
43 0.007975
79 0.00797
99 0.00798
127 0.004985
127 0.004993
117 0.004984
115 0.007979
133 0.007976
150 0.005021
162 0.004988
175 0.004986
198 0.007974
204 0.005021
120 0.007949
75 0.008012
59 0.004998
85 0.004979
117 0.003988
153 0.00693
154 0.008001
141 0.002992
137 0.003991
147 0.005019
169 0.007979
189 0.005983
206 0.007975
215 0.007939
189 0.004978
102 0.004962
47 0.005983
57 0.006971
85 0.007005
112 0.005978
131 0.005998
130 0.005996
115 0.005998
121 0.005939
140 0.007963
150 0.007979
165 0.006956
177 0.005003
184 0.005948
124 0.006984
45 0.006973
20 0.005988
34 0.00499
56 0.005991
91 0.005954
97 0.006955
91 0.007979
90 0.007941
100 0.006938
114 0.006983
127 0.00599
139 0.006995
151 0.006976
152 0.00495
100 0.005991
29 0.005984
11 0.005983
29 0.005983
49 0.007976
67 0.007967
76 0.006942
75 0.006992
77 0.005947
89 0.006989
104 0.005987
117 0.006012
128 0.006009
139 0.004987
140 0.005984
83 0.005984
14 0.00695
10 0.006011
33 0.005974
47 0.005973
61 0.005982
76 0.005975
78 0.005974
79 0.006014
88 0.005014
102 0.00594
129 0.006937
140 0.006945
148 0.006982
161 0.006012
143 0.006014
50 0.005934
19 0.005984
29 0.005971
48 0.00602
63 0.005962
88 0.005955
94 0.005015
94 0.006991
102 0.005989
117 0.006024
133 0.00601
145 0.006012
160 0.005938
173 0.005989
180 0.00599
167 0.005975
101 0.005975
39 0.005996
44 0.005018
76 0.005011
98 0.004989
113 0.005984
112 0.006018
110 0.006012
119 0.005984
131 0.005955
145 0.005996
154 0.00598
165 0.005948
178 0.005025
189 0.004997
141 0.004985
63 0.004973
31 0.004959
40 0.004962
59 0.005981
82 0.005956
100 0.005979
105 0.005974
105 0.00598
110 0.005979
126 0.005983
141 0.004986
161 0.004976
172 0.004986
184 0.005016
192 0.005025
189 0.005015
101 0.004987
48 0.004988
45 0.004979
66 0.005983
86 0.006024
114 0.004988
123 0.004984
123 0.005025
131 0.004982
146 0.004987
162 0.005015
177 0.005012
191 0.004984
202 0.004991
214 0.00499
213 0.005014
156 0.005012
62 0.004975
56 0.005012
88 0.004988
108 0.004983
124 0.004986
127 0.005018
121 0.005025
125 0.004985
138 0.00499
154 0.004991
166 0.005016
176 0.00399
190 0.003993
203 0.003991
167 0.005001
78 0.004995
38 0.004981
45 0.005045
67 0.004987
95 0.004989
113 0.003969
117 0.004979
113 0.003994
116 0.004018
131 0.003953
150 0.004001
166 0.004958
177 0.004017
189 0.003946
202 0.005014
197 0.005024
128 0.004987
49 0.004997
51 0.004011
77 0.003957
105 0.003979
130 0.003985
139 0.004018
134 0.004016
142 0.004024
156 0.004023
173 0.003989
187 0.003989
200 0.004955
218 0.004929
231 0.003945
226 0.003985
156 0.003998
79 0.003955
72 0.003981
102 0.003992
144 0.003989
159 0.00402
152 0.003971
139 0.003957
138 0.002992
153 0.002963
169 0.003985
183 0.002995
195 0.003991
209 0.003988
198 0.004027
115 0.004025
43 0.003991
49 0.003944
79 0.00399
108 0.002991
131 0.003028
132 0.002999
125 0.003982
127 0.002964
136 0.002938
148 0.002969
170 0.003028
181 0.004027
199 0.003985
188 0.00399
105 0.002994
37 0.002992
25 0.003025
56 0.002965
83 0.003005
104 0.002989
112 0.002997
107 0.002994
108 0.00396
122 0.004028
142 0.002995
155 0.003989
166 0.00299
176 0.002992
179 0.002992
108 0.003036
41 0.002991
30 0.002991
50 0.003031
80 0.003003
117 0.002993
121 0.002993
113 0.002994
116 0.003023
129 0.001996
145 0.001995
158 0.001995
177 0.002978
190 0.003
189 0.002998
137 0.00302
41 0.00302
50 0.002991
79 0.001999
121 0.002022
139 0.002027
135 0.002022
124 0.002023
126 0.001995
137 0.001995
158 0.001992
173 0.001999
188 0.002
206 0.00297
171 0.003026
93 0.001995
51 0.002037
70 0.001995
105 0.001995
141 0.001996
157 0.001995
149 0.002015
134 0.001995
140 0.001984
156 0.001989
182 0.002023
197 0.000998
209 0.000999
214 0.000999
147 0.001997
74 0.002029
55 0.001966
78 0.002027
113 0.001979
155 0.001986
157 0.001995
139 0.001991
132 0.002003
146 0.001025
163 0.000998
176 0.000998
190 0.000989
196 0.000948
164 0.00196
81 0.002019
35 0.001991
50 0.001985
80 0.001983
110 0.001994
124 0.002033
114 0.001034
112 0.000997
120 0.000997
139 0.001996
154 0.000998
164 0.000998
178 0.001997
182 0.001967
105 0.001976
33 0.000997
20 0.001996
59 0.000997
86 0.000999
106 0.000999
107 0.002025
100 0.000998
103 0.001996
115 0.002023
129 0.001999
143 0.001985
158 0.001994
172 0.0
173 0.0
69 0.000997
24 0.000998
28 0.000998
54 0.000997
94 0.00095
111 0.000997
111 0.000997
105 0.0
109 0.00097
124 0.0
144 0.0
153 0.0
174 0.0
186 0.0
188 0.0
140 0.0
38 0.000998
22 0.000998
44 0.000997
74 0.000997
100 0.000967
114 0.0
106 0.0
100 0.001
115 0.0
131 0.0
143 0.000997
154 0.0
168 0.0
179 0.000998
157 0.0
81 0.000997
34 0.0
34 0.0
70 0.0
104 0.0
115 0.0
108 0.0
105 0.0
117 0.001003
126 0.0
144 0.003036
154 0.003019
164 0.000965
176 0.000998
167 0.0
86 0.000953
15 0.0
28 0.002023
51 0.001951
80 0.00096
92 0.00095
92 0.0
92 0.003007
96 0.002991
112 0.0
126 0.0
139 0.0
150 0.002992
170 0.0
164 0.002992
107 0.003043
32 0.0
29 0.0
51 0.000949
75 0.002029
98 0.002062
109 0.001003
108 0.000993
108 0.001018
117 0.002983
141 0.0
152 0.00302
164 0.003021
182 0.0
190 0.0
165 0.000997
85 0.002991
41 0.002957
55 0.0
83 0.0
108 0.000969
128 0.001996
124 0.000985
120 0.001991
129 0.002991
145 0.0
158 0.0
168 0.0
179 0.00299
191 0.002983
187 0.0
123 0.0
57 0.0
45 0.001996
84 0.000968
110 0.001957
129 0.001991
127 0.000996
120 0.0
124 0.000995
138 0.002994
150 0.002985
164 0.003005
176 0.0
189 0.0
197 0.0
94 0.0
36 0.0
30 0.001995
54 0.002023
84 0.000967
104 0.001
110 0.000953
108 0.001997
107 0.00298
119 0.0
134 0.0
147 0.001006
167 0.0
180 0.0
188 0.002998
161 0.002996
58 0.0
33 0.0
46 0.0
70 0.001994
91 0.001994
114 0.001021
114 0.0
111 0.0
122 0.0
136 0.0
150 0.003006
163 0.002974
180 0.0
191 0.0
185 0.0
122 0.002999
56 0.002009
48 0.0
74 0.000959
98 0.001015
129 0.0
128 0.0
124 0.002962
128 0.002961
144 0.0
157 0.0
170 0.001004
180 0.002998
195 0.002995
207 0.0
176 0.0
59 0.0
54 0.0
79 0.0
107 0.002954
133 0.002993
141 0.0
130 0.0
124 0.0
132 0.002988
147 0.00299
164 0.0
174 0.002994
194 0.002994
194 0.002985
146 0.002989
69 0.002978
42 0.002974
65 0.0
92 0.0
115 0.001971
124 0.003004
120 0.002993
114 0.003009
121 0.002992
143 0.003002
155 0.001997
164 0.002992
174 0.004009
180 0.003956
116 0.002952
41 0.003002
22 0.002987
38 0.003001
60 0.003003
79 0.002989
98 0.00201
96 0.003949
99 0.001995
109 0.001973
123 0.002017
137 0.00397
149 0.003987
165 0.002006
170 0.002992
147 0.002983
77 0.004018
32 0.003983
39 0.002996
69 0.00396
100 0.002992
110 0.001979
108 0.001985
107 0.003976
115 0.004002
134 0.002991
148 0.002992
159 0.002002
168 0.003985
180 0.004982
171 0.002963
78 0.004986
37 0.002999
52 0.002018
78 0.003013
102 0.003947
120 0.003967
118 0.002
112 0.002002
117 0.001995
130 0.003981
144 0.004987
157 0.002001
174 0.004983
184 0.003004
159 0.003004
85 0.002993
43 0.00498
47 0.004979
80 0.003008
105 0.002954
123 0.001985
123 0.004987
117 0.004988
120 0.001957
138 0.004996
153 0.002996
163 0.002992
174 0.001996
185 0.005021
179 0.005021
77 0.003014
27 0.00203
28 0.003007
49 0.004951
71 0.004984
97 0.002023
103 0.004992
100 0.002978
106 0.00299
118 0.003004
133 0.004996
148 0.005951
161 0.002992
174 0.003007
182 0.002988
159 0.005979
80 0.005983
28 0.002991
44 0.004979
74 0.002057
96 0.001993
110 0.00298
110 0.004981
107 0.006025
119 0.00296
135 0.003022
150 0.00295
163 0.002959
175 0.005994
196 0.002992
195 0.005983
140 0.006022
48 0.001997
40 0.003001
63 0.003001
88 0.005947
112 0.005993
128 0.002984
122 0.002991
117 0.002946
126 0.006015
151 0.00298
165 0.005996
176 0.005986
192 0.002991
204 0.002981
200 0.00399
140 0.006036
68 0.005993
51 0.002992
77 0.003989
105 0.002959
131 0.00601
138 0.003004
130 0.005977
132 0.005964
149 0.00399
164 0.003939
176 0.003961
186 0.006977
197 0.006926
212 0.003027
200 0.002992
115 0.003996
44 0.005986
46 0.002992
73 0.00594
96 0.006972
120 0.003945
120 0.003975
116 0.004008
118 0.006938
131 0.006975
149 0.003947
162 0.003955
175 0.003019
186 0.006019
202 0.004009
178 0.005984
93 0.005986
35 0.003947
44 0.003983
71 0.004001
97 0.006942
119 0.006967
122 0.00401
118 0.003976
120 0.003988
134 0.006955
160 0.00399
175 0.006982
187 0.006985
205 0.004977
215 0.00499
196 0.004987
111 0.006977
52 0.006947
57 0.00399
88 0.003993
115 0.003955
136 0.006946
136 0.004997
129 0.006947
139 0.007925
154 0.004977
169 0.004984
183 0.003947
197 0.007978
207 0.007992
217 0.00399
188 0.003989
108 0.003991
60 0.007013
81 0.003951
123 0.007951
147 0.007977
149 0.004995
136 0.004984
129 0.004982
137 0.003996
151 0.007982
170 0.007937
179 0.005012
189 0.00499
200 0.003968
146 0.004944
60 0.004987
28 0.007963
49 0.00795
75 0.004997
100 0.005015
113 0.005017
109 0.007949
105 0.007937
110 0.005013
123 0.005
144 0.005987
156 0.00597
168 0.005997
181 0.007954
168 0.007969
91 0.004949
29 0.004985
22 0.004964
50 0.007967
66 0.00795
95 0.00595
104 0.005947
99 0.004987
103 0.00598
114 0.004986
133 0.007978
147 0.00795
158 0.00598
170 0.004983
178 0.005014
163 0.007981
93 0.007984
31 0.005985
38 0.005985
82 0.005995
106 0.005998
120 0.005989
116 0.007983
113 0.008003
122 0.005985
136 0.005014
151 0.005987
168 0.006982
181 0.007028
195 0.005946
202 0.005995
121 0.005983
55 0.005984
44 0.005984
77 0.007981
105 0.006985
130 0.00602
138 0.005984
128 0.005981
122 0.006979
133 0.005986
152 0.005929
161 0.005984
178 0.005979
191 0.006001
199 0.006955
164 0.006975
84 0.006981
45 0.005982
52 0.005935
79 0.005983
118 0.005987
135 0.005979
132 0.005947
121 0.005965
129 0.005971
148 0.005989
161 0.006963
171 0.005972
183 0.007035
196 0.006946
199 0.006016
144 0.005984
38 0.005976
22 0.005984
41 0.005977
72 0.005985
100 0.005982
106 0.006011
102 0.005962
105 0.004987
116 0.005984
131 0.006021
151 0.00598
163 0.006014
175 0.005987
185 0.005983
185 0.00599
106 0.006026
33 0.00596
42 0.005983
66 0.005982
89 0.005984
108 0.00599
114 0.005988
113 0.004991
117 0.005027
127 0.004991
142 0.00503
156 0.004994
170 0.006001
186 0.006936
195 0.005955
174 0.005964
93 0.005968
41 0.005971
41 0.004957
73 0.004973
96 0.004947
116 0.004985
122 0.004952
116 0.004988
116 0.004987
133 0.00494
153 0.00598
165 0.006043
175 0.006005
188 0.005014
195 0.005023
172 0.004952
102 0.004964
56 0.004985
59 0.005011
82 0.004986
127 0.005013
139 0.004954
129 0.004995
123 0.004954
129 0.005948
143 0.005008
157 0.004981
170 0.004987
181 0.00498
192 0.004958
188 0.005023
126 0.005019
33 0.005019
39 0.005016
69 0.004941
91 0.004999
108 0.003973
110 0.00399
106 0.003989
110 0.004991
122 0.004985
134 0.004984
147 0.00501
157 0.005029
175 0.005013
180 0.005021
129 0.003959
52 0.003945
24 0.003982
36 0.004017
55 0.004018
82 0.003967
98 0.003957
102 0.003961
98 0.003991
100 0.003962
120 0.004987
136 0.004993
148 0.004017
162 0.00399
174 0.003986
177 0.003988
146 0.003988
74 0.00402
35 0.003976
47 0.003953
69 0.003986
93 0.003988
117 0.003027
115 0.002992
113 0.002992
125 0.00399
139 0.004943
152 0.004028
165 0.003988
177 0.004015
193 0.004034
194 0.003954
153 0.003949
80 0.003989
53 0.003031
76 0.002996
99 0.00299
129 0.003039
132 0.002992
122 0.003989
122 0.002053
132 0.002992
149 0.004017
162 0.003953
174 0.003041
185 0.003015
200 0.003027
177 0.002992
103 0.00302
52 0.00303
63 0.00298
90 0.004027
118 0.00399
138 0.00399
135 0.003985
127 0.003983
130 0.00299
141 0.002992
164 0.00304
175 0.002991
186 0.00304
200 0.002993
193 0.00302
123 0.003026
50 0.003026
33 0.004041
61 0.003029
83 0.002048
106 0.002022
117 0.003021
