185 0.008029
187 0.007889
156 0.007006
103 0.006892
79 0.005983
91 0.006821
104 0.006982
112 0.006948
118 0.006654
125 0.005989
129 0.006711
127 0.006983
124 0.006974
131 0.006271
140 0.00698
146 0.006981
153 0.006984
161 0.006981
167 0.006932
171 0.005993
177 0.007019
181 0.005937
135 0.006012
90 0.007
84 0.005986
98 0.007509
110 0.006615
116 0.006586
124 0.006022
130 0.007275
126 0.006969
120 0.006977
124 0.006982
131 0.006981
141 0.006981
150 0.006979
161 0.007015
165 0.007584
169 0.005985
176 0.005974
180 0.007288
131 0.006948
88 0.00649
78 0.006822
88 0.006783
104 0.006814
120 0.00665
127 0.006986
133 0.006984
125 0.006983
121 0.006906
125 0.006938
131 0.006837
144 0.005985
151 0.005696
157 0.005985
163 0.006015
167 0.004955
174 0.005987
179 0.005988
118 0.006021
76 0.007027
69 0.007022
82 0.006821
96 0.006982
107 0.00748
113 0.00698
120 0.005982
119 0.004991
114 0.005937
114 0.006981
119 0.005982
132 0.006995
141 0.005989
150 0.006139
155 0.006017
159 0.005989
166 0.005955
172 0.005939
168 0.006985
124 0.00698
75 0.005884
60 0.005993
73 0.005937
90 0.006286
95 0.005944
101 0.005983
105 0.006013
105 0.005954
102 0.006982
105 0.005982
111 0.005986
119 0.005021
128 0.005943
138 0.004993
146 0.006981
153 0.005984
157 0.006321
163 0.006897
165 0.005986
132 0.005933
67 0.005961
53 0.004987
62 0.004986
76 0.005991
83 0.004997
90 0.00598
98 0.00583
99 0.004963
96 0.005656
97 0.00552
103 0.005984
112 0.005945
122 0.005983
131 0.005984
138 0.005987
143 0.004975
147 0.004989
155 0.004991
163 0.005424
137 0.004981
84 0.00602
56 0.005664
61 0.004986
75 0.004933
89 0.004953
96 0.005983
103 0.005987
107 0.005986
105 0.006021
101 0.005952
107 0.00499
117 0.004986
127 0.004987
135 0.005981
143 0.005492
148 0.005019
156 0.004986
162 0.006019
169 0.005986
166 0.005057
124 0.004836
79 0.00499
71 0.004906
86 0.006053
103 0.006027
111 0.004989
118 0.004962
120 0.004944
114 0.004985
109 0.004986
113 0.004953
121 0.004952
132 0.004921
141 0.004693
151 0.004778
157 0.005985
165 0.004656
169 0.005006
160 0.004949
110 0.005024
69 0.005987
64 0.003953
80 0.003991
94 0.00399
102 0.004944
110 0.004944
117 0.005017
111 0.004729
108 0.004996
113 0.004947
120 0.004973
130 0.00499
140 0.004985
146 0.003989
153 0.005025
158 0.00502
164 0.005156
169 0.00499
112 0.00574
67 0.003946
59 0.004104
71 0.003989
84 0.004988
91 0.004937
96 0.003991
105 0.004987
107 0.003986
105 0.004026
104 0.003976
109 0.005328
122 0.004989
131 0.004957
142 0.004992
149 0.004042
155 0.004979
161 0.004044
167 0.003975
145 0.003991
93 0.004993
61 0.003856
62 0.00378
83 0.004989
91 0.004489
99 0.003953
108 0.004576
112 0.003938
110 0.003976
107 0.004954
112 0.003986
123 0.004985
132 0.004943
141 0.003986
149 0.003988
160 0.004009
166 0.004949
172 0.00425
179 0.004017
151 0.003988
96 0.003655
69 0.003986
74 0.003938
94 0.003989
105 0.002994
114 0.004991
122 0.003991
127 0.0043
119 0.004836
119 0.002996
127 0.003766
136 0.004983
145 0.004986
153 0.00395
160 0.00399
166 0.004037
172 0.002991
179 0.004025
177 0.003989
99 0.004027
72 0.004029
76 0.003026
99 0.004955
111 0.004041
118 0.00299
129 0.003984
132 0.00397
126 0.003949
121 0.003988
126 0.00295
133 0.002994
150 0.004632
158 0.004023
167 0.003033
175 0.003715
179 0.003025
187 0.003988
192 0.003959
166 0.004015
94 0.003944
72 0.003957
79 0.003004
95 0.003124
112 0.004499
119 0.004337
126 0.002991
127 0.00399
123 0.003988
122 0.00399
127 0.003044
134 0.003989
147 0.003988
155 0.002989
162 0.002768
168 0.003962
177 0.003993
185 0.002962
186 0.003517
123 0.002992
78 0.003992
69 0.003989
79 0.004024
93 0.00297
103 0.003025
113 0.003023
120 0.003999
124 0.003959
118 0.002996
122 0.00366
128 0.002994
135 0.002992
149 0.00399
157 0.002992
164 0.002993
171 0.001955
176 0.002994
186 0.00299
191 0.001988
159 0.001992
81 0.002985
76 0.003041
90 0.002997
103 0.002899
116 0.002801
126 0.003018
131 0.001957
130 0.002936
124 0.002966
123 0.002026
129 0.002003
139 0.001979
156 0.002997
163 0.003993
168 0.003326
174 0.001942
183 0.003046
186 0.002983
156 0.002982
101 0.002954
73 0.002991
80 0.003028
97 0.002001
116 0.002418
124 0.002993
131 0.002741
131 0.001952
125 0.003848
124 0.004029
131 0.001927
141 0.001993
150 0.001994
160 0.002
169 0.002002
175 0.002001
185 0.002041
190 0.002765
165 0.002994
106 0.002814
69 0.002961
69 0.002988
84 0.00296
97 0.00196
104 0.002991
111 0.001976
119 0.000996
119 0.002
114 0.001968
118 0.002859
127 0.002959
138 0.002698
146 0.001809
157 0.001994
165 0.002991
171 0.001963
177 0.001988
184 0.002991
154 0.003046
95 0.002
63 0.001999
76 0.003011
92 0.001997
102 0.001995
111 0.00199
121 0.001995
122 0.001995
116 0.001998
114 0.001992
117 0.000968
129 0.001994
139 0.001003
153 0.001763
162 0.001994
168 0.002999
174 0.000883
181 0.001959
170 0.002027
116 0.002992
73 0.001963
66 0.00199
79 0.001994
99 0.000996
109 0.002029
124 0.001869
126 0.000894
117 0.000974
112 0.001001
115 0.001024
125 0.000926
136 0.001963
144 0.001955
154 0.000963
161 0.001995
169 0.000997
178 0.000999
161 0.001999
103 0.000966
65 0.00159
61 0.001001
74 0.001007
92 0.000996
103 0.001001
114 0.001001
119 0.001993
120 0.002038
112 0.002056
112 0.001031
125 0.001993
135 0.001997
145 0.001824
153 0.0
161 0.000954
168 0.001995
176 0.001007
182 0.000997
156 0.000959
97 0.0
58 0.000996
60 0.001001
80 0.001004
91 0.002019
99 0.000969
107 0.001004
108 0.001925
105 0.000994
104 0.000954
108 0.000995
115 0.000957
126 0.000999
137 0.001001
152 0.000831
158 0.001239
167 0.000867
175 0.001065
178 0.000984
147 0.001069
88 0.001013
53 0.0
60 0.000997
76 0.001003
89 0.000996
98 0.0
111 0.001037
112 0.0
105 0.001997
106 0.001001
111 0.000997
120 0.001035
132 0.001
146 0.0
153 0.000992
159 0.000994
166 0.001002
172 0.001033
175 0.002045
130 0.001029
69 0.001006
60 0.001034
73 0.0
91 0.0
104 0.0
116 0.0
120 0.0
116 0.0
104 0.000996
104 0.0
116 0.000764
127 0.00103
142 0.000658
150 0.0
157 0.0
163 0.0
170 0.000996
177 0.0
163 0.0
105 0.0
62 0.0
51 0.001034
73 0.000995
85 0.0
96 0.0
104 0.001
107 0.0
102 0.0
97 0.0
103 0.001038
112 0.0
122 0.0
131 0.0
141 0.0
152 0.0
159 0.0
168 0.0
174 0.0
147 0.0
88 0.0
50 0.0
49 0.0
63 0.0
73 0.0
81 0.001
89 0.001001
98 0.0
95 0.000997
93 0.0
98 0.0
106 0.001002
118 0.0
129 0.000987
138 0.001003
145 0.0
155 0.0
159 0.0
167 0.000821
118 0.000999
82 0.0
46 0.000777
52 0.0
65 0.001002
75 0.0
83 0.0
96 0.000996
101 0.000969
98 0.0
97 0.0
99 0.000993
118 0.0
129 0.0
140 0.0
149 0.000929
157 0.0
167 0.0
174 0.0
180 0.0
172 0.000974
120 0.001002
72 0.0
57 0.0
76 0.0
91 0.0
105 0.0
114 0.0
118 0.001037
111 0.0
104 0.000957
108 0.0
117 0.002005
128 0.001034
141 0.000957
153 0.001
162 0.0
170 0.0
177 0.0
159 0.000997
106 0.001004
66 0.0
60 0.0
73 0.000947
88 0.001041
100 0.001003
114 0.000994
115 0.0
105 0.0
104 0.0
108 0.0
119 0.001002
131 0.001005
143 0.0
151 0.0
159 0.0
166 0.000858
173 0.001
151 0.0
74 0.000999
43 0.0
49 0.0
64 0.0
75 0.0
82 0.001032
94 0.0
95 0.000939
89 0.0
86 0.001001
91 0.001002
102 0.0
115 0.000969
130 0.0
138 0.000997
146 0.0
154 0.000282
163 0.001986
134 0.001003
75 0.0
47 0.000996
32 0.00096
42 0.00101
55 0.000994
66 0.001057
75 0.001002
77 0.001001
76 0.0
73 0.001999
78 0.001763
91 0.0
102 0.000997
111 0.0
121 0.002043
131 0.001995
140 0.000997
152 0.001678
147 0.001
98 0.00103
48 0.000998
29 0.001347
36 0.001186
53 0.000955
60 0.000944
71 0.001028
78 0.001994
81 0.001992
76 0.0
80 0.001235
87 0.000999
102 0.001002
112 0.001001
122 0.001263
131 0.001204
142 0.001
150 0.000996
157 0.000959
139 0.001997
86 0.002992
40 0.000997
44 0.000998
63 0.001
73 0.000941
83 0.001
93 0.001418
94 0.001227
86 0.000943
88 0.001993
96 0.001035
106 0.002033
118 0.001997
134 0.001
144 0.001996
154 0.000968
163 0.001001
169 0.001965
157 0.002002
99 0.002984
45 0.000996
43 0.000997
53 0.000993
66 0.003037
73 0.001998
88 0.001439
94 0.002129
91 0.001001
90 0.001981
95 0.001875
106 0.002421
118 0.002969
133 0.001001
143 0.000999
153 0.000998
160 0.002034
168 0.001996
181 0.001733
168 0.002159
111 0.002389
52 0.002129
48 0.00195
58 0.002341
71 0.001875
80 0.002197
92 0.000997
99 0.001045
103 0.002
102 0.002602
106 0.001999
114 0.002308
126 0.00296
145 0.001948
156 0.000952
166 0.001995
174 0.002991
183 0.001995
192 0.002007
200 0.002032
171 0.000997
112 0.002395
67 0.002004
75 0.00245
89 0.002626
106 0.002027
117 0.001999
125 0.001614
127 0.002946
119 0.003272
118 0.001993
127 0.001995
139 0.002024
151 0.002296
170 0.001979
178 0.002853
186 0.002995
198 0.001993
204 0.002753
180 0.001982
121 0.002941
80 0.002969
76 0.002038
84 0.002993
103 0.001996
115 0.002994
133 0.001948
134 0.002808
125 0.00317
121 0.002278
129 0.002305
142 0.002767
154 0.003186
165 0.003058
179 0.001963
188 0.002994
195 0.002038
202 0.003438
160 0.00228
98 0.003377
64 0.002991
66 0.003022
79 0.00201
91 0.001993
100 0.003159
109 0.003817
116 0.001957
111 0.001966
106 0.001979
111 0.003262
127 0.002636
139 0.003666
150 0.003559
163 0.00198
172 0.002828
180 0.001969
188 0.003999
172 0.003998
114 0.002995
55 0.002998
50 0.001994
62 0.003995
78 0.002758
88 0.003415
99 0.003238
105 0.001987
101 0.002809
99 0.002901
105 0.003864
114 0.004008
130 0.001991
143 0.001939
153 0.002028
163 0.003036
179 0.002828
188 0.004009
161 0.004624
84 0.002237
53 0.003478
54 0.001894
68 0.003426
82 0.004933
96 0.003124
107 0.003125
111 0.002112
100 0.001957
100 0.004002
107 0.004139
119 0.00315
136 0.003068
147 0.002991
157 0.003229
168 0.003329
176 0.004825
177 0.002222
132 0.003103
74 0.003996
48 0.003123
60 0.003439
75 0.003516
86 0.004403
102 0.003992
109 0.003994
105 0.003102
99 0.004968
102 0.003948
114 0.003109
127 0.002993
140 0.004022
156 0.002596
165 0.003186
173 0.003446
184 0.004327
175 0.003814
100 0.003946
53 0.003992
42 0.002996
49 0.005027
63 0.005028
75 0.002994
85 0.003001
94 0.00399
93 0.003991
91 0.004427
96 0.004176
102 0.004031
119 0.003617
130 0.003816
142 0.004307
151 0.004989
160 0.004205
174 0.004021
183 0.002998
114 0.003994
61 0.004622
37 0.003994
44 0.004035
56 0.00403
66 0.004139
77 0.003988
88 0.002993
92 0.005985
89 0.00508
89 0.004127
96 0.003024
117 0.003311
131 0.004031
144 0.005144
155 0.004538
165 0.004553
178 0.004065
185 0.004076
193 0.004772
178 0.005338
116 0.005018
55 0.003966
52 0.004451
74 0.003988
85 0.004117
96 0.00403
107 0.004794
112 0.00529
103 0.00429
102 0.004336
108 0.00441
119 0.006141
134 0.005171
152 0.003992
162 0.00309
176 0.004706
183 0.004966
193 0.00511
200 0.004997
176 0.005797
96 0.004796
63 0.003992
62 0.003026
77 0.005985
92 0.006029
109 0.003989
122 0.004092
124 0.005039
115 0.004219
116 0.00542
126 0.004978
139 0.00593
151 0.005048
169 0.004904
179 0.004378
187 0.00513
196 0.006087
207 0.003938
215 0.005849
159 0.004483
95 0.004206
62 0.004021
62 0.006055
76 0.005133
95 0.005487
106 0.002804
118 0.00492
125 0.005191
123 0.005984
117 0.004987
125 0.005356
141 0.004767
156 0.005091
169 0.004978
180 0.005274
190 0.005809
203 0.004808
210 0.003949
219 0.004287
221 0.00654
182 0.005638
94 0.004985
64 0.005461
77 0.004832
91 0.00504
98 0.005426
111 0.006029
122 0.006305
125 0.004916
121 0.005117
121 0.005013
129 0.006535
140 0.005989
157 0.005123
175 0.005455
191 0.005267
200 0.005425
208 0.005058
217 0.00639
226 0.005986
216 0.00403
157 0.005432
96 0.005592
72 0.006097
79 0.006152
95 0.006451
119 0.005727
133 0.006277
143 0.005744
138 0.006475
130 0.005756
132 0.005781
139 0.007103
158 0.004848
173 0.005249
185 0.006056
195 0.005986
203 0.005989
218 0.005791
226 0.005717
194 0.005723
129 0.006713
84 0.006127
75 0.006252
87 0.007274
110 0.005058
125 0.004985
140 0.006056
148 0.005993
144 0.006156
131 0.006314
136 0.007035
150 0.005984
164 0.005119
177 0.005203
187 0.006097
197 0.00694
208 0.005001
217 0.005566
221 0.006089
179 0.006524
109 0.006805
59 0.00626
67 0.006375
88 0.005595
100 0.005784
114 0.005037
122 0.007727
122 0.00704
111 0.005692
111 0.005541
118 0.005985
130 0.006871
143 0.006237
163 0.00622
172 0.00698
185 0.006857
193 0.006731
192 0.005409
147 0.007017
65 0.008074
40 0.004983
46 0.005313
58 0.006781
70 0.007066
81 0.007025
96 0.006414
95 0.006726
88 0.006227
90 0.007252
100 0.006819
112 0.006755
125 0.006644
141 0.006928
153 0.005025
162 0.005936
172 0.007045
162 0.006994
103 0.006262
50 0.007118
34 0.006072
46 0.005754
61 0.006012
75 0.00752
87 0.007175
97 0.005959
93 0.006175
87 0.005764
88 0.00728
106 0.007356
119 0.007066
134 0.00773
146 0.006015
153 0.007247
165 0.007618
173 0.007744
152 0.006944
75 0.005953
39 0.0062
37 0.006472
50 0.007328
77 0.007473
92 0.00735
100 0.007681
95 0.006741
88 0.006757
88 0.007588
98 0.007928
111 0.007871
129 0.00615
140 0.007074
149 0.006026
162 0.006938
175 0.007352
163 0.007382
103 0.00739
37 0.006423
30 0.007265
42 0.006235
55 0.007281
70 0.00775
81 0.006989
89 0.005949
87 0.007427
83 0.007475
91 0.007203
108 0.007587
116 0.00759
136 0.007095
150 0.006811
155 0.007013
167 0.007986
178 0.006931
170 0.006908
133 0.006987
68 0.006452
27 0.007856
38 0.006859
54 0.007977
59 0.007519
71 0.007793
84 0.007047
86 0.006945
82 0.007015
86 0.007847
97 0.006837
111 0.006979
125 0.007025
143 0.006953
161 0.007275
171 0.007423
178 0.007653
188 0.007333
179 0.007411
119 0.00694
61 0.007283
41 0.007628
50 0.006982
65 0.006653
79 0.007589
87 0.006945
104 0.007299
100 0.006981
96 0.007223
101 0.006986
119 0.00737
130 0.006864
149 0.007035
161 0.007563
171 0.006397
182 0.007301
187 0.006982
201 0.006959
165 0.007319
122 0.007261
59 0.007788
55 0.007717
76 0.007227
89 0.007016
103 0.007065
117 0.007012
121 0.007296
116 0.007126
112 0.007652
128 0.00752
141 0.006948
155 0.006845
167 0.005983
179 0.006971
189 0.007198
199 0.007105
209 0.006385
215 0.006631
185 0.006976
94 0.007111
57 0.006986
63 0.007531
77 0.006103
90 0.006333
102 0.006974
116 0.006226
118 0.007145
114 0.006985
115 0.006777
123 0.007214
134 0.005948
155 0.005983
168 0.006727
188 0.006637
195 0.007038
206 0.006984
215 0.007014
225 0.00716
200 0.006639
130 0.006651
73 0.006581
57 0.006469
68 0.005979
92 0.006937
104 0.005952
126 0.006883
134 0.00652
131 0.00727
127 0.00721
130 0.006311
147 0.007004
163 0.006573
179 0.006625
194 0.006006
209 0.005921
226 0.006979
244 0.006319
255 0.006674
255 0.005976
248 0.00698
171 0.006067
111 0.005119
100 0.00599
116 0.005935
133 0.006704
145 0.005535
158 0.006304
164 0.005985
155 0.005021
139 0.005984
144 0.006961
155 0.005639
168 0.006494
182 0.005987
198 0.005619
207 0.0057
216 0.006082
223 0.005008
231 0.00499
238 0.00512
198 0.00575
81 0.005745
59 0.005648
65 0.005952
83 0.005983
101 0.006016
120 0.005601
133 0.004992
137 0.005555
128 0.005068
123 0.00499
132 0.005664
144 0.004982
166 0.006408
185 0.005656
198 0.006566
210 0.004987
219 0.005677
228 0.005987
237 0.006022
188 0.004748
186 0.00499
154 0.006039
114 0.00599
90 0.004953
97 0.005769
108 0.005576
115 0.005052
124 0.005169
129 0.003958
129 0.00499
125 0.005347
125 0.004941
129 0.00502
136 0.005988
144 0.004004
157 0.005994
163 0.004981
170 0.005995
175 0.005853
179 0.005417
183 0.005988
187 0.004965
177 0.004991
138 0.005215
104 0.004989
92 0.005035
96 0.004953
111 0.005335
120 0.005496
131 0.004758
134 0.005885
132 0.005111
127 0.005159
126 0.00576
133 0.005034
140 0.004877
149 0.004813
157 0.004989
163 0.003994
171 0.004955
175 0.004685
181 0.004963
184 0.005014
168 0.003955
130 0.005099
100 0.004025
92 0.004572
100 0.003992
111 0.005466
121 0.003995
130 0.005012
136 0.005035
131 0.004985
125 0.003992
127 0.004992
134 0.00485
141 0.004987
150 0.004934
158 0.005027
164 0.004989
169 0.004647
173 0.004091
193 0.004728
185 0.004938
135 0.003988
80 0.004872
71 0.004953
79 0.004947
92 0.00499
103 0.003994
118 0.004989
126 0.004997
126 0.00399
119 0.00396
116 0.005022
124 0.00501
134 0.005463
147 0.005029
157 0.004954
165 0.004035
171 0.004024
177 0.0036
186 0.004997
189 0.003999
161 0.003993
108 0.003994
71 0.003995
67 0.002993
78 0.004347
92 0.00499
102 0.003972
110 0.003957
112 0.004029
106 0.003957
102 0.003994
104 0.002996
113 0.004027
123 0.002993
135 0.004987
149 0.004789
156 0.004186
163 0.003511
169 0.004028
171 0.00399
142 0.004027
93 0.003992
57 0.004313
59 0.004703
70 0.002841
83 0.003042
93 0.003618
105 0.004003
102 0.004953
94 0.003958
93 0.003987
99 0.003991
109 0.003992
119 0.003999
131 0.002996
139 0.003989
145 0.003893
150 0.003923
157 0.002959
133 0.003994
86 0.002991
55 0.00399
51 0.004
62 0.002967
73 0.003991
83 0.002994
93 0.003993
98 0.00399
93 0.003992
89 0.003991
97 0.004021
105 0.003993
116 0.002998
126 0.003021
137 0.003703
143 0.002963
150 0.004043
156 0.003078
162 0.002997
132 0.002999
83 0.003033
51 0.002914
52 0.003648
62 0.003957
70 0.002991
77 0.002992
87 0.003989
90 0.002993
87 0.003004
85 0.00281
90 0.002908
102 0.002996
113 0.002993
124 0.002002
138 0.003052
146 0.002994
152 0.003009
158 0.002987
168 0.002957
157 0.003008
112 0.003004
70 0.002996
53 0.002958
62 0.003542
73 0.00344
80 0.001973
94 0.002999
98 0.00304
96 0.002992
91 0.002997
97 0.002992
106 0.002959
116 0.003031
127 0.002994
137 0.002672
146 0.002966
152 0.002995
158 0.002994
169 0.002994
163 0.003041
121 0.002995
78 0.002956
59 0.003992
67 0.002995
79 0.002933
88 0.003187
98 0.00209
107 0.002723
106 0.00205
100 0.002002
103 0.001999
112 0.003
123 0.002991
133 0.002906
146 0.003
154 0.002953
160 0.00203
165 0.002028
172 0.002945
180 0.002597
172 0.001727
128 0.002999
64 0.001794
60 0.001985
69 0.001962
80 0.002959
88 0.00299
96 0.001974
102 0.002051
102 0.002039
98 0.002861
102 0.002023
109 0.001963
119 0.001991
137 0.00259
146 0.002955
156 0.002028
162 0.002956
169 0.003049
176 0.001948
183 0.002035
181 0.001632
143 0.001998
81 0.002988
64 0.002
70 0.002984
88 0.002947
96 0.002908
104 0.001995
111 0.001971
111 0.002055
106 0.001988
109 0.001963
116 0.002005
126 0.001999
141 0.002012
152 0.00199
165 0.002075
171 0.001605
178 0.001965
184 0.002993
190 0.001994
175 0.002015
126 0.000998
84 0.00096
73 0.002
82 0.00203
98 0.001557
109 0.001999
126 0.001884
127 0.000865
119 0.001995
113 0.000998
117 0.001993
130 0.002029
140 0.001877
152 0.001965
163 0.001995
171 0.002037
178 0.001992
185 0.001613
192 0.001605
190 0.002001
147 0.001001
97 0.001999
72 0.001998
74 0.002031
89 0.000993
100 0.001001
110 0.001002
119 0.000976
122 0.001001
118 0.000769
116 0.000997
124 0.001974
134 0.001
146 0.000966
158 0.000947
166 0.000972
176 0.002038
183 0.001999
187 0.001997
193 0.000734
199 0.001999
171 0.001
99 0.000604
67 0.001003
71 0.001
84 0.000997
93 0.001995
102 0.000957
114 0.001996
117 0.001032
113 0.001001
111 0.000636
113 0.000612
124 0.001
140 0.000729
155 0.001
164 0.000989
172 0.00101
178 0.00096
183 0.00097
191 0.001
198 0.0
189 0.000996
140 0.000967
91 0.000997
69 0.0
80 0.000951
96 0.001033
107 0.000999
117 0.000997
122 0.0
120 0.000996
114 0.0
115 0.001
122 0.0
134 0.0
146 0.000999
160 0.0
171 0.000933
180 0.000999
185 0.0
192 0.0
198 0.001002
186 0.0
117 0.0
79 0.001065
72 0.0
81 0.0
95 0.0
112 0.0
128 0.0
128 0.0
119 0.001027
114 0.000964
117 0.0
127 0.0
142 0.0
153 0.0
163 0.0
170 0.0
176 0.0
184 0.0
192 0.000903
161 0.000878
106 0.0
70 0.0
64 0.0
73 0.0
89 0.0
101 0.0
112 0.0
117 0.0
115 0.000993
106 0.0
110 0.0
122 0.0
135 0.0
149 0.000997
156 0.0
163 0.0
171 0.0
176 0.000997
181 0.0
184 0.0
146 0.000996
76 0.0
52 0.0
57 0.0
69 0.0
80 0.000991
88 0.0
95 0.0
98 0.001001
94 0.0
91 0.00205
99 0.0
108 0.0
127 0.0
135 0.000526
144 0.0
153 0.0
160 0.0
168 0.0
175 0.0
172 0.0
130 0.001001
79 0.00103
49 0.0
53 0.0
71 0.000987
79 0.0
88 0.0
94 0.001033
94 0.000896
90 0.0
90 0.000996
99 0.0
110 0.001001
122 0.001582
136 0.0
146 0.0
157 0.000969
162 0.0
168 0.0
175 0.001994
179 0.000856
133 0.0
82 0.0
57 0.000997
58 0.001001
70 0.001001
84 0.0
95 0.0
105 0.0
101 0.0
96 0.0
96 0.001994
103 0.001995
117 0.0
130 0.0
141 0.0
150 0.001041
157 0.001033
166 0.0
171 0.0
180 0.0
187 0.0
170 0.000992
118 0.00195
73 0.000984
55 0.000999
64 0.0
72 0.001001
83 0.001992
92 0.001988
100 0.0002
101 0.0
96 0.0
100 0.0
106 0.000202
120 0.002027
133 0.001963
147 0.0
156 0.0
160 0.000914
170 0.001091
175 0.000938
180 0.000239
187 0.0
195 0.0
161 0.0
103 0.0
65 0.000997
58 0.001997
70 0.0
80 0.0
86 0.0
95 0.00143
102 0.001289
101 0.0
98 0.000911
103 0.0
114 0.000998
127 0.0
139 0.001893
150 0.001994
163 0.0
169 0.0
175 0.0
181 0.002065
187 0.00196
195 0.0
198 0.001986
138 0.000992
88 0.0
68 0.000985
72 0.001995
84 0.00103
99 0.000997
109 0.0
118 0.000996
120 0.001308
114 0.001946
108 0.00113
116 0.001997
132 0.0
145 0.000972
156 0.000998
164 0.001988
172 0.001999
179 0.000954
184 0.000996
190 0.001056
196 0.002096
192 0.002347
131 0.000916
74 0.002261
70 0.001032
82 0.000961
95 0.001007
107 0.002029
118 0.002881
124 0.001996
119 0.000997
113 0.000993
114 0.000987
121 0.002085
133 0.002259
153 0.002373
163 0.001997
173 0.001729
180 0.00104
186 0.001002
191 0.00203
198 0.002048
196 0.000997
152 0.001986
95 0.002029
64 0.002994
62 0.002507
81 0.002648
91 0.003035
102 0.000982
109 0.000985
109 0.000967
104 0.002858
100 0.001997
109 0.00099
120 0.001107
131 0.001959
143 0.002958
153 0.002709
166 0.002335
172 0.002961
180 0.002038
187 0.001041
185 0.001951
144 0.002086
88 0.002997
54 0.000998
57 0.000957
70 0.001205
80 0.002129
90 0.002808
101 0.002913
101 0.003257
95 0.001994
95 0.001003
102 0.002013
113 0.002134
125 0.002995
140 0.001025
148 0.001923
155 0.00116
162 0.003028
169 0.002329
173 0.003125
134 0.002565
72 0.00179
57 0.001003
61 0.001963
75 0.003177
88 0.003035
103 0.002058
110 0.000981
109 0.00197
99 0.003483
96 0.003302
109 0.003335
121 0.004243
138 0.001999
146 0.001029
154 0.001965
161 0.003024
169 0.002954
173 0.00194
144 0.001957
91 0.002025
56 0.002951
56 0.001818
69 0.00277
79 0.003802
93 0.002683
100 0.002207
99 0.00212
92 0.003149
90 0.003071
100 0.001961
110 0.001515
124 0.001951
134 0.003405
147 0.000986
153 0.004182
162 0.003965
169 0.002074
144 0.002003
91 0.003022
49 0.00317
37 0.003171
48 0.001957
58 0.001957
64 0.002596
73 0.004025
83 0.002231
80 0.003978
78 0.003381
85 0.001945
96 0.002081
107 0.002997
119 0.004021
129 0.003135
140 0.002992
147 0.002987
155 0.001952
163 0.003417
121 0.001959
68 0.004031
38 0.00402
38 0.00307
49 0.001875
56 0.003038
63 0.004296
73 0.00322
80 0.002363
78 0.001948
77 0.002429
83 0.003427
101 0.001995
113 0.002611
126 0.003912
135 0.004984
146 0.002994
153 0.002539
161 0.002084
170 0.004211
168 0.004207
109 0.002955
63 0.002975
46 0.002934
59 0.002943
69 0.002487
78 0.005034
89 0.004987
95 0.002951
91 0.002934
89 0.001037
92 0.003777
102 0.004007
120 0.002297
131 0.003922
141 0.003233
152 0.002403
159 0.002724
166 0.004542
174 0.004045
155 0.002963
103 0.002962
62 0.002134
51 0.004405
59 0.005008
75 0.004031
84 0.003366
95 0.002816
103 0.00341
98 0.002506
97 0.004172
102 0.004135
116 0.004029
130 0.002992
141 0.003114
151 0.004214
160 0.004345
168 0.002992
173 0.002961
182 0.003957
192 0.002992
163 0.002992
104 0.005135
62 0.004651
53 0.002956
63 0.003311
71 0.00399
78 0.004991
88 0.004922
97 0.00324
96 0.003771
95 0.004029
102 0.002572
113 0.002988
127 0.005415
138 0.004883
153 0.003959
163 0.003024
170 0.003124
176 0.005847
183 0.004989
193 0.00399
201 0.003962
151 0.003577
94 0.003996
64 0.003782
63 0.005877
75 0.005756
90 0.003447
97 0.003157
108 0.00399
113 0.005709
110 0.005258
106 0.003991
112 0.003962
132 0.003998
145 0.004198
157 0.003137
168 0.006219
176 0.005988
184 0.004042
190 0.004175
197 0.004027
205 0.005847
207 0.005578
152 0.004424
97 0.004369
73 0.004096
86 0.00373
100 0.003992
113 0.005656
125 0.005985
132 0.003979
126 0.004008
120 0.003989
121 0.005988
130 0.006039
148 0.003954
161 0.004625
180 0.004681
187 0.004662
195 0.004695
202 0.006069
208 0.005995
217 0.005169
215 0.00399
167 0.004989
105 0.005213
73 0.005155
73 0.003921
86 0.004205
105 0.003994
116 0.003958
125 0.004193
124 0.00686
119 0.005977
119 0.004504
126 0.005185
138 0.004949
151 0.00617
164 0.005819
178 0.004942
188 0.004957
199 0.004129
205 0.005133
212 0.00396
220 0.003961
210 0.006787
157 0.005985
85 0.004976
69 0.004167
77 0.00412
92 0.006179
106 0.007
121 0.005247
131 0.005622
128 0.005302
123 0.003739
124 0.004066
132 0.005809
145 0.006166
163 0.005009
176 0.005041
188 0.005017
196 0.006212
203 0.006814
212 0.00516
223 0.00666
221 0.005459
168 0.004753
108 0.004804
80 0.006057
83 0.007132
104 0.005031
120 0.004988
136 0.005133
150 0.005791
152 0.006185
140 0.005103
133 0.006875
142 0.005491
154 0.003988
169 0.005106
182 0.006767
191 0.007157
202 0.004915
209 0.004887
215 0.005254
222 0.0067
211 0.006515
110 0.007036
72 0.006354
70 0.005142
84 0.004982
100 0.00595
113 0.006984
126 0.006986
132 0.006004
125 0.005262
118 0.004945
120 0.006866
129 0.007123
150 0.007018
164 0.007153
178 0.005806
187 0.005987
193 0.005953
200 0.007745
207 0.007068
186 0.005013
121 0.005295
69 0.005534
51 0.007143
58 0.006739
82 0.007191
95 0.007908
111 0.005669
117 0.005793
114 0.006159
108 0.00698
109 0.007053
119 0.005153
132 0.006031
146 0.005988
159 0.007197
169 0.007575
181 0.008045
189 0.007747
198 0.006406
163 0.005301
100 0.004011
60 0.006981
53 0.007546
69 0.006315
88 0.006154
104 0.005718
118 0.00759
125 0.0069
113 0.00711
107 0.006907
116 0.005821
128 0.005979
142 0.004982
156 0.007735
166 0.007078
176 0.0063
185 0.006448
192 0.006621
187 0.006961
137 0.008207
53 0.008047
55 0.006896
69 0.005819
85 0.005342
101 0.006945
115 0.006988
119 0.007345
110 0.006559
105 0.005973
108 0.006087
122 0.007892
132 0.00699
158 0.006984
164 0.006996
178 0.006997
182 0.00545
191 0.006258
186 0.007157
114 0.00767
62 0.006034
42 0.006103
48 0.005996
63 0.007303
80 0.008012
95 0.007509
102 0.007276
97 0.007239
93 0.006462
95 0.00638
108 0.007949
121 0.008039
129 0.007687
145 0.006774
154 0.006186
161 0.007047
171 0.007192
179 0.007207
125 0.008021
68 0.007987
39 0.007519
39 0.006205
53 0.006167
67 0.007755
79 0.007652
92 0.006446
95 0.006733
90 0.006605
89 0.005939
96 0.005586
112 0.006775
126 0.007591
138 0.005026
147 0.0061
155 0.006018
166 0.007811
174 0.008131
179 0.006656
150 0.006922
74 0.007533
45 0.006365
53 0.006762
75 0.00697
83 0.007765
103 0.006614
106 0.006277
103 0.006865
92 0.006996
94 0.007301
104 0.00698
118 0.006882
135 0.006825
148 0.006499
158 0.006661
165 0.006875
173 0.006985
178 0.006649
154 0.006586
98 0.00717
51 0.007134
50 0.007701
69 0.007157
79 0.007114
91 0.007096
109 0.006067
105 0.005916
98 0.005985
99 0.006991
113 0.006719
126 0.006027
135 0.006154
150 0.007133
160 0.007158
169 0.006641
176 0.007207
184 0.007204
188 0.006968
128 0.006972
71 0.006983
47 0.00698
55 0.00698
68 0.006981
77 0.006981
90 0.006982
99 0.007016
102 0.006953
98 0.005943
97 0.006021
111 0.006991
124 0.006983
137 0.005987
149 0.007028
162 0.005984
170 0.006434
177 0.006482
184 0.006861
192 0.007212
183 0.007224
128 0.006336
74 0.005974
56 0.006984
69 0.00692
83 0.005865
95 0.005983
109 0.006026
113 0.007267
110 0.006578
105 0.006307
108 0.00614
121 0.006881
135 0.007078
149 0.006482
168 0.005987
176 0.005986
184 0.005991
190 0.005998
201 0.005989
203 0.005985
163 0.006193
102 0.006202
69 0.006857
72 0.006704
88 0.006254
105 0.007076
128 0.005989
135 0.005988
128 0.005999
119 0.004972
120 0.005977
128 0.005878
142 0.006048
156 0.005987
168 0.00615
181 0.006927
189 0.006443
195 0.006017
206 0.005988
207 0.005503
164 0.006033
102 0.00499
68 0.00502
68 0.006662
83 0.005988
100 0.00645
113 0.006419
124 0.006698
128 0.004983
117 0.005981
118 0.005986
126 0.005635
139 0.004856
153 0.005547
166 0.005679
179 0.004993
188 0.005618
194 0.00499
200 0.005042
208 0.005954
208 0.005654
136 0.004987
68 0.005987
57 0.005866
68 0.005987
84 0.004987
97 0.00595
112 0.006085
119 0.005569
118 0.005953
112 0.006032
110 0.005834
119 0.006421
137 0.004987
156 0.00503
169 0.004033
179 0.00503
188 0.004988
194 0.005715
203 0.004688
210 0.005642
194 0.006037
134 0.005024
80 0.006093
61 0.005425
80 0.004987
101 0.005022
116 0.004732
128 0.004639
129 0.004605
121 0.005018
114 0.005122
120 0.0058
132 0.004857
147 0.004751
160 0.005551
175 0.005768
185 0.005135
192 0.004945
201 0.004983
208 0.003805
195 0.004904
136 0.004989
71 0.005546
63 0.00565
74 0.005928
93 0.005516
110 0.005116
129 0.005028
135 0.003989
121 0.004989
116 0.004355
122 0.004035
133 0.004715
148 0.004984
167 0.005432
177 0.004932
186 0.004889
194 0.005564
199 0.005096
207 0.003989
215 0.004954
169 0.004992
101 0.004059
60 0.003877
57 0.003956
70 0.003828
91 0.003585
105 0.00517
118 0.003992
123 0.004964
118 0.004942
109 0.004954
114 0.004986
129 0.004023
144 0.003948
158 0.003936
170 0.003796
180 0.003955
189 0.003831
195 0.003601
202 0.004409
210 0.004289
204 0.004021
127 0.003969
61 0.004933
57 0.003941
72 0.003991
89 0.003995
104 0.004989
117 0.002958
124 0.004013
117 0.004075
110 0.004036
110 0.004044
121 0.004394
144 0.003028
159 0.002993
173 0.00499
183 0.003649
192 0.00378
197 0.003848
204 0.003991
214 0.004024
198 0.003993
135 0.00299
79 0.003977
59 0.004221
78 0.00396
98 0.003988
115 0.003991
134 0.003655
134 0.002885
122 0.003991
111 0.002994
112 0.003661
126 0.003994
140 0.004052
155 0.003988
167 0.004069
180 0.002957
186 0.002937
192 0.002995
200 0.004028
171 0.004041
106 0.003002
61 0.00382
51 0.003037
67 0.003991
85 0.003657
102 0.003367
116 0.003391
117 0.003973
106 0.002992
101 0.002979
109 0.003991
120 0.003992
135 0.003992
149 0.002601
159 0.003991
169 0.003085
176 0.002994
182 0.003861
189 0.003949
146 0.003989
80 0.002993
40 0.003548
38 0.002993
53 0.003438
67 0.002744
79 0.002572
89 0.002997
93 0.003119
87 0.003969
83 0.002992
85 0.002991
104 0.001982
118 0.002992
130 0.003018
144 0.002948
151 0.002812
158 0.002996
165 0.001933
173 0.001996
162 0.001998
106 0.003004
51 0.001996
30 0.002992
46 0.002959
61 0.002993
72 0.002994
86 0.002994
91 0.002969
85 0.001996
80 0.002993
84 0.001996
98 0.003049
110 0.002067
125 0.002951
137 0.002991
151 0.003006
158 0.002991
165 0.001997
176 0.002618
177 0.003006
137 0.002032
77 0.001998
44 0.001953
46 0.002001
63 0.001993
78 0.002991
91 0.002185
104 0.002987
98 0.003041
89 0.001999
92 0.0019
103 0.002
116 0.00286
131 0.003001
143 0.002282
154 0.002634
161 0.002004
167 0.002993
173 0.002988
186 0.002991
174 0.002985
118 0.00103
50 0.002022
39 0.001998
51 0.001595
67 0.002005
80 0.002037
94 0.001608
102 0.001982
98 0.001964
90 0.001942
97 0.001963
107 0.002022
121 0.002014
140 0.001997
151 0.001997
159 0.001567
167 0.002998
173 0.002031
181 0.001529
187 0.002002
196 0.001998
163 0.001855
95 0.001995
49 0.001962
40 0.000994
57 0.000988
71 0.001729
80 0.001994
89 0.001996
96 0.002003
96 0.001874
90 0.001995
92 0.001965
111 0.000995
127 0.001993
142 0.001963
154 0.000987
163 0.001589
173 0.001001
180 0.002164
186 0.001999
192 0.002031
201 0.001001
202 0.001995
153 0.001995
60 0.000997
50 0.001951
63 0.000998
80 0.000966
93 0.000975
108 0.001
115 0.002
111 0.000705
103 0.001001
103 0.001996
114 0.001966
130 0.001039
154 0.000999
167 0.001994
177 0.002029
184 0.001999
190 0.002007
197 0.001998
204 0.000981
214 0.000814
214 0.000891
166 0.001056
84 0.000998
63 0.002002
82 0.000998
100 0.000969
116 0.001033
131 0.0
136 0.001001
124 0.000863
115 0.0
115 0.001039
126 0.001995
140 0.001996
161 0.000997
175 0.001982
188 0.0
195 0.000939
200 0.000996
206 0.001037
214 0.0
205 0.000596
144 0.000614
82 0.000615
54 0.001
58 0.000998
82 0.000717
97 0.001031
118 0.00096
123 0.001032
118 0.0
110 0.001
110 0.0
122 0.0
137 0.000624
152 0.0
165 0.0
177 0.001001
187 0.001035
194 0.000947
202 0.001002
210 0.0
208 0.0
152 0.000998
82 0.000997
44 0.001035
48 0.0
64 0.0
78 0.001035
88 0.001018
99 0.000998
100 0.0
92 0.000998
94 0.0
103 0.0
115 0.000959
129 0.0
147 0.000518
158 0.0
165 0.0
171 0.0
178 0.0
188 0.0
181 0.0
100 0.0
51 0.0
37 0.0
46 0.0
62 0.0
79 0.0
90 0.0
99 0.0
98 0.0
91 0.0
91 0.0
104 0.0
124 0.0
137 0.0
147 0.0
155 0.000919
162 0.001004
171 0.000851
180 0.0
185 0.0
156 0.0
93 0.0
42 0.0
47 0.001045
71 0.0
85 0.0
99 0.001
108 0.0
104 0.0
92 0.0
93 0.0
103 0.0
116 0.0
131 0.0
144 0.000859
158 0.000991
167 0.0
174 0.0
182 0.0
179 0.001961
148 0.000998
67 0.0
39 0.0
41 0.0
57 0.0
77 0.0
84 0.0
101 0.0
96 0.0
90 0.002995
93 0.00303
107 0.000925
121 0.0
135 0.0
146 0.001996
155 0.002038
165 0.000997
172 0.0
177 0.000998
186 0.0
142 0.0
76 0.003048
37 0.001995
38 0.0
56 0.0
68 0.0
79 0.001036
89 0.001032
98 0.0
94 0.000997
91 0.000961
103 0.0
116 0.0
131 0.002999
143 0.003031
156 0.0
165 0.0
173 0.0
179 0.001471
189 0.001994
197 0.000996
156 0.0
91 0.0
47 0.0
58 0.0
74 0.001997
86 0.001999
102 0.0
109 0.000845
111 0.0
104 0.002038
102 0.002315
114 0.0
123 0.000997
153 0.0
165 0.0
174 0.0
181 0.000992
187 0.002027
196 0.0
205 0.001002
203 0.0
154 0.001357
93 0.000982
60 0.0
70 0.0
100 0.001006
114 0.0
127 0.000964
133 0.002034
128 0.002709
119 0.00101
123 0.0
135 0.0
149 0.001991
163 0.001222
178 0.0
187 0.000955
199 0.0
205 0.0
212 0.0
221 0.002997
209 0.001147
125 0.0
76 0.0
65 0.000959
77 0.002757
94 0.002975
109 0.000959
119 0.0
129 0.0
126 0.0
123 0.000909
127 0.001997
138 0.001924
156 0.0
170 0.0
182 0.0
191 0.000999
199 0.001155
208 0.0
215 0.0
229 0.0
212 0.000954
146 0.0
88 0.001048
68 0.001009
81 0.0
98 0.0
110 0.0
119 0.001273
131 0.00131
135 0.0
130 0.0
132 0.0
142 0.0
156 0.001
169 0.002035
183 0.002169
198 0.0
206 0.0
213 0.0
220 0.000998
228 0.002634
237 0.001992
222 0.0
131 0.001974
80 0.0
82 0.0
100 0.0
118 0.002306
133 0.002323
151 0.0
155 0.001989
148 0.00199
139 0.001297
139 0.001966
152 0.000999
172 0.001994
191 0.0
202 0.0
210 0.0
218 0.003096
224 0.003141
233 0.001002
241 0.0
226 0.001983
158 0.002268
98 0.002261
80 0.0
101 0.002904
126 0.0
141 0.0
156 0.000993
160 0.002993
154 0.002167
142 0.0
145 0.002004
154 0.000992
169 0.003995
183 0.002984
200 0.001962
213 0.002887
221 0.001999
227 0.001993
233 0.001995
241 0.002635
231 0.003045
138 0.001608
83 0.0
70 0.001994
80 0.002373
99 0.002939
123 0.002857
136 0.002855
142 0.0
135 0.0
127 0.0
127 0.0022
135 0.002609
154 0.002027
167 0.0
179 0.0
189 0.003023
196 0.003029
207 0.002995
214 0.002994
220 0.000998
176 0.000997
104 0.001935
64 0.002995
60 0.00333
81 0.001969
98 0.000957
112 0.0
123 0.003646
131 0.003568
120 0.003
114 0.002962
122 0.000951
134 0.002049
148 0.001996
160 0.003958
171 0.002993
182 0.001675
187 0.001964
196 0.003071
204 0.003897
191 0.00402
92 0.003922
61 0.003989
70 0.002033
88 0.0
105 0.001954
122 0.003989
134 0.002613
131 0.001953
119 0.001804
113 0.000997
118 0.00332
130 0.003444
152 0.004203
164 0.002995
175 0.001992
182 0.002992
190 0.002025
198 0.00334
193 0.003215
116 0.0021
67 0.000996
55 0.002953
68 0.003715
86 0.003373
113 0.004031
128 0.003963
129 0.002041
119 0.001993
112 0.001994
116 0.00332
126 0.003204
144 0.002993
158 0.002992
168 0.001998
175 0.003991
183 0.003932
195 0.003989
201 0.004991
145 0.001928
81 0.002959
50 0.001992
53 0.004021
68 0.004019
90 0.002165
101 0.002987
112 0.002981
116 0.001957
111 0.00378
104 0.002002
112 0.004152
123 0.004009
142 0.00208
153 0.001996
163 0.001992
170 0.004557
177 0.004579
187 0.002407
194 0.002941
168 0.001961
102 0.004325
46 0.001997
53 0.00417
70 0.003993
91 0.003025
103 0.00299
112 0.002992
114 0.005039
107 0.005045
103 0.002026
109 0.001994
122 0.001003
144 0.002988
155 0.002
164 0.005033
171 0.005017
181 0.002994
189 0.003024
187 0.002181
136 0.004379
77 0.003906
53 0.002994
65 0.002941
83 0.001997
109 0.003021
122 0.001958
125 0.004022
114 0.004987
103 0.002916
109 0.003021
120 0.002658
134 0.004934
147 0.005616
160 0.002792
167 0.002989
174 0.002036
187 0.00296
172 0.002036
116 0.005017
66 0.004967
53 0.001995
67 0.001962
85 0.002011
99 0.004924
112 0.004174
119 0.001993
109 0.001996
100 0.001955
108 0.002668
121 0.002672
134 0.005094
145 0.004096
156 0.002025
163 0.002196
169 0.002564
177 0.004251
174 0.004637
104 0.003108
54 0.002961
41 0.00399
61 0.003374
75 0.001994
85 0.006081
95 0.005018
100 0.002992
93 0.00342
89 0.001993
94 0.005322
104 0.005352
120 0.003928
132 0.00389
142 0.003486
154 0.003046
160 0.002024
168 0.006055
172 0.005354
123 0.00302
65 0.002955
38 0.002872
41 0.005512
56 0.004988
71 0.003941
81 0.002932
91 0.003507
92 0.003024
88 0.002953
90 0.005142
99 0.005395
116 0.003841
128 0.002957
140 0.003613
149 0.005422
156 0.005222
165 0.00295
173 0.00415
179 0.00399
113 0.001997
63 0.004001
47 0.004989
56 0.006101
78 0.003974
90 0.002999
101 0.003086
110 0.00593
107 0.005888
100 0.004108
102 0.004198
111 0.003012
134 0.003691
145 0.002952
155 0.006018
163 0.005954
171 0.003953
178 0.00399
186 0.00204
191 0.006657
156 0.006017
81 0.00419
58 0.003989
65 0.004669
94 0.003992
108 0.002992
120 0.004174
127 0.006345
123 0.005814
112 0.004076
114 0.003309
125 0.003949
139 0.006243
152 0.005992
166 0.004988
178 0.006384
186 0.003947
192 0.00369
199 0.003144
206 0.007031
182 0.006374
98 0.004904
63 0.003318
63 0.004817
79 0.006429
95 0.006398
107 0.00481
120 0.006787
121 0.002571
115 0.00403
113 0.004043
120 0.005986
133 0.005914
151 0.003951
163 0.003953
173 0.004964
182 0.006385
188 0.006369
197 0.00424
206 0.006989
210 0.003979
162 0.004703
96 0.004174
64 0.005837
66 0.006374
87 0.00495
101 0.004823
112 0.005397
122 0.006012
128 0.0073
121 0.005087
118 0.006107
129 0.003949
142 0.004168
155 0.004173
168 0.007022
179 0.005986
190 0.004899
197 0.004883
204 0.004891
210 0.007756
218 0.007032
202 0.00551
115 0.006632
71 0.00504
77 0.004782
96 0.003988
113 0.006779
125 0.007053
139 0.004969
141 0.003978
131 0.004924
124 0.007622
128 0.007188
143 0.004802
163 0.00743
178 0.004587
188 0.004945
195 0.006066
201 0.006694
207 0.006971
219 0.006086
216 0.006187
162 0.005214
100 0.007567
75 0.007989
88 0.004904
115 0.007322
136 0.004557
149 0.006049
153 0.00399
143 0.006805
131 0.007528
133 0.006017
144 0.005307
158 0.005818
172 0.007675
187 0.008007
195 0.006515
203 0.007678
211 0.005243
218 0.004933
217 0.005179
163 0.007855
97 0.007236
65 0.004954
74 0.004956
92 0.004235
109 0.008169
125 0.007917
135 0.005987
131 0.006843
120 0.004986
121 0.004977
130 0.006127
143 0.007551
158 0.007288
174 0.006617
183 0.004868
190 0.006099
196 0.007816
206 0.007981
213 0.00802
174 0.007202
86 0.005626
56 0.005954
60 0.005947
82 0.007716
92 0.007706
107 0.007859
117 0.004984
122 0.006855
115 0.004915
109 0.006864
116 0.006152
132 0.007858
142 0.00798
158 0.007127
169 0.005941
178 0.005114
184 0.007348
191 0.007981
201 0.005842
173 0.005858
107 0.005724
60 0.007348
60 0.00599
83 0.006872
97 0.007733
110 0.005948
120 0.00499
120 0.005944
110 0.006996
107 0.007392
115 0.005438
127 0.006638
146 0.006926
158 0.006985
170 0.005998
179 0.006755
187 0.006938
195 0.006022
198 0.00605
153 0.006166
74 0.007666
56 0.007981
64 0.006027
82 0.006776
99 0.006308
118 0.00666
127 0.005962
113 0.006511
104 0.007118
108 0.005983
122 0.005989
131 0.005918
148 0.007295
157 0.007658
165 0.006212
175 0.00663
181 0.006016
182 0.006981
114 0.006093
56 0.006989
54 0.007573
74 0.007035
85 0.005986
100 0.006006
118 0.006891
119 0.00698
104 0.007029
100 0.006739
104 0.006984
116 0.006981
139 0.006458
149 0.007382
157 0.007568
163 0.006202
171 0.006157
178 0.007075
144 0.006064
81 0.006985
41 0.00623
38 0.006463
51 0.006001
71 0.005986
89 0.006923
97 0.007159
95 0.006981
87 0.006854
87 0.006954
95 0.005913
111 0.006694
124 0.007015
137 0.006983
146 0.006988
153 0.005946
162 0.006983
170 0.006541
119 0.007164
60 0.005952
32 0.006098
36 0.005971
55 0.00646
66 0.006688
76 0.006641
88 0.007218
90 0.005667
85 0.00566
84 0.005989
96 0.005657
112 0.00647
126 0.006036
140 0.006017
148 0.006369
157 0.006761
165 0.006011
174 0.006984
149 0.005988
88 0.006017
45 0.005955
47 0.007021
63 0.005999
75 0.006965
86 0.006359
97 0.005018
99 0.005984
92 0.005907
92 0.005984
100 0.005978
118 0.006016
131 0.005985
143 0.006041
157 0.00602
163 0.006014
172 0.006231
179 0.006285
152 0.005598
93 0.005593
55 0.005943
51 0.004984
67 0.005983
84 0.004942
100 0.005983
111 0.005919
113 0.006576
105 0.005401
106 0.005922
116 0.004991
129 0.004943
147 0.005897
157 0.005982
166 0.004987
173 0.004958
180 0.004989
191 0.005984
195 0.005951
116 0.005537
69 0.005609
59 0.006274
72 0.005556
87 0.005983
100 0.005848
111 0.005983
119 0.006021
119 0.005986
115 0.004976
116 0.005012
126 0.00498
148 0.00496
160 0.005489
169 0.005624
177 0.004989
185 0.004987
193 0.005983
201 0.006122
205 0.004988
164 0.004987
103 0.00399
71 0.00599
81 0.004991
104 0.005777
112 0.005125
122 0.004985
131 0.004987
130 0.004953
124 0.004992
129 0.004987
139 0.004942
151 0.004986
163 0.003987
178 0.004991
187 0.004989
198 0.004946
204 0.005741
212 0.005763
218 0.004955
191 0.004988
114 0.004989
89 0.004955
96 0.004973
113 0.004989
127 0.004988
143 0.005024
151 0.004647
149 0.004222
142 0.005257
144 0.003995
154 0.003973
165 0.004986
181 0.003956
192 0.004825
199 0.004955
206 0.004985
212 0.003941
222 0.004987
224 0.00494
145 0.004022
108 0.003992
106 0.005144
120 0.00488
139 0.003738
156 0.004953
167 0.004985
170 0.005027
162 0.004984
153 0.004989
156 0.004024
170 0.003993
186 0.004899
196 0.004432
204 0.005008
210 0.004986
216 0.004002
226 0.004985
223 0.004029
174 0.004008
119 0.004989
99 0.003988
112 0.003993
135 0.003995
148 0.00499
158 0.004943
162 0.004012
156 0.003992
150 0.004606
153 0.00397
162 0.004109
174 0.00397
185 0.003991
194 0.003992
204 0.003648
212 0.004444
222 0.004991
216 0.003991
163 0.003989
110 0.003989
92 0.002942
107 0.00397
122 0.003969
133 0.003989
142 0.003988
149 0.002991
151 0.003712
142 0.003994
144 0.003994
154 0.004514
164 0.003737
175 0.003878
185 0.003836
192 0.003988
201 0.003995
208 0.00296
215 0.003028
196 0.002995
139 0.003994
89 0.003022
100 0.002987
120 0.004205
132 0.003559
143 0.002991
149 0.004046
149 0.002999
140 0.003887
138 0.002991
145 0.003955
156 0.003992
166 0.002995
183 0.003993
190 0.002807
198 0.003991
207 0.002997
210 0.003685
175 0.002727
120 0.002994
91 0.003004
101 0.00397
119 0.002999
134 0.003993
147 0.002996
158 0.003991
149 0.002859
139 0.004025
142 0.004041
151 0.003602
162 0.002953
172 0.004012
183 0.002989
188 0.003035
195 0.003992
204 0.003042
197 0.002996
112 0.002993
86 0.002992
94 0.003968
110 0.003029
123 0.003989
134 0.003907
143 0.001958
142 0.003952
134 0.003955
133 0.004039
138 0.004025
147 0.002
163 0.002995
172 0.00204
181 0.003494
187 0.001998
195 0.002973
194 0.003989
150 0.003977
84 0.002992
76 0.003988
88 0.003991
103 0.003045
112 0.00281
126 0.00303
131 0.003036
125 0.002664
121 0.003036
124 0.002718
134 0.003028
143 0.003981
156 0.001976
165 0.002995
172 0.00299
179 0.002008
190 0.001845
165 0.001765
109 0.001616
73 0.003112
83 0.002058
99 0.001971
112 0.002995
121 0.002993
134 0.001965
136 0.002992
129 0.001994
126 0.002994
136 0.001999
147 0.002849
158 0.001993
169 0.001983
177 0.00304
184 0.001678
191 0.002546
197 0.001962
157 0.002947
105 0.002994
85 0.002039
93 0.002996
122 0.001582
136 0.001999
147 0.001997
152 0.001959
144 0.001705
136 0.002038
138 0.001992
147 0.00196
162 0.001777
172 0.001993
180 0.002995
187 0.001997
199 0.001714
204 0.002686
173 0.001998
102 0.002
85 0.002028
96 0.003037
114 0.001996
130 0.001993
146 0.002996
154 0.001975
153 0.001997
142 0.00199
140 0.002056
149 0.001739
160 0.002028
172 0.002262
184 0.000854
191 0.001998
198 0.002007
206 0.001961
209 0.001998
151 0.001996
96 0.001962
80 0.002028
102 0.001
118 0.001996
128 0.002029
139 0.00103
145 0.001994
141 0.001
135 0.000979
136 0.001915
142 0.001998
157 0.001018
168 0.000997
177 0.000966
190 0.001687
196 0.000769
204 0.001905
204 0.001
134 0.001821
87 0.001035
77 0.001437
91 0.001906
108 0.001999
125 0.001014
134 0.001992
142 0.001997
139 0.001996
133 0.002035
136 0.000997
145 0.001002
160 0.001036
172 0.002031
182 0.000718
188 0.000995
195 0.001958
205 0.002029
211 0.0
183 0.001027
91 0.002005
81 0.001001
95 0.001
116 0.001
137 0.002033
149 0.001016
156 0.000933
153 0.000998
142 0.001001
138 0.001029
147 0.0
167 0.0
180 0.001998
188 0.0
196 0.001001
204 0.002055
213 0.000549
203 0.001981
142 0.001008
93 0.000918
84 0.0
105 0.0
126 0.000976
153 0.0
164 0.001165
163 0.001
151 0.000761
143 0.0
147 0.001141
158 0.0
170 0.001026
182 0.000989
192 0.000999
202 0.001067
210 0.000997
216 0.0
163 0.000598
98 0.0
76 0.0
85 0.0
110 0.000998
127 0.0
141 0.001012
152 0.0
154 0.0
142 0.0
137 0.0
147 0.0
157 0.0
171 0.0
182 0.001006
192 0.0
201 0.0
209 0.0
215 0.000992
188 0.0
117 0.0
70 0.0
75 0.0
106 0.0
122 0.0
135 0.0
146 0.0
146 0.0
135 0.0
131 0.0
136 0.0
146 0.0
158 0.0
175 0.0
183 0.0
197 0.0
204 0.0
211 0.0
174 0.00101
105 0.0
70 0.0
76 0.0
95 0.0
114 0.000964
130 0.0
143 0.000963
148 0.0
136 0.0
132 0.000776
138 0.0
147 0.0
166 0.0
173 0.0
186 0.0
194 0.0
201 0.0
209 0.000962
206 0.001993
125 0.0
72 0.000989
82 0.002994
102 0.0
130 0.0
142 0.0
159 0.0
154 0.001513
138 0.0
129 0.0
135 0.0
146 0.001029
159 0.001995
176 0.001001
184 0.001997
190 0.001958
198 0.001022
193 0.0
132 0.0
77 0.001995
63 0.002028
78 0.00104
98 0.0
115 0.0
138 0.0
137 0.0
124 0.002003
116 0.002066
120 0.0
130 0.0
143 0.0
154 0.002039
162 0.002994
172 0.0
179 0.0
186 0.001
132 0.0
73 0.0
50 0.001992
57 0.001994
81 0.0
96 0.0
109 0.0
119 0.002034
119 0.002028
109 0.0
105 0.0
109 0.0
125 0.0
135 0.0
146 0.002027
154 0.002026
163 0.000997
171 0.0
174 0.000999
132 0.001821
72 0.002001
43 0.000998
54 0.000997
69 0.0
92 0.0
103 0.0
109 0.002311
104 0.001995
95 0.0
98 0.0
105 0.0
115 0.0023
126 0.002895
139 0.000998
146 0.0
153 0.0
165 0.001041
162 0.0
111 0.00237
59 0.002002
42 0.0
54 0.000999
70 0.000987
83 0.002892
94 0.000999
104 0.000965
101 0.0
93 0.000996
96 0.0
105 0.001024
115 0.002995
126 0.002017
140 0.0
147 0.0
153 0.0
161 0.003125
165 0.002994
104 0.0
56 0.001037
42 0.0
65 0.0
80 0.0
94 0.002273
106 0.002259
109 0.0
101 0.0
95 0.001003
100 0.002046
107 0.001957
122 0.000997
135 0.0
143 0.0
156 0.0
162 0.0
171 0.0
157 0.001891
101 0.001241
50 0.001002
52 0.0
69 0.000998
87 0.003025
102 0.001922
117 0.0
120 0.000959
106 0.0
104 0.0
111 0.0
121 0.001165
133 0.001656
146 0.0
155 0.0
162 0.001033
170 0.002862
178 0.002921
154 0.001
94 0.0
56 0.0
71 0.0
90 0.0
107 0.002997
123 0.002964
134 0.0
127 0.0
115 0.0
114 0.002909
120 0.003026
135 0.0
153 0.002167
166 0.0
174 0.0
182 0.0
188 0.003023
166 0.002313
91 0.0
65 0.0
72 0.0
90 0.002959
108 0.002993
126 0.0
138 0.002999
132 0.002038
123 0.0
124 0.002032
130 0.002312
141 0.002191
157 0.000961
165 0.00199
173 0.0
181 0.001994
188 0.003027
167 0.0
92 0.002215
69 0.002993
81 0.001985
99 0.001029
112 0.001993
121 0.002996
131 0.002029
130 0.001989
123 0.0
121 0.002861
126 0.002993
139 0.001995
151 0.002308
161 0.001965
168 0.0
175 0.0
181 0.003752
175 0.002969
109 0.001996
77 0.001993
78 0.004022
92 0.002916
105 0.002899
117 0.0
128 0.003971
128 0.002943
122 0.001232
121 0.002031
127 0.003306
135 0.003314
147 0.003005
154 0.002026
160 0.0
165 0.002958
171 0.002902
178 0.0
152 0.003036
93 0.00305
82 0.001975
93 0.001974
107 0.003545
118 0.00351
128 0.00294
134 0.002021
133 0.002889
127 0.002986
125 0.003989
132 0.000968
144 0.003226
155 0.001994
161 0.002006
167 0.00197
172 0.00357
176 0.003216
183 0.002005
183 0.00199
146 0.0
103 0.003993
90 0.003993
106 0.002992
124 0.003257
134 0.002955
141 0.001922
143 0.002011
136 0.003678
132 0.00399
137 0.001996
145 0.002992
154 0.00096
162 0.003025
167 0.004021
171 0.00399
177 0.003982
181 0.003994
187 0.002036
172 0.001994
127 0.001994
97 0.003266
99 0.003373
118 0.002024
129 0.002994
134 0.002985
142 0.003263
143 0.000966
136 0.004156
135 0.004111
142 0.001936
150 0.001989
159 0.001999
166 0.004075
171 0.004498
176 0.001957
180 0.003017
183 0.002962
187 0.003992
191 0.003024
159 0.004243
114 0.004968
97 0.002001
108 0.001952
123 0.00203
129 0.004165
134 0.004352
142 0.001994
143 0.003033
139 0.002993
136 0.004987
144 0.003029
153 0.003891
160 0.00439
169 0.001954
174 0.00207
178 0.001299
181 0.004476
184 0.004985
189 0.001964
193 0.003142
189 0.002088
147 0.005915
100 0.001957
107 0.004215
121 0.004949
133 0.001917
138 0.002959
144 0.002868
147 0.005211
144 0.005647
140 0.001987
143 0.002898
149 0.001949
158 0.004981
169 0.001956
174 0.004892
178 0.005045
184 0.002942
187 0.00256
188 0.003015
194 0.004299
200 0.004267
176 0.003032
129 0.002765
104 0.002963
108 0.00499
134 0.002966
141 0.005992
147 0.005155
154 0.001995
153 0.001992
147 0.003009
146 0.005093
151 0.005832
160 0.002352
169 0.001996
176 0.002999
182 0.004989
188 0.002955
190 0.005067
193 0.005212
198 0.001931
203 0.00297
199 0.003086
157 0.005061
117 0.004986
112 0.001991
129 0.001997
144 0.002996
153 0.006029
165 0.002065
167 0.004939
160 0.005177
152 0.002993
156 0.004006
164 0.002946
173 0.005727
180 0.006038
188 0.003024
193 0.002993
195 0.002996
199 0.005024
205 0.001998
209 0.004702
180 0.005146
119 0.002943
107 0.002945
117 0.003524
133 0.005043
144 0.005752
153 0.004379
159 0.004178
161 0.002992
155 0.005285
151 0.002944
156 0.004848
163 0.004918
172 0.005648
182 0.003958
188 0.002973
192 0.003266
196 0.005839
200 0.005277
205 0.002605
203 0.002963
129 0.003045
102 0.003206
105 0.002931
120 0.005359
135 0.006104
144 0.003237
150 0.003835
154 0.003991
154 0.005984
148 0.005953
147 0.003995
153 0.002985
167 0.002998
175 0.003955
182 0.003945
187 0.005983
192 0.006684
196 0.00326
200 0.00399
205 0.00432
199 0.005995
151 0.005994
101 0.002961
103 0.003987
131 0.002946
144 0.003984
151 0.003021
157 0.006471
159 0.005642
151 0.004104
145 0.003746
148 0.004226
155 0.006702
164 0.006392
176 0.003177
183 0.002991
190 0.004009
193 0.003947
197 0.004749
202 0.006215
188 0.007057
123 0.00395
98 0.00399
103 0.002992
120 0.006825
136 0.006857
150 0.002954
157 0.004228
156 0.003929
147 0.004384
143 0.003471
148 0.006441
156 0.006541
168 0.003992
176 0.004518
183 0.004052
186 0.006846
190 0.007021
194 0.003957
198 0.004012
166 0.003987
113 0.003954
88 0.002952
94 0.006447
110 0.007061
129 0.004732
136 0.004388
143 0.004503
147 0.006794
143 0.006985
135 0.003954
137 0.002961
148 0.004934
158 0.004945
166 0.004987
172 0.00665
177 0.007808
182 0.004152
185 0.004782
190 0.00437
185 0.006678
141 0.00698
90 0.004657
89 0.003109
115 0.004952
126 0.004937
133 0.004983
139 0.006731
143 0.006658
136 0.004986
132 0.005049
133 0.004957
140 0.007184
148 0.007673
160 0.004621
167 0.002994
174 0.004957
178 0.005111
181 0.00464
185 0.006834
164 0.006924
101 0.004994
86 0.005001
96 0.005035
112 0.008353
129 0.007979
138 0.004953
144 0.006991
141 0.006237
133 0.005418
133 0.005219
138 0.00788
146 0.00766
157 0.005541
164 0.005865
169 0.005196
175 0.007979
179 0.007511
183 0.005939
140 0.007392
98 0.007571
89 0.004966
103 0.006341
120 0.00522
132 0.007874
141 0.007671
147 0.006247
144 0.005876
135 0.005102
134 0.00785
139 0.007723
150 0.007985
158 0.007654
167 0.005459
172 0.005929
178 0.005528
185 0.007745
175 0.007523
112 0.005945
85 0.005831
89 0.006005
112 0.006874
123 0.007405
145 0.007589
149 0.007795
149 0.005029
136 0.005906
131 0.005015
142 0.007981
152 0.006744
163 0.005047
173 0.005149
180 0.006085
188 0.007599
196 0.007951
178 0.007572
115 0.00791
73 0.005699
82 0.005889
104 0.00495
129 0.007285
144 0.007191
154 0.006441
150 0.006493
136 0.006298
128 0.007119
133 0.006962
151 0.007734
162 0.007989
169 0.005988
174 0.005986
180 0.005011
186 0.006987
151 0.006765
90 0.006067
61 0.006297
67 0.006172
93 0.007266
107 0.007863
126 0.008
128 0.007729
120 0.005938
111 0.005953
113 0.007021
121 0.006092
132 0.006792
142 0.005018
148 0.005981
153 0.006668
161 0.007264
166 0.006977
113 0.007286
58 0.006489
41 0.006396
53 0.005827
70 0.006015
84 0.007264
92 0.007775
98 0.006633
96 0.006786
91 0.006038
88 0.006357
94 0.006984
108 0.006945
116 0.007682
124 0.006574
131 0.005555
135 0.006017
143 0.005986
142 0.007036
96 0.006176
34 0.006961
28 0.006393
45 0.00757
59 0.007379
72 0.007637
80 0.007404
82 0.006815
77 0.005976
72 0.006924
78 0.005672
86 0.007099
98 0.006652
106 0.006511
112 0.006378
117 0.006581
125 0.006505
132 0.007147
133 0.006013
74 0.006609
33 0.006927
24 0.006183
41 0.005874
56 0.007205
68 0.005815
76 0.005944
81 0.006621
79 0.007154
71 0.005823
78 0.006987
87 0.006026
96 0.006691
108 0.005941
111 0.006489
120 0.005004
125 0.006063
131 0.006214
138 0.006551
139 0.006735
96 0.006249
33 0.006102
30 0.005983
45 0.006967
57 0.005921
64 0.006752
75 0.006121
79 0.005587
76 0.006985
71 0.005987
74 0.006357
83 0.006243
94 0.006505
109 0.006962
117 0.005984
123 0.00594
128 0.006094
134 0.006088
140 0.005984
146 0.006014
131 0.005292
77 0.006343
30 0.005726
36 0.005857
52 0.005824
69 0.005757
75 0.006399
82 0.005971
84 0.004951
77 0.004987
78 0.005986
85 0.005723
94 0.006101
104 0.005696
117 0.004931
124 0.005028
131 0.006443
141 0.006203
146 0.006017
153 0.005878
148 0.005671
81 0.00557
45 0.005987
46 0.005987
61 0.004764
76 0.004727
91 0.005233
99 0.005038
103 0.006131
93 0.005771
92 0.005984
100 0.004987
109 0.005719
124 0.005458
135 0.004984
143 0.005028
151 0.004799
157 0.005106
165 0.00499
171 0.00466
175 0.005857
97 0.004648
61 0.005538
60 0.004996
76 0.004956
99 0.005719
111 0.005135
122 0.004988
125 0.005528
116 0.004611
106 0.004996
111 0.004737
121 0.005138
142 0.004988
152 0.005041
159 0.004949
166 0.00399
177 0.005024
185 0.003991
182 0.005014
135 0.003986
81 0.003958
62 0.005137
78 0.005496
108 0.005469
122 0.005315
133 0.005457
135 0.005093
124 0.005453
114 0.003987
118 0.004988
129 0.004022
142 0.004989
153 0.003991
165 0.00456
173 0.004623
185 0.003993
190 0.005097
159 0.004841
94 0.004004
54 0.003987
58 0.004986
75 0.00499
90 0.003988
100 0.003993
109 0.003978
114 0.003762
106 0.003987
101 0.005025
109 0.004948
120 0.004857
132 0.004914
143 0.005179
153 0.004987
160 0.003991
168 0.003992
175 0.003955
168 0.003991
92 0.004992
45 0.003986
46 0.003738
61 0.004396
72 0.003953
79 0.005038
88 0.003989
93 0.003991
89 0.003991
86 0.004044
90 0.003992
99 0.003963
110 0.004635
124 0.003993
137 0.004433
147 0.003992
154 0.003992
162 0.004983
162 0.003882
114 0.003993
45 0.003992
37 0.004631
49 0.00368
65 0.003878
75 0.004039
87 0.00404
97 0.003034
93 0.004581
89 0.004502
93 0.003899
102 0.00399
114 0.003987
131 0.003956
140 0.003035
148 0.003028
156 0.003994
162 0.004063
172 0.004028
148 0.003822
70 0.004038
44 0.002991
51 0.003022
70 0.003992
84 0.003989
98 0.00404
108 0.00379
110 0.003992
102 0.003972
97 0.003285
105 0.003997
119 0.003991
136 0.003956
146 0.003887
153 0.003908
160 0.003987
169 0.004003
177 0.00303
152 0.003013
92 0.003991
51 0.002834
49 0.00303
71 0.002565
88 0.003989
102 0.002989
111 0.002986
113 0.002993
104 0.003001
101 0.003033
111 0.002991
123 0.003993
136 0.002568
147 0.00304
157 0.003997
167 0.003046
177 0.00292
183 0.00358
147 0.003033
82 0.003023
46 0.00396
47 0.003991
68 0.003038
80 0.002688
89 0.002996
99 0.003037
105 0.003728
97 0.00364
97 0.002993
106 0.003023
118 0.003182
130 0.002961
142 0.002995
151 0.002991
162 0.002987
171 0.003226
178 0.002993
180 0.002987
139 0.002932
52 0.002056
48 0.002035
68 0.003038
83 0.002996
92 0.002994
103 0.00203
111 0.003009
107 0.00302
101 0.002992
106 0.003038
116 0.002013
128 0.002556
149 0.002038
158 0.001991
170 0.002953
177 0.003021
185 0.001952
190 0.001994
152 0.003064
76 0.002999
58 0.001619
70 0.00179
88 0.002057
103 0.001953
125 0.001796
131 0.002069
119 0.001637
111 0.001995
114 0.002037
125 0.002994
139 0.003045
153 0.002995
162 0.001991
171 0.001985
180 0.001799
187 0.002029
148 0.001987
87 0.00202
55 0.001644
65 0.001995
83 0.001981
98 0.001995
111 0.002994
125 0.00202
125 0.001662
113 0.001813
110 0.002031
118 0.000997
137 0.00199
149 0.002002
160 0.002996
172 0.001994
182 0.001998
190 0.001993
183 0.001994
122 0.001917
52 0.001993
45 0.00168
59 0.001995
73 0.001994
92 0.001997
104 0.001989
109 0.001974
104 0.000997
101 0.001966
106 0.001996
115 0.001997
128 0.000998
145 0.001994
155 0.001654
165 0.001806
176 0.001691
183 0.002002
136 0.001652
73 0.001989
44 0.001997
56 0.001956
72 0.002027
86 0.001994
100 0.002015
114 0.001996
116 0.00099
109 0.001031
107 0.001997
120 0.001927
133 0.002041
146 0.002057
162 0.001991
172 0.000997
181 0.001996
192 0.001994
194 0.001997
124 0.001528
71 0.001997
56 0.00104
84 0.001994
101 0.001993
116 0.001997
130 0.00236
136 0.001996
123 0.001022
117 0.002041
123 0.001984
133 0.001004
151 0.00212
165 0.00178
175 0.001199
190 0.000614
200 0.001995
195 0.001694
137 0.001985
67 0.001852
62 0.000939
79 0.0
97 0.000996
112 0.001997
132 0.001619
139 0.001575
133 0.001997
121 0.001996
129 0.001522
140 0.001629
155 0.002068
171 0.000969
182 0.001946
190 0.001998
199 0.002064
208 0.001001
173 0.001997
100 0.001026
57 0.001086
66 0.0
84 0.000599
97 0.000814
107 0.001003
119 0.001987
121 0.0
113 0.001012
110 0.001002
117 0.00085
133 0.0
144 0.000577
156 0.0
172 0.001
180 0.000912
188 0.001003
192 0.000958
129 0.000997
70 0.001042
50 0.001041
59 0.000997
76 0.000922
91 0.0
102 0.0
113 0.000998
111 0.0
105 0.0
108 0.000998
118 0.000897
134 0.0
146 0.0
155 0.000997
165 0.001045
174 0.0
185 0.0
190 0.0
153 0.0
64 0.0
58 0.0
73 0.0
91 0.0
108 0.0
119 0.0
126 0.001
121 0.0
111 0.0
112 0.0
126 0.0
139 0.0
157 0.0
164 0.0
172 0.000881
181 0.0
186 0.0
145 0.0
86 0.0
57 0.0
63 0.0
80 0.000347
98 0.0
110 0.0
124 0.0
117 0.0
109 0.0
112 0.0
120 0.0
136 0.0
147 0.0
157 0.0
163 0.0
173 0.000681
184 0.0
158 0.0
76 0.0
48 0.003028
55 0.000844
69 0.0
79 0.0
93 0.0
103 0.0
105 0.0
100 0.0
97 0.0
105 0.0
123 0.0
134 0.0
145 0.002027
155 0.0
163 0.000993
171 0.001004
162 0.003028
105 0.002027
43 0.0
41 0.000944
55 0.0
69 0.002028
85 0.000997
96 0.001995
100 0.001925
92 0.0
93 0.0
100 0.0
111 0.003026
122 0.003011
137 0.000997
145 0.001027
154 0.0
163 0.001997
145 0.000997
88 0.002995
49 0.00303
52 0.000966
67 0.000996
80 0.0
88 0.004065
101 0.003032
108 0.0
102 0.000997
100 0.0
107 0.00226
125 0.0
135 0.002154
145 0.003003
158 0.0
166 0.0
174 0.001026
173 0.002043
126 0.002993
58 0.000998
53 0.0
67 0.000998
80 0.002922
96 0.001027
106 0.001994
112 0.002994
108 0.0
106 0.0
113 0.0
123 0.004025
135 0.001996
149 0.0
159 0.001031
167 0.0
175 0.002295
183 0.0
143 0.002244
84 0.002994
61 0.0
76 0.001025
91 0.001023
102 0.003995
112 0.003992
124 0.0
125 0.000983
120 0.001005
120 0.002035
137 0.000964
149 0.002186
160 0.002031
172 0.0
180 0.0
189 0.000986
196 0.002992
196 0.003039
135 0.0
90 0.0
84 0.0
100 0.002267
126 0.0
139 0.002242
150 0.002227
154 0.0
150 0.000974
147 0.000966
153 0.003857
163 0.003023
181 0.0
192 0.00096
198 0.001994
210 0.00203
227 0.000995
233 0.002247
195 0.002229
120 0.001038
106 0.0
121 0.0
142 0.001
160 0.001997
177 0.003249
190 0.000998
186 0.0
169 0.0
174 0.0
184 0.000996
194 0.003022
204 0.002284
210 0.0
213 0.0
219 0.0
218 0.001998
173 0.002247
115 0.0
113 0.0
142 0.0
156 0.0
169 0.0
177 0.002027
175 0.002035
158 0.0
154 0.0
158 0.0
162 0.003023
165 0.002189
170 0.000999
175 0.0
184 0.0
172 0.0
122 0.0
87 0.001997
85 0.002991
102 0.001001
111 0.0
119 0.000997
129 0.004436
136 0.002923
140 0.0
142 0.0
152 0.0
159 0.001031
166 0.0
168 0.002994
168 0.002883
176 0.001
188 0.0
187 0.0
151 0.002997
119 0.002191
118 0.0
131 0.0
154 0.000962
166 0.0
173 0.0
176 0.002992
177 0.00296
182 0.0
186 0.000952
189 0.000943
194 0.002047
199 0.002186
206 0.0
214 0.0
175 0.0
147 0.0
147 0.0
161 0.002983
178 0.002999
200 0.0
213 0.0
218 0.0
211 0.003248
201 0.002994
200 0.00096
206 0.0
219 0.0
231 0.0
243 0.0
252 0.002365
222 0.002873
146 0.000994
129 0.0
142 0.002991
164 0.003246
181 0.003195
201 0.000963
211 0.002934
202 0.002947
193 0.001989
194 0.00299
199 0.003889
208 0.003962
223 0.0
235 0.001983
243 0.0
214 0.003029
147 0.003206
109 0.003948
122 0.002942
152 0.00198
164 0.002949
172 0.002006
179 0.002992
179 0.003404
170 0.0
171 0.003953
177 0.002962
186 0.00319
197 0.00321
214 0.0
225 0.00359
167 0.002545
112 0.002987
102 0.002992
116 0.002871
135 0.003997
153 0.003052
164 0.003022
173 0.00299
174 0.002992
171 0.003195
166 0.003143
174 0.00322
184 0.003251
197 0.002909
208 0.00296
219 0.000987
211 0.003942
149 0.003995
97 0.002949
104 0.003064
123 0.00199
141 0.003357
154 0.003943
172 0.003993
172 0.00499
165 0.003023
163 0.001991
168 0.001994
175 0.003848
187 0.004663
200 0.002992
209 0.002025
219 0.002993
209 0.004012
146 0.004191
94 0.004201
108 0.004116
137 0.003023
150 0.002026
162 0.000987
170 0.004987
170 0.004083
159 0.002992
159 0.002955
165 0.003027
173 0.0042
185 0.003832
201 0.004487
209 0.004367
221 0.002972
215 0.00275
154 0.002992
100 0.004112
94 0.004084
120 0.002995
140 0.003954
155 0.002991
167 0.004987
173 0.004
163 0.004483
158 0.00478
163 0.00198
171 0.002993
182 0.001994
193 0.004693
201 0.005147
213 0.002993
222 0.002054
215 0.003046
154 0.004052
105 0.004376
108 0.0046
131 0.005007
154 0.00197
170 0.001959
179 0.002567
177 0.004095
166 0.004989
160 0.00299
165 0.002991
173 0.003016
185 0.004336
194 0.004679
208 0.005961
216 0.005025
224 0.001994
211 0.002026
144 0.003009
97 0.004942
96 0.004986
123 0.002997
144 0.002991
159 0.00297
173 0.004248
177 0.004623
162 0.004912
156 0.004256
162 0.002938
172 0.002622
182 0.002078
193 0.004961
202 0.004992
212 0.001996
219 0.002972
226 0.002938
203 0.005984
137 0.005196
95 0.005121
112 0.004495
143 0.00258
159 0.002035
173 0.002954
180 0.005129
174 0.005505
159 0.002982
158 0.003989
164 0.002936
174 0.005228
193 0.003009
201 0.005532
208 0.005986
219 0.001992
224 0.002984
192 0.002326
127 0.005497
97 0.005039
109 0.002978
131 0.002992
153 0.002939
169 0.005311
182 0.002941
172 0.004682
159 0.0051
158 0.001992
164 0.001994
175 0.00299
186 0.005713
195 0.006017
202 0.005206
211 0.002991
219 0.00294
214 0.002833
114 0.002484
88 0.003756
98 0.005247
119 0.006508
144 0.003052
158 0.002968
167 0.002965
166 0.005925
154 0.005232
146 0.002805
150 0.00394
159 0.003992
176 0.002986
185 0.003966
192 0.005271
197 0.006771
207 0.002927
206 0.002979
158 0.00299
97 0.006021
78 0.005493
97 0.003641
116 0.002938
130 0.003557
146 0.003751
150 0.003829
142 0.005975
134 0.00707
136 0.003992
144 0.004046
153 0.004028
163 0.006491
171 0.006184
179 0.003993
184 0.002958
190 0.003966
180 0.002791
122 0.003838
78 0.006296
75 0.00712
99 0.003046
113 0.003985
123 0.003023
133 0.006201
138 0.00699
133 0.00399
127 0.003932
127 0.003746
139 0.003939
150 0.004952
157 0.006474
164 0.006627
170 0.003993
175 0.003989
180 0.002994
180 0.006783
137 0.00699
76 0.002989
74 0.003955
89 0.003939
113 0.004041
122 0.004169
131 0.007287
134 0.006964
125 0.004024
121 0.002998
126 0.003978
134 0.006174
141 0.006375
154 0.003937
160 0.003952
165 0.004935
172 0.00482
177 0.003994
181 0.007238
174 0.007872
104 0.003953
73 0.003979
76 0.004006
93 0.007237
107 0.00644
120 0.004084
129 0.003933
130 0.004069
123 0.004975
120 0.004434
126 0.008095
134 0.007588
148 0.003956
156 0.004439
162 0.004329
167 0.007149
172 0.005984
176 0.004989
178 0.004702
184 0.004397
152 0.004978
98 0.005056
74 0.007402
82 0.007034
106 0.0041
118 0.004743
126 0.004037
135 0.007209
137 0.007184
128 0.004802
124 0.004926
133 0.004602
143 0.003989
152 0.003991
159 0.00819
166 0.007509
174 0.003662
177 0.003976
180 0.003961
183 0.007423
188 0.007515
186 0.004051
141 0.004694
78 0.005368
84 0.004858
102 0.005006
117 0.004176
130 0.008077
138 0.007591
140 0.003976
135 0.004984
128 0.003994
132 0.007972
138 0.00788
149 0.005077
160 0.007534
171 0.005665
176 0.005088
182 0.004956
186 0.007216
188 0.007714
192 0.006016
198 0.005536
177 0.00502
119 0.007979
83 0.008054
87 0.005934
111 0.007518
128 0.005848
138 0.005252
145 0.004561
146 0.007548
134 0.007585
133 0.005534
137 0.00604
146 0.005076
160 0.007099
166 0.007604
176 0.005991
186 0.007806
191 0.004982
193 0.005318
197 0.005985
203 0.007566
183 0.007529
123 0.005993
85 0.004986
85 0.006151
108 0.006971
121 0.007777
137 0.004846
151 0.008216
151 0.005637
141 0.005681
133 0.005921
138 0.007762
144 0.00802
158 0.004986
168 0.004677
176 0.005544
184 0.007714
187 0.007713
192 0.005984
198 0.008131
164 0.006288
108 0.006323
81 0.0062
94 0.006642
111 0.007566
128 0.005666
141 0.004929
151 0.005993
150 0.00698
142 0.007967
131 0.006486
139 0.007455
148 0.006159
159 0.005385
166 0.006232
175 0.00637
181 0.00677
186 0.00296
190 0.004775
164 0.006092
89 0.007977
70 0.006985
90 0.00772
107 0.007611
118 0.006562
130 0.006937
134 0.006308
129 0.006952
120 0.005984
119 0.006991
125 0.005989
133 0.00595
145 0.007154
152 0.007524
161 0.007013
165 0.007023
171 0.006664
172 0.006344
136 0.006026
68 0.006541
55 0.007018
65 0.005983
84 0.006023
91 0.00602
100 0.006741
105 0.00688
105 0.007016
97 0.005861
101 0.006711
105 0.005956
113 0.005776
124 0.006995
131 0.006015
137 0.005855
141 0.006124
144 0.006208
151 0.006495
146 0.006965
69 0.005983
44 0.006983
52 0.005984
65 0.005982
71 0.005976
78 0.005663
86 0.005599
90 0.005536
85 0.005687
82 0.006101
84 0.005999
93 0.006977
106 0.005965
113 0.006014
120 0.005988
126 0.005985
129 0.005945
133 0.006981
135 0.005964
140 0.005579
136 0.006868
89 0.006442
44 0.006639
34 0.006802
47 0.005774
60 0.005942
64 0.00499
73 0.00631
76 0.006208
73 0.0057
69 0.005986
72 0.005954
80 0.006198
87 0.005984
96 0.004861
102 0.006646
