109 0.02596
86 0.003979
67 0.003989
69 0.003989
86 0.00398
101 0.003181
114 0.003992
120 0.003024
124 0.000962
127 0.000998
131 0.000997
141 0.000959
151 0.0
156 0.0
166 0.0
159 0.0
93 0.0
60 0.0
60 0.000997
73 0.002001
91 0.002995
103 0.003955
117 0.003845
123 0.003989
125 0.004029
130 0.003987
135 0.004953
144 0.005989
153 0.005983
161 0.006016
170 0.005991
126 0.006029
86 0.006026
61 0.006981
65 0.00681
82 0.006981
100 0.006982
108 0.007979
123 0.004989
128 0.003988
129 0.004015
134 0.004032
143 0.003989
150 0.003979
161 0.003993
167 0.003954
174 0.00499
135 0.00403
86 0.001037
71 0.001991
83 0.001995
95 0.00196
116 0.001995
127 0.001994
134 0.001995
134 0.000997
134 0.000996
141 0.0
148 0.001012
154 0.001965
164 0.001996
170 0.001996
175 0.001995
112 0.003025
80 0.003957
68 0.004024
82 0.003989
93 0.004023
112 0.005025
123 0.006982
124 0.007969
124 0.006952
127 0.007064
132 0.007171
141 0.004987
147 0.005037
157 0.005031
166 0.004983
158 0.004944
88 0.002992
57 0.001994
59 0.001997
76 0.0
94 0.0
105 0.0
115 0.0
119 0.0
121 0.0
126 0.0
132 0.0
142 0.0
152 0.000997
159 0.001953
158 0.002003
117 0.002004
61 0.002028
56 0.002011
64 0.001996
82 0.003005
96 0.002991
107 0.004019
113 0.003991
114 0.004043
117 0.006009
126 0.006016
132 0.005985
145 0.005983
158 0.006982
164 0.006938
158 0.007971
91 0.005989
67 0.005991
67 0.00598
78 0.005983
97 0.004038
114 0.004032
121 0.001995
122 0.002996
121 0.001995
123 0.001995
130 0.002036
138 0.001124
144 0.000999
154 0.0
157 0.000997
104 0.0
64 0.0
64 0.0
76 0.001033
95 0.002993
106 0.002993
116 0.004019
116 0.004017
116 0.004022
120 0.004022
125 0.003984
134 0.003989
143 0.004029
148 0.00399
152 0.005043
123 0.003956
62 0.004954
52 0.006015
61 0.007023
70 0.007967
84 0.006981
94 0.007109
104 0.004987
108 0.003996
111 0.004031
119 0.001995
128 0.002003
134 0.002012
144 0.001006
154 0.000998
148 0.000944
84 0.000999
61 0.001
60 0.000968
73 0.000965
81 0.001995
98 0.000998
109 0.002994
113 0.002997
116 0.003989
121 0.00399
128 0.004045
136 0.003912
144 0.00399
152 0.003954
162 0.003972
155 0.00385
88 0.004985
60 0.00698
61 0.00701
75 0.006991
90 0.005042
100 0.004986
113 0.005008
117 0.005031
121 0.003034
124 0.003036
128 0.002989
142 0.001995
150 0.001997
155 0.001998
163 0.003033
169 0.001983
168 0.003003
104 0.000997
77 0.001039
75 0.001039
89 0.001031
103 0.000991
117 0.000998
125 0.0
126 0.0
127 0.001006
130 0.002882
138 0.003028
149 0.004035
156 0.005019
165 0.007023
170 0.007978
174 0.007014
181 0.005032
143 0.006023
98 0.006023
70 0.005014
80 0.005034
93 0.003038
105 0.003022
119 0.003002
123 0.002999
125 0.001044
128 0.0
132 0.0
142 0.0
149 0.0
160 0.0
168 0.0
173 0.0
180 0.0
165 0.0
93 0.001989
68 0.001995
73 0.002993
88 0.002971
102 0.004038
112 0.00396
122 0.004035
126 0.003989
129 0.005017
134 0.004987
140 0.004986
149 0.004943
160 0.005027
166 0.004987
176 0.006042
184 0.007047
186 0.007979
192 0.006979
196 0.006973
145 0.005984
79 0.005982
68 0.006211
74 0.006024
92 0.004993
101 0.004021
118 0.003957
128 0.002992
131 0.002036
133 0.001995
137 0.001021
144 0.001995
155 0.002027
162 0.001996
173 0.001996
182 0.000986
186 0.000997
190 0.0
195 0.0
200 0.0
178 0.0
128 0.0
80 0.00201
83 0.001953
94 0.001951
114 0.001945
126 0.001995
137 0.001968
134 0.001966
132 0.001995
135 0.002989
140 0.002993
150 0.002992
161 0.004958
167 0.005428
174 0.006945
177 0.007937
180 0.007013
180 0.006981
114 0.007022
78 0.006981
61 0.006996
75 0.00602
86 0.007012
103 0.005033
112 0.006024
120 0.004982
121 0.005028
122 0.005022
129 0.002984
139 0.003033
146 0.003035
156 0.003003
160 0.003031
168 0.00298
175 0.000997
154 0.000957
80 0.00303
55 0.002993
62 0.005019
75 0.005015
87 0.005017
99 0.005017
109 0.00502
114 0.004989
116 0.004987
121 0.005027
130 0.007055
137 0.007008
148 0.00697
153 0.007018
164 0.007966
169 0.006026
170 0.006023
94 0.005026
60 0.006021
59 0.005168
70 0.005988
82 0.005028
95 0.005984
109 0.005984
114 0.005979
116 0.006026
118 0.005988
124 0.005984
135 0.004037
141 0.005028
149 0.004033
159 0.002941
163 0.003003
155 0.002998
112 0.002993
66 0.003032
67 0.002956
78 0.003057
95 0.002024
108 0.001051
115 0.000968
117 0.000998
117 0.0
120 0.0
129 0.0
135 0.0
145 0.0
152 0.0
158 0.0
163 0.001997
136 0.004988
92 0.006034
126 0.00703
128 0.006029
128 0.006945
128 0.005022
128 0.004031
128 0.003972
128 0.003031
128 0.002024
128 0.002
128 0.002034
128 0.001976
128 0.002004
132 0.00301
141 0.001015
150 0.000997
95 0.001011
43 0.00103
14 0.000997
21 0.000998
38 0.0
51 0.000998
67 0.001005
80 0.000998
88 0.001012
91 0.000972
100 0.000997
107 0.000998
122 0.002995
137 0.002994
145 0.003991
155 0.005025
167 0.006047
173 0.00603
115 0.005978
61 0.005983
33 0.006
47 0.005957
57 0.006017
74 0.005984
91 0.007019
98 0.007943
107 0.00699
112 0.005984
116 0.004986
127 0.003025
142 0.00203
151 0.003032
165 0.002027
172 0.003036
182 0.002036
188 0.002029
195 0.000997
202 0.000967
207 0.0
212 0.0
216 0.0
167 0.0
74 0.0
59 0.000999
71 0.0
96 0.0
110 0.0
126 0.000997
127 0.002995
126 0.005018
129 0.004982
137 0.004987
144 0.004977
158 0.007096
170 0.007969
174 0.007115
182 0.007013
190 0.004039
192 0.00397
199 0.003998
190 0.004037
132 0.004035
55 0.003988
45 0.004042
60 0.004032
77 0.005024
91 0.003004
107 0.00404
117 0.003068
118 0.003028
122 0.002992
127 0.003086
140 0.003036
155 0.002018
164 0.003991
178 0.001995
185 0.000998
190 0.002003
199 0.001996
191 0.001997
132 0.00203
52 0.001995
40 0.001995
53 0.001995
73 0.001996
82 0.002041
102 0.003995
114 0.004949
117 0.003996
122 0.004062
127 0.004034
140 0.003979
152 0.004022
166 0.005852
179 0.006979
192 0.006983
199 0.006987
209 0.006981
215 0.006983
208 0.006971
103 0.007021
61 0.00702
50 0.007015
63 0.006029
77 0.006016
96 0.006017
108 0.006029
123 0.004979
125 0.005035
126 0.005034
133 0.005019
140 0.005017
155 0.005035
167 0.004987
178 0.003951
187 0.004986
195 0.004023
200 0.003032
198 0.002035
104 0.0
64 0.001045
56 0.0
69 0.000999
96 0.0
120 0.0
128 0.002
134 0.000998
131 0.000999
131 0.002992
139 0.005984
152 0.005985
160 0.005978
173 0.006014
183 0.006962
188 0.006981
195 0.006981
182 0.006023
102 0.005015
49 0.005984
42 0.004987
58 0.006016
80 0.004038
92 0.002992
111 0.003022
117 0.002032
118 0.003002
122 0.002041
127 0.003032
141 0.002029
153 0.0
162 0.0
175 0.002997
185 0.002993
191 0.00399
159 0.004987
59 0.004987
33 0.004989
37 0.00503
54 0.005973
67 0.005972
83 0.006016
100 0.007978
103 0.008026
107 0.007979
110 0.007978
119 0.007031
134 0.005021
143 0.006018
159 0.004015
170 0.005025
177 0.004029
185 0.005029
193 0.004028
182 0.003036
81 0.002041
47 0.001035
44 0.0
61 0.0
75 0.0
94 0.001001
111 0.000997
116 0.000997
118 0.001043
120 0.000997
129 0.000998
140 0.000998
152 0.000998
164 0.003983
176 0.004986
182 0.005033
189 0.004991
196 0.005893
201 0.006022
199 0.006011
143 0.006026
62 0.005974
55 0.005981
69 0.005993
96 0.005987
111 0.005993
128 0.006024
126 0.005975
122 0.00696
122 0.007001
130 0.006976
141 0.007013
152 0.00703
161 0.007046
170 0.007154
177 0.007013
180 0.007018
188 0.007028
137 0.005036
77 0.00603
35 0.004039
46 0.001991
60 0.001949
78 0.002037
90 0.001995
103 0.001994
107 0.000998
109 0.0
116 0.0
132 0.000998
139 0.000896
151 0.001031
160 0.0
170 0.0
178 0.0
184 0.0
146 0.0
83 0.0
31 0.0
34 0.000998
49 0.002994
63 0.004021
81 0.005026
93 0.006024
103 0.00698
107 0.007012
112 0.007015
121 0.005982
136 0.004042
146 0.004033
161 0.003941
172 0.004021
177 0.004026
185 0.004018
190 0.004022
120 0.004001
47 0.00403
40 0.00399
59 0.003026
78 0.000997
89 0.000997
103 0.000949
113 0.00203
116 0.001995
123 0.001948
134 0.002993
142 0.002032
156 0.002035
163 0.002994
173 0.002787
182 0.002994
189 0.003042
148 0.00295
92 0.002951
53 0.002994
68 0.002999
83 0.002993
103 0.004038
118 0.005008
123 0.006983
123 0.006986
123 0.007946
127 0.006975
139 0.004022
151 0.00198
158 0.003022
168 0.002015
179 0.002036
167 0.002037
78 0.002037
48 0.002035
51 0.001995
72 0.0
79 0.000957
98 0.0
110 0.00094
112 0.001995
114 0.001997
121 0.002992
129 0.004014
143 0.003982
152 0.003983
164 0.00399
174 0.003989
176 0.003862
111 0.004986
45 0.00599
41 0.005979
58 0.006016
68 0.007024
80 0.00794
99 0.006964
109 0.007957
113 0.005986
117 0.005958
123 0.005985
136 0.006028
151 0.003134
160 0.003026
173 0.002986
179 0.002987
189 0.000991
193 0.001995
129 0.0
62 0.0
47 0.0
56 0.0
72 0.000997
84 0.000999
100 0.001983
110 0.001995
114 0.001995
116 0.001986
125 0.002018
132 0.001988
150 0.002022
167 0.00199
176 0.001977
189 0.002028
195 0.00399
203 0.005002
210 0.006019
214 0.006017
222 0.005975
151 0.006029
237 0.005983
242 0.007963
247 0.006981
251 0.007012
254 0.00598
186 0.004021
112 0.004987
66 0.004029
67 0.00399
94 0.002992
121 0.003025
134 0.002985
137 0.002005
129 0.0
127 0.0
131 0.0
144 0.0
152 0.00098
168 0.000998
177 0.000998
188 0.001004
196 0.000997
198 0.000997
202 0.001003
207 0.003023
209 0.002988
150 0.002952
74 0.002963
45 0.004863
56 0.005991
75 0.005983
88 0.006016
108 0.004986
115 0.006135
115 0.005019
114 0.002983
118 0.001994
129 0.001041
144 0.001009
154 0.00103
168 0.001001
175 0.002026
182 0.001008
188 0.001011
180 0.0
98 0.001005
29 0.000998
20 0.001027
36 0.000988
49 0.000993
70 0.000998
90 0.0
97 0.000997
99 0.000997
101 0.000997
109 0.0
120 0.0
130 0.000992
148 0.001881
162 0.004036
169 0.004023
177 0.004021
186 0.004016
183 0.004
88 0.003994
42 0.003953
24 0.004985
44 0.00498
57 0.005025
77 0.004981
93 0.005024
103 0.004987
107 0.005021
110 0.005012
117 0.004986
131 0.007013
140 0.007023
152 0.006997
166 0.003976
174 0.004019
182 0.002994
190 0.002996
195 0.003032
177 0.003035
76 0.001002
44 0.000977
45 0.001031
61 0.000997
86 0.000987
104 0.000997
115 0.0
114 0.000975
112 0.0
114 0.0
124 0.000998
132 0.000997
148 0.001977
159 0.002956
168 0.002989
174 0.002993
181 0.002966
185 0.005019
124 0.00701
55 0.006967
36 0.006977
47 0.006981
71 0.006985
83 0.006977
105 0.006988
108 0.006975
108 0.007008
108 0.00797
113 0.006015
122 0.004985
138 0.005021
148 0.005019
161 0.004986
168 0.004983
176 0.005017
184 0.003998
163 0.004988
63 0.004029
32 0.004988
32 0.004032
52 0.004004
62 0.002986
80 0.002993
91 0.002992
101 0.003003
104 0.00299
107 0.002995
118 0.003033
131 0.004179
144 0.002996
157 0.00399
167 0.003023
175 0.004
182 0.002028
185 0.001995
193 0.001995
187 0.002027
89 0.00101
36 0.0
38 0.000961
54 0.000998
73 0.000961
84 0.000963
103 0.002
110 0.003055
111 0.003978
115 0.006023
123 0.006986
131 0.007005
147 0.007032
161 0.006968
169 0.005032
178 0.004985
184 0.006028
187 0.004029
192 0.004986
198 0.003979
201 0.002152
113 0.00199
66 0.001989
51 0.0
70 0.0
91 0.0
109 0.001038
123 0.002029
123 0.002027
118 0.001978
120 0.003021
125 0.001989
138 0.003005
146 0.003001
159 0.003022
169 0.003024
173 0.003004
178 0.005011
185 0.004989
180 0.005017
88 0.004987
47 0.004994
38 0.005883
53 0.005966
68 0.005982
81 0.005964
95 0.006015
103 0.00602
105 0.004986
107 0.005985
116 0.006034
124 0.006018
139 0.005988
154 0.007016
162 0.007019
171 0.007013
178 0.006991
182 0.007015
185 0.006981
102 0.005029
53 0.003995
31 0.002998
44 0.003004
55 0.002034
69 0.002026
81 0.001038
96 0.000989
101 0.0
103 0.001
110 0.0
120 0.0
129 0.000837
146 0.001003
162 0.002
170 0.003015
179 0.003038
182 0.002994
190 0.003956
195 0.004017
154 0.003991
65 0.003984
48 0.005018
60 0.006015
82 0.006031
92 0.006014
105 0.006966
114 0.006989
116 0.005995
117 0.006983
123 0.005985
130 0.006113
144 0.005989
159 0.004993
167 0.004986
177 0.003006
183 0.001989
185 0.000983
192 0.000991
165 0.000994
106 0.0
58 0.0
53 0.0
75 0.0
98 0.0
110 0.0
122 0.0
121 0.0
116 0.000998
120 0.0
126 0.0
139 0.000998
147 0.001047
160 0.0
168 0.001023
173 0.000992
177 0.002044
184 0.001999
173 0.003003
79 0.004025
37 0.004994
42 0.006018
62 0.00602
73 0.006018
89 0.006015
104 0.006021
107 0.006037
110 0.006015
114 0.006972
121 0.005986
135 0.004987
148 0.004976
159 0.003032
169 0.003989
175 0.002993
180 0.002984
187 0.002005
182 0.003038
88 0.002998
37 0.000997
38 0.002027
59 0.00101
70 0.001995
87 0.000997
105 0.001001
110 0.001052
112 0.000995
116 0.0
122 0.0
136 0.0
146 0.0
163 0.0
178 0.0
185 0.000965
195 0.000998
201 0.001996
204 0.00302
210 0.002856
215 0.003001
194 0.002994
89 0.003996
57 0.006024
60 0.007044
85 0.006942
97 0.008016
112 0.007118
123 0.005992
123 0.005
122 0.004996
128 0.004982
134 0.005052
148 0.00415
160 0.004015
171 0.003003
180 0.003982
185 0.001998
188 0.003031
194 0.000984
198 0.000989
149 0.000995
63 0.0
48 0.000996
63 0.0
79 0.000983
100 0.0
115 0.001956
121 0.002954
121 0.004046
121 0.005023
125 0.004986
138 0.005024
154 0.006034
163 0.007032
177 0.006975
187 0.007015
192 0.006935
196 0.00715
199 0.007
205 0.006968
124 0.007975
67 0.006975
36 0.007986
44 0.006024
62 0.005983
80 0.006029
92 0.006033
108 0.005994
113 0.004028
114 0.005015
120 0.003983
127 0.005033
142 0.003002
158 0.00196
168 0.001028
182 0.0
192 0.0
195 0.001046
202 0.0
210 0.0
215 0.00099
180 0.001044
73 0.001988
46 0.002996
52 0.002994
68 0.003045
91 0.005031
107 0.005018
116 0.006011
119 0.004987
119 0.00502
122 0.00602
132 0.006014
141 0.006011
157 0.00597
172 0.005989
180 0.005949
187 0.006016
192 0.006992
197 0.007023
191 0.007122
133 0.005984
57 0.005991
55 0.004992
71 0.003995
100 0.004001
120 0.004983
132 0.003993
129 0.005033
122 0.004001
122 0.005028
133 0.004985
141 0.003991
156 0.002033
170 0.0
177 0.000998
184 0.000997
192 0.000999
193 0.000998
105 0.001955
38 0.002993
34 0.003019
55 0.003991
70 0.004027
89 0.005034
106 0.005937
109 0.005962
109 0.006974
110 0.007944
116 0.006984
129 0.007959
141 0.006995
151 0.006968
163 0.007032
168 0.006983
177 0.006984
175 0.005
120 0.005983
35 0.003022
24 0.001994
35 0.000989
56 0.000941
73 0.000995
85 0.001
97 0.001006
99 0.001017
104 0.000991
111 0.002032
123 0.001005
137 0.001996
150 0.001996
161 0.002035
170 0.002052
175 0.002001
183 0.000997
120 0.0
65 0.001044
38 0.0
48 0.001039
72 0.0
88 0.000997
100 0.0
111 0.001877
111 0.000997
112 0.000997
119 0.002015
127 0.000998
142 0.003989
156 0.004017
163 0.004011
170 0.003991
176 0.003992
180 0.005985
152 0.005964
73 0.006981
39 0.006974
46 0.007014
67 0.00706
83 0.006937
101 0.007019
108 0.007012
108 0.006965
109 0.00694
115 0.007015
125 0.006029
133 0.006024
148 0.005022
161 0.004037
167 0.002983
173 0.002992
180 0.002986
181 0.003025
98 0.002962
52 0.00201
38 0.000998
52 0.002037
68 0.001027
80 0.001995
99 0.002003
105 0.002016
108 0.001995
109 0.001995
116 0.001004
129 0.0
138 0.0
150 0.000997
163 0.001013
168 0.000997
174 0.001003
178 0.001005
185 0.000994
187 0.002994
140 0.005023
54 0.005041
41 0.007002
55 0.006986
71 0.006989
87 0.007926
99 0.00691
112 0.006981
114 0.006982
116 0.006983
124 0.007968
132 0.00696
148 0.008012
154 0.007948
171 0.007981
179 0.007021
184 0.007974
191 0.007067
196 0.003986
199 0.004023
206 0.00403
212 0.003988
171 0.003981
75 0.002991
56 0.001983
71 0.000974
93 0.0
106 0.0
125 0.0
127 0.0
124 0.0
122 0.000993
127 0.000998
137 0.000998
148 0.002043
162 0.00404
170 0.004021
179 0.003955
182 0.003958
187 0.004028
194 0.006025
191 0.006026
96 0.005977
44 0.006069
46 0.006025
69 0.005968
81 0.005976
99 0.006023
114 0.006753
117 0.00702
118 0.006972
120 0.006981
131 0.007014
142 0.007016
156 0.007004
168 0.00706
178 0.006987
184 0.006982
190 0.005029
197 0.002979
201 0.003007
129 0.002153
71 0.003023
37 0.001981
53 0.001999
66 0.002005
83 0.001953
102 0.000997
107 0.0
113 0.000997
115 0.002027
120 0.005002
132 0.005072
150 0.005985
161 0.005977
175 0.005041
186 0.006019
192 0.004991
197 0.006016
203 0.005985
205 0.006014
115 0.003991
50 0.001989
48 0.004021
72 0.002028
87 0.003021
107 0.001974
121 0.00199
122 0.001987
121 0.001981
122 0.00199
132 0.002992
146 0.0
155 0.0
169 0.0
178 0.0
182 0.000999
188 0.001005
195 0.002048
196 0.000998
109 0.002041
64 0.001996
50 0.003954
70 0.004029
91 0.004022
110 0.003768
124 0.003984
123 0.003955
119 0.006982
120 0.006996
126 0.005974
139 0.005027
154 0.005024
163 0.005017
174 0.00399
178 0.00403
185 0.003984
192 0.006017
166 0.003008
81 0.003994
36 0.002992
40 0.001995
64 0.001999
80 0.0
95 0.000999
106 0.0
111 0.001979
111 0.001954
116 0.001958
122 0.002025
136 0.001944
151 0.001995
159 0.001995
170 0.002989
176 0.003952
181 0.003853
186 0.00406
144 0.004022
51 0.003997
32 0.005017
43 0.005076
66 0.004971
76 0.004982
96 0.00498
107 0.005023
111 0.005021
114 0.006981
121 0.00698
128 0.006978
144 0.006981
154 0.006991
169 0.006986
180 0.007012
184 0.007012
190 0.006981
194 0.007004
200 0.006989
133 0.006973
76 0.006951
47 0.007025
57 0.006983
84 0.007015
104 0.007013
115 0.003966
119 0.00399
117 0.006019
117 0.003988
124 0.006015
138 0.003989
147 0.002992
160 0.002028
172 0.0
176 0.0
180 0.0
185 0.0
187 0.0
108 0.0
60 0.0
42 0.002951
64 0.002881
78 0.004026
96 0.005987
110 0.005981
112 0.005996
112 0.005984
117 0.007008
123 0.006976
135 0.006976
147 0.006982
158 0.005028
168 0.006988
173 0.004983
179 0.006023
185 0.004031
147 0.00403
54 0.004026
35 0.002991
45 0.004001
65 0.003033
74 0.003991
92 0.001028
104 0.001951
106 0.000982
108 0.001
112 0.000983
123 0.000968
138 0.001995
148 0.00205
158 0.000997
167 0.0
171 0.0
177 0.002004
183 0.002028
144 0.004023
66 0.004975
36 0.005023
44 0.004984
65 0.005989
81 0.006968
94 0.006981
106 0.005015
112 0.00399
114 0.002989
120 0.00298
126 0.002993
141 0.003007
157 0.002992
165 0.002993
177 0.002024
183 0.002001
186 0.001996
190 0.002021
195 0.0
189 0.002036
92 0.001992
56 0.000991
55 0.001028
82 0.0
96 0.000997
112 0.000997
122 0.001016
121 0.002027
118 0.002984
121 0.00299
131 0.003024
146 0.002811
154 0.004997
167 0.006014
176 0.005972
178 0.006026
181 0.005981
185 0.005981
183 0.006981
93 0.007009
54 0.006019
48 0.005994
67 0.006016
84 0.003997
99 0.005981
115 0.004985
118 0.005008
118 0.004987
120 0.004987
129 0.004987
143 0.002984
152 0.003989
167 0.002992
178 0.002007
182 0.001973
188 0.001971
193 0.002026
174 0.0
90 0.0
50 0.0
42 0.0
63 0.000998
74 0.000997
91 0.001016
107 0.002994
112 0.002945
114 0.003007
116 0.003029
125 0.003986
139 0.005817
152 0.007978
162 0.007979
175 0.007977
183 0.007974
188 0.007978
193 0.005951
198 0.006996
172 0.005994
107 0.006982
48 0.006013
55 0.005021
70 0.004968
90 0.00597
109 0.004032
118 0.003015
122 0.001995
123 0.001996
127 0.0
135 0.001003
151 0.0
160 0.000997
175 0.000999
181 0.000998
188 0.000986
192 0.000998
196 0.001996
203 0.003903
151 0.003989
91 0.003987
53 0.003996
72 0.005983
90 0.005982
114 0.006018
126 0.006986
132 0.006031
127 0.00601
125 0.005985
131 0.005984
140 0.006999
151 0.005992
161 0.006981
172 0.005981
181 0.007993
185 0.006982
189 0.006979
196 0.007022
137 0.003982
78 0.004977
42 0.00299
49 0.004112
74 0.002984
93 0.002992
106 0.00298
116 0.003026
116 0.002011
117 0.000997
124 0.0
131 0.00101
147 0.0
159 0.00103
167 0.000998
177 0.00203
184 0.002956
189 0.003985
174 0.003994
91 0.004024
41 0.00399
37 0.003985
54 0.003989
70 0.00402
87 0.004
100 0.004992
110 0.005018
113 0.005892
115 0.005998
125 0.005982
134 0.005981
151 0.006018
168 0.005986
177 0.005984
187 0.006017
193 0.006951
196 0.006972
202 0.005994
141 0.005045
66 0.002988
45 0.004012
57 0.003
79 0.00399
99 0.004033
112 0.003989
122 0.003981
122 0.002001
122 0.004027
129 0.001999
136 0.001998
150 0.0
165 0.0
173 0.0
181 0.0
185 0.000999
188 0.000997
193 0.0
148 0.0
73 0.0
48 0.000996
59 0.003
88 0.002987
111 0.004033
123 0.00402
125 0.00499
121 0.005023
123 0.004988
130 0.005026
141 0.005032
154 0.004988
168 0.003969
175 0.005017
184 0.00498
187 0.005995
195 0.006021
168 0.006026
102 0.006024
43 0.005987
49 0.006983
59 0.006155
80 0.005993
95 0.005985
110 0.002997
115 0.003989
116 0.003069
118 0.002965
127 0.003022
136 0.003019
151 0.00099
162 0.000998
173 0.000997
181 0.000998
187 0.000982
191 0.000999
199 0.000997
185 0.002011
118 0.001982
46 0.00296
40 0.003983
60 0.00399
80 0.003998
90 0.004021
108 0.003992
114 0.003959
115 0.004023
119 0.005005
126 0.004986
141 0.006022
156 0.005951
168 0.005981
178 0.006025
188 0.007014
191 0.00798
196 0.007971
197 0.007982
202 0.007971
208 0.00499
202 0.006983
97 0.00602
50 0.003981
55 0.002995
84 0.002988
100 0.002993
123 0.003007
131 0.001004
126 0.000995
121 0.00099
125 0.00209
134 0.001999
146 0.001991
161 0.000998
170 0.0
181 0.0
184 0.0
188 0.00101
192 0.001022
198 0.002004
168 0.001995
67 0.002028
42 0.001996
48 0.002019
64 0.001998
86 0.002026
106 0.00195
114 0.002027
117 0.001987
116 0.001962
120 0.002994
131 0.002961
140 0.00296
157 0.005028
172 0.005966
180 0.006945
187 0.006977
193 0.00795
196 0.005949
203 0.007994
199 0.006951
115 0.006991
41 0.007025
33 0.006981
51 0.006973
73 0.005022
83 0.007161
102 0.004973
107 0.006981
109 0.004986
112 0.004985
116 0.005001
130 0.003989
147 0.003003
157 0.002012
172 0.001994
180 0.002015
190 0.001994
196 0.00303
200 0.001994
204 0.003006
211 0.002027
192 0.002026
81 0.000981
47 0.0
43 0.000994
68 0.001996
83 0.001996
103 0.002005
116 0.002025
115 0.001995
113 0.001959
115 0.001961
124 0.002995
138 0.004989
147 0.004988
162 0.005031
174 0.004989
178 0.004987
182 0.005019
185 0.005023
192 0.005017
157 0.005984
77 0.005938
44 0.006023
55 0.007021
67 0.007946
98 0.007979
116 0.005981
122 0.007977
117 0.006016
114 0.007946
117 0.006113
129 0.005989
138 0.005981
154 0.005987
162 0.006015
173 0.005956
179 0.005993
183 0.006024
188 0.004984
129 0.005984
56 0.002012
32 0.002029
47 0.002986
62 0.00198
82 0.001995
94 0.002039
107 0.002216
108 0.0
109 0.0
113 0.000995
124 0.000994
133 0.00096
149 0.001029
158 0.001924
171 0.002056
178 0.002978
181 0.004101
188 0.003991
162 0.005033
95 0.006017
33 0.006017
37 0.006015
50 0.005986
71 0.006017
82 0.005986
100 0.007016
105 0.006975
107 0.005992
109 0.007032
118 0.005975
126 0.005033
142 0.004989
159 0.003
167 0.004987
178 0.002993
182 0.003967
187 0.003
193 0.003001
197 0.002033
134 0.003011
76 0.002996
42 0.002098
60 0.001002
78 0.0
101 0.000995
116 0.001996
119 0.0
115 0.001029
115 0.0
120 0.00103
134 0.001008
143 0.000995
158 0.000997
169 0.001993
176 0.002028
181 0.003045
185 0.003856
189 0.004969
187 0.006016
92 0.006012
52 0.005981
43 0.005946
58 0.004945
85 0.005944
107 0.005889
116 0.006016
116 0.005985
114 0.00602
115 0.006032
123 0.00603
135 0.006956
147 0.007015
159 0.007958
168 0.00698
177 0.006434
180 0.006966
184 0.007025
191 0.004991
173 0.00699
71 0.003958
33 0.00408
39 0.003997
63 0.002037
76 0.00301
94 0.003
107 0.002995
108 0.003
108 0.00197
112 0.004184
121 0.000988
134 0.002986
146 0.001999
158 0.001029
171 0.000998
177 0.000992
182 0.00103
187 0.001006
190 0.002001
198 0.00099
177 0.000988
88 0.0
34 0.0
35 0.000994
59 0.0
72 0.0
90 0.002837
105 0.002992
107 0.002989
109 0.002994
114 0.002993
120 0.004035
135 0.0029
150 0.002992
160 0.005024
172 0.005026
177 0.004988
181 0.006967
185 0.006938
188 0.006982
193 0.007978
177 0.007979
113 0.007979
48 0.007968
45 0.00795
69 0.005984
96 0.004011
109 0.005017
121 0.003999
116 0.003981
113 0.003998
117 0.003991
129 0.002992
139 0.001994
152 0.000991
159 0.001984
169 0.001995
173 0.00203
175 0.0
179 0.001996
186 0.002051
164 0.00204
66 0.000943
39 0.003035
43 0.002051
70 0.0
82 0.0
97 0.001962
108 0.001995
108 0.001995
108 0.002033
110 0.002049
121 0.001995
136 0.003025
146 0.003982
160 0.00399
172 0.003953
176 0.004068
181 0.005019
184 0.003989
191 0.006988
121 0.006946
65 0.006995
33 0.006965
44 0.007013
63 0.006982
76 0.006984
86 0.006981
99 0.006963
106 0.005039
107 0.007023
111 0.003993
121 0.002992
130 0.002991
146 0.002976
161 0.002022
168 0.001959
177 0.003031
180 0.000996
185 0.0
189 0.002203
194 0.0
201 0.001015
127 0.0
69 0.001052
36 0.0
44 0.0
69 0.0
83 0.0
99 0.000997
109 0.00204
112 0.00285
113 0.003031
118 0.003041
130 0.003991
140 0.004957
155 0.004986
169 0.006972
175 0.006981
183 0.006951
186 0.006104
191 0.005971
195 0.004964
198 0.005021
204 0.004968
206 0.007028
133 0.004991
64 0.005985
47 0.005013
63 0.005984
93 0.006029
108 0.005984
127 0.006024
127 0.005983
119 0.006026
118 0.003985
123 0.00599
138 0.003984
153 0.003986
161 0.003975
173 0.002988
178 0.00299
183 0.002037
187 0.002009
190 0.002004
196 0.001034
144 0.003058
66 0.002003
37 0.002042
51 0.0
68 0.000971
91 0.001996
103 0.001009
115 0.00304
113 0.003991
111 0.003898
114 0.003986
126 0.003992
136 0.005013
152 0.005997
167 0.005832
174 0.006025
181 0.005943
184 0.006954
189 0.006948
191 0.006965
141 0.006977
49 0.006977
31 0.006951
43 0.006967
68 0.006969
76 0.00698
97 0.006976
106 0.006983
107 0.006949
108 0.007016
111 0.005982
121 0.007948
136 0.007981
146 0.00797
159 0.007979
169 0.007892
179 0.007972
183 0.005993
186 0.007984
190 0.005997
196 0.007954
188 0.005979
81 0.005948
41 0.005985
33 0.005983
54 0.005998
74 0.003018
89 0.005031
107 0.004033
111 0.004021
112 0.002992
114 0.002992
122 0.003065
135 0.0
145 0.002041
161 0.0
172 0.0
178 0.000998
186 0.001004
192 0.001851
194 0.002994
198 0.002978
202 0.00295
205 0.004023
108 0.005979
61 0.00601
45 0.006976
65 0.006971
84 0.005982
110 0.00502
125 0.007023
124 0.005028
117 0.007021
115 0.004938
119 0.007013
132 0.006981
142 0.006981
156 0.003955
168 0.003001
173 0.004024
179 0.001992
184 0.001031
188 0.001045
170 0.000981
106 0.000985
39 0.000945
41 0.002031
57 0.0
78 0.0
98 0.000995
108 0.001987
112 0.001996
109 0.002027
111 0.001996
121 0.001994
130 0.002981
146 0.004024
158 0.003991
168 0.00395
176 0.005061
182 0.003941
185 0.003986
191 0.005983
182 0.006017
78 0.006994
32 0.006979
30 0.006968
53 0.007066
73 0.006985
83 0.006966
98 0.006981
101 0.006976
102 0.005992
105 0.00595
111 0.005984
124 0.00599
134 0.005984
150 0.00502
161 0.008019
169 0.005985
175 0.005985
180 0.004056
183 0.003029
191 0.003034
179 0.001975
113 0.003024
40 0.001998
33 0.003024
53 0.000992
76 0.000964
83 0.0
101 0.0
108 0.0
108 0.0
110 0.0
118 0.001996
126 0.001997
141 0.004989
153 0.005029
162 0.005877
169 0.005984
174 0.005762
176 0.006975
180 0.006984
183 0.007945
168 0.006981
73 0.004984
45 0.007012
49 0.002978
79 0.002997
94 0.002988
115 0.003009
119 0.003197
113 0.003019
110 0.002985
114 0.003001
126 0.001036
138 0.003027
149 0.001988
160 0.002992
168 0.0
172 0.002036
177 0.001991
183 0.002992
158 0.002992
77 0.004976
34 0.006025
38 0.006024
63 0.005951
75 0.005981
93 0.005971
106 0.006032
107 0.006025
107 0.005973
109 0.005975
117 0.005987
131 0.00592
141 0.006955
155 0.004992
167 0.004986
171 0.004995
175 0.004988
178 0.005
185 0.003007
151 0.005021
68 0.002991
30 0.00304
38 0.003049
51 0.002035
68 0.003039
85 0.001987
95 0.002015
101 0.00104
101 0.003033
106 0.0
118 0.0
124 0.000998
139 0.000966
154 0.001995
161 0.001999
169 0.001995
175 0.003002
179 0.003951
187 0.004021
195 0.005979
200 0.006983
206 0.005986
212 0.007979
215 0.006001
220 0.00698
224 0.005984
165 0.005975
58 0.005018
36 0.005038
49 0.003984
75 0.001965
86 0.00399
102 0.003002
105 0.002015
104 0.001963
105 0.0
109 0.0
121 0.000999
137 0.0
146 0.000955
159 0.0
167 0.0
171 0.000998
177 0.000998
180 0.000997
184 0.000969
189 0.000998
194 0.000997
192 0.000996
133 0.001989
62 0.000999
43 0.001996
56 0.001995
84 0.001994
107 0.001956
117 0.001995
118 0.003956
112 0.005022
113 0.004982
123 0.005965
132 0.005966
147 0.005018
159 0.006981
167 0.005973
177 0.006005
181 0.006981
185 0.003987
190 0.004032
173 0.002993
108 0.002991
39 0.002992
39 0.002009
54 0.002992
78 0.002002
92 0.000997
103 0.000997
111 0.000988
110 0.000955
111 0.000998
121 0.001001
130 0.00096
146 0.000997
156 0.000999
170 0.001995
179 0.003038
183 0.003988
187 0.004022
193 0.006024
189 0.007979
109 0.005951
43 0.007123
29 0.005991
42 0.007014
65 0.00599
74 0.004994
92 0.005028
104 0.002992
106 0.00499
108 0.002988
113 0.004987
126 0.002968
143 0.002984
154 0.002962
171 0.001975
179 0.001963
189 0.001965
194 0.00197
196 0.001968
203 0.001997
159 0.002983
76 0.002006
44 0.002991
56 0.001038
72 0.001958
94 0.001995
105 0.001995
118 0.00201
117 0.001995
115 0.001995
118 0.002992
129 0.002956
137 0.002958
152 0.00299
160 0.002993
170 0.005011
175 0.005031
178 0.005021
185 0.006973
165 0.006016
103 0.004987
40 0.002998
44 0.003998
61 0.003988
85 0.002995
101 0.004987
114 0.00299
115 0.003971
114 0.001982
116 0.00399
128 0.003989
137 0.003989
156 0.003993
169 0.004026
187 0.004028
198 0.001979
203 0.004163
211 0.001994
202 0.001995
131 0.001945
48 0.0
38 0.000995
50 0.0
64 0.002005
71 0.0
87 0.001001
97 0.002956
98 0.003004
99 0.002996
104 0.005028
114 0.006031
125 0.005988
141 0.007014
147 0.007971
159 0.007978
164 0.005988
169 0.007975
176 0.005984
170 0.007978
73 0.005984
24 0.005981
27 0.004968
50 0.006952
61 0.004989
79 0.003977
95 0.003975
99 0.003997
100 0.004006
105 0.003989
113 0.001999
125 0.002041
142 0.0
151 0.001962
163 0.001995
170 0.002002
174 0.002003
179 0.001952
186 0.001976
162 0.003032
68 0.003968
45 0.004959
54 0.003991
83 0.003986
95 0.004976
115 0.006018
117 0.00595
113 0.00596
112 0.004976
116 0.005995
129 0.006073
141 0.006936
150 0.00594
163 0.005941
170 0.008012
174 0.003972
179 0.006018
181 0.003989
135 0.003989
53 0.003996
39 0.003954
55 0.003974
78 0.002027
88 0.004029
106 0.0
112 0.0
112 0.000991
113 0.000998
121 0.000983
129 0.001007
144 0.001995
159 0.00399
166 0.004971
174 0.005985
180 0.005987
185 0.006011
172 0.005956
111 0.007014
43 0.006978
39 0.007011
51 0.006979
71 0.007012
79 0.00699
98 0.007002
108 0.007011
109 0.006983
112 0.006981
117 0.007017
128 0.005984
144 0.003993
154 0.005983
169 0.00402
179 0.003977
183 0.002006
188 0.002034
195 0.001991
195 0.001994
103 0.0
55 0.0
51 0.0
72 0.000992
91 0.002994
106 0.00296
120 0.003004
124 0.002991
124 0.003952
126 0.004945
131 0.005033
145 0.005994
160 0.005983
166 0.007936
179 0.005913
186 0.005984
189 0.005984
195 0.005959
199 0.005986
150 0.005985
76 0.00599
66 0.003988
83 0.004069
104 0.004985
120 0.00196
133 0.001024
135 0.001008
132 0.0
132 0.002016
138 0.001996
149 0.002048
160 0.001995
173 0.00402
180 0.00399
188 0.003965
193 0.004995
197 0.00399
189 0.003993
132 0.004041
65 0.005985
61 0.006979
70 0.006944
92 0.004989
107 0.004985
118 0.004986
124 0.004981
124 0.004985
125 0.004992
131 0.00698
140 0.004986
152 0.005984
167 0.004005
175 0.001991
184 0.0
188 0.0
193 0.0
198 0.0
169 0.0
108 0.0
54 0.0
53 0.0
73 0.000997
92 0.002007
101 0.001966
115 0.001961
119 0.002994
119 0.002994
124 0.002873
131 0.002989
146 0.002993
162 0.002957
171 0.002987
184 0.002998
189 0.002993
194 0.002985
198 0.004937
203 0.004983
207 0.006023
124 0.005953
79 0.00601
62 0.005876
80 0.005984
98 0.007979
122 0.005991
137 0.007943
137 0.005988
131 0.005963
130 0.005971
136 0.004976
144 0.004955
158 0.005988
172 0.004988
179 0.005138
186 0.004987
190 0.00698
193 0.004989
199 0.007012
149 0.00498
78 0.006981
54 0.006983
65 0.005025
94 0.001971
119 0.001994
133 0.000999
137 0.0
130 0.0
129 0.001
135 0.003025
147 0.003028
156 0.003033
170 0.003984
178 0.00399
187 0.004016
193 0.005041
197 0.005031
168 0.005001
82 0.005028
39 0.005018
40 0.006023
66 0.006981
80 0.006868
99 0.006983
110 0.006979
115 0.007979
114 0.006024
115 0.007975
123 0.005989
132 0.007979
147 0.005967
162 0.005978
170 0.005984
179 0.005981
187 0.003992
174 0.002993
74 0.001996
37 0.002987
41 0.002961
63 0.002042
82 0.0
99 0.002947
114 0.002983
115 0.00205
113 0.002043
119 0.000998
127 0.0
139 0.000997
156 0.002995
165 0.002993
176 0.003035
185 0.00502
190 0.004953
136 0.00502
74 0.004028
38 0.004987
59 0.005018
79 0.005036
107 0.004979
120 0.004982
126 0.006021
121 0.006985
120 0.006002
127 0.005981
139 0.007978
153 0.006004
167 0.007979
178 0.00598
190 0.00786
197 0.007978
187 0.007978
91 0.007006
54 0.004966
60 0.007014
91 0.004983
110 0.006017
137 0.003987
140 0.003984
134 0.003989
129 0.004021
132 0.003025
143 0.002951
156 0.002066
163 0.002048
175 0.001028
184 0.002995
169 0.002999
89 0.002992
47 0.001992
53 0.002005
83 0.002043
109 0.000968
130 0.000998
136 0.001019
129 0.002005
124 0.001995
129 0.001973
137 0.003992
152 0.003991
166 0.003946
173 0.005023
185 0.005023
164 0.006975
78 0.006951
34 0.006949
39 0.006977
61 0.003026
82 0.003989
104 0.00399
112 0.002986
112 0.002051
111 0.0
115 0.0
124 0.0
135 0.0
148 0.0
163 0.000957
171 0.0
176 0.001051
127 0.001028
48 0.000992
42 0.001012
58 0.001056
87 0.000998
113 0.000998
125 0.000997
129 0.000999
127 0.000997
129 0.002032
140 0.002027
150 0.002047
167 0.001996
178 0.005028
185 0.004989
193 0.006025
200 0.007037
168 0.006021
74 0.00702
54 0.007015
67 0.005986
93 0.005994
112 0.006981
137 0.004121
140 0.003988
134 0.003988
132 0.002006
140 0.001994
148 0.000963
164 0.001993
173 0.001993
185 0.0
192 0.001957
198 0.0
204 0.003038
161 0.002126
96 0.002041
52 0.002
58 0.001992
89 0.003022
120 0.0
136 0.002029
139 0.001018
131 0.002991
126 0.000997
131 0.000968
139 0.000997
154 0.003033
170 0.003067
177 0.003991
186 0.00501
194 0.004996
195 0.004958
105 0.006039
58 0.004988
41 0.005984
66 0.005975
83 0.00594
102 0.005982
120 0.007975
121 0.005992
119 0.007979
126 0.006982
135 0.006984
160 0.007016
175 0.006981
192 0.005989
207 0.004036
213 0.006017
219 0.003995
221 0.005984
132 0.002957
51 0.002729
41 0.002963
59 0.002991
83 0.001987
96 0.000986
112 0.0
112 0.002043
110 0.000979
111 0.002044
121 0.0
142 0.002008
167 0.0
178 0.003026
191 0.001051
200 0.002051
204 0.001982
210 0.003985
179 0.003989
104 0.003953
47 0.004987
48 0.004987
80 0.004986
108 0.005021
124 0.004942
138 0.005984
136 0.005984
134 0.00602
137 0.004032
146 0.005984
159 0.003996
171 0.004983
186 0.003025
193 0.004055
201 0.00298
205 0.002998
211 0.00303
205 0.001997
138 0.002992
60 0.002
52 0.002993
78 0.002005
106 0.000963
138 0.000998
145 0.001995
131 0.001996
117 0.004026
116 0.00399
125 0.00399
134 0.003995
148 0.004029
160 0.004007
165 0.004035
171 0.003954
174 0.003943
173 0.004982
94 0.004986
30 0.005985
17 0.006021
39 0.005975
58 0.005984
85 0.005779
98 0.005978
99 0.006018
94 0.006978
94 0.006983
102 0.005984
119 0.001993
130 0.001995
146 0.002041
159 0.0
166 0.0
175 0.000953
168 0.002077
104 0.001995
28 0.004029
24 0.003838
39 0.00398
66 0.004988
83 0.004928
98 0.005011
103 0.005986
103 0.006995
104 0.006973
115 0.006983
124 0.006977
142 0.007023
156 0.005984
166 0.006981
176 0.006977
181 0.007973
187 0.004007
113 0.001993
60 0.001994
33 0.002017
55 0.003018
72 0.002986
94 0.001994
109 0.002958
112 0.0
110 0.002043
112 0.001033
117 0.001029
131 0.000997
145 0.003958
155 0.003999
167 0.00403
172 0.004041
180 0.00387
186 0.003948
150 0.003959
61 0.004038
47 0.005987
61 0.00599
91 0.005969
106 0.005985
124 0.005979
120 0.00598
116 0.005981
117 0.005935
126 0.007977
135 0.004989
147 0.007022
159 0.00498
169 0.004962
177 0.004945
180 0.00502
187 0.003992
137 0.002003
75 0.003031
35 0.001003
51 0.0
68 0.0
88 0.0
100 0.0
110 0.000966
109 0.0
109 0.0
116 0.001004
128 0.002027
140 0.0
153 0.001035
162 0.0
171 0.000997
177 0.002038
180 0.001964
179 0.002045
104 0.002024
45 0.001996
34 0.002028
51 0.001991
69 0.004047
87 0.003976
99 0.003992
108 0.00502
108 0.004952
110 0.005979
120 0.006964
132 0.003982
143 0.002949
160 0.002962
174 0.002033
179 0.0
185 0.000941
190 0.002027
195 0.0
170 0.003024
87 0.0
49 0.002042
58 0.002019
75 0.001997
99 0.000997
116 0.001018
123 0.002992
121 0.002992
120 0.002881
122 0.003039
134 0.003027
143 0.00301
158 0.003026
171 0.002991
176 0.002987
180 0.003021
183 0.002993
188 0.004008
131 0.002988
79 0.002992
52 0.005986
68 0.006937
86 0.005989
111 0.005989
128 0.007114
128 0.00599
123 0.007978
122 0.00595
126 0.006939
140 0.006015
150 0.004987
165 0.004054
175 0.002026
179 0.003025
184 0.0
190 0.0
168 0.000955
68 0.0
37 0.0
41 0.000955
67 0.000998
80 0.001004
98 0.003004
110 0.005003
111 0.005823
110 0.005983
113 0.006029
122 0.005999
134 0.005986
150 0.00599
158 0.005977
168 0.005984
172 0.006015
179 0.005983
163 0.006
101 0.005984
42 0.005972
41 0.005984
67 0.005795
87 0.004999
99 0.005018
118 0.005016
122 0.005005
122 0.004989
125 0.005939
133 0.005018
144 0.002988
156 0.00402
168 0.001981
177 0.002167
185 0.003026
190 0.002027
196 0.002047
155 0.0
83 0.000962
58 0.000958
75 0.000997
93 0.000999
120 0.001986
139 0.002989
139 0.003028
133 0.002958
132 0.003006
137 0.002894
151 0.004987
160 0.005989
174 0.005985
183 0.005989
187 0.004999
194 0.004981
199 0.004979
165 0.002994
91 0.003041
62 0.002982
69 0.002993
96 0.002992
119 0.0
131 0.003026
135 0.0
131 8.5e-05
129 0.0
133 0.0
140 0.0
154 0.000964
168 0.001972
175 0.002993
184 0.004959
191 0.00598
185 0.005978
96 0.006019
54 0.005981
58 0.006972
77 0.00595
96 0.005984
110 0.001994
123 0.003057
125 0.002032
123 0.00203
124 0.002014
134 0.001023
142 0.002038
154 0.000973
166 0.000998
174 0.001964
183 0.000998
188 0.000997
178 0.002807
85 0.005975
56 0.005989
58 0.005983
78 0.006979
96 0.006976
115 0.006972
124 0.005988
124 0.005978
122 0.005984
125 0.006011
131 0.006016
145 0.003989
160 0.0
168 0.002043
178 0.0
182 0.002026
186 0.001013
192 0.000998
194 0.000998
118 0.000999
56 0.000998
54 0.000997
77 0.002969
102 0.002992
114 0.002993
126 0.00299
125 0.003014
121 0.002989
125 0.003021
132 0.00286
147 0.002993
156 0.003997
169 0.003991
178 0.004986
184 0.006982
186 0.006973
188 0.007937
191 0.006983
187 0.006981
95 0.004986
62 0.006988
61 0.004985
91 0.001996
109 0.002025
131 0.0
132 0.0
125 0.0
120 0.0
123 0.0
135 0.0
147 0.001994
157 0.0
166 0.002031
171 0.001015
174 0.000997
178 0.00301
179 0.003951
118 0.003951
58 0.004985
46 0.007016
60 0.00702
84 0.007982
106 0.004021
116 0.007012
118 0.003985
112 0.001992
113 0.002025
122 0.0
136 0.0
144 0.0
154 0.0
160 0.001001
167 0.000996
174 0.000997
177 0.001028
98 0.000991
35 0.002998
32 0.002989
55 0.002995
69 0.002993
85 0.00302
98 0.003985
101 0.003988
100 0.00499
103 0.005986
108 0.005985
122 0.005981
138 0.006837
143 0.007975
154 0.005979
161 0.007984
167 0.005091
159 0.004938
104 0.004983
42 0.004987
46 0.003993
61 0.00396
82 0.004
92 0.004023
105 0.003989
107 0.006016
106 0.002966
109 0.00402
119 0.00399
128 0.003986
142 0.003024
149 0.003026
157 0.001998
163 0.0
167 0.0
158 0.0
75 0.001014
51 0.000994
59 0.001008
76 0.001031
99 0.0
115 0.0
120 0.0
115 0.000992
113 0.002026
116 0.001966
128 0.003
139 0.003988
148 0.003955
155 0.003988
161 0.003956
164 0.003994
169 0.005896
167 0.006019
89 0.005996
45 0.006973
49 0.007028
68 0.006985
81 0.00797
97 0.004987
108 0.004996
108 0.00399
106 0.004979
112 0.00398
119 0.001995
134 0.002009
145 0.004021
153 0.001992
159 0.003988
163 0.002995
167 0.002032
167 0.003002
121 0.003002
50 0.002991
48 0.0
61 0.002027
78 0.0
86 0.0
100 0.0
109 0.0
110 0.0
113 0.0
122 0.000988
130 0.001961
145 0.004004
158 0.004034
165 0.003984
172 0.003965
175 0.003822
178 0.003936
183 0.003981
187 0.003974
180 0.003999
119 0.004952
49 0.00498
47 0.004988
65 0.004988
79 0.004987
93 0.006015
102 0.005985
111 0.00602
112 0.006013
116 0.005985
126 0.005953
135 0.006027
147 0.005967
161 0.004992
168 0.004988
177 0.004987
181 0.004979
186 0.004976
191 0.004989
195 0.004985
201 0.004983
205 0.004001
211 0.003995
216 0.006982
219 0.00399
222 0.004028
227 0.003972
224 0.003995
112 0.003985
66 0.003995
55 0.00399
85 0.002967
102 0.003002
122 0.0
126 0.0
120 0.0
114 0.0
118 0.0
125 0.0
141 0.0
149 0.0
162 0.001966
172 0.002014
176 0.001957
180 0.001981
182 0.002007
184 0.001996
187 0.00394
194 0.004987
195 0.006033
106 0.007019
53 0.005965
48 0.00701
68 0.005981
92 0.007947
108 0.00599
125 0.005993
126 0.005982
119 0.004988
118 0.004984
125 0.004989
141 0.002997
151 0.002992
167 0.002993
178 0.004987
186 0.003
190 0.004967
194 0.002034
197 0.004986
203 0.004986
208 0.004991
143 0.003986
50 0.001999
34 0.001992
49 0.0
72 0.0
85 0.0
103 0.0
112 0.0
115 0.0
114 0.000997
117 0.001993
128 0.002959
144 0.00598
150 0.006978
167 0.006981
179 0.006981
186 0.006958
189 0.006982
192 0.006979
198 0.004985
199 0.006016
99 0.004995
52 0.004986
34 0.003989
48 0.00399
77 0.003989
95 0.001991
107 0.002015
116 0.0
115 0.0
114 0.0
119 0.001995
132 0.001995
142 0.002994
159 0.003985
173 0.005985
178 0.006974
185 0.00698
189 0.00399
191 0.003003
198 0.003012
169 0.004986
80 0.002997
42 0.004987
47 0.002976
72 0.003003
102 0.002995
116 0.002992
129 0.001987
121 0.0
116 0.001998
120 0.000997
129 0.0
139 0.0
155 0.0
163 0.0
175 0.000998
180 0.0
182 0.002992
186 0.001993
177 0.004957
112 0.004997
41 0.005016
38 0.005017
59 0.005019
83 0.004981
100 0.00598
115 0.006993
116 0.00704
112 0.007979
109 0.006981
116 0.003993
124 0.006977
141 0.004001
156 0.003989
164 0.003987
170 0.00399
175 0.002988
179 0.000995
157 0.001001
90 0.0
30 0.0
33 0.00301
48 0.0
72 0.0
89 0.000959
100 0.000998
106 0.001002
106 0.00103
108 0.000997
116 0.001002
127 0.001007
141 0.001028
157 0.000995
165 0.000999
173 0.001995
176 0.000987
183 0.000998
151 0.002029
84 0.000997
31 0.00399
41 0.003987
56 0.00396
74 0.004026
84 0.004956
102 0.005981
107 0.006005
107 0.005991
110 0.00399
118 0.006013
130 0.003011
143 0.004981
158 0.005022
166 0.004986
173 0.003986
180 0.002994
184 0.00296
146 0.002996
83 0.002991
38 0.0
52 0.000981
68 0.0
86 0.0
97 0.0
111 0.001003
114 0.0
114 0.001001
120 0.0
128 0.00399
140 0.001985
152 0.003003
161 0.000963
171 0.000998
176 0.004017
181 0.004961
186 0.005993
172 0.006018
93 0.005982
51 0.006039
58 0.00586
70 0.007975
96 0.007979
115 0.004987
121 0.007978
118 0.004021
116 0.002958
119 0.002995
130 0.002992
139 0.002984
153 0.00296
165 0.001996
170 0.002004
175 0.002052
179 0.002993
185 0.000969
152 0.00296
76 0.000945
46 0.000999
54 0.001988
81 0.003033
92 0.00399
110 0.002963
118 0.006976
119 0.007026
119 0.006178
123 0.006978
132 0.006015
147 0.006976
159 0.006948
169 0.005384
179 0.004949
182 0.003978
187 0.002013
192 0.003977
187 0.001999
107 0.002028
46 0.003036
44 0.00373
67 0.001994
80 0.001994
95 0.003036
109 0.000983
116 0.001996
118 0.002039
121 0.00399
125 0.002994
139 0.003857
155 0.004885
164 0.005033
177 0.003998
183 0.004988
189 0.005038
192 0.004981
195 0.004987
202 0.005008
190 0.004943
122 0.005982
52 0.004992
47 0.004986
64 0.005983
89 0.007981
99 0.002966
114 0.003974
122 0.004027
121 0.000998
122 0.003031
130 0.0
138 0.002998
151 0.000999
169 0.0
175 0.0
186 0.001997
193 0.000998
196 0.001959
200 0.002066
202 0.001962
206 0.002992
212 0.00379
217 0.004963
140 0.005986
57 0.005951
47 0.005975
63 0.005963
89 0.007978
110 0.003986
126 0.004023
127 0.003033
121 0.002056
118 0.002027
122 0.0
133 0.000996
145 0.002992
160 0.004954
170 0.005995
178 0.007942
182 0.002982
184 0.002997
187 0.002988
193 0.003004
134 0.00106
76 0.00299
43 0.00299
52 0.001989
84 0.0
108 0.002026
126 0.001013
133 0.0
125 0.002034
121 0.002049
125 0.004986
136 0.005019
152 0.006984
161 0.007013
176 0.006938
183 0.007813
189 0.007965
194 0.005966
199 0.007944
184 0.006014
114 0.005982
41 0.005974
39 0.004985
55 0.003983
82 0.001984
97 0.003996
112 0.002995
117 0.003977
114 0.004036
115 0.003991
123 0.002993
131 0.003985
147 0.003989
164 0.000946
172 0.001991
181 0.000984
186 0.0
188 0.000997
194 0.00094
136 0.000997
73 0.002005
32 0.001948
39 0.001962
67 0.001004
91 0.002003
103 0.000837
115 0.002005
114 0.001
112 0.002025
117 0.003031
124 0.004955
137 0.005985
154 0.006027
166 0.005982
176 0.005974
182 0.007977
185 0.007022
189 0.004993
194 0.002032
168 0.004987
66 0.002994
37 0.0
48 0.002992
80 0.0
97 0.0
118 0.000964
120 0.00096
118 0.00104
113 0.002063
118 0.001036
125 0.002036
140 0.002995
156 0.003052
164 0.004059
172 0.003861
177 0.005016
181 0.005186
186 0.007975
144 0.007979
81 0.007972
39 0.006945
56 0.002992
77 0.00602
105 0.002997
119 0.005985
126 0.003977
117 0.002991
114 0.002987
121 0.002996
129 0.002993
145 0.001977
160 0.000955
168 0.001004
177 0.002004
182 0.0
185 0.0
187 0.002037
91 0.003006
47 0.002997
34 0.003012
55 0.004027
77 0.00396
93 0.004991
111 0.006019
113 0.006947
110 0.007016
110 0.004024
114 0.006982
128 0.003987
137 0.007019
154 0.004021
168 0.003973
173 0.003987
179 0.003998
181 0.003994
186 0.002028
128 0.004035
52 0.003026
30 0.0
47 0.002025
71 0.000997
81 0.001997
96 0.002024
105 0.002011
106 0.002009
106 0.002998
110 0.004988
122 0.00399
138 0.004992
148 0.005032
163 0.004984
169 0.004994
175 0.005979
179 0.006937
182 0.00502
189 0.002996
133 0.004035
72 0.003989
35 0.004035
47 0.005983
70 0.002023
87 0.006038
101 0.002969
110 0.005025
109 0.005928
108 0.006014
113 0.005032
125 0.002988
134 0.002983
150 0.002981
159 0.002992
170 0.000949
175 0.0
177 0.0
180 0.000995
188 0.0
173 0.0
77 0.002031
46 0.002007
57 0.002036
89 0.002956
115 0.003995
127 0.003983
128 0.003952
121 0.003993
117 0.003999
123 0.00429
134 0.004988
146 0.006014
159 0.00598
166 0.005988
176 0.005976
179 0.005981
184 0.005975
189 0.005011
171 0.007999
87 0.004989
41 0.004971
45 0.004973
73 0.003989
87 0.00399
105 0.004989
118 0.003003
117 0.003022
114 0.002002
118 0.005023
127 0.002003
139 0.004026
152 0.003985
164 0.003026
175 0.00203
179 0.003023
182 0.0
186 0.002004
189 0.002993
123 0.003955
43 0.004022
32 0.003955
50 0.003962
75 0.003953
84 0.003989
102 0.005985
109 0.005979
109 0.005983
110 0.005984
115 0.005986
129 0.00698
143 0.006969
157 0.006972
168 0.005996
177 0.007013
181 0.004993
184 0.007014
188 0.004986
193 0.00702
155 0.006972
88 0.00702
36 0.007013
39 0.00717
67 0.002998
89 0.003001
101 0.002991
114 0.002993
115 0.001994
114 0.001995
119 0.00298
126 0.001999
142 0.002001
154 0.005985
167 0.00296
177 0.004979
184 0.002007
188 0.002993
190 0.002992
192 0.003022
199 0.003022
150 0.0
84 0.003025
45 0.000998
54 0.0
74 0.000998
104 0.001995
117 0.001996
127 0.003963
118 0.00502
115 0.005976
117 0.004972
129 0.003976
145 0.002978
154 0.002011
167 0.003002
175 0.003001
178 0.0
179 0.003039
184 0.002958
185 0.002988
98 0.0
55 0.0
42 0.0
71 0.0
90 0.0
110 0.0
126 0.0
126 0.002011
119 0.000998
118 0.00103
127 0.001005
142 0.001984
152 0.003992
168 0.004984
180 0.005022
185 0.005002
189 0.004982
192 0.004986
195 0.004992
120 0.005985
62 0.005949
31 0.005992
52 0.006982
70 0.006022
86 0.007981
102 0.004977
112 0.007019
111 0.006977
110 0.006979
114 0.006982
127 0.004134
137 0.00698
154 0.004008
164 0.006982
175 0.003957
181 0.002954
184 0.003012
189 0.002001
179 0.002038
113 0.004028
39 0.00102
35 0.002998
56 0.0
79 0.002996
96 0.0
111 0.003042
115 0.002987
113 0.002981
113 0.0
117 0.0
130 0.0
143 0.0
157 0.0
168 0.0
176 0.000993
179 0.001995
183 0.001956
186 0.001996
164 0.00199
66 0.001967
42 0.001996
53 0.001995
87 0.002983
104 0.004028
125 0.004027
124 0.005977
119 0.005991
113 0.006975
115 0.005985
127 0.007981
142 0.007976
151 0.007982
163 0.007977
169 0.00602
174 0.006963
179 0.00398
182 0.006976
111 0.00199
41 0.002999
36 0.002993
61 0.0
90 0.0
103 0.0
120 0.0
117 0.0
113 0.001958
113 0.002022
123 0.001964
133 0.001962
149 0.001995
159 0.002026
170 0.001995
176 0.00399
181 0.003959
186 0.004957
120 0.004987
63 0.005965
33 0.007979
47 0.005985
64 0.007973
85 0.004986
97 0.007978
111 0.00499
111 0.00299
110 0.00399
115 0.004987
127 0.003989
137 0.003989
153 0.002991
164 0.00399
172 0.002992
176 0.002992
184 0.002993
188 0.0
116 0.002
53 0.002958
40 0.004024
56 0.003989
82 0.004989
92 0.005957
110 0.00601
115 0.006016
115 0.006004
116 0.005979
120 0.005982
130 0.004986
146 0.004988
156 0.004966
169 0.004987
175 0.004987
181 0.004988
184 0.003989
187 0.001999
195 0.002989
168 0.002975
83 0.00199
45 0.003025
54 0.003033
72 0.003025
95 0.002996
114 0.0
120 0.0
119 0.0
117 0.001997
120 0.0
131 0.0
141 0.0
157 0.0
166 0.0
177 0.001996
184 0.001984
186 0.001995
189 0.002958
193 0.002992
197 0.002951
193 0.002988
133 0.002991
59 0.00296
57 0.003039
75 0.003033
106 0.00299
125 0.002992
133 0.00399
127 0.003883
120 0.003993
120 0.003988
130 0.003978
139 0.003955
154 0.004027
162 0.004026
172 0.003968
178 0.003992
180 0.005988
184 0.006981
176 0.00698
97 0.006975
52 0.006949
50 0.006951
72 0.006951
102 0.006971
116 0.006018
131 0.00701
127 0.005983
122 0.007015
123 0.007011
128 0.00698
144 0.007015
160 0.003998
169 0.004976
180 0.002992
187 0.001984
191 0.002995
190 0.001998
133 0.001996
51 0.0
43 0.0
58 0.0
85 0.0
101 0.002998
113 0.0
121 0.00104
119 0.000994
119 0.000961
126 0.000965
135 0.000991
152 0.002036
164 0.00203
175 0.003941
182 0.003991
189 0.003986
194 0.006028
169 0.00799
82 0.003988
49 0.00701
48 0.004002
77 0.002992
94 0.001995
115 0.002996
128 0.0
126 0.0
123 0.0
126 0.002993
132 0.0
147 0.002004
164 0.002026
172 0.002027
183 0.002001
187 0.002028
192 0.001999
196 0.002994
142 0.003999
69 0.003951
50 0.004037
64 0.00502
98 0.006011
115 0.004952
138 0.00502
134 0.006016
127 0.006978
123 0.005955
127 0.006948
134 0.001948
152 0.002978
165 0.002031
171 0.002986
178 0.002962
183 0.002991
185 0.0
122 0.002979
55 0.0
37 0.002971
57 0.00493
75 0.002994
99 0.00304
117 0.0
117 0.0
112 0.001052
112 0.002036
117 0.003028
132 0.003987
148 0.00501
158 0.005984
167 0.005988
176 0.004992
180 0.003992
187 0.003988
161 0.003994
67 0.00399
43 0.00595
52 0.002992
72 0.005987
91 0.004988
102 0.004031
115 0.003989
115 0.0
115 0.002989
120 0.0
127 0.002004
142 0.0
158 0.0
166 0.0
174 0.0
181 0.0
185 0.0
184 0.0
133 0.0
63 0.0
56 0.0
70 0.0
93 0.000998
112 0.001996
121 0.00295
123 0.003023
121 0.003035
123 0.004986
129 0.004955
140 0.003989
152 0.006961
166 0.005983
173 0.005983
179 0.006981
182 0.005018
185 0.006989
190 0.002988
116 0.001953
75 0.001985
62 0.002993
75 0.001986
104 0.000998
128 0.00204
136 0.002006
128 0.002994
121 0.00319
122 0.0
129 0.003019
140 0.0
151 0.003047
164 0.002024
170 0.002043
177 0.002993
179 0.003048
185 0.002001
179 0.0
104 0.0
54 0.002058
50 0.00204
64 0.004042
89 0.00399
108 0.003936
116 0.003959
115 0.005949
112 0.005984
113 0.005982
123 0.006934
134 0.006943
149 0.005988
160 0.006982
166 0.006
175 0.005988
178 0.007987
182 0.003996
179 0.006981
106 0.003973
50 0.006979
41 0.007173
55 0.00698
78 0.005982
94 0.001998
105 0.003982
110 0.003029
109 0.0
111 0.0
121 0.0
133 0.0
143 0.0
159 0.0
166 0.000948
176 0.000999
181 0.003952
185 0.003989
191 0.005989
146 0.005983
72 0.005992
45 0.004986
60 0.006033
78 0.005939
100 0.004968
112 0.00698
121 0.007976
118 0.004975
116 0.007996
119 0.004016
131 0.004973
140 0.00498
155 0.002981
167 0.002992
172 0.00298
176 0.002992
179 0.000997
185 0.000994
162 0.003021
86 0.0
53 0.003023
66 0.002003
85 0.0
114 0.00202
132 0.001028
134 0.002009
124 0.00402
119 0.004032
123 0.004022
136 0.004026
144 0.004953
159 0.004027
170 0.004957
175 0.004944
180 0.00499
184 0.006982
187 0.005986
136 0.00618
55 0.004992
42 0.002013
60 0.003046
83 0.003027
100 0.001047
115 0.003023
120 0.0
116 0.002991
114 0.002939
118 0.00296
131 0.002998
147 0.001012
156 0.0
167 0.000998
175 0.000997
178 0.0
182 0.003007
186 0.002992
144 0.005018
53 0.005981
35 0.005977
43 0.005985
70 0.00502
82 0.005969
100 0.004968
110 0.003025
111 0.003028
110 0.002977
115 0.005017
126 0.002041
140 0.003991
158 0.002995
168 0.002991
179 0.003029
185 0.000977
187 0.0
188 0.0
192 0.000997
198 0.004039
151 0.004987
57 0.004988
43 0.006971
56 0.005987
88 0.004976
103 0.001994
121 0.003014
122 0.000996
117 0.0
115 0.0
121 0.002987
131 0.000952
144 0.002993
156 0.000958
166 0.00303
174 0.001993
175 0.003001
177 0.0
180 0.003024
182 0.0
97 0.001988
43 0.005019
45 0.002992
75 0.004955
99 0.004975
112 0.003956
129 0.005015
126 0.004956
118 0.003975
120 0.004987
126 0.004987
141 0.002989
154 0.006013
166 0.002024
175 0.00502
182 0.003199
184 0.002988
190 0.003031
169 0.000994
81 0.00203
37 0.002957
43 0.002993
60 0.004021
83 0.004987
102 0.004986
108 0.007976
113 0.005969
110 0.004966
112 0.003986
121 0.003996
137 0.00198
148 0.003006
163 0.0
169 0.000989
177 0.002998
183 0.003993
186 0.00199
125 0.002028
48 0.003027
39 0.003027
62 0.002959
85 0.000997
102 0.00205
117 0.001028
120 0.001994
117 0.002034
116 0.002808
120 0.004025
133 0.002992
149 0.004018
157 0.003993
167 0.00399
171 0.003989
178 0.003949
180 0.003989
136 0.003987
60 0.003992
55 0.005966
73 0.005952
103 0.005952
118 0.005958
133 0.005978
126 0.006052
120 0.005979
119 0.007049
128 0.007014
137 0.008011
152 0.007045
164 0.002986
169 0.004979
177 0.002126
181 0.005019
178 0.002994
86 0.002978
52 0.00299
50 0.002993
77 0.002993
90 0.003008
109 0.002992
117 0.0
117 0.000973
115 0.003024
117 0.000993
125 0.003043
140 0.003049
149 0.003024
162 0.003024
167 0.00303
174 0.000985
180 0.0
178 0.0
107 0.001036
50 0.000985
42 0.0
66 0.001003
74 0.0
89 0.001991
106 0.000997
110 0.002029
110 0.001044
111 0.000963
120 0.002008
135 0.003993
145 0.003993
160 0.004981
168 0.005016
174 0.005
177 0.005029
182 0.005003
178 0.004987
89 0.004988
56 0.005025
56 0.004987
83 0.005985
96 0.007977
111 0.004971
122 0.004039
121 0.003976
119 0.002994
121 0.002989
130 0.003998
