146 0.015958
147 0.0
150 0.0
152 0.0
151 0.0
150 0.0
148 0.0
151 0.0
154 0.0
159 0.0
163 0.0
165 0.0
169 0.0
172 0.0
162 0.000995
138 0.000981
118 0.0
116 0.0
120 0.0
123 0.0
126 0.0
129 0.0
127 0.0
127 0.0
126 0.0
129 0.0
133 0.0
136 0.000998
138 0.000998
141 0.0
143 0.0
146 0.0
148 0.000994
139 0.000997
107 0.000998
93 0.000994
93 0.0
97 0.0
100 0.001
103 0.001002
105 0.000997
106 0.000998
105 0.000997
105 0.001004
109 0.000962
111 0.000969
116 0.001008
119 0.001025
121 0.000992
123 0.0
126 0.0
129 0.002048
130 0.002019
108 0.001005
92 0.000983
80 0.000944
82 0.00096
86 0.000968
76 0.000958
79 0.00096
80 0.000997
80 0.000998
78 0.000994
78 0.001997
85 0.000998
91 0.001017
95 0.002002
103 0.000968
105 0.000999
112 0.001043
114 0.002
116 0.001956
95 0.000985
63 0.000999
53 0.000996
50 0.00099
57 0.000998
63 0.000998
67 0.000999
71 0.001995
71 0.001038
73 0.000997
74 0.002031
78 0.001995
87 0.00104
94 0.000998
96 0.000998
101 0.002026
106 0.001008
108 0.001032
111 0.001017
116 0.002034
99 0.002029
56 0.001995
43 0.002007
46 0.002029
50 0.002003
55 0.002028
57 0.002007
63 0.001996
63 0.002031
62 0.001
67 0.001994
73 0.001002
77 0.001025
81 0.002019
85 0.002992
91 0.003042
98 0.002066
99 0.002025
106 0.001994
111 0.001995
104 0.003025
71 0.003042
42 0.002044
40 0.00203
45 0.000997
42 0.002001
47 0.001995
54 0.002992
56 0.002963
25 0.002029
27 0.002992
32 0.002992
43 0.002992
54 0.002992
62 0.003032
72 0.002957
76 0.001995
84 0.003003
93 0.002993
110 0.002992
106 0.004022
65 0.002992
30 0.003183
20 0.003031
28 0.00198
33 0.001996
43 0.002993
55 0.003024
54 0.002992
52 0.002993
53 0.002949
60 0.002958
65 0.002964
77 0.003024
81 0.003029
88 0.002
91 0.003023
97 0.003027
102 0.002021
106 0.004038
59 0.002025
24 0.003025
14 0.002991
17 0.004021
25 0.00399
29 0.002985
35 0.002993
41 0.003012
43 0.003052
41 0.002994
44 0.002997
52 0.004002
65 0.003039
72 0.003031
76 0.002989
82 0.003959
88 0.00399
95 0.002988
103 0.002994
112 0.003039
102 0.004699
59 0.00303
12 0.003989
15 0.003989
25 0.003039
25 0.002992
28 0.003987
36 0.00399
44 0.003989
43 0.003989
47 0.002992
52 0.002994
61 0.004035
65 0.004624
78 0.003997
87 0.003958
95 0.003972
97 0.004023
105 0.003027
111 0.004955
117 0.005035
125 0.003989
108 0.00399
59 0.003996
30 0.003975
26 0.005012
38 0.003974
42 0.003989
45 0.003989
52 0.004004
53 0.004025
54 0.004021
58 0.005019
65 0.005021
79 0.004024
87 0.003992
95 0.004041
104 0.004991
115 0.003989
125 0.004035
132 0.005032
141 0.004025
148 0.004032
156 0.004031
160 0.004016
145 0.004021
97 0.005022
64 0.004025
64 0.003989
75 0.005988
81 0.00501
91 0.004987
93 0.005023
83 0.004025
63 0.00502
42 0.004982
35 0.004987
45 0.005023
66 0.00399
82 0.004006
87 0.004029
89 0.005482
94 0.00502
103 0.005022
114 0.005015
121 0.004987
131 0.00402
123 0.003989
75 0.004987
37 0.005984
26 0.005013
36 0.005031
45 0.00502
52 0.006017
64 0.005021
62 0.004999
59 0.005987
59 0.005984
65 0.005028
76 0.00502
88 0.005987
96 0.005987
108 0.004962
116 0.005022
122 0.004987
125 0.005953
138 0.00502
146 0.006028
155 0.005984
162 0.005029
163 0.005026
129 0.005027
76 0.005984
64 0.005984
68 0.006014
80 0.004995
87 0.006024
89 0.006017
96 0.006027
98 0.005984
99 0.006019
103 0.00499
112 0.006008
119 0.006015
126 0.005979
130 0.005936
139 0.006016
147 0.006015
150 0.006019
160 0.005016
166 0.004992
174 0.005983
178 0.005984
181 0.006026
170 0.005991
122 0.005967
95 0.01895
77 0.006984
85 0.006982
92 0.006028
94 0.006002
98 0.005984
102 0.005998
103 0.005854
104 0.006021
106 0.005985
113 0.005984
122 0.007012
132 0.006028
139 0.006983
142 0.007012
150 0.006018
154 0.005985
160 0.005991
165 0.006015
169 0.006025
174 0.006981
179 0.00798
185 0.006028
160 0.007021
110 0.006983
83 0.006982
86 0.00702
100 0.00604
101 0.006983
110 0.006011
113 0.006016
112 0.006025
114 0.006981
116 0.007011
122 0.007015
128 0.007019
137 0.007012
122 0.006981
94 0.007024
79 0.006017
78 0.007029
93 0.006948
107 0.006981
120 0.007017
132 0.006995
110 0.007978
53 0.00703
8 0.007017
0 0.005982
6 0.006981
17 0.007013
33 0.007985
41 0.007959
42 0.006941
40 0.006951
43 0.006976
50 0.007978
58 0.007979
68 0.007002
77 0.006936
82 0.007979
89 0.007978
91 0.007978
94 0.007977
95 0.007979
98 0.006985
65 0.007019
32 0.006981
25 0.00794
28 0.007945
39 0.007014
37 0.007011
32 0.007013
28 0.007947
22 0.007973
24 0.00798
30 0.007989
39 0.007979
60 0.006981
72 0.00695
85 0.00798
101 0.007014
113 0.007015
117 0.007011
132 0.00698
141 0.007016
133 0.006981
96 0.00702
52 0.006984
43 0.007979
47 0.007985
51 0.007978
48 0.007979
58 0.007978
63 0.00798
69 0.007023
72 0.006978
75 0.007007
84 0.006981
93 0.006977
104 0.007032
111 0.006997
116 0.007009
122 0.007013
122 0.006981
133 0.00794
136 0.007016
130 0.007016
84 0.007016
48 0.007016
34 0.006998
38 0.006998
39 0.007015
38 0.007014
47 0.006982
50 0.007016
51 0.007024
48 0.006966
53 0.006981
62 0.006981
70 0.007007
78 0.006982
86 0.005979
90 0.005991
100 0.006982
104 0.007013
116 0.00698
120 0.007014
114 0.007014
77 0.006997
42 0.00695
30 0.007024
39 0.007012
44 0.007012
42 0.005995
46 0.00599
50 0.005953
50 0.005985
50 0.006983
53 0.007017
63 0.006008
72 0.007024
79 0.007014
85 0.007013
91 0.007014
96 0.00602
100 0.005979
105 0.006017
116 0.006024
101 0.00603
44 0.005984
34 0.009974
24 0.005992
33 0.006021
31 0.004987
30 0.005991
40 0.005984
44 0.006025
44 0.005945
46 0.006013
57 0.006027
65 0.006024
74 0.006022
81 0.006027
90 0.006014
94 0.006015
99 0.005019
110 0.005029
113 0.006015
120 0.005038
129 0.005001
114 0.004996
48 0.005985
35 0.006017
36 0.006018
42 0.004983
39 0.005988
42 0.005984
46 0.005021
52 0.005025
56 0.004986
59 0.004987
64 0.004991
72 0.004976
85 0.005021
91 0.004982
94 0.005031
102 0.005021
106 0.005017
109 0.004983
118 0.00499
126 0.00503
124 0.005022
91 0.004983
54 0.004974
38 0.004021
45 0.004023
46 0.005043
45 0.005031
52 0.005026
56 0.00503
60 0.005025
63 0.005027
66 0.005022
74 0.004993
82 0.005024
91 0.004987
94 0.003992
103 0.004024
110 0.00399
118 0.00399
122 0.004989
132 0.004041
139 0.005023
116 0.004987
71 0.005019
49 0.00502
50 0.005024
56 0.004999
58 0.005012
64 0.004022
70 0.00402
75 0.004031
73 0.004031
77 0.004032
84 0.004014
93 0.003979
99 0.00399
113 0.003985
116 0.00399
121 0.004991
129 0.004946
139 0.00399
146 0.004024
123 0.004026
74 0.00399
64 0.003989
66 0.00399
73 0.003988
77 0.00399
84 0.00399
88 0.003989
92 0.002993
93 0.003991
100 0.002992
107 0.003029
116 0.003024
126 0.00402
130 0.004034
135 0.003901
140 0.004025
148 0.00399
152 0.004032
144 0.003022
101 0.002968
67 0.003
75 0.003026
79 0.00303
81 0.002993
84 0.002992
91 0.003028
95 0.003033
96 0.004036
99 0.004027
102 0.00403
112 0.003034
121 0.00297
132 0.002983
136 0.002993
138 0.002994
148 0.003009
154 0.002992
151 0.002993
116 0.002992
80 0.003996
69 0.003946
74 0.002992
79 0.003991
77 0.003007
86 0.002992
91 0.002996
95 0.002992
95 0.002992
102 0.002992
112 0.002957
119 0.002961
126 0.002993
135 0.003023
138 0.002957
148 0.002993
153 0.002993
164 0.001986
158 0.001987
122 0.002994
85 0.002992
76 0.002861
84 0.002993
89 0.003
88 0.002993
92 0.003025
100 0.002029
105 0.001995
106 0.001988
111 0.001995
119 0.002028
129 0.001961
135 0.001969
142 0.002992
150 0.002993
156 0.003048
158 0.002995
164 0.003012
170 0.002992
171 0.003031
136 0.002024
89 0.001994
92 0.002029
100 0.001995
105 0.001994
105 0.001993
115 0.001995
119 0.001994
116 0.001997
117 0.001995
123 0.001994
131 0.001995
144 0.002035
154 0.002028
160 0.001995
165 0.001995
169 0.001996
174 0.002145
182 0.002028
182 0.000994
157 0.000998
121 0.000997
101 0.001994
104 0.001996
111 0.001965
119 0.001964
125 0.001994
124 0.001995
126 0.001996
125 0.001993
129 0.000999
137 0.001027
148 0.000997
156 0.000997
161 0.000998
170 0.002019
171 0.002002
178 0.001987
184 0.001996
188 0.001996
165 0.001995
125 0.000997
101 0.000997
103 0.001013
115 0.001
116 0.000973
116 0.000993
126 0.000997
131 0.000998
133 0.000987
132 0.000998
140 0.001
148 0.000998
155 0.000967
159 0.000968
168 0.001989
172 0.001993
175 0.001001
180 0.000993
186 0.000998
195 0.000997
174 0.000998
115 0.000986
102 0.000997
105 0.000998
112 0.000997
115 0.000992
117 0.000998
124 0.0
126 0.001006
128 0.000999
129 0.0
138 0.0
142 0.0
152 0.0
158 0.001003
161 0.000998
165 0.001002
171 0.000997
178 0.000997
182 0.000998
187 0.000998
183 0.000998
145 0.0
98 0.0
100 0.0
117 0.0
121 0.0
125 0.0
133 0.0
139 0.0
135 0.0
138 0.0
145 0.0
152 0.0
159 0.0
169 0.0
175 0.0
184 0.000998
185 0.0
189 0.0
197 0.0
200 0.0
157 0.0
121 0.0
111 0.0
115 0.0
120 0.0
130 0.0
140 0.0
136 0.0
133 0.0
133 0.0
140 0.0
146 0.0
153 0.000997
161 0.000997
164 0.0
170 0.0
172 0.0
179 0.0
185 0.0
186 0.000997
170 0.001025
123 0.00099
93 0.0
96 0.0
105 0.0
109 0.000998
113 0.000998
122 0.0
122 0.0
121 0.0
124 0.000998
130 0.0
139 0.0
144 0.0
149 0.0
152 0.0
157 0.000998
160 0.0
163 0.001033
171 0.0
173 0.001042
119 0.0
88 0.0
83 0.0
92 0.000962
100 0.000966
108 0.0
112 0.0
115 0.0
115 0.000999
115 0.000998
116 0.0
127 0.001047
133 0.0
142 0.000998
150 0.001043
153 0.000998
155 0.002028
163 0.001007
166 0.000814
169 0.000998
167 0.001965
131 0.001996
86 0.000996
85 0.001956
98 0.001029
105 0.000992
107 0.000998
111 0.001996
115 0.002026
110 0.000991
112 0.000987
113 0.000961
124 0.001008
128 0.001996
135 0.000973
142 0.002033
149 0.001034
149 0.001058
155 0.001035
156 0.001996
136 0.00204
80 0.001005
67 0.00095
72 0.000997
82 0.002001
87 0.002959
90 0.000997
98 0.001994
88 0.001022
76 0.000998
67 0.001004
69 0.00203
72 0.002041
79 0.001003
83 0.001032
90 0.001014
94 0.002025
98 0.001996
112 0.000996
120 0.002992
84 0.002028
50 0.002045
40 0.001963
47 0.00302
55 0.001995
60 0.001996
67 0.000882
72 0.001994
73 0.001003
72 0.002036
74 0.002029
83 0.002992
91 0.003004
97 0.001956
104 0.002019
109 0.002026
113 0.002992
115 0.003035
126 0.00203
131 0.000997
119 0.002025
80 0.001958
50 0.002036
49 0.002001
55 0.002992
58 0.00304
66 0.001987
67 0.001976
66 0.003023
70 0.00299
71 0.001993
76 0.001963
84 0.002989
92 0.003989
96 0.003026
105 0.003007
110 0.002992
116 0.001984
119 0.003021
125 0.002034
121 0.002992
79 0.003026
43 0.002022
43 0.002035
51 0.002009
60 0.002992
67 0.002
71 0.002993
71 0.002997
68 0.003022
70 0.003022
73 0.002991
80 0.00399
89 0.004026
97 0.00303
100 0.003026
106 0.003031
109 0.004003
119 0.001997
106 0.00399
68 0.00399
39 0.003029
38 0.00205
45 0.001994
54 0.003992
55 0.004038
60 0.002996
61 0.002992
57 0.003022
57 0.00399
65 0.002997
73 0.004031
80 0.003995
84 0.002979
92 0.003036
97 0.003037
102 0.004
106 0.00398
109 0.004015
99 0.002992
55 0.002994
27 0.003968
26 0.002959
30 0.003989
36 0.00399
38 0.003025
42 0.001024
47 0.002975
45 0.005018
44 0.004986
53 0.004021
60 0.004024
64 0.004016
71 0.004986
77 0.005026
87 0.003999
91 0.004026
92 0.003989
104 0.00398
99 0.002956
62 0.004023
29 0.004987
19 0.005018
24 0.004019
31 0.003028
33 0.00403
42 0.002986
43 0.00399
44 0.004023
41 0.003989
50 0.003986
56 0.003984
65 0.003981
71 0.004987
80 0.004987
89 0.004021
94 0.003961
100 0.004018
112 0.00396
117 0.00399
122 0.005985
106 0.005983
66 0.004982
41 0.005021
44 0.004016
52 0.005029
56 0.004986
59 0.003995
66 0.004024
65 0.004022
64 0.004025
67 0.004024
75 0.005985
84 0.006034
92 0.005038
98 0.005018
105 0.005021
107 0.005021
110 0.005032
120 0.004021
125 0.003993
126 0.004989
73 0.003988
49 0.004989
46 0.005985
53 0.006015
59 0.005034
64 0.005019
69 0.005019
72 0.005984
68 0.005984
71 0.00502
75 0.004987
86 0.005986
91 0.004988
100 0.005022
106 0.005984
111 0.006015
116 0.005034
125 0.005023
129 0.005021
132 0.005984
131 0.006019
79 0.006016
50 0.005028
51 0.00503
57 0.005025
60 0.004991
58 0.005989
64 0.006981
72 0.006017
72 0.005018
71 0.004966
76 0.005984
85 0.005984
91 0.004999
100 0.004983
109 0.004953
114 0.005034
120 0.005032
124 0.005984
128 0.005981
132 0.006025
119 0.006026
83 0.005019
47 0.005016
39 0.006975
42 0.007021
48 0.00603
51 0.006982
60 0.005985
63 0.006018
64 0.006009
66 0.007978
72 0.005984
76 0.004978
87 0.005019
95 0.00598
99 0.006989
101 0.007015
111 0.006014
117 0.006983
124 0.005999
129 0.006022
138 0.006027
124 0.006982
81 0.006981
54 0.006015
53 0.006019
65 0.005978
74 0.006981
75 0.007013
84 0.00602
85 0.007017
85 0.005987
88 0.006013
94 0.006024
103 0.007015
110 0.007014
118 0.006023
124 0.007029
127 0.007012
134 0.00795
135 0.007979
142 0.006988
137 0.007947
98 0.006977
69 0.00697
65 0.006999
69 0.006981
77 0.006981
87 0.007006
91 0.006982
94 0.007016
95 0.007994
95 0.007946
94 0.005963
104 0.007974
113 0.006983
119 0.006974
123 0.00694
130 0.007978
137 0.007979
142 0.007035
145 0.006988
151 0.007016
148 0.007979
94 0.007012
68 0.007012
67 0.006998
74 0.007964
75 0.007978
81 0.006936
89 0.00798
88 0.007979
88 0.006978
90 0.006999
93 0.007011
101 0.007979
107 0.007979
114 0.007
123 0.007014
127 0.007014
135 0.006984
143 0.007013
146 0.006981
150 0.007979
123 0.006944
84 0.006982
62 0.006977
59 0.00698
65 0.007946
71 0.00798
76 0.007948
83 0.00698
84 0.006977
88 0.007013
91 0.006982
97 0.006985
107 0.007013
118 0.007014
120 0.00698
128 0.007001
133 0.007018
143 0.006989
145 0.007986
150 0.007955
161 0.006977
138 0.006984
94 0.006983
75 0.006998
76 0.007011
81 0.006986
91 0.007013
99 0.007016
103 0.006987
105 0.006978
103 0.006015
105 0.006013
110 0.006982
118 0.007014
125 0.00702
132 0.007036
140 0.007016
145 0.007015
148 0.007016
153 0.007014
157 0.007018
156 0.006982
116 0.006984
84 0.005966
77 0.006022
84 0.006019
91 0.006018
99 0.006017
103 0.00701
107 0.007007
107 0.006035
102 0.005999
107 0.007011
116 0.005991
123 0.005982
130 0.006009
134 0.00602
141 0.005966
149 0.006016
149 0.006017
154 0.005992
162 0.005969
132 0.006014
85 0.006017
69 0.00698
78 0.005975
85 0.005988
89 0.005974
96 0.006015
100 0.00603
100 0.00598
99 0.005991
102 0.006018
111 0.006015
117 0.005967
121 0.005984
128 0.006017
136 0.004986
143 0.004982
145 0.00599
150 0.006001
155 0.006022
136 0.006047
92 0.006018
69 0.006019
67 0.006034
73 0.006017
82 0.006015
86 0.006018
93 0.004975
92 0.00499
92 0.004984
93 0.005017
99 0.005023
104 0.005024
112 0.005002
119 0.005022
126 0.006019
131 0.005033
137 0.006015
140 0.004993
148 0.00502
143 0.005012
102 0.005023
67 0.005025
58 0.005018
64 0.004988
72 0.005019
79 0.005025
83 0.004024
87 0.003982
88 0.005025
88 0.005021
93 0.004988
97 0.005015
107 0.00502
114 0.004983
120 0.005015
123 0.00502
131 0.00502
132 0.004987
137 0.005019
129 0.00503
85 0.005023
58 0.00498
62 0.004973
73 0.003992
81 0.003981
87 0.004002
93 0.00402
93 0.003968
87 0.00399
88 0.004022
90 0.004023
101 0.004988
104 0.004987
112 0.004019
119 0.003991
123 0.004021
128 0.003975
131 0.004027
112 0.004024
70 0.004025
48 0.004023
46 0.005023
56 0.005027
65 0.005027
68 0.005019
75 0.003975
76 0.003989
77 0.004028
76 0.003953
79 0.003992
92 0.003992
99 0.004038
102 0.004022
110 0.00399
117 0.003992
122 0.003993
130 0.004023
128 0.003993
91 0.003954
60 0.003977
54 0.003994
61 0.003991
71 0.003952
73 0.00399
79 0.00399
83 0.003992
84 0.00396
85 0.002962
93 0.00321
108 0.00396
120 0.002986
130 0.002942
136 0.002999
147 0.003034
155 0.002997
162 0.004027
170 0.004057
169 0.004027
130 0.002982
95 0.002992
93 0.003992
102 0.003988
111 0.003957
113 0.002994
116 0.003023
122 0.003033
118 0.002992
117 0.002949
124 0.002987
130 0.003052
132 0.002992
140 0.002989
147 0.002978
149 0.002978
153 0.003001
158 0.00302
155 0.003959
116 0.003991
85 0.001996
79 0.002996
87 0.003001
92 0.003023
93 0.003028
101 0.002992
103 0.003047
101 0.002994
99 0.003005
103 0.003031
109 0.003032
116 0.002992
119 0.002032
130 0.001989
135 0.001996
137 0.002999
143 0.003057
143 0.003025
91 0.003027
61 0.00299
64 0.002999
76 0.002959
77 0.001994
80 0.001994
89 0.001995
89 0.002028
86 0.001996
85 0.002025
94 0.001995
98 0.001997
108 0.001996
115 0.00199
118 0.001999
121 0.002025
124 0.002037
130 0.001967
134 0.002029
87 0.002992
55 0.001995
42 0.001999
49 0.001995
53 0.00202
51 0.001994
50 0.001995
53 0.001994
52 0.00195
49 0.001995
55 0.001995
63 0.001995
69 0.000998
74 0.000997
82 0.001005
86 0.000997
90 0.002001
98 0.001944
105 0.002
89 0.000993
28 0.002032
0 0.002033
0 0.001994
0 0.001992
0 0.000959
0 0.000985
7 0.000999
15 0.001991
19 0.000997
22 0.002007
18 0.000999
22 0.000997
28 0.000997
38 0.001022
44 0.001995
49 0.001995
54 0.001997
66 0.000999
72 0.001031
76 0.000999
71 0.000998
12 0.000998
4 0.001021
11 0.0
25 0.0
34 0.00103
39 0.000997
46 0.001005
53 0.0
58 0.000998
61 0.000998
69 0.000975
79 0.000964
93 0.00102
98 0.001004
103 0.000996
112 0.000998
116 0.00098
123 0.0
133 0.001001
126 0.000999
75 0.0
59 0.0
60 0.001003
72 0.000997
86 0.001016
93 0.000967
97 0.000984
100 0.001034
99 0.001011
103 0.000997
109 0.000998
118 0.000998
128 0.0
135 0.0
142 0.0
144 0.0
154 0.0
156 0.0
162 0.0
140 0.0
95 0.0
77 0.0
79 0.0
87 0.0
96 0.00092
100 0.0
105 0.0
107 0.0
107 0.0
110 0.0
116 0.0
123 0.0
131 0.001006
140 0.001008
143 0.0
146 0.0
151 0.0
154 0.00101
160 0.000998
143 0.001035
90 0.000997
74 0.000998
77 0.0
84 0.000967
91 0.0
95 0.0
102 0.0
104 0.0
103 0.001047
103 0.001036
109 0.0
114 0.00104
123 0.000997
127 0.0
133 0.000998
140 0.001006
145 0.000947
150 0.00096
156 0.0
160 0.0
134 0.0
89 0.000998
71 0.000998
75 0.001001
84 0.001037
84 0.0
89 0.0
95 0.0
95 0.002028
92 0.001031
99 0.0
104 0.0
109 0.0
116 0.000997
123 0.000998
133 0.001995
136 0.001995
142 0.0
150 0.0
152 0.0
139 0.001014
99 0.00099
68 0.0
69 0.001004
79 0.000998
85 0.002014
90 0.000992
100 0.000997
98 0.000998
97 0.0
97 0.0
103 0.0
107 0.001
116 0.001035
123 0.000987
127 0.000998
131 0.000969
138 0.001047
141 0.002038
146 0.002076
125 0.001959
79 0.0
64 0.001029
63 0.002032
73 0.001997
79 0.001995
82 0.002041
88 0.002048
92 0.001032
88 0.002049
88 0.002002
93 0.001041
101 0.002003
109 0.0
113 0.000966
120 0.002005
125 0.001995
127 0.001996
133 0.00201
139 0.000999
133 0.000998
95 0.002044
59 0.001994
51 0.002993
59 0.001966
63 0.001032
66 0.00103
69 0.000951
75 0.002994
73 0.003029
74 0.001028
78 0.00103
84 0.001995
88 0.002992
97 0.00299
106 0.001994
110 0.001994
112 0.002152
119 0.00196
126 0.001974
127 0.002026
103 0.002027
55 0.000996
43 0.001952
43 0.000998
51 0.001963
56 0.003023
61 0.001022
66 0.002993
68 0.003023
70 0.000968
73 0.00203
79 0.001009
86 0.002992
93 0.001995
99 0.001999
105 0.001995
109 0.002
117 0.001962
123 0.001996
128 0.003991
131 0.003033
90 0.001893
58 0.001999
50 0.001963
57 0.002992
67 0.002992
71 0.001995
75 0.001984
83 0.001985
92 0.001958
99 0.001964
109 0.003954
121 0.00399
137 0.001959
142 0.002009
148 0.002014
153 0.002994
154 0.003022
154 0.001996
159 0.002026
161 0.001993
132 0.001995
91 0.003031
71 0.00399
71 0.004024
77 0.001946
84 0.002993
86 0.00196
92 0.004022
92 0.004027
90 0.003027
91 0.001978
94 0.002024
105 0.002992
110 0.002991
118 0.004045
123 0.004034
123 0.002983
126 0.002983
130 0.003007
132 0.004028
134 0.004001
129 0.003028
85 0.003023
50 0.001982
47 0.002943
54 0.002962
58 0.004026
57 0.00399
64 0.003011
70 0.002981
70 0.002998
68 0.004
73 0.003989
82 0.002981
87 0.00203
95 0.002996
105 0.00299
111 0.003964
113 0.003999
119 0.003991
127 0.003954
134 0.004021
136 0.003031
110 0.004948
72 0.004007
51 0.002993
56 0.00302
61 0.003021
68 0.003026
74 0.002991
77 0.004025
76 0.004954
77 0.00502
80 0.003959
85 0.003957
95 0.002999
102 0.004986
107 0.004987
113 0.003991
119 0.003988
127 0.003989
134 0.003988
134 0.004033
140 0.00504
115 0.005036
67 0.003959
58 0.003991
67 0.004016
73 0.004987
79 0.005024
85 0.002969
89 0.004002
87 0.004039
86 0.004009
90 0.004024
96 0.005983
104 0.00602
112 0.003986
118 0.003987
124 0.003953
128 0.004991
130 0.004987
140 0.00401
144 0.005017
121 0.005026
80 0.004979
62 0.004988
61 0.006045
65 0.006024
71 0.003989
77 0.005033
79 0.003986
81 0.005984
83 0.005984
82 0.004986
87 0.006016
94 0.003937
102 0.004036
108 0.004022
111 0.006019
117 0.007023
124 0.003952
127 0.004987
131 0.004975
141 0.006017
139 0.006085
87 0.005033
60 0.006004
60 0.005017
67 0.004954
71 0.004964
73 0.005981
75 0.006016
79 0.005021
82 0.004951
81 0.00402
87 0.005984
92 0.005984
98 0.004954
109 0.006016
113 0.004985
119 0.00499
121 0.00499
124 0.006014
131 0.00598
139 0.004999
123 0.004954
84 0.004993
59 0.006018
52 0.006014
59 0.006034
66 0.006983
73 0.006024
77 0.006019
78 0.004984
80 0.007982
79 0.006982
87 0.00703
96 0.004987
104 0.004984
108 0.005022
112 0.005984
116 0.007022
122 0.006983
127 0.006982
137 0.006024
139 0.005986
119 0.006016
80 0.007408
59 0.006972
60 0.00594
68 0.006017
74 0.006016
76 0.006984
83 0.006982
84 0.007016
83 0.006971
83 0.006018
89 0.006023
97 0.00599
105 0.007975
108 0.00798
118 0.006024
123 0.005946
125 0.005984
135 0.006982
143 0.006993
118 0.006982
81 0.006983
60 0.006035
64 0.006025
69 0.00698
75 0.007972
81 0.007959
83 0.00703
82 0.005955
83 0.005974
82 0.007978
89 0.007979
100 0.007014
103 0.006996
112 0.005963
117 0.005986
121 0.00699
127 0.007976
129 0.007968
139 0.006983
121 0.007016
82 0.006993
49 0.007961
51 0.007981
59 0.006945
60 0.007981
66 0.00599
68 0.007005
71 0.006981
76 0.008002
82 0.007948
89 0.006982
97 0.006983
108 0.006981
112 0.007979
121 0.006984
126 0.007982
133 0.007938
137 0.006976
145 0.006975
137 0.006978
94 0.006985
64 0.006979
58 0.006982
63 0.00698
66 0.006979
66 0.00794
75 0.007003
74 0.00795
74 0.00698
72 0.007021
75 0.007014
85 0.006975
90 0.006974
96 0.007013
98 0.006974
106 0.006962
109 0.006979
116 0.006966
119 0.007014
126 0.006947
135 0.00798
129 0.00798
68 0.006979
48 0.007011
45 0.006992
52 0.007016
58 0.006954
57 0.006991
63 0.006973
68 0.006977
67 0.006975
68 0.006982
71 0.006982
81 0.005966
89 0.005994
92 0.006993
99 0.006979
106 0.007013
109 0.007008
112 0.007003
118 0.007014
122 0.006953
133 0.006979
118 0.006017
81 0.006012
54 0.005979
49 0.006012
58 0.005983
64 0.005969
65 0.005984
71 0.006024
76 0.005988
72 0.005978
69 0.005981
78 0.006979
83 0.006974
92 0.006981
99 0.006016
105 0.006013
111 0.005963
117 0.005984
118 0.005983
123 0.006017
133 0.006019
141 0.006017
120 0.006019
62 0.005972
51 0.00598
58 0.005973
64 0.006038
66 0.005956
72 0.006983
75 0.006005
75 0.005988
76 0.005991
80 0.006008
85 0.006018
94 0.006025
106 0.005921
111 0.005984
115 0.00596
120 0.004986
127 0.004975
132 0.005019
134 0.004976
142 0.005026
148 0.006014
129 0.005993
90 0.005986
64 0.006011
64 0.005969
68 0.005975
71 0.005979
71 0.005014
77 0.005025
81 0.004992
79 0.004991
83 0.005018
88 0.004988
95 0.005022
102 0.005021
114 0.005979
121 0.006018
123 0.005046
126 0.005024
134 0.005012
139 0.005017
145 0.005016
152 0.004988
160 0.004987
149 0.004988
107 0.00502
72 0.005027
70 0.004979
76 0.004984
79 0.004979
81 0.005023
85 0.004987
89 0.005042
90 0.004984
93 0.005019
97 0.004987
102 0.00502
107 0.005029
116 0.005024
124 0.004974
129 0.005014
133 0.004999
139 0.00399
146 0.003957
148 0.003956
157 0.005029
163 0.00502
142 0.00502
98 0.004952
78 0.005018
78 0.005021
87 0.003996
89 0.003989
94 0.003933
100 0.003987
96 0.003959
94 0.003956
100 0.004031
101 0.00399
107 0.003961
115 0.003952
122 0.004994
126 0.005022
134 0.003989
139 0.004003
145 0.003957
149 0.003953
154 0.00396
140 0.003961
90 0.003966
70 0.00395
72 0.003985
78 0.003991
87 0.003989
89 0.002992
96 0.00396
96 0.003963
95 0.002989
95 0.003932
99 0.003987
110 0.003991
118 0.00299
122 0.002991
127 0.002984
134 0.002957
137 0.003981
141 0.002993
148 0.002992
149 0.002986
114 0.003035
78 0.003984
67 0.00395
69 0.003953
73 0.00399
76 0.003961
79 0.003955
82 0.004005
83 0.002994
85 0.004049
85 0.002993
92 0.002992
96 0.002967
103 0.002994
108 0.002973
113 0.002974
116 0.004008
125 0.003029
127 0.002939
134 0.00298
136 0.003992
113 0.002998
58 0.003976
54 0.003953
60 0.002997
65 0.003033
67 0.002999
71 0.002996
71 0.003025
71 0.003004
65 0.002977
68 0.002976
76 0.002993
87 0.001995
95 0.002018
98 0.001992
104 0.001999
110 0.001997
113 0.001985
119 0.001991
123 0.002995
94 0.002002
59 0.003024
45 0.003025
50 0.002992
60 0.002996
64 0.002985
67 0.00302
74 0.001932
70 0.001997
68 0.001999
73 0.001995
79 0.001996
87 0.001994
93 0.001994
100 0.002034
105 0.002015
113 0.00203
116 0.003004
120 0.002993
101 0.003025
66 0.001998
44 0.001996
45 0.001993
54 0.00204
55 0.001988
59 0.002026
67 0.002026
65 0.001995
62 0.001
65 0.00204
72 0.002014
84 0.001986
87 0.000963
94 0.002004
99 0.000997
103 0.000996
107 0.001972
113 0.001995
117 0.00196
114 0.001996
55 0.001977
35 0.001977
35 0.00202
39 0.001042
45 0.001988
46 0.001991
52 0.001001
54 0.00099
57 0.001002
57 0.001025
63 0.000989
67 0.001004
77 0.001993
84 0.002009
91 0.002013
94 0.001997
100 0.000944
104 0.001025
110 0.000998
111 0.001025
78 0.000989
47 0.001988
33 0.001045
38 0.000998
43 0.000996
50 0.000998
54 0.001004
58 0.000997
59 0.000986
59 0.001009
60 0.000981
67 0.001
72 0.000148
81 0.0
91 0.000998
92 0.000998
101 0.001004
106 0.001035
113 0.000997
111 0.000998
77 0.001042
48 0.001033
38 0.000984
44 0.000999
51 0.000966
52 0.0
56 0.0
61 0.0
64 0.0
63 0.0
67 0.0
72 0.001015
82 0.000995
88 0.0
93 0.0
100 0.000961
102 0.0
106 0.001005
113 0.0
116 0.0
112 0.0
73 0.0
42 0.001074
36 0.000999
42 0.001041
42 0.0
44 0.0
50 0.0
57 0.0
59 0.0
59 0.0
61 0.0
67 0.0
75 0.0
81 0.0
87 0.0
90 0.0
93 0.0
98 0.0
104 0.000986
107 0.0
116 0.0
106 0.0
47 0.000996
34 0.0
36 0.0
41 0.0
41 0.00096
41 0.0
48 0.001037
49 0.0
48 0.000965
54 0.0
57 0.001993
60 0.000996
71 0.001037
76 0.001034
83 0.000999
85 0.000976
89 0.0
97 0.000997
102 0.0
107 0.001039
107 0.000996
74 0.000988
41 0.002003
35 0.002026
43 0.002046
47 0.001996
52 0.002044
58 0.0
63 0.000996
62 0.0
63 0.001
64 0.001041
74 0.0
81 0.0
83 0.0
88 0.002023
95 0.0
101 0.001
103 0.000998
110 0.0
117 0.0
113 0.0
77 0.002031
49 0.001031
43 0.000998
47 0.0
55 0.0
58 0.000996
66 0.0
67 0.001995
65 0.002025
67 0.001044
73 0.0
78 0.0
86 0.002069
92 0.002039
97 0.0
100 0.0
105 0.0
108 0.001982
110 0.0
85 0.003009
53 0.002026
42 0.0
44 0.000967
49 0.0
54 0.002047
57 0.00302
62 0.0
63 0.0
66 0.0
65 0.002038
76 0.000961
79 0.001996
88 0.002036
91 0.0
96 0.0
98 0.0
105 0.001989
107 0.001986
96 0.000965
62 0.00098
37 0.000945
31 0.002956
43 0.001999
45 0.001995
50 0.001987
52 0.002952
57 0.002
57 0.001991
58 0.001954
61 0.001994
71 0.001997
75 0.0019
79 0.001997
85 0.002969
93 0.000995
95 0.001995
101 0.002993
89 0.000988
55 0.001994
34 0.001989
31 0.003027
36 0.003048
42 0.002009
44 0.002008
50 0.00201
54 0.002026
53 0.001011
60 0.003021
62 0.003031
66 0.002993
76 0.000985
81 0.002005
86 0.001987
90 0.003022
95 0.002994
97 0.001034
85 0.001979
36 0.002005
32 0.000974
37 0.001043
41 0.003026
44 0.002952
52 0.002014
55 0.002055
56 0.000989
57 0.003026
59 0.00399
66 0.000998
76 0.002021
85 0.002049
88 0.00199
93 0.002044
95 0.00399
95 0.004034
65 0.001982
34 0.000998
26 0.00203
35 0.003032
39 0.004121
41 0.001979
48 0.001988
54 0.001964
54 0.000992
52 0.001972
59 0.003991
67 0.00399
73 0.002034
77 0.000999
84 0.001985
86 0.004026
90 0.003986
98 0.002005
88 0.002992
33 0.002989
24 0.002992
29 0.002982
36 0.004985
34 0.004988
44 0.003005
50 0.002996
52 0.002989
52 0.003967
55 0.003992
61 0.002993
66 0.001995
74 0.003029
82 0.002005
85 0.001983
92 0.004023
97 0.005036
105 0.003016
95 0.002995
61 0.002993
35 0.004002
33 0.005029
40 0.003006
43 0.003989
48 0.002986
54 0.002027
58 0.003994
56 0.005017
57 0.005002
67 0.00298
73 0.002992
77 0.002961
87 0.004989
92 0.00499
95 0.002979
100 0.003011
106 0.002998
93 0.002993
58 0.003989
39 0.004952
40 0.004989
52 0.00304
51 0.003024
60 0.002998
64 0.005018
70 0.005045
69 0.004987
70 0.00303
76 0.004993
87 0.003956
91 0.003959
96 0.003001
100 0.004988
105 0.005018
109 0.00396
113 0.003989
111 0.004993
76 0.004987
47 0.004987
43 0.00502
51 0.005027
56 0.003028
59 0.00298
67 0.003952
74 0.005987
72 0.006024
75 0.003965
82 0.003992
88 0.003947
95 0.004989
100 0.004988
109 0.005004
113 0.004987
118 0.00498
123 0.004952
119 0.003973
83 0.005023
60 0.005023
61 0.00399
64 0.004022
68 0.004945
69 0.006031
75 0.006019
82 0.00602
84 0.006017
83 0.003032
88 0.003997
97 0.00399
103 0.005971
106 0.005945
116 0.004929
121 0.004937
123 0.004947
127 0.005932
114 0.006018
63 0.006969
51 0.00599
57 0.004941
61 0.004957
60 0.004953
63 0.00602
66 0.005985
67 0.004986
64 0.005045
70 0.006031
76 0.006983
84 0.007044
94 0.005984
100 0.007021
108 0.004957
110 0.004956
114 0.004953
121 0.007013
102 0.006023
52 0.004955
40 0.004954
41 0.004953
46 0.006007
47 0.005984
52 0.006021
57 0.006996
64 0.005021
64 0.004988
65 0.004948
74 0.007014
81 0.006981
88 0.005012
94 0.004942
100 0.006017
105 0.006019
107 0.005991
115 0.006981
123 0.006982
103 0.006945
57 0.005952
50 0.005954
55 0.005953
60 0.006977
62 0.006951
69 0.004954
72 0.005944
74 0.005987
74 0.007016
76 0.004987
83 0.007013
90 0.00798
98 0.005984
105 0.005952
109 0.005985
112 0.007019
117 0.007983
123 0.005968
124 0.005997
102 0.006981
58 0.007969
55 0.00499
61 0.007016
67 0.007977
70 0.005965
79 0.004986
82 0.00602
82 0.00798
83 0.007981
87 0.005986
88 0.005984
98 0.005954
106 0.007952
115 0.005985
113 0.006982
119 0.00698
129 0.007002
122 0.006949
86 0.006982
57 0.007978
57 0.007972
61 0.007037
66 0.006031
72 0.005982
82 0.006003
83 0.005983
83 0.00798
85 0.007975
90 0.006974
95 0.006981
101 0.006953
108 0.007587
111 0.007974
115 0.006033
118 0.006941
125 0.006981
97 0.006982
63 0.006981
48 0.007979
55 0.007941
60 0.005947
60 0.005951
67 0.005994
74 0.007978
77 0.007982
77 0.005979
82 0.007025
83 0.006986
94 0.006984
97 0.005985
108 0.007014
108 0.006954
117 0.006952
117 0.00698
123 0.00698
97 0.008013
72 0.00798
42 0.00699
44 0.00702
49 0.006982
52 0.006985
60 0.007014
64 0.006983
65 0.007013
67 0.007001
71 0.006947
75 0.006982
82 0.007015
90 0.006981
94 0.007002
99 0.006943
102 0.006969
108 0.006977
110 0.006978
101 0.006978
50 0.00701
35 0.006977
37 0.00698
45 0.006977
47 0.007009
50 0.006978
57 0.00698
58 0.007014
62 0.006929
63 0.006981
70 0.005983
75 0.005984
80 0.006016
88 0.005986
93 0.006976
95 0.006982
104 0.006999
105 0.006979
107 0.006958
89 0.006931
41 0.007012
33 0.006982
36 0.006978
41 0.006015
48 0.005983
52 0.005981
59 0.005991
63 0.005985
63 0.005972
68 0.006967
76 0.006971
87 0.007017
91 0.006984
101 0.006954
109 0.006025
116 0.006015
118 0.005988
124 0.005795
124 0.005983
88 0.005984
58 0.005984
52 0.005978
61 0.006981
72 0.005984
76 0.005986
91 0.006018
95 0.006021
98 0.005938
100 0.006014
103 0.005995
114 0.005958
122 0.006017
128 0.005981
136 0.006014
144 0.006031
148 0.004987
152 0.005026
150 0.005016
118 0.006025
86 0.006019
74 0.006014
82 0.006017
88 0.005974
90 0.005988
97 0.005986
101 0.005027
100 0.004939
98 0.004988
100 0.004985
108 0.004994
113 0.00498
116 0.00499
121 0.004995
123 0.005973
126 0.005969
131 0.005981
136 0.006001
124 0.00498
84 0.00597
56 0.005021
55 0.006018
61 0.00502
61 0.005036
65 0.005017
71 0.00499
74 0.004993
71 0.004985
73 0.00597
78 0.005027
81 0.005021
84 0.004981
90 0.003992
95 0.005979
101 0.005024
104 0.004943
108 0.004983
113 0.004987
99 0.004994
61 0.004986
36 0.005016
33 0.005017
39 0.003955
41 0.004955
43 0.00502
50 0.00408
54 0.003989
50 0.00399
51 0.004021
55 0.003994
61 0.00495
65 0.005033
74 0.004978
78 0.004988
77 0.004973
82 0.004987
88 0.003992
96 0.00399
77 0.003955
33 0.00399
21 0.003989
22 0.003995
25 0.003988
32 0.003989
36 0.003989
40 0.003977
42 0.004025
42 0.00398
42 0.004991
49 0.003991
53 0.004029
64 0.00402
67 0.003988
68 0.003984
75 0.00499
78 0.002996
82 0.003958
88 0.00395
89 0.00399
58 0.003991
24 0.003992
14 0.004022
13 0.004029
22 0.00399
22 0.004036
27 0.004026
29 0.004005
34 0.003978
30 0.003989
35 0.002992
44 0.003025
49 0.002993
51 0.003003
59 0.00399
66 0.004025
72 0.004022
74 0.004033
78 0.004
86 0.004002
85 0.003966
47 0.003959
17 0.00299
7 0.002986
8 0.002998
14 0.00299
14 0.002992
21 0.004035
25 0.004029
28 0.002992
32 0.003927
34 0.002991
39 0.003957
49 0.002991
54 0.002981
58 0.002993
65 0.003026
75 0.002994
77 0.003034
84 0.003026
90 0.002996
97 0.003005
99 0.002978
69 0.002998
30 0.003026
21 0.002984
26 0.003033
27 0.003022
26 0.00302
35 0.002999
41 0.002992
40 0.001995
41 0.002025
47 0.001971
52 0.001994
56 0.002994
65 0.002989
72 0.002988
77 0.002991
84 0.002992
89 0.002991
97 0.002991
101 0.001995
105 0.001995
110 0.001995
77 0.001995
44 0.001959
36 0.001994
41 0.001993
46 0.00299
48 0.001951
57 0.001956
61 0.001029
63 0.000999
63 0.002045
66 0.001995
73 0.001995
83 0.001996
90 0.001997
93 0.001982
100 0.001957
105 0.002026
111 0.001994
118 0.001971
120 0.000964
126 0.002
99 0.00103
69 0.002025
54 0.00203
55 0.001995
61 0.002004
64 0.001929
64 0.001949
69 0.001043
77 0.000954
72 0.00098
73 0.000979
81 0.001007
89 0.001031
95 0.000997
100 0.001001
104 0.002042
110 0.002008
111 0.00204
114 0.001006
118 0.001004
127 0.002004
126 0.000978
108 0.001006
55 0.000998
49 0.001005
55 0.000998
58 0.000997
60 0.002045
65 0.00203
67 0.000994
68 0.001982
67 0.002005
66 0.002031
67 0.002025
75 0.000983
85 0.001044
91 0.001018
94 0.001021
96 0.000998
101 0.000998
107 0.001
109 0.001007
118 0.00103
122 0.002054
110 0.002
63 0.000986
47 0.0
47 0.000997
50 0.000997
50 0.0
51 0.000997
56 0.000997
59 0.001118
59 0.001032
64 0.001
68 0.001004
72 0.0
82 0.0
86 0.0
92 0.0
97 0.0
97 0.0
103 0.0
110 0.0
114 0.001028
110 0.000996
82 0.000963
51 0.0
39 0.000965
45 0.0
49 0.0
53 0.0
56 0.0
59 0.0
62 0.0
60 0.0
64 0.000961
68 0.000984
75 0.0
80 0.0
83 0.0
92 0.0
94 0.0
100 0.0
105 0.000998
110 0.000997
100 0.001009
69 0.00101
37 0.0
32 0.001028
37 0.0
37 0.0
39 0.000971
41 0.000968
46 0.0
46 0.001995
47 0.002035
52 0.0
59 0.0
64 0.0
68 0.002004
74 0.002016
77 0.0
81 0.0
86 0.0
90 0.001998
98 0.0
89 0.00197
54 0.001993
23 0.0
19 0.0
24 0.0
26 0.002027
23 0.002013
31 0.0
33 0.000987
35 0.0
36 0.001996
43 0.0
50 0.001048
54 0.00104
58 0.001032
68 0.000995
73 0.0
75 0.000967
80 0.001995
85 0.002993
93 0.001021
98 0.000991
81 0.000983
31 0.0
22 0.0
27 0.002043
28 0.001992
28 0.0
32 0.0
37 0.0
40 0.002024
42 0.002027
44 0.000961
48 0.0
56 0.0
67 0.000987
72 0.0
76 0.002033
81 0.002026
88 0.0
91 0.0
98 0.000996
103 0.000972
81 0.003037
43 0.00103
37 0.0
39 0.0
44 0.000998
47 0.0
56 0.000998
64 0.001992
65 0.0
63 0.0
68 0.0
73 0.001991
80 0.002028
90 0.0
93 0.000992
99 0.0
104 0.0
111 0.0
115 0.003045
115 0.002033
74 0.000989
50 0.000964
45 0.0
48 0.001996
51 0.001994
56 0.001045
63 0.001038
67 0.0
65 0.0
67 0.0
75 0.00204
80 0.002048
87 0.0
96 0.001994
95 0.000965
97 0.002959
102 0.002944
109 0.000975
112 0.002944
83 0.001995
52 0.001999
43 0.001033
42 0.002004
43 0.001995
46 0.00104
50 0.001043
55 0.001993
60 0.002992
61 0.002992
61 0.001987
68 0.001995
76 0.000965
77 0.001997
95 0.001995
162 0.003023
180 0.002992
169 0.001989
187 0.00201
225 0.001963
244 0.002999
234 0.001955
208 0.002964
185 0.002059
157 0.002993
144 0.001968
137 0.002041
121 0.000997
102 0.002957
86 0.003017
65 0.002013
62 0.00099
62 0.00199
61 0.003026
61 0.00196
69 0.001026
71 0.004023
77 0.001958
80 0.002022
81 0.002033
58 0.003025
25 0.002997
9 0.001995
9 0.002018
11 0.001993
12 0.002995
12 0.00399
23 0.003008
25 0.004022
24 0.001977
29 0.001983
35 0.001982
47 0.004022
51 0.003949
57 0.001994
63 0.001997
65 0.002002
65 0.003989
71 0.004
77 0.002957
64 0.00399
21 0.001963
8 0.001989
10 0.001977
13 0.00399
13 0.004022
22 0.001973
26 0.002031
28 0.001983
29 0.004036
30 0.005023
35 0.002993
45 0.004022
54 0.002009
63 0.002942
65 0.001993
69 0.004023
74 0.00399
83 0.003024
83 0.001988
65 0.002991
38 0.004987
24 0.004029
25 0.002948
33 0.004024
40 0.002025
45 0.002
52 0.002022
50 0.003999
56 0.00399
63 0.002991
70 0.002994
81 0.002992
93 0.00599
97 0.004991
105 0.003003
111 0.003989
125 0.003
130 0.001998
125 0.00203
99 0.004986
74 0.003989
60 0.002997
67 0.002991
70 0.003014
70 0.004997
75 0.004949
85 0.003024
90 0.004997
90 0.004987
95 0.003014
104 0.002027
112 0.004018
120 0.006037
124 0.005025
130 0.003994
135 0.003034
141 0.002987
142 0.004987
153 0.003978
140 0.006048
109 0.004986
80 0.002988
77 0.003997
84 0.002957
85 0.005948
83 0.00598
94 0.003989
98 0.003989
95 0.003993
98 0.005019
101 0.003984
110 0.004987
112 0.004988
120 0.002991
128 0.003998
129 0.00399
130 0.005979
137 0.005981
141 0.003999
144 0.003993
148 0.003941
125 0.005952
74 0.003987
70 0.00502
71 0.004987
74 0.00399
75 0.00399
81 0.003975
83 0.005984
87 0.005984
86 0.003989
91 0.002998
96 0.003003
103 0.005985
112 0.003994
117 0.005749
121 0.005984
129 0.004987
134 0.003958
135 0.004986
139 0.006018
124 0.005984
84 0.004987
78 0.00404
82 0.00499
87 0.005982
97 0.004005
102 0.005946
104 0.00602
104 0.005009
105 0.005004
111 0.004985
117 0.006981
123 0.007026
135 0.004987
142 0.003988
145 0.00399
149 0.005984
157 0.005018
161 0.007
145 0.00598
102 0.004992
95 0.004978
97 0.004947
105 0.006982
109 0.007013
116 0.004943
122 0.004987
126 0.00498
127 0.007014
135 0.004974
143 0.006014
153 0.006007
162 0.004013
167 0.005021
173 0.004981
174 0.006993
175 0.007006
180 0.007015
187 0.004952
185 0.004951
160 0.004956
112 0.00199
114 0.00499
118 0.00701
124 0.007018
136 0.004005
148 0.005995
164 0.005981
180 0.006981
184 0.006982
182 0.005995
174 0.005952
161 0.004947
159 0.005024
157 0.004995
155 0.006979
151 0.006975
157 0.004993
162 0.005986
161 0.005986
163 0.007945
136 0.007981
91 0.005983
81 0.005956
90 0.006966
92 0.004997
94 0.00499
98 0.007012
101 0.006981
104 0.005979
103 0.00598
107 0.005982
117 0.007994
123 0.007975
131 0.00594
139 0.005042
144 0.004943
145 0.005982
148 0.005982
158 0.008005
159 0.00801
154 0.005986
123 0.006985
97 0.006981
87 0.007995
90 0.007972
97 0.005951
99 0.005991
108 0.005987
111 0.006003
106 0.005983
107 0.007993
110 0.00798
120 0.005982
126 0.006978
134 0.006978
137 0.008014
142 0.007983
145 0.006969
152 0.00697
154 0.006014
129 0.005988
99 0.005982
87 0.00798
90 0.007012
96 0.006976
101 0.00698
106 0.00698
114 0.007033
118 0.007007
114 0.006974
116 0.006988
118 0.005966
127 0.006976
133 0.006971
135 0.007977
139 0.007017
145 0.006952
150 0.006979
150 0.006981
113 0.007017
87 0.007015
77 0.006951
81 0.006951
91 0.006977
96 0.006007
98 0.006981
98 0.006996
97 0.007015
92 0.007014
97 0.00698
102 0.006976
102 0.006981
108 0.006986
112 0.007009
115 0.005981
123 0.007021
128 0.004987
114 0.005951
79 0.006963
61 0.006018
59 0.006944
63 0.006982
68 0.006983
73 0.00698
76 0.00602
79 0.005977
81 0.005983
83 0.006017
85 0.006949
91 0.00598
95 0.006974
101 0.006981
104 0.006018
114 0.006973
117 0.006958
124 0.006983
129 0.006969
124 0.006015
91 0.006946
51 0.006026
57 0.005983
70 0.005982
77 0.005985
75 0.006016
83 0.006014
83 0.005976
80 0.005022
78 0.005019
82 0.004983
84 0.005022
94 0.005021
100 0.006017
105 0.005968
106 0.005847
110 0.005982
114 0.005989
120 0.00599
106 0.005997
79 0.00598
58 0.005979
58 0.005985
64 0.005017
72 0.004986
77 0.005022
86 0.004983
85 0.004988
83 0.004985
87 0.006018
94 0.005171
99 0.005953
105 0.00599
113 0.006023
116 0.005981
118 0.006015
122 0.006034
128 0.006015
137 0.005975
127 0.005034
97 0.004988
72 0.005023
65 0.004986
73 0.004987
80 0.005003
82 0.005974
85 0.004986
92 0.004987
96 0.004987
97 0.005
101 0.005021
109 0.00502
117 0.005017
124 0.00499
129 0.005018
132 0.005022
140 0.005018
143 0.004976
145 0.004988
151 0.004992
155 0.005018
131 0.004021
89 0.004022
69 0.003955
74 0.005033
76 0.004511
78 0.00502
84 0.004981
92 0.004023
92 0.004028
94 0.003948
95 0.00402
102 0.003957
106 0.004999
112 0.004977
124 0.004987
126 0.004987
127 0.004987
133 0.003982
138 0.004024
142 0.00399
147 0.004027
156 0.004023
157 0.003951
103 0.003951
79 0.003997
75 0.004021
81 0.004022
83 0.004945
84 0.004989
91 0.005021
95 0.005024
94 0.003992
94 0.003998
98 0.003957
102 0.003999
111 0.004021
116 0.003989
122 0.003924
128 0.004987
127 0.003989
132 0.003988
139 0.004992
143 0.004028
145 0.003027
143 0.004029
109 0.003953
79 0.004032
73 0.003991
76 0.003991
80 0.004048
84 0.003989
91 0.004025
92 0.004987
92 0.003036
91 0.002992
95 0.003025
99 0.003029
106 0.003003
114 0.003005
117 0.003013
121 0.00399
127 0.004038
132 0.004042
138 0.003022
144 0.004023
142 0.004024
114 0.003028
75 0.002992
68 0.002992
70 0.002994
75 0.002992
78 0.004023
84 0.002992
83 0.003023
84 0.004008
86 0.003023
88 0.002992
90 0.003025
101 0.002992
109 0.004006
113 0.004024
119 0.00299
124 0.002961
128 0.002962
133 0.002992
137 0.002992
139 0.002996
121 0.003002
83 0.002992
64 0.003023
59 0.003025
66 0.002026
69 0.003042
67 0.00199
79 0.003042
82 0.003001
84 0.003024
82 0.003026
88 0.003032
95 0.002992
102 0.003026
106 0.003027
115 0.001984
118 0.001995
122 0.001995
130 0.002017
136 0.001995
141 0.001962
142 0.003011
145 0.002992
115 0.003031
72 0.002996
64 0.002996
65 0.002035
68 0.001995
68 0.002029
74 0.001994
77 0.001998
78 0.002045
76 0.001995
79 0.00203
85 0.002025
91 0.002994
99 0.002992
105 0.00303
109 0.001999
114 0.001996
116 0.001996
122 0.001995
128 0.001961
136 0.001963
140 0.002033
125 0.000987
96 0.002031
74 0.001995
72 0.00199
81 0.002027
82 0.00103
84 0.002033
91 0.001995
97 0.00204
95 0.00198
96 0.002015
100 0.001056
110 0.000997
115 0.001004
115 0.000998
120 0.001995
121 0.001995
124 0.002038
131 0.002045
135 0.000997
141 0.000963
149 0.000956
145 0.000964
112 0.002001
86 0.001007
77 0.001965
80 0.001959
86 0.001995
89 0.001997
95 0.000998
100 0.000997
107 0.000997
109 0.001002
111 0.001033
120 0.000998
128 0.000997
133 0.000993
136 0.000998
144 0.00204
151 0.002024
153 0.002023
158 0.001033
165 0.000997
170 0.000997
172 0.000998
177 0.000998
155 0.001004
111 0.000997
98 0.000997
102 0.000997
108 0.000997
108 0.000997
110 0.002025
118 0.0
119 0.0
121 0.0
119 0.0
126 0.001003
132 0.000997
138 0.0
144 0.001037
146 0.0
148 0.0
149 0.0
151 0.0
156 0.0
159 0.0
163 0.000998
169 0.000997
129 0.0
100 0.0
91 0.0
95 0.0
103 0.0
106 0.0
110 0.0
119 0.0
119 0.0
118 0.0
120 0.0
128 0.0
143 0.0
145 0.0
151 0.0
156 0.0
159 0.0
160 0.0
165 0.000997
174 0.000998
176 0.000997
176 0.000997
149 0.0
120 0.0
107 0.000997
112 0.000998
120 0.000997
123 0.002041
128 0.0
134 0.0
131 0.0
129 0.0
131 0.002042
141 0.0
144 0.0
151 0.000991
158 0.0
163 0.0
168 0.001998
173 0.001998
179 0.0
184 0.0
187 0.0
167 0.002027
134 0.002028
107 0.0
105 0.0
108 0.0
113 0.0
118 0.0
120 0.002026
121 0.00203
125 0.0
125 0.000953
126 0.0
133 0.002029
141 0.002035
144 0.0
146 0.0
147 0.0
150 0.0
153 0.0
153 0.000941
158 0.002026
162 0.002042
133 0.0
102 0.0
88 0.0
90 0.001952
96 0.001964
99 0.0
100 0.0
106 0.0
107 0.0
107 0.0
108 0.002031
114 0.001998
118 0.0
125 0.0
132 0.0
134 0.001961
136 0.002029
148 0.0
150 0.001995
157 0.0
156 0.000965
137 0.0
102 0.001028
81 0.001029
81 0.0
89 0.0
91 0.0
94 0.001996
101 0.002025
102 0.0
101 0.002055
103 0.0
108 0.001003
117 0.0
122 0.00203
128 0.002028
135 0.001002
136 0.0
139 0.0
144 0.002025
148 0.001991
150 0.0
137 0.001988
88 0.0
71 0.0
72 0.0
76 0.00199
74 0.001993
78 0.0
81 0.0
80 0.0
82 0.002029
84 0.003023
84 0.001995
92 0.002997
100 0.001998
110 0.0
112 0.001042
117 0.002998
124 0.002992
131 0.0
133 0.002068
143 0.001985
145 0.001998
124 0.002027
80 0.001994
69 0.002027
75 0.001985
76 0.002994
74 0.001996
79 0.002994
84 0.002993
85 0.00298
89 0.001983
93 0.0
97 0.002887
102 0.002992
116 0.00104
119 0.002026
125 0.001996
129 0.002017
132 0.001991
138 0.002992
145 0.003023
150 0.002007
135 0.001991
101 0.001998
78 0.003041
75 0.002993
83 0.001995
86 0.002993
91 0.002992
97 0.001991
99 0.001995
98 0.00103
96 0.003025
99 0.002992
110 0.002039
114 0.001863
120 0.002
124 0.003034
129 0.00399
136 0.003043
143 0.002993
150 0.001993
149 0.001989
117 0.002041
88 0.003013
76 0.003989
83 0.003018
88 0.001996
87 0.00203
92 0.002993
99 0.003025
101 0.003022
101 0.003989
105 0.001994
113 0.001981
120 0.001992
124 0.00399
132 0.003992
138 0.002005
141 0.001981
146 0.002001
155 0.003984
157 0.003988
161 0.004034
126 0.004987
88 0.00198
79 0.001996
79 0.001996
84 0.00399
86 0.00399
88 0.001982
94 0.002
99 0.003014
97 0.005018
103 0.001949
108 0.005034
111 0.004954
121 0.001961
127 0.001982
132 0.002994
139 0.004986
147 0.005003
151 0.002023
156 0.002958
161 0.001995
149 0.00402
91 0.002973
78 0.003989
80 0.004018
84 0.003
82 0.002947
86 0.002977
94 0.004988
96 0.00403
96 0.002
99 0.001994
103 0.002948
106 0.004991
116 0.002946
124 0.004984
132 0.004987
134 0.00298
139 0.001975
147 0.001992
150 0.004986
154 0.004039
145 0.002995
107 0.002997
83 0.002992
79 0.004989
84 0.002994
89 0.00301
94 0.005019
98 0.00502
102 0.003993
100 0.004016
103 0.00299
106 0.00604
114 0.006042
125 0.002987
130 0.003027
134 0.002989
141 0.002997
146 0.003008
148 0.005987
153 0.004989
161 0.003993
143 0.003989
110 0.003988
94 0.006019
95 0.005984
95 0.002959
100 0.002963
105 0.003991
113 0.003991
113 0.003003
112 0.005018
113 0.004963
119 0.003023
126 0.003992
134 0.003956
142 0.006012
147 0.006016
151 0.004992
156 0.005001
160 0.003998
168 0.00499
169 0.003022
148 0.006983
113 0.00602
87 0.004
86 0.003991
89 0.00399
94 0.005986
94 0.006019
100 0.003993
106 0.003988
108 0.003036
111 0.00298
115 0.003968
121 0.007009
131 0.00688
136 0.003977
142 0.00399
147 0.003985
150 0.006981
154 0.005984
161 0.00403
164 0.003998
168 0.003994
175 0.004946
150 0.003976
113 0.007024
95 0.006983
96 0.004991
102 0.004976
99 0.003972
100 0.006979
104 0.007013
108 0.003988
107 0.00402
111 0.00402
115 0.004982
122 0.005
129 0.007013
135 0.007014
140 0.00398
146 0.004985
151 0.003998
153 0.006977
160 0.006943
167 0.004988
171 0.004036
164 0.003986
131 0.003992
105 0.004988
95 0.007982
96 0.007016
107 0.004975
107 0.004986
109 0.004985
116 0.007018
120 0.006979
118 0.007018
118 0.004986
125 0.006982
136 0.006013
142 0.00399
145 0.003975
154 0.007975
156 0.007983
159 0.005981
164 0.004985
170 0.004988
176 0.007012
180 0.007016
161 0.004987
113 0.006983
101 0.004945
105 0.00498
107 0.004981
114 0.00798
119 0.00795
128 0.005983
136 0.005984
140 0.004988
142 0.006981
145 0.007978
157 0.005984
172 0.007944
176 0.005953
181 0.005983
188 0.004991
195 0.007968
199 0.007984
207 0.004977
211 0.004986
216 0.005983
214 0.007978
183 0.007978
148 0.005994
137 0.00798
140 0.005994
144 0.005993
147 0.005989
150 0.007947
156 0.007981
158 0.004985
159 0.005985
161 0.006001
168 0.006984
173 0.006988
179 0.006011
187 0.006982
194 0.005984
198 0.005988
204 0.005999
208 0.007976
214 0.007977
218 0.005988
221 0.006982
208 0.005984
162 0.007012
141 0.006999
134 0.00698
138 0.006973
140 0.006982
144 0.005987
146 0.005995
148 0.006986
147 0.007987
146 0.005982
149 0.00598
158 0.006968
163 0.007014
166 0.007015
174 0.006947
179 0.007021
182 0.006949
185 0.006979
190 0.006979
199 0.006979
200 0.006979
170 0.005972
139 0.006002
124 0.006991
124 0.007025
133 0.007089
140 0.00697
148 0.007012
148 0.006947
149 0.006975
147 0.006984
148 0.007017
155 0.006017
159 0.007029
168 0.00598
171 0.005984
175 0.005985
181 0.006019
185 0.006983
192 0.006979
197 0.006974
202 0.006978
177 0.00698
152 0.006981
115 0.007015
112 0.00601
115 0.006021
116 0.005975
118 0.005981
123 0.006014
126 0.00602
124 0.006012
125 0.006017
135 0.006988
140 0.006983
149 0.00698
159 0.006829
168 0.005985
177 0.005982
184 0.005984
191 0.005989
197 0.006021
208 0.005982
203 0.005959
168 0.004968
129 0.005985
123 0.006983
125 0.005988
126 0.005951
126 0.006038
130 0.005982
136 0.006
134 0.006008
134 0.006017
136 0.00602
142 0.005989
150 0.006012
156 0.006007
164 0.005973
168 0.004985
173 0.005018
173 0.004985
177 0.005982
182 0.005974
186 0.005986
182 0.005983
126 0.006016
108 0.006015
109 0.006016
112 0.004986
114 0.005041
119 0.004989
121 0.005053
119 0.00502
122 0.005991
120 0.004982
122 0.005967
127 0.005985
140 0.005033
146 0.005
152 0.004969
156 0.005003
159 0.004991
161 0.005022
167 0.005021
171 0.004987
148 0.005004
109 0.005001
90 0.004973
86 0.005027
94 0.005025
98 0.00399
100 0.005018
104 0.004988
104 0.005023
104 0.005077
105 0.005019
110 0.005036
119 0.005018
126 0.004985
132 0.004988
138 0.003988
146 0.003956
150 0.004026
158 0.003955
166 0.003991
166 0.003937
132 0.004991
102 0.005028
93 0.005027
91 0.005
97 0.004984
99 0.005036
98 0.004985
107 0.004999
108 0.005022
106 0.004014
111 0.00399
121 0.003989
129 0.003989
134 0.003993
145 0.004026
147 0.005021
155 0.004049
160 0.005025
168 0.004975
171 0.004956
176 0.003982
160 0.004033
124 0.004015
90 0.003946
87 0.00396
92 0.00399
94 0.003989
93 0.003956
99 0.003989
104 0.00399
105 0.003984
105 0.003024
112 0.00399
120 0.002996
125 0.003945
133 0.002968
139 0.002991
143 0.003988
144 0.003024
149 0.00395
158 0.003025
160 0.003024
170 0.004221
170 0.004008
142 0.003985
106 0.003989
88 0.003006
90 0.004033
93 0.003997
94 0.004057
92 0.00403
99 0.003041
102 0.002992
103 0.003022
105 0.004034
109 0.002989
118 0.003027
124 0.003027
129 0.003029
138 0.002992
143 0.003055
145 0.003024
151 0.003029
157 0.00294
163 0.002994
166 0.003991
139 0.00303
106 0.003047
87 0.002998
87 0.002999
94 0.003028
101 0.002992
103 0.003022
108 0.002964
110 0.003023
109 0.002992
110 0.001995
117 0.002027
124 0.002003
137 0.001999
141 0.001994
147 0.001955
151 0.001984
156 0.003007
163 0.003
168 0.002992
176 0.002993
179 0.002993
154 0.00203
107 0.002993
91 0.001945
92 0.00197
94 0.000999
98 0.001999
102 0.001954
106 0.002047
107 0.001924
111 0.001996
111 0.002028
116 0.003013
126 0.002998
135 0.002993
144 0.00198
147 0.001989
154 0.002002
160 0.001991
164 0.001997
170 0.002063
180 0.002036
169 0.001997
132 0.001995
102 0.002027
92 0.002028
95 0.002992
101 0.00196
99 0.001955
106 0.001992
110 0.001996
107 0.002009
107 0.002027
112 0.001974
120 0.001029
125 0.002027
134 0.000997
140 0.001039
146 0.001996
151 0.000994
156 0.000983
164 0.002042
168 0.002015
168 0.002027
151 0.001044
101 0.002043
86 0.001996
87 0.000996
94 0.002001
96 0.000999
100 0.000985
101 0.001001
105 0.002029
100 0.002025
102 0.002037
108 0.00204
115 0.002034
121 0.002032
130 0.00103
136 0.000998
139 0.000997
144 0.000999
152 0.001004
155 0.000955
148 0.001027
111 0.000999
82 0.000997
75 0.002047
83 0.001996
86 0.001996
92 0.001997
99 0.000961
99 0.000999
98 0.001045
96 0.0
101 0.0
110 0.0
116 0.000988
123 0.001004
130 0.001009
135 0.000992
139 0.000998
146 0.001
148 0.000997
153 0.000998
155 0.000998
100 0.00103
76 0.0
67 0.0
71 0.0
76 0.0
75 0.0
81 0.0
83 0.001004
83 0.000994
83 0.000997
88 0.000998
94 0.0
104 0.0
116 0.0
116 0.0
127 0.000997
131 0.0
135 0.001017
139 0.0
146 0.0
148 0.0
119 0.0
81 0.0
63 0.0
61 0.0
62 0.0
62 0.0
72 0.0
72 0.000991
74 0.000999
75 0.001001
78 0.001008
82 0.000995
93 0.000997
99 0.0
104 0.0
113 0.0
118 0.0
122 0.0
126 0.0
131 0.002029
129 0.000964
92 0.000969
59 0.0
53 0.002037
56 0.001989
59 0.00103
61 0.0
72 0.0
71 0.0
72 0.0
71 0.0
77 0.002026
83 0.0
89 0.0
96 0.0
99 0.002024
106 0.002027
110 0.0
117 0.0
114 0.0
80 0.0
52 0.0
39 0.002999
44 0.003028
48 0.0
51 0.0
58 0.0
61 0.002031
56 0.001941
56 0.0
63 0.000965
74 0.000967
79 0.000964
85 0.0
90 0.002935
97 0.002987
102 0.003019
104 0.0
81 0.0
44 0.000977
25 0.003025
21 0.002025
28 0.003011
27 0.003019
34 0.0
39 0.0
37 0.0
39 0.00303
43 0.002033
52 0.0
57 0.0
65 0.0
70 0.003022
75 0.003023
85 0.002963
92 0.001943
69 0.000962
33 0.001
14 0.0
9 0.002989
8 0.003027
10 0.0
12 0.0
17 0.0
21 0.002042
25 0.001992
30 0.002032
36 0.00198
48 0.000969
56 0.000968
62 0.000963
67 0.003004
74 0.003038
84 0.0
90 0.0
90 0.0
62 0.003022
28 0.003023
15 0.002025
20 0.001968
20 0.000979
22 0.000968
28 0.0
32 0.003005
31 0.002992
34 0.0
39 0.000965
52 0.0
61 0.002994
68 0.002961
83 0.003014
88 0.00299
100 0.000986
108 0.000965
111 0.000992
102 0.001995
69 0.001991
37 0.001991
38 0.001993
44 0.001998
42 0.00203
46 0.002993
59 0.003047
61 0.003018
62 0.0
66 0.001031
75 0.000968
88 0.003005
92 0.003029
101 0.003018
109 0.002042
114 0.001012
121 0.002996
128 0.003041
115 0.003046
83 0.003042
59 0.001017
62 0.0
68 0.00103
73 0.003025
78 0.003002
88 0.003004
91 0.003006
91 0.001995
93 0.003003
102 0.00299
117 0.0
127 0.003027
134 0.003992
142 0.0
152 0.000968
155 0.0
163 0.003991
163 0.00399
124 0.001986
92 0.001999
89 0.002997
93 0.003029
94 0.00401
95 0.003028
105 0.004024
114 0.002993
115 0.004003
116 0.003049
122 0.003991
133 0.00399
144 0.00199
153 0.003002
161 0.0
173 0.0
180 0.00095
186 0.00402
174 0.004021
133 0.002
112 0.002985
110 0.002994
114 0.003952
117 0.003989
116 0.003009
124 0.00204
134 0.001993
140 0.002993
140 0.002978
145 0.005024
156 0.005025
167 0.003001
171 0.002996
180 0.003011
188 0.00399
193 0.00402
201 0.002
205 0.003
181 0.003029
129 0.003035
124 0.003022
130 0.004994
132 0.004988
130 0.00302
138 0.001984
149 0.001987
150 0.005018
150 0.005026
155 0.001996
163 0.001994
168 0.003015
176 0.003001
182 0.002977
188 0.004979
196 0.005025
201 0.002004
203 0.002005
180 0.002992
145 0.005019
130 0.004987
138 0.001994
143 0.001995
139 0.002009
150 0.001993
154 0.001994
155 0.004987
155 0.004987
158 0.001986
168 0.002006
171 0.003004
176 0.00502
180 0.004986
187 0.001993
190 0.002039
194 0.001993
148 0.003029
126 0.003007
121 0.006017
129 0.005998
139 0.00296
144 0.003
149 0.004025
152 0.002995
151 0.005046
154 0.005019
158 0.002994
166 0.00397
178 0.003992
184 0.00307
189 0.003029
194 0.005981
197 0.005985
169 0.002957
134 0.003944
122 0.003942
130 0.005984
134 0.005985
140 0.003026
149 0.004
155 0.003975
155 0.002951
155 0.002956
162 0.005986
169 0.006994
174 0.003996
184 0.002966
189 0.003962
195 0.007014
198 0.006017
207 0.002993
187 0.003958
131 0.003991
125 0.003969
131 0.003934
136 0.006026
143 0.005984
150 0.003996
158 0.004025
161 0.003989
160 0.006016
161 0.005987
172 0.00299
177 0.003959
189 0.004016
190 0.003965
196 0.00402
205 0.006984
206 0.006943
212 0.003989
197 0.00399
154 0.00399
130 0.005991
131 0.005988
142 0.003938
148 0.005987
153 0.004977
159 0.003984
163 0.003
163 0.00599
163 0.007027
172 0.004987
178 0.004995
183 0.003956
191 0.006982
198 0.006996
201 0.003989
209 0.006949
215 0.003987
212 0.003948
176 0.004025
144 0.006983
132 0.006951
144 0.004985
148 0.004947
154 0.004949
161 0.006939
167 0.006972
167 0.004992
165 0.006945
171 0.004953
179 0.003952
184 0.003987
187 0.006947
193 0.006947
200 0.004993
200 0.005013
207 0.003026
200 0.006006
162 0.007012
133 0.005003
136 0.007994
145 0.00798
157 0.005003
163 0.004021
169 0.00498
172 0.006984
167 0.006983
169 0.004961
178 0.005968
183 0.00499
191 0.00798
193 0.007962
201 0.00794
206 0.007945
205 0.005981
177 0.005981
140 0.005
134 0.00695
137 0.006987
149 0.00603
152 0.004988
160 0.005984
166 0.007975
164 0.007972
163 0.007979
170 0.007956
172 0.004981
179 0.005997
185 0.005941
191 0.00699
193 0.007979
201 0.00594
201 0.005939
169 0.00597
125 0.007987
118 0.00798
129 0.007933
134 0.00798
141 0.005989
149 0.00599
151 0.006953
147 0.00798
148 0.007979
155 0.005982
159 0.006949
165 0.006006
174 0.006983
179 0.006996
184 0.007016
189 0.007012
190 0.005983
162 0.00598
124 0.004995
104 0.007982
112 0.006966
115 0.00695
125 0.006987
130 0.00695
131 0.006985
132 0.007012
130 0.006979
138 0.00702
144 0.005956
148 0.005956
150 0.00595
162 0.006979
165 0.006982
166 0.006947
174 0.006949
178 0.00698
138 0.007017
91 0.006975
93 0.006948
103 0.007386
108 0.006975
110 0.006953
120 0.006969
119 0.00698
113 0.00698
114 0.006952
122 0.006037
125 0.00601
132 0.006948
140 0.005983
149 0.006014
151 0.005981
157 0.00597
159 0.006024
128 0.005949
90 0.005988
80 0.006978
86 0.006993
94 0.005979
101 0.005983
104 0.006981
108 0.006948
107 0.006014
106 0.006014
105 0.005985
116 0.006017
120 0.00601
128 0.006017
132 0.005981
138 0.005932
143 0.005981
144 0.005941
130 0.006977
75 0.005984
65 0.006014
69 0.006018
77 0.005987
84 0.005993
86 0.005981
88 0.005981
88 0.006014
86 0.005965
91 0.005011
99 0.005981
104 0.005985
114 0.006967
117 0.005981
123 0.005993
129 0.005999
130 0.005986
104 0.004986
67 0.004944
47 0.005072
47 0.004983
55 0.004991
55 0.004988
58 0.004996
63 0.00502
63 0.00502
63 0.004955
68 0.004951
72 0.005016
80 0.004982
86 0.006025
90 0.005982
92 0.006015
99 0.006015
104 0.006003
107 0.00599
96 0.004971
56 0.005016
34 0.005016
26 0.005018
34 0.004988
41 0.004983
43 0.004972
47 0.004965
51 0.005021
51 0.004973
50 0.00598
57 0.005983
67 0.005986
75 0.00499
77 0.004989
83 0.004952
90 0.003956
94 0.003989
97 0.00399
104 0.00505
89 0.004998
39 0.005025
26 0.004986
28 0.005023
37 0.005017
40 0.004981
45 0.004954
49 0.004954
49 0.00495
45 0.004965
49 0.003958
57 0.00399
65 0.00399
71 0.004021
76 0.003988
83 0.003985
90 0.004986
96 0.005013
100 0.004987
79 0.004985
45 0.004985
22 0.004993
26 0.003989
36 0.003926
40 0.003024
46 0.003982
56 0.004027
54 0.003983
55 0.003957
58 0.00402
68 0.004024
75 0.004021
81 0.005022
88 0.003956
95 0.003943
97 0.003999
102 0.003989
108 0.003989
96 0.004025
46 0.004019
29 0.003955
30 0.003974
36 0.004026
38 0.004988
44 0.003983
51 0.00299
52 0.004017
51 0.00403
51 0.004034
58 0.003992
68 0.00399
79 0.003993
84 0.00399
91 0.003993
97 0.003991
101 0.003988
105 0.002992
117 0.00299
104 0.00399
64 0.00302
37 0.003952
34 0.003994
34 0.00402
39 0.003986
43 0.003989
50 0.003034
51 0.002991
51 0.002989
53 0.002982
60 0.002992
65 0.003049
75 0.003024
80 0.002985
89 0.003023
94 0.002992
103 0.003027
113 0.003025
118 0.002959
123 0.002989
106 0.003026
66 0.00402
40 0.004028
43 0.003055
50 0.003025
55 0.003044
56 0.001994
64 0.002043
64 0.003024
66 0.003031
70 0.002029
73 0.003013
83 0.003023
93 0.002996
98 0.003025
104 0.003023
112 0.002993
115 0.003034
117 0.002998
130 0.002992
128 0.001994
96 0.002961
58 0.002991
56 0.002027
61 0.001994
69 0.003047
75 0.003006
85 0.003023
86 0.003014
87 0.001997
87 0.002001
91 0.002016
104 0.00194
114 0.001963
121 0.002012
129 0.002025
134 0.001966
139 0.001997
143 0.000996
153 0.002002
159 0.002947
158 0.002032
130 0.002029
93 0.002008
78 0.001981
80 0.002007
87 0.001956
93 0.001987
97 0.00197
99 0.000984
101 0.001995
104 0.002998
107 0.001029
114 0.002041
124 0.001994
137 0.001994
141 0.001969
147 0.001999
155 0.001998
159 0.001991
162 0.001992
168 0.001029
172 0.002008
136 0.00103
100 0.001005
86 0.001992
90 0.001994
100 0.002024
104 0.001006
106 0.000992
114 0.002013
115 0.00104
115 0.000998
119 0.001961
125 0.000985
133 0.001026
139 0.002029
147 0.001018
150 0.000996
159 0.002053
164 0.001005
168 0.000998
177 0.001994
174 0.000993
140 0.001995
108 0.001987
97 0.001995
102 0.001994
112 0.001994
115 0.002026
120 0.00199
128 0.000991
129 0.001043
128 0.001021
132 0.001775
137 0.000998
146 0.0
154 0.000989
159 0.001031
165 0.002003
169 0.000963
173 0.000989
174 0.0
170 0.0
132 0.000998
106 0.000999
99 0.0
104 0.0
114 0.0
120 0.0
124 0.0
133 0.000998
134 0.0
129 0.0
133 0.00098
144 0.000999
151 0.000986
156 0.000978
159 0.001032
171 0.0
174 0.000999
175 0.0
181 0.0
183 0.0
139 0.0
107 0.0
97 0.0
104 0.0
110 0.0
114 0.0
119 0.0
125 0.0
123 0.0
122 0.0
126 0.0
133 0.0
141 0.0
147 0.0
154 0.0
159 0.0
163 0.000999
167 0.000979
176 0.000967
149 0.001004
107 0.000952
88 0.0
89 0.0
93 0.0
101 0.0
109 0.002024
114 0.0
116 0.0
115 0.001
116 0.0
121 0.0
125 0.000968
134 0.000962
140 0.0
145 0.0
150 0.0
156 0.0
160 0.002988
149 0.000967
95 0.00199
80 0.001013
79 0.001
86 0.0
93 0.002029
104 0.003042
108 0.0
111 0.001009
111 0.000998
107 0.00395
110 0.002986
118 0.003024
123 0.003008
132 0.000994
137 0.0
141 0.0
148 0.001093
138 0.002008
87 0.0
68 0.00101
68 0.0
74 0.002024
78 0.00303
93 0.002255
100 0.003035
100 0.000961
95 0.0
96 0.00097
103 0.003031
106 0.003024
115 0.0
123 0.000953
127 0.0
130 0.001987
138 0.003045
103 0.002027
66 0.002988
46 0.0
51 0.0
56 0.0
60 0.0
64 0.003036
74 0.002985
74 0.0
71 0.000986
74 0.0
79 0.002995
92 0.0
99 0.002991
103 0.003012
111 0.000966
116 0.0
118 0.000964
97 0.001993
58 0.001995
28 0.0
26 0.000949
31 0.00096
40 0.003029
46 0.000968
50 0.003
48 0.002993
51 0.000965
53 0.000955
56 0.000962
66 0.004021
72 0.003017
77 0.0
86 0.000965
94 0.001968
97 0.003028
53 0.000984
19 0.002
10 0.001995
16 0.000999
23 0.000944
29 0.0
38 0.002995
42 0.001964
41 0.000975
41 0.001023
43 0.0
50 0.002993
62 0.001019
67 0.002955
74 0.003035
80 0.0
85 0.000954
65 0.000961
27 0.003025
10 0.002
8 0.001966
13 0.001996
24 0.000959
30 0.003023
40 0.000965
38 0.003033
39 0.002983
40 0.000998
48 0.0
57 0.000999
62 0.003045
68 0.004032
78 0.000993
80 0.0
52 0.000997
19 0.003989
0 0.002984
7 0.00399
14 0.004023
23 0.0
30 0.000964
34 0.0
32 0.003024
31 0.003018
36 0.000957
42 0.000999
52 0.0
66 0.002005
70 0.000986
80 0.0
75 0.004028
35 0.003902
0 0.000964
0 0.000948
0 0.0
1 0.004026
7 0.004022
15 0.001964
20 0.0
19 0.0
23 0.001995
31 0.002989
36 0.003991
44 0.003974
57 0.003042
61 0.0
69 0.0
75 0.004035
57 0.004023
3 0.0
49 0.001998
51 0.003005
55 0.002984
57 0.001962
60 0.00399
65 0.004033
67 0.001955
69 0.00197
73 0.002993
77 0.004024
82 0.005025
87 0.003962
92 0.003002
100 0.001983
103 0.003
105 0.002
97 0.005019
75 0.004958
58 0.002979
59 0.002995
64 0.002995
67 0.004949
69 0.004023
76 0.002992
77 0.001995
77 0.002993
80 0.001995
86 0.002992
92 0.004988
95 0.005018
100 0.003008
105 0.00299
109 0.002992
112 0.005037
115 0.005026
96 0.002999
76 0.003981
69 0.001969
75 0.00302
80 0.002992
84 0.005032
88 0.005046
93 0.004996
93 0.001965
94 0.002978
95 0.004988
100 0.00513
106 0.003005
111 0.003013
117 0.003
122 0.003011
128 0.002995
123 0.00599
104 0.00602
85 0.002961
84 0.002983
87 0.002962
92 0.004986
97 0.005023
102 0.002003
105 0.003032
106 0.001977
95 0.002935
99 0.002989
105 0.00502
116 0.006032
122 0.006025
131 0.003017
138 0.002977
145 0.002976
149 0.006018
137 0.005959
89 0.002997
70 0.007
76 0.001963
82 0.003023
86 0.003992
91 0.006045
100 0.005968
102 0.003019
104 0.002989
109 0.000961
113 0.005976
118 0.005997
131 0.004024
140 0.006016
149 0.002961
152 0.003991
159 0.003968
162 0.005985
136 0.006981
92 0.003975
84 0.004001
85 0.003989
88 0.005997
96 0.005936
106 0.006017
112 0.005981
113 0.00399
113 0.003995
119 0.003004
125 0.006016
131 0.006019
142 0.00398
148 0.003952
154 0.00399
157 0.00698
164 0.00703
168 0.007014
137 0.007015
98 0.003992
91 0.003994
95 0.003972
101 0.005986
104 0.006024
115 0.003992
118 0.004025
118 0.004
117 0.007013
120 0.006994
129 0.006983
136 0.006983
142 0.003997
150 0.004021
155 0.004009
159 0.007021
164 0.006986
163 0.003986
129 0.004991
103 0.004958
96 0.007013
96 0.006968
107 0.006985
111 0.006975
122 0.003989
123 0.003979
121 0.00399
120 0.007017
125 0.007007
133 0.005001
141 0.004988
149 0.004997
155 0.007996
160 0.007865
166 0.007975
160 0.007979
117 0.004983
96 0.004021
91 0.005021
95 0.007981
104 0.007016
108 0.006995
116 0.005023
121 0.005004
119 0.004974
120 0.007981
124 0.004988
132 0.007974
141 0.007975
145 0.004991
153 0.005006
158 0.005022
162 0.007986
165 0.007979
143 0.005989
104 0.004962
86 0.005007
85 0.006983
91 0.004049
96 0.007981
102 0.007965
107 0.005983
111 0.004991
108 0.005018
110 0.007981
113 0.007931
123 0.004943
130 0.004936
136 0.005953
145 0.006975
155 0.005984
161 0.007944
164 0.007977
125 0.005957
94 0.004982
81 0.005018
81 0.007979
90 0.007981
97 0.005022
101 0.004986
107 0.006014
107 0.00701
110 0.005979
114 0.006978
121 0.006974
127 0.005945
127 0.005981
129 0.00595
134 0.007989
136 0.007963
139 0.004979
145 0.005997
123 0.005949
69 0.005985
61 0.005989
70 0.007
79 0.006972
83 0.00593
89 0.005945
96 0.005954
92 0.006981
89 0.006969
94 0.005958
99 0.005
107 0.005985
117 0.005985
126 0.005983
134 0.006984
137 0.006985
140 0.006956
116 0.005986
75 0.005956
48 0.006989
50 0.006979
61 0.006012
67 0.006
78 0.006013
86 0.005984
85 0.00608
86 0.006012
90 0.006013
100 0.006097
103 0.006068
110 0.006077
117 0.006062
124 0.006016
133 0.006015
140 0.005941
130 0.005965
79 0.005914
56 0.005981
52 0.005929
55 0.006991
61 0.00698
68 0.005947
70 0.006014
76 0.006013
74 0.006014
76 0.006016
83 0.006011
93 0.006013
105 0.00598
111 0.005946
117 0.005944
127 0.006984
133 0.006023
137 0.005979
108 0.005985
72 0.006017
53 0.006023
51 0.005988
58 0.005972
63 0.006014
71 0.005981
75 0.005981
77 0.005998
76 0.006016
82 0.005024
90 0.004993
98 0.005984
105 0.006016
114 0.006017
120 0.005983
131 0.006015
136 0.006016
136 0.005985
102 0.005987
67 0.005996
54 0.005971
55 0.004979
61 0.00502
68 0.005017
73 0.004985
80 0.004996
81 0.005032
79 0.006005
81 0.006016
92 0.005992
104 0.005012
111 0.00598
115 0.005026
123 0.005018
131 0.005021
137 0.004986
136 0.006011
109 0.00599
70 0.006012
51 0.005019
56 0.005012
66 0.006095
73 0.005017
80 0.006009
81 0.004957
80 0.004988
79 0.004986
84 0.00496
91 0.004991
100 0.005087
107 0.004977
116 0.005023
124 0.004986
133 0.005028
132 0.00498
99 0.003953
63 0.004977
52 0.003993
55 0.004956
61 0.004971
71 0.004026
80 0.004973
83 0.005016
82 0.005017
