118 0.026928
101 0.003975
84 0.002992
122 0.002993
139 0.003005
144 0.002992
157 0.002036
155 0.003163
151 0.001994
155 0.002992
167 0.000997
172 0.0
178 0.0
183 0.0
158 0.0
99 0.0
71 0.0
89 0.0
101 0.0
102 0.0
107 0.0
108 0.0
100 0.001016
100 0.001
102 0.002997
107 0.003947
109 0.003989
107 0.003989
108 0.003974
68 0.00399
2 0.00397
8 0.004038
27 0.004022
25 0.003989
30 0.004013
44 0.003974
44 0.00505
47 0.005043
52 0.004986
66 0.004906
70 0.005022
70 0.004986
73 0.005021
82 0.006023
72 0.007052
0 0.006951
0 0.007013
10 0.00703
14 0.006981
10 0.007943
15 0.004987
27 0.003994
25 0.003973
32 0.004023
46 0.001017
54 0.001947
62 0.001035
73 0.001
76 0.001034
84 0.000998
89 0.001003
26 0.001035
0 0.001014
16 0.001019
30 0.001032
28 0.000997
40 0.0
45 0.001001
40 0.0
47 0.000997
61 0.0
68 0.0
71 0.002992
79 0.003031
82 0.004926
88 0.004982
96 0.004989
74 0.00499
6 0.006018
13 0.007015
43 0.006982
47 0.006976
53 0.007025
61 0.007028
63 0.007013
64 0.007964
54 0.006908
59 0.007029
74 0.006966
106 0.005984
110 0.00603
117 0.006984
125 0.00595
115 0.004944
42 0.004942
28 0.004955
52 0.00395
61 0.004037
70 0.002992
78 0.001993
85 0.001053
85 0.0
109 0.0
120 0.0
139 0.0
142 0.000997
150 0.000998
163 0.001011
190 0.000998
154 0.001012
108 0.002009
129 0.001977
156 0.001995
164 0.001859
173 0.001995
181 0.002997
190 0.00399
201 0.003989
207 0.005018
220 0.007014
226 0.007952
233 0.006981
226 0.00695
198 0.022886
218 0.002991
162 0.006947
162 0.006015
184 0.005996
182 0.005977
185 0.005983
190 0.005984
187 0.005981
184 0.005986
186 0.005928
201 0.006018
205 0.005984
218 0.004977
227 0.005984
198 0.005113
212 0.003992
142 0.003989
149 0.004001
168 0.003959
167 0.002995
165 0.003001
179 0.002992
186 0.003036
193 0.002003
203 0.00204
214 0.002034
226 0.001994
232 0.001035
236 0.0
236 0.0
226 0.0
148 0.001996
149 0.002993
168 0.003039
171 0.003024
176 0.002992
180 0.002944
180 0.002992
170 0.003025
174 0.00502
178 0.006993
187 0.006981
199 0.006982
201 0.00697
203 0.006964
169 0.005984
103 0.004005
112 0.004991
138 0.003969
141 0.004022
146 0.004023
148 0.003973
143 0.003987
157 0.003025
170 0.003004
173 0.003023
184 0.002992
185 0.003008
186 0.001037
152 0.001991
107 0.001008
113 0.000989
134 0.000962
133 0.001008
143 0.0
156 0.0
157 0.0
158 0.0
161 0.0
170 0.0
178 0.0
187 0.000963
193 0.002961
153 0.003
95 0.003018
101 0.002993
123 0.002992
141 0.005019
155 0.00504
161 0.00703
160 0.007015
163 0.007033
167 0.007027
181 0.007007
186 0.006981
185 0.005982
183 0.006015
187 0.005984
114 0.006126
80 0.006017
94 0.006015
107 0.005999
107 0.00504
116 0.00603
105 0.005003
95 0.005024
87 0.004999
61 0.004036
63 0.003026
83 0.002998
97 0.002993
101 0.003024
35 0.002003
10 0.001024
34 0.002003
67 0.001047
77 0.000998
97 0.000997
105 0.000971
106 0.001004
115 0.0
132 0.001
147 0.0
161 0.0
165 0.0
148 0.0
97 0.000972
58 0.0
83 0.0
100 0.0
112 0.0
120 0.0
131 0.000998
132 0.001038
134 0.000991
142 0.001996
145 0.003016
148 0.00296
155 0.003064
122 0.002992
74 0.002004
101 0.003044
130 0.002024
136 0.012967
141 0.0
68 0.003973
84 0.003009
82 0.001996
95 0.002046
99 0.002124
96 0.002027
101 0.001998
107 0.001022
112 0.000994
121 0.0
127 0.000998
67 0.001993
25 0.001995
38 0.001995
47 0.00199
49 0.002031
56 0.002993
74 0.002917
74 0.002999
73 0.003021
83 0.002992
91 0.003035
92 0.003005
93 0.002992
83 0.002992
5 0.004987
0 0.004988
21 0.005985
19 0.005984
21 0.006027
34 0.005986
40 0.007945
37 0.006981
39 0.007978
50 0.007028
56 0.007924
64 0.006026
66 0.005982
74 0.00502
14 0.00402
0 0.004976
2 0.003058
12 0.001968
10 0.002036
18 0.002026
26 0.002026
23 0.001995
23 0.002028
31 0.001995
48 0.001978
56 0.002027
64 0.001045
69 0.001985
75 0.000998
37 0.001994
57 0.001
64 0.001005
72 0.0
72 0.002033
77 0.003025
81 0.002993
80 0.002992
81 0.004987
87 0.00502
91 0.004987
96 0.005986
100 0.007015
101 0.007979
103 0.007185
69 0.007013
63 0.007027
75 0.007032
79 0.007025
77 0.007015
83 0.006951
82 0.007032
80 0.006036
84 0.006016
89 0.005018
97 0.004962
100 0.004117
100 0.002992
103 0.0
107 0.0
90 0.000996
64 0.001
70 0.000997
78 0.001009
76 0.000998
79 0.002021
86 0.002979
86 0.002962
88 0.002958
93 0.00394
93 0.00396
95 0.006016
92 0.005941
90 0.006008
96 0.005986
98 0.006038
73 0.006031
68 0.007979
84 0.007029
88 0.005018
90 0.005999
98 0.005018
68 0.004987
68 0.002043
83 0.001044
95 0.0
117 0.0
123 0.00096
144 0.0
158 0.0
168 0.0
173 0.000998
103 0.000997
57 0.001995
70 0.001995
92 0.001994
100 0.02992
96 0.0
165 0.005984
177 0.005991
185 0.005986
192 0.006017
186 0.005873
122 0.006033
81 0.006022
106 0.007028
144 0.005965
147 0.006983
158 0.00699
171 0.00705
171 0.007012
179 0.007012
197 0.007178
211 0.006028
226 0.006026
240 0.007024
193 0.005032
195 0.004994
201 0.004987
193 0.004986
147 0.003979
144 0.004036
165 0.004008
178 0.00304
180 0.00403
185 0.001985
183 0.002041
178 0.002026
186 0.000969
192 0.001066
200 0.002037
206 0.001057
207 0.0
211 0.001055
191 0.000998
159 0.000997
151 0.000998
174 0.001996
178 0.003
181 0.002992
182 0.003037
174 0.005037
172 0.007023
178 0.007031
185 0.007027
195 0.006964
199 0.006992
205 0.007031
183 0.005027
149 0.007022
137 0.003996
159 0.004025
162 0.00399
163 0.002929
166 0.003047
172 0.003017
166 0.002997
168 0.003979
168 0.003015
170 0.002991
173 0.002981
175 0.004019
176 0.002051
139 0.00404
110 0.003952
121 0.003034
139 0.002992
138 0.002011
142 0.000997
148 0.0
148 0.000999
150 0.0
156 0.0
160 0.000956
167 0.000997
170 0.0
173 0.000998
169 0.0
133 0.0
110 0.0
123 0.0
138 0.0
138 0.0
144 0.0
146 0.000998
144 0.0
148 0.0
155 0.0
163 0.001995
168 0.002993
171 0.002992
174 0.002994
175 0.004998
125 0.006981
111 0.007979
119 0.007977
141 0.006981
144 0.006979
148 0.00698
149 0.00698
148 0.006975
150 0.007008
152 0.007007
158 0.007007
165 0.006015
167 0.004984
173 0.005918
177 0.005035
153 0.004987
110 0.004984
117 0.00404
139 0.004121
143 0.002998
142 0.004021
159 0.003042
154 0.004021
155 0.00399
165 0.002981
173 0.000997
208 0.0
152 0.0
76 0.0
108 0.001995
126 0.002993
128 0.001859
139 0.002997
142 0.002992
137 0.003032
143 0.002995
161 0.002995
177 0.002992
189 0.002994
200 0.00399
211 0.003991
157 0.004987
99 0.005983
118 0.004956
154 0.004988
159 0.005998
170 0.005948
167 0.005953
159 0.006019
162 0.006027
178 0.005983
182 0.006982
196 0.006933
202 0.006978
170 0.006982
78 0.00703
77 0.007023
123 0.005984
142 0.007029
139 0.006033
147 0.004987
145 0.004019
143 0.004023
149 0.004987
170 0.003032
178 0.00399
187 0.003021
191 0.003989
133 0.002031
67 0.001037
87 0.0
117 0.000997
111 0.000955
119 0.000997
141 0.001051
141 0.001062
139 0.0
149 0.0
161 0.0
177 0.000998
189 0.001995
196 0.001
123 0.001996
69 0.004006
93 0.005027
122 0.005979
127 0.006016
133 0.006985
148 0.006981
154 0.005238
153 0.004988
168 0.002993
184 0.002988
191 0.000997
201 0.0
204 0.000952
209 0.000998
146 0.000998
87 0.000965
94 0.000968
130 0.000997
129 0.001995
134 0.003007
150 0.002971
149 0.00399
147 0.005952
157 0.005953
168 0.005984
182 0.005951
188 0.005838
194 0.005985
201 0.005984
205 0.007032
127 0.006997
72 0.007033
97 0.007012
122 0.006975
123 0.006981
128 0.007025
143 0.006998
143 0.007012
143 0.007013
154 0.007017
168 0.007022
179 0.007965
183 0.00703
193 0.007964
195 0.006026
201 0.007983
175 0.007023
107 0.007018
81 0.005983
122 0.004997
135 0.005996
138 0.005028
147 0.005985
153 0.004922
154 0.005023
158 0.004032
176 0.003041
187 0.002991
192 0.002994
197 0.003001
200 0.003079
206 0.002916
211 0.004023
155 0.002992
97 0.000997
82 0.0
151 0.002992
159 0.002995
155 0.001013
158 0.000999
172 0.0
183 0.000998
195 0.0
200 0.0
203 0.0
210 0.0
220 0.0
216 0.001995
121 0.002004
87 0.001995
115 0.001995
145 0.002123
150 0.002045
158 0.001868
159 0.00303
158 0.004016
169 0.00399
176 0.003991
190 0.004995
195 0.005984
200 0.005994
208 0.006021
215 0.006991
218 0.007975
162 0.006982
87 0.00598
101 0.007015
143 0.006033
151 0.00702
154 0.005032
157 0.003037
155 0.000998
161 0.0
176 0.00098
187 0.000998
198 0.000998
202 0.001993
212 0.0
221 0.0
227 0.0
182 0.0
99 0.0
103 0.0
140 0.0
156 0.002997
166 0.004026
177 0.004988
172 0.004996
168 0.004982
182 0.006033
201 0.005983
207 0.005983
217 0.006018
217 0.006014
227 0.006003
163 0.007025
121 0.006986
105 0.005989
147 0.006101
162 0.005936
168 0.006032
178 0.004989
174 0.004995
168 0.004987
176 0.004037
189 0.004025
207 0.004017
209 0.004054
222 0.003989
214 0.004042
120 0.00399
98 0.003004
124 0.003989
147 0.003033
157 0.004053
167 0.002003
160 0.002019
152 0.001057
162 0.001075
178 0.0
188 0.002029
191 0.001996
194 0.002972
151 0.003997
64 0.004996
76 0.004022
101 0.005025
110 0.004986
116 0.006015
118 0.006018
110 0.005986
108 0.00598
123 0.006023
137 0.007037
148 0.007015
150 0.006014
150 0.005016
112 0.004035
7 0.002982
21 0.002003
43 0.000998
48 0.000997
48 0.000997
59 0.0
64 0.0
56 0.0
64 0.001006
81 0.001005
90 0.001028
98 0.000997
103 0.002055
102 0.002802
23 0.002994
0 0.003989
0 0.004984
0 0.005916
0 0.000961
8 0.0
73 0.004052
84 0.002024
92 0.000992
104 0.000986
93 0.001995
12 0.001029
0 0.001995
20 0.001053
35 0.001995
34 0.000997
47 0.0
57 0.000998
59 0.0
65 0.001004
82 0.000998
103 0.002975
107 0.002976
117 0.002993
124 0.002993
130 0.002963
142 0.002969
133 0.003944
37 0.006031
49 0.006984
70 0.007005
81 0.007006
86 0.007205
98 0.006977
99 0.006984
99 0.006984
108 0.006961
126 0.007956
136 0.007011
146 0.007979
157 0.007015
165 0.007989
174 0.007027
137 0.008014
67 0.007984
67 0.008011
109 0.007015
124 0.006034
127 0.007014
139 0.004981
139 0.003967
141 0.003986
154 0.00405
164 0.003941
178 0.002994
184 0.002042
190 0.001006
198 0.001012
181 0.001044
108 0.0
92 0.000997
132 0.001024
146 0.001006
149 0.000998
155 0.000997
156 0.001034
154 0.000998
161 0.001945
176 0.001995
190 0.001978
193 0.001983
202 0.002029
203 0.002028
207 0.003022
139 0.001966
95 0.002959
120 0.004039
157 0.004976
165 0.005982
171 0.006015
174 0.006038
169 0.005966
181 0.005944
188 0.005982
200 0.006981
210 0.007992
210 0.007011
217 0.007012
224 0.005984
213 0.005986
116 0.006022
107 0.006015
144 0.006027
176 0.005022
179 0.00404
185 0.004022
174 0.003077
174 0.000992
186 0.000989
197 0.001063
208 0.0
215 0.000998
220 0.0
224 0.0
140 0.0
101 0.0
131 0.0
155 0.0
169 0.0
174 0.000953
167 0.003001
157 0.003017
163 0.002992
173 0.00294
188 0.003985
194 0.004023
201 0.00404
208 0.005977
146 0.006031
88 0.006016
97 0.006998
118 0.006997
122 0.006995
128 0.007016
137 0.007035
141 0.007049
137 0.006989
148 0.007033
152 0.006986
158 0.007014
166 0.007972
179 0.006932
180 0.00798
76 0.008
50 0.00798
56 0.007979
73 0.006964
70 0.007967
84 0.007033
95 0.007015
94 0.004938
96 0.005022
104 0.005017
117 0.004997
125 0.003973
126 0.002976
125 0.003041
126 0.003009
40 0.00203
8 0.003026
34 0.00203
45 0.00203
31 0.002044
40 0.001994
54 0.002005
54 0.000982
60 0.0
68 0.00199
75 0.002017
87 0.001964
106 0.002945
113 0.004991
114 0.004985
102 0.007013
43 0.006889
3 0.00699
27 0.007001
32 0.006973
22 0.006982
41 0.006046
50 0.004036
44 0.003974
47 0.003993
65 0.004017
78 0.004972
83 0.003998
84 0.004986
89 0.004023
90 0.004021
105 0.004023
70 0.00402
0 0.00399
15 0.001972
35 0.00299
36 0.001991
54 0.0
64 0.0
60 0.0
60 0.0
72 0.0
89 0.000967
101 0.001015
107 0.000998
113 0.000991
115 0.002008
84 0.002041
19 0.001995
0 0.001992
26 0.002
29 0.001989
33 0.001995
59 0.002961
72 0.00297
67 0.003028
72 0.004049
80 0.003959
89 0.003968
100 0.003971
111 0.003989
118 0.003989
127 0.003991
116 0.003989
54 0.00399
27 0.004003
49 0.004019
63 0.005052
63 0.004998
71 0.004996
86 0.004987
85 0.004987
93 0.005036
111 0.006983
122 0.007965
136 0.007073
145 0.007033
154 0.007015
162 0.006023
177 0.004988
180 0.006003
92 0.005936
68 0.004995
90 0.005016
108 0.005046
106 0.004987
122 0.004024
136 0.003954
138 0.003991
140 0.003989
146 0.003956
162 0.002968
172 0.003026
177 0.002042
185 0.002996
187 0.002992
188 0.002994
197 0.016954
162 0.000967
120 0.00096
95 0.002006
122 0.00295
122 0.002981
132 0.002992
140 0.004023
145 0.004997
148 0.00502
163 0.005015
168 0.005997
183 0.007008
184 0.006034
190 0.005984
195 0.005987
201 0.004994
214 0.004003
158 0.004986
92 0.004023
107 0.002993
147 0.002049
154 0.001986
160 0.001995
169 0.00203
171 0.0
166 0.0
178 0.0
190 0.0
204 0.0
209 0.001004
214 0.001997
215 0.001995
223 0.001965
231 0.001994
191 0.002993
123 0.002975
147 0.002952
164 0.00298
168 0.002969
171 0.002964
173 0.002957
169 0.002994
173 0.002993
189 0.00296
199 0.003997
215 0.004024
219 0.003985
224 0.003995
229 0.004011
218 0.004954
160 0.006032
111 0.006028
133 0.006017
171 0.007014
182 0.006016
191 0.007018
188 0.00598
175 0.005998
179 0.005983
197 0.006015
206 0.006984
222 0.003991
228 0.004037
232 0.002999
238 0.000943
192 0.001994
112 0.000968
112 0.00194
160 0.002005
176 0.001985
179 0.002046
185 0.002047
185 0.002013
182 0.000998
187 0.001996
203 0.0
215 0.00098
227 0.0
231 0.0
233 0.0
226 0.000993
116 0.001996
92 0.001996
135 0.001995
159 0.002963
162 0.002962
167 0.003974
166 0.00503
163 0.005018
172 0.005033
179 0.005032
194 0.006834
205 0.007027
210 0.007023
213 0.006951
207 0.006949
145 0.007015
75 0.006947
76 0.007018
120 0.004981
125 0.005035
124 0.004988
133 0.004992
128 0.004994
130 0.004984
144 0.003995
153 0.00298
165 0.0
172 0.001995
174 0.000993
183 0.0
138 0.0
67 0.0
45 0.0
76 0.0
88 0.0
90 0.001998
98 0.001995
97 0.001994
89 0.002958
93 0.001993
107 0.002992
124 0.002951
134 0.00296
144 0.003007
144 0.002991
146 0.003002
47 0.002982
13 0.003027
46 0.003035
64 0.002992
74 0.004006
85 0.004022
89 0.00401
83 0.004979
88 0.005031
102 0.006017
111 0.007012
121 0.007013
126 0.007016
138 0.007011
147 0.007878
135 0.007941
29 0.005951
12 0.006977
53 0.004985
78 0.003986
79 0.003022
88 0.003001
80 0.002043
74 0.001034
90 0.001031
102 0.0
123 0.0
128 0.000988
132 0.0
136 0.001013
119 0.000997
56 0.000999
32 0.001034
61 0.001014
90 0.000965
92 0.002022
100 0.001965
94 0.001996
95 0.001904
102 0.002026
122 0.002952
134 0.004987
138 0.005022
139 0.004959
150 0.006981
140 0.006974
58 0.00699
26 0.006974
61 0.006964
80 0.006989
76 0.006976
86 0.006968
90 0.006996
81 0.006981
92 0.007978
104 0.005965
120 0.006968
131 0.00599
141 0.006964
145 0.006981
153 0.005984
120 0.005008
30 0.00402
35 0.005112
73 0.001952
68 0.001998
65 0.0
82 0.000997
86 0.000963
86 0.00098
97 0.002992
115 0.003972
123 0.00602
137 0.00602
146 0.006031
149 0.006032
157 0.006016
140 0.006014
37 0.006015
35 0.005875
67 0.007016
74 0.007037
68 0.007013
77 0.007018
92 0.007014
88 0.007015
88 0.006967
99 0.006016
110 0.004984
125 0.002992
142 0.002998
149 0.00202
153 0.001995
160 0.003007
149 0.000997
63 0.001966
37 0.000996
69 0.002007
84 0.001006
80 0.001001
94 0.002014
103 0.0
100 0.001016
104 0.000998
114 0.002004
132 0.002026
147 0.001995
155 0.001996
167 0.00196
175 0.002047
174 0.002064
182 0.002007
148 0.003001
58 0.00194
78 0.002992
99 0.00302
95 0.002964
95 0.002959
106 0.00405
111 0.005022
113 0.004041
125 0.005029
139 0.005036
153 0.005021
163 0.005046
174 0.006005
179 0.007929
187 0.007979
189 0.000962
183 0.001049
85 0.006965
82 0.007978
115 0.00698
129 0.007936
131 0.00598
141 0.00603
133 0.006037
130 0.005187
146 0.004988
161 0.005004
174 0.004969
186 0.004998
191 0.004988
193 0.004959
198 0.004021
200 0.004993
108 0.003987
79 0.003994
108 0.00398
128 0.003993
139 0.003988
145 0.003011
142 0.003989
135 0.003007
136 0.003965
151 0.001999
173 0.0
181 0.000966
187 0.0
197 0.000965
199 0.0
205 0.000967
115 0.001947
75 0.003027
99 0.002935
120 0.002979
125 0.003026
126 0.00403
128 0.005031
125 0.00499
125 0.006984
134 0.005946
149 0.00597
162 0.005988
169 0.005969
180 0.005984
183 0.005018
188 0.005983
127 0.004993
75 0.006011
68 0.004011
98 0.004018
97 0.003983
96 0.004016
101 0.003997
105 0.003988
108 0.003967
112 0.003997
126 0.004019
138 0.005
143 0.002004
149 0.002975
162 0.000998
167 0.0
89 0.00088
40 0.002005
64 0.003957
87 0.00404
89 0.00303
90 0.003991
96 0.004987
98 0.005983
102 0.007031
113 0.005991
126 0.005984
140 0.005979
159 0.005998
164 0.005001
175 0.004026
168 0.006014
86 0.004019
57 0.006152
82 0.003988
110 0.005002
112 0.005023
119 0.003985
124 0.003006
121 0.001987
132 0.003008
153 0.001018
160 0.003031
173 0.001011
187 0.0
194 0.0
169 0.0
93 0.000996
82 0.001
120 0.0
134 0.00107
141 0.002036
156 0.002033
154 0.003007
152 0.002993
167 0.002962
179 0.004029
191 0.00399
198 0.005038
206 0.006022
189 0.006016
106 0.006037
80 0.00604
113 0.00601
120 0.006932
115 0.006046
128 0.006965
128 0.007956
126 0.005969
124 0.007009
141 0.006014
155 0.006022
158 0.005049
165 0.005979
170 0.005004
129 0.004004
52 0.003132
65 0.002962
86 0.002991
82 0.003031
83 0.000998
100 0.002992
99 0.002037
99 0.002001
111 0.002029
127 0.0
142 0.0
151 0.000999
162 0.001953
167 0.002036
149 0.001996
87 0.003013
59 0.002992
82 0.002993
85 0.00302
82 0.003026
96 0.003026
110 0.004046
110 0.00698
118 0.006944
135 0.006975
145 0.004992
155 0.005012
163 0.004984
168 0.005977
172 0.003955
182 0.005043
145 0.004159
88 0.004021
79 0.004032
110 0.001029
109 0.001984
106 0.000988
117 0.001032
128 0.0
129 0.0
136 0.000998
154 0.0
171 0.000999
179 0.001037
190 0.000998
192 0.000997
204 0.001021
210 0.001996
215 0.001985
165 0.00303
103 0.002994
123 0.003026
153 0.00408
153 0.00503
159 0.005024
169 0.00505
166 0.004888
165 0.006017
180 0.006974
189 0.007961
201 0.007958
212 0.006001
215 0.00798
221 0.005979
225 0.006949
232 0.005967
218 0.005996
159 0.005006
123 0.004995
152 0.002958
162 0.002999
161 0.001995
166 0.001994
167 0.00209
168 0.003022
174 0.001975
191 0.004023
205 0.001974
212 0.004028
224 0.001984
227 0.004005
237 0.001961
243 0.001967
229 0.002026
138 0.000933
126 0.002017
164 0.000965
176 0.002054
177 0.001028
185 0.000993
190 0.000933
186 0.000977
191 0.002992
203 0.0
214 0.002989
223 0.001993
232 0.001996
240 0.002075
239 0.001997
245 0.002099
190 0.0
133 0.0
131 0.0
172 0.001995
175 0.003023
173 0.001995
179 0.002995
186 0.002995
182 0.002999
189 0.003052
204 0.003062
216 0.002963
223 0.002994
231 0.002979
232 0.002994
238 0.00399
238 0.0
238 0.0
108 0.005044
129 0.005051
158 0.005034
154 0.005035
159 0.005024
165 0.007038
165 0.006982
163 0.006987
177 0.007018
185 0.007001
194 0.008011
200 0.006969
207 0.007979
212 0.006013
219 0.006024
204 0.006036
101 0.006013
87 0.006008
122 0.005967
138 0.004976
132 0.005989
143 0.006028
146 0.006026
143 0.006023
150 0.007012
162 0.004989
177 0.005007
188 0.004021
196 0.004012
197 0.004029
199 0.004021
203 0.003041
113 0.002019
81 0.000999
104 0.0
140 0.0
140 0.001009
143 0.001873
143 0.002029
139 0.001997
142 0.002022
161 0.002005
166 0.001995
178 0.002994
180 0.004961
187 0.004958
195 0.004957
187 0.005955
92 0.007025
90 0.006981
115 0.006944
133 0.006985
131 0.006959
140 0.006967
134 0.006996
136 0.006959
140 0.006971
156 0.005978
161 0.008013
168 0.005017
173 0.006973
177 0.003941
182 0.003996
188 0.001992
96 0.003006
64 0.004025
89 0.003011
114 0.003035
107 0.003156
112 0.002958
122 0.004988
120 0.002998
120 0.004021
134 0.001989
145 0.002055
157 0.002038
162 0.002025
171 0.001996
176 0.001025
179 0.002043
125 0.001009
65 0.002993
63 0.000947
94 0.000998
98 0.0
94 0.001005
108 0.001963
110 0.002047
112 0.001995
122 0.001996
134 0.001995
145 0.002028
151 0.002039
160 0.003023
164 0.002994
170 0.003006
176 0.002993
113 0.002993
56 0.003029
80 0.002993
100 0.00284
105 0.003024
110 0.003992
115 0.004984
114 0.005025
119 0.00697
125 0.006997
144 0.00698
153 0.00698
166 0.004983
171 0.003989
175 0.004023
182 0.003986
163 0.006033
82 0.003968
61 0.004021
100 0.004037
117 0.004042
117 0.003028
121 0.002992
123 0.000998
116 0.003053
123 0.002993
142 0.001994
154 0.003037
164 0.001013
172 0.00195
174 0.000973
183 0.0
119 0.00102
53 0.000956
60 0.0
95 0.001995
104 0.002994
102 0.004011
104 0.004042
99 0.003961
101 0.004987
109 0.005986
129 0.005896
142 0.00597
150 0.006989
156 0.006959
164 0.007016
164 0.007031
94 0.006016
23 0.002048
35 0.004019
65 0.002013
66 0.000986
70 0.0
79 0.000966
81 0.000949
83 0.000962
94 0.000993
104 0.0
118 0.0
126 0.0
132 0.0
142 0.0
146 0.0
68 0.0
12 0.000999
27 0.002027
55 0.002994
57 0.002847
61 0.002992
67 0.002992
70 0.002964
67 0.002993
80 0.003043
90 0.002993
108 0.002992
114 0.002992
123 0.003024
133 0.002994
139 0.003037
68 0.004038
0 0.004991
15 0.00599
48 0.006975
51 0.006959
55 0.005979
64 0.006008
60 0.005995
59 0.004942
69 0.006026
84 0.003986
97 0.003029
114 0.00304
122 0.004003
130 0.001996
137 0.0
105 0.001004
26 0.001996
23 0.00399
49 0.002993
73 0.004032
78 0.003961
81 0.00402
76 0.004021
76 0.004029
89 0.003975
110 0.003899
124 0.004022
140 0.00396
149 0.004948
157 0.005963
157 0.006966
100 0.006972
34 0.006979
56 0.006969
80 0.00698
100 0.00703
111 0.006031
110 0.007038
105 0.00498
99 0.007028
118 0.004949
143 0.004942
152 0.004002
163 0.004939
173 0.004944
174 0.004961
84 0.00399
43 0.00399
70 0.003985
100 0.004988
112 0.002966
120 0.00502
116 0.003037
110 0.002993
114 0.003025
125 0.003043
147 0.003024
162 0.001995
165 0.002993
174 0.0
79 0.0
37 0.000974
41 0.000998
68 0.0
80 0.002031
84 0.003983
89 0.003987
82 0.004033
82 0.004984
91 0.005973
113 0.005964
127 0.00598
132 0.005992
139 0.006993
103 0.007015
13 0.005989
0 0.007019
18 0.005002
34 0.007015
28 0.007033
36 0.007015
42 0.007037
39 0.007017
46 0.00603
66 0.003032
77 0.00399
93 0.002958
104 0.003012
110 0.000999
23 0.0
0 0.0
0 0.0
14 0.0
7 0.002032
14 0.0
30 0.001966
28 0.0
33 0.0
49 0.001046
59 0.0
76 0.0
86 0.0
98 0.0
101 0.0
40 0.0
50 0.0
55 0.0
67 0.000871
68 0.000998
70 0.000997
78 0.000997
77 0.001995
80 0.002993
87 0.002993
94 0.002994
102 0.002992
110 0.00399
112 0.005028
119 0.004875
115 0.007002
87 0.006994
59 0.007006
76 0.007978
83 0.005985
81 0.006026
86 0.005021
89 0.004988
89 0.005985
93 0.006003
100 0.005053
114 0.00197
117 0.003024
128 0.001993
134 0.001955
138 0.0
131 0.00096
89 0.0
79 0.0
93 0.0
101 0.0
105 0.001995
111 0.002027
109 0.002022
108 0.003986
118 0.003981
124 0.003985
136 0.004994
143 0.007044
147 0.006982
147 0.00698
150 0.007003
145 0.006965
100 0.00698
93 0.006969
112 0.006979
118 0.006967
116 0.006991
125 0.006985
129 0.00799
125 0.006977
136 0.006009
145 0.005017
156 0.003043
166 0.003006
170 0.003034
170 0.004045
180 0.003026
166 0.002025
103 0.001022
98 0.001031
128 0.00103
138 0.00093
140 0.000998
147 0.000997
147 0.000998
146 0.002057
154 0.003003
166 0.002961
172 0.003946
179 0.004072
184 0.005997
188 0.005972
185 0.005996
149 0.00698
113 0.006951
139 0.006979
150 0.006984
154 0.006976
159 0.007981
160 0.004996
157 0.006016
157 0.004989
170 0.006054
186 0.004037
189 0.005061
196 0.00402
196 0.001054
200 0.004024
168 0.001982
132 0.004019
131 0.0
156 0.0
162 0.000997
165 0.0
168 0.000996
166 0.0
168 0.0
177 0.0
186 0.000998
194 0.000973
198 0.000961
203 0.00203
209 0.001994
200 0.002001
138 0.002026
136 0.003043
161 0.004026
175 0.003983
177 0.003988
179 0.003991
178 0.00497
177 0.004982
183 0.004987
196 0.004993
201 0.004976
209 0.004977
211 0.00499
217 0.005032
206 0.00499
164 0.005001
141 0.005102
158 0.005004
182 0.004983
186 0.005984
192 0.005983
191 0.006015
185 0.006017
193 0.005969
204 0.005994
211 0.005975
218 0.005991
223 0.005992
225 0.005977
221 0.00694
180 0.007021
153 0.007026
173 0.004984
190 0.007006
200 0.004993
205 0.005016
199 0.004962
194 0.00599
197 0.004973
239 0.004988
252 0.003006
255 0.002992
255 0.00193
255 0.003995
210 0.001978
150 0.00404
164 0.001991
194 0.002991
210 0.002992
211 0.003027
210 0.002042
204 0.000998
202 0.001036
217 0.00097
228 0.000998
238 0.0
244 0.0
247 0.0
219 0.0
152 0.0
128 0.000941
159 0.0
174 0.0
177 0.000956
184 0.002004
185 0.003957
180 0.004024
186 0.003966
189 0.003997
198 0.006956
210 0.007012
215 0.006941
226 0.007021
206 0.006972
110 0.006977
111 0.006888
136 0.00698
150 0.006981
149 0.007951
156 0.006964
156 0.004977
152 0.00399
157 0.003982
171 0.003998
177 0.003989
188 0.001995
193 0.002963
197 0.000997
186 0.001996
84 0.00202
68 0.002026
96 0.001989
112 0.001996
111 0.002026
120 0.001017
119 0.001996
117 0.0
120 0.001995
129 0.003034
144 0.004003
156 0.003991
161 0.003905
166 0.004014
171 0.003983
135 0.005992
59 0.006004
47 0.005988
76 0.004011
91 0.004003
89 0.003988
100 0.002997
97 0.00501
94 0.003023
100 0.003993
113 0.003025
127 0.003
138 0.002991
146 0.002992
152 0.001995
160 0.001978
125 0.00201
39 0.002029
39 0.002027
77 0.0
92 0.0
97 0.0
102 0.0
96 0.0
97 0.0
114 0.0
125 0.0
140 0.000967
148 0.001031
152 0.000998
159 0.001007
163 0.002019
119 0.000974
39 0.000997
48 0.000998
88 0.000993
101 0.001981
107 0.002966
110 0.003024
102 0.003987
99 0.006005
113 0.007014
138 0.006949
145 0.006971
150 0.006973
158 0.006967
163 0.006973
161 0.006972
129 0.006943
47 0.006982
69 0.004988
92 0.00402
105 0.003986
111 0.003984
115 0.002
107 0.002965
108 0.001984
123 0.002998
143 0.001998
150 0.002002
160 0.002005
170 0.0
174 0.001995
127 0.0
69 0.002012
53 0.0
91 0.0
108 0.0
120 0.0
121 0.000998
115 0.001007
113 0.00102
126 0.000994
146 0.000992
157 0.000988
160 0.001014
166 0.001019
167 0.001039
83 0.002027
54 0.002964
77 0.003045
106 0.002992
110 0.002984
110 0.002959
101 0.00399
91 0.004983
100 0.006031
120 0.007007
131 0.004977
139 0.005985
147 0.004999
152 0.005984
81 0.003981
19 0.00398
28 0.003957
53 0.003987
57 0.004013
60 0.004003
64 0.005984
59 0.004116
57 0.004944
70 0.003989
75 0.003026
86 0.003061
95 0.000998
105 0.001989
63 0.0
6 0.002027
0 0.0
20 0.0
21 0.0
17 0.00098
22 0.0
23 0.0
20 0.0
30 0.001023
50 0.001994
69 0.002992
78 0.002992
86 0.003022
69 0.005023
6 0.003977
0 0.004991
0 0.005972
0 0.006987
0 0.007952
4 0.006988
12 0.007855
8 0.005985
8 0.005975
30 0.005984
43 0.002988
52 0.004002
65 0.001987
79 0.000945
56 0.0
47 0.0
53 0.0
65 0.0
68 0.000964
69 0.000981
74 0.000996
78 0.002007
80 0.00199
89 0.002969
100 0.005052
100 0.009973
112 0.005953
116 0.007976
123 0.004982
127 0.005912
108 0.004983
81 0.003987
78 0.003989
97 0.002002
100 0.002993
102 0.001994
109 0.001998
108 0.001043
111 0.0
117 0.001002
127 0.0
134 0.0
138 0.0
143 0.0
148 0.001007
154 0.0
120 0.000966
101 0.000966
112 0.000949
130 0.000993
131 0.000966
137 0.003035
137 0.002992
132 0.003067
136 0.002994
143 0.003025
151 0.005018
157 0.007013
161 0.006015
164 0.00595
168 0.002992
135 0.002965
109 0.003021
115 0.003027
126 0.003027
133 0.001991
136 0.0
137 0.000997
135 0.000997
136 0.000995
141 0.001985
150 0.002958
158 0.003038
162 0.002993
165 0.002994
170 0.002995
158 0.002992
120 0.002987
110 0.004024
123 0.006013
131 0.006018
131 0.007972
135 0.007979
137 0.00602
135 0.007945
138 0.005984
146 0.004986
151 0.004023
158 0.00299
163 0.003989
166 0.001962
171 0.001001
145 0.000998
117 0.000998
114 0.001995
126 0.002992
130 0.004006
130 0.003027
136 0.003015
138 0.004033
137 0.002992
141 0.002992
149 0.00397
158 0.004018
161 0.00402
166 0.004007
167 0.004026
173 0.004015
145 0.004033
118 0.002957
117 0.004032
129 0.005021
137 0.005024
149 0.004984
156 0.005022
154 0.005018
153 0.00502
164 0.004988
181 0.00602
189 0.006976
203 0.007009
212 0.007015
216 0.007948
228 0.005981
224 0.004999
170 0.005983
119 0.002996
154 0.002046
169 0.0
171 0.0
179 0.0
177 0.0
172 0.0
180 0.003012
193 0.003996
208 0.003994
217 0.003993
226 0.004032
231 0.003893
236 0.003999
208 0.004022
138 0.004986
136 0.004039
170 0.004022
187 0.00399
192 0.004023
194 0.004023
185 0.004044
182 0.005049
192 0.005038
209 0.003987
222 0.004895
227 0.007021
228 0.004963
236 0.004018
231 0.003989
140 0.003989
118 0.002991
140 0.002023
159 0.001994
156 0.002992
163 0.001998
164 0.002998
156 0.0
162 0.002002
179 0.002057
186 0.001983
197 0.002033
203 0.0
207 0.002029
212 0.002004
138 0.001996
92 0.001003
102 0.001996
120 0.004027
123 0.004989
124 0.00502
131 0.005019
131 0.00505
129 0.005021
137 0.004987
152 0.005946
166 0.006965
169 0.006943
175 0.006982
180 0.005953
179 0.007004
85 0.007887
56 0.006016
80 0.007947
92 0.006001
86 0.006018
89 0.005978
96 0.005986
95 0.005037
95 0.002
105 0.002985
120 0.0
126 0.0
133 0.000955
142 0.001001
149 0.001033
158 0.001021
112 0.001006
52 0.000997
37 0.001014
59 0.0
57 0.001996
52 0.001011
65 0.001995
64 0.001969
60 0.003009
67 0.003991
80 0.002971
93 0.00404
100 0.00405
114 0.005012
124 0.005985
125 0.007979
143 0.00497
97 0.0062
41 0.00598
34 0.005982
53 0.004987
61 0.005004
61 0.002966
67 0.002983
69 0.002971
71 0.004986
79 0.003008
97 0.005024
113 0.002984
125 0.004941
134 0.002982
139 0.001993
152 0.001972
161 0.0
119 0.0
59 0.0
73 0.0
97 0.0
112 0.001
116 0.000963
121 0.000962
113 0.000997
118 0.000997
137 0.000953
157 0.000998
167 0.000997
178 0.002036
185 0.002053
194 0.0
206 0.002005
179 0.002038
90 0.000969
86 0.001995
120 0.002058
134 0.001956
135 0.002029
145 0.003991
142 0.004034
139 0.004034
152 0.005982
169 0.005989
180 0.007952
195 0.003987
204 0.003996
208 0.003981
217 0.003025
220 0.003111
142 0.003003
93 0.002991
107 0.00198
132 0.002995
132 0.002993
138 0.002061
145 0.004987
142 0.003006
144 0.005042
159 0.003033
168 0.002028
183 0.000957
191 0.001995
201 0.003007
208 0.0
215 0.002043
207 0.000859
122 0.0
88 0.0
110 0.002028
135 0.002022
134 0.002992
139 0.003036
144 0.002999
142 0.003043
146 0.002993
155 0.002974
174 0.00399
189 0.004987
198 0.004983
209 0.004983
214 0.005064
221 0.005988
196 0.006951
132 0.006982
86 0.006972
110 0.005017
125 0.005031
129 0.003047
138 0.001027
140 0.002992
135 0.002027
145 0.001963
155 0.0
171 0.000991
185 0.001995
195 0.00399
204 0.004988
209 0.005983
217 0.00399
175 0.004009
91 0.003989
92 0.004022
132 0.00395
145 0.005984
147 0.00299
151 0.005
137 0.004029
132 0.004022
145 0.004987
159 0.004986
181 0.003949
193 0.002992
198 0.004039
211 0.0
169 0.0
111 0.0
86 0.0
115 0.001995
129 0.000997
131 0.002082
126 0.00399
119 0.006023
112 0.005966
120 0.005973
142 0.006028
157 0.006023
164 0.005981
172 0.005998
171 0.006982
113 0.007019
28 0.005854
32 0.006001
54 0.007978
54 0.002491
53 0.005961
59 0.001997
53 0.001997
52 0.001973
64 0.0
82 0.002011
91 0.00103
101 0.0
106 0.0
95 0.0
8 0.002057
0 0.0
0 0.001012
0 0.002044
0 0.0
0 0.002039
6 0.003992
2 0.003996
5 0.004005
24 0.00399
36 0.003864
53 0.004036
60 0.004039
75 0.004018
76 0.003998
19 0.003989
0 0.005036
0 0.005025
0 0.004954
0 0.005029
0 0.00502
0 0.005029
0 0.004963
1 0.004978
18 0.006973
32 0.006977
51 0.005971
69 0.007015
76 0.005964
91 0.007951
102 0.006025
80 0.005994
54 0.005034
55 0.003003
64 0.002993
63 0.003994
64 0.002962
74 0.001026
76 0.0
78 0.000999
84 0.001047
97 0.001975
101 0.0
108 0.0
116 0.00199
120 0.00399
126 0.002994
133 0.002995
119 0.002994
78 0.008034
73 0.004025
90 0.004028
89 0.004027
91 0.004005
99 0.003991
100 0.003957
101 0.004043
108 0.004032
114 0.004954
124 0.005985
133 0.006981
137 0.005983
143 0.004982
149 0.00499
154 0.004005
151 0.001035
102 0.001969
93 0.000996
108 0.0
113 0.0
112 0.0
119 0.00203
122 0.0
122 0.00206
127 0.002222
133 0.002032
145 0.002053
149 0.002032
155 0.001044
161 0.0
166 0.0
173 0.0
179 0.0
161 0.0
116 0.0
116 0.0
134 0.001996
136 0.002045
138 0.003025
144 0.003023
144 0.002995
148 0.004987
158 0.005023
164 0.005021
173 0.005987
183 0.007978
186 0.00499
190 0.006032
196 0.00604
201 0.006029
192 0.005022
146 0.003923
144 0.00404
164 0.002017
169 0.0
171 0.001995
176 0.0
174 0.000996
174 0.002021
184 0.001
191 0.0
199 0.002001
202 0.0
207 0.0
210 0.002031
216 0.0
205 0.002028
160 0.004026
160 0.002992
177 0.0
186 0.002995
188 0.00502
190 0.006
185 0.00602
184 0.006015
190 0.006015
197 0.006011
205 0.005964
210 0.006976
212 0.007951
216 0.003991
211 0.00295
182 0.003166
149 0.004045
162 0.002007
171 0.0
171 0.001982
173 0.002986
176 0.000992
172 0.002039
173 0.0
180 0.002028
189 0.003044
194 0.002025
199 0.002043
202 0.0
204 0.000998
178 0.002027
134 0.002896
135 0.002992
149 0.003005
153 0.002985
152 0.002993
155 0.002981
156 0.004022
156 0.002981
158 0.003986
167 0.004023
174 0.00399
177 0.003976
180 0.004021
184 0.003978
174 0.003977
120 0.003985
114 0.00397
131 0.004987
135 0.006954
134 0.006966
137 0.007007
139 0.006983
139 0.008975
138 0.0
144 0.004987
154 0.00703
160 0.005983
162 0.006981
167 0.005999
171 0.00399
154 0.004005
106 0.001994
115 0.000965
122 0.0
124 0.000989
124 0.0
131 0.0
131 0.002037
130 0.0
137 0.001967
149 0.00399
155 0.004987
160 0.004988
163 0.005034
167 0.004987
165 0.005036
118 0.004972
109 0.00497
126 0.005018
134 0.005027
134 0.004986
141 0.004992
141 0.00602
139 0.005998
142 0.00601
153 0.005984
161 0.005983
165 0.005982
169 0.006013
172 0.006028
170 0.005985
133 0.005995
118 0.005997
135 0.006977
145 0.007031
147 0.007006
151 0.006984
150 0.004989
147 0.007029
152 0.004964
159 0.007124
169 0.004994
174 0.004039
176 0.004001
181 0.004017
171 0.00404
126 0.003985
131 0.002959
142 0.002991
157 0.002945
161 0.005066
164 0.003987
162 0.005034
162 0.00204
172 0.004026
187 0.005036
192 0.005037
199 0.004035
202 0.004022
203 0.002992
133 0.0
110 0.002029
130 0.000987
140 0.0
135 0.001013
147 0.0
152 0.0
152 0.000951
156 0.0
162 0.000998
177 0.000998
186 0.000997
189 0.001008
194 0.000967
197 0.000988
143 0.001004
101 0.001971
116 0.000953
134 0.001996
130 0.002054
136 0.001963
150 0.002026
150 0.001977
151 0.001996
162 0.001999
171 0.002015
181 0.001997
185 0.001996
193 0.002003
202 0.002993
206 0.003026
154 0.002992
118 0.004982
137 0.00603
155 0.005975
152 0.005988
160 0.005979
172 0.00698
171 0.005982
170 0.005983
180 0.00801
189 0.00595
201 0.007984
206 0.005984
214 0.00794
217 0.007973
223 0.007971
216 0.007977
184 0.00798
140 0.007014
168 0.004986
182 0.007013
182 0.004953
192 0.003991
193 0.000951
187 0.003981
190 0.002936
204 0.002001
215 0.001993
221 0.002038
226 0.001029
107 0.002015
237 0.0
203 0.002026
148 0.0
158 0.0
185 0.0
190 0.0
193 0.0
197 0.002968
191 0.002947
191 0.00403
200 0.004971
207 0.004999
217 0.004987
222 0.004978
224 0.005984
227 0.005991
185 0.006979
152 0.005968
133 0.00596
149 0.004995
166 0.005003
161 0.00499
168 0.004982
172 0.00499
169 0.006024
175 0.004015
184 0.004987
193 0.003001
200 0.005066
205 0.003971
205 0.002993
206 0.002027
140 0.0
106 0.0
122 0.0
144 0.00095
145 0.0
150 0.0
154 0.0
155 0.0
155 0.001996
158 0.001996
172 0.001995
180 0.001996
187 0.001995
191 0.003946
195 0.004989
195 0.005986
140 0.00603
97 0.006984
112 0.005986
141 0.007979
143 0.007968
146 0.007999
150 0.005949
148 0.007013
146 0.003987
155 0.003991
160 0.003994
171 0.002972
178 0.003989
184 0.003989
188 0.002981
189 0.002991
117 0.002994
94 0.002985
121 0.004014
143 0.002992
145 0.001995
152 0.002992
152 0.003024
147 0.003004
152 0.002992
160 0.002992
173 0.00203
186 0.0
190 0.002027
195 0.0
196 0.002027
129 0.00098
109 0.0
129 0.0
157 0.0
163 0.001014
166 0.0
155 0.0
154 0.000997
163 0.001955
178 0.001996
184 0.003055
192 0.00296
199 0.002996
199 0.003
122 0.002993
101 0.003999
124 0.005985
147 0.006027
153 0.00797
155 0.00798
150 0.007968
142 0.003992
148 0.006013
161 0.003961
169 0.005985
179 0.004146
184 0.003982
185 0.003005
116 0.002993
78 0.002994
91 0.002987
116 0.003
119 0.00299
122 0.003006
127 0.0
123 0.0
123 0.004982
132 0.001981
145 0.005037
156 0.004045
160 0.004156
168 0.004022
154 0.004026
74 0.00399
73 0.0
89 0.002
100 0.0
101 0.0
106 0.0
106 0.0
106 0.0
114 0.0
125 0.000955
133 0.001019
142 0.002032
150 0.00198
152 0.001982
92 0.001995
56 0.002994
68 0.002029
91 0.002992
92 0.002998
98 0.00502
104 0.007007
103 0.006963
102 0.007015
116 0.00695
125 0.007006
135 0.006975
138 0.006975
145 0.007005
151 0.005978
107 0.007988
54 0.005984
72 0.004983
92 0.002998
96 0.00302
104 0.002004
108 0.00201
105 0.002996
105 0.001993
114 0.002983
128 0.00203
133 0.002047
141 0.002001
146 0.0
151 0.0
152 0.0
94 0.0
59 0.0
82 0.0
102 0.000999
108 0.002992
113 0.005028
111 0.006033
105 0.006982
113 0.005993
122 0.006128
139 0.004954
150 0.005022
153 0.003985
160 0.002996
165 0.006013
144 0.003041
84 0.005982
76 0.003012
104 0.004986
124 0.004986
130 0.005021
139 0.004997
136 0.004987
132 0.002992
149 0.001956
161 0.00314
176 0.002029
186 0.0
189 0.0
193 0.0
128 0.0
101 0.0
115 0.0
137 0.001027
151 0.0
161 0.0
161 0.0
152 0.000997
154 0.002003
162 0.003008
177 0.002959
186 0.002994
190 0.002993
195 0.002945
148 0.00296
93 0.003001
98 0.002984
114 0.003948
129 0.004079
135 0.005011
142 0.005984
134 0.005989
129 0.007982
132 0.003989
147 0.00399
155 0.004005
164 0.002993
158 0.003024
107 0.003004
65 0.002992
73 0.001974
95 0.002001
104 0.003041
112 0.001991
114 0.002978
106 0.003024
108 0.002992
119 0.001985
136 0.000987
143 0.001988
149 0.0
110 0.0
53 0.001011
51 0.000997
66 0.000998
83 0.002989
97 0.002992
98 0.004021
85 0.00399
86 0.003978
88 0.011968
96 0.002995
106 0.004022
116 0.005046
98 0.005019
44 0.005017
4 0.004972
19 0.005973
43 0.006017
49 0.006015
58 0.005984
60 0.005933
52 0.006015
55 0.007968
67 0.00798
77 0.00798
95 0.007972
108 0.006158
116 0.007016
110 0.005954
28 0.003986
9 0.003005
37 0.00299
53 0.002989
63 0.00301
75 0.003004
78 0.001966
75 0.001996
78 0.002
88 0.0
100 0.0
116 0.001023
120 0.002052
129 0.003042
134 0.005021
122 0.005042
50 0.004982
33 0.004986
54 0.005019
81 0.005034
88 0.004928
97 0.004985
97 0.004931
99 0.004879
105 0.004977
112 0.00496
128 0.00695
144 0.006007
152 0.00697
156 0.005974
157 0.007978
156 0.006023
103 0.007967
66 0.004958
83 0.007978
118 0.005931
125 0.004995
124 0.004986
117 0.001992
114 0.002993
121 0.001994
137 0.0
143 0.0
160 0.0
165 0.0
169 0.000992
174 0.000997
150 0.001963
98 0.001992
79 0.003025
98 0.002992
135 0.003008
150 0.003024
154 0.002994
149 0.002998
147 0.003956
160 0.005016
175 0.006033
187 0.007955
190 0.007978
197 0.006983
202 0.003019
204 0.003989
134 0.002976
110 0.000994
128 0.0
163 0.0
171 0.0
176 0.0
162 0.0
158 0.0
166 0.001002
182 0.002954
190 0.003029
202 0.002993
210 0.003959
213 0.005027
151 0.005981
123 0.006008
143 0.005951
170 0.006018
186 0.005991
193 0.005982
184 0.005986
178 0.006022
188 0.006017
197 0.006008
207 0.007979
217 0.004972
221 0.006962
223 0.004994
149 0.004967
122 0.004986
137 0.004976
157 0.004995
178 0.005007
185 0.004019
180 0.003993
171 0.003947
178 0.004032
193 0.003984
203 0.005975
207 0.0
220 0.001989
196 0.003982
149 0.002998
130 0.002024
163 0.001009
176 0.002994
187 0.0
184 0.002054
175 0.0
170 0.0
176 0.0
188 0.0
193 0.000987
198 0.002037
200 0.001995
137 0.002028
98 0.003974
105 0.004041
124 0.00499
140 0.004985
147 0.00498
141 0.003932
133 0.006969
135 0.007022
142 0.004997
152 0.005984
161 0.006255
166 0.005994
164 0.005975
119 0.00599
64 0.006001
86 0.002984
101 0.005026
110 0.001991
111 0.002027
107 0.001992
102 0.001993
107 0.002018
120 0.001996
128 0.001999
130 0.0
137 0.000964
103 0.003033
36 0.001035
33 0.003038
59 0.0
73 0.001983
79 0.002014
76 0.001969
68 0.002009
66 0.001963
72 0.002846
87 0.002954
98 0.00404
101 0.005021
111 0.004947
43 0.004994
8 0.004933
20 0.004977
31 0.006988
42 0.005983
43 0.006011
39 0.004986
29 0.005022
35 0.007965
44 0.002993
57 0.005974
65 0.004988
71 0.003058
57 0.00299
4 0.002992
0 0.003142
1 0.002987
10 0.003
12 0.003017
15 0.001983
11 0.0
8 0.0
15 0.0
27 0.0
37 0.0
42 0.0
37 0.0
0 0.0
0 0.0
0 0.002959
0 0.002002
0 0.001996
0 0.001986
0 0.002048
0 0.005018
0 0.003963
0 0.00403
0 0.005019
10 0.005985
16 0.006017
18 0.006045
44 0.006982
13 0.00698
20 0.006017
25 0.006983
23 0.005972
29 0.005
30 0.004004
32 0.003982
34 0.003986
43 0.003001
54 0.002992
60 0.002991
68 0.002008
74 0.003018
80 0.001
63 0.000977
26 0.000985
28 0.00099
39 0.001962
39 0.001015
42 0.000946
48 0.000998
51 0.000866
53 0.010006
63 0.001995
70 0.002028
80 0.004075
88 0.002972
93 0.00399
99 0.003961
103 0.004038
110 0.003991
73 0.004027
60 0.004026
73 0.003007
80 0.004023
79 0.005034
87 0.003989
92 0.005985
96 0.006927
101 0.006981
107 0.004986
115 0.005984
124 0.005036
129 0.004992
135 0.00499
142 0.001998
147 0.004988
154 0.001995
142 0.004017
106 0.001996
117 0.002009
125 0.002024
127 0.001994
130 0.003009
137 0.002993
138 0.001989
140 0.001985
149 0.00202
154 0.002006
161 0.002986
167 0.002992
172 0.0
177 0.002007
181 0.0
183 0.0
174 0.0
144 0.0
142 0.001941
155 0.003989
163 0.003904
164 0.002945
170 0.004054
172 0.005018
172 0.006031
178 0.005984
182 0.005985
187 0.005976
193 0.00598
196 0.006006
200 0.005016
202 0.007007
206 0.004986
202 0.006998
169 0.004991
162 0.005973
177 0.005957
183 0.005984
186 0.005969
187 0.002028
185 0.00399
184 0.002948
187 0.003008
195 0.002017
200 0.003034
201 0.002998
203 0.0
205 0.0
204 0.0
170 0.000966
151 0.00101
155 0.001024
169 0.000968
169 0.002018
170 0.001995
170 0.00302
168 0.004035
169 0.003887
174 0.00502
178 0.005987
183 0.006981
187 0.00596
188 0.004951
191 0.003029
176 0.002009
149 0.002964
135 0.0
150 0.002027
156 0.0
155 0.000955
155 0.0
157 0.001995
154 0.001995
157 0.001995
162 0.000998
168 0.001996
173 0.004988
175 0.005964
177 0.005979
178 0.006982
152 0.005962
119 0.006982
124 0.005982
138 0.008004
140 0.007978
139 0.007978
141 0.007979
140 0.007997
139 0.005984
144 0.001995
149 0.003989
156 0.0
162 0.0
164 0.000945
166 0.000955
159 0.002041
109 0.004054
101 0.004997
121 0.004004
131 0.00399
132 0.004023
137 0.004031
136 0.003991
134 0.003988
136 0.003991
147 0.004955
158 0.005032
164 0.004996
170 0.010971
172 0.0
180 0.0
143 0.005019
105 0.004953
105 0.005059
132 0.004993
137 0.004987
141 0.004943
143 0.007036
141 0.005985
142 0.005001
146 0.004978
160 0.004013
172 0.004018
176 0.004022
183 0.003992
188 0.003962
180 0.003136
126 0.006984
114 0.003979
135 0.005017
155 0.002964
156 0.002992
161 0.001998
155 0.0
155 0.002992
163 0.0
173 0.00105
180 0.0
188 0.003022
195 0.001996
198 0.001995
157 0.002993
122 0.003958
125 0.004982
150 0.005007
157 0.004994
163 0.004985
161 0.005992
156 0.006983
155 0.006976
164 0.006964
172 0.006012
182 0.005036
187 0.000961
189 0.003991
181 0.002024
137 0.003966
104 0.002042
126 0.003029
139 0.002023
141 0.002984
145 0.003004
144 0.000951
141 0.0
144 0.0
154 0.0
163 0.002029
166 0.001045
172 0.001045
177 0.004973
152 0.003941
90 0.004974
95 0.007035
115 0.005967
119 0.005911
121 0.006027
126 0.006999
124 0.006908
124 0.007972
127 0.00698
139 0.004007
143 0.007014
151 0.003025
156 0.002049
158 0.0
111 0.0
70 0.000967
80 0.000988
99 0.001946
101 0.0
103 0.001036
107 0.003019
104 0.0
103 0.002993
112 0.0
120 0.0
128 0.003015
134 0.000998
139 0.001
142 0.001026
101 0.000997
58 0.002049
71 0.002962
86 0.004035
91 0.005029
98 0.005775
99 0.006018
96 0.005991
101 0.005992
108 0.005032
121 0.005993
127 0.005951
135 0.004004
141 0.002946
146 0.003027
113 0.002027
70 0.006013
79 0.002979
100 0.006015
110 0.002978
114 0.00603
116 0.00403
111 0.002968
114 0.004042
127 0.0
133 0.002961
144 0.000992
145 0.003023
152 0.000957
144 0.001994
133 0.018918
105 0.001002
94 0.00104
106 0.002039
111 0.001045
118 0.002993
115 0.000999
112 0.000997
116 0.002026
129 0.002979
139 0.004023
144 0.00404
158 0.002992
165 0.002953
147 0.002977
74 0.004016
53 0.003991
75 0.004047
94 0.004027
94 0.005023
104 0.00399
106 0.004956
102 0.005999
105 0.005036
115 0.006994
131 0.002001
141 0.00306
150 0.00092
156 0.001998
145 0.0
70 0.003036
42 0.001036
64 0.003036
81 0.0
83 0.0
92 0.003036
96 0.003025
93 0.000998
95 0.001997
106 0.002042
119 0.003991
131 0.004946
137 0.005984
146 0.005972
152 0.00601
102 0.006951
43 0.005984
51 0.006951
75 0.004919
82 0.004993
84 0.003953
91 0.001995
90 0.004038
93 0.002083
100 0.005047
116 0.003994
126 0.003025
140 0.003026
145 0.002992
154 0.003952
146 0.001999
91 0.003026
50 0.0
66 0.004023
95 0.000949
101 0.001011
105 0.0
104 0.0
101 0.0
108 0.0
124 0.0
136 0.0
151 0.002064
163 0.002002
168 0.003956
173 0.004994
93 0.004995
75 0.005984
86 0.006978
108 0.006987
113 0.006014
123 0.006958
114 0.006973
107 0.006989
117 0.007987
125 0.006983
140 0.006031
152 0.002964
158 0.006053
167 0.003012
153 0.002973
95 0.001031
59 0.0
92 0.001964
105 0.0
111 0.0
118 0.0
119 0.000997
113 0.003004
123 0.00498
133 0.004987
150 0.005995
159 0.006974
165 0.004991
176 0.007985
169 0.006984
114 0.006015
66 0.00598
91 0.00299
105 0.003028
111 0.001001
116 0.000956
115 0.0
113 0.0
119 0.001016
138 0.0
155 0.0
164 0.0
173 0.000969
178 0.00199
183 0.000998
104 0.000999
65 0.000997
83 0.000997
110 0.002006
113 0.001986
121 0.002005
123 0.001963
119 0.001989
124 0.002057
136 0.00202
149 0.002037
159 0.003004
164 0.002961
172 0.012965
177 0.001949
140 0.003016
67 0.004989
73 0.004992
102 0.005986
116 0.006015
121 0.005951
125 0.006813
123 0.006983
123 0.005986
131 0.006014
143 0.00397
157 0.004
169 0.007013
175 0.003991
184 0.006983
173 0.003957
97 0.006983
74 0.005969
93 0.00502
119 0.003038
129 0.000996
135 0.003064
130 0.001005
128 0.0
134 0.0
153 0.0
170 0.000997
178 0.002031
189 0.001958
197 0.001996
167 0.002993
92 0.002974
90 0.002934
123 0.003
141 0.004034
149 0.004985
149 0.004981
148 0.0
143 0.0
152 0.004981
163 0.005049
180 0.005986
189 0.006944
196 0.007979
168 0.004996
88 0.003994
87 0.003007
116 0.001993
136 0.004054
141 0.00196
142 0.002966
132 0.003051
131 0.000974
145 0.003016
158 0.000956
168 0.0
178 0.0
183 0.0
105 0.0
69 0.0
79 0.00196
101 0.002064
108 0.001995
116 0.003989
117 0.003823
113 0.003962
119 0.004984
131 0.006982
146 0.006976
157 0.006974
167 0.006027
141 0.006949
71 0.006042
58 0.005984
83 0.005985
99 0.005989
102 0.005973
111 0.005953
112 0.005953
111 0.005951
119 0.00701
135 0.00403
148 0.004988
161 0.002993
170 0.003024
128 0.003036
63 0.001011
69 0.003029
95 0.0
99 0.000998
104 0.002028
115 0.002037
115 0.003001
114 0.003023
126 0.002993
138 0.004001
153 0.004986
164 0.004987
172 0.004864
149 0.00498
75 0.004991
78 0.004987
107 0.005986
113 0.007988
112 0.00594
126 0.008001
131 0.005986
131 0.007999
138 0.006017
147 0.005031
165 0.004986
178 0.002997
184 0.004066
194 0.003018
187 0.001042
140 0.000977
104 0.0
123 0.00097
148 0.000964
149 0.000965
154 0.002028
159 0.000964
158 0.000997
164 0.001966
180 0.003963
194 0.003957
202 0.003987
209 0.003936
214 0.003953
222 0.004011
194 0.003961
138 0.003989
142 0.003975
176 0.006027
177 0.001018
185 0.005983
188 0.006976
185 0.006957
185 0.006026
193 0.006986
204 0.006941
214 0.003988
219 0.003993
226 0.003981
233 0.002962
229 0.002992
154 0.002991
138 0.003006
162 0.003046
176 0.002994
175 0.001958
182 0.002993
186 0.003009
182 0.003029
190 0.003009
199 0.0
207 0.001995
215 0.001995
220 0.002028
224 0.002053
231 0.001969
213 0.002006
137 0.002006
142 0.002994
158 0.003955
168 0.004987
171 0.005983
174 0.006068
177 0.005975
176 0.005985
183 0.005984
195 0.00698
200 0.006002
207 0.006018
215 0.006014
218 0.006015
224 0.004013
170 0.002991
129 0.005022
135 0.0
160 0.0
161 0.0
163 0.0
169 0.0
169 0.0
169 0.000997
176 0.001994
193 0.001987
206 0.001995
214 0.001994
219 0.002017
223 0.001992
232 0.001998
180 0.002029
138 0.002017
146 0.001994
174 0.002993
182 0.003834
188 0.003997
193 0.005009
188 0.006975
188 0.006983
197 0.00699
208 0.007005
222 0.002993
227 0.00596
233 0.002992
238 0.003016
235 0.003158
161 0.002982
153 0.001987
173 0.000966
196 0.0
200 0.002022
205 0.0
198 0.0
192 0.0
199 0.0
211 0.002
219 0.001966
224 0.003009
231 0.003022
234 0.003003
192 0.003007
134 0.00296
137 0.002828
166 0.002987
175 0.002992
181 0.003022
182 0.002966
178 0.002992
177 0.003001
182 0.00396
195 0.003952
206 0.003989
209 0.004007
216 0.006036
202 0.00694
148 0.006979
112 0.006937
135 0.007935
149 0.002953
153 0.005025
159 0.004024
160 0.004023
153 0.004023
155 0.004024
168 0.003038
180 0.002983
185 0.003026
193 0.001998
195 0.002972
175 0.0
95 0.0
88 0.001032
98 0.030957
120 0.002994
131 0.000965
137 0.001972
138 0.002988
133 0.002986
140 0.002992
155 0.00399
162 0.00495
171 0.00498
176 0.00496
182 0.005
162 0.00498
93 0.00501
79 0.006919
111 0.00702
125 0.006893
130 0.006991
135 0.006971
134 0.00698
132 0.003987
134 0.004013
150 0.003955
163 0.003043
172 0.002992
183 0.002981
191 0.002954
190 0.003042
128 0.00502
99 0.001999
119 0.004987
148 0.004992
153 0.004986
164 0.004983
162 0.005024
156 0.003977
164 0.00197
175 0.004023
188 0.001985
195 0.00399
199 0.002977
207 0.001984
191 0.0
112 0.0
117 0.0
142 0.0
164 0.0
169 0.0
170 0.000988
158 0.003036
156 0.0
163 0.001999
179 0.002992
187 0.002959
195 0.003959
200 0.003982
200 0.004981
140 0.006993
83 0.006032
96 0.006973
126 0.006983
135 0.005961
140 0.00698
141 0.005981
136 0.007974
134 0.003969
146 0.004997
155 0.002927
166 0.003171
171 0.00399
178 0.002993
163 0.003005
106 0.002003
60 0.002999
79 0.003982
98 0.0
103 0.003989
106 0.003988
108 0.003989
104 0.003
103 0.003024
117 0.003023
129 0.0
140 0.0
147 0.0
154 0.0
156 0.001007
84 0.001994
47 0.002958
57 0.003001
83 0.003973
85 0.00399
89 0.003999
90 0.004986
86 0.004987
91 0.004978
106 0.005984
116 0.005975
126 0.00598
132 0.005984
136 0.006029
143 0.006982
132 0.003
61 0.003994
36 0.003993
54 0.003991
81 0.003989
86 0.002981
93 0.003983
90 0.002989
88 0.002959
95 0.002031
113 0.0
121 0.003043
134 0.002997
144 0.000955
148 0.000969
157 0.0
135 0.0
61 0.000999
63 0.001981
87 0.001005
111 0.001003
122 0.001017
124 0.002028
113 0.000998
111 0.000997
126 0.003995
141 0.004986
153 0.005016
164 0.005992
171 0.007976
176 0.00698
180 0.007984
120 0.012994
79 0.003004
97 0.003974
129 0.002998
134 0.002995
142 0.002993
131 0.002991
128 0.0
138 0.001023
148 0.0
162 0.0
168 0.002998
176 0.002989
180 0.0
181 0.001989
121 0.001963
73 0.002987
91 0.002983
109 0.003963
123 0.004039
129 0.00394
130 0.005992
124 0.006003
126 0.004992
137 0.003997
151 0.004021
163 0.002992
166 0.003031
172 0.002992
175 0.002989
173 0.002002
108 0.003984
63 0.001965
75 0.003989
101 0.002992
104 0.002992
107 0.002992
111 0.002993
109 0.002992
110 0.000997
121 0.003038
137 0.001009
145 0.001966
152 0.000994
158 0.000993
160 0.001949
167 0.001854
119 0.002972
68 0.002991
61 0.002984
90 0.002991
98 0.00399
103 0.003987
106 0.003989
105 0.003998
105 0.003762
111 0.002992
126 0.00493
136 0.005948
144 0.006012
153 0.005948
158 0.007009
159 0.007032
162 0.005957
81 0.002957
53 0.004022
72 0.002999
90 0.003974
103 0.003
109 0.00296
107 0.002998
99 0.000964
105 0.0
112 0.0
130 0.0
138 0.0
146 0.0
155 0.0
159 0.0
168 0.0
110 0.000965
63 0.000967
61 0.001026
82 0.000997
105 0.001998
113 0.001994
113 0.001995
101 0.003036
97 0.003992
104 0.004019
123 0.004995
138 0.004956
147 0.004987
155 0.005984
158 0.004966
162 0.00498
115 0.002986
51 0.002991
57 0.0
89 0.000998
102 0.002997
109 0.0
105 0.001006
91 0.001957
92 0.003025
110 0.002999
123 0.00402
132 0.004969
140 0.003967
145 0.004021
154 0.004978
105 0.003957
52 0.003948
46 0.006009
71 0.00598
82 0.007971
91 0.005002
93 0.007981
86 0.00498
82 0.004987
90 0.004993
107 0.005028
123 0.004012
130 0.004983
140 0.002996
146 0.003981
130 0.0
56 0.002958
38 0.001008
58 0.00102
77 0.000807
83 0.001031
89 0.000971
92 0.001989
90 0.014994
88 0.000969
108 0.002003
123 0.002023
138 0.002001
143 0.002016
150 0.001983
157 0.002023
148 0.001994
63 0.002026
47 0.002002
73 0.002011
93 0.003001
92 0.004987
102 0.005984
106 0.007016
103 0.004987
103 0.007471
116 0.007007
126 0.006981
140 0.006954
151 0.00305
157 0.00595
163 0.00299
166 0.005977
130 0.002993
63 0.002996
69 0.002987
105 0.001977
116 0.002999
118 0.002994
123 0.001994
122 0.002987
124 0.002992
135 0.002986
146 0.000974
158 0.003036
167 0.003025
171 0.003027
179 0.002993
186 0.002052
190 0.00194
184 0.002014
119 0.001046
94 0.002011
129 0.001995
147 0.002
155 0.002003
158 0.003025
155 0.002038
151 0.004993
158 0.00598
169 0.005959
186 0.005956
193 0.005986
202 0.005985
208 0.005949
211 0.005985
218 0.006014
223 0.005011
167 0.004985
125 0.002973
144 0.002995
164 0.003009
183 0.0
192 0.0
185 0.0
175 0.0
177 0.002038
185 0.002005
200 0.003992
211 0.006851
214 0.006965
219 0.004983
222 0.00397
223 0.004002
226 0.004009
186 0.003991
120 0.004004
131 0.002992
153 0.00299
168 0.00297
174 0.004024
172 0.001011
164 0.0
164 0.0
169 0.0
185 0.000986
193 0.000998
199 0.001989
205 0.0
204 0.0
207 0.001991
210 0.002025
173 0.002029
99 0.001951
100 0.002003
130 0.003019
146 0.003991
148 0.003928
150 0.003949
142 0.004987
140 0.005983
146 0.005983
162 0.00398
172 0.004001
180 0.004039
183 0.007026
185 0.003999
189 0.006971
192 0.002968
