119 0.035906
119 0.005971
127 0.006026
136 0.005985
150 0.005988
156 0.006013
163 0.005951
167 0.005956
146 0.005981
70 0.005947
60 0.007977
72 0.006929
98 0.007012
117 0.007017
140 0.006999
141 0.006981
129 0.005983
120 0.003951
125 0.00299
134 0.002986
148 0.0
158 0.001992
166 0.003928
169 0.003949
144 0.00399
72 0.00598
64 0.005985
85 0.005972
106 0.005985
138 0.006953
149 0.006981
145 0.006981
131 0.006956
127 0.007015
131 0.007014
145 0.006977
152 0.006973
162 0.006983
169 0.005979
172 0.006981
138 0.00594
72 0.003989
68 0.003984
91 0.003999
112 0.004031
138 0.004001
152 0.003007
148 0.002992
132 0.002984
130 0.001995
136 0.000959
150 0.001048
161 0.0
165 0.000997
170 0.001014
164 0.001013
86 0.000998
66 0.001998
78 0.002981
104 0.002958
136 0.00296
147 0.002993
144 0.002959
133 0.003957
124 0.004942
133 0.004951
141 0.00499
153 0.004944
161 0.004962
165 0.004987
125 0.004822
79 0.004953
61 0.005952
77 0.007972
89 0.007963
122 0.007948
135 0.00798
131 0.007949
117 0.007949
116 0.007979
124 0.007975
136 0.00701
146 0.007932
154 0.005018
159 0.004975
151 0.005948
102 0.0
72 0.004986
97 0.004986
108 0.005036
121 0.003994
117 0.00399
112 0.003987
111 0.004029
115 0.004152
128 0.004059
141 0.00402
147 0.00399
156 0.004029
156 0.003034
89 0.000998
61 0.0
66 0.0
85 0.0
105 0.0
115 0.0
120 0.0
114 0.0
112 0.0
117 0.0
124 0.000998
137 0.001956
148 0.002995
153 0.00399
160 0.00399
143 0.005984
97 0.005984
66 0.007036
71 0.007024
86 0.006981
110 0.006981
126 0.006947
129 0.006982
121 0.005983
117 0.004029
120 0.004035
131 0.002992
137 0.003987
151 0.000997
160 0.001044
164 0.001049
168 0.001
130 0.001959
81 0.000998
73 0.002038
89 0.000998
112 0.001994
137 0.0
144 0.001023
137 0.001001
127 0.000999
126 0.000998
133 0.001007
145 0.000998
155 0.000999
165 0.000999
169 0.001002
175 0.0
176 0.000997
113 0.000998
75 0.001996
79 0.001995
108 0.002995
139 0.004028
152 0.004026
151 0.004044
142 0.003991
131 0.00399
137 0.003991
145 0.00399
158 0.00399
166 0.005986
172 0.006006
176 0.005985
157 0.00702
120 0.007979
75 0.007979
77 0.007979
104 0.006952
130 0.006844
150 0.006173
152 0.004952
137 0.005033
130 0.004987
134 0.003991
142 0.00399
155 0.003041
163 0.002992
168 0.001995
172 0.003042
141 0.002992
90 0.001996
68 0.000998
82 0.001012
108 0.002052
138 0.000999
148 0.001037
143 0.000998
129 0.000986
125 0.001005
133 0.0
142 0.0
154 0.0
163 0.0
167 0.0
170 0.001013
137 0.0
70 0.0
66 0.000998
84 0.0
110 0.000998
137 0.0
143 0.000998
133 0.001995
124 0.001995
120 0.001995
128 0.001995
133 0.013962
144 0.000997
154 0.0
113 0.001993
129 0.002994
138 0.002994
125 0.003032
118 0.002915
119 0.002992
125 0.002992
139 0.004975
151 0.004986
157 0.00606
162 0.007023
164 0.008021
115 0.00703
69 0.007979
71 0.007986
87 0.007968
110 0.00598
132 0.005031
135 0.005015
123 0.00397
116 0.005035
117 0.005031
128 0.004007
136 0.003015
148 0.002025
156 0.002025
160 0.000998
160 0.0
88 0.001005
68 0.001995
71 0.003955
93 0.00499
115 0.006019
133 0.007978
135 0.007072
127 0.007019
117 0.007027
120 0.005984
127 0.005984
141 0.004007
150 0.00404
155 0.003957
163 0.003991
166 0.003979
124 0.004021
68 0.003028
70 0.002976
96 0.001039
120 0.001995
138 0.001016
141 0.001031
128 0.0
121 0.0
125 0.0
132 0.0
146 0.0
156 0.000998
163 0.000996
169 0.001007
172 0.001003
137 0.000957
76 0.003007
71 0.002993
92 0.005016
124 0.005984
147 0.005987
149 0.006969
135 0.00698
127 0.006981
128 0.007945
137 0.007796
143 0.007943
155 0.007978
163 0.006004
168 0.006024
169 0.005561
130 0.00602
73 0.005026
77 0.005023
93 0.005021
117 0.005039
138 0.005017
144 0.003134
132 0.003032
123 0.001003
126 0.0
136 0.0
144 0.0
155 0.000998
163 0.000998
167 0.001001
149 0.000964
98 0.000983
66 0.002991
80 0.002988
98 0.003005
124 0.002995
137 0.003023
135 0.003023
124 0.003001
119 0.002987
123 0.002889
136 0.00395
144 0.003998
155 0.004991
163 0.004984
167 0.005019
147 0.005027
75 0.006984
65 0.006981
80 0.006991
97 0.006988
122 0.007061
136 0.006941
133 0.007024
121 0.006985
119 0.00698
123 0.007943
132 0.006974
142 0.00599
147 0.000963
151 0.0
102 0.0
118 0.0
136 0.0
136 0.0
124 0.0
119 0.001003
123 0.000997
134 0.002953
146 0.00399
153 0.003992
162 0.005025
166 0.00499
133 0.005002
81 0.005033
70 0.005026
84 0.005023
112 0.004984
127 0.004993
141 0.005029
132 0.005998
125 0.007058
124 0.007798
128 0.007978
143 0.007969
152 0.007011
158 0.006989
167 0.006981
168 0.00503
150 0.005028
82 0.004979
75 0.004987
88 0.00502
118 0.004985
138 0.004003
146 0.004987
135 0.00499
128 0.004987
128 0.004972
133 0.004988
146 0.005024
158 0.003998
164 0.004025
171 0.002025
163 0.001998
116 0.0
75 0.0
86 0.0
103 0.000967
134 0.000885
147 0.000998
147 0.000997
133 0.000949
129 0.000958
135 0.000878
147 0.002987
154 0.003023
162 0.004994
169 0.005787
168 0.006981
98 0.006975
75 0.00698
77 0.006982
105 0.006998
122 0.007029
143 0.006983
138 0.007023
131 0.006985
122 0.006015
125 0.00602
133 0.005988
146 0.006023
153 0.006015
163 0.004988
162 0.005947
121 0.003994
69 0.004029
68 0.003034
87 0.003975
113 0.004031
126 0.00399
131 0.00399
120 0.003033
116 0.00399
120 0.001038
127 0.001995
140 0.000996
149 0.000999
155 0.000997
162 0.000993
103 0.0
73 0.0
68 0.0
81 0.0
106 0.0
122 0.000997
129 0.0
123 0.001029
115 0.001002
116 0.000998
125 0.001994
135 0.003985
145 0.004021
154 0.004022
161 0.003989
163 0.004023
99 0.005036
74 0.007022
70 0.007978
87 0.005978
108 0.004987
125 0.00402
133 0.001995
127 0.002034
119 0.001992
124 0.002035
131 0.002025
141 0.002008
152 0.0
158 0.0
166 0.0
166 0.0
101 0.001989
73 0.001852
77 0.001995
99 0.001976
127 0.001995
141 0.001996
141 0.045876
145 0.000957
126 0.0
138 0.00503
151 0.005003
162 0.005031
168 0.005029
174 0.004836
168 0.005019
94 0.007014
74 0.005984
85 0.005973
109 0.002995
135 0.003999
154 0.00399
152 0.003029
138 0.002978
133 0.002978
137 0.003033
149 0.001981
156 0.001
164 0.000998
172 0.000998
175 0.001995
158 0.001798
83 0.002028
74 0.001982
91 0.002029
111 0.001995
142 0.001995
156 0.001997
151 0.002993
135 0.001952
132 0.002987
138 0.002992
151 0.003021
157 0.002959
165 0.004033
170 0.002992
166 0.00403
100 0.004031
69 0.004032
73 0.004031
102 0.003991
120 0.004025
143 0.005003
140 0.007046
130 0.007016
122 0.007011
126 0.006008
133 0.005971
146 0.004028
152 0.004032
161 0.003999
164 0.004983
126 0.004033
72 0.003988
63 0.002992
75 0.002992
103 0.003002
123 0.000995
128 0.000968
121 0.001996
111 0.002011
112 0.001993
121 0.002993
134 0.003989
141 0.004987
151 0.005837
157 0.006991
155 0.007026
87 0.005027
61 0.003979
66 0.003979
90 0.004014
102 0.004019
118 0.002997
119 0.004032
113 0.003039
110 0.002992
115 0.001965
121 0.001967
133 0.001995
142 0.0
150 0.0
155 0.003031
133 0.002996
90 0.003034
66 0.003965
80 0.005937
96 0.006979
113 0.007021
125 0.007011
124 0.00712
116 0.005029
115 0.004021
120 0.003998
131 0.004029
139 0.004024
147 0.003989
157 0.003002
162 0.002987
156 0.002992
89 0.001987
72 0.002996
80 0.002029
96 0.00204
121 0.0
137 0.0
135 0.0
124 0.0
121 0.000997
125 0.0
136 0.000967
144 0.001013
155 0.001961
164 0.001995
169 0.001964
165 0.00196
95 0.001967
77 0.001995
83 0.00288
99 0.002973
127 0.004955
143 0.004945
142 0.004987
129 0.005955
122 0.00797
124 0.006982
134 0.005982
146 0.003
152 0.003989
161 0.002974
163 0.035904
167 0.000998
82 0.001003
104 0.0
128 0.001996
137 0.002027
131 0.002989
120 0.002905
119 0.002995
128 0.002993
135 0.002992
148 0.002993
156 0.002993
162 0.002992
167 0.004977
141 0.005054
94 0.004985
69 0.004997
75 0.005004
101 0.004882
119 0.006981
131 0.007011
130 0.007021
120 0.006027
119 0.004997
124 0.004982
134 0.005984
144 0.005028
152 0.006024
159 0.005026
165 0.006037
163 0.005984
123 0.005119
59 0.005023
57 0.004033
87 0.002992
123 0.002022
140 0.003045
150 0.002001
136 0.0
129 0.0
132 0.000997
147 0.0
157 0.0
172 0.001019
177 0.000997
187 0.0
191 0.00199
149 0.002032
69 0.002028
70 0.00203
91 0.002021
132 0.001995
153 0.001996
165 0.001994
153 0.002028
140 0.001995
138 0.002994
148 0.00203
162 0.002993
176 0.002992
182 0.002994
191 0.002993
189 0.002993
132 0.002993
63 0.002963
63 0.002902
96 0.002994
139 0.003029
158 0.003991
165 0.002983
154 0.004017
137 0.00396
141 0.003959
149 0.003991
162 0.003992
172 0.004025
180 0.003998
187 0.00398
178 0.003975
74 0.004016
52 0.004992
66 0.003977
106 0.004989
129 0.006024
152 0.007011
144 0.006981
132 0.006997
127 0.007017
135 0.006021
145 0.006022
160 0.004028
169 0.003032
177 0.002018
177 0.002957
80 0.003023
49 0.003027
53 0.002994
73 0.003024
108 0.002038
134 0.001014
137 0.002036
122 0.000992
115 0.002024
118 0.001013
133 0.001003
143 0.000987
157 0.001041
169 0.0
172 0.0
97 0.0
54 0.0
43 0.001004
67 0.000998
87 0.000953
113 0.001004
122 0.003025
117 0.004032
107 0.00498
110 0.00503
119 0.00502
131 0.00498
144 0.004979
154 0.005019
165 0.006985
167 0.007971
107 0.00702
49 0.005991
48 0.007012
74 0.006014
104 0.006013
117 0.005171
123 0.005984
116 0.0
113 0.006015
123 0.005025
136 0.003025
151 0.003024
159 0.001048
169 0.000998
162 0.0
107 0.000998
59 0.000997
60 0.003029
78 0.002994
110 0.004982
132 0.005026
134 0.005033
123 0.006025
119 0.006958
122 0.007015
137 0.007022
146 0.006998
161 0.006976
173 0.007014
178 0.007007
177 0.006985
127 0.007982
77 0.007943
60 0.005994
80 0.004989
108 0.00299
138 0.002992
147 0.002991
137 0.003018
123 0.002001
124 0.002992
136 0.001991
146 0.002993
161 0.00201
173 0.002036
178 0.001996
181 0.001009
96 0.000967
64 0.0
65 0.0
76 0.000997
111 0.0
139 0.0
144 0.0
130 0.0
121 0.002993
123 0.002952
133 0.004021
149 0.004993
157 0.005016
170 0.004986
176 0.005031
177 0.004974
90 0.004988
60 0.004987
63 0.004999
95 0.006021
114 0.006989
136 0.007018
138 0.007015
126 0.006994
120 0.006979
123 0.005979
135 0.005009
148 0.005974
160 0.004987
170 0.006017
178 0.004987
178 0.006091
93 0.003979
61 0.003989
62 0.003989
94 0.00196
113 0.00303
137 0.001997
136 0.001996
128 0.002025
122 0.00201
125 0.001024
139 0.000946
154 0.001008
163 0.001006
175 0.001016
181 0.001001
152 0.000998
78 0.0
59 0.0
73 0.0
108 0.0
128 0.0
149 0.001013
145 0.002995
133 0.002992
129 0.005021
137 0.004987
146 0.007019
163 0.007975
174 0.005986
180 0.006996
188 0.006035
165 0.007014
75 0.00503
65 0.006026
82 0.00597
120 0.004987
147 0.005984
159 0.002976
151 0.004029
137 0.003015
133 0.002999
143 0.001028
156 0.00101
168 0.000999
177 0.002026
186 0.002992
173 0.002992
78 0.002989
61 0.002943
61 0.028922
105 0.003034
135 0.006023
155 0.005954
142 0.005983
131 0.006002
128 0.005943
135 0.006972
150 0.007014
165 0.006982
172 0.006996
181 0.00702
145 0.007946
83 0.006955
54 0.007978
62 0.006981
90 0.007979
131 0.007978
140 0.005984
142 0.005979
125 0.005017
121 0.005984
128 0.004984
137 0.005987
153 0.005001
168 0.00404
175 0.003028
168 0.00305
73 0.001058
56 0.0
57 0.0
89 0.001023
108 0.0
133 0.0
136 0.0
125 0.000976
118 0.000997
122 0.000998
132 0.000997
147 0.000994
157 0.000968
170 0.000998
176 0.002035
132 0.001997
59 0.002025
53 0.002026
77 0.00395
110 0.00403
127 0.00403
137 0.004987
131 0.005988
119 0.006043
122 0.006016
127 0.006983
141 0.007017
156 0.007978
165 0.007014
177 0.007972
176 0.00702
109 0.007949
59 0.007979
60 0.006973
91 0.007978
125 0.005985
140 0.006989
145 0.004996
136 0.005985
126 0.005001
132 0.005019
141 0.004018
156 0.003001
171 0.002038
179 0.0
186 0.0
137 0.0
83 0.0
62 0.0
89 0.001996
112 0.001999
146 0.003989
157 0.00602
149 0.006034
137 0.007936
134 0.007938
142 0.007982
157 0.007949
167 0.007888
179 0.007978
187 0.006014
187 0.005971
104 0.003996
62 0.004103
69 0.004022
104 0.004004
127 0.003963
156 0.003
156 0.005049
141 0.004028
131 0.005028
136 0.005024
145 0.005019
160 0.003976
168 0.003036
179 0.003006
183 0.002042
141 0.002992
62 0.000995
61 0.000955
80 0.0
117 0.0
141 0.001999
148 0.002028
135 0.002027
126 0.002032
124 0.003026
136 0.003027
145 0.004035
160 0.005051
171 0.004987
176 0.00502
151 0.005021
86 0.009974
55 0.001009
56 0.006962
90 0.005984
109 0.005984
133 0.005994
136 0.005953
123 0.006093
117 0.002966
120 0.003985
134 0.001012
150 0.001026
158 0.0
168 0.0
177 0.0
163 0.002048
70 0.004023
52 0.004025
64 0.004023
99 0.00402
128 0.004008
138 0.004045
132 0.006062
123 0.005981
119 0.005985
128 0.006097
136 0.007013
151 0.007969
162 0.006981
170 0.006981
179 0.004998
133 0.005029
77 0.005019
54 0.00401
66 0.005016
102 0.004039
135 0.003989
146 0.003988
141 0.003987
128 0.003989
126 0.002027
133 0.003003
145 0.001951
158 0.002992
172 0.002989
179 0.002036
185 0.001995
116 0.001007
71 0.001032
62 0.0
79 0.001039
117 0.001003
150 0.0
156 0.0
144 0.0
134 0.0
131 0.0
143 0.0
152 0.001001
163 0.000997
176 0.002993
181 0.003026
161 0.003024
71 0.003991
57 0.002994
75 0.004061
98 0.004017
135 0.004034
151 0.005893
147 0.006035
132 0.007936
126 0.007978
129 0.007978
142 0.005998
157 0.003031
165 0.003024
176 0.002094
171 0.000989
110 0.000997
54 0.00205
59 0.002037
85 0.002028
114 0.002031
137 0.001997
143 0.001988
130 0.00103
122 0.000997
124 0.000998
134 0.00103
146 0.001054
158 0.000998
169 0.001044
177 0.000999
142 0.000997
81 0.000985
51 0.001063
61 0.000997
95 0.002029
127 0.003007
139 0.003033
135 0.003991
122 0.002971
120 0.002995
128 0.004024
137 0.003944
152 0.005028
167 0.006016
174 0.005974
166 0.006031
88 0.006021
55 0.005973
61 0.005969
94 0.007049
115 0.007981
137 0.007022
142 0.007979
131 0.008011
121 0.004001
123 0.005023
135 0.004001
150 0.00302
159 0.002007
168 0.018949
176 0.001988
135 0.001998
63 0.001985
57 0.002041
74 0.002038
110 0.001995
130 0.001992
146 0.000997
138 0.000998
126 0.002965
123 0.004031
134 0.004993
143 0.005002
158 0.005027
171 0.004992
176 0.005034
145 0.005021
86 0.004961
57 0.004987
78 0.004992
99 0.004986
131 0.005072
142 0.005021
136 0.004987
122 0.006024
122 0.005994
132 0.005982
143 0.006993
154 0.006972
165 0.006988
173 0.006979
165 0.007949
90 0.007015
60 0.007011
61 0.007034
93 0.006024
112 0.005984
137 0.003992
135 0.004022
127 0.004033
121 0.004033
125 0.002994
138 0.002958
153 0.003001
162 0.002989
175 0.002997
179 0.002986
133 0.003006
68 0.003976
55 0.003004
72 0.004025
100 0.003022
124 0.004036
141 0.004023
137 0.002992
124 0.002033
124 0.0
130 0.000979
145 0.0
154 0.0
168 0.0
179 0.0
182 0.0
115 0.0
62 0.000998
57 0.0
79 0.002037
107 0.000995
132 0.000966
144 0.0
138 0.000998
125 0.003984
126 0.003989
134 0.004021
146 0.003991
162 0.004982
170 0.005546
182 0.005817
186 0.005984
146 0.006992
66 0.007013
58 0.007013
83 0.007015
121 0.006977
135 0.007027
155 0.006982
153 0.00703
137 0.00701
133 0.006967
138 0.007015
153 0.007007
163 0.007021
176 0.005998
184 0.007979
190 0.00598
176 0.006981
78 0.006981
61 0.006994
78 0.006019
101 0.007019
140 0.005969
161 0.005019
158 0.007017
139 0.002998
133 0.001966
138 0.001969
152 0.001996
161 0.001996
173 0.001999
182 0.002008
184 0.001994
106 0.002002
58 0.00297
60 0.001993
85 0.002992
108 0.002992
143 0.001985
152 0.002025
143 0.001994
128 0.000989
128 0.001954
138 0.0
153 0.000997
161 0.0
173 0.0
181 0.0
176 0.0
78 0.001997
48 0.003025
58 0.00399
93 0.003992
114 0.003989
139 0.00401
135 0.004992
126 0.00598
119 0.007014
124 0.005985
136 0.007028
148 0.00698
159 0.00794
167 0.006982
176 0.006976
164 0.006973
68 0.007012
47 0.005981
60 0.006986
94 0.004024
125 0.003986
135 0.003985
128 0.004024
119 0.00399
115 0.004025
125 0.004008
134 0.003994
149 0.002993
158 0.002997
170 0.003006
175 0.004033
127 0.003018
62 0.002992
54 0.002998
69 0.002991
105 0.000996
130 0.001008
141 0.001006
135 0.002031
121 0.00195
121 0.00296
131 0.003991
146 0.004992
155 0.005982
169 0.006017
175 0.006032
179 0.006987
108 0.00698
66 0.007009
59 0.00617
91 0.007977
113 0.006015
140 0.006018
149 0.004976
141 0.004983
127 0.005017
126 0.005017
137 0.004986
153 0.004008
162 0.005027
174 0.003983
180 0.005019
159 0.004031
70 0.004023
56 0.002987
74 0.001006
110 0.000997
131 0.0
147 0.0
139 0.001041
125 0.0
123 0.001003
131 0.0
142 0.000997
157 0.00098
165 0.0
175 0.001034
155 0.000998
77 0.000997
51 0.002995
67 0.004029
87 0.004022
120 0.004017
134 0.003992
134 0.004013
120 0.003984
117 0.00502
125 0.00501
133 0.004991
149 0.006032
163 0.005958
169 0.00698
173 0.005976
96 0.005972
58 0.005963
53 0.006003
75 0.007981
100 0.005985
120 0.006981
128 0.006019
121 0.006982
112 0.005987
113 0.00701
124 0.005969
133 0.006986
148 0.00301
162 0.001043
170 0.000997
157 0.000998
71 0.000994
52 0.000995
62 0.001001
87 0.0
104 0.0
124 0.0
123 0.0
117 0.0
114 0.000998
120 0.002949
131 0.003041
144 0.004026
158 0.00603
166 0.007015
176 0.00792
157 0.005001
98 0.006014
57 0.004993
62 0.005984
85 0.017916
122 0.003986
136 0.003973
138 0.004974
131 0.004986
124 0.003953
130 0.003986
139 0.003981
156 0.003989
168 0.004038
178 0.001993
185 0.001996
167 0.001042
105 0.0
63 0.001007
75 0.0
103 0.000998
132 0.001995
157 0.003975
157 0.005029
141 0.005852
134 0.00603
138 0.006033
152 0.00601
162 0.006014
175 0.00603
185 0.006028
188 0.006983
113 0.006013
72 0.006982
65 0.006975
89 0.006935
119 0.006981
146 0.00698
155 0.006971
145 0.006946
131 0.007949
131 0.005983
139 0.006981
154 0.005969
162 0.006974
175 0.003978
182 0.002021
158 0.001971
67 0.000972
56 0.002037
71 0.0
107 0.0
133 0.000998
144 0.002047
138 0.001847
128 0.001994
123 0.002
133 0.001986
142 0.002025
157 0.003994
168 0.004029
177 0.003996
166 0.005028
71 0.005022
51 0.005005
62 0.004987
82 0.00496
114 0.005022
135 0.005985
135 0.006016
122 0.005978
118 0.006018
123 0.006014
138 0.006931
144 0.005984
159 0.005984
171 0.005998
176 0.005998
124 0.005981
71 0.00598
51 0.004985
70 0.006951
98 0.004998
123 0.005987
139 0.006014
135 0.006033
122 0.004979
123 0.002021
129 0.001034
140 0.0
156 0.0
164 0.0
176 0.0
180 0.0
120 0.001
58 0.000998
57 0.000999
86 0.000997
122 0.002994
140 0.003023
146 0.004942
134 0.005021
125 0.004943
127 0.00503
138 0.006021
150 0.006946
162 0.007978
170 0.006014
180 0.004984
159 0.003956
97 0.00399
59 0.002999
78 0.00301
100 0.002999
137 0.003011
151 0.002995
148 0.003028
131 0.001969
128 0.001985
136 0.002009
148 0.004023
159 0.002007
169 0.002034
177 0.000997
176 0.001995
87 0.001998
59 0.001995
63 0.002034
82 0.001978
119 0.0
141 0.000899
145 0.0
132 0.0
122 0.000969
125 0.0
138 0.0
154 0.000997
162 0.002994
173 0.004987
167 0.003958
107 0.00403
53 0.003991
53 0.005861
82 0.00695
109 0.005956
131 0.006127
136 0.006977
124 0.007961
118 0.00798
120 0.007021
126 0.00702
141 0.006997
156 0.005987
164 0.007022
175 0.00502
133 0.005993
76 0.005985
52 0.00598
61 0.005944
94 0.005993
123 0.005014
133 0.00402
129 0.00303
120 0.005051
119 0.00303
126 0.005022
138 0.003006
150 0.005055
164 0.003981
171 0.00401
178 0.002033
103 0.000993
64 0.001995
57 0.002023
73 0.001995
107 0.000997
134 0.002039
139 0.002042
129 0.0
122 0.0
121 0.0
132 0.000999
147 0.002993
156 0.004024
170 0.005982
178 0.007176
179 0.00698
98 0.006972
59 0.006982
63 0.006013
88 0.007034
116 0.00498
139 0.007013
145 0.00696
137 0.007013
126 0.007029
127 0.007013
138 0.006012
154 0.004988
163 0.003988
176 0.002992
184 0.001998
169 0.002996
78 0.002005
60 0.002
76 0.001032
105 0.002031
134 0.0
152 0.001995
148 0.001995
138 0.002033
131 0.0
137 0.0
149 0.000999
161 0.002992
174 0.002999
181 0.00399
184 0.005947
98 0.006045
67 0.007971
65 0.006961
96 0.006018
119 0.005156
151 0.004029
154 0.002032
147 0.000998
130 0.0
133 0.0
140 0.001051
154 0.001
167 0.000998
174 0.001996
176 0.002003
131 0.002028
61 0.003956
57 0.004017
80 0.003977
108 0.004006
138 0.003611
144 0.005022
131 0.005005
122 0.004995
122 0.005021
131 0.007032
146 0.004969
154 0.003992
166 0.003973
172 0.003995
118 0.004034
54 0.002994
51 0.019947
74 0.004005
100 0.00403
117 0.003989
130 0.003004
120 0.0
114 0.0
115 0.0
125 0.000997
134 0.003044
148 0.003982
162 0.004994
168 0.007031
123 0.007001
63 0.007114
51 0.006022
66 0.004989
85 0.005983
113 0.004983
127 0.004981
125 0.004984
115 0.005011
114 0.007013
122 0.004981
133 0.005957
144 0.004989
155 0.005984
167 0.005955
170 0.005982
104 0.006016
66 0.005955
57 0.005984
83 0.00397
102 0.006712
126 0.003981
131 0.004976
124 0.004955
117 0.004147
120 0.00399
130 0.003968
144 0.003989
152 0.004004
166 0.004023
173 0.003031
166 0.001002
93 0.002992
61 0.001012
65 0.002992
96 0.002993
115 0.002992
139 0.001995
141 0.002049
130 0.0
124 0.0
127 0.0
138 0.0
154 0.0
162 0.0
176 0.000999
185 0.001995
182 0.002963
96 0.002958
69 0.002996
72 0.002991
106 0.00396
127 0.003959
153 0.004865
153 0.005008
140 0.004991
132 0.004988
135 0.004956
146 0.005928
161 0.00699
167 0.007954
179 0.006981
188 0.00499
171 0.00499
81 0.002992
66 0.00301
79 0.002982
115 0.003002
135 0.002987
154 0.003023
143 0.002993
134 0.002001
132 0.002026
140 0.001995
151 0.002026
163 0.001986
173 0.0
181 0.002026
150 0.000964
90 0.000997
59 0.001031
72 0.001009
99 0.000994
125 0.000962
143 0.000991
142 0.000966
127 0.001997
124 0.001989
131 0.001994
144 0.001994
152 0.001998
166 0.002961
173 0.002
171 0.002992
81 0.002978
57 0.002999
63 0.002996
88 0.005023
112 0.005024
131 0.004986
135 0.004985
126 0.005025
119 0.005008
122 0.005018
134 0.005029
147 0.006019
156 0.006983
167 0.004974
173 0.002992
142 0.003002
65 0.003
59 0.002998
74 0.002991
106 0.003021
122 0.003028
136 0.002024
130 0.002995
122 0.000966
122 0.001994
132 0.0
139 0.0
153 0.0
165 0.000998
174 0.00206
168 0.001974
97 0.002947
62 0.003041
70 0.004991
89 0.005979
121 0.00703
140 0.006949
143 0.00698
133 0.006977
127 0.006981
130 0.006991
142 0.006976
156 0.005027
166 0.004972
179 0.00499
183 0.003996
130 0.003994
74 0.004036
67 0.001978
86 0.003982
122 0.003977
142 0.001996
156 0.000995
143 0.000973
135 0.000991
134 0.001028
144 0.000964
152 0.000869
167 0.000974
175 0.001
185 0.001016
129 0.000999
80 0.001994
65 0.002932
91 0.002989
112 0.003983
143 0.005022
150 0.005032
138 0.006984
127 0.006981
127 0.006988
136 0.007972
146 0.005991
154 0.006983
168 0.006982
173 0.005106
132 0.006981
65 0.004
59 0.005021
80 0.003995
112 0.003005
129 0.002003
138 0.002992
124 0.001028
119 0.001032
123 0.000995
129 0.001996
143 0.000993
154 0.003033
164 0.001032
167 0.002001
89 0.001006
61 0.0
60 0.000996
81 0.001009
104 0.000997
123 0.001031
127 0.000998
120 0.000988
114 0.0
117 0.001012
127 0.000998
141 0.002998
149 0.002989
161 0.002995
165 0.004023
106 0.003983
59 0.004971
59 0.006097
82 0.005984
109 0.00598
121 0.006981
126 0.006947
120 0.007041
115 0.006015
118 0.006982
125 0.007901
135 0.007019
148 0.005938
156 0.006981
166 0.004988
162 0.006981
86 0.005992
62 0.00502
69 0.00499
98 0.003001
126 0.002997
136 0.003006
133 0.00299
127 0.001995
124 0.00299
130 0.002035
141 0.001994
152 0.002004
165 0.001997
173 0.00202
181 0.000999
136 0.00088
78 0.002001
67 0.001996
90 0.00203
111 0.002031
141 0.002033
149 0.003
142 0.002995
131 0.003
131 0.005039
141 0.003947
155 0.004989
164 0.005019
178 0.005018
185 0.005023
169 0.005023
83 0.004968
68 0.005022
82 0.004816
102 0.005024
130 0.0
152 0.005028
147 0.005025
134 0.004991
130 0.005021
135 0.004841
148 0.00604
156 0.006028
169 0.005949
181 0.005984
183 0.006006
106 0.005974
70 0.005948
65 0.006015
95 0.006019
109 0.005983
139 0.005994
147 0.007968
138 0.005987
126 0.007979
127 0.005991
135 0.006958
149 0.007039
157 0.007012
170 0.004991
182 0.003002
178 0.005029
86 0.002029
62 0.004026
67 0.002002
100 0.001961
119 0.002104
143 0.0
141 0.0
132 0.0
127 0.0
131 0.0
140 0.0
154 0.001036
163 0.0
176 0.0
185 0.0
160 0.0
72 0.001034
59 0.0
77 0.0
106 0.000998
132 0.002004
148 0.003043
143 0.002993
134 0.003037
129 0.00399
133 0.00399
146 0.004995
160 0.00603
169 0.006027
179 0.006984
185 0.00599
151 0.005981
69 0.005988
65 0.005977
82 0.005989
120 0.003989
146 0.005975
156 0.003017
148 0.004992
139 0.005007
135 0.005017
144 0.003002
153 0.005022
168 0.002993
180 0.001027
187 0.002067
182 0.002005
124 0.001049
64 0.000999
75 0.001995
97 0.002002
137 0.002949
155 0.000983
163 0.001039
151 0.002032
141 0.0
142 0.002043
153 0.002028
162 0.002028
176 0.002032
182 0.0
190 0.0
153 0.001995
76 0.002033
60 0.00399
85 0.006282
125 0.005976
147 0.007981
160 0.005988
156 0.006952
138 0.005019
133 0.004987
138 0.004967
152 0.003958
165 0.002985
172 0.002994
181 0.002974
139 0.003043
66 0.001985
52 0.002036
76 0.0
99 0.0
134 0.002053
146 0.002992
138 0.004019
125 0.004988
123 0.006949
129 0.007975
140 0.006946
154 0.00399
162 0.006017
173 0.001982
140 0.001986
77 0.001977
46 0.001007
60 0.002043
88 0.0
113 0.0
132 0.000997
130 0.000997
116 0.000997
112 0.000999
118 0.000891
129 0.001982
141 0.00399
152 0.004989
165 0.004947
169 0.004996
102 0.004986
50 0.005983
51 0.005984
72 0.005981
105 0.005952
121 0.005984
131 0.004002
121 0.00201
116 0.002038
119 0.00201
125 0.001979
139 0.001999
151 0.00402
162 0.001972
172 0.003988
151 0.002039
91 0.002032
55 0.0
67 0.001995
94 0.001995
120 0.002016
140 0.002993
142 0.002983
129 0.003005
125 0.002993
130 0.004976
143 0.004984
152 0.004825
166 0.004988
179 0.005987
183 0.006979
147 0.006981
88 0.00696
62 0.006948
86 0.00496
109 0.004027
144 0.004035
157 0.006018
152 0.003947
139 0.006015
134 0.003996
141 0.006015
155 0.00598
164 0.006107
177 0.006014
188 0.003012
183 0.00199
92 0.001989
65 0.001999
76 0.001016
105 0.000961
128 0.0
158 0.0
157 0.001004
146 0.001021
134 0.000998
140 0.00101
148 0.000972
163 0.001005
171 0.000997
181 0.000998
173 0.001997
94 0.001993
59 0.002992
70 0.002958
92 0.002948
129 0.003025
146 0.00303
149 0.003988
132 0.00502
127 0.005019
132 0.006964
146 0.00698
154 0.006522
165 0.005986
176 0.006015
171 0.005981
79 0.005997
55 0.005978
61 0.004984
88 0.006016
114 0.003988
134 0.003991
135 0.002992
126 0.002992
118 0.002993
125 0.001041
133 0.003025
147 0.001996
156 0.003026
169 0.0
155 0.0
94 0.0
51 0.0
58 0.0
76 0.0
107 0.0
122 0.0
129 0.002995
119 0.005021
116 0.004978
120 0.005985
130 0.005991
141 0.006994
149 0.007979
163 0.005979
169 0.005979
147 0.005958
66 0.004016
54 0.00602
70 0.004004
103 0.001994
120 0.0
135 0.0
126 0.0
120 0.0
121 0.0
127 0.0
138 0.0
152 0.0
157 0.0
172 0.0
170 0.0
118 0.0
60 0.0
59 0.0
86 0.0
113 0.0
135 0.0
141 0.0
129 0.001996
123 0.001989
125 0.003037
132 0.001967
146 0.003818
160 0.006018
168 0.00602
179 0.005984
177 0.005984
128 0.005985
64 0.006019
70 0.005984
90 0.005986
126 0.005983
144 0.005991
152 0.005987
142 0.007971
133 0.005985
134 0.006949
144 0.005949
156 0.005967
171 0.003986
183 0.001024
189 0.003006
179 0.000969
117 0.002993
67 0.001007
82 0.001002
105 0.001977
145 0.0
165 0.002006
167 0.0
152 0.000979
144 0.000978
146 0.002987
160 0.004954
171 0.00502
181 0.005027
188 0.005023
193 0.005031
151 0.00499
68 0.006039
62 0.006016
87 0.006014
110 0.006014
146 0.006018
157 0.005985
149 0.005994
133 0.006059
132 0.005978
138 0.005985
155 0.006953
161 0.005992
173 0.005989
181 0.005986
129 0.006956
64 0.005985
53 0.007017
72 0.004002
101 0.004985
128 0.003991
143 0.004988
135 0.004987
124 0.004987
119 0.004971
129 0.002996
137 0.004987
151 0.003
159 0.005016
169 0.002989
128 0.002992
71 0.002993
48 0.001966
58 0.001995
91 0.002995
120 0.000975
129 0.0
123 0.0
113 0.002032
112 0.0
119 0.001999
130 0.001995
141 0.002995
152 0.004987
163 0.007025
159 0.007013
92 0.006982
51 0.002965
54 0.00497
84 0.000977
114 0.001997
127 0.000998
126 0.001999
115 0.002013
113 0.002013
120 0.00199
127 0.002005
141 0.000997
151 0.002026
164 0.001999
163 0.003898
87 0.004025
59 0.005996
64 0.006994
81 0.007967
113 0.006981
129 0.006979
135 0.00703
123 0.003987
118 0.00499
122 0.001998
134 0.001992
142 0.0
156 0.0
163 0.0
160 0.000955
84 0.0
67 0.0
71 0.0
99 0.000997
117 0.000996
140 0.000998
139 0.000998
125 0.001984
120 0.002007
126 0.004978
135 0.005982
145 0.006025
155 0.006972
163 0.007027
143 0.006895
108 0.007979
69 0.006969
75 0.005034
91 0.005015
120 0.004984
133 0.005001
134 0.002946
122 0.003003
118 0.002989
124 0.002624
134 0.004987
144 0.002988
154 0.003032
165 0.003994
164 0.003011
95 0.002025
74 0.002039
74 0.002961
99 0.000957
116 0.001995
135 0.0
134 0.0
128 0.0
121 0.0
123 0.0
133 0.0
145 0.000998
153 0.002027
164 0.002037
168 0.002031
130 0.003029
78 0.003012
73 0.003
89 0.002993
118 0.002993
133 0.003
140 0.005043
131 0.004977
125 0.006944
125 0.006941
135 0.00698
143 0.006979
156 0.006886
163 0.007978
174 0.007971
164 0.005983
114 0.005985
77 0.003991
85 0.002982
102 0.002033
135 0.001994
153 0.002006
149 0.001995
134 0.001949
130 0.000941
134 0.000992
144 0.001988
155 0.0
165 0.002057
176 0.0
181 0.0
142 0.002006
82 0.003025
77 0.003
96 0.003037
116 0.001977
149 0.002944
156 0.002993
147 0.003037
131 0.002977
133 0.00399
138 0.005022
151 0.005984
159 0.005984
171 0.005949
179 0.006016
153 0.005978
80 0.005988
71 0.006019
84 0.006963
110 0.007974
135 0.007023
147 0.00702
142 0.007022
131 0.006981
124 0.006019
131 0.002995
138 0.004022
151 0.001979
164 0.002978
170 0.001993
160 0.00199
103 0.001997
64 0.0
68 0.0
83 0.0
115 0.0
137 0.0
138 0.0
125 0.0
118 0.001994
121 0.001993
133 0.001995
141 0.001956
155 0.002021
164 0.001992
172 0.003972
148 0.004998
70 0.005989
59 0.005939
72 0.006031
98 0.006986
121 0.00797
135 0.005986
131 0.005001
122 0.004003
118 0.004981
121 0.003007
134 0.003991
145 0.007026
156 0.003975
165 0.005483
174 0.005032
146 0.005022
70 0.004024
61 0.004959
76 0.004041
104 0.00399
129 0.005948
144 0.002019
139 0.00399
125 0.0
123 0.002023
129 0.000965
143 0.0
157 0.0
166 0.0
179 0.000965
176 0.000968
121 0.00086
68 0.001007
67 0.000998
93 0.000997
130 0.001995
148 0.0
155 0.001001
145 0.000997
131 0.000997
131 0.002991
139 0.00397
150 0.003026
164 0.002999
173 0.00399
184 0.004982
135 0.005977
84 0.007936
65 0.005986
82 0.006007
105 0.004941
142 0.004145
158 0.002954
152 0.002962
133 0.001993
129 0.001997
135 0.001998
145 0.004052
156 0.002006
167 0.004033
180 0.003004
180 0.002027
89 0.0
61 0.0
62 0.002031
92 0.002988
129 0.004019
145 0.005033
147 0.005974
128 0.005887
123 0.005953
125 0.005968
137 0.005956
145 0.005953
159 0.00498
167 0.004964
176 0.005985
115 0.006987
63 0.004957
56 0.006983
74 0.004983
103 0.007033
134 0.006977
140 0.006993
129 0.005034
117 0.002994
118 0.00401
127 0.001024
141 0.0
149 0.0
160 0.0
169 0.000998
139 0.001962
63 0.003999
56 0.004026
70 0.004038
103 0.004986
125 0.006978
133 0.005984
125 0.005987
115 0.007016
115 0.006989
122 0.00714
132 0.005029
146 0.00798
156 0.006982
163 0.006009
148 0.004986
69 0.002962
56 0.005039
69 0.002038
102 0.000997
120 0.00096
135 0.001007
130 0.003032
123 0.002992
119 0.00299
128 0.002985
136 0.00298
150 0.005034
159 0.004942
172 0.004987
171 0.007938
104 0.005988
62 0.006977
68 0.007977
87 0.007971
123 0.006018
146 0.003997
146 0.006032
132 0.003991
127 0.005978
131 0.003997
144 0.003004
152 0.00299
167 0.00101
178 0.000992
183 0.00099
95 0.0
66 0.002033
66 0.01496
99 0.000996
135 0.001996
151 0.001996
151 0.00193
140 0.00196
129 0.001999
133 0.002955
142 0.002993
154 0.002959
164 0.003008
175 0.002993
169 0.003982
109 0.00399
61 0.004021
70 0.005968
90 0.007015
118 0.005984
143 0.005984
143 0.005984
127 0.005984
122 0.005979
126 0.00499
139 0.005007
148 0.005019
161 0.004956
170 0.006981
164 0.003969
89 0.004988
56 0.004968
60 0.003984
90 0.003989
108 0.00399
130 0.002983
129 0.002007
121 0.002002
117 0.001012
122 0.000952
130 0.000997
144 0.001008
158 0.001965
165 0.001995
166 0.002026
81 0.003943
59 0.004973
64 0.004992
89 0.007013
109 0.004981
129 0.005984
135 0.005989
129 0.005973
121 0.004986
122 0.004987
133 0.005998
147 0.001
155 0.002985
169 0.001993
179 0.001993
157 0.001935
74 0.001995
61 0.00201
76 0.0
111 0.0
129 0.0
143 0.0
139 0.002065
131 0.002028
127 0.002032
137 0.005005
145 0.005
159 0.00502
171 0.003989
182 0.006021
186 0.005996
102 0.007015
77 0.007965
66 0.006983
96 0.002978
119 0.004987
150 0.002988
157 0.005021
146 0.001991
134 0.002992
136 0.002005
147 0.002003
161 0.001995
170 0.001989
184 0.001995
191 0.001985
184 0.003987
87 0.003024
67 0.003214
78 0.0
109 0.0
140 0.0
162 0.000998
159 0.001996
146 0.002993
134 0.003
141 0.004988
149 0.004985
163 0.006985
174 0.005928
182 0.004946
184 0.004989
90 0.00299
64 0.002948
69 0.002994
89 0.002999
128 0.001994
150 0.003989
153 0.002015
140 0.004026
128 0.002996
131 0.001991
142 0.001033
156 0.0
164 0.0
175 0.0
182 0.000997
133 0.002008
58 0.001997
53 0.001962
78 0.001995
113 0.003991
131 0.004016
141 0.003943
127 0.003956
120 0.003955
123 0.00398
129 0.006037
140 0.006981
157 0.006984
165 0.006979
173 0.008943
130 0.005953
74 0.006972
52 0.007015
69 0.006975
91 0.007979
123 0.006981
135 0.006981
133 0.002937
120 0.002993
119 0.002981
127 0.001992
141 0.002999
149 0.002005
162 0.002049
170 0.0
176 0.0
113 0.002993
61 0.000985
56 0.001028
85 0.0
106 0.0
135 0.0
142 0.0
134 0.0
125 0.0
126 0.0
134 0.0
148 0.0
157 0.0
171 0.00201
179 0.003002
182 0.001996
93 0.003988
63 0.00503
66 0.004954
102 0.005984
123 0.005983
149 0.005976
146 0.006981
139 0.005979
128 0.005984
130 0.00597
142 0.005969
154 0.007951
165 0.005984
176 0.007985
186 0.007
178 0.00602
81 0.005973
59 0.005984
70 0.003985
107 0.001999
128 0.003992
151 0.001009
142 0.001029
131 0.001005
126 0.0
133 0.0
141 0.0
156 0.001007
169 0.001993
176 0.002
180 0.003991
111 0.005988
66 0.005983
53 0.007979
78 0.006979
101 0.00797
132 0.007979
143 0.003979
136 0.006156
122 0.001032
124 0.0
132 0.0
146 0.000966
157 0.0
165 0.000998
177 0.001908
172 0.002955
110 0.002962
52 0.004021
52 0.002992
82 0.003947
116 0.003958
131 0.00399
138 0.003989
128 0.003946
120 0.003987
122 0.002955
132 0.004028
143 0.003954
158 0.003883
166 0.004987
177 0.005986
164 0.006952
122 0.007964
55 0.004985
59 0.002029
78 0.002987
112 0.001994
135 0.002003
138 0.0
126 0.0
120 0.002038
122 0.0
133 0.001994
147 0.002996
155 0.003039
169 0.002998
176 0.002853
168 0.002994
89 0.003041
56 0.003956
62 0.004994
96 0.005031
116 0.00502
142 0.004956
145 0.00504
133 0.004956
125 0.004989
129 0.004983
141 0.006983
152 0.004988
161 0.005981
176 0.004986
184 0.00702
171 0.001996
89 0.003989
58 0.003028
67 0.002042
103 0.002015
125 0.003021
150 0.002026
150 0.001995
136 0.0
128 0.0
134 0.0
142 0.000985
156 0.003026
171 0.004999
178 0.004989
185 0.006979
115 0.005979
71 0.005987
63 0.005967
94 0.003984
116 0.003037
146 0.001992
150 0.00399
136 0.001998
125 0.004583
128 0.002035
135 0.002029
148 0.000998
159 0.001999
169 0.001997
173 0.002027
111 0.002055
60 0.003019
59 0.003948
76 0.002971
111 0.003025
135 0.002929
136 0.002993
122 0.003948
116 0.004952
120 0.005983
129 0.005982
143 0.003999
150 0.003991
160 0.007024
164 0.003987
106 0.006027
52 0.005
50 0.004025
74 0.003991
103 0.002983
117 0.00403
122 0.002976
116 0.004021
109 0.0
114 0.0
121 0.0
134 0.0
147 0.0
152 0.002045
154 0.0
108 0.000947
55 0.000998
56 0.001994
69 0.001039
99 0.0
120 0.001004
123 0.0
115 0.002997
110 0.003047
113 0.002952
121 0.003031
131 0.004024
141 0.002985
154 0.002993
160 0.002993
139 0.004988
69 0.005024
58 0.006022
72 0.005979
90 0.006949
113 0.005975
129 0.00689
127 0.006982
118 0.004981
116 0.005988
121 0.005983
133 0.005014
141 0.005952
153 0.003996
162 0.005023
168 0.001997
137 0.002032
72 0.002028
64 0.002029
83 0.002042
114 0.0
131 0.002024
141 0.000998
136 0.000966
126 0.000974
127 0.0
133 0.0
145 0.001033
155 0.0
163 0.0
174 0.002028
171 0.002853
120 0.002981
69 0.00299
68 0.002985
94 0.002992
120 0.00299
141 0.002961
146 0.003008
133 0.004021
127 0.004993
129 0.005059
136 0.004953
149 0.005019
162 0.006
169 0.006961
177 0.005992
166 0.005937
109 0.005989
64 0.005984
65 0.00593
92 0.005939
122 0.004987
136 0.005984
138 0.005943
126 0.007039
122 0.004988
126 0.005944
135 0.003005
147 0.005026
160 0.004987
167 0.005019
176 0.004988
172 0.002947
117 0.006016
63 0.002992
61 0.003987
86 0.002024
118 0.0
132 0.0
139 0.0
130 0.000998
124 0.000817
124 0.001999
135 0.001996
144 0.002042
158 0.001957
170 0.004027
176 0.00399
182 0.004988
128 0.006
80 0.005987
62 0.00602
73 0.006019
108 0.005983
137 0.005984
146 0.006016
144 0.006978
131 0.004982
128 0.005017
135 0.004978
143 0.004952
158 0.005013
173 0.004994
181 0.00498
192 0.004991
191 0.004982
99 0.003985
67 0.005022
72 0.00301
100 0.00499
137 0.004985
153 0.004988
159 0.003989
143 0.0
136 0.001965
138 0.0
152 0.0
158 0.0
172 0.0
180 0.0
192 0.0
178 0.000999
111 0.000998
64 0.001034
68 0.000998
102 0.000822
139 0.000998
155 0.000994
158 0.001996
139 0.002947
134 0.002963
138 0.004988
148 0.006984
157 0.006947
171 0.00702
179 0.006972
189 0.005987
127 0.007019
73 0.006975
58 0.006982
78 0.005074
102 0.006018
137 0.00299
152 0.003022
146 0.002993
129 0.003132
126 0.002996
133 0.002998
144 0.004024
155 0.001998
166 0.003982
179 0.003989
181 0.004025
95 0.003989
59 0.003991
55 0.002989
86 0.001988
107 0.002045
133 0.0
137 0.000998
129 0.002993
117 0.002996
119 0.003023
125 0.002994
139 0.003012
147 0.002962
161 0.003
171 0.003041
146 0.003032
62 0.002981
50 0.002033
66 0.002992
100 0.002992
117 0.003018
132 0.00396
126 0.004987
116 0.005994
116 0.006
124 0.006982
130 0.007978
144 0.007014
158 0.003982
166 0.004981
166 0.002007
82 0.003006
58 0.001998
63 0.002974
81 0.00205
114 0.000999
135 0.0
136 0.0
126 0.001995
119 0.002993
121 0.003027
133 0.002969
146 0.004025
155 0.004021
166 0.003002
173 0.005027
141 0.005017
67 0.00496
59 0.004931
78 0.005018
112 0.005021
130 0.005021
141 0.006946
132 0.004985
123 0.004988
122 0.004991
128 0.004997
138 0.00798
154 0.002993
164 0.003001
172 0.0
148 0.002993
79 0.0
58 0.001995
74 0.001994
94 0.002041
124 0.002048
136 0.000961
131 0.001979
120 0.001004
118 0.002004
123 0.001995
136 0.002007
145 0.002021
157 0.002001
167 0.002003
165 0.003028
85 0.003989
56 0.004995
62 0.005982
85 0.005984
113 0.005984
125 0.004987
127 0.005983
121 0.006024
115 0.004979
121 0.007972
129 0.005971
140 0.006981
152 0.005959
159 0.005977
168 0.007016
160 0.005984
80 0.006021
58 0.003996
67 0.005024
97 0.002007
122 0.003
130 0.001996
127 0.002988
121 0.003
118 0.0
125 0.0
132 0.0
146 0.001996
159 0.002992
168 0.005989
174 0.005985
159 0.007012
90 0.006976
64 0.007974
71 0.005984
103 0.002998
120 0.005011
141 0.001993
143 0.003989
132 0.002993
127 0.002036
131 0.002052
144 0.0
158 0.0
167 0.00097
179 0.0
186 0.0
190 0.000972
128 0.001996
70 0.001988
69 0.002017
98 0.003026
120 0.003017
150 0.002034
158 0.004044
147 0.003953
135 0.003991
136 0.004995
142 0.006019
157 0.006018
166 0.006014
180 0.005942
191 0.005984
195 0.006897
134 0.00598
82 0.006015
67 0.006984
96 0.005827
111 0.005984
145 0.004985
158 0.002956
151 0.001994
135 0.0
133 0.002028
138 0.002036
152 0.000998
163 0.002992
176 0.004043
183 0.006019
186 0.006027
94 0.006949
64 0.006949
65 0.006981
85 0.007036
114 0.005979
143 0.006979
149 0.006963
137 0.004991
125 0.00398
126 0.00398
137 0.003977
146 0.003983
160 0.002976
170 0.005984
179 0.002997
176 0.003022
81 0.00305
56 0.002023
63 0.003027
96 0.000977
115 0.001994
136 0.0
136 0.002031
126 0.0
118 0.000998
120 0.000819
131 0.001016
145 0.000998
153 0.001997
166 0.000997
173 0.000998
150 0.002053
67 0.003012
54 0.003006
60 0.013
105 0.002951
122 0.002993
137 0.002935
134 0.002993
122 0.002991
120 0.002973
127 0.003988
137 0.004004
151 0.004984
160 0.005984
172 0.007947
178 0.00498
160 0.006015
73 0.002989
59 0.001984
73 0.001986
108 0.001976
126 0.002995
143 0.001995
137 0.00299
126 0.001994
123 0.004036
132 0.003048
140 0.002026
154 0.001993
165 0.000997
175 0.001987
178 0.003
98 0.004012
67 0.006017
62 0.007023
90 0.002982
111 0.005987
140 0.003026
143 0.002996
133 0.001992
122 0.001977
127 0.0
134 0.0
148 0.000997
158 0.002027
168 0.000967
174 0.002026
153 0.0
70 0.000968
58 0.0
71 0.0
103 0.0
126 0.000994
136 0.001995
129 0.002042
119 0.002962
118 0.002994
127 0.005011
136 0.004991
149 0.00602
162 0.005975
168 0.005983
165 0.00595
94 0.006013
63 0.005
59 0.005948
88 0.00498
106 0.005017
129 0.005016
132 0.004987
124 0.004969
118 0.007966
121 0.002971
130 0.005028
144 0.002983
152 0.003026
165 0.003037
171 0.002941
173 0.003023
109 0.0
59 0.000972
60 0.002029
88 0.002992
108 0.002993
134 0.002032
140 0.002995
135 0.003001
125 0.003032
129 0.004986
137 0.004987
152 0.004954
160 0.004994
174 0.005832
183 0.007004
187 0.006966
133 0.007028
67 0.006981
64 0.006978
91 0.00798
113 0.007976
144 0.006983
153 0.003988
148 0.007045
134 0.003024
133 0.002957
139 0.003939
153 0.002992
168 0.002992
176 0.002993
188 0.002976
193 0.001996
139 0.000967
74 0.003024
67 0.000997
85 0.002039
123 0.003032
149 0.00502
158 0.004986
147 0.006017
132 0.007928
130 0.007089
138 0.006032
152 0.001988
161 0.004023
172 0.003989
181 0.001965
185 0.001992
94 0.000952
58 0.0
61 0.0
92 0.002961
128 0.00396
145 0.003959
149 0.005949
136 0.006016
128 0.005996
130 0.008004
142 0.007979
151 0.007981
162 0.007015
170 0.007011
182 0.007014
165 0.004983
97 0.00698
54 0.004971
58 0.007013
91 0.004988
124 0.004991
140 0.00396
142 0.003027
127 0.003995
122 0.002962
128 0.003032
135 0.003995
150 0.001995
162 0.004034
173 0.004006
181 0.003035
133 0.002028
75 0.003039
53 0.002027
78 0.0
100 0.001979
125 0.000997
138 0.011968
137 0.002983
124 0.002992
121 0.002971
127 0.003039
140 0.003985
148 0.002991
162 0.002993
174 0.003996
174 0.005041
90 0.004924
61 0.005023
63 0.004989
96 0.004985
116 0.004987
137 0.006974
140 0.006979
130 0.006946
124 0.007015
126 0.005991
136 0.006988
147 0.007014
156 0.006016
170 0.003972
180 0.002004
158 0.004023
73 0.002082
63 0.001999
78 0.003004
113 0.002992
133 0.002993
148 0.00197
140 0.004026
128 0.0
126 0.003003
135 0.002035
143 0.003018
157 0.002992
168 0.000997
177 0.003066
149 0.003028
78 0.002993
59 0.002959
78 0.004952
100 0.005983
133 0.006013
145 0.005033
141 0.007978
126 0.004003
124 0.001995
129 0.002991
142 0.002002
155 0.002991
163 0.002992
174 0.001991
135 0.004022
70 0.002028
56 0.003987
71 0.001999
98 0.004022
127 0.003029
136 0.003025
131 0.002976
123 0.002993
120 0.003024
129 0.001009
137 0.001979
150 0.0
160 0.0
167 0.001005
163 0.000997
77 0.002013
57 0.002996
65 0.004989
97 0.005988
115 0.005985
133 0.005
132 0.005999
120 0.005982
118 0.005986
123 0.005981
133 0.004989
144 0.007979
151 0.007977
164 0.007143
170 0.002982
131 0.005986
64 0.003018
59 0.005986
80 0.00299
111 0.003982
127 0.002991
136 0.002
125 0.001991
121 0.001994
120 0.006982
133 0.001994
144 0.000998
154 0.0
163 0.0
174 0.002036
157 0.001994
99 0.001997
63 0.001894
72 0.001957
99 0.002006
125 0.001995
143 0.002991
144 0.002963
131 0.003029
128 0.003023
132 0.003025
146 0.002994
154 0.003069
167 0.003038
175 0.002994
186 0.003008
124 0.003022
81 0.003933
69 0.003999
84 0.003988
121 0.00399
151 0.004029
157 0.004051
145 0.003986
136 0.003953
134 0.004958
142 0.005987
153 0.005984
163 0.006022
176 0.006018
183 0.005988
166 0.005988
87 0.005979
65 0.004986
73 0.003022
109 0.003004
129 0.002992
152 0.003014
151 0.002999
135 0.002999
129 0.003988
134 0.002997
144 0.002992
158 0.003007
166 0.0
179 0.001976
185 0.003004
134 0.003026
69 0.00399
61 0.003988
76 0.004025
113 0.003953
131 0.003991
147 0.005027
137 0.005019
129 0.005017
127 0.004957
138 0.004827
147 0.004965
162 0.00499
170 0.004988
182 0.005976
182 0.005984
127 0.004991
61 0.003985
60 0.005024
93 0.002985
115 0.001996
143 0.001993
148 0.003001
137 0.002992
128 0.000959
128 0.000958
137 0.0
154 0.0
160 0.0
173 0.003029
185 0.003002
187 0.003011
101 0.002994
65 0.00296
62 0.004979
96 0.005983
119 0.006022
143 0.004981
151 0.003991
144 0.003992
131 0.006979
131 0.003582
137 0.002955
150 0.002031
165 0.0
174 0.002996
184 0.0
191 0.002012
154 0.002007
67 0.002035
63 0.002992
81 0.002993
121 0.002992
152 0.004986
159 0.005001
148 0.00501
139 0.005016
136 0.004958
147 0.004982
156 0.004987
171 0.006028
182 0.00499
191 0.005017
194 0.004953
126 0.005981
66 0.005999
67 0.006035
88 0.004985
129 0.007977
156 0.004011
166 0.005955
157 0.002991
140 0.003048
138 0.001987
147 0.001995
158 0.0
166 0.0
179 0.0
190 0.001962
178 0.001983
76 0.00299
66 0.001
69 0.004988
108 0.005984
137 0.007019
151 0.006974
147 0.007013
135 0.005982
124 0.007027
131 0.006981
139 0.007939
149 0.007979
160 0.007949
172 0.007975
162 0.003028
100 0.005012
48 0.003002
58 0.002011
78 0.001011
112 0.002994
130 0.003967
128 0.0
116 0.003025
109 0.0
113 0.002993
125 0.003029
134 0.002993
148 0.002027
159 0.001944
159 0.001991
78 0.0
50 0.003025
47 0.0
73 0.002029
91 0.002042
116 0.001989
119 0.002025
113 0.002993
107 0.002992
113 0.005983
120 0.006978
131 0.006984
145 0.006019
152 0.006013
159 0.003985
115 0.006017
61 0.003995
51 0.005983
66 0.00411
91 0.005952
116 0.006018
124 0.005984
120 0.005984
115 0.005981
113 0.005985
122 0.002974
130 0.005984
144 0.004011
157 0.002988
164 0.003004
157 0.002992
104 0.002991
58 0.001997
68 0.0
87 0.000998
118 0.000963
134 0.002991
135 0.0
127 0.003028
121 0.001995
125 0.003034
134 0.003028
149 0.003014
158 0.00395
172 0.005984
180 0.005981
177 0.00796
91 0.00498
63 0.003994
72 0.002977
91 0.024967
125 0.004034
148 0.0
146 0.001985
131 0.000997
128 0.000998
135 0.001857
148 0.001996
156 0.001996
169 0.004992
179 0.004988
184 0.004963
131 0.005036
73 0.004957
65 0.00499
90 0.005018
112 0.004989
141 0.00499
148 0.00502
136 0.005994
125 0.005963
127 0.003983
133 0.003962
147 0.002985
159 0.003989
167 0.000966
175 0.0
129 0.002055
80 0.0
59 0.001955
81 0.002996
101 0.003943
129 0.004976
138 0.004988
131 0.004978
122 0.007013
121 0.006981
128 0.007968
139 0.006014
152 0.002993
160 0.00499
170 0.001989
153 0.0
94 0.000962
56 0.0
59 0.000941
87 0.0
110 0.003016
123 0.0
131 0.001053
121 0.002948
118 0.002991
122 0.003047
132 0.004983
143 0.005981
153 0.006037
161 0.018985
166 0.005947
166 0.005942
80 0.000954
59 0.002961
66 0.002991
98 0.0
115 0.000978
134 0.003978
135 0.0
125 0.003025
121 0.000958
125 0.000994
137 0.002992
146 0.003009
159 0.000969
170 0.002992
179 0.002046
172 0.002991
84 0.00399
65 0.003955
73 0.003025
93 0.003042
127 0.0
145 0.0
145 0.002993
136 0.003948
129 0.005941
135 0.005984
143 0.006828
154 0.006964
165 0.006982
176 0.006016
186 0.004973
183 0.005984
94 0.005022
70 0.005979
75 0.005972
110 0.005951
133 0.005996
158 0.00499
155 0.005984
140 0.002981
132 0.005986
138 0.005022
146 0.005022
160 0.001995
168 0.004987
180 0.002982
183 0.002019
133 0.002961
67 0.0
68 0.0
86 0.0
123 0.0
141 0.0
147 0.0
133 0.003033
124 0.000979
124 0.001995
135 0.002988
144 0.002994
157 0.002948
167 0.003991
176 0.003953
152 0.003827
69 0.005022
56 0.007019
64 0.007013
96 0.005993
115 0.007018
136 0.003959
131 0.002997
122 0.002001
117 0.002001
125 0.0
134 0.0
148 0.0
156 0.0
168 0.001011
168 0.0
120 0.0
61 0.0
61 0.001038
77 0.001045
110 0.001991
125 0.000998
133 0.00196
124 0.002025
116 0.002019
117 0.001001
125 0.001999
136 0.002031
150 0.001012
158 0.002014
168 0.003054
127 0.002998
80 0.002993
58 0.00396
67 0.003989
99 0.004988
128 0.005985
135 0.006031
134 0.005926
121 0.007976
119 0.003972
124 0.007023
137 0.006983
145 0.005984
159 0.005018
171 0.002992
171 0.005951
96 0.003027
69 0.005022
68 0.002989
97 0.002035
117 0.002996
140 0.0
135 0.0
126 0.0
120 0.0
122 0.01496
126 0.000996
147 0.001965
161 0.002992
168 0.002997
153 0.004994
86 0.006981
66 0.005928
67 0.007015
94 0.006087
113 0.005984
136 0.004025
132 0.002992
123 0.004022
117 0.001998
121 0.003998
132 0.0
145 0.0
153 0.0
163 0.0
121 0.0
79 0.0
60 0.0
68 0.0
97 0.000965
118 0.00399
128 0.0
126 0.0
115 0.0
115 0.0
123 0.0
131 0.0
144 0.0
154 0.0
160 0.0
153 0.0
104 0.0
62 0.0
68 0.0
84 0.000997
110 0.0
122 0.000997
127 0.001023
118 0.001998
116 0.001964
121 0.002034
133 0.001993
141 0.00196
154 0.003951
162 0.005995
167 0.005953
134 0.005984
72 0.006975
64 0.007022
74 0.005989
102 0.002986
117 0.003955
132 0.0
127 0.001006
121 0.0
119 0.0
127 0.0
137 0.001028
148 0.0
155 0.0
166 0.0
173 0.0
160 0.0
86 0.0
71 0.0
78 0.0
108 0.0
126 0.000953
143 0.001005
141 0.000998
129 0.002012
126 0.003023
131 0.003001
142 0.002982
156 0.002993
163 0.003852
175 0.005025
182 0.005982
181 0.006982
120 0.006012
77 0.004989
77 0.003985
103 0.004
131 0.005984
152 0.001995
156 0.003993
140 0.002992
134 0.002995
136 0.002984
143 0.00301
157 0.002993
170 0.0
177 0.002992
186 0.0
180 0.001
125 0.0
76 0.0
75 0.000999
100 0.001001
136 0.000965
153 0.000889
155 0.002012
136 0.003994
131 0.004995
135 0.005984
145 0.005984
154 0.005985
167 0.005985
178 0.007978
183 0.00399
158 0.003988
79 0.003025
67 0.002027
80 0.0
108 0.0
135 0.000998
150 0.001994
143 0.002993
133 0.003935
127 0.006032
136 0.006026
144 0.005984
158 0.005987
168 0.00594
175 0.004933
181 0.003007
97 0.003035
68 0.003983
65 0.002992
87 0.00399
115 0.002993
127 0.000997
145 0.002988
136 0.003992
123 0.003968
123 0.003989
133 0.002993
142 0.003987
157 0.0
170 0.001001
177 0.000972
171 0.0
83 0.000966
63 0.000997
69 0.0
102 0.001994
121 0.001988
142 0.003025
136 0.003022
127 0.003957
122 0.00396
126 0.003953
138 0.005984
150 0.006993
158 0.006979
168 0.006977
176 0.006984
146 0.00702
71 0.006942
64 0.003991
79 0.007014
114 0.004125
132 0.007004
145 0.002992
134 0.002973
127 0.003044
127 0.002993
138 0.002997
146 0.00399
160 0.002993
171 0.002995
179 0.0
150 0.001995
82 0.001031
64 0.002964
82 0.003026
104 0.001997
138 0.001995
151 0.002992
143 0.003958
130 0.003991
128 0.004998
133 0.00402
146 0.004988
154 0.004943
168 0.003949
178 0.004986
163 0.005019
79 0.004958
64 0.004978
75 0.004939
111 0.004963
131 0.005004
147 0.004955
137 0.005019
125 0.004994
123 0.004953
130 0.005004
140 0.004983
154 0.006985
161 0.007979
170 0.006006
144 0.003002
89 0.005952
58 0.003029
75 0.002992
95 0.002992
125 0.003007
135 0.002992
130 0.002958
118 0.0
117 0.0
126 0.000967
136 0.002992
146 0.0
156 0.003991
166 0.001005
155 0.0
76 0.0
58 0.0
67 0.001003
90 0.002961
113 0.001994
128 0.001963
126 0.002991
119 0.003988
115 0.006023
121 0.006017
131 0.007014
142 0.005959
155 0.005992
162 0.004989
165 0.004976
128 0.00499
66 0.004956
65 0.005029
80 0.004991
110 0.004969
125 0.004195
134 0.004997
127 0.007931
120 0.005955
121 0.007011
132 0.007011
141 0.00702
153 0.003989
160 0.007024
171 0.002991
161 0.002985
108 0.002997
66 0.002993
76 0.0
95 0.000967
121 0.0
142 0.001995
142 0.001991
130 0.001996
125 0.000998
129 0.001972
141 0.002043
150 0.002908
163 0.003991
172 0.005979
180 0.005984
171 0.007947
156 0.0
116 0.003045
72 0.007977
105 0.004991
131 0.008006
149 0.004006
146 0.004036
137 0.002038
130 0.002991
133 0.004019
145 0.002985
160 0.002997
168 0.003035
181 0.002999
188 0.003024
163 0.001002
89 0.002994
68 0.00304
80 0.002032
117 0.002026
138 0.0
158 0.002012
152 0.0
139 0.0
133 0.0
141 0.002047
148 0.002033
163 0.001987
171 0.003088
183 0.001998
186 0.002028
136 0.001996
71 0.002979
68 0.003026
96 0.003001
133 0.005952
151 0.004982
155 0.004988
141 0.005955
132 0.005983
133 0.006983
144 0.006985
152 0.006979
165 0.006983
172 0.00799
181 0.006987
127 0.004975
79 0.006023
62 0.003989
88 0.000997
109 0.001009
139 0.003006
143 0.000967
135 0.000969
124 0.002043
125 0.0
136 0.0
146 0.002998
157 0.0
167 0.003028
174 0.004024
141 0.002992
66 0.003027
56 0.003028
75 0.004024
103 0.0
125 0.0
137 0.000999
129 0.000998
122 0.000864
120 0.000998
131 0.00298
139 0.002993
153 0.003012
161 0.002954
171 0.002957
135 0.003023
82 0.004003
57 0.003959
76 0.004985
96 0.00498
119 0.005982
134 0.007985
132 0.003992
123 0.007021
119 0.00398
123 0.005987
136 0.003989
144 0.004038
157 0.001989
169 0.002994
173 0.002985
114 0.0
61 0.001
60 0.000979
86 0.00098
106 0.0
127 0.0
136 0.001997
131 0.001974
121 0.001957
124 0.001991
130 0.001849
144 0.001961
154 0.001995
164 0.001996
172 0.003005
177 0.00399
126 0.003967
66 0.005004
63 0.006954
88 0.006981
115 0.004987
133 0.006977
145 0.003989
135 0.003975
128 0.003979
129 0.005011
135 0.003996
149 0.003989
163 0.003008
171 0.00303
182 0.001004
184 0.003025
122 0.001004
72 0.003003
72 0.0
91 0.000997
128 0.001018
151 0.000997
156 0.003862
145 0.003001
133 0.002991
134 0.002998
136 0.001015
148 0.0
168 0.002983
181 0.003955
188 0.004024
165 0.003972
78 0.004977
66 0.005978
85 0.005989
101 0.005991
138 0.004949
157 0.007949
156 0.004998
138 0.007976
133 0.007978
136 0.006982
148 0.005026
162 0.0
169 0.002994
181 0.003027
168 0.0
103 0.0
63 0.0
68 0.0
88 0.002001
122 0.001996
138 0.001999
143 0.00396
127 0.003981
122 0.004005
127 0.003989
140 0.003991
148 0.003985
160 0.004987
168 0.006975
169 0.005984
88 0.006985
59 0.005987
58 0.007853
80 0.007979
99 0.005983
123 0.004016
125 0.00299
119 0.002993
111 0.0
117 0.000949
