121 0.020944
124 0.004987
131 0.004988
140 0.004954
141 0.004986
65 0.003989
43 0.00403
50 0.004031
69 0.004005
90 0.003989
114 0.003991
124 0.003956
122 0.003981
115 0.00399
110 0.00399
112 0.003998
119 0.003943
133 0.003024
140 0.003022
145 0.004034
116 0.003027
62 0.003998
41 0.004032
53 0.003989
74 0.003942
94 0.00399
111 0.003989
122 0.004046
121 0.00399
112 0.002992
114 0.003137
119 0.003028
126 0.003026
134 0.003018
142 0.00299
140 0.00299
90 0.002992
45 0.001989
34 0.003027
47 0.003011
78 0.003022
107 0.002992
126 0.001995
129 0.002964
123 0.002992
119 0.003042
119 0.002991
125 0.003021
133 0.002992
140 0.002992
147 0.002992
152 0.00299
100 0.002956
43 0.001993
45 0.002045
65 0.002021
88 0.002027
106 0.001995
120 0.002996
123 0.002993
118 0.002993
114 0.002993
114 0.001994
119 0.003038
132 0.003026
140 0.003087
149 0.001965
156 0.002036
150 0.00295
93 0.002014
48 0.002027
46 0.001995
67 0.001982
91 0.00203
111 0.001995
127 0.001995
133 0.000949
125 0.000997
120 0.001994
124 0.001032
130 0.001997
137 0.001989
146 0.00203
153 0.001995
160 0.001994
166 0.002027
167 0.002006
117 0.001999
52 0.00106
58 0.000997
80 0.000938
109 0.001996
125 0.00199
138 0.001997
138 0.001995
130 0.001985
122 0.001995
124 0.000998
130 0.001034
139 0.000997
154 0.001004
162 0.000998
169 0.000997
151 0.0
89 0.000999
54 0.000997
55 0.001995
73 0.001015
104 0.002024
123 0.000996
139 0.001001
144 0.000997
130 0.000989
127 0.00097
129 0.001051
136 0.000997
142 0.000966
148 0.000997
154 0.000998
161 0.000997
146 0.000997
82 0.000998
45 0.0
43 0.0
79 0.0
100 0.0
118 0.001005
133 0.000997
131 0.00097
124 0.000995
120 0.000998
122 0.000995
131 0.0
139 0.0
147 0.001009
155 0.000992
167 0.0
144 0.0
79 0.0
41 0.0
50 0.0
72 0.0
94 0.0
113 0.000999
131 0.0
132 0.0
125 0.0
120 0.0
123 0.001002
130 0.000988
138 0.0
146 0.0
155 0.0
162 0.0
168 0.0
140 0.0
76 0.0
43 0.0
55 0.000997
78 0.001036
114 0.001005
130 0.001002
136 0.000997
131 0.001
120 0.001013
119 0.000998
123 0.001012
132 0.000963
140 0.000998
150 0.0
156 0.0
165 0.000999
154 0.000957
93 0.000982
52 0.000998
49 0.000998
74 0.000963
99 0.000994
119 0.000998
135 0.000998
139 0.001997
126 0.001997
117 0.001996
120 0.001994
128 0.002028
136 0.002028
144 0.001025
150 0.001033
159 0.001043
150 0.000998
94 0.001029
51 0.001033
45 0.000997
70 0.001995
94 0.001996
126 0.001962
136 0.002011
132 0.001959
119 0.001976
117 0.001995
122 0.002002
129 0.001995
138 0.001997
146 0.00103
153 0.000998
162 0.001995
139 0.001994
50 0.001995
42 0.001993
57 0.001985
89 0.001969
109 0.001961
125 0.001931
132 0.001994
127 0.001996
118 0.001992
117 0.001047
121 0.000999
130 0.002992
143 0.001963
151 0.002017
157 0.001978
162 0.001987
136 0.001996
55 0.002002
36 0.001994
46 0.003067
77 0.001005
97 0.001004
114 0.000998
125 0.003018
120 0.000996
114 0.00296
114 0.002973
122 0.001996
130 0.002044
139 0.000953
147 0.001992
153 0.002995
158 0.000997
162 0.000998
167 0.001017
150 0.003003
52 0.000999
38 0.00295
52 0.002996
84 0.000997
104 0.000997
120 0.001001
130 0.004007
128 0.003024
118 0.001005
116 0.000974
120 0.000971
128 0.002991
144 0.0
152 0.003024
158 0.003026
165 0.0
168 0.0
170 0.0
174 0.004058
163 0.004023
80 0.0
49 0.0
51 0.0
73 0.003989
110 0.0
127 0.004031
137 0.004008
131 0.001016
121 0.000998
117 0.0
120 0.004013
128 0.00399
141 0.0
149 0.0
155 0.001011
163 0.0
167 0.000998
172 0.0
155 0.003996
93 0.004986
49 0.000975
55 0.0
77 0.0
100 0.004021
119 0.003991
139 0.0
140 0.0
125 0.000946
123 0.0
126 0.000981
134 0.004014
143 0.004016
154 0.0
161 0.001028
166 0.000989
173 0.00499
179 0.00502
163 0.000979
94 0.000996
43 0.001034
55 0.000958
78 0.0
100 0.004987
117 0.004985
134 0.001964
134 0.001008
127 0.002026
121 0.004986
122 0.004987
129 0.001029
138 0.000998
153 0.0
161 0.001047
167 0.001962
172 0.005995
178 0.005982
140 0.001994
75 0.002015
47 0.001995
53 0.004984
74 0.005032
104 0.001029
122 0.000994
139 0.001055
134 0.001943
125 0.001994
121 0.006022
124 0.005985
133 0.00199
143 0.001995
152 0.002067
160 0.005984
167 0.006014
175 0.001994
179 0.001999
114 0.001998
63 0.002992
51 0.002994
65 0.005985
89 0.005954
109 0.005985
133 0.002963
142 0.002993
139 0.002032
130 0.005983
127 0.001993
125 0.001993
142 0.000997
164 0.0
175 0.000986
172 0.000996
114 0.000962
65 0.001978
55 0.006003
70 0.006014
101 0.001984
128 0.006982
147 0.002993
146 0.002974
133 0.002986
124 0.007012
123 0.006981
132 0.003014
140 0.003022
149 0.003022
157 0.00698
164 0.006952
171 0.00396
169 0.007001
96 0.003984
60 0.002986
58 0.003034
75 0.007007
97 0.00702
124 0.00299
139 0.003023
142 0.002993
132 0.007935
118 0.007972
118 0.002988
129 0.007996
137 0.002963
144 0.002992
150 0.003015
157 0.007055
163 0.007022
110 0.003024
61 0.00399
49 0.002983
60 0.00695
82 0.007977
122 0.007991
135 0.007976
134 0.003966
123 0.003984
116 0.00399
117 0.007993
121 0.007963
131 0.003988
140 0.003996
147 0.004037
154 0.007952
158 0.007979
70 0.007982
46 0.007979
39 0.007979
61 0.004976
83 0.003989
102 0.004002
120 0.007978
122 0.006979
115 0.005002
106 0.005014
104 0.004948
112 0.006982
123 0.004025
133 0.007
138 0.00695
144 0.003005
148 0.003035
114 0.00394
48 0.007987
38 0.006979
49 0.004987
70 0.004028
91 0.005001
114 0.006984
121 0.004962
111 0.007
104 0.00698
104 0.005024
110 0.004045
118 0.006033
129 0.006982
134 0.006932
140 0.005993
143 0.00497
134 0.005947
81 0.00701
38 0.005947
46 0.006982
67 0.006981
88 0.004976
105 0.004986
117 0.004993
117 0.005976
108 0.005984
101 0.005962
105 0.005898
114 0.005947
123 0.005988
134 0.004983
142 0.005991
146 0.005959
150 0.004992
153 0.00499
135 0.003995
59 0.007007
38 0.006017
52 0.005961
66 0.005977
87 0.005976
110 0.006011
121 0.005979
113 0.005978
102 0.005993
100 0.005997
105 0.005978
119 0.006001
126 0.00599
136 0.006988
142 0.005975
147 0.005957
150 0.004971
152 0.005982
77 0.005983
47 0.006022
48 0.005038
66 0.00501
94 0.004974
112 0.004936
125 0.004987
127 0.004986
119 0.005021
108 0.004993
113 0.004947
123 0.005942
142 0.00499
151 0.005979
156 0.005988
161 0.004957
167 0.004993
166 0.004934
121 0.004987
66 0.005018
48 0.004986
64 0.005014
86 0.005018
116 0.005
130 0.00497
134 0.004973
129 0.003984
120 0.004039
119 0.005005
126 0.004021
136 0.004968
145 0.005001
152 0.004975
160 0.005019
164 0.004986
166 0.0
172 0.004989
164 0.004976
107 0.005016
59 0.004034
50 0.003958
68 0.003984
90 0.003972
109 0.004023
123 0.003989
133 0.004023
130 0.003977
118 0.005012
120 0.003993
127 0.004959
136 0.004034
145 0.003951
156 0.003973
162 0.004022
167 0.004034
171 0.004022
174 0.003991
178 0.003937
172 0.004982
95 0.003989
54 0.003015
60 0.002954
81 0.002995
105 0.002984
124 0.002991
142 0.003956
143 0.003949
136 0.003992
128 0.00402
125 0.00399
133 0.003023
146 0.002993
159 0.003037
166 0.002991
171 0.002991
175 0.002987
178 0.002997
183 0.002998
169 0.003052
106 0.002954
65 0.002992
60 0.003955
85 0.003959
115 0.002991
139 0.004986
149 0.004986
152 0.005983
152 0.001996
149 0.001993
138 0.000997
131 0.0
145 0.002993
154 0.002993
162 0.002994
170 0.002993
178 0.003025
168 0.001995
106 0.002955
65 0.002992
60 0.002992
77 0.002991
109 0.002998
129 0.001995
148 0.001995
157 0.002993
151 0.002993
136 0.002992
134 0.001994
141 0.001995
150 0.001995
160 0.001995
168 0.001995
176 0.001998
185 0.001994
181 0.002963
119 0.002994
60 0.001996
46 0.001996
65 0.000998
98 0.001994
124 0.001995
138 0.001995
141 0.001995
132 0.00197
122 0.001945
120 0.002053
127 0.002026
136 0.001995
146 0.001996
154 0.001995
161 0.002001
171 0.001997
169 0.000967
91 0.001995
46 0.000982
41 0.000999
58 0.000963
91 0.017951
99 0.005985
111 0.001995
131 0.001994
116 0.000998
123 0.000998
135 0.000997
144 0.000998
152 0.000998
157 0.001005
162 0.000997
168 0.000998
145 0.0
79 0.0
43 0.001011
55 0.0
80 0.001006
103 0.000998
126 0.001006
132 0.001014
125 0.001018
114 0.000978
108 0.001034
114 0.000975
124 0.000935
133 0.000998
141 0.000997
152 0.0
157 0.0
158 0.000997
97 0.0
51 0.000966
44 0.0
60 0.001007
84 0.0
113 0.000983
130 0.001007
132 0.001008
122 0.000998
105 0.00098
105 0.002992
114 0.0
123 0.00399
129 0.004986
135 0.002993
145 0.0
156 0.0
130 0.00095
66 0.000992
34 0.0
36 0.000998
73 0.0
95 0.000999
113 0.0
123 0.021942
123 0.002993
115 0.001994
108 0.0
104 0.000997
127 0.001995
139 0.0
146 0.000998
150 0.016954
154 0.001994
155 0.001995
53 0.001011
29 0.0
42 0.0
66 0.000998
87 0.000998
103 0.001045
114 0.000973
112 0.001053
104 0.000966
100 0.000998
108 0.000995
119 0.000949
131 0.000998
142 0.000999
148 0.000963
154 0.000997
158 0.000998
162 0.000997
119 0.001019
56 0.000997
34 0.000997
57 0.002002
82 0.005983
101 0.007979
112 0.0
121 0.0
125 0.000997
109 0.000999
115 0.001994
129 0.001997
140 0.001995
148 0.000997
158 0.001995
162 0.002005
164 0.001975
168 0.002016
151 0.001971
86 0.001026
48 0.001947
48 0.002041
67 0.001995
99 0.001997
116 0.001997
135 0.001995
130 0.002025
116 0.001968
113 0.001961
116 0.001962
130 0.002029
141 0.001993
150 0.001995
156 0.002009
162 0.002065
166 0.002958
169 0.002051
124 0.002002
65 0.00207
46 0.001993
63 0.001986
88 0.001997
110 0.001964
127 0.001997
139 0.002956
138 0.002006
127 0.000994
122 0.001995
125 0.00294
141 0.002011
152 0.002992
160 0.002993
169 0.001025
173 0.001955
176 0.001995
181 0.001997
182 0.003026
109 0.000996
55 0.002991
44 0.000983
58 0.003024
99 0.000972
116 0.002993
131 0.00302
137 0.001014
131 0.001014
124 0.000997
122 0.002977
129 0.00401
142 0.000973
152 0.0
161 0.000995
168 0.002998
176 0.0
179 0.002989
184 0.002993
183 0.002991
129 0.001019
66 0.001003
48 0.003048
59 0.00399
93 0.0
114 0.001011
131 0.0
142 0.00404
139 0.0
130 0.004015
128 0.002979
135 0.00106
144 0.0
156 0.0
165 0.003959
174 0.00399
184 0.000966
188 0.000998
192 0.0
197 0.003988
182 0.0
109 0.00399
61 0.003988
60 0.000963
83 0.0
110 0.0
130 0.003992
147 0.003988
157 0.00399
148 0.0
137 0.0
133 0.0
143 0.000996
153 0.000962
164 0.003962
175 0.003989
187 0.000997
196 0.0
204 0.001047
210 0.004984
217 0.004998
178 0.0
97 0.001058
61 0.000981
78 0.0
105 0.001011
129 0.004049
150 0.003989
170 0.000997
167 0.000997
150 0.000999
139 0.004992
138 0.004988
148 0.001995
169 0.000998
186 0.003949
193 0.00499
202 0.002021
209 0.005026
214 0.005031
219 0.00097
175 0.001005
93 0.0
60 0.004987
63 0.004994
92 0.0
115 0.0
151 0.000997
164 0.000989
157 0.000995
137 0.005003
124 0.005985
125 0.002007
134 0.001016
146 0.00094
159 0.006034
171 0.006006
185 0.002009
195 0.002009
164 0.000997
84 0.001996
45 0.001977
45 0.005984
64 0.006017
95 0.002001
117 0.001977
136 0.00198
143 0.006006
132 0.006021
116 0.001958
114 0.002001
123 0.006997
137 0.001995
147 0.001994
158 0.002992
166 0.007015
175 0.006992
164 0.002995
91 0.001995
41 0.001956
33 0.005981
51 0.006031
84 0.002993
109 0.005983
127 0.002987
125 0.002994
115 0.002996
108 0.007021
109 0.007008
119 0.003025
130 0.00198
141 0.001968
151 0.006983
160 0.00602
172 0.002042
142 0.006009
57 0.002993
38 0.002968
48 0.001998
72 0.007013
95 0.007031
120 0.001987
131 0.001957
127 0.002991
115 0.007062
109 0.00704
112 0.003016
124 0.007024
137 0.001998
145 0.003989
151 0.002992
157 0.007981
161 0.006987
104 0.003983
51 0.002986
39 0.002993
52 0.007019
76 0.007011
104 0.002933
124 0.007023
126 0.004
115 0.003003
107 0.002948
109 0.00794
114 0.007979
127 0.003985
136 0.003984
144 0.004025
149 0.00697
156 0.007016
139 0.003986
49 0.007977
37 0.004991
49 0.003926
72 0.005035
94 0.007966
111 0.007979
124 0.004975
121 0.004988
112 0.005039
105 0.004958
111 0.006981
120 0.007016
136 0.006993
144 0.007008
148 0.00493
152 0.004933
156 0.005024
149 0.007971
91 0.007949
42 0.005002
31 0.00404
45 0.004017
74 0.00798
96 0.004939
112 0.007021
114 0.006982
107 0.004965
100 0.002993
99 0.004016
110 0.006937
122 0.00698
132 0.004029
140 0.004017
145 0.004995
149 0.007006
153 0.003984
149 0.006988
101 0.006937
51 0.00502
39 0.004979
51 0.004994
80 0.006976
98 0.005983
115 0.005984
120 0.004999
119 0.005022
109 0.006996
105 0.00495
115 0.006009
126 0.00693
136 0.005985
146 0.005983
149 0.005974
155 0.006926
157 0.006957
158 0.005021
161 0.005983
160 0.005021
93 0.007009
44 0.00595
52 0.005989
75 0.005965
101 0.005997
111 0.005956
124 0.00596
124 0.006019
114 0.005981
106 0.00602
110 0.005986
121 0.005951
132 0.006931
145 0.005946
152 0.006932
155 0.005984
157 0.005975
160 0.006016
158 0.005955
138 0.005979
64 0.006002
45 0.006018
61 0.005973
78 0.005985
101 0.005983
135 0.005983
137 0.005043
130 0.004995
120 0.004882
119 0.006008
127 0.005964
137 0.005982
147 0.004985
156 0.005983
164 0.006007
169 0.005951
170 0.005984
177 0.005985
158 0.004978
93 0.005995
51 0.004952
50 0.004979
71 0.004989
94 0.005029
113 0.004986
126 0.005053
135 0.004977
130 0.005045
122 0.004978
123 0.005972
132 0.005002
143 0.004988
153 0.004991
163 0.005019
169 0.004986
174 0.004986
177 0.004996
178 0.004993
183 0.004964
185 0.004939
151 0.004962
55 0.004956
47 0.003997
63 0.003978
89 0.003979
116 0.004022
131 0.004022
139 0.00502
137 0.004971
129 0.004987
123 0.004015
128 0.003963
144 0.004977
155 0.004993
165 0.003978
173 0.003986
179 0.004013
184 0.004025
187 0.003993
188 0.003979
191 0.003978
195 0.004021
129 0.003954
68 0.003938
57 0.00399
80 0.003935
107 0.003988
128 0.003984
144 0.003956
155 0.003995
144 0.003998
132 0.003992
129 0.003985
133 0.004019
143 0.004007
159 0.003005
174 0.004025
185 0.002969
190 0.002981
194 0.002992
197 0.003024
202 0.003022
192 0.004002
120 0.003984
67 0.002991
58 0.003996
74 0.003991
109 0.003027
137 0.003029
162 0.002988
164 0.002986
150 0.003014
136 0.002033
132 0.002946
140 0.00204
151 0.003027
164 0.002025
175 0.001993
185 0.00299
197 0.003003
208 0.003036
215 0.003033
166 0.003
83 0.002997
50 0.002993
54 0.002976
86 0.002951
111 0.002978
133 0.002995
153 0.002028
162 0.001998
148 0.001966
131 0.001995
132 0.002017
141 0.001993
152 0.003008
165 0.003012
177 0.002992
190 0.003017
199 0.002025
208 0.001972
211 0.001984
157 0.001991
55 0.001966
40 0.001992
67 0.002027
93 0.001985
115 0.001994
134 0.001954
145 0.001969
135 0.000998
121 0.000965
117 0.002957
120 0.001941
130 0.002
141 0.002018
161 0.001995
170 0.001998
182 0.001963
190 0.002992
195 0.001951
144 0.0
64 0.000996
33 0.000996
46 0.001007
72 0.002001
98 0.001028
118 0.000997
140 0.001989
131 0.000953
113 0.002024
110 0.002001
115 0.001972
125 0.001961
137 0.001006
152 0.000997
160 0.000998
168 0.000964
174 0.000972
180 0.000997
102 0.001002
47 0.000997
39 0.001955
58 0.000967
84 0.00205
107 0.000964
127 0.001026
135 0.00095
122 0.000998
108 0.000964
105 0.000966
116 0.000997
128 0.000997
139 0.000998
150 0.0
157 0.0
164 0.0
166 0.0
119 0.0
46 0.000997
36 0.0
51 0.0
77 0.00097
114 0.000993
132 0.001005
134 0.001033
117 0.000955
109 0.0
109 0.0
116 0.0
126 0.0
141 0.0
150 0.0
155 0.0
161 0.0
162 0.0
106 0.0
44 0.0
27 0.0
44 0.001006
68 0.0
90 0.0
107 0.0
119 0.0
115 0.0
104 0.0
99 0.0
108 0.0
118 0.0
129 0.000968
139 0.001002
147 0.001005
151 0.001014
156 0.001015
146 0.001965
83 0.001007
23 0.000997
22 0.002042
42 0.001012
80 0.000991
97 0.000999
109 0.000998
113 0.001014
103 0.00101
96 0.000999
99 0.001037
108 0.000997
120 0.001007
134 0.000996
141 0.001036
148 0.002006
153 0.001996
156 0.001996
159 0.000998
151 0.000964
66 0.000991
28 0.000968
27 0.000977
45 0.000998
69 0.001033
93 0.001014
106 0.000992
114 0.001002
105 0.000998
98 0.002001
100 0.001996
112 0.001994
124 0.001999
135 0.002027
144 0.002009
150 0.001996
154 0.001035
158 0.00103
159 0.001012
161 0.00197
167 0.00201
141 0.001031
73 0.001996
38 0.001998
44 0.002025
67 0.002021
91 0.002005
108 0.00206
123 0.002017
128 0.001996
119 0.00199
111 0.002995
114 0.002032
125 0.002993
135 0.001989
149 0.001969
157 0.001992
162 0.001993
165 0.002005
168 0.001936
169 0.002016
170 0.001978
175 0.002985
127 0.00099
69 0.00301
52 0.003025
69 0.000997
95 0.001963
117 0.002002
134 0.002953
147 0.001998
141 0.002007
129 0.001996
123 0.000998
125 0.002993
142 0.00099
152 0.003023
162 0.002993
171 0.001988
175 0.002018
178 0.002031
180 0.003024
181 0.003053
185 0.001
183 0.002002
132 0.001017
72 0.003946
57 0.000997
78 0.002992
105 0.002994
132 0.001014
147 0.00097
151 0.000967
142 0.002991
132 0.002966
128 0.0
134 0.0
144 0.001967
155 0.003988
170 0.000988
177 0.004024
183 0.00399
187 0.000988
189 0.001996
193 0.000987
193 0.003003
147 0.002991
68 0.0
57 0.000996
71 0.0
97 0.004023
135 0.0
152 0.003989
160 0.003987
147 0.0
136 0.0
134 0.0
139 0.004962
148 0.003988
159 0.004032
174 0.000965
182 0.001998
188 0.0
194 0.0
197 0.001002
202 0.004988
183 0.004988
91 0.000956
61 0.001984
64 0.0
86 0.00499
112 0.004959
139 0.002019
157 0.0
162 0.001036
141 0.000997
131 0.0
132 0.004005
139 0.004014
154 0.0
165 0.000987
174 0.001019
181 0.005037
185 0.004984
191 0.001003
191 0.000998
139 0.000964
59 0.001
60 0.001021
80 0.00499
105 0.004986
134 0.001968
153 0.00198
160 0.000998
151 0.005038
137 0.004995
131 0.000998
135 0.000936
145 0.001003
163 0.001005
172 0.000977
178 0.005011
183 0.00504
191 0.000997
168 0.000996
92 0.001999
50 0.006073
45 0.006017
71 0.001986
97 0.001993
128 0.000994
140 0.002022
137 0.002029
127 0.005984
118 0.006019
119 0.001994
127 0.002007
137 0.001967
147 0.005972
155 0.00601
163 0.001993
168 0.002962
155 0.000952
88 0.002962
43 0.001996
38 0.001998
54 0.005994
79 0.005956
107 0.001939
123 0.001973
131 0.002996
125 0.005965
116 0.005999
110 0.001008
118 0.007012
130 0.001929
139 0.001999
147 0.002001
152 0.005982
158 0.00602
161 0.001995
120 0.002009
59 0.001995
37 0.005983
45 0.005985
76 0.001994
107 0.007035
129 0.002996
133 0.002987
126 0.00299
118 0.006963
116 0.007012
125 0.003041
135 0.002002
145 0.001995
153 0.007014
159 0.00702
167 0.001996
156 0.006015
77 0.002992
48 0.002941
51 0.002992
71 0.007018
97 0.00698
126 0.002991
140 0.002992
139 0.003034
126 0.00695
114 0.008
116 0.002991
128 0.007012
142 0.002992
150 0.004017
158 0.003993
165 0.00798
159 0.00798
82 0.003984
47 0.002989
47 0.00304
76 0.007977
101 0.007983
123 0.002011
142 0.007012
135 0.002992
123 0.002957
118 0.003024
121 0.006983
133 0.007913
144 0.003022
153 0.004016
161 0.003985
168 0.004052
171 0.007994
105 0.007944
39 0.007971
46 0.007978
68 0.003981
94 0.003989
114 0.003968
132 0.006971
133 0.007947
125 0.005027
117 0.003987
115 0.003977
126 0.00792
137 0.006978
151 0.007978
159 0.007978
165 0.004915
171 0.005027
172 0.004986
101 0.007845
48 0.006982
36 0.003992
51 0.004995
77 0.004997
106 0.006944
121 0.006934
131 0.00798
124 0.008013
117 0.004936
116 0.004963
122 0.004978
137 0.006949
148 0.006939
157 0.006019
164 0.004989
168 0.00499
173 0.006982
176 0.004963
179 0.006964
136 0.007014
65 0.004985
39 0.005008
53 0.005947
78 0.005974
103 0.005993
125 0.00598
133 0.005981
134 0.005953
121 0.006984
113 0.005035
120 0.006991
132 0.006982
146 0.005943
155 0.005984
161 0.00595
165 0.005954
167 0.005997
173 0.005997
175 0.005984
137 0.00598
72 0.005966
51 0.005966
71 0.00599
98 0.005995
120 0.006017
144 0.00599
150 0.005004
141 0.005945
130 0.005018
126 0.005002
131 0.005985
145 0.005986
157 0.005981
172 0.005949
179 0.005967
186 0.005985
192 0.006003
184 0.005972
119 0.005981
55 0.005008
54 0.00497
74 0.004979
108 0.004996
129 0.004989
147 0.004014
148 0.00498
136 0.004936
128 0.005019
129 0.00504
140 0.00504
151 0.005017
162 0.005017
171 0.005016
177 0.003992
184 0.004992
189 0.004992
192 0.004967
90 0.004993
45 0.00497
43 0.003961
65 0.005033
101 0.004991
122 0.003985
140 0.003977
149 0.00403
144 0.005024
129 0.005066
125 0.00498
129 0.004963
147 0.004954
159 0.004986
170 0.005041
179 0.003978
190 0.004066
198 0.004018
203 0.003976
159 0.003988
77 0.004027
46 0.00399
60 0.003962
87 0.004015
128 0.00398
147 0.004951
157 0.004015
147 0.004986
131 0.003989
124 0.003989
129 0.00399
140 0.003984
152 0.003989
164 0.003988
177 0.003979
186 0.003999
187 0.00399
119 0.002996
61 0.003992
49 0.003983
65 0.002992
101 0.004055
125 0.002962
148 0.003968
161 0.004021
155 0.002958
134 0.002994
130 0.003029
140 0.004006
151 0.003055
163 0.002991
173 0.003023
184 0.003964
198 0.003041
185 0.002996
102 0.002994
47 0.002994
39 0.002958
66 0.002991
101 0.002992
129 0.002993
143 0.002994
141 0.002992
128 0.002992
118 0.003023
120 0.002016
129 0.002009
141 0.001994
153 0.002061
165 0.003038
178 0.002994
190 0.003025
149 0.003008
68 0.002992
35 0.003025
39 0.002982
63 0.003023
98 0.002985
118 0.001991
134 0.001982
135 0.001902
123 0.002049
111 0.001994
116 0.002028
128 0.002029
140 0.001989
150 0.002993
158 0.00299
164 0.002992
172 0.002971
153 0.001961
85 0.002001
42 0.001995
38 0.001967
56 0.001032
99 0.000998
120 0.001051
137 0.001041
130 0.002034
116 0.000997
109 0.000999
112 0.000997
124 0.002013
135 0.001994
146 0.000994
155 0.001995
162 0.00201
169 0.001995
128 0.001995
46 0.002028
31 0.001042
44 0.000965
70 0.001019
94 0.000999
120 0.001985
131 0.002006
125 0.000994
115 0.002041
108 0.001945
115 0.000997
125 0.00196
139 0.000998
148 0.002016
154 0.000997
159 0.001033
164 0.000999
161 0.000969
101 0.000965
40 0.000994
23 0.000999
35 0.001027
79 0.0
99 0.0
119 0.000997
121 0.001995
114 0.0
104 0.0
101 0.00099
108 0.001027
118 0.000974
127 0.001002
135 0.0
142 0.0
148 0.0
148 0.0
142 0.0
107 0.0
48 0.0
25 0.0
31 0.0
60 0.000939
80 0.001006
93 0.0
106 0.0
112 0.000997
106 0.0
102 0.0
105 0.0
116 0.0
127 0.0
135 0.0
142 0.0
147 0.000995
153 0.000972
159 0.001007
158 0.000967
69 0.000972
41 0.000997
46 0.002032
70 0.001
103 0.000994
122 0.000999
136 0.000999
137 0.000998
129 0.001005
117 0.001012
114 0.001006
120 0.001009
135 0.000998
143 0.001
151 0.001029
156 0.000998
164 0.000997
164 0.000997
126 0.002039
64 0.002993
42 0.001988
59 0.001002
86 0.000956
111 0.000953
140 0.00103
146 0.001996
140 0.001996
132 0.000998
132 0.000996
139 0.001004
151 0.001996
165 0.001027
178 0.002026
193 0.001968
201 0.001982
203 0.002009
141 0.002031
78 0.001028
62 0.00104
75 0.000994
111 0.001032
134 0.001032
154 0.001032
166 0.000993
165 0.001994
150 0.002005
143 0.001995
143 0.001988
156 0.00199
166 0.001983
177 0.002036
187 0.001995
195 0.002025
201 0.001997
201 0.001991
145 0.001032
72 0.001936
65 0.001968
85 0.002998
113 0.001964
150 0.002035
166 0.001997
170 0.001995
159 0.001996
146 0.002047
140 0.002996
144 0.002025
156 0.000998
166 0.001995
176 0.001996
184 0.002983
193 0.002999
146 0.001995
83 0.002056
65 0.002029
74 0.001983
96 0.001995
128 0.001994
148 0.002993
163 0.001991
157 0.001994
145 0.000997
138 0.003016
140 0.003015
155 0.003005
165 0.002996
176 0.00099
186 0.001994
191 0.001995
159 0.002953
90 0.002992
63 0.001089
75 0.00197
98 0.002025
122 0.002993
140 0.00399
158 0.002993
154 0.002993
140 0.002024
133 0.001005
136 0.000966
145 0.00399
156 0.003985
168 0.001005
174 0.000964
179 0.000995
171 0.002953
82 0.001993
65 0.003026
74 0.003023
103 0.000979
125 0.0
143 0.0
156 0.003989
157 0.003976
146 0.0
139 0.001001
140 0.001036
146 0.003032
161 0.001017
168 0.0
175 0.003033
181 0.002992
172 0.0
111 0.0
70 0.000997
67 0.004055
83 0.004022
116 0.0
137 0.0
153 0.000982
156 0.0
146 0.000998
136 0.004987
136 0.005006
144 0.001
153 0.0
161 0.0
167 0.004004
173 0.004019
179 0.0
162 0.0
97 0.001042
61 0.0
75 0.0
98 0.004994
122 0.005064
146 0.000996
155 0.00198
151 0.001995
141 0.004983
132 0.005015
134 0.001975
142 0.001994
152 0.002009
166 0.001029
171 0.000992
175 0.005031
179 0.004975
137 0.0
78 0.000998
62 0.00202
71 0.00498
94 0.004991
127 0.000963
145 0.000997
156 0.001017
150 0.001017
139 0.001001
134 0.005954
138 0.005975
151 0.000994
161 0.000978
169 0.000976
174 0.005008
178 0.005012
183 0.001994
162 0.001994
99 0.002001
72 0.002004
87 0.002015
112 0.006006
135 0.006013
158 0.002014
163 0.001992
158 0.001031
146 0.002001
137 0.005984
139 0.005984
150 0.001978
159 0.001992
172 0.001994
176 0.002024
180 0.002027
184 0.005986
168 0.006015
89 0.002
70 0.002011
79 0.001993
100 0.005981
125 0.007017
151 0.003017
161 0.001981
152 0.001983
139 0.001997
133 0.002048
138 0.006985
147 0.006042
159 0.00201
167 0.002008
172 0.002987
175 0.006013
179 0.007025
169 0.001955
94 0.007012
69 0.002001
80 0.001992
103 0.002027
127 0.007012
144 0.007012
156 0.000986
150 0.000988
136 0.001994
126 0.006983
126 0.007016
136 0.002032
149 0.006983
158 0.002994
163 0.002004
167 0.001989
170 0.006861
151 0.007014
79 0.00299
64 0.002016
71 0.002991
93 0.006981
122 0.007932
140 0.003
149 0.007936
138 0.002994
125 0.003002
121 0.003064
126 0.007005
136 0.006992
150 0.00299
157 0.003991
162 0.004017
167 0.007961
167 0.007999
131 0.002997
68 0.007962
65 0.003957
84 0.003967
108 0.002999
133 0.006984
146 0.007005
149 0.007979
138 0.00396
125 0.00396
121 0.003962
129 0.007981
140 0.007972
151 0.007956
158 0.007948
165 0.003988
169 0.003987
151 0.003992
76 0.007963
59 0.007983
67 0.005027
90 0.004028
114 0.003993
137 0.007027
145 0.007988
139 0.007942
127 0.007987
119 0.00401
126 0.003989
137 0.004012
150 0.006968
158 0.006976
164 0.004031
168 0.004018
167 0.003992
103 0.007008
60 0.006952
66 0.005983
88 0.006982
110 0.004986
127 0.002993
139 0.00399
136 0.006982
123 0.006977
114 0.00499
116 0.003972
125 0.004984
139 0.006995
147 0.006942
158 0.006981
163 0.00694
161 0.003998
115 0.004993
62 0.004975
51 0.005915
69 0.006951
94 0.004988
114 0.004987
128 0.004981
132 0.006928
122 0.005943
109 0.007011
113 0.006951
123 0.004988
133 0.004996
142 0.004016
150 0.006017
154 0.005985
157 0.004976
145 0.005977
69 0.005989
48 0.005984
51 0.005986
82 0.004971
110 0.007014
124 0.006952
134 0.004994
134 0.004983
119 0.005947
107 0.005985
108 0.006018
117 0.005984
130 0.005982
142 0.005016
154 0.005982
160 0.005974
152 0.006018
97 0.005984
46 0.004987
47 0.004991
66 0.00499
89 0.00502
106 0.004987
121 0.00499
121 0.005979
112 0.005024
98 0.00596
103 0.005016
115 0.005014
129 0.005017
142 0.005009
151 0.005015
159 0.005007
166 0.004999
168 0.004986
111 0.003989
68 0.003999
61 0.004962
91 0.004976
115 0.003988
135 0.005956
149 0.004988
145 0.004998
132 0.004997
125 0.004988
128 0.005028
139 0.003988
154 0.003989
162 0.00399
168 0.004993
176 0.004996
178 0.004991
154 0.004987
89 0.004986
56 0.004963
67 0.004974
92 0.005013
116 0.004022
133 0.003989
151 0.003999
153 0.003986
147 0.003964
131 0.004005
135 0.003978
145 0.004022
158 0.003984
173 0.003991
182 0.00498
190 0.003989
194 0.003991
170 0.004041
100 0.004042
64 0.003995
74 0.003862
116 0.004012
138 0.004012
155 0.003034
163 0.003008
158 0.003989
143 0.003017
136 0.002976
139 0.002986
150 0.003029
160 0.00299
171 0.004009
178 0.00396
175 0.003961
118 0.003015
73 0.004015
68 0.004021
83 0.002953
116 0.003034
137 0.003985
153 0.002983
161 0.002993
156 0.002983
139 0.002983
135 0.002982
147 0.00297
158 0.002991
168 0.002985
176 0.002988
182 0.004044
149 0.003989
78 0.002991
52 0.002993
60 0.003024
82 0.003029
114 0.002995
133 0.00296
153 0.002994
152 0.002978
142 0.002962
133 0.002996
134 0.002995
143 0.001997
155 0.001997
165 0.003031
171 0.002993
177 0.00304
153 0.002995
83 0.003026
73 0.002029
88 0.002026
109 0.00301
129 0.003023
145 0.001987
153 0.00196
147 0.002029
132 0.002021
125 0.00196
128 0.001946
141 0.001994
154 0.002995
166 0.003093
174 0.002992
173 0.002053
135 0.001995
93 0.001996
84 0.001995
100 0.001994
120 0.001991
138 0.001995
153 0.001995
161 0.001992
151 0.001995
139 0.002011
134 0.001012
139 0.000993
149 0.000999
159 0.001009
167 0.001963
175 0.002004
173 0.002032
130 0.002001
84 0.001991
74 0.001995
95 0.001995
115 0.002025
140 0.001995
151 0.001988
151 0.001
139 0.001029
128 0.000997
127 0.001049
134 0.001002
144 0.0
154 0.000997
163 0.000998
172 0.001973
144 0.001995
66 0.001008
51 0.000964
60 0.001032
80 0.000998
99 0.001032
114 0.001002
120 0.000998
118 0.000997
110 0.000997
106 0.000991
118 0.000951
132 0.0
149 0.001026
159 0.001001
167 0.0
172 0.000963
148 0.000997
71 0.000998
57 0.000994
67 0.001049
87 0.0
108 0.000998
131 0.0
140 0.0
136 0.0
126 0.0
122 0.0
126 0.0
136 0.0
152 0.0
161 0.0
170 0.0
176 0.0
172 0.0
83 0.000997
66 0.0
73 0.0
99 0.0
119 0.0
134 0.0
147 0.0
149 0.0
137 0.0
126 0.0
127 0.0
136 0.000998
156 0.00101
166 0.000997
174 0.000997
182 0.0
173 0.001004
112 0.00102
70 0.001028
65 0.001028
89 0.000991
114 0.002034
133 0.000997
149 0.001996
151 0.000998
132 0.001985
125 0.001985
130 0.00205
140 0.002029
150 0.001994
162 0.001994
170 0.002027
177 0.002019
176 0.002044
134 0.000995
71 0.001052
74 0.000986
93 0.001029
117 0.001031
143 0.001037
156 0.00099
155 0.001027
139 0.002027
124 0.002033
127 0.001996
141 0.001997
154 0.001997
168 0.002995
172 0.002033
176 0.002046
170 0.001996
99 0.002024
68 0.001008
70 0.000998
89 0.000998
112 0.002027
135 0.002013
149 0.002022
152 0.001996
137 0.002022
126 0.001991
126 0.002034
131 0.001987
139 0.001995
153 0.001994
162 0.001994
168 0.001981
157 0.001995
99 0.001996
57 0.001994
59 0.001998
86 0.001996
105 0.001995
126 0.001995
144 0.001996
143 0.001986
120 0.002005
104 0.002036
111 0.001983
128 0.001996
143 0.00196
152 0.002952
157 0.002993
160 0.003024
116 0.002992
57 0.001996
52 0.001968
65 0.001995
99 0.002026
118 0.001986
134 0.002004
135 0.002028
125 0.001989
114 0.003025
109 0.002977
120 0.002991
132 0.002986
145 0.00203
154 0.001993
158 0.002036
148 0.004028
89 0.002982
49 0.001006
54 0.000999
73 0.001003
95 0.002992
112 0.002993
132 0.002968
126 0.00303
111 0.000985
110 0.000988
117 0.002
129 0.002992
141 0.00399
154 0.000997
163 0.002037
168 0.000998
150 0.004023
86 0.004037
55 0.002992
71 0.002973
103 0.00099
124 0.001021
142 0.000997
151 0.003977
146 0.002987
132 0.004024
123 0.0
131 0.002036
143 0.001025
155 0.003991
173 0.000997
179 0.004005
169 0.004016
87 0.001993
60 0.001986
66 0.001037
87 0.004022
111 0.004024
137 0.0
151 0.000993
154 0.001001
134 0.001982
127 0.003989
132 0.003989
144 0.003989
160 0.000991
170 0.0
178 0.001005
175 0.004992
122 0.00503
60 0.0
58 0.0
76 0.0
114 0.0
133 0.001
147 0.003994
150 0.004014
136 0.001006
126 0.001996
128 0.001019
138 0.005011
152 0.005018
166 0.001994
173 0.000991
177 0.000987
105 0.0
58 0.001028
50 0.005035
67 0.00597
98 0.00197
115 0.001997
130 0.002045
135 0.005003
131 0.005021
118 0.002012
117 0.001994
125 0.001995
147 0.002042
159 0.002022
167 0.005029
173 0.004988
171 0.000998
117 0.000955
62 0.000999
51 0.005957
66 0.00596
98 0.001055
118 0.000967
136 0.002032
144 0.000985
135 0.002012
124 0.001024
123 0.005978
131 0.006027
146 0.002008
158 0.001
167 0.00204
174 0.005974
179 0.006027
149 0.002004
82 0.000986
57 0.00201
77 0.002029
102 0.00099
125 0.005974
143 0.006009
152 0.00202
144 0.001
131 0.001993
126 0.007039
132 0.007
148 0.001994
159 0.001991
172 0.001995
177 0.001034
181 0.003024
166 0.007005
97 0.007002
51 0.00199
58 0.001998
83 0.002003
109 0.007015
129 0.006974
148 0.001975
147 0.001993
126 0.001994
122 0.001992
129 0.002043
141 0.006015
153 0.006978
164 0.000983
170 0.00299
175 0.003024
179 0.007
162 0.006946
73 0.002961
48 0.002998
73 0.003017
103 0.002032
125 0.001995
140 0.006981
148 0.007976
140 0.001993
129 0.001984
123 0.003009
129 0.007955
141 0.007912
156 0.002992
171 0.007949
176 0.002942
182 0.002985
178 0.003022
127 0.007011
70 0.007012
58 0.006988
84 0.004
114 0.004027
137 0.004011
158 0.007953
164 0.007969
148 0.007941
139 0.007941
141 0.002986
149 0.002992
160 0.00299
171 0.007015
181 0.007988
188 0.004012
194 0.003996
196 0.004002
152 0.007942
81 0.007978
71 0.00798
99 0.007958
127 0.003993
148 0.002916
165 0.003999
167 0.007971
149 0.007013
139 0.003028
140 0.002996
150 0.004013
166 0.007016
176 0.00699
190 0.006946
197 0.007004
193 0.003021
137 0.003
76 0.002991
66 0.006998
79 0.007973
117 0.004984
141 0.00499
161 0.003992
172 0.006952
161 0.006982
144 0.006941
146 0.006973
155 0.004002
165 0.003933
175 0.002936
187 0.005951
194 0.006976
196 0.004991
144 0.004981
72 0.004947
50 0.006982
67 0.006967
112 0.006976
132 0.006935
148 0.005026
149 0.003991
139 0.002996
125 0.007015
128 0.006982
138 0.005041
148 0.00499
159 0.005018
170 0.005949
176 0.005951
178 0.005976
123 0.006936
60 0.006983
44 0.004984
59 0.004964
88 0.005988
120 0.00603
137 0.006015
147 0.005988
143 0.006006
132 0.004985
124 0.006015
136 0.005976
148 0.005944
159 0.005985
168 0.004996
177 0.004998
186 0.004987
180 0.005029
124 0.00501
51 0.005977
48 0.005971
71 0.005015
100 0.006015
129 0.004985
148 0.005979
147 0.006008
135 0.005
126 0.004981
128 0.004972
136 0.004978
148 0.00499
162 0.004983
169 0.004987
175 0.004987
181 0.004994
172 0.004961
84 0.004987
47 0.004987
58 0.004987
86 0.004943
113 0.00598
133 0.005952
148 0.005019
145 0.004954
131 0.005012
124 0.004997
131 0.004982
141 0.004982
152 0.004028
163 0.005018
173 0.00399
178 0.004985
183 0.005018
165 0.004987
95 0.003996
46 0.003991
55 0.003986
83 0.004034
127 0.00402
147 0.003988
157 0.003971
151 0.005017
132 0.004999
128 0.005008
134 0.004978
144 0.004987
158 0.003989
168 0.003993
180 0.00399
187 0.003983
194 0.003959
159 0.003999
82 0.003983
47 0.004029
52 0.003976
89 0.003983
117 0.003972
138 0.002983
154 0.002995
152 0.003987
129 0.003989
119 0.004005
126 0.003977
138 0.003971
150 0.003989
158 0.00399
164 0.003989
172 0.002958
172 0.003979
128 0.003023
55 0.002995
27 0.00299
44 0.002998
73 0.003041
116 0.003001
135 0.00298
137 0.002958
127 0.002992
114 0.002992
112 0.003987
121 0.003954
132 0.002992
146 0.003022
156 0.003008
166 0.003001
172 0.002999
102 0.002992
40 0.002984
25 0.002948
41 0.002996
68 0.002985
101 0.002992
119 0.003017
129 0.002984
125 0.002984
112 0.002993
105 0.001964
112 0.002025
131 0.001993
143 0.001962
151 0.002961
158 0.002992
164 0.003028
136 0.002992
64 0.002996
26 0.003019
26 0.002992
45 0.002992
78 0.002981
97 0.001994
117 0.001963
112 0.002963
100 0.003019
93 0.002027
98 0.002048
108 0.002073
129 0.002011
142 0.001995
151 0.002004
155 0.000996
162 0.000996
137 0.001983
52 0.001986
33 0.002027
50 0.001996
77 0.001996
101 0.001957
122 0.001999
135 0.00206
129 0.001029
117 0.001987
110 0.002028
117 0.000968
137 0.001003
149 0.001024
162 0.000981
167 0.002011
173 0.001007
178 0.000994
159 0.001955
76 0.000998
52 0.002049
60 0.002012
84 0.001996
111 0.000997
145 0.000992
154 0.001
144 0.000964
131 0.001013
127 0.000953
132 0.000997
143 0.001994
157 0.001998
166 0.001
172 0.0
177 0.0
180 0.0
122 0.000997
61 0.001039
47 0.001042
65 0.000996
93 0.000989
117 0.001036
137 0.000997
141 0.0
128 0.001025
115 0.0
107 0.002024
112 0.0
132 0.0
143 0.0
155 0.0
161 0.000965
165 0.0
134 0.0
66 0.0
32 0.000997
43 0.000997
68 0.0
94 0.0
115 0.0
133 0.0
127 0.0
116 0.0
112 0.0
120 0.0
132 0.0
144 0.0
153 0.0
163 0.0
169 0.0
172 0.0
144 0.001049
39 0.0
31 0.0
47 0.001988
83 0.0
105 0.0
120 0.0
129 0.001988
126 0.002026
115 0.001995
112 0.002028
119 0.001984
131 0.002027
150 0.001991
160 0.002027
167 0.001039
173 0.001977
178 0.001029
175 0.001996
128 0.002022
59 0.002045
39 0.002022
59 0.002019
88 0.002026
113 0.002033
139 0.001994
144 0.002024
137 0.002028
126 0.002004
127 0.002032
135 0.001988
148 0.002045
161 0.001992
175 0.001064
183 0.001065
186 0.001031
191 0.000994
197 0.002002
161 0.001993
85 0.001981
49 0.001989
63 0.001996
92 0.001994
120 0.002034
139 0.002043
157 0.002026
155 0.001986
141 0.002041
134 0.001983
141 0.000998
153 0.001042
166 0.001038
179 0.002033
190 0.001026
198 0.001031
204 0.001029
210 0.000997
202 0.001032
110 0.001995
62 0.00203
75 0.001993
104 0.002026
130 0.001994
151 0.002961
169 0.002054
166 0.002993
151 0.002992
140 0.001984
142 0.002993
156 0.002013
170 0.003027
183 0.002043
201 0.001965
210 0.001947
217 0.00201
224 0.001995
219 0.001999
116 0.002048
58 0.002991
59 0.002045
87 0.002042
115 0.001995
137 0.002989
157 0.002992
163 0.003017
147 0.002999
132 0.002028
133 0.002993
146 0.001995
160 0.002992
174 0.002992
188 0.003989
203 0.00299
210 0.001996
218 0.003029
219 0.003003
104 0.002995
54 0.003967
59 0.002895
87 0.002989
113 0.000965
136 0.003961
156 0.003957
162 0.002051
147 0.002026
132 0.002029
129 0.003966
138 0.004989
161 0.002938
175 0.003985
189 0.002996
203 0.000966
210 0.001962
216 0.003957
218 0.004018
140 0.000996
66 0.001007
47 0.001009
64 0.000997
91 0.004043
132 0.000972
153 0.004026
163 0.003989
143 0.001986
125 0.0
121 0.000997
127 0.003993
141 0.003992
160 0.0
172 0.002993
180 0.003988
192 0.003985
204 0.002057
185 0.003986
108 0.004037
47 0.000999
51 0.0
75 0.0
102 0.005047
127 0.004989
155 0.001993
156 0.0
138 0.001994
120 0.004951
121 0.001958
131 0.004023
145 0.004017
161 0.001006
171 0.001958
181 0.00197
189 0.004021
177 0.003989
80 0.0
39 0.0
40 0.0
63 0.004952
104 0.0
126 0.004988
141 0.004953
133 0.002018
117 0.000967
110 0.002034
114 0.005982
125 0.006017
143 0.002004
155 0.002028
165 0.0
178 0.0
185 0.0
152 0.006023
72 0.005015
28 0.001992
38 0.001988
65 0.001024
88 0.004991
108 0.006027
127 0.000995
125 0.001994
113 0.002001
104 0.002001
112 0.002002
123 0.002005
137 0.005952
149 0.004968
163 0.001989
170 0.003041
176 0.002989
180 0.005936
142 0.005987
51 0.002999
32 0.001986
66 0.003015
93 0.001993
111 0.002014
128 0.005989
133 0.006022
120 0.002019
110 0.002034
108 0.001969
115 0.007015
126 0.006994
141 0.001987
150 0.002027
160 0.002031
164 0.001998
168 0.001995
172 0.005984
145 0.006982
55 0.002018
28 0.002029
37 0.002037
62 0.006975
85 0.006985
109 0.002007
123 0.002026
114 0.001999
105 0.002
102 0.002013
109 0.006988
120 0.00704
136 0.002983
148 0.002004
156 0.003017
163 0.006968
166 0.006981
172 0.003011
175 0.002999
98 0.002021
46 0.002039
36 0.002992
55 0.006993
90 0.007942
109 0.002993
127 0.002992
135 0.003004
126 0.007954
111 0.007973
105 0.002958
113 0.003961
133 0.003005
146 0.003962
156 0.00199
163 0.007946
168 0.007978
173 0.004002
178 0.003046
157 0.003024
91 0.002974
39 0.00798
40 0.007973
70 0.002989
108 0.007963
128 0.003983
139 0.003961
134 0.002987
120 0.007981
113 0.007943
119 0.003995
131 0.002987
145 0.001995
157 0.007982
168 0.007936
179 0.001963
187 0.007975
192 0.002019
193 0.003959
141 0.002961
49 0.006981
34 0.006998
51 0.002981
77 0.002988
99 0.003004
121 0.007953
133 0.007945
125 0.007978
116 0.007976
115 0.003955
122 0.003946
135 0.002944
153 0.00699
165 0.00701
176 0.003996
184 0.004
190 0.003998
194 0.007019
199 0.006983
185 0.007965
105 0.007991
48 0.004005
39 0.003001
57 0.003989
89 0.006999
108 0.007007
125 0.005018
136 0.004054
133 0.004021
120 0.007017
117 0.007024
130 0.006997
141 0.007014
155 0.002974
167 0.001973
178 0.003001
189 0.007003
196 0.006965
200 0.003989
205 0.002969
209 0.003988
145 0.005979
70 0.006018
48 0.006932
69 0.006944
95 0.00499
116 0.003959
136 0.00402
152 0.006005
145 0.006925
133 0.003984
125 0.004985
129 0.004957
139 0.004987
158 0.005973
178 0.005029
196 0.005986
206 0.005993
212 0.00499
216 0.005025
223 0.004987
215 0.00498
142 0.00502
58 0.004964
51 0.005985
61 0.005978
94 0.00601
133 0.005992
155 0.004997
163 0.006009
153 0.005951
134 0.00498
125 0.005018
132 0.005039
147 0.005014
162 0.004955
181 0.004952
193 0.004978
201 0.004986
213 0.004987
216 0.004986
175 0.004994
74 0.004991
51 0.005965
62 0.005973
84 0.006037
110 0.005976
144 0.004975
166 0.004994
170 0.004982
155 0.004987
130 0.005017
130 0.005029
141 0.00498
161 0.004957
175 0.004946
187 0.004996
197 0.004979
204 0.004991
209 0.003991
159 0.004981
71 0.004995
32 0.004986
49 0.004963
74 0.00498
98 0.004968
129 0.004986
142 0.005002
138 0.004019
120 0.003993
109 0.004974
112 0.003984
124 0.003997
139 0.003978
153 0.003988
174 0.004027
184 0.002998
192 0.004955
188 0.003991
88 0.004999
32 0.003982
24 0.005017
40 0.004021
64 0.004019
92 0.003991
112 0.003985
121 0.003962
109 0.003955
98 0.003985
99 0.003989
107 0.003967
124 0.003955
139 0.003978
150 0.002988
159 0.00399
168 0.002974
177 0.004
151 0.004019
37 0.00401
23 0.003908
36 0.003989
59 0.003964
81 0.004011
105 0.004
117 0.002992
114 0.002975
104 0.003981
97 0.002992
102 0.002973
113 0.003
134 0.002959
147 0.002964
156 0.00294
163 0.00395
169 0.004025
176 0.003061
143 0.002991
69 0.002957
31 0.003028
33 0.002992
62 0.002957
85 0.002932
116 0.003003
128 0.00298
122 0.002957
110 0.003002
105 0.002994
111 0.002016
122 0.001986
136 0.001964
149 0.001996
160 0.003013
171 0.002984
177 0.003004
187 0.002959
189 0.002962
144 0.002944
69 0.002994
37 0.002944
48 0.002011
73 0.002944
96 0.001958
115 0.001995
132 0.002037
133 0.001995
114 0.001996
105 0.001991
113 0.002017
125 0.001961
139 0.001964
151 0.001979
161 0.002966
170 0.001958
175 0.001994
181 0.002027
181 0.001996
130 0.001995
55 0.002025
49 0.001976
77 0.00197
100 0.001968
121 0.000968
140 0.001
143 0.001025
124 0.000995
112 0.000999
113 0.000981
122 0.000998
136 0.000999
154 0.000966
170 0.001994
182 0.001967
191 0.001974
197 0.002022
175 0.001004
97 0.002004
41 0.001995
45 0.000948
66 0.001029
88 0.000999
107 0.00102
128 0.000997
127 0.000997
110 0.001963
103 0.001992
107 0.002003
115 0.001972
126 0.00103
141 0.001998
149 0.000961
157 0.001993
162 0.000998
167 0.000999
169 0.000998
108 0.001041
30 0.000997
21 0.000967
36 0.000981
60 0.001001
81 0.0
103 0.001
113 0.0
110 0.0
101 0.0
96 0.0
102 0.0
113 0.000997
131 0.001013
143 0.000951
153 0.000969
161 0.0
168 0.001011
174 0.000983
180 0.0
140 0.0
66 0.0
31 0.0
46 0.0
71 0.0
93 0.0
117 0.0
127 0.0
124 0.0
113 0.0
108 0.000972
115 0.0
126 0.0
139 0.002038
153 0.0
172 0.0
182 0.0
188 0.002054
197 0.0
203 0.001982
177 0.002008
96 0.001977
50 0.001986
51 0.002012
74 0.002025
98 0.002026
120 0.002027
149 0.002966
146 0.002013
124 0.002972
117 0.00302
122 0.002995
137 0.002988
147 0.001985
161 0.002992
177 0.001995
187 0.001995
195 0.002008
204 0.00203
174 0.001994
93 0.002038
53 0.001998
58 0.001981
81 0.001986
104 0.001988
126 0.002043
153 0.002952
154 0.002991
140 0.002007
127 0.002045
124 0.00202
141 0.001989
156 0.002027
171 0.001985
189 0.001993
199 0.002
208 0.002004
216 0.002
201 0.001993
88 0.001996
44 0.002008
41 0.002003
60 0.002029
99 0.002022
120 0.001999
139 0.002044
142 0.002992
129 0.002989
119 0.00398
119 0.002983
127 0.001954
140 0.002029
159 0.001991
173 0.001997
184 0.002029
198 0.002055
205 0.002992
195 0.002992
114 0.001981
38 0.00302
35 0.002988
63 0.001964
87 0.002945
108 0.002968
127 0.002997
138 0.002986
125 0.001962
115 0.001995
115 0.002018
127 0.002985
136 0.00296
156 0.00297
171 0.00296
183 0.002959
194 0.002993
202 0.002967
213 0.00296
205 0.003028
73 0.003008
39 0.002955
50 0.001963
75 0.002963
99 0.002034
123 0.003002
144 0.002959
149 0.001993
134 0.001971
120 0.002009
118 0.002992
125 0.003016
149 0.003025
165 0.002995
179 0.002945
190 0.002961
199 0.002994
209 0.00399
213 0.002992
142 0.001991
66 0.001993
43 0.001977
53 0.003989
76 0.003988
116 0.002979
140 0.002999
154 0.002011
140 0.001962
121 0.002011
112 0.003957
118 0.003992
130 0.003989
151 0.001012
166 0.00196
179 0.00201
189 0.004034
202 0.002028
174 0.00303
91 0.00402
40 0.002979
45 0.002956
67 0.001006
92 0.004006
118 0.004011
149 0.001955
154 0.00299
139 0.002014
122 0.004001
121 0.001984
131 0.005008
146 0.003936
167 0.002992
180 0.000997
191 0.000996
202 0.004946
200 0.005012
99 0.001001
39 0.001016
27 0.0
42 0.004975
83 0.002036
105 0.004052
126 0.004021
130 0.0
118 0.0
107 0.0
106 0.005034
114 0.004987
132 0.0
147 0.0
160 0.0
171 0.006026
185 0.0
179 0.005929
107 0.005954
23 0.0
13 0.0
28 0.000992
53 0.00502
76 0.005023
106 0.00199
117 0.001012
110 0.000998
98 0.004977
91 0.000952
95 0.005038
100 0.005019
95 0.002005
89 0.002007
90 0.0
94 0.006021
101 0.005971
63 0.001999
0 0.0
0 0.00203
0 0.002025
0 0.001958
29 0.002028
59 0.00602
77 0.005953
74 0.001997
60 0.0
55 0.00196
64 0.005989
79 0.005986
95 0.001058
110 0.002016
127 0.003034
138 0.001991
157 0.001003
136 0.006983
69 0.006989
34 0.002006
45 0.002989
68 0.002077
97 0.006012
120 0.005954
139 0.002005
132 0.001945
113 0.001977
114 0.0
122 0.002012
137 0.006981
152 0.006952
166 0.001995
174 0.001968
181 0.00199
172 0.007034
108 0.006999
44 0.001984
38 0.002029
72 0.002015
98 0.001975
127 0.001995
149 0.006997
148 0.007011
124 0.002012
119 0.001991
123 0.002001
131 0.006981
141 0.006983
156 0.001993
164 0.001998
180 0.002993
167 0.003005
95 0.002963
41 0.007984
34 0.007014
54 0.002936
79 0.00196
99 0.001915
118 0.007982
128 0.007976
120 0.002986
114 0.003082
116 0.003037
124 0.002
138 0.002012
150 0.007968
162 0.00797
171 0.007998
181 0.001993
176 0.002001
114 0.002008
54 0.007977
39 0.007958
60 0.002001
94 0.007979
120 0.002969
136 0.001969
140 0.001949
131 0.006981
125 0.006981
126 0.002992
137 0.002993
151 0.002992
166 0.007913
177 0.006951
184 0.003008
197 0.006921
206 0.003031
187 0.003958
105 0.003986
47 0.006951
52 0.007962
76 0.00299
103 0.002976
125 0.003003
148 0.006977
149 0.006983
136 0.002995
123 0.006982
128 0.003991
140 0.003939
154 0.003958
173 0.007025
186 0.006972
199 0.003991
211 0.003958
219 0.003958
152 0.007012
75 0.005982
50 0.002951
75 0.006031
101 0.003989
125 0.002992
148 0.00299
157 0.007026
145 0.006997
131 0.004021
128 0.004039
134 0.004019
150 0.006982
163 0.006981
183 0.006941
193 0.006947
204 0.004061
215 0.004026
196 0.002991
80 0.00698
41 0.00698
43 0.00599
65 0.005025
91 0.005013
121 0.005934
140 0.006979
146 0.004966
132 0.005976
125 0.00593
129 0.005025
137 0.004996
151 0.004986
171 0.005983
184 0.005984
196 0.003975
206 0.003989
214 0.004987
217 0.005984
116 0.005023
44 0.005963
44 0.005971
66 0.005013
99 0.00497
121 0.004991
141 0.004989
148 0.004997
140 0.00501
129 0.005016
125 0.004
133 0.005984
152 0.004011
172 0.004976
187 0.005983
202 0.00498
213 0.003962
225 0.005004
232 0.005
213 0.004975
93 0.004967
50 0.00499
51 0.005001
75 0.004975
118 0.004954
143 0.004979
163 0.005942
168 0.00498
152 0.004999
140 0.005025
139 0.004985
149 0.005029
173 0.004996
192 0.004968
208 0.004969
222 0.004966
235 0.004027
243 0.004984
246 0.004031
178 0.003978
88 0.003989
56 0.004014
65 0.003989
90 0.00399
128 0.004987
160 0.005
187 0.004024
194 0.005027
170 0.004955
158 0.004952
159 0.004974
175 0.004983
192 0.004956
207 0.003997
218 0.00399
226 0.004033
232 0.003983
238 0.003984
212 0.003991
123 0.003988
53 0.003954
64 0.003958
88 0.003993
118 0.00399
160 0.002995
182 0.002991
183 0.004942
167 0.003989
150 0.003971
147 0.004029
159 0.003991
175 0.003981
198 0.003983
210 0.003989
219 0.003973
225 0.003976
180 0.003993
87 0.003043
43 0.00296
45 0.003011
68 0.002993
109 0.002987
144 0.00301
174 0.002988
178 0.002963
162 0.004007
150 0.003999
149 0.004006
163 0.003993
176 0.002965
190 0.002991
201 0.004026
210 0.003954
218 0.003026
186 0.003
40 0.003001
20 0.002992
34 0.002959
60 0.002994
89 0.002992
130 0.002978
151 0.001968
151 0.001988
136 0.002005
121 0.002928
119 0.002959
131 0.00296
159 0.002968
173 0.002963
184 0.002961
193 0.002944
199 0.002969
122 0.002991
36 0.001964
10 0.001992
22 0.001994
47 0.002048
82 0.001996
109 0.001964
132 0.002026
125 0.001962
110 0.002982
103 0.002933
109 0.002953
124 0.002969
149 0.001944
166 0.001962
179 0.001957
191 0.002007
198 0.001999
161 0.001995
46 0.001996
18 0.001955
35 0.002031
60 0.001983
87 0.002999
114 0.002953
141 0.001996
137 0.001999
118 0.001967
106 0.001959
109 0.001982
128 0.002015
154 0.001995
175 0.001982
189 0.001965
201 0.001997
197 0.000997
131 0.001045
42 0.001944
34 0.001962
51 0.001945
77 0.001962
106 0.001963
146 0.0
154 0.002046
130 0.000986
115 0.00106
113 0.001995
125 0.001007
142 0.000996
165 0.000997
177 0.000996
186 0.001035
193 0.000997
158 0.000941
47 0.00203
22 0.000998
48 0.001981
74 0.001991
101 0.000985
129 0.001994
143 0.002007
130 0.000989
112 0.0
106 0.0
113 0.001002
127 0.0
151 0.000985
168 0.000998
182 0.0
190 0.000998
169 0.001006
80 0.001006
18 0.000986
14 0.000994
37 0.0
62 0.0
83 0.0
102 0.0
113 0.0
100 0.0
92 0.0
97 0.0
109 0.0
124 0.000985
139 0.000998
153 0.0
168 0.0
175 0.0
184 0.0
173 0.0
38 0.0
9 0.0
18 0.002025
51 0.0
73 0.0
91 0.0
105 0.0
108 0.000969
98 0.001998
92 0.001029
99 0.00296
106 0.000998
131 0.002
146 0.003017
161 0.002023
175 0.001974
182 0.001986
188 0.002006
195 0.001998
188 0.001997
83 0.001994
26 0.001992
21 0.001992
40 0.001995
82 0.001994
101 0.002992
120 0.002026
119 0.003003
107 0.002993
99 0.003007
104 0.00296
111 0.002023
132 0.001961
147 0.001986
168 0.002949
177 0.001993
191 0.001987
196 0.002054
202 0.002015
195 0.001969
117 0.002001
46 0.003
29 0.001999
45 0.002009
79 0.002991
102 0.002997
126 0.002008
140 0.00301
122 0.00203
106 0.002041
105 0.002026
114 0.001996
135 0.00199
152 0.001995
167 0.002007
180 0.002057
188 0.002048
199 0.001991
201 0.002032
152 0.002003
38 0.001995
37 0.003989
51 0.002992
86 0.002957
108 0.003988
131 0.003015
142 0.002994
134 0.00202
117 0.001983
112 0.001999
121 0.001983
133 0.002035
164 0.002027
181 0.002032
195 0.002026
206 0.002966
212 0.002991
214 0.003015
117 0.002987
40 0.002958
24 0.002942
39 0.002981
64 0.002008
89 0.002006
124 0.001989
135 0.001989
130 0.002963
114 0.001966
111 0.002994
118 0.003027
136 0.002965
147 0.003017
169 0.002994
184 0.00299
195 0.001986
204 0.002978
216 0.003004
145 0.001962
58 0.001921
34 0.003988
41 0.00399
67 0.002991
103 0.001967
127 0.001964
148 0.002958
156 0.003031
146 0.002999
124 0.002995
128 0.002974
145 0.00199
163 0.002991
180 0.001994
194 0.000997
204 0.003986
210 0.003982
217 0.001945
223 0.001993
193 0.002058
96 0.004981
32 0.002027
46 0.004016
72 0.004025
110 0.002962
137 0.001994
158 0.001985
160 0.003987
142 0.004014
117 0.000975
119 0.00196
130 0.001961
146 0.003992
173 0.002039
186 0.003992
195 0.004025
204 0.002031
174 0.002939
84 0.002014
35 0.003983
33 0.004019
61 0.002033
89 0.002016
118 0.002015
144 0.005014
149 0.001012
128 0.005024
110 0.004991
112 0.003028
122 0.001032
134 0.002019
147 0.00404
156 0.004024
166 0.002995
174 0.000949
168 0.001963
93 0.004944
3 0.001028
6 0.004967
29 0.004987
66 0.001005
88 0.000995
107 0.00196
111 0.004988
100 0.005044
86 0.0
87 0.002029
93 0.00096
105 0.00502
126 0.001991
136 0.005015
144 0.005017
156 0.001963
158 0.000939
102 0.0
32 0.00602
6 0.003991
20 0.001014
49 0.001027
73 0.0
94 0.006015
115 0.002998
110 0.005986
100 0.004999
97 0.004992
107 0.001979
118 0.000964
132 0.0
145 0.005995
157 0.006001
168 0.001994
178 0.00104
185 0.00202
81 0.0
34 0.002027
29 0.005993
49 0.006037
86 0.0
109 0.002979
131 0.001996
139 0.00399
129 0.003991
112 0.001992
111 0.002043
118 0.002993
141 0.002029
156 0.001997
166 0.006951
176 0.00695
189 0.003002
189 0.002994
132 0.001999
60 0.006982
35 0.006983
52 0.002002
79 0.002992
104 0.003031
142 0.002004
143 0.001972
128 0.006993
115 0.006977
113 0.002986
123 0.00301
139 0.001995
153 0.007007
165 0.007033
182 0.002002
194 0.002021
163 0.0
78 0.003
37 0.002008
38 0.006991
61 0.006014
96 0.003026
120 0.003
141 0.002033
147 0.006965
136 0.006972
121 0.001994
121 0.002014
139 0.002024
154 0.002005
168 0.001992
181 0.006973
198 0.007926
205 0.007979
191 0.00298
103 0.001989
42 0.001993
38 0.007946
61 0.007943
87 0.001999
116 0.007026
138 0.002962
137 0.003001
126 0.002993
117 0.007975
121 0.007948
131 0.001995
145 0.001991
160 0.001988
174 0.007991
190 0.007973
201 0.003014
212 0.007937
134 0.003021
56 0.002992
36 0.00299
58 0.00798
86 0.007947
111 0.003984
134 0.002991
149 0.002992
146 0.006947
132 0.007947
125 0.003019
137 0.00798
152 0.002001
168 0.002998
183 0.002992
201 0.007965
210 0.006931
219 0.002012
222 0.002994
164 0.002987
58 0.006983
45 0.006982
61 0.003049
105 0.006981
129 0.002986
151 0.003003
160 0.00303
145 0.006947
129 0.006975
126 0.002987
135 0.002994
150 0.003005
173 0.00695
191 0.006957
205 0.003994
223 0.006991
216 0.004004
140 0.004
67 0.003989
52 0.005981
72 0.005982
100 0.003983
129 0.003979
157 0.004011
179 0.005985
170 0.006952
150 0.003999
141 0.006996
151 0.006987
167 0.003991
184 0.003997
199 0.003977
216 0.005963
226 0.005951
216 0.005034
138 0.004966
70 0.004957
60 0.00601
80 0.005972
128 0.005988
162 0.006008
185 0.005002
185 0.003984
169 0.004024
150 0.004988
149 0.005982
159 0.004988
175 0.005018
191 0.005987
207 0.005977
222 0.004993
194 0.006006
99 0.005999
45 0.00403
42 0.004023
71 0.004983
100 0.004971
130 0.005017
159 0.004988
171 0.004965
156 0.004953
138 0.004987
132 0.003981
146 0.005985
164 0.005984
181 0.003976
194 0.003994
206 0.005003
200 0.004989
112 0.004973
31 0.004996
28 0.004983
43 0.004961
77 0.005072
110 0.004951
138 0.004987
137 0.005041
121 0.004033
108 0.004973
107 0.003936
118 0.004028
135 0.00398
159 0.003989
174 0.004911
188 0.004991
196 0.004966
94 0.00499
31 0.004985
21 0.004926
48 0.004974
75 0.004951
101 0.004038
127 0.003988
140 0.003956
135 0.003989
116 0.003988
111 0.004012
117 0.003962
143 0.003998
159 0.002993
175 0.004016
188 0.004033
202 0.004992
200 0.005003
128 0.003959
50 0.003965
30 0.003974
52 0.004006
79 0.003985
106 0.003995
149 0.003989
152 0.003996
138 0.00399
120 0.002984
116 0.004002
128 0.003025
146 0.002996
163 0.003988
178 0.002991
194 0.002997
204 0.002994
202 0.003994
83 0.002999
39 0.003998
40 0.003989
61 0.004034
97 0.00399
127 0.003988
152 0.002978
155 0.003024
136 0.002958
111 0.002969
110 0.003006
120 0.003009
148 0.002961
166 0.002993
181 0.002981
195 0.002958
190 0.002998
111 0.003067
44 0.003026
31 0.002992
47 0.00299
82 0.00299
110 0.002978
139 0.002988
153 0.002991
138 0.002956
122 0.001996
118 0.002993
132 0.002021
148 0.001993
165 0.001993
181 0.002992
193 0.002025
205 0.002007
179 0.001994
38 0.001986
20 0.001989
34 0.001987
61 0.002992
87 0.003033
112 0.00299
138 0.003054
136 0.001965
122 0.001994
111 0.002004
112 0.001992
126 0.001958
149 0.002007
172 0.001977
186 0.001996
198 0.002002
205 0.001988
176 0.002028
56 0.002009
24 0.00296
34 0.00195
59 0.002993
84 0.001996
118 0.000997
143 0.001995
138 0.001989
123 0.00203
116 0.000976
122 0.002029
136 0.002029
161 0.000976
178 0.000997
192 0.000989
202 0.002022
211 0.001998
213 0.001007
113 0.001995
35 0.001999
37 0.002009
60 0.00202
86 0.002042
114 0.001961
149 0.001968
156 0.000946
144 0.001022
126 0.002017
119 0.002042
130 0.002005
154 0.000997
177 0.002052
190 0.001988
199 0.0
207 0.002028
216 0.002031
173 0.000993
82 0.000974
41 0.001003
44 0.000996
68 0.001038
107 0.001938
149 0.000998
171 0.000995
161 0.000954
142 0.000996
130 0.000998
133 0.000993
153 0.0
172 0.0
188 0.0
201 0.0
212 0.0
220 0.0
162 0.0
70 0.0
35 0.0
51 0.0
79 0.0
109 0.0
140 0.0
170 0.0
169 0.0
153 0.0
139 0.0
137 0.0
156 0.0
172 0.0
192 0.0
202 0.0
209 0.001056
217 0.0
204 0.000993
79 0.000999
23 0.000997
20 0.000997
51 0.002991
69 0.000992
124 0.002936
144 0.002955
143 0.000997
130 0.003027
117 0.002033
116 0.001982
126 0.002026
151 0.001995
168 0.001997
183 0.002034
196 0.002025
204 0.002006
214 0.002031
147 0.002009
51 0.002029
18 0.002982
34 0.003001
61 0.002989
90 0.00296
117 0.003038
144 0.002992
152 0.002999
144 0.002043
124 0.001994
127 0.003052
139 0.001994
165 0.002029
183 0.002012
196 0.002028
208 0.002016
217 0.002031
225 0.001994
206 0.001998
112 0.002015
42 0.00399
40 0.001999
66 0.002992
95 0.003018
139 0.002979
164 0.002949
166 0.003027
153 0.002989
139 0.001996
134 0.002993
147 0.002882
163 0.002955
178 0.002991
199 0.002969
207 0.00299
217 0.002946
218 0.002956
145 0.004016
60 0.002965
34 0.002957
45 0.002942
69 0.001994
112 0.001975
146 0.001981
169 0.001995
156 0.001995
135 0.001971
127 0.001995
133 0.002996
151 0.002971
167 0.00301
185 0.002997
192 0.001994
201 0.002981
205 0.002991
144 0.002994
56 0.002968
26 0.002995
47 0.002951
76 0.001995
108 0.001993
151 0.001998
162 0.002029
153 0.002029
132 0.001954
127 0.002992
134 0.003
148 0.002979
169 0.001967
186 0.003024
197 0.00299
203 0.002993
204 0.002992
108 0.003947
25 0.003943
7 0.002028
19 0.002959
55 0.002988
82 0.003984
108 0.002952
128 0.00299
119 0.003002
100 0.002994
100 0.002029
110 0.00297
128 0.00308
146 0.002957
162 0.004003
179 0.002
190 0.001995
198 0.002994
179 0.002969
90 0.003021
14 0.003989
25 0.003932
59 0.001994
85 0.001992
114 0.003019
136 0.003036
138 0.002994
125 0.002987
105 0.001003
108 0.001992
121 0.004007
138 0.004014
168 0.004023
185 0.004022
202 0.000998
210 0.000997
188 0.002027
98 0.003993
38 0.003989
30 0.002985
58 0.000976
87 0.00198
118 0.004048
160 0.000998
157 0.004022
138 0.004023
120 0.001031
122 0.000992
136 0.002
153 0.003988
170 0.003987
187 0.000972
196 0.001009
204 0.002953
181 0.005031
41 0.001997
16 0.004988
29 0.004939
65 0.002019
92 0.001988
123 0.000993
147 0.00401
148 0.00494
128 0.000997
118 0.002002
120 0.00205
133 0.004978
163 0.00099
179 0.004977
192 0.005026
204 0.000984
211 0.001995
186 0.001012
85 0.005965
22 0.005962
20 0.000974
44 0.0
73 0.0
99 0.006019
142 0.0
147 0.0
136 0.005056
121 0.004954
120 0.000996
133 0.000995
151 0.000997
170 0.005002
186 0.005925
200 0.000997
208 0.0
215 0.0
168 0.0
66 0.002988
19 0.005962
20 0.006031
53 0.001993
81 0.0
107 0.0
134 0.005985
146 0.006024
136 0.002004
123 0.003143
118 0.002993
137 0.002992
155 0.002994
174 0.006003
188 0.005979
202 0.001958
211 0.001999
218 0.003002
213 0.005989
136 0.006988
35 0.002994
27 0.000999
47 0.001993
98 0.0
132 0.003038
163 0.006002
173 0.005985
157 0.001989
142 0.002001
138 0.002002
146 0.00598
160 0.006981
181 0.0
195 0.0
204 0.002016
216 0.002999
222 0.0
211 0.006988
125 0.006987
37 0.001987
34 0.001951
55 0.002987
86 0.007017
120 0.006924
164 0.001979
175 0.002992
165 0.0
137 0.002
136 0.001979
146 0.006968
161 0.006974
180 0.002991
192 0.003017
201 0.001995
210 0.001975
211 0.006985
157 0.007034
42 0.001986
22 0.001995
59 0.001995
95 0.002011
133 0.003028
165 0.006958
179 0.007929
165 0.002994
147 0.002999
138 0.003007
144 0.007982
157 0.007984
171 0.003989
186 0.007977
198 0.002977
205 0.002998
202 0.001971
124 0.00797
14 0.007014
3 0.002992
20 0.002989
49 0.003033
79 0.007927
111 0.007977
140 0.003049
127 0.007954
112 0.00197
105 0.002
112 0.001995
134 0.006977
152 0.006991
168 0.00299
181 0.003016
192 0.00302
172 0.006981
78 0.006992
14 0.002973
16 0.006936
44 0.002987
72 0.002988
102 0.002993
138 0.007016
141 0.007023
126 0.003039
110 0.003988
107 0.004011
118 0.006979
135 0.006981
154 0.003946
177 0.006978
190 0.003983
194 0.004
137 0.003989
28 0.006936
11 0.007014
28 0.003987
56 0.003993
87 0.00303
128 0.005981
149 0.005945
149 0.005992
118 0.00602
112 0.007005
117 0.003989
131 0.003996
147 0.002992
164 0.005094
180 0.006979
190 0.004995
189 0.005001
117 0.005018
24 0.005986
17 0.005969
54 0.005986
84 0.006009
114 0.003988
136 0.004011
135 0.003988
108 0.006008
95 0.00698
97 0.003988
108 0.005009
122 0.003988
143 0.006015
157 0.005967
171 0.005984
124 0.005984
46 0.004998
18 0.004987
23 0.003991
55 0.005983
83 0.006031
109 0.004988
127 0.004982
117 0.004957
101 0.004981
95 0.00499
105 0.005014
117 0.005004
134 0.005033
145 0.005046
155 0.005014
157 0.005016
110 0.005025
26 0.00502
12 0.005022
25 0.004986
50 0.003981
76 0.004979
109 0.004024
113 0.004986
101 0.004978
92 0.005005
93 0.004962
101 0.003984
113 0.003986
129 0.005007
139 0.005044
149 0.004985
157 0.005028
134 0.004968
61 0.004987
23 0.005021
29 0.004989
53 0.00496
81 0.005006
104 0.003983
123 0.004015
127 0.003988
113 0.005014
105 0.003983
105 0.004934
121 0.005018
134 0.004982
145 0.005012
153 0.004021
162 0.00301
169 0.003973
172 0.004
135 0.003954
63 0.00396
32 0.003991
45 0.003985
73 0.003963
117 0.003973
137 0.003959
142 0.003966
130 0.003989
114 0.003989
111 0.00399
118 0.003989
133 0.004016
145 0.003989
157 0.003983
164 0.003972
169 0.003989
171 0.004022
122 0.002993
55 0.002992
33 0.003983
50 0.002977
78 0.00399
105 0.002995
128 0.003061
139 0.003036
132 0.002997
120 0.002955
116 0.003979
131 0.004026
144 0.004004
157 0.002991
165 0.002999
173 0.002995
177 0.002994
180 0.002994
171 0.002023
103 0.002992
28 0.002995
22 0.002992
39 0.002993
80 0.002028
101 0.001994
116 0.003008
119 0.002982
107 0.001995
97 0.001995
97 0.00205
105 0.001993
117 0.002959
130 0.002967
137 0.002992
140 0.002992
145 0.002981
148 0.00306
144 0.001993
91 0.00203
33 0.002994
15 0.00204
29 0.002001
51 0.002036
72 0.001961
93 0.002041
110 0.001994
107 0.001966
91 0.002018
91 0.002019
100 0.001997
115 0.002028
128 0.002004
142 0.002994
151 0.001963
156 0.001962
158 0.002025
160 0.002027
165 0.001997
168 0.001971
94 0.001995
43 0.001985
33 0.001971
48 0.001953
73 0.001998
102 0.001987
121 0.001997
133 0.000995
129 0.001005
116 0.000997
107 0.002
115 0.002077
134 0.002017
147 0.001978
158 0.001994
166 0.002043
170 0.002032
172 0.001989
174 0.001985
176 0.00199
179 0.000998
166 0.001001
77 0.001963
44 0.000997
61 0.001994
87 0.001015
112 0.002012
132 0.001996
146 0.00203
141 0.002032
127 0.001995
117 0.00203
119 0.001022
131 0.000946
150 0.00095
169 0.000999
186 0.001026
193 0.001033
197 0.001027
201 0.000997
202 0.000998
136 0.000997
69 0.001004
53 0.000997
65 0.000998
93 0.000998
122 0.0
159 0.0
169 0.0
158 0.0
144 0.0
135 0.0
139 0.0
148 0.0
163 0.0
176 0.0
186 0.0
193 0.0
197 0.0
206 0.0
204 0.0
110 0.000997
51 0.001004
41 0.0
56 0.0
85 0.0
123 0.0
144 0.0
156 0.0
151 0.0
134 0.0
117 0.0
122 0.0
147 0.0
168 0.0
184 0.000998
193 0.001992
194 0.000997
199 0.0
205 0.001996
174 0.002949
94 0.002991
62 0.002993
58 0.002027
85 0.002
124 0.001992
149 0.00203
167 0.002027
170 0.002001
158 0.001995
140 0.00199
137 0.001995
146 0.002029
158 0.00295
172 0.002963
190 0.002991
198 0.002998
204 0.003026
209 0.002985
186 0.002971
129 0.002027
60 0.002029
44 0.002027
63 0.002984
95 0.002026
125 0.002019
150 0.001994
169 0.001995
157 0.002001
138 0.001988
136 0.002989
142 0.003025
156 0.001998
164 0.002986
179 0.002999
188 0.003026
195 0.003024
202 0.001973
186 0.002025
73 0.001969
57 0.002025
68 0.002028
105 0.002021
134 0.001994
161 0.002025
180 0.002955
172 0.002957
155 0.002988
145 0.003026
147 0.003015
161 0.003025
177 0.002953
188 0.002998
196 0.002992
202 0.002993
209 0.003029
192 0.002025
91 0.003021
62 0.002995
68 0.002994
90 0.003045
130 0.003002
166 0.002992
182 0.003003
170 0.003023
150 0.003034
141 0.003021
142 0.003002
154 0.002918
166 0.002986
176 0.001952
184 0.002994
191 0.003013
199 0.002984
150 0.002992
69 0.002938
60 0.002985
68 0.002028
103 0.003015
134 0.002978
160 0.002028
176 0.00196
164 0.002033
144 0.002996
135 0.00304
139 0.001993
152 0.002997
167 0.001993
176 0.002013
184 0.002964
191 0.003022
168 0.004045
73 0.002972
49 0.00399
56 0.002013
80 0.00201
108 0.003965
133 0.003991
157 0.002992
149 0.002994
128 0.003014
121 0.001996
123 0.002984
135 0.003012
147 0.004029
160 0.002
168 0.001994
176 0.002002
170 0.004035
106 0.004987
39 0.004989
45 0.004007
79 0.001994
106 0.002992
128 0.001983
141 0.003976
140 0.004022
124 0.000985
113 0.002066
115 0.002025
123 0.004024
135 0.004043
151 0.00402
158 0.003957
166 0.0
152 0.00203
84 0.002061
39 0.004928
34 0.005004
57 0.0
84 0.001995
107 0.003989
125 0.004984
132 0.004953
118 0.004985
107 0.00499
112 0.000999
125 0.000996
138 0.001981
150 0.004939
158 0.004938
164 0.001037
169 0.001036
170 0.00203
126 0.004958
57 0.004996
39 0.004986
59 0.004987
96 0.001059
117 0.001044
134 0.001005
136 0.004998
125 0.004979
106 0.0
106 0.0
116 0.0
129 0.004989
148 0.0
155 0.005014
160 0.004984
166 0.004979
164 0.003011
115 0.000985
57 0.001004
43 0.005983
54 0.005978
89 0.002996
115 0.0
135 0.002995
140 0.000991
125 0.002995
111 0.005945
110 0.005944
124 0.002928
138 0.0
150 0.000998
158 0.005976
165 0.005989
171 0.0
175 0.0
159 0.001994
53 0.002006
37 0.000963
48 0.00599
75 0.006975
110 0.00301
129 0.002996
141 0.002994
138 0.005966
128 0.005942
115 0.002999
120 0.002999
132 0.002008
155 0.003026
164 0.002992
172 0.00599
177 0.006935
183 0.002927
185 0.002
157 0.002991
80 0.00698
44 0.006957
49 0.003023
74 0.002008
102 0.001958
134 0.002025
144 0.00298
142 0.005991
132 0.006978
123 0.002959
128 0.002995
140 0.002965
153 0.006934
164 0.006949
175 0.003955
181 0.00297
184 0.002962
189 0.002994
191 0.002959
155 0.007978
77 0.007934
42 0.004014
54 0.002994
82 0.003007
110 0.002941
130 0.006974
146 0.006988
150 0.002047
140 0.002979
128 0.003031
135 0.002936
146 0.002996
160 0.006991
173 0.007806
186 0.002986
192 0.002941
195 0.001998
197 0.007977
200 0.007945
203 0.003012
154 0.002993
54 0.002981
54 0.002984
77 0.002989
117 0.008017
140 0.007971
160 0.002994
167 0.002989
157 0.002988
143 0.007978
137 0.007964
144 0.003945
159 0.003949
183 0.002994
194 0.003962
200 0.002957
205 0.007014
211 0.006983
216 0.002993
197 0.002944
117 0.003049
57 0.007945
63 0.007984
91 0.004022
131 0.007978
164 0.004
180 0.001982
176 0.00299
149 0.006983
139 0.006939
142 0.002943
153 0.002996
168 0.001996
186 0.006952
197 0.006977
205 0.003009
215 0.00698
221 0.002984
212 0.002992
126 0.004004
44 0.006992
44 0.006967
67 0.004006
100 0.002998
129 0.004021
160 0.006938
172 0.006944
164 0.004019
135 0.005972
133 0.004022
140 0.00399
152 0.004995
166 0.003984
182 0.005985
192 0.00602
200 0.004016
205 0.003991
212 0.003995
195 0.006015
96 0.004954
23 0.005925
36 0.005988
66 0.003993
98 0.004023
124 0.003958
152 0.005996
156 0.005983
143 0.00399
127 0.003937
121 0.003985
131 0.006021
146 0.005984
172 0.005018
185 0.006016
196 0.004
205 0.00399
215 0.004995
216 0.005958
140 0.005995
54 0.003931
30 0.004011
45 0.003976
88 0.005958
119 0.005952
162 0.004978
173 0.006035
159 0.004996
146 0.004973
134 0.004978
141 0.004988
154 0.004039
171 0.004982
187 0.004992
201 0.005015
216 0.006017
224 0.006011
234 0.006001
196 0.005983
66 0.004962
38 0.004992
51 0.00498
82 0.004987
115 0.005023
156 0.004999
180 0.004925
186 0.004997
171 0.004975
147 0.005016
141 0.004009
152 0.00498
174 0.00495
189 0.00399
201 0.004988
211 0.005006
217 0.004995
223 0.004981
210 0.004958
89 0.004987
49 0.003956
40 0.005031
86 0.00399
119 0.003989
151 0.003993
180 0.00402
176 0.003999
155 0.003967
137 0.00399
134 0.004014
146 0.004989
162 0.002988
179 0.005034
192 0.005003
208 0.003963
215 0.003989
200 0.003984
71 0.004001
20 0.003997
21 0.003989
47 0.004017
81 0.003992
122 0.003981
149 0.003988
160 0.003975
134 0.002927
117 0.002995
116 0.003987
127 0.003019
150 0.004014
168 0.004013
184 0.00403
196 0.004008
207 0.004025
205 0.003985
122 0.003996
36 0.004056
23 0.003988
51 0.002992
82 0.004018
113 0.002992
147 0.002992
154 0.002987
140 0.002992
119 0.003022
113 0.00299
124 0.002972
139 0.003001
156 0.002981
180 0.003994
191 0.002979
200 0.003981
202 0.003019
105 0.002992
30 0.003039
16 0.003008
35 0.002993
67 0.003025
108 0.002966
137 0.002984
154 0.002977
136 0.002991
118 0.001996
116 0.003039
127 0.002027
141 0.00202
164 0.002
179 0.002026
190 0.003037
201 0.002992
200 0.002992
94 0.002992
26 0.003017
29 0.001962
60 0.001917
91 0.001982
122 0.002003
150 0.001996
158 0.001981
140 0.001997
121 0.001978
