93 0.028956
93 0.002957
100 0.001948
107 0.001959
114 0.001992
118 0.001959
116 0.001966
115 0.001942
119 0.00197
137 0.002955
149 0.002015
149 0.002038
152 0.002953
160 0.002953
174 0.001998
183 0.001996
191 0.002004
195 0.002992
156 0.002988
99 0.001968
75 0.001958
90 0.002997
101 0.002992
109 0.001992
119 0.003027
130 0.003004
135 0.001992
130 0.002
134 0.001995
138 0.003001
143 0.002992
155 0.002991
162 0.001996
173 0.002993
179 0.002993
187 0.002993
195 0.002988
202 0.002985
176 0.002992
114 0.00311
77 0.002992
74 0.002994
91 0.002997
102 0.002989
114 0.001995
127 0.003956
130 0.003033
128 0.002964
127 0.002951
133 0.003994
138 0.003959
149 0.000994
156 0.003947
163 0.002995
163 0.002953
169 0.002955
180 0.002988
177 0.003991
100 0.002993
73 0.003953
57 0.002972
64 0.003958
80 0.003994
102 0.002977
111 0.002993
116 0.00302
120 0.003973
120 0.00399
115 0.003026
119 0.00399
131 0.002992
139 0.004032
149 0.00399
159 0.003989
165 0.00399
173 0.00304
161 0.004031
108 0.003017
68 0.005024
63 0.004987
77 0.004021
93 0.003977
99 0.004037
111 0.004038
122 0.003991
118 0.00402
115 0.004987
118 0.004033
124 0.00399
131 0.00399
139 0.004983
146 0.004956
157 0.003019
157 0.004001
155 0.004958
122 0.004989
69 0.003955
59 0.005019
68 0.004956
82 0.003992
89 0.003991
96 0.003989
106 0.004989
112 0.004987
114 0.003989
113 0.005018
119 0.004052
126 0.003977
132 0.004988
135 0.004987
138 0.004982
143 0.005018
148 0.003971
148 0.005022
101 0.005033
49 0.005022
33 0.003989
51 0.004987
63 0.003993
73 0.00499
89 0.005035
101 0.00502
101 0.004986
97 0.00501
100 0.004972
113 0.004981
124 0.005023
132 0.005019
141 0.004984
151 0.00502
156 0.004946
157 0.004987
117 0.004986
85 0.004988
58 0.004988
67 0.004986
76 0.004988
86 0.004957
97 0.005993
113 0.006017
120 0.005985
119 0.005984
121 0.006018
131 0.004988
140 0.004986
148 0.004987
155 0.005953
161 0.005987
169 0.005019
162 0.005035
117 0.005988
81 0.005984
72 0.005987
87 0.00604
94 0.005969
102 0.005985
114 0.005984
120 0.006037
119 0.006021
118 0.006015
120 0.004987
126 0.005021
133 0.004852
138 0.005998
143 0.005984
153 0.005984
152 0.006981
101 0.005984
68 0.005983
60 0.005985
66 0.007017
71 0.007067
79 0.006016
84 0.006029
96 0.005984
98 0.006032
95 0.005875
94 0.00702
103 0.007019
112 0.005984
119 0.005961
127 0.00594
132 0.006983
134 0.007023
140 0.005997
142 0.005938
143 0.005954
121 0.006983
73 0.007942
36 0.006984
43 0.007004
50 0.005984
51 0.005981
59 0.005982
70 0.00695
78 0.006993
80 0.006978
81 0.007044
84 0.006983
96 0.007978
100 0.007974
109 0.006981
114 0.006983
120 0.007021
129 0.005984
131 0.006017
132 0.006017
140 0.007971
143 0.007979
152 0.006982
154 0.006968
118 0.007031
61 0.007978
31 0.007934
38 0.007946
43 0.007945
49 0.006943
58 0.007013
66 0.006982
71 0.00798
71 0.007977
73 0.006981
78 0.007022
85 0.00702
92 0.007948
102 0.006982
105 0.007979
116 0.007954
122 0.006949
127 0.006994
132 0.006982
139 0.006981
143 0.007978
146 0.007977
157 0.006983
160 0.006981
101 0.00797
49 0.007979
27 0.00798
35 0.00798
44 0.007979
49 0.006981
58 0.007019
69 0.007979
72 0.007861
73 0.007013
76 0.00698
82 0.006981
88 0.007017
101 0.006978
107 0.007973
116 0.007979
126 0.007982
130 0.002992
135 0.00698
139 0.007979
143 0.007967
147 0.007017
151 0.007016
160 0.007017
165 0.007019
79 0.006969
38 0.006981
28 0.007981
33 0.007979
42 0.007979
52 0.007018
64 0.007015
74 0.007014
73 0.006982
71 0.006986
75 0.006981
84 0.00702
99 0.00698
109 0.007015
118 0.007012
128 0.007015
133 0.007014
141 0.006972
149 0.006018
153 0.006023
159 0.006992
163 0.006994
169 0.006981
179 0.006981
175 0.007016
100 0.007018
41 0.00698
23 0.007244
33 0.006982
47 0.007013
56 0.006963
65 0.00602
74 0.006074
81 0.005978
78 0.007104
79 0.006983
88 0.005985
98 0.005983
109 0.005987
116 0.00602
126 0.005985
133 0.005987
139 0.006012
142 0.006017
148 0.005987
161 0.007021
159 0.006032
108 0.005984
28 0.006038
27 0.004986
37 0.007023
48 0.006043
62 0.005988
70 0.006018
78 0.006014
81 0.005981
78 0.005995
76 0.005984
82 0.006017
92 0.006013
107 0.005022
113 0.006022
115 0.005985
124 0.005931
137 0.005019
139 0.00502
103 0.00499
44 0.004987
5 0.005984
0 0.005985
3 0.005984
20 0.006017
42 0.005019
55 0.005027
59 0.006047
57 0.005985
52 0.005988
59 0.005978
66 0.006047
77 0.005984
86 0.005984
97 0.004984
104 0.00597
112 0.004959
125 0.004985
100 0.004993
42 0.005021
0 0.005175
0 0.005017
0 0.005032
6 0.004984
7 0.005023
13 0.005018
29 0.005317
33 0.005356
33 0.005239
38 0.004993
46 0.003961
56 0.004035
64 0.004982
72 0.004987
78 0.004987
83 0.00499
90 0.004991
98 0.005023
103 0.005034
65 0.00503
9 0.004033
51 0.004022
52 0.005023
54 0.004947
54 0.004987
56 0.004987
64 0.004997
67 0.004987
67 0.004983
67 0.004974
70 0.005021
75 0.004987
80 0.005019
88 0.003988
95 0.003988
98 0.004021
101 0.003992
104 0.004029
108 0.004009
110 0.004986
112 0.00499
117 0.00499
121 0.004991
89 0.004025
61 0.003989
50 0.003991
51 0.003991
51 0.003988
53 0.00399
57 0.004024
63 0.004049
65 0.003989
66 0.003027
67 0.003024
70 0.003979
76 0.002993
80 0.003991
88 0.003989
91 0.004027
93 0.003993
97 0.004051
102 0.002992
104 0.002941
107 0.002988
113 0.002942
118 0.002992
123 0.003167
118 0.002899
86 0.00322
54 0.002992
53 0.002992
56 0.002957
58 0.003964
58 0.003023
65 0.004049
71 0.003954
73 0.003031
74 0.004023
75 0.003047
80 0.002997
84 0.002993
92 0.003991
97 0.002988
85 0.002993
90 0.004059
93 0.004032
100 0.004035
105 0.002992
110 0.00299
116 0.003038
122 0.003027
130 0.002992
104 0.002995
22 0.002984
9 0.003009
14 0.002992
21 0.00303
24 0.003027
29 0.002997
37 0.002993
42 0.003034
44 0.00381
47 0.003066
53 0.003006
58 0.003002
70 0.003016
79 0.002993
87 0.002992
92 0.002961
97 0.002993
103 0.003012
109 0.003003
116 0.002948
121 0.002993
125 0.001992
133 0.001995
143 0.001996
109 0.002634
40 0.001964
19 0.002978
20 0.003
26 0.00303
33 0.002027
37 0.002017
44 0.002027
54 0.00203
57 0.001995
56 0.001995
60 0.00197
70 0.001949
82 0.001994
89 0.001994
96 0.002028
100 0.002035
105 0.002994
111 0.001996
116 0.002027
119 0.001996
124 0.001997
132 0.001998
144 0.001996
115 0.002002
46 0.002
27 0.002008
31 0.000963
37 0.001994
40 0.001995
44 0.001998
55 0.000992
62 0.00199
66 0.000997
68 0.001009
64 0.000997
55 0.001995
64 0.001954
84 0.001995
99 0.001689
109 0.001995
117 0.001996
122 0.001962
126 0.001995
132 0.001995
138 0.000997
147 0.001003
142 0.001001
71 0.000994
29 0.000998
28 0.000997
37 0.002047
44 0.00103
49 0.000996
62 0.000871
71 0.001029
73 0.001027
69 0.000998
71 0.001996
80 0.001995
88 0.000996
102 0.000997
109 0.000997
111 0.001002
117 0.000996
124 0.000998
134 0.000981
139 0.000998
127 0.000965
79 0.000997
45 0.000989
39 0.000993
51 0.000961
59 0.000997
64 0.000965
73 0.000998
82 0.0
87 0.000989
88 0.001
93 0.000997
101 0.000967
108 0.000997
115 0.0
125 0.0
138 0.0
145 0.0
149 0.0
155 0.0
152 0.001011
106 0.000998
62 0.001046
48 0.000997
54 0.000997
60 0.0
63 0.0
72 0.0
88 0.0
88 0.0
86 0.0
91 0.0
98 0.0
103 0.000997
109 0.0
122 0.000997
129 0.0
134 0.0
138 0.0
144 0.000968
102 0.0
57 0.0
39 0.0
45 0.0
54 0.0
59 0.0
66 0.0
76 0.0
76 0.0
73 0.0
75 0.0
83 0.0
99 0.0
103 0.000999
112 0.001995
118 0.000992
125 0.0
130 0.0
120 0.0
62 0.0
35 0.0
31 0.0
40 0.0
45 0.0
56 0.0
67 0.0
71 0.000997
65 0.000992
64 0.0
70 0.0
76 0.0
86 0.0
97 0.0
106 0.0
111 0.0
117 0.0
126 0.0
113 0.0
66 0.001031
29 0.001108
22 0.0
27 0.000997
33 0.001001
35 0.000997
41 0.001997
55 0.001
63 0.0
68 0.0
68 0.0
70 0.0
72 0.001032
77 0.001995
89 0.000998
98 0.000999
106 0.000997
114 0.001996
120 0.001995
124 0.000998
133 0.00101
145 0.0
143 0.0
95 0.000949
55 0.001032
43 0.001028
48 0.001028
51 0.000998
52 0.000991
57 0.001039
64 0.001995
69 0.002029
78 0.00116
80 0.000998
88 0.000999
95 0.001005
106 0.000937
113 0.000998
121 0.00197
133 0.001042
140 0.001035
144 0.000978
149 0.000992
155 0.002028
162 0.000996
169 0.001994
182 0.001995
171 0.000998
120 0.000998
81 0.001992
72 0.002002
80 0.002004
84 0.001037
84 0.000998
89 0.002981
97 0.002029
103 0.002033
105 0.002035
111 0.002021
114 0.001995
125 0.001012
132 0.001996
137 0.002049
146 0.001995
155 0.002046
162 0.002022
167 0.002992
170 0.003025
178 0.002027
185 0.002027
194 0.00203
204 0.001001
210 0.001023
178 0.00199
122 0.001991
90 0.001979
92 0.001996
99 0.001991
103 0.003011
106 0.002992
113 0.001993
119 0.001994
123 0.001997
123 0.001996
126 0.002045
134 0.00305
141 0.001996
145 0.003028
150 0.002037
158 0.002045
164 0.003027
168 0.00303
173 0.002025
178 0.002025
191 0.001962
198 0.001981
205 0.002992
187 0.004018
135 0.00303
97 0.002027
94 0.002034
102 0.001998
109 0.002992
113 0.003027
123 0.002029
128 0.003525
128 0.002002
126 0.002045
127 0.003028
131 0.003022
133 0.004001
132 0.004004
141 0.002991
151 0.002994
155 0.002993
158 0.003989
162 0.003022
168 0.002039
179 0.002987
193 0.002036
199 0.003
160 0.002983
108 0.004023
86 0.003989
90 0.00303
98 0.004037
104 0.004029
114 0.003931
119 0.003979
124 0.0
125 0.004038
126 0.002958
131 0.003025
141 0.002978
150 0.00399
157 0.003989
167 0.00403
173 0.003039
178 0.003027
183 0.00399
186 0.00402
195 0.002995
205 0.004021
177 0.004029
119 0.004025
84 0.004035
81 0.004986
88 0.004987
95 0.00399
97 0.003993
104 0.004023
113 0.005051
119 0.004036
121 0.002997
120 0.005018
128 0.003026
137 0.004053
145 0.003989
152 0.005018
161 0.004987
170 0.00402
175 0.004038
178 0.004011
184 0.004987
192 0.00499
192 0.003991
122 0.004988
73 0.003989
69 0.004013
76 0.00297
82 0.004986
86 0.004022
94 0.003996
99 0.004041
100 0.003979
99 0.004986
99 0.005019
104 0.004022
115 0.005984
121 0.004988
129 0.004987
140 0.003988
144 0.005024
148 0.004987
156 0.00402
160 0.004032
165 0.004025
154 0.004986
101 0.005023
54 0.00402
52 0.005984
59 0.004988
64 0.004988
66 0.005023
71 0.006027
78 0.005984
78 0.005017
79 0.00502
82 0.003965
88 0.004023
95 0.005018
104 0.005984
118 0.005982
123 0.005979
133 0.004989
139 0.004025
144 0.003997
149 0.004987
154 0.004987
120 0.005018
74 0.004967
53 0.005018
53 0.005986
58 0.005984
68 0.005983
75 0.005985
84 0.00502
88 0.005037
90 0.005018
89 0.005993
91 0.005999
99 0.00502
108 0.004988
115 0.005017
123 0.005985
128 0.005985
135 0.006024
139 0.006018
142 0.005011
146 0.006018
152 0.004987
124 0.005982
76 0.006029
50 0.005036
57 0.004971
67 0.004986
73 0.006025
76 0.006981
89 0.007014
93 0.006981
89 0.005967
89 0.006018
91 0.006016
99 0.006023
105 0.005983
112 0.004985
119 0.004983
124 0.005984
127 0.006981
131 0.006982
135 0.006983
111 0.006982
59 0.006018
44 0.006992
48 0.007031
57 0.006982
64 0.006984
73 0.006019
82 0.005985
89 0.00595
92 0.006988
91 0.006982
99 0.007016
106 0.006981
114 0.006025
118 0.006024
120 0.006484
127 0.007013
133 0.007029
140 0.005988
143 0.005601
127 0.006033
85 0.006982
54 0.007925
57 0.007963
57 0.007979
60 0.006975
63 0.006981
71 0.006981
76 0.006982
79 0.006982
79 0.007015
84 0.005984
90 0.005986
96 0.006015
101 0.006981
113 0.00703
121 0.007979
124 0.007979
127 0.007017
133 0.007013
139 0.007014
136 0.007027
101 0.007929
64 0.005984
49 0.005983
51 0.006976
53 0.007013
55 0.007001
60 0.007979
69 0.007979
77 0.007012
79 0.007018
67 0.00698
76 0.008002
85 0.007977
94 0.006981
99 0.006951
107 0.007013
116 0.007972
126 0.006978
137 0.007977
143 0.007979
157 0.007029
161 0.007016
169 0.00694
155 0.007981
117 0.00798
57 0.006991
50 0.007007
57 0.006935
63 0.007981
73 0.006986
81 0.007017
88 0.006985
93 0.00698
93 0.006981
97 0.006983
104 0.007016
112 0.008026
118 0.006929
125 0.006997
135 0.006961
141 0.007932
149 0.006985
156 0.006982
162 0.006983
168 0.006542
179 0.007764
184 0.006326
145 0.007011
90 0.005941
64 0.006977
67 0.006981
73 0.00698
79 0.006981
90 0.006984
100 0.00698
106 0.007025
106 0.006978
107 0.007014
113 0.006981
120 0.007033
130 0.007013
140 0.007011
149 0.006978
159 0.007019
172 0.006982
187 0.005984
192 0.006026
199 0.006013
212 0.005995
220 0.006403
222 0.006002
176 0.006946
112 0.007012
85 0.006018
90 0.006031
97 0.006553
104 0.007012
117 0.006977
125 0.005989
125 0.005978
125 0.005985
123 0.006038
123 0.005989
132 0.005987
142 0.005986
146 0.005984
151 0.006018
155 0.006018
158 0.006014
169 0.005962
175 0.006002
168 0.005979
116 0.007014
64 0.006011
67 0.007017
80 0.005984
89 0.006017
94 0.005982
109 0.005987
118 0.006019
120 0.006019
124 0.005976
131 0.006015
138 0.004993
149 0.00601
161 0.005854
168 0.006016
175 0.005148
184 0.004961
189 0.004988
154 0.005132
104 0.00546
82 0.005674
98 0.005987
106 0.004984
112 0.005985
122 0.005984
137 0.005983
137 0.004991
134 0.005018
138 0.005078
146 0.005026
162 0.00502
172 0.004987
180 0.004984
185 0.005021
188 0.00602
194 0.005985
199 0.006018
168 0.005035
118 0.005027
93 0.005019
94 0.005024
101 0.005018
107 0.005017
112 0.005021
122 0.00502
130 0.00502
130 0.003982
129 0.003997
131 0.003989
139 0.005024
147 0.005037
154 0.00504
161 0.005041
166 0.005019
172 0.005018
176 0.004396
183 0.003991
196 0.004988
198 0.004988
153 0.005021
101 0.004837
84 0.005017
92 0.004027
102 0.004985
104 0.005024
105 0.003998
115 0.003989
120 0.004191
116 0.004025
118 0.003997
120 0.003989
124 0.004019
134 0.003989
142 0.004027
148 0.00399
156 0.004023
161 0.004022
166 0.004731
171 0.004987
180 0.005021
165 0.005022
78 0.003981
62 0.004024
69 0.00402
83 0.004036
92 0.004043
100 0.003974
109 0.004029
115 0.003992
115 0.003991
114 0.003989
122 0.003987
129 0.00399
145 0.004482
154 0.004006
161 0.00402
166 0.003912
171 0.003985
181 0.003991
186 0.004005
169 0.00399
115 0.004048
78 0.003027
74 0.002995
90 0.002992
105 0.003962
115 0.003
126 0.00401
132 0.004026
131 0.004021
131 0.004021
135 0.003991
150 0.004025
161 0.003049
168 0.002936
175 0.00319
184 0.004022
196 0.002987
189 0.003024
135 0.003047
81 0.002993
71 0.002992
84 0.002993
92 0.002992
98 0.002992
107 0.00299
118 0.002997
125 0.002996
123 0.003049
117 0.00404
117 0.002962
124 0.003033
131 0.004179
134 0.0038
141 0.003038
145 0.002992
150 0.00299
141 0.004002
96 0.002976
64 0.002995
70 0.003005
96 0.001996
105 0.002999
117 0.002988
131 0.00202
138 0.002992
140 0.002996
141 0.003059
145 0.003038
154 0.003026
161 0.002994
173 0.002028
180 0.002992
188 0.002042
190 0.001995
198 0.001993
205 0.001994
176 0.001995
115 0.002028
81 0.002993
84 0.002994
91 0.002993
96 0.001994
102 0.002028
111 0.001994
124 0.001963
125 0.00196
126 0.002029
127 0.002027
131 0.00203
138 0.00203
146 0.001995
151 0.002992
158 0.001995
163 0.002033
166 0.002008
171 0.001995
180 0.001961
187 0.001997
162 0.001995
101 0.001996
63 0.002037
60 0.001996
73 0.001996
80 0.000998
85 0.001997
96 0.001003
106 0.001995
113 0.000998
112 0.001996
118 0.002023
125 0.002038
132 0.002028
141 0.002015
149 0.001995
158 0.001988
166 0.001994
172 0.001995
177 0.002053
176 0.000997
181 0.000974
192 0.000996
176 0.001959
119 0.001006
79 0.000998
73 0.000998
82 0.002008
91 0.001996
95 0.001995
98 0.001996
108 0.000998
114 0.001004
116 0.000997
120 0.001012
131 0.000998
139 0.000997
145 0.000996
151 0.0
157 0.0
165 0.000998
171 0.000997
174 0.000997
176 0.000996
182 0.000997
192 0.000997
200 0.00103
141 0.000998
92 0.000996
77 0.000997
82 0.000998
91 0.001002
101 0.0
106 0.0
115 0.0
121 0.0
122 0.0
119 0.0
125 0.0
135 0.0
143 0.000933
150 0.0
158 0.0
167 0.0
175 0.0
179 0.0
182 0.000997
184 0.000997
188 0.000998
190 0.000998
128 0.0
78 0.0
69 0.0
81 0.0
92 0.0
96 0.0
107 0.0
125 0.0
131 0.001008
130 0.0
129 0.0
132 0.0
148 0.000997
154 0.000998
165 0.0
172 0.0
178 0.0
182 0.0
186 0.0
196 0.000998
203 0.0
200 0.0
152 0.0
95 0.0
82 0.001
100 0.0
108 0.000998
116 0.0
130 0.0
134 0.0
135 0.0
137 0.001877
138 0.001053
146 0.0
154 0.0
159 0.000998
173 0.0
179 0.000996
183 0.0
186 0.001004
192 0.0
200 0.0
207 0.0
180 0.000966
113 0.000993
75 0.0
79 0.0
92 0.0
102 0.0
110 0.0
120 0.000997
122 0.001047
118 0.000997
116 0.000997
125 0.0
134 0.001995
143 0.000997
155 0.0
159 0.0
163 0.0
169 0.0
175 0.0
181 0.001025
165 0.000997
86 0.0
63 0.000997
60 0.0
73 0.000977
87 0.000997
98 0.000998
107 0.0
112 0.0
114 0.0
113 0.000984
121 0.001995
132 0.000998
140 0.001012
144 0.000997
155 0.0
164 0.001997
174 0.00103
191 0.001002
189 0.000993
127 0.001038
56 0.000999
60 0.002002
72 0.000998
78 0.002044
84 0.002028
93 0.000981
102 0.001
108 0.001017
107 0.002005
110 0.002045
120 0.000958
131 0.00103
146 0.000997
153 0.00203
159 0.002027
167 0.001995
176 0.002034
181 0.000996
139 0.000999
78 0.000997
50 0.001996
52 0.001996
68 0.000996
76 0.000998
86 0.001008
95 0.000998
102 0.000988
104 0.002953
105 0.00199
109 0.000967
116 0.00098
125 0.001039
134 0.002007
142 0.002001
153 0.000998
160 0.000967
170 0.001002
172 0.001958
133 0.000997
70 0.002004
42 0.002992
52 0.002027
63 0.001995
67 0.002013
74 0.003023
85 0.003025
95 0.000964
95 0.000999
101 0.000951
105 0.001974
112 0.001006
122 0.001995
135 0.002991
147 0.001999
151 0.002005
155 0.001994
158 0.003024
164 0.002993
176 0.002056
169 0.002028
65 0.001995
39 0.002034
40 0.001029
51 0.003024
57 0.00303
64 0.001939
74 0.00197
84 0.001993
86 0.002992
87 0.00399
90 0.001997
98 0.001995
114 0.001994
125 0.001994
135 0.001996
143 0.002992
152 0.003029
159 0.002036
162 0.002984
170 0.003027
176 0.003028
134 0.003989
55 0.002005
40 0.001999
60 0.001994
72 0.001998
79 0.002992
89 0.002993
100 0.002986
104 0.002993
99 0.002027
102 0.001992
108 0.002989
118 0.00399
126 0.003989
136 0.003029
145 0.00402
155 0.003026
164 0.002973
169 0.002993
147 0.004034
82 0.003991
41 0.003027
47 0.002
62 0.003016
72 0.003989
79 0.004992
95 0.002952
104 0.003962
104 0.002991
107 0.002986
112 0.002992
118 0.00402
128 0.00399
141 0.003026
150 0.003022
157 0.003028
166 0.003995
173 0.003989
143 0.003991
59 0.004987
33 0.003042
44 0.002982
58 0.002981
68 0.00402
76 0.004025
90 0.002985
94 0.002991
91 0.002978
88 0.003989
95 0.00402
105 0.002964
115 0.00399
128 0.003965
138 0.004032
146 0.004025
133 0.004987
80 0.004986
32 0.002965
29 0.004023
43 0.004023
59 0.004987
69 0.005026
85 0.00402
94 0.005017
94 0.004025
95 0.002986
99 0.003956
106 0.004984
114 0.004986
123 0.00399
133 0.00399
139 0.003991
111 0.004986
50 0.005021
16 0.004021
27 0.005984
40 0.003979
48 0.005019
59 0.00504
66 0.005984
67 0.005989
60 0.003987
62 0.005025
68 0.00399
77 0.004987
86 0.004986
100 0.00495
111 0.004987
98 0.005984
26 0.004987
0 0.003989
4 0.004986
14 0.005972
24 0.006016
37 0.003989
48 0.00402
55 0.003983
60 0.004986
61 0.005021
70 0.004978
76 0.005984
87 0.003984
99 0.004987
106 0.004987
115 0.005988
116 0.005989
48 0.004987
5 0.005044
0 0.005025
8 0.005984
19 0.005974
29 0.005986
40 0.005991
52 0.005007
53 0.004989
51 0.004989
56 0.005982
65 0.006015
75 0.005027
85 0.004981
94 0.005025
102 0.007022
110 0.007027
123 0.006018
130 0.005986
99 0.00499
37 0.005006
3 0.004956
3 0.005985
15 0.006014
24 0.00502
30 0.005021
41 0.005925
51 0.007014
53 0.006981
59 0.00698
63 0.006986
72 0.004985
78 0.004974
87 0.005975
98 0.007031
109 0.006988
119 0.006014
129 0.004988
134 0.005955
139 0.00695
149 0.006978
163 0.006985
115 0.007032
34 0.005986
20 0.006015
28 0.005981
36 0.007014
43 0.006981
52 0.005978
62 0.005955
67 0.005982
69 0.007011
73 0.007967
79 0.006981
88 0.007978
99 0.005983
108 0.006981
119 0.006976
126 0.007012
137 0.00798
146 0.005944
152 0.006981
164 0.005983
177 0.007975
183 0.007985
167 0.007016
99 0.007003
40 0.005978
37 0.005987
48 0.005986
60 0.006013
68 0.007966
73 0.007941
88 0.007016
92 0.006971
91 0.00701
90 0.007944
99 0.005984
113 0.007979
119 0.007944
129 0.005986
138 0.005968
147 0.007011
156 0.007979
159 0.007974
164 0.005987
172 0.006987
185 0.006979
193 0.007979
104 0.007013
52 0.007945
41 0.007948
57 0.007016
68 0.005939
79 0.006981
91 0.007978
99 0.007979
99 0.006987
98 0.006977
96 0.006983
101 0.007979
120 0.006969
134 0.007947
143 0.007948
152 0.007
159 0.006978
166 0.007016
173 0.007014
173 0.007945
85 0.006966
44 0.007015
41 0.007014
52 0.007015
71 0.00697
94 0.00802
110 0.008009
120 0.00698
117 0.00701
116 0.007042
117 0.006976
128 0.006984
141 0.007009
151 0.006982
160 0.007012
168 0.00698
176 0.00677
181 0.006983
186 0.006982
151 0.006981
64 0.006979
42 0.007009
48 0.007014
58 0.007015
65 0.007025
71 0.007014
84 0.006494
92 0.006956
96 0.00695
95 0.005983
99 0.006981
111 0.00701
119 0.007014
127 0.007015
137 0.006978
145 0.007008
154 0.005983
162 0.005987
169 0.006016
152 0.00602
52 0.006019
32 0.006021
37 0.006032
46 0.006982
50 0.007053
55 0.006017
62 0.006999
69 0.007025
67 0.007015
69 0.00594
76 0.005983
82 0.006982
97 0.006981
106 0.005983
112 0.006018
119 0.006017
132 0.005671
143 0.006018
152 0.006019
148 0.006019
97 0.006014
36 0.005985
32 0.004989
43 0.00602
55 0.006022
63 0.006018
74 0.006015
82 0.005971
85 0.006028
84 0.006033
85 0.005992
93 0.005853
103 0.006015
113 0.006018
120 0.005984
128 0.005986
138 0.006028
143 0.006022
151 0.005985
151 0.005987
85 0.006025
47 0.006017
41 0.00599
54 0.004986
67 0.004988
78 0.004991
89 0.005034
100 0.004981
101 0.005021
102 0.006021
105 0.006039
112 0.005021
120 0.004984
126 0.005022
133 0.005021
140 0.005017
147 0.005019
158 0.004983
161 0.00502
131 0.004969
52 0.005021
40 0.005019
50 0.004993
63 0.00499
75 0.005174
87 0.005089
97 0.005649
101 0.004997
98 0.005026
96 0.005021
95 0.00499
98 0.005
111 0.00503
121 0.005072
130 0.005023
136 0.00399
141 0.004984
137 0.004987
91 0.003989
43 0.004987
30 0.004993
42 0.004987
49 0.004986
54 0.004991
68 0.00502
76 0.004022
80 0.004023
79 0.003985
85 0.003989
91 0.004866
102 0.004021
110 0.003982
120 0.003932
128 0.004022
134 0.003957
144 0.003992
134 0.004043
81 0.004986
42 0.003989
35 0.004286
42 0.004023
53 0.004975
58 0.004025
69 0.004021
80 0.003991
88 0.004053
89 0.004004
92 0.003991
104 0.003989
112 0.003991
118 0.003995
125 0.00403
134 0.004988
144 0.002995
149 0.002993
156 0.004029
164 0.003948
171 0.004028
163 0.004009
106 0.003985
49 0.004026
54 0.004025
64 0.003029
70 0.003955
74 0.003995
82 0.003991
93 0.003848
98 0.002993
99 0.003947
102 0.003985
111 0.003031
116 0.002994
130 0.003953
139 0.003986
147 0.003588
155 0.004311
162 0.002943
170 0.004026
177 0.00399
184 0.002992
191 0.002993
191 0.002993
124 0.002992
78 0.003989
73 0.003593
87 0.00303
96 0.002992
103 0.002992
113 0.004025
126 0.002993
129 0.003033
131 0.002992
135 0.003029
142 0.00296
152 0.002993
161 0.002959
171 0.002993
177 0.002993
183 0.002993
185 0.002992
184 0.003031
184 0.002992
190 0.002019
194 0.001997
157 0.002022
101 0.003023
79 0.00299
89 0.002976
106 0.003033
113 0.002967
121 0.002982
129 0.001995
132 0.001994
132 0.002994
136 0.002
143 0.001994
151 0.001995
157 0.00199
166 0.003002
171 0.002991
171 0.002993
177 0.001994
183 0.002019
187 0.002028
158 0.002028
99 0.001995
65 0.002025
71 0.001995
84 0.002026
96 0.003037
103 0.000998
117 0.00198
127 0.000997
126 0.002056
128 0.001996
136 0.002055
147 0.002031
152 0.002041
157 0.001039
165 0.002049
172 0.001995
180 0.002035
188 0.001998
191 0.001998
131 0.001994
73 0.001033
73 0.000998
88 0.000998
96 0.000997
101 0.000998
109 0.002051
114 0.002023
118 0.001991
121 0.001959
124 0.001962
127 0.002013
136 0.002003
146 0.002007
155 0.000998
162 0.001013
167 0.000997
172 0.000998
183 0.000997
183 0.000997
139 0.000998
85 0.001997
66 0.001058
74 0.000998
88 0.001995
95 0.000997
103 0.001999
114 0.000998
121 0.000998
124 0.000998
131 0.000997
134 0.000997
139 0.002065
147 0.000949
152 0.002023
159 0.0
165 0.0
177 0.000998
182 0.000997
184 0.000979
156 0.000998
97 0.000997
62 0.000998
71 0.000997
84 0.000967
92 0.000967
101 0.001057
117 0.001002
124 0.0
127 0.000997
128 0.0
134 0.0
142 0.0
151 0.0
162 0.0
168 0.000998
173 0.000991
176 0.000979
178 0.0
186 0.0
192 0.0
145 0.0
89 0.0
71 0.0
80 0.0
90 0.000997
96 0.000997
104 0.000998
110 0.0
115 0.0
121 0.0
124 0.0
129 0.0
136 0.0
147 0.000991
156 0.0
163 0.0
173 0.0
182 0.0
193 0.0
199 0.000996
172 0.0
98 0.0
79 0.0
94 0.000965
109 0.0
120 0.000998
129 0.0
139 0.0
141 0.0
140 0.000997
144 0.001044
148 0.00103
159 0.0
164 0.0
172 0.0
185 0.0
194 0.0
202 0.001031
200 0.000999
128 0.0
83 0.0
77 0.0
90 0.000998
108 0.001995
119 0.001
133 0.0
140 0.0
138 0.0
136 0.0
139 0.00199
146 0.001041
161 0.000987
169 0.0
177 0.000949
186 0.000998
196 0.002062
178 0.0
116 0.0
74 0.0
77 0.0
92 0.0
104 0.001049
115 0.001994
131 0.0
135 0.00097
133 0.0
130 0.001025
134 0.002042
143 0.0
150 0.0
157 0.0
171 0.0
176 0.0
163 0.001997
101 0.001996
47 0.0
48 0.0
60 0.0
72 0.002037
79 0.002025
94 0.0
105 0.0
107 0.0
111 0.0
116 0.0
129 0.002004
144 0.001997
154 0.001995
160 0.0
171 0.000983
175 0.00105
134 0.002943
74 0.002035
53 0.000951
60 0.000983
75 0.000953
85 0.000945
98 0.001005
110 0.001996
114 0.001934
112 0.000999
115 0.000985
122 0.00095
129 0.001996
138 0.001997
151 0.001994
158 0.002162
171 0.001995
183 0.00199
179 0.001999
117 0.001995
60 0.003039
39 0.000959
50 0.002044
64 0.001042
72 0.00304
80 0.003032
95 0.000999
101 0.001024
102 0.000985
105 0.001045
112 0.001962
119 0.002996
130 0.003002
147 0.00199
155 0.002014
162 0.001999
170 0.003006
180 0.003036
163 0.002029
92 0.001994
42 0.001978
49 0.000987
63 0.00195
73 0.003045
85 0.003028
95 0.001002
100 0.000997
100 0.001962
100 0.002994
103 0.00399
119 0.001995
129 0.001994
148 0.002
156 0.000983
163 0.001044
171 0.00299
179 0.002993
159 0.001998
72 0.001994
3 0.001973
0 0.002991
34 0.003026
72 0.002004
85 0.002998
102 0.002019
105 0.002026
107 0.002028
110 0.003023
117 0.003989
125 0.002015
137 0.002003
151 0.002008
164 0.003051
176 0.003044
189 0.002992
199 0.002051
214 0.003989
153 0.001964
80 0.002025
52 0.002025
56 0.004023
72 0.00399
92 0.001994
106 0.001995
118 0.001994
126 0.003029
128 0.004054
125 0.002987
131 0.00399
145 0.002958
159 0.001961
170 0.002979
183 0.003973
197 0.004021
211 0.003027
174 0.002989
97 0.003038
57 0.003984
55 0.003949
77 0.002936
99 0.004021
121 0.002992
132 0.003038
132 0.003088
127 0.003989
125 0.004027
133 0.003002
142 0.003993
154 0.003035
167 0.005042
180 0.00505
200 0.002975
159 0.005023
66 0.00299
45 0.002994
54 0.002992
71 0.004983
85 0.004987
104 0.002961
117 0.003005
122 0.002965
116 0.005018
115 0.005019
124 0.003999
137 0.004986
150 0.003989
161 0.003992
174 0.003989
170 0.004987
103 0.005017
35 0.003955
32 0.003985
45 0.003982
60 0.005025
75 0.004988
96 0.004021
104 0.006019
100 0.003032
99 0.003026
105 0.002987
114 0.006022
125 0.005986
142 0.003997
154 0.003989
157 0.004
110 0.004987
47 0.005002
21 0.003979
39 0.004986
54 0.003989
63 0.00399
77 0.003988
86 0.005951
89 0.005014
89 0.004988
92 0.004987
97 0.004996
103 0.006011
110 0.006019
124 0.004973
142 0.005984
82 0.004986
25 0.005025
3 0.004023
7 0.003989
16 0.005985
26 0.005985
40 0.003981
55 0.003966
64 0.003958
67 0.007016
68 0.007033
75 0.005986
81 0.005984
95 0.004002
108 0.003986
120 0.004958
134 0.006982
140 0.006982
70 0.004984
13 0.004956
0 0.004985
6 0.005985
18 0.00599
31 0.006038
43 0.00602
56 0.004002
60 0.00402
60 0.003991
64 0.00598
69 0.005984
80 0.004979
92 0.006017
102 0.006015
111 0.005983
123 0.005982
139 0.00598
123 0.006017
35 0.00499
1 0.004982
3 0.004087
13 0.005983
22 0.00702
39 0.005986
51 0.005988
58 0.004986
58 0.006982
59 0.007014
68 0.005982
76 0.007005
92 0.004986
108 0.006012
118 0.005987
123 0.006982
133 0.006981
148 0.005984
158 0.004985
147 0.006044
78 0.007009
15 0.007977
16 0.007978
27 0.00798
43 0.005951
55 0.005985
65 0.005983
67 0.007014
67 0.006984
69 0.005995
74 0.005999
84 0.00502
96 0.007979
106 0.00798
124 0.007977
130 0.00802
145 0.006013
154 0.005986
161 0.005986
114 0.007945
51 0.007977
22 0.005984
26 0.006985
40 0.006015
56 0.008011
70 0.007979
88 0.005979
89 0.007978
88 0.007978
89 0.005983
99 0.005984
109 0.005982
120 0.006981
127 0.007981
134 0.005986
143 0.006985
151 0.00699
157 0.00798
163 0.006016
108 0.007959
37 0.00801
27 0.005981
38 0.006009
50 0.006948
57 0.007945
61 0.00798
69 0.006031
76 0.005941
77 0.005989
82 0.00698
94 0.006823
106 0.007896
118 0.007988
134 0.006986
143 0.006983
154 0.006983
168 0.008005
174 0.007976
144 0.006986
62 0.007014
41 0.006979
41 0.006986
56 0.005984
65 0.006981
75 0.006981
85 0.006968
93 0.007008
100 0.007001
107 0.00698
111 0.00698
122 0.006985
131 0.006964
139 0.00698
149 0.006971
163 0.006979
173 0.006716
181 0.006984
190 0.006946
142 0.00698
70 0.006975
35 0.007012
35 0.007028
52 0.007014
60 0.007013
65 0.006979
77 0.005991
95 0.005978
97 0.006015
99 0.007008
105 0.006981
114 0.006993
124 0.006964
134 0.006985
142 0.00698
153 0.00698
161 0.006982
169 0.00698
183 0.006987
198 0.006015
195 0.006022
127 0.006023
47 0.00602
37 0.006017
47 0.005978
58 0.005984
68 0.00703
78 0.00696
84 0.006971
90 0.00698
92 0.006025
88 0.006946
98 0.005984
108 0.006019
124 0.006406
134 0.006983
144 0.005983
156 0.006016
168 0.005952
178 0.006021
190 0.005986
199 0.005985
212 0.005985
167 0.006017
88 0.006022
51 0.005991
52 0.006018
69 0.004995
76 0.004987
87 0.005982
101 0.00599
111 0.005982
111 0.005983
110 0.005983
112 0.006019
128 0.005984
139 0.006027
151 0.006018
164 0.00502
175 0.004986
185 0.004977
192 0.004988
195 0.004988
206 0.004955
224 0.005944
178 0.005996
98 0.004975
47 0.005023
53 0.00502
58 0.005021
61 0.005038
78 0.004951
91 0.005017
96 0.004951
93 0.005015
91 0.004986
100 0.004978
112 0.005016
127 0.004988
153 0.004986
167 0.003959
181 0.004992
194 0.004986
209 0.00399
222 0.004991
205 0.005029
114 0.005023
50 0.005016
35 0.005017
48 0.005019
66 0.005012
93 0.005025
110 0.004991
121 0.004769
125 0.004989
128 0.003989
134 0.003998
145 0.003991
162 0.003987
181 0.004956
208 0.005019
226 0.005019
243 0.005022
255 0.005021
237 0.005019
143 0.005018
92 0.004022
91 0.003997
103 0.003991
117 0.004007
134 0.003945
156 0.004055
171 0.003989
168 0.003988
158 0.003988
153 0.003989
155 0.003996
166 0.004046
180 0.004026
202 0.002957
225 0.003988
245 0.004029
218 0.003989
119 0.004974
49 0.00399
33 0.004021
60 0.003928
111 0.003717
134 0.004004
148 0.003976
146 0.004021
146 0.003
171 0.003983
195 0.003041
209 0.002999
215 0.003983
216 0.003971
227 0.003986
232 0.004003
191 0.003991
178 0.003991
134 0.003065
103 0.002986
96 0.002987
101 0.003989
105 0.003958
113 0.003989
123 0.00399
133 0.003989
134 0.003988
128 0.003818
131 0.002956
138 0.002986
142 0.002977
143 0.002993
146 0.003994
154 0.003003
157 0.003028
159 0.00404
164 0.00399
177 0.003987
178 0.003989
124 0.003988
62 0.004025
61 0.003996
68 0.003956
74 0.003024
80 0.002991
91 0.002935
99 0.003045
108 0.002994
120 0.002993
129 0.00299
139 0.002953
144 0.002958
145 0.003833
151 0.003867
162 0.002991
170 0.002991
176 0.002992
176 0.002992
177 0.002996
180 0.003043
160 0.002949
111 0.001995
80 0.001959
81 0.00302
90 0.002993
91 0.001991
92 0.002992
98 0.002992
107 0.002985
114 0.003031
117 0.002957
122 0.001993
126 0.001949
129 0.001996
134 0.001995
137 0.00198
146 0.00199
151 0.002956
156 0.001998
163 0.002985
165 0.001961
113 0.001961
78 0.00203
69 0.001964
76 0.002005
84 0.001958
92 0.003038
97 0.003006
109 0.001995
115 0.001989
118 0.001996
123 0.001996
127 0.001995
131 0.001995
140 0.00201
148 0.002029
154 0.001995
160 0.001991
165 0.002051
173 0.001956
184 0.001994
164 0.001995
120 0.001989
97 0.001028
95 0.001994
102 0.001039
109 0.001031
114 0.000997
119 0.001966
125 0.001995
129 0.00204
132 0.001985
136 0.001012
139 0.00203
141 0.002014
147 0.001033
153 0.002
159 0.001054
165 0.001961
170 0.001009
176 0.000996
183 0.000997
186 0.000997
144 0.000998
109 0.000998
110 0.000997
117 0.002
123 0.001031
128 0.000997
136 0.001031
143 0.00099
145 0.001042
145 0.001026
146 0.000999
148 0.001031
153 0.00198
158 0.000991
166 0.001961
170 0.000998
175 0.00198
181 0.0
187 0.0
160 0.0
128 0.0
116 0.001008
120 0.001028
128 0.000963
137 0.001031
145 0.001995
153 0.001995
156 0.0
155 0.0
155 0.0
155 0.0
159 0.001033
163 0.0
169 0.000997
175 0.0
181 0.0
187 0.0
191 0.0
150 0.0
125 0.0
123 0.0
129 0.0
136 0.0
144 0.0
150 0.0
154 0.0
155 0.0
154 0.0
153 0.0
157 0.0
161 0.0
166 0.0
172 0.0
176 0.000985
181 0.0
186 0.0
184 0.0
151 0.0
121 0.000961
120 0.0
131 0.0
141 0.0
146 0.0
155 0.001031
156 0.001034
154 0.000997
152 0.000997
153 0.0
157 0.001996
161 0.000996
167 0.000988
171 0.000997
175 0.000996
179 0.0
185 0.0
169 0.002052
144 0.002026
117 0.000997
124 0.0
136 0.000976
147 0.002
156 0.003025
165 0.001028
166 0.001031
164 0.0
156 0.000973
155 0.0
161 0.001029
169 0.001951
176 0.000973
183 0.0
188 0.000991
199 0.001973
200 0.002003
155 0.0
122 0.0
112 0.0
124 0.001022
138 0.0
147 0.001996
155 0.002992
156 0.000996
153 0.0
151 0.0
151 0.002028
155 0.00205
164 0.0
169 0.000962
172 0.001029
178 0.0
178 0.0
160 0.001995
118 0.001941
93 0.001009
101 0.0
115 0.0
122 0.002987
128 0.003001
138 0.0
140 0.000999
139 0.0
135 0.000953
138 0.0
145 0.003034
150 0.003018
157 0.0
162 0.0
168 0.000966
171 0.001023
149 0.002028
92 0.0
78 0.0
87 0.0
106 0.0
113 0.000997
119 0.000971
125 0.001995
126 0.001996
127 0.001033
129 0.002015
134 0.000998
139 0.002949
144 0.003003
147 0.001027
151 0.001014
156 0.000999
160 0.000995
155 0.000983
114 0.002993
79 0.002993
73 0.001021
82 0.000962
91 0.001051
96 0.002994
101 0.00303
110 0.002009
115 0.000912
115 0.00102
117 0.002001
120 0.002015
126 0.00303
131 0.002993
139 0.00199
147 0.001042
155 0.00201
157 0.002992
159 0.003991
162 0.001994
163 0.001994
113 0.001983
75 0.002
67 0.00204
75 0.002993
85 0.004074
91 0.001995
97 0.001996
104 0.001029
108 0.002978
107 0.003038
108 0.001981
113 0.001963
124 0.000997
127 0.00196
132 0.001995
138 0.002988
142 0.003003
148 0.002
153 0.000989
156 0.002013
159 0.002993
163 0.003035
171 0.001964
160 0.001994
89 0.000997
75 0.001981
82 0.001995
91 0.004024
94 0.004031
99 0.001994
104 0.001997
105 0.001995
107 0.002992
109 0.002995
113 0.002019
118 0.002012
123 0.001982
125 0.001997
128 0.002997
132 0.005021
134 0.00399
139 0.003032
139 0.002
142 0.001933
146 0.004023
154 0.004027
151 0.001996
110 0.002027
62 0.001988
67 0.00299
78 0.002968
86 0.004029
90 0.003991
97 0.003991
102 0.001987
106 0.002945
107 0.002993
110 0.003991
114 0.003976
123 0.002994
133 0.003987
141 0.001958
145 0.001996
150 0.001995
155 0.00399
158 0.004022
166 0.002966
172 0.002949
153 0.002992
109 0.00502
82 0.005024
83 0.002978
96 0.005018
104 0.002999
111 0.002945
117 0.002992
119 0.004023
117 0.004987
116 0.001995
118 0.002995
121 0.003012
125 0.003905
132 0.005023
142 0.001979
152 0.005045
153 0.002962
157 0.002962
160 0.003
138 0.004988
87 0.004999
56 0.002978
60 0.003957
72 0.003972
83 0.004988
89 0.005988
99 0.00399
105 0.004987
104 0.003991
104 0.002985
106 0.003
112 0.005002
119 0.004986
128 0.004003
132 0.003958
137 0.003944
142 0.006017
147 0.006029
147 0.003945
93 0.006005
47 0.002992
43 0.003959
50 0.003954
56 0.005019
59 0.00504
67 0.002996
74 0.002991
77 0.003975
76 0.005018
74 0.005987
78 0.003969
83 0.005986
94 0.003989
98 0.00399
102 0.00402
104 0.006002
109 0.00498
111 0.004987
78 0.002992
35 0.003991
20 0.005983
25 0.005986
40 0.004014
49 0.005985
60 0.003989
67 0.003974
70 0.003974
70 0.005985
69 0.007013
74 0.007014
85 0.003991
93 0.004004
103 0.004969
109 0.006045
116 0.006022
125 0.006042
134 0.005974
142 0.003989
111 0.003986
58 0.003984
29 0.006983
28 0.007017
41 0.004986
49 0.004987
54 0.004984
64 0.005972
74 0.007017
78 0.007017
79 0.006981
85 0.004992
92 0.004987
99 0.004986
107 0.006982
113 0.006982
122 0.005949
129 0.005022
134 0.006009
140 0.007016
147 0.006981
135 0.007046
78 0.007013
35 0.004989
34 0.004987
42 0.004987
52 0.006986
58 0.007018
68 0.004993
73 0.004987
74 0.00499
75 0.007014
77 0.007028
89 0.006021
99 0.006982
110 0.004996
119 0.005012
127 0.004949
135 0.007017
144 0.007014
153 0.004996
159 0.004
131 0.005008
73 0.006981
42 0.006952
45 0.006935
55 0.006982
68 0.004982
78 0.004991
87 0.005006
89 0.00796
86 0.007946
88 0.005982
94 0.005949
102 0.005984
111 0.007945
119 0.006982
138 0.007976
145 0.007979
153 0.005017
161 0.005942
170 0.005952
159 0.007979
82 0.00796
46 0.005985
43 0.005982
53 0.005979
64 0.007944
79 0.007986
96 0.007979
104 0.007953
106 0.005991
104 0.006045
110 0.006981
116 0.006986
124 0.007979
136 0.007979
150 0.004987
159 0.005985
168 0.005986
179 0.007979
169 0.005985
109 0.007976
62 0.007016
63 0.006981
78 0.006962
89 0.006982
101 0.007979
108 0.007979
117 0.006952
115 0.006997
111 0.006987
113 0.007978
124 0.006042
137 0.007014
148 0.00699
159 0.006968
167 0.006979
175 0.006975
136 0.007013
83 0.006979
59 0.006957
61 0.006987
73 0.006999
84 0.007978
108 0.006994
115 0.007014
111 0.006626
106 0.006982
107 0.006982
115 0.006976
125 0.006982
134 0.005989
145 0.006976
153 0.005981
160 0.005983
153 0.007008
67 0.006997
40 0.007003
40 0.00698
50 0.006981
58 0.006984
67 0.006982
78 0.006984
83 0.007016
82 0.00695
80 0.006015
85 0.006013
94 0.006013
107 0.005997
114 0.00598
123 0.005987
139 0.005987
138 0.006976
93 0.005981
44 0.006965
23 0.006809
25 0.006958
35 0.005981
42 0.005958
51 0.006014
66 0.005979
67 0.006023
67 0.005988
75 0.005985
85 0.005984
97 0.005987
108 0.005968
119 0.007016
130 0.005976
138 0.005992
146 0.005974
147 0.006018
64 0.006015
30 0.005981
24 0.006017
32 0.005973
38 0.005963
45 0.005971
57 0.005969
64 0.006016
66 0.004987
68 0.006015
71 0.00502
78 0.006031
95 0.005998
108 0.006015
117 0.00602
128 0.006077
141 0.005952
150 0.006015
158 0.005988
165 0.005987
139 0.00601
63 0.006016
35 0.005983
33 0.005984
46 0.004986
53 0.004993
64 0.004986
74 0.004987
76 0.004985
75 0.006018
77 0.005974
83 0.004986
91 0.004986
105 0.004986
117 0.004983
128 0.00502
142 0.005022
150 0.004989
156 0.005016
163 0.004986
175 0.004926
170 0.004984
116 0.003999
63 0.00502
44 0.003975
47 0.00399
56 0.005044
63 0.00502
79 0.004988
84 0.004986
84 0.004947
84 0.004986
95 0.004987
103 0.004992
115 0.004986
128 0.004988
140 0.003989
153 0.003989
161 0.00399
167 0.00399
179 0.004988
186 0.003991
196 0.005028
189 0.005011
112 0.004926
72 0.003981
64 0.004037
72 0.00402
81 0.004988
93 0.004991
103 0.005026
111 0.005037
106 0.003957
105 0.004706
112 0.004024
124 0.003988
137 0.00495
147 0.003986
154 0.003937
154 0.003923
156 0.00399
163 0.003996
173 0.00448
184 0.003986
163 0.003958
108 0.00398
75 0.003959
70 0.003955
78 0.003953
91 0.003991
101 0.00399
111 0.003989
115 0.002993
110 0.003043
103 0.003034
110 0.004012
129 0.00399
145 0.003984
160 0.004972
168 0.003956
174 0.002994
183 0.003991
190 0.003978
197 0.003978
196 0.003983
142 0.00399
63 0.00399
41 0.003985
49 0.002986
58 0.002992
67 0.002965
80 0.003026
94 0.003033
99 0.002958
96 0.002957
100 0.002989
110 0.002959
119 0.004002
133 0.004752
147 0.003034
161 0.003025
169 0.002991
180 0.002992
191 0.002992
184 0.002991
101 0.003961
56 0.003021
44 0.002967
49 0.002959
57 0.004034
63 0.002992
66 0.002993
80 0.003027
81 0.003023
82 0.002992
88 0.002992
97 0.002948
110 0.002974
125 0.002993
137 0.003025
147 0.001969
157 0.002993
169 0.00399
177 0.003032
192 0.002999
154 0.002021
86 0.002979
45 0.003026
35 0.002026
43 0.001995
50 0.00297
56 0.002042
66 0.002023
76 0.003024
82 0.002991
81 0.001994
89 0.001995
101 0.001992
111 0.003024
123 0.002945
135 0.001991
149 0.002006
156 0.001997
165 0.000995
175 0.001961
184 0.003027
181 0.003025
123 0.002993
48 0.001996
45 0.001963
52 0.001963
59 0.001995
64 0.002035
80 0.002011
90 0.001987
91 0.003007
91 0.001996
95 0.003035
103 0.002031
115 0.001996
132 0.001981
149 0.001997
159 0.001999
165 0.001989
171 0.002018
178 0.001987
187 0.000998
200 0.000997
200 0.001995
145 0.001995
82 0.000998
55 0.001005
61 0.002029
69 0.001991
75 0.001985
83 0.001968
89 0.002027
89 0.000992
87 0.001006
90 0.001012
95 0.001033
103 0.001
114 0.000998
135 0.000998
158 0.000994
173 0.002029
181 0.002042
189 0.002066
200 0.000997
208 0.001996
163 0.001004
98 0.001043
62 0.001003
56 0.000972
63 0.000997
74 0.000997
85 0.001995
96 0.002035
100 0.002039
97 0.000965
99 0.000998
103 0.000996
116 0.000998
125 0.001995
134 0.001004
144 0.001007
154 0.001995
167 0.002019
180 0.001026
194 0.0
206 0.0
196 0.000965
135 0.0
77 0.001016
56 0.001032
62 0.000998
70 0.000998
72 0.000998
77 0.001996
87 0.000997
93 0.0
94 0.0
101 0.0
112 0.0
123 0.0
139 0.0
160 0.0
172 0.0
183 0.001027
194 0.000998
202 0.000997
211 0.000998
222 0.0
240 0.0
217 0.0
138 0.0
79 0.0
61 0.0
63 0.0
67 0.0
70 0.0
79 0.0
93 0.0
104 0.000965
105 0.0
106 0.0
113 0.0
128 0.0
140 0.0
155 0.0
166 0.0
181 0.0
186 0.0
194 0.0
204 0.0
214 0.000998
232 0.0
244 0.001022
203 0.0
120 0.002025
62 0.0
59 0.0
67 0.000989
77 0.000998
83 0.001998
99 0.000952
107 0.0
111 0.0
110 0.000997
113 0.000994
121 0.0
133 0.001046
146 0.000985
164 0.0
177 0.000968
187 0.002033
194 0.002028
205 0.0
209 0.000983
222 0.000952
235 0.0
204 0.000987
99 0.0
60 0.000998
63 0.0
75 0.001955
82 0.001016
96 0.002037
108 0.002042
115 0.0
113 0.0
112 0.0
121 0.000971
130 0.0
144 0.003051
156 0.002994
174 0.0
185 0.000959
196 0.000953
205 0.0
215 0.002994
228 0.0
239 0.000993
178 0.0
108 0.001
91 0.0
90 0.002032
94 0.002994
102 0.001207
107 0.0
112 0.0
115 0.003024
114 0.00202
112 0.000999
114 0.0
119 0.000962
130 0.0
138 0.001013
144 0.001989
150 0.00297
157 0.000994
163 0.000998
168 0.001036
173 0.002028
151 0.002019
100 0.0
85 0.0
85 0.0
94 0.000966
99 0.000998
106 0.002029
110 0.002042
111 0.000992
109 0.0
110 0.000997
115 0.001002
119 0.001995
128 0.0
134 0.0
140 0.000968
148 0.0
154 0.0
160 0.001031
160 0.001997
129 0.003037
88 0.000938
80 0.0
83 0.0
88 0.002026
94 0.002002
102 0.0
108 0.0
108 0.001014
106 0.0
107 0.001998
112 0.001986
117 0.002992
125 0.001993
130 0.000963
135 0.001998
139 0.002992
147 0.003024
151 0.002001
125 0.0
91 0.002009
59 0.0
65 0.0
73 0.003995
80 0.003989
92 0.001993
100 0.001004
99 0.00097
97 0.002992
98 0.003034
103 0.000968
111 0.002017
120 0.002011
132 0.002947
138 0.001997
145 0.002993
151 0.003026
153 0.001988
117 0.002007
78 0.002035
61 0.002974
60 0.003037
69 0.001992
77 0.002005
85 0.001994
98 0.001982
98 0.00301
96 0.003989
96 0.003996
104 0.001981
111 0.002004
118 0.002042
125 0.003028
133 0.002984
143 0.00201
149 0.001995
148 0.001994
89 0.001996
64 0.001994
61 0.004022
67 0.003991
76 0.002029
83 0.00198
91 0.001952
93 0.00302
91 0.003957
90 0.001003
94 0.001955
100 0.001991
112 0.001992
119 0.001963
123 0.003957
129 0.004003
136 0.001958
130 0.001996
95 0.001979
66 0.004024
53 0.00399
57 0.002019
62 0.002998
69 0.001029
81 0.001961
85 0.001995
81 0.003991
80 0.00399
83 0.003992
91 0.001979
98 0.002001
106 0.002018
114 0.004988
120 0.003988
125 0.001996
132 0.002988
107 0.002966
70 0.002949
47 0.002992
42 0.004988
46 0.00502
50 0.00298
54 0.001992
62 0.002005
68 0.004022
68 0.004024
68 0.001996
72 0.001991
85 0.002967
92 0.002987
101 0.003995
108 0.005024
113 0.004994
119 0.002994
126 0.001995
134 0.002047
131 0.003997
95 0.003981
53 0.002049
43 0.003004
47 0.003007
50 0.00301
54 0.003024
61 0.00502
68 0.004983
70 0.002992
69 0.002986
73 0.002989
80 0.005021
87 0.00502
98 0.002961
104 0.002968
118 0.003955
124 0.00399
130 0.004006
136 0.006036
140 0.006018
148 0.002997
157 0.002976
163 0.003
152 0.005021
106 0.004957
61 0.002988
53 0.00299
57 0.003989
59 0.003999
62 0.003956
68 0.005988
73 0.006137
75 0.003987
76 0.004002
81 0.003991
87 0.005986
95 0.005984
106 0.00399
114 0.002992
127 0.003959
133 0.003984
139 0.002993
145 0.006988
149 0.005989
157 0.00399
164 0.002991
171 0.003978
169 0.005984
129 0.006016
79 0.002984
69 0.002996
73 0.00401
77 0.00399
79 0.003992
86 0.004022
93 0.005935
96 0.005953
94 0.003984
98 0.003992
104 0.003987
110 0.007013
119 0.006982
131 0.003992
142 0.007013
151 0.005005
157 0.00402
163 0.003984
169 0.007016
174 0.006982
181 0.003986
189 0.003996
198 0.003992
197 0.006018
154 0.006982
98 0.003989
85 0.005985
92 0.00399
99 0.00399
104 0.004989
111 0.006982
116 0.006981
117 0.003998
115 0.003986
119 0.004992
124 0.006984
132 0.006025
143 0.003992
153 0.007023
162 0.004986
169 0.004987
175 0.00499
179 0.006981
182 0.007016
188 0.004983
194 0.005975
203 0.005952
204 0.007984
164 0.00798
102 0.003989
89 0.007009
96 0.004989
103 0.00499
110 0.004984
118 0.006982
123 0.006936
122 0.004981
118 0.003989
120 0.004988
125 0.007978
134 0.00798
144 0.00499
155 0.006979
163 0.005018
167 0.004987
171 0.004956
175 0.006978
181 0.006978
190 0.004988
187 0.00597
144 0.004955
99 0.007031
79 0.007014
81 0.004987
90 0.007995
96 0.005986
103 0.005986
109 0.005953
111 0.007979
110 0.007977
112 0.005985
118 0.004984
126 0.005998
135 0.007977
146 0.007977
155 0.004986
167 0.007978
172 0.005997
178 0.005954
185 0.005985
193 0.007978
159 0.007978
106 0.005985
78 0.00598
73 0.005989
80 0.007975
85 0.007977
90 0.007979
101 0.006961
105 0.007014
106 0.006014
105 0.005966
109 0.00597
114 0.007965
124 0.007974
134 0.005952
142 0.005952
150 0.005984
157 0.00798
163 0.007978
176 0.006987
183 0.006987
174 0.006951
107 0.006951
83 0.006017
67 0.007997
71 0.007978
75 0.00599
78 0.005982
84 0.005019
92 0.007926
94 0.007978
94 0.007936
97 0.006981
103 0.006982
110 0.006977
120 0.006968
129 0.007957
137 0.008018
144 0.005985
152 0.00698
154 0.00698
163 0.007018
170 0.007015
160 0.007016
112 0.007012
68 0.006015
63 0.006965
69 0.006014
74 0.007015
78 0.006965
87 0.005985
94 0.005987
96 0.00698
94 0.007016
95 0.007026
104 0.007012
112 0.006977
120 0.00698
132 0.006674
139 0.006268
145 0.007362
150 0.006318
157 0.006015
164 0.006599
168 0.005982
169 0.006982
132 0.006981
72 0.005984
67 0.006023
73 0.005985
80 0.005989
86 0.006028
94 0.006017
102 0.006017
104 0.006943
103 0.00695
106 0.006031
111 0.006016
118 0.006017
134 0.005983
141 0.005984
152 0.005956
157 0.005985
161 0.005983
165 0.006016
171 0.00589
180 0.00503
170 0.005988
125 0.005993
89 0.006045
79 0.005987
88 0.006012
94 0.006023
101 0.006014
110 0.006004
113 0.005984
110 0.005994
108 0.005985
108 0.005984
116 0.005984
124 0.004988
133 0.004991
138 0.004992
148 0.005001
152 0.00502
158 0.005022
165 0.004989
169 0.004957
147 0.006003
104 0.005032
76 0.006016
73 0.005012
78 0.005984
84 0.004987
91 0.005022
103 0.004989
104 0.005003
103 0.004991
102 0.005765
107 0.005026
114 0.005987
122 0.005344
131 0.005018
140 0.004834
147 0.004987
153 0.004982
157 0.005019
169 0.004971
176 0.005024
158 0.004986
96 0.004986
69 0.004987
65 0.004987
69 0.00502
74 0.005017
79 0.003988
86 0.004994
92 0.004985
95 0.00502
94 0.003942
97 0.00504
103 0.005052
113 0.00467
121 0.005292
129 0.003985
136 0.004982
143 0.004986
149 0.005014
154 0.004987
160 0.003994
168 0.00402
158 0.003989
110 0.004984
72 0.004984
60 0.005024
65 0.004986
68 0.004989
71 0.004988
76 0.004849
85 0.004604
87 0.002972
88 0.002987
89 0.00399
98 0.00399
104 0.003988
113 0.003989
123 0.004992
130 0.003985
137 0.003989
143 0.003982
147 0.003989
153 0.004029
159 0.004029
165 0.004023
173 0.003993
143 0.00396
93 0.003001
67 0.00396
64 0.003988
70 0.003958
73 0.00399
76 0.004025
83 0.004032
89 0.004002
92 0.003989
91 0.00399
94 0.002964
104 0.004016
112 0.002977
121 0.003052
129 0.002992
139 0.00296
145 0.002992
151 0.002969
156 0.002992
162 0.003027
168 0.002994
175 0.002992
184 0.00399
198 0.003985
174 0.003013
116 0.003992
80 0.004379
75 0.003964
80 0.003608
86 0.004299
92 0.004022
98 0.003991
104 0.002992
106 0.004002
106 0.002991
110 0.002972
116 0.003029
125 0.002992
135 0.002992
147 0.002992
155 0.002971
164 0.003029
171 0.003582
176 0.002937
185 0.002954
192 0.002992
198 0.002992
210 0.003028
221 0.001961
220 0.002992
166 0.002991
98 0.00399
86 0.002991
91 0.002992
101 0.002991
107 0.00299
116 0.001991
122 0.001995
124 0.001994
120 0.002993
120 0.002991
126 0.00298
134 0.002992
144 0.003033
153 0.003046
161 0.003008
168 0.003019
173 0.001995
181 0.002041
184 0.002032
189 0.002036
202 0.002034
187 0.001004
131 0.001994
91 0.001991
80 0.001999
87 0.002033
96 0.002993
103 0.001985
110 0.002992
117 0.001964
116 0.001998
113 0.001995
117 0.001995
123 0.00199
132 0.001995
141 0.000997
153 0.001996
161 0.002
167 0.00096
173 0.002007
180 0.000999
188 0.00101
192 0.002021
155 0.001996
78 0.001007
68 0.001036
72 0.001996
79 0.000999
87 0.001012
96 0.001007
102 0.000997
105 0.000997
104 0.001997
103 0.00195
108 0.002054
114 0.001995
129 0.002025
138 0.002035
145 0.001999
153 0.001995
160 0.00203
168 0.000998
177 0.001034
182 0.000998
156 0.002035
103 0.001991
66 0.002041
64 0.001996
73 0.00199
78 0.002001
81 0.001998
86 0.000998
91 0.000998
88 0.001
87 0.00102
91 0.0
97 0.002031
104 0.002027
117 0.001958
125 0.001032
138 0.001013
145 0.000997
153 0.000997
159 0.000997
166 0.000993
154 0.001996
105 0.002048
64 0.000958
48 0.000997
48 0.0
52 0.0
56 0.000997
65 0.000987
72 0.000997
75 0.000998
76 0.000997
78 0.000998
86 0.000997
94 0.00096
103 0.000997
112 0.000998
121 0.0
130 0.0
137 0.0
145 0.0
152 0.0
161 0.000991
161 0.0
124 0.0
65 0.0
50 0.0
51 0.0
57 0.0
62 0.0
69 0.000997
77 0.0
83 0.000996
84 0.0
85 0.0
90 0.0
97 0.0
109 0.0
118 0.0
126 0.0
134 0.0
142 0.0
149 0.0
157 0.0
172 0.001993
179 0.001
154 0.000998
90 0.0
68 0.0
67 0.0
72 0.0
79 0.0
86 0.0
94 0.0
97 0.001013
99 0.0
98 0.0
103 0.002024
109 0.003036
121 0.000999
127 0.0
134 0.0
141 0.002026
147 0.003026
153 0.0
160 0.0
166 0.001015
170 0.002058
135 0.001988
81 0.001966
65 0.001987
71 0.0
78 0.000981
83 0.000991
89 0.001986
95 0.00203
93 0.0
89 0.0
91 0.000953
99 0.003026
114 0.001025
129 0.001996
138 0.002992
147 0.0
151 0.0
156 0.000967
160 0.002042
166 0.002027
171 0.0
143 0.0
95 0.001058
67 0.002032
68 0.0
74 0.002041
78 0.002036
86 0.0
94 0.0
97 0.0
96 0.002028
95 0.002991
103 0.0
110 0.0
119 0.0
128 0.002032
142 0.000996
149 0.002032
155 0.002029
162 0.0
170 0.0
177 0.0
168 0.002032
122 0.00305
75 0.0
66 0.0
70 0.0
77 0.001997
83 0.0
90 0.002
97 0.002031
101 0.000972
101 0.0
103 0.000975
109 0.002042
117 0.002004
129 0.0
137 0.0
146 0.001095
152 0.002988
158 0.0
164 0.001996
171 0.001984
177 0.002994
147 0.0
101 0.0
77 0.0
75 0.003031
80 0.003025
86 0.000998
90 0.000975
98 0.0
108 0.00204
108 0.001002
109 0.002046
112 0.002026
121 0.0
129 0.0
138 0.0
147 0.002993
154 0.001995
163 0.0
168 0.001994
173 0.002004
182 0.002999
171 0.00203
126 0.003034
93 0.003012
85 0.003003
90 0.002024
94 0.002
98 0.003044
105 0.002028
116 0.002002
119 0.001988
119 0.002003
125 0.002945
132 0.001993
141 0.002987
150 0.003035
162 0.002998
168 0.001995
172 0.00203
176 0.004022
181 0.00404
190 0.001994
197 0.001998
194 0.002001
126 0.001999
105 0.001993
105 0.003992
112 0.002955
120 0.002988
126 0.000996
134 0.002992
139 0.003987
134 0.004024
125 0.00198
135 0.002009
150 0.002003
171 0.001998
180 0.001998
186 0.003989
191 0.004002
200 0.001998
207 0.003061
212 0.002049
214 0.003982
192 0.002991
139 0.001955
124 0.001994
128 0.001995
141 0.00201
147 0.001998
155 0.004026
161 0.003985
163 0.002006
159 0.002
161 0.002001
166 0.004023
172 0.003991
181 0.001996
186 0.001992
190 0.001996
201 0.002991
206 0.002991
213 0.003989
214 0.003989
183 0.00399
136 0.002989
126 0.001989
129 0.001996
136 0.005017
142 0.005017
153 0.001995
158 0.002971
152 0.001987
148 0.002
149 0.001998
156 0.004023
164 0.004025
176 0.003032
182 0.002991
187 0.001993
192 0.004023
197 0.004947
185 0.001994
144 0.002025
113 0.002002
117 0.001999
127 0.003006
135 0.004028
144 0.00403
155 0.001989
156 0.003014
152 0.002944
149 0.005011
152 0.005021
160 0.002992
167 0.002991
173 0.001995
179 0.001994
186 0.002013
186 0.004992
158 0.004888
111 0.001989
99 0.003002
102 0.001993
108 0.005019
114 0.00502
122 0.002965
128 0.00209
130 0.001995
129 0.002993
131 0.002991
138 0.005987
146 0.006004
156 0.002974
163 0.002953
168 0.002993
175 0.004987
181 0.005986
181 0.002996
144 0.002992
95 0.002974
94 0.002998
99 0.002961
103 0.005993
107 0.005985
116 0.002985
123 0.002987
126 0.002993
124 0.005983
124 0.005989
130 0.003038
135 0.002992
146 0.002976
152 0.001973
157 0.003999
162 0.006019
166 0.006016
171 0.003987
177 0.003984
168 0.003992
125 0.006016
92 0.005986
82 0.002984
87 0.002967
95 0.002998
99 0.002984
105 0.003953
109 0.005984
108 0.005989
109 0.003941
113 0.003986
120 0.003991
125 0.003971
132 0.006023
138 0.006024
146 0.002945
153 0.007014
159 0.00399
163 0.003963
167 0.002994
173 0.005988
180 0.005984
170 0.003989
124 0.002992
90 0.003984
83 0.007016
87 0.006985
94 0.003973
101 0.00599
111 0.00399
115 0.004989
116 0.00499
116 0.007012
118 0.006942
125 0.003996
134 0.003989
143 0.003959
150 0.006939
155 0.007976
163 0.00499
168 0.007026
174 0.003968
178 0.003994
183 0.004984
189 0.007015
197 0.006981
175 0.003994
124 0.003988
95 0.004993
89 0.007012
96 0.007014
108 0.004982
116 0.007033
124 0.003989
125 0.004988
124 0.004987
123 0.006986
124 0.006983
132 0.003986
140 0.004986
146 0.004984
150 0.007966
153 0.006981
155 0.004989
157 0.007977
160 0.00396
167 0.005955
173 0.004953
154 0.007979
110 0.007948
82 0.004989
84 0.004988
92 0.004954
103 0.007966
107 0.007993
118 0.005988
121 0.007984
116 0.005024
116 0.004019
121 0.004985
130 0.007987
139 0.007979
147 0.004974
153 0.005989
156 0.005987
160 0.007972
164 0.007978
172 0.005984
173 0.007978
134 0.005984
94 0.005942
76 0.004986
80 0.007978
88 0.006981
94 0.005991
100 0.004984
108 0.004987
113 0.006977
111 0.007
111 0.004982
116 0.007978
122 0.007978
131 0.004991
139 0.00499
146 0.005981
154 0.006988
157 0.00798
160 0.005984
168 0.005943
175 0.006032
144 0.007986
98 0.007947
68 0.007979
71 0.007976
76 0.005984
80 0.004942
85 0.006951
93 0.006902
97 0.006982
98 0.005985
99 0.005983
100 0.005985
108 0.006982
114 0.007005
126 0.007034
131 0.007018
137 0.005987
142 0.004986
147 0.006951
153 0.007006
159 0.006985
143 0.006976
113 0.006982
72 0.005984
56 0.007012
60 0.007014
71 0.006982
74 0.006983
82 0.00598
88 0.005977
88 0.006344
87 0.007012
90 0.006988
94 0.006012
101 0.005974
112 0.005984
119 0.00598
126 0.005995
135 0.006015
140 0.007019
147 0.006951
154 0.006981
160 0.006981
150 0.006982
107 0.006989
67 0.006659
64 0.006098
70 0.005945
76 0.005957
80 0.006011
92 0.005987
95 0.006006
93 0.005977
94 0.006984
96 0.006969
103 0.006019
111 0.005984
119 0.006016
123 0.005983
129 0.005983
132 0.005977
137 0.005977
147 0.006014
153 0.005978
131 0.005983
90 0.005985
65 0.005978
62 0.006012
67 0.00598
76 0.005983
83 0.005983
90 0.006009
94 0.004952
94 0.004984
92 0.004987
96 0.004987
106 0.00598
114 0.006025
120 0.005954
127 0.005981
133 0.006018
138 0.006016
145 0.005988
151 0.005962
154 0.004857
136 0.005017
71 0.004994
56 0.004987
58 0.004986
66 0.004987
70 0.005983
76 0.004986
83 0.005966
86 0.004991
81 0.005986
81 0.005541
86 0.004983
92 0.004959
105 0.004988
112 0.005017
118 0.005018
124 0.004952
128 0.004986
135 0.004986
140 0.006012
130 0.005022
78 0.004988
52 0.004986
44 0.004987
45 0.003986
50 0.004025
56 0.005031
64 0.00503
71 0.004983
72 0.005001
73 0.004954
76 0.005022
83 0.005086
93 0.00502
101 0.004996
108 0.004985
114 0.004979
124 0.00502
129 0.005026
136 0.005039
145 0.005005
138 0.00502
97 0.005019
59 0.00502
44 0.004957
46 0.005018
50 0.004989
51 0.004019
56 0.004021
69 0.003991
72 0.00399
72 0.00399
76 0.003989
83 0.003958
90 0.003989
99 0.003988
108 0.003991
118 0.004984
125 0.004038
130 0.003947
133 0.003996
140 0.004029
147 0.003991
158 0.004022
164 0.004997
124 0.004014
79 0.003991
59 0.003993
59 0.003986
65 0.002997
71 0.003026
77 0.003989
85 0.004022
91 0.003989
89 0.003958
88 0.003958
94 0.003996
104 0.003961
112 0.003021
121 0.003034
129 0.002992
135 0.002996
144 0.003945
152 0.004006
156 0.00294
164 0.002998
171 0.00399
180 0.002991
187 0.003984
152 0.003988
102 0.002992
76 0.003021
74 0.002974
80 0.002992
87 0.002989
92 0.002946
99 0.002988
107 0.003022
106 0.003953
107 0.002994
112 0.003989
120 0.003963
128 0.002992
138 0.002992
145 0.003008
152 0.004027
161 0.002945
166 0.001962
170 0.00196
179 0.003991
185 0.002025
193 0.002036
201 0.002994
171 0.002941
119 0.003008
90 0.002993
87 0.002992
93 0.003028
103 0.003043
109 0.002992
118 0.001994
124 0.002993
123 0.003019
122 0.002037
125 0.002379
135 0.002935
143 0.003023
152 0.002975
160 0.00299
167 0.003024
173 0.002962
179 0.001955
184 0.001962
192 0.001996
200 0.001995
204 0.001996
173 0.001996
109 0.00203
92 0.00205
93 0.002049
102 0.002029
110 0.00205
119 0.002036
126 0.001985
130 0.003027
125 0.001995
125 0.002036
130 0.002025
138 0.001995
151 0.001995
158 0.002048
166 0.00203
173 0.001991
179 0.001995
185 0.001991
191 0.001989
197 0.002958
201 0.001965
157 0.002008
108 0.002028
90 0.002029
96 0.002025
106 0.001993
115 0.002025
123 0.000997
129 0.001996
130 0.002052
124 0.002021
122 0.001995
130 0.001988
137 0.003051
145 0.002047
153 0.000999
158 0.001047
165 0.002026
171 0.002033
177 0.001
182 0.001972
166 0.000997
107 0.001995
82 0.001031
86 0.000998
96 0.000998
104 0.002011
112 0.001999
117 0.001994
117 0.0
111 0.001996
109 0.000998
114 0.000997
121 0.00104
130 0.001051
134 0.001036
142 0.000964
149 0.000997
156 0.000954
161 0.000985
148 0.000997
92 0.001049
66 0.0
64 0.000996
71 0.0
78 0.0
86 0.0
93 0.0
100 0.000994
99 0.000994
99 0.0
102 0.000955
108 0.001001
118 0.000997
125 0.000998
131 0.001018
136 0.0
141 0.0
148 0.0
152 0.0
96 0.0
65 0.0
56 0.0
59 0.0
65 0.0
68 0.0
75 0.0
83 0.0
87 0.0
88 0.0
88 0.0
91 0.0
102 0.0
110 0.0
118 0.0
125 0.000998
131 0.000988
138 0.0
144 0.0
149 0.0
140 0.0
86 0.001983
59 0.0
55 0.0
61 0.0
65 0.0
69 0.0
79 0.001003
84 0.0
84 0.000953
84 0.002027
88 0.003023
96 0.000989
102 0.000956
109 0.000998
116 0.0
125 0.001001
130 0.002
134 0.003018
140 0.0
146 0.0
153 0.000964
141 0.00204
97 0.003028
61 0.0
58 0.001043
63 0.000994
69 0.002
76 0.0
84 0.003025
90 0.003027
90 0.000997
91 0.00102
94 0.0
100 0.002026
107 0.002
118 0.001962
123 0.000998
131 0.000971
137 0.002949
144 0.0
147 0.001982
150 0.002024
157 0.000981
165 0.0
163 0.0
122 0.003025
83 0.002993
68 0.002991
74 0.0
78 0.001995
85 0.004028
96 0.000953
100 0.002029
99 0.001995
96 0.0
98 0.0
103 0.000974
109 0.001989
115 0.002026
123 0.001008
130 0.000997
136 0.000997
142 0.002992
148 0.0
151 0.003025
157 0.002991
166 0.000997
153 0.00101
108 0.0
77 0.002968
70 0.003023
79 0.0
87 0.0
92 0.0
101 0.002994
108 0.0
107 0.002034
106 0.002048
111 0.000999
118 0.0
125 0.000997
134 0.002994
141 0.001999
148 0.0
152 0.0
155 0.0
157 0.003029
165 0.0
171 0.0
161 0.003039
117 0.002999
79 0.0
78 0.000997
84 0.0
89 0.003024
93 0.002027
102 0.0
109 0.0
111 0.000999
110 0.0
115 0.0
122 0.003041
129 0.003022
140 0.002002
147 0.0
154 0.0
159 0.003026
164 0.003028
170 0.000974
174 0.00101
180 0.0
190 0.0
158 0.000998
107 0.003988
81 0.002988
82 0.0
88 0.0
92 0.0
95 0.003026
102 0.003027
109 0.0
111 0.002001
111 0.001995
116 0.002025
121 0.0
128 0.002992
136 0.00403
147 0.0
153 0.001979
158 0.0
163 0.002981
168 0.00399
174 0.003032
180 0.001978
187 0.001982
191 0.002946
141 0.00296
93 0.003956
75 0.004019
79 0.002996
87 0.002993
91 0.002028
93 0.004021
100 0.004041
109 0.002999
111 0.0
111 0.002996
118 0.002991
124 0.002991
132 0.004029
140 0.004024
151 0.001995
158 0.001992
165 0.002989
169 0.003984
173 0.004022
180 0.002043
187 0.002041
196 0.002
171 0.001984
113 0.002992
82 0.00399
77 0.003989
87 0.002992
95 0.001992
100 0.003028
108 0.005029
115 0.005049
118 0.003999
116 0.002999
118 0.003005
127 0.002988
136 0.00299
145 0.00299
153 0.003978
161 0.005019
170 0.003004
174 0.004003
178 0.002997
183 0.004988
189 0.004987
200 0.001995
183 0.002
97 0.003043
81 0.001968
84 0.002999
92 0.005022
101 0.00402
111 0.002993
117 0.004035
120 0.005001
119 0.004988
115 0.005018
121 0.003006
128 0.002998
142 0.002969
151 0.002
156 0.002996
162 0.005027
164 0.004987
168 0.001995
175 0.002977
183 0.002996
168 0.005999
115 0.005982
74 0.00299
72 0.002984
88 0.002987
96 0.002994
105 0.002
114 0.00499
117 0.004998
112 0.002992
111 0.001995
115 0.002988
122 0.005989
130 0.006016
142 0.002976
148 0.004003
158 0.00199
164 0.002945
172 0.003039
179 0.005988
163 0.005929
95 0.003002
68 0.002994
64 0.002999
72 0.006032
81 0.005985
90 0.002992
98 0.002995
105 0.003987
104 0.003539
103 0.002991
107 0.005986
114 0.005987
125 0.003028
133 0.002993
140 0.004022
147 0.006984
153 0.006017
162 0.004034
169 0.003058
130 0.002997
81 0.002992
59 0.004988
59 0.002989
66 0.006982
72 0.006971
78 0.003986
84 0.003031
91 0.004992
95 0.006024
94 0.006014
96 0.003952
105 0.005978
117 0.003018
124 0.002961
132 0.00399
138 0.006941
145 0.006949
152 0.003991
160 0.003992
158 0.00399
116 0.006987
74 0.007018
57 0.004005
62 0.006981
70 0.003954
73 0.00399
80 0.004987
87 0.006985
89 0.007017
87 0.003987
91 0.003957
96 0.005028
105 0.007977
110 0.006982
120 0.005984
132 0.007978
136 0.004988
140 0.003987
146 0.005
149 0.007977
133 0.006983
77 0.004022
57 0.004032
56 0.004955
62 0.007943
66 0.007976
71 0.004986
82 0.007024
84 0.003969
84 0.003975
86 0.003997
90 0.007013
100 0.007961
109 0.004996
117 0.004957
123 0.004954
131 0.007972
136 0.007981
140 0.00499
149 0.007954
155 0.004024
139 0.004937
96 0.004986
65 0.007979
64 0.007993
70 0.00502
75 0.004986
80 0.003992
89 0.007977
93 0.007978
92 0.004954
92 0.007976
98 0.004999
105 0.00498
114 0.004984
121 0.007944
129 0.006978
133 0.005984
137 0.005977
143 0.004987
150 0.007966
154 0.007979
137 0.005046
82 0.007984
75 0.004991
78 0.004987
84 0.004939
91 0.006963
99 0.00698
104 0.007012
106 0.005981
105 0.005941
106 0.005864
113 0.006995
121 0.007009
130 0.00795
139 0.007964
144 0.005942
148 0.004987
154 0.004986
161 0.006982
165 0.006983
153 0.005949
113 0.00596
86 0.005968
81 0.007008
88 0.006984
96 0.007015
102 0.006804
111 0.006942
114 0.005979
116 0.006731
117 0.006965
124 0.006969
131 0.005985
137 0.005984
142 0.005996
150 0.006016
155 0.006017
160 0.006977
165 0.006023
173 0.005982
174 0.005977
146 0.006982
97 0.006981
86 0.00698
88 0.005981
94 0.006007
98 0.005987
103 0.005982
110 0.005981
117 0.006937
117 0.005985
120 0.00598
125 0.005987
132 0.006013
139 0.004989
145 0.005976
151 0.006985
159 0.006009
162 0.005978
164 0.005986
168 0.006017
177 0.006015
183 0.006014
162 0.005987
119 0.005991
94 0.005998
90 0.006018
94 0.005987
98 0.005983
100 0.005985
106 0.005945
112 0.005988
115 0.005982
115 0.006015
119 0.005982
126 0.005984
134 0.004983
141 0.006014
147 0.005988
152 0.005986
159 0.006016
163 0.005964
167 0.005984
171 0.004987
175 0.005985
185 0.005984
191 0.005984
189 0.004982
136 0.004997
103 0.005018
95 0.005008
100 0.005985
105 0.00601
108 0.00598
114 0.004991
120 0.004991
122 0.005017
122 0.005953
124 0.005952
130 0.005026
140 0.004987
146 0.00499
154 0.004986
160 0.004991
165 0.004986
170 0.004988
174 0.005007
178 0.004975
182 0.003984
191 0.004989
197 0.005024
204 0.004038
175 0.004973
127 0.004987
103 0.005008
102 0.004991
109 0.00399
116 0.004987
120 0.005015
125 0.004984
130 0.004989
132 0.00499
134 0.004986
137 0.004956
148 0.004968
157 0.00399
165 0.003988
170 0.004023
174 0.004031
181 0.003993
184 0.004022
187 0.003993
190 0.003959
199 0.004971
207 0.004988
213 0.003975
170 0.005012
124 0.00495
104 0.003958
106 0.003989
114 0.00402
122 0.003983
128 0.00399
133 0.003987
138 0.003949
135 0.00399
136 0.004028
139 0.003989
148 0.00399
155 0.00399
162 0.004987
167 0.003989
173 0.00399
178 0.004017
181 0.003923
184 0.003992
189 0.004
199 0.003951
176 0.003993
127 0.003996
97 0.00399
99 0.003985
108 0.003936
116 0.003989
123 0.002954
131 0.003973
134 0.002998
132 0.002986
128 0.002981
132 0.003028
139 0.002955
146 0.003024
156 0.002992
161 0.003003
166 0.002962
171 0.00393
177 0.003974
182 0.00403
174 0.003025
128 0.003989
92 0.002998
85 0.003989
93 0.003985
101 0.002992
106 0.003027
115 0.003981
117 0.002998
117 0.002961
114 0.001963
114 0.00293
122 0.002963
129 0.001944
135 0.00299
144 0.002993
150 0.002967
158 0.002992
164 0.003006
144 0.00299
101 0.002992
74 0.002954
70 0.004004
75 0.002962
82 0.002999
85 0.003981
90 0.001957
97 0.002942
97 0.002993
95 0.002992
98 0.00296
106 0.002994
112 0.002002
118 0.002992
124 0.002993
130 0.002996
138 0.002992
144 0.00299
136 0.002987
72 0.003027
53 0.002027
52 0.002052
56 0.001996
61 0.002028
64 0.001967
70 0.001987
76 0.00099
79 0.001993
78 0.002946
81 0.001991
86 0.001986
96 0.001983
104 0.002996
110 0.002993
116 0.002032
123 0.002035
129 0.00299
131 0.00199
111 0.002031
74 0.002027
50 0.002956
51 0.001961
55 0.00199
59 0.002033
66 0.001994
74 0.001999
79 0.000996
79 0.002029
83 0.001995
88 0.001995
94 0.000996
102 0.001994
113 0.000998
119 0.001007
124 0.001013
130 0.001039
136 0.000985
143 0.000994
143 0.002006
100 0.001998
73 0.001988
67 0.001996
71 0.001001
74 0.00103
76 0.001002
86 0.001994
93 0.002043
96 0.000957
97 0.002029
102 0.001979
99 0.001951
108 0.001994
121 0.00203
129 0.000998
136 0.001994
142 0.001995
149 0.001995
157 0.001994
164 0.001994
177 0.002031
162 0.000964
110 0.000998
72 0.000997
65 0.000998
74 0.001999
80 0.000998
85 0.001009
95 0.0
104 0.0
108 0.0
111 0.0
121 0.0
130 0.001028
137 0.0
146 0.0
153 0.001008
162 0.000958
168 0.0
175 0.0
183 0.0
190 0.0
174 0.001034
125 0.0
84 0.000997
89 0.0
97 0.0
103 0.000992
112 0.0
123 0.0
125 0.001008
123 0.0
123 0.0
127 0.0
138 0.0
146 0.0
158 0.000999
164 0.0
168 0.0
173 0.0
180 0.000998
184 0.0
156 0.0
108 0.0
81 0.001032
81 0.000966
94 0.0
101 0.0
115 0.0
120 0.0
121 0.000999
118 0.000967
119 0.001041
129 0.000987
139 0.001995
145 0.000957
152 0.0
157 0.000986
164 0.002997
170 0.001001
178 0.003049
152 0.003024
102 0.0
73 0.0
72 0.001034
77 0.0
88 0.002038
94 0.001993
110 0.000998
114 0.001
115 0.000997
114 0.002992
125 0.0
135 0.003027
145 0.001991
152 0.0
158 0.000997
166 0.00101
