152 0.013963
148 0.002994
91 0.002058
41 0.000989
59 0.001995
77 0.000998
88 0.001994
95 0.001996
113 0.000997
122 0.001996
131 0.002042
135 0.001996
140 0.002019
147 0.001967
153 0.002012
158 0.000988
163 0.001993
164 0.001029
169 0.001027
171 0.000953
171 0.001995
169 0.003018
124 0.001994
53 0.002042
46 0.001994
60 0.003001
73 0.003
80 0.001968
95 0.001995
108 0.001995
118 0.001996
128 0.001993
137 0.001995
139 0.001993
143 0.001994
145 0.002001
146 0.001983
150 0.002976
153 0.003005
155 0.001957
158 0.00299
159 0.001995
161 0.002018
157 0.001992
118 0.001994
46 0.001994
41 0.002992
61 0.001994
78 0.002056
90 0.002951
95 0.003992
105 0.003992
121 0.002992
125 0.002989
129 0.002928
134 0.001993
139 0.002992
146 0.003033
148 0.003027
153 0.002023
158 0.00204
159 0.002025
162 0.00399
164 0.002999
119 0.00297
55 0.003038
56 0.001993
73 0.002991
86 0.003016
95 0.00402
102 0.003958
118 0.002934
131 0.002992
139 0.002993
142 0.003957
148 0.003986
152 0.003021
158 0.00302
163 0.002009
164 0.002008
169 0.002039
168 0.003995
168 0.003906
164 0.003037
121 0.00399
52 0.00403
50 0.003989
62 0.00399
78 0.003989
83 0.004024
97 0.001966
111 0.002038
119 0.004022
125 0.005055
131 0.005003
135 0.003944
140 0.003978
142 0.004032
150 0.00399
155 0.004052
159 0.004038
162 0.004005
169 0.00399
170 0.004029
157 0.003032
73 0.00502
43 0.005066
55 0.004042
68 0.004031
74 0.004041
83 0.005013
86 0.004986
108 0.004003
117 0.004052
130 0.003022
132 0.005002
134 0.004968
137 0.004987
144 0.004987
144 0.004987
147 0.003989
150 0.003964
152 0.004017
153 0.004986
153 0.004029
156 0.005025
155 0.005031
156 0.005031
114 0.005021
57 0.004986
39 0.00498
56 0.004986
77 0.003989
85 0.005016
94 0.004915
106 0.004957
117 0.004077
123 0.004987
129 0.004987
131 0.005018
136 0.004993
143 0.005034
148 0.005018
153 0.004986
158 0.00504
161 0.004986
163 0.004986
169 0.006035
146 0.004986
67 0.005018
46 0.005035
56 0.005026
68 0.006023
79 0.005984
87 0.005984
96 0.005984
110 0.006015
124 0.005051
130 0.005036
135 0.005984
143 0.005016
149 0.005972
153 0.006012
159 0.005041
161 0.004989
164 0.004986
165 0.006032
168 0.006982
169 0.005984
170 0.006035
142 0.005977
60 0.007032
44 0.00602
61 0.006036
69 0.005984
77 0.005042
86 0.00503
93 0.005984
112 0.006982
120 0.006982
125 0.005944
129 0.006036
137 0.006035
141 0.006967
150 0.006013
152 0.006981
157 0.007025
162 0.006068
163 0.006028
165 0.006029
164 0.006992
169 0.006982
170 0.006982
170 0.005984
161 0.005994
97 0.006017
38 0.006014
53 0.006016
70 0.007979
82 0.00698
86 0.005984
95 0.007006
109 0.006982
119 0.007961
125 0.007936
123 0.006982
130 0.007031
134 0.007031
143 0.00703
145 0.007016
150 0.007012
149 0.006981
154 0.00702
158 0.006007
161 0.006982
158 0.007979
135 0.007964
57 0.006981
32 0.007032
46 0.006982
71 0.007031
83 0.006996
89 0.007024
99 0.008008
114 0.007978
121 0.007978
122 0.007018
128 0.007979
134 0.007978
138 0.006981
142 0.006955
148 0.00705
156 0.007026
159 0.00701
161 0.00796
158 0.007978
78 0.007062
49 0.006977
64 0.007027
78 0.007023
85 0.007012
90 0.007979
94 0.007979
107 0.007978
126 0.007978
132 0.00795
136 0.007953
143 0.006998
146 0.006981
153 0.007018
152 0.006981
157 0.006974
158 0.00696
161 0.006981
155 0.007016
85 0.006963
33 0.006035
46 0.007945
59 0.007968
67 0.007978
76 0.006981
86 0.006968
102 0.00703
111 0.007022
121 0.006981
126 0.006986
130 0.007015
133 0.007022
142 0.006979
149 0.006966
153 0.006999
153 0.006971
158 0.006018
164 0.006983
162 0.006989
133 0.006981
50 0.006982
31 0.005982
48 0.005984
59 0.006027
70 0.006977
75 0.006963
88 0.006961
99 0.006003
109 0.00601
113 0.006029
117 0.006015
124 0.006017
133 0.00703
136 0.006982
143 0.007025
146 0.006016
150 0.006016
153 0.005967
155 0.005967
156 0.005986
159 0.006016
159 0.006021
152 0.006028
85 0.006016
38 0.006034
47 0.006024
74 0.006032
87 0.006028
103 0.005966
111 0.005999
124 0.005982
131 0.00499
135 0.005033
137 0.005984
145 0.005984
151 0.006047
151 0.006017
156 0.005979
163 0.006029
163 0.006001
167 0.005969
171 0.005052
170 0.005004
142 0.004987
60 0.004986
46 0.00499
57 0.004987
67 0.005019
73 0.00502
79 0.005939
88 0.005989
102 0.005984
118 0.006002
122 0.005996
130 0.004977
133 0.005024
141 0.004944
150 0.005032
152 0.004987
156 0.004986
161 0.004955
166 0.004987
166 0.005018
168 0.005019
171 0.005019
160 0.005978
81 0.004988
35 0.004987
42 0.005024
58 0.004035
69 0.005016
76 0.005017
81 0.005054
93 0.004986
103 0.004987
115 0.004987
117 0.004987
123 0.004998
129 0.004987
132 0.004021
140 0.004034
144 0.004024
147 0.004009
151 0.003992
153 0.004022
155 0.00399
156 0.004978
160 0.00405
161 0.004017
152 0.005024
77 0.005016
40 0.003989
53 0.004001
71 0.003989
89 0.00399
95 0.00399
99 0.004053
110 0.003989
119 0.004022
128 0.00399
136 0.003981
143 0.004988
149 0.003956
153 0.00399
156 0.004039
160 0.003991
166 0.004004
167 0.004025
167 0.004029
171 0.002982
171 0.002979
113 0.004033
42 0.003014
50 0.00406
62 0.003011
70 0.003024
74 0.002992
78 0.003005
95 0.004025
109 0.00399
113 0.003947
121 0.004025
124 0.004032
130 0.004032
138 0.004022
147 0.002992
152 0.002993
157 0.002992
160 0.002992
164 0.002989
166 0.002942
167 0.003
170 0.002992
169 0.002992
134 0.00295
52 0.002996
40 0.003023
55 0.003987
67 0.001965
70 0.002993
80 0.002994
89 0.003036
103 0.002997
116 0.002994
120 0.003026
125 0.003024
131 0.002991
133 0.002992
141 0.002991
148 0.002028
151 0.001995
153 0.001994
157 0.002029
161 0.001995
164 0.001994
164 0.002983
161 0.001995
124 0.002999
48 0.002992
44 0.002992
73 0.001998
86 0.001988
93 0.001995
101 0.002033
116 0.001995
122 0.002031
128 0.002043
136 0.001995
138 0.001045
145 0.001996
151 0.001009
155 0.00099
161 0.000972
166 0.001984
171 0.001995
171 0.001995
174 0.00194
173 0.001994
140 0.001996
46 0.001995
43 0.001994
58 0.001995
67 0.000997
74 0.000999
82 0.000999
92 0.001021
110 0.001017
117 0.000997
124 0.000997
125 0.001995
132 0.001988
141 0.001995
143 0.001995
151 0.001994
155 0.000969
158 0.000997
162 0.001026
162 0.000978
166 0.000998
166 0.001003
167 0.00099
170 0.000997
164 0.000997
109 0.0
35 0.001995
46 0.000998
60 0.001005
73 0.000997
81 0.001002
88 0.000998
96 0.000998
108 0.000997
119 0.000997
122 0.0
128 0.000997
130 0.0
136 0.001039
140 0.0
145 0.0
146 0.0
152 0.0
158 0.0
163 0.0
165 0.000998
169 0.0
158 0.000997
79 0.0
41 0.000998
58 0.0
74 0.000997
80 0.0
87 0.0
101 0.0
115 0.0
121 0.0
130 0.0
137 0.0
139 0.0
147 0.0
157 0.0
160 0.0
166 0.0
173 0.0
175 0.0
179 0.0
182 0.0
182 0.0
182 0.0
142 0.0
57 0.0
53 0.0
69 0.0
79 0.001013
82 0.001045
90 0.0
100 0.0
121 0.0
128 0.0
129 0.0
139 0.0
142 0.001
141 0.0
147 0.0
151 0.0
149 0.000997
155 0.000997
155 0.0
154 0.001037
156 0.0
154 0.0
159 0.0
158 0.0
159 0.000997
149 0.001001
56 0.000998
32 0.0
39 0.000999
63 0.001002
74 0.000939
81 0.000997
90 0.000996
106 0.0
114 0.001002
116 0.0
123 0.000999
129 0.000998
136 0.00104
146 0.0
152 0.001029
157 0.002051
163 0.002043
166 0.001008
169 0.001
174 0.000988
169 0.000998
145 0.00095
46 0.000955
44 0.000997
57 0.001996
67 0.000953
71 0.002045
77 0.002042
84 0.001995
105 0.001014
117 0.002023
123 0.001012
126 0.001058
132 0.000999
141 0.002045
146 0.001994
152 0.002007
154 0.002065
159 0.002068
163 0.00204
167 0.002047
172 0.001063
175 0.002046
175 0.001057
151 0.00101
65 0.00103
41 0.002066
49 0.003025
64 0.002027
67 0.002023
67 0.002043
72 0.002992
84 0.003041
97 0.002044
108 0.001994
112 0.00107
120 0.001004
127 0.001049
132 0.002992
137 0.001994
144 0.001982
148 0.002029
150 0.001993
154 0.002992
157 0.003041
157 0.002044
161 0.003068
163 0.002992
164 0.003024
114 0.002034
61 0.002064
40 0.002994
57 0.003008
73 0.003054
82 0.002017
90 0.002047
97 0.002992
111 0.003056
123 0.002994
124 0.002992
131 0.002056
137 0.00206
145 0.00202
150 0.004037
159 0.003989
161 0.003025
163 0.002992
171 0.00304
171 0.00304
172 0.002992
177 0.003012
170 0.00296
92 0.00302
39 0.002037
48 0.002042
59 0.00399
64 0.003039
70 0.00304
77 0.003062
89 0.003037
99 0.003975
109 0.003989
115 0.004012
119 0.003951
126 0.002995
135 0.003028
144 0.003029
146 0.002992
152 0.003981
156 0.003022
156 0.004037
159 0.003041
162 0.00404
162 0.004039
166 0.003979
170 0.003989
167 0.003053
136 0.004045
55 0.003038
39 0.004022
52 0.003989
68 0.004039
74 0.004047
80 0.004014
89 0.004041
101 0.005019
115 0.005026
120 0.005031
127 0.004014
134 0.003044
137 0.004077
142 0.004023
150 0.004033
158 0.003024
160 0.003021
167 0.003989
171 0.003994
174 0.005025
179 0.005017
183 0.004986
181 0.004036
127 0.004029
59 0.004038
51 0.004039
65 0.005067
78 0.004989
86 0.004031
92 0.004032
100 0.004021
114 0.004984
127 0.00502
133 0.005008
136 0.004991
145 0.004035
151 0.004036
155 0.004015
162 0.004987
164 0.005035
168 0.00502
175 0.004024
175 0.005019
177 0.005992
177 0.005036
182 0.005988
175 0.005984
86 0.004023
49 0.005025
47 0.003963
58 0.004986
64 0.005017
73 0.004034
76 0.005025
85 0.004018
99 0.005984
115 0.005016
120 0.005984
126 0.006039
136 0.004025
142 0.005013
144 0.005053
150 0.00502
151 0.005033
156 0.004034
160 0.005032
161 0.004982
164 0.006013
165 0.004982
169 0.006014
140 0.005984
49 0.005029
50 0.00503
64 0.004976
76 0.005984
82 0.006982
91 0.006018
101 0.005954
114 0.005996
126 0.005984
134 0.005984
141 0.006032
142 0.005984
152 0.004988
160 0.00502
162 0.005026
168 0.006045
171 0.005984
174 0.005032
179 0.006034
181 0.006039
174 0.006998
63 0.00603
44 0.00695
52 0.006981
62 0.006024
66 0.005032
68 0.005979
77 0.004983
90 0.005984
105 0.006982
116 0.006001
118 0.005997
123 0.005997
134 0.006002
140 0.006032
147 0.007014
153 0.006982
154 0.005963
156 0.006008
157 0.006981
161 0.006977
162 0.006981
165 0.00602
145 0.006
60 0.005995
36 0.005967
51 0.005978
60 0.007017
66 0.007017
73 0.007043
86 0.006993
97 0.006967
110 0.007962
116 0.007986
120 0.007028
126 0.006033
135 0.006016
146 0.005997
154 0.006009
158 0.007029
165 0.007979
173 0.007032
173 0.007011
179 0.007011
176 0.007979
138 0.007978
48 0.007037
49 0.007047
60 0.006015
72 0.007007
78 0.007054
85 0.007978
96 0.007979
117 0.00703
123 0.006967
126 0.006947
131 0.007977
140 0.007978
147 0.006972
155 0.007045
163 0.006997
168 0.007015
172 0.006984
175 0.007979
178 0.007978
182 0.007034
187 0.007007
188 0.006981
190 0.007028
177 0.00703
68 0.007013
45 0.007015
50 0.006981
69 0.007934
71 0.006969
73 0.007979
77 0.007944
93 0.00698
111 0.007027
116 0.007011
117 0.006996
125 0.007016
134 0.007034
141 0.007027
146 0.007013
155 0.007028
161 0.007013
164 0.007015
164 0.007033
167 0.007027
174 0.007014
173 0.007022
178 0.007029
178 0.007015
178 0.00702
126 0.006981
58 0.007025
69 0.007032
83 0.006021
96 0.006006
99 0.006015
110 0.006015
124 0.005984
134 0.006016
141 0.006032
145 0.006982
151 0.007025
159 0.007007
165 0.007003
173 0.006031
173 0.006982
177 0.007008
180 0.006017
185 0.006017
187 0.005984
186 0.006017
164 0.006016
77 0.00597
52 0.006014
67 0.006032
76 0.005975
87 0.006015
88 0.00704
101 0.007014
114 0.006051
125 0.006028
134 0.006035
139 0.005983
143 0.006028
150 0.00603
156 0.006014
164 0.00593
169 0.006002
174 0.005997
174 0.00603
175 0.006035
177 0.005031
177 0.005015
171 0.005985
121 0.006025
53 0.004988
42 0.00604
58 0.005979
75 0.00602
80 0.005984
89 0.006021
102 0.00603
115 0.005018
123 0.005034
130 0.005018
139 0.005031
143 0.005018
149 0.00502
155 0.005031
161 0.005018
165 0.005039
171 0.004986
177 0.006009
183 0.005021
183 0.00502
154 0.00503
70 0.005022
51 0.004991
67 0.005015
81 0.005033
86 0.005024
93 0.005035
101 0.005033
117 0.004987
130 0.003991
138 0.00404
143 0.004019
147 0.003954
156 0.004964
162 0.004987
166 0.005026
170 0.004971
176 0.004988
178 0.005033
179 0.00502
183 0.00498
171 0.004025
62 0.003998
41 0.003978
51 0.004042
62 0.00399
66 0.003991
69 0.00399
79 0.004036
93 0.00505
105 0.004988
112 0.005025
117 0.003955
121 0.004021
130 0.00402
137 0.004022
142 0.003999
151 0.004033
154 0.003998
161 0.004073
163 0.004037
166 0.003989
168 0.00405
168 0.002992
123 0.003007
44 0.002993
52 0.00403
62 0.004059
72 0.004052
72 0.003993
74 0.003991
92 0.004049
107 0.003993
113 0.004051
122 0.003
127 0.003024
134 0.002963
145 0.003048
155 0.004026
163 0.003992
167 0.002992
172 0.002992
176 0.003989
181 0.003023
183 0.004024
168 0.003955
81 0.003001
44 0.003004
51 0.002979
68 0.002997
69 0.002992
76 0.00299
87 0.002961
100 0.00301
112 0.002981
118 0.003026
122 0.004053
128 0.003944
139 0.002998
144 0.00303
153 0.001972
164 0.002035
169 0.001995
176 0.002995
176 0.002996
183 0.002992
186 0.003075
185 0.003059
184 0.002992
173 0.002992
94 0.002992
39 0.002991
43 0.001988
63 0.002033
66 0.00203
72 0.002026
80 0.001998
94 0.001995
106 0.002031
118 0.003033
125 0.003036
129 0.002992
137 0.001996
142 0.00196
150 0.00196
159 0.001995
165 0.002021
169 0.002027
172 0.00203
178 0.002034
181 0.001995
185 0.001996
192 0.001965
185 0.001
125 0.001008
59 0.001018
61 0.002032
83 0.002043
93 0.002015
98 0.001998
105 0.001994
117 0.00203
127 0.002031
137 0.001996
143 0.001995
147 0.002008
156 0.001
163 0.001032
169 0.001009
176 0.000995
181 0.000997
187 0.000998
187 0.000997
189 0.000976
191 0.000997
195 0.001995
195 0.001995
189 0.002022
136 0.000997
63 0.001008
56 0.001008
77 0.000998
82 0.000949
84 0.000998
92 0.000997
104 0.001005
115 0.000998
130 0.000997
133 0.000997
140 0.000997
145 0.0
153 0.000998
157 0.001025
166 0.000997
170 0.000997
174 0.000998
175 0.000998
181 0.000997
182 0.000997
184 0.000998
174 0.000997
87 0.000997
56 0.000998
68 0.0
86 0.0
101 0.0
109 0.0
119 0.0
135 0.000913
146 0.001004
151 0.000997
157 0.000997
159 0.0
167 0.0
173 0.0
175 0.0
181 0.0
184 0.0
190 0.0
191 0.0
189 0.0
157 0.0
73 0.0
55 0.0
63 0.0
77 0.0
81 0.0
86 0.0
97 0.0
116 0.0
129 0.0
134 0.0
141 0.0
146 0.0
152 0.0
157 0.0
162 0.0
162 0.001039
167 0.000965
170 0.000989
172 0.000958
175 0.000997
180 0.000956
173 0.0
89 0.001033
46 0.001032
61 0.0
73 0.0
81 0.0
89 0.001051
96 0.000988
108 0.001
123 0.0
133 0.001003
141 0.0
146 0.0
153 0.0
158 0.000997
164 0.001998
168 0.0
172 0.000998
176 0.0
183 0.001994
185 0.001014
176 0.0
75 0.00096
55 0.0
70 0.0
78 0.0
86 0.00105
90 0.001054
100 0.001002
114 0.000997
126 0.000972
134 0.00199
136 0.000998
145 0.000977
152 0.002035
162 0.000999
169 0.000996
173 0.001028
179 0.002058
183 0.001997
184 0.001935
188 0.000998
190 0.0
189 0.001994
155 0.001994
52 0.0
49 0.001023
65 0.000998
71 0.000992
74 0.000967
80 0.001007
89 0.001995
108 0.001043
119 0.000988
123 0.001005
130 0.001988
137 0.001997
146 0.000999
155 0.002069
160 0.000996
167 0.000996
171 0.001011
173 0.001994
175 0.002992
181 0.002022
185 0.002045
183 0.001017
151 0.003033
72 0.001992
61 0.000966
83 0.002001
92 0.000997
100 0.001017
105 0.001026
119 0.001981
130 0.003042
141 0.002042
143 0.002042
151 0.002025
157 0.003056
165 0.003064
171 0.003051
177 0.002058
181 0.002044
186 0.001024
190 0.001978
193 0.002024
198 0.002992
198 0.002992
188 0.002044
111 0.001018
57 0.002
55 0.003057
68 0.002973
79 0.002992
84 0.002998
97 0.001996
107 0.002992
116 0.000997
131 0.003998
137 0.003042
141 0.001941
148 0.001988
153 0.001942
156 0.002999
162 0.003024
166 0.002994
168 0.002992
172 0.002002
176 0.001991
180 0.003043
181 0.003989
184 0.004038
188 0.002995
185 0.002003
179 0.002005
112 0.004042
56 0.00396
70 0.003989
88 0.004011
99 0.00199
103 0.002028
116 0.001996
125 0.004012
134 0.003966
147 0.003003
149 0.003051
153 0.003001
160 0.003978
169 0.003965
176 0.00399
180 0.003989
186 0.004023
192 0.002991
193 0.003026
194 0.004986
196 0.005028
191 0.002993
134 0.002998
65 0.002958
59 0.005021
75 0.004004
89 0.00399
96 0.003989
106 0.003002
116 0.002014
129 0.002992
136 0.004036
143 0.004037
151 0.003025
155 0.003992
161 0.00401
169 0.003994
179 0.004042
182 0.003991
182 0.005023
185 0.004987
190 0.003005
191 0.003008
194 0.00299
195 0.004031
186 0.004987
109 0.003966
52 0.004017
52 0.00399
76 0.004005
82 0.004035
87 0.004986
93 0.004987
107 0.003968
121 0.004037
129 0.004021
135 0.004987
141 0.004971
150 0.003019
153 0.004038
156 0.003985
165 0.00402
169 0.005039
172 0.005952
175 0.006006
178 0.003986
181 0.003992
182 0.003991
182 0.004961
160 0.004987
65 0.003988
56 0.005047
71 0.005024
96 0.004966
103 0.004997
113 0.005984
120 0.005984
135 0.004982
145 0.004021
149 0.004003
154 0.005984
161 0.006016
170 0.004995
175 0.004969
178 0.004985
184 0.005033
187 0.005012
190 0.006023
190 0.005989
192 0.005027
164 0.005054
75 0.00602
51 0.006005
59 0.00603
73 0.005027
80 0.005065
84 0.004921
100 0.004928
112 0.005002
124 0.006097
130 0.005985
138 0.004989
146 0.004995
151 0.004988
156 0.005987
165 0.007041
171 0.006032
177 0.006022
180 0.005972
186 0.006032
187 0.006075
187 0.00606
185 0.006981
177 0.007024
75 0.005027
41 0.004999
50 0.006006
62 0.007023
71 0.006986
82 0.005983
86 0.006037
108 0.005984
117 0.005946
126 0.005024
135 0.007013
142 0.006981
149 0.006058
155 0.00603
160 0.006989
167 0.007971
170 0.007992
174 0.00598
177 0.005973
180 0.005984
183 0.006026
186 0.005997
178 0.007027
105 0.006998
53 0.006017
67 0.007011
85 0.007094
99 0.007962
101 0.007977
113 0.006982
122 0.006983
140 0.006982
146 0.007019
151 0.007051
158 0.007988
161 0.007015
171 0.006016
174 0.007023
176 0.006979
184 0.007997
187 0.007984
190 0.007009
193 0.006996
197 0.006996
197 0.007019
198 0.007023
179 0.007979
70 0.007981
52 0.006954
67 0.006987
79 0.006981
84 0.006971
83 0.008006
92 0.00699
104 0.006999
124 0.00698
129 0.006981
135 0.007016
137 0.007978
146 0.006962
155 0.007159
161 0.006966
162 0.006985
166 0.006979
170 0.006984
174 0.006947
177 0.006981
179 0.007978
184 0.007006
186 0.00701
190 0.007015
192 0.007032
187 0.00703
123 0.007014
62 0.006983
63 0.006994
82 0.006995
100 0.006976
109 0.006975
120 0.007014
130 0.006953
146 0.006986
152 0.006018
157 0.007041
162 0.006018
170 0.007015
172 0.006966
179 0.006966
183 0.006818
186 0.006035
189 0.005984
192 0.006036
197 0.007016
198 0.006016
197 0.006019
200 0.006037
202 0.006033
189 0.006016
111 0.005995
61 0.006983
62 0.006985
80 0.006965
93 0.006981
98 0.007015
107 0.006017
118 0.005981
128 0.005963
136 0.006013
143 0.006031
145 0.005968
148 0.005986
153 0.00597
156 0.005985
160 0.005989
166 0.004986
171 0.00599
175 0.006057
176 0.006028
180 0.006016
183 0.005976
185 0.00598
185 0.006013
189 0.005989
190 0.005983
189 0.005984
189 0.005989
152 0.004998
67 0.005019
76 0.005018
96 0.004987
113 0.005019
123 0.00502
132 0.006047
145 0.006016
150 0.005983
155 0.005933
158 0.005984
162 0.005984
167 0.004984
177 0.005038
180 0.005008
185 0.005034
187 0.005018
188 0.005017
189 0.005018
193 0.004986
194 0.004977
194 0.005006
195 0.005985
190 0.005013
148 0.004995
59 0.004969
65 0.004934
87 0.005023
98 0.004972
101 0.004973
110 0.005033
121 0.005015
132 0.004991
141 0.004974
148 0.004977
149 0.00399
155 0.003985
162 0.004046
167 0.003991
173 0.004021
175 0.004988
178 0.005018
180 0.005017
185 0.005031
186 0.005007
189 0.004991
191 0.00395
194 0.00398
190 0.003995
151 0.004028
70 0.00399
54 0.004045
69 0.00403
83 0.004021
95 0.004018
98 0.004989
106 0.004983
117 0.004982
124 0.004023
130 0.00398
134 0.003999
144 0.004033
151 0.00403
154 0.004015
160 0.003973
163 0.00399
165 0.003991
166 0.004006
170 0.00302
174 0.002971
175 0.003
179 0.003981
181 0.004019
168 0.004025
103 0.004016
57 0.003984
73 0.004006
91 0.004023
106 0.003988
111 0.004001
122 0.003987
129 0.002965
138 0.002989
143 0.002994
150 0.003003
159 0.002991
160 0.003044
165 0.002992
172 0.002964
175 0.003011
177 0.003024
180 0.004017
185 0.003993
184 0.004002
186 0.003952
188 0.003958
179 0.002992
66 0.002992
45 0.002945
55 0.003035
72 0.002993
76 0.003032
82 0.002983
91 0.002985
104 0.002974
116 0.002992
127 0.002989
132 0.002994
135 0.002008
145 0.002028
150 0.002993
157 0.002029
162 0.002992
169 0.002994
169 0.003064
172 0.002986
172 0.002991
174 0.002985
174 0.002991
178 0.003
173 0.001984
111 0.001996
49 0.001995
49 0.001995
64 0.001995
77 0.001995
88 0.001995
90 0.001983
99 0.002013
115 0.001987
121 0.001955
127 0.001963
133 0.002024
146 0.001996
151 0.000997
156 0.001995
165 0.001996
170 0.002054
174 0.001996
177 0.00196
183 0.001964
188 0.001992
189 0.001957
185 0.001995
134 0.001962
52 0.000999
61 0.000998
77 0.000998
90 0.000998
95 0.002002
100 0.000998
111 0.001965
125 0.002
133 0.001958
138 0.001953
145 0.002031
153 0.002012
163 0.000998
167 0.000997
170 0.001008
176 0.000998
181 0.000997
181 0.000998
185 0.001002
189 0.000995
187 0.00099
185 0.000998
162 0.001039
72 0.000992
47 0.001003
58 0.000997
70 0.001997
75 0.000998
81 0.002017
95 0.001014
108 0.001031
118 0.000956
124 0.001002
135 0.001028
140 0.000974
147 0.000999
155 0.000998
160 0.000998
165 0.000997
172 0.000997
177 0.0
180 0.0
185 0.0
190 0.000999
190 0.000985
155 0.000982
74 0.000999
57 0.001038
79 0.000998
89 0.0
97 0.0
101 0.0
115 0.0
129 0.0
137 0.0
140 0.0
146 0.0
154 0.0
160 0.0
168 0.0
176 0.0
183 0.0
185 0.0
188 0.0
193 0.0
192 0.000953
197 0.000991
197 0.000955
185 0.000997
111 0.001017
52 0.0
53 0.0
69 0.0
74 0.0
79 0.0
89 0.0
100 0.000998
112 0.000998
124 0.0
132 0.0
139 0.0
146 0.000967
152 0.000968
160 0.0
168 0.001063
172 0.000999
177 0.0
183 0.0
184 0.000967
188 0.001994
191 0.001007
194 0.0
180 0.0
104 0.0
60 0.000978
67 0.001018
91 0.000997
95 0.001995
103 0.0
111 0.0
124 0.0
135 0.001008
142 0.000976
147 0.000968
156 0.0
164 0.0
168 0.001052
176 0.002034
184 0.001003
185 0.001044
192 0.0
194 0.0
198 0.0
200 0.001991
203 0.001993
166 0.0
75 0.0
50 0.0
58 0.000997
64 0.000991
71 0.00103
78 0.001995
89 0.000968
102 0.000966
113 0.001016
122 0.002014
126 0.002029
131 0.000968
143 0.0
148 0.000996
156 0.001998
161 0.001998
170 0.00105
176 0.002059
179 0.000973
185 0.000966
188 0.000965
190 0.001999
191 0.002018
193 0.000964
176 0.001998
92 0.00195
58 0.001992
67 0.002033
92 0.002992
98 0.003046
105 0.000995
121 0.001
133 0.000991
144 0.002006
148 0.002018
154 0.001996
159 0.000999
167 0.002006
173 0.002993
182 0.001996
189 0.00302
192 0.002992
197 0.001046
201 0.000976
202 0.001012
204 0.001015
206 0.003056
185 0.00298
69 0.002023
56 0.000961
65 0.000999
75 0.002043
82 0.000993
83 0.001996
92 0.003027
112 0.001995
121 0.002075
130 0.000944
135 0.003022
142 0.003024
147 0.001021
152 0.002027
156 0.00197
162 0.002981
172 0.002015
173 0.002992
178 0.002992
181 0.000989
184 0.002002
188 0.002056
191 0.003024
193 0.003051
192 0.002005
168 0.002055
80 0.001038
54 0.003023
77 0.002041
90 0.002991
99 0.004014
105 0.003029
116 0.002111
131 0.001974
140 0.002998
145 0.003986
156 0.001932
162 0.002045
167 0.002024
175 0.004044
183 0.001978
191 0.003989
194 0.004037
199 0.001991
203 0.002993
206 0.001964
207 0.004035
202 0.00405
131 0.002978
64 0.002996
58 0.00202
67 0.003953
83 0.003028
88 0.004022
92 0.00399
108 0.00304
121 0.003014
132 0.002959
136 0.005035
142 0.005016
149 0.002991
156 0.002942
162 0.002996
166 0.004038
172 0.002974
173 0.004022
173 0.004024
180 0.002989
181 0.003028
182 0.002991
185 0.005015
188 0.005034
187 0.004987
117 0.003037
53 0.002992
51 0.002992
71 0.002993
79 0.003007
84 0.003989
88 0.004023
104 0.002954
116 0.003982
125 0.00397
132 0.005019
138 0.005044
149 0.003062
156 0.002994
165 0.003037
174 0.003032
180 0.00299
185 0.00597
193 0.00402
195 0.003993
198 0.003993
198 0.003979
159 0.00502
69 0.005017
53 0.003048
66 0.002937
77 0.003012
84 0.004019
92 0.004987
104 0.006022
117 0.005036
131 0.004017
136 0.003974
139 0.00399
143 0.006031
152 0.006022
162 0.003956
167 0.003939
173 0.002969
178 0.004007
178 0.004036
179 0.005984
182 0.006012
186 0.00502
188 0.005015
189 0.003979
180 0.005984
100 0.006032
40 0.004024
51 0.003991
69 0.003026
82 0.004004
89 0.005011
95 0.005983
107 0.006024
125 0.003992
133 0.004992
139 0.003978
146 0.006065
153 0.006018
160 0.005007
165 0.004981
171 0.005057
180 0.005017
183 0.004035
186 0.005984
191 0.005983
194 0.004956
185 0.00498
125 0.004987
58 0.006968
56 0.006978
78 0.004955
88 0.004958
92 0.005001
104 0.004988
118 0.004986
129 0.004989
138 0.007024
144 0.007015
150 0.005019
157 0.005001
165 0.005001
171 0.007044
174 0.007023
183 0.004988
187 0.005032
192 0.004988
193 0.004999
195 0.006054
197 0.006017
192 0.007012
151 0.005004
61 0.005974
37 0.005998
47 0.007
64 0.007033
72 0.005967
75 0.006019
90 0.00603
108 0.004994
120 0.005038
126 0.007957
132 0.007033
142 0.006014
146 0.005984
151 0.005972
158 0.007977
164 0.007992
168 0.005939
172 0.006002
177 0.005983
183 0.005009
186 0.00604
185 0.007028
100 0.007958
44 0.006005
49 0.007017
65 0.007023
78 0.007967
83 0.007959
91 0.006006
103 0.005984
126 0.006004
133 0.005999
136 0.005998
141 0.007962
152 0.007985
161 0.006983
166 0.00695
172 0.00698
180 0.007989
182 0.007976
186 0.006988
191 0.006983
194 0.006047
184 0.00598
92 0.005989
34 0.007978
42 0.007941
52 0.006947
61 0.006957
61 0.006923
65 0.006981
78 0.006974
95 0.006947
105 0.006946
116 0.006996
123 0.006985
130 0.006984
142 0.00797
147 0.007975
155 0.007983
162 0.006983
167 0.006986
170 0.006972
177 0.006997
180 0.00698
184 0.006979
188 0.007015
189 0.006985
169 0.006977
77 0.006987
44 0.007929
61 0.006998
83 0.006974
91 0.006986
95 0.006999
105 0.006967
119 0.006983
135 0.006992
141 0.007028
149 0.006982
157 0.006967
162 0.006978
168 0.005984
175 0.006018
179 0.006984
184 0.00598
190 0.005985
193 0.006964
193 0.006974
200 0.006987
201 0.006018
179 0.006974
80 0.006947
42 0.005975
53 0.006029
66 0.006005
77 0.005975
82 0.005963
83 0.005967
96 0.005962
109 0.005986
124 0.005985
128 0.007017
135 0.007044
142 0.006027
149 0.005969
156 0.005985
162 0.005984
170 0.005966
171 0.005985
176 0.005984
179 0.005938
184 0.00599
186 0.005985
192 0.005982
193 0.005019
196 0.004985
197 0.005021
197 0.005982
190 0.006048
93 0.005954
54 0.006
64 0.005983
90 0.005962
107 0.005964
116 0.005985
127 0.004987
142 0.005021
152 0.004982
154 0.004988
157 0.004933
164 0.005
169 0.004967
174 0.004994
181 0.00597
186 0.004941
187 0.005995
193 0.005988
198 0.005033
199 0.005016
202 0.004989
202 0.005003
204 0.004993
200 0.004987
174 0.004992
61 0.004986
51 0.004983
69 0.004954
81 0.003959
87 0.003987
93 0.003979
104 0.00397
121 0.004952
129 0.004965
138 0.004985
144 0.004987
151 0.005017
155 0.004988
162 0.004955
166 0.004035
168 0.003978
176 0.003981
183 0.003992
186 0.003983
187 0.003969
187 0.003964
190 0.004982
187 0.003958
156 0.005043
57 0.005003
54 0.004977
74 0.004944
92 0.003978
103 0.003978
117 0.003976
131 0.004008
142 0.004014
150 0.004039
156 0.003954
161 0.003976
168 0.003934
177 0.003941
181 0.003979
185 0.003026
189 0.003971
193 0.004021
196 0.004031
197 0.003959
199 0.003913
194 0.00396
133 0.003991
53 0.004004
46 0.003968
68 0.003985
77 0.003953
86 0.003005
91 0.002997
99 0.002993
121 0.003018
130 0.002987
136 0.003963
137 0.00391
142 0.00399
149 0.003959
154 0.003944
160 0.003977
165 0.00396
171 0.002969
174 0.002968
176 0.002959
180 0.002992
170 0.002959
106 0.003035
40 0.002999
51 0.003026
68 0.003978
81 0.002994
88 0.002995
97 0.002948
110 0.002026
122 0.003992
130 0.001965
141 0.002992
149 0.002951
157 0.002959
162 0.00303
170 0.003003
176 0.003012
179 0.002979
182 0.00301
187 0.002975
186 0.002992
165 0.001974
72 0.001976
35 0.001984
49 0.001996
62 0.001998
67 0.00296
72 0.001988
83 0.003003
98 0.003005
110 0.002972
122 0.002975
125 0.001984
131 0.001988
141 0.001994
152 0.001995
162 0.001962
165 0.001991
174 0.001995
179 0.001996
180 0.001983
183 0.001987
186 0.001994
192 0.002963
194 0.002026
193 0.001964
168 0.000964
33 0.001004
34 0.00194
48 0.001846
68 0.001994
72 0.001994
76 0.001996
88 0.001977
101 0.00201
116 0.002029
126 0.001989
135 0.00094
141 0.001008
149 0.000985
157 0.001005
160 0.001011
164 0.000996
167 0.001967
173 0.000991
179 0.001994
182 0.002004
186 0.001977
190 0.001994
190 0.000947
157 0.000999
46 0.00096
55 0.000994
78 0.001007
93 0.000991
98 0.000997
103 0.001955
118 0.00099
129 0.001986
138 0.00199
148 0.001034
149 0.000961
154 0.001041
167 0.001001
174 0.001044
178 0.001025
181 0.000981
188 0.000994
191 0.001015
192 0.000997
195 0.001003
197 0.000985
186 0.0
97 0.0
41 0.0
53 0.0
67 0.0
75 0.0
78 0.000991
86 0.0
99 0.000987
113 0.001014
123 0.0
131 0.0
140 0.0
146 0.0
152 0.0
162 0.0
172 0.0
173 0.0
176 0.0
182 0.000997
184 0.0
188 0.000978
192 0.000995
193 0.0
177 0.0
94 0.0
48 0.0
71 0.0
90 0.0
100 0.0
112 0.0
118 0.000988
132 0.001992
146 0.0
150 0.0
154 0.0
161 0.001992
166 0.001999
172 0.0
177 0.000961
184 0.0
189 0.0
190 0.0
192 0.0
196 0.001015
194 0.00095
133 0.0
69 0.000984
36 0.000983
55 0.002014
69 0.001998
79 0.001996
84 0.001994
98 0.0
114 0.0
123 0.0
129 0.001996
135 0.000994
140 0.0
145 0.0
153 0.0
157 0.001017
161 0.001026
168 0.000996
174 0.001003
179 0.000961
179 0.000963
183 0.0
182 0.001995
142 0.001986
39 0.0
46 0.000952
62 0.0
79 0.00204
89 0.00204
96 0.001016
108 0.002026
124 0.000956
135 0.0
142 0.0
146 0.002041
154 0.001102
164 0.000997
168 0.0
174 0.000972
178 0.002042
182 0.001996
188 0.002038
195 0.002057
193 0.000977
172 0.0
76 0.0
38 0.002003
45 0.002029
69 0.000996
79 0.0
82 0.000968
88 0.001984
101 0.003025
122 0.002008
130 0.001996
137 0.000979
145 0.001008
150 0.001992
152 0.00205
162 0.001991
168 0.00096
171 0.001041
178 0.00199
182 0.003023
186 0.002992
196 0.003029
195 0.002064
134 0.002008
56 0.00204
54 0.001994
74 0.001961
91 0.002038
103 0.002032
108 0.001012
116 0.0
129 0.0
138 0.002992
149 0.001992
154 0.003025
159 0.002992
170 0.001038
174 0.001042
180 0.002011
185 0.002991
187 0.004023
190 0.002017
195 0.001045
194 0.001025
184 0.002992
54 0.000952
39 0.003011
56 0.003011
75 0.000945
82 0.001991
88 0.000998
98 0.002041
111 0.002962
131 0.001955
138 0.001941
144 0.001995
150 0.004024
157 0.002007
160 0.003978
166 0.003038
171 0.00103
175 0.002018
175 0.001007
178 0.003936
179 0.002991
181 0.002984
179 0.00202
132 0.002018
45 0.003994
48 0.002989
69 0.00399
81 0.004027
88 0.002021
98 0.00203
110 0.001977
124 0.00402
136 0.004035
145 0.000956
149 0.002942
156 0.002958
164 0.00405
172 0.002011
176 0.003993
178 0.004009
184 0.002033
188 0.001989
187 0.002946
190 0.003968
176 0.004024
53 0.001994
30 0.002023
44 0.002999
63 0.005016
79 0.002989
86 0.005019
91 0.004956
112 0.002947
123 0.002967
131 0.001995
136 0.002026
144 0.003973
150 0.004036
158 0.00295
164 0.003045
169 0.003003
178 0.003
182 0.002013
186 0.006056
189 0.006021
189 0.002987
181 0.003959
110 0.003041
37 0.005022
36 0.005022
64 0.003031
77 0.004002
84 0.004002
97 0.002935
110 0.003
120 0.005034
131 0.004986
138 0.002947
145 0.001995
150 0.002034
156 0.006018
158 0.006028
167 0.003959
169 0.004007
173 0.003988
179 0.00301
184 0.002991
187 0.00498
183 0.005051
109 0.003045
41 0.003024
44 0.004029
65 0.006069
87 0.00601
103 0.005026
108 0.004009
122 0.004006
138 0.00399
144 0.003989
148 0.006008
153 0.006046
162 0.004036
165 0.00402
168 0.003997
174 0.006028
179 0.005986
182 0.003941
185 0.004953
189 0.005011
194 0.004016
193 0.003959
185 0.005997
111 0.006027
31 0.002979
41 0.004012
62 0.00499
76 0.006993
88 0.007008
93 0.004979
107 0.005005
121 0.005007
133 0.004024
139 0.003958
144 0.00602
151 0.005993
159 0.003952
164 0.004953
169 0.004945
175 0.004953
178 0.00701
180 0.006991
186 0.005004
188 0.00502
192 0.005951
194 0.005984
190 0.005989
149 0.005968
53 0.006983
42 0.004987
64 0.004987
80 0.005984
91 0.006982
98 0.007014
108 0.004981
119 0.004943
129 0.004995
138 0.005004
139 0.004946
146 0.007959
151 0.007014
160 0.005968
164 0.004957
168 0.005979
170 0.007022
173 0.006981
179 0.004986
179 0.00498
185 0.004908
185 0.004994
175 0.004991
93 0.008014
44 0.007981
64 0.005934
84 0.005994
100 0.005986
112 0.006981
123 0.006982
134 0.006
143 0.005981
150 0.005017
158 0.004971
159 0.005044
164 0.007956
170 0.007988
173 0.006025
177 0.005978
182 0.006002
186 0.007986
188 0.007979
191 0.005991
194 0.005992
166 0.005985
66 0.006983
35 0.006991
58 0.007976
69 0.007973
82 0.005983
90 0.006025
96 0.006058
112 0.007974
123 0.00796
133 0.005981
139 0.005984
148 0.00695
154 0.006977
156 0.006946
164 0.007018
170 0.006988
174 0.006993
177 0.006987
182 0.006968
183 0.006957
187 0.007959
187 0.007981
160 0.005953
31 0.007978
34 0.00692
59 0.006997
69 0.007012
76 0.006978
83 0.006983
96 0.006932
107 0.006971
117 0.006954
125 0.007026
128 0.00696
133 0.00698
140 0.006976
147 0.006977
155 0.006946
158 0.006996
164 0.006992
168 0.006995
169 0.006969
171 0.00702
171 0.006951
109 0.007029
31 0.007011
27 0.00698
58 0.005976
70 0.005998
74 0.005975
86 0.006012
99 0.005983
112 0.005976
122 0.006977
124 0.006966
131 0.007006
138 0.007015
143 0.007018
155 0.006988
161 0.005983
166 0.005995
170 0.005977
174 0.005983
179 0.005964
179 0.005985
155 0.005956
56 0.005995
17 0.00599
27 0.006
44 0.005972
53 0.006025
60 0.006982
72 0.005996
88 0.006019
101 0.005978
107 0.005981
109 0.006016
120 0.006039
127 0.006005
133 0.005982
143 0.006031
148 0.006017
156 0.005985
161 0.005978
168 0.005983
174 0.005948
176 0.005989
179 0.005996
175 0.005028
82 0.005022
25 0.004978
35 0.005034
54 0.005019
68 0.005025
73 0.00502
84 0.005953
99 0.005991
116 0.006018
122 0.006013
124 0.004981
132 0.004996
140 0.004995
149 0.004973
156 0.005012
164 0.005013
167 0.005018
171 0.004985
177 0.004942
182 0.00495
185 0.004986
189 0.004984
193 0.004986
192 0.004985
162 0.003965
39 0.00497
29 0.005001
43 0.005129
57 0.005026
65 0.004985
68 0.004967
81 0.00498
99 0.005014
110 0.004986
116 0.004983
122 0.004984
129 0.004976
143 0.004007
149 0.004034
155 0.003958
163 0.003989
168 0.004019
175 0.004954
179 0.005003
183 0.004982
187 0.005069
192 0.004945
195 0.004963
193 0.003965
152 0.003981
54 0.00399
32 0.003992
48 0.00399
65 0.004042
79 0.003942
83 0.003995
98 0.003957
114 0.003988
121 0.003974
127 0.003959
132 0.002923
140 0.003939
146 0.004031
154 0.004027
161 0.003991
169 0.003958
176 0.003988
179 0.002997
186 0.003973
188 0.003958
191 0.004024
193 0.004037
196 0.002966
200 0.00299
197 0.002993
162 0.002993
72 0.004046
52 0.004015
85 0.003939
101 0.003937
113 0.00397
123 0.004029
133 0.003959
144 0.00396
152 0.003956
155 0.002941
160 0.002992
166 0.002992
170 0.002992
174 0.003026
183 0.003003
188 0.003945
191 0.003991
194 0.003946
198 0.002999
200 0.003959
203 0.002948
203 0.002958
176 0.002992
75 0.003027
43 0.002992
53 0.003076
81 0.002984
88 0.003003
93 0.002972
105 0.002981
118 0.002986
133 0.001995
139 0.001993
143 0.002086
153 0.002993
158 0.001995
162 0.002993
167 0.00306
176 0.002949
179 0.002989
181 0.001977
185 0.001995
189 0.002991
190 0.002958
188 0.002997
181 0.003027
75 0.002055
40 0.001995
53 0.001986
75 0.001995
90 0.001998
95 0.002041
104 0.001994
120 0.001998
128 0.001996
137 0.00201
142 0.001999
147 0.000998
155 0.002019
161 0.001998
168 0.001995
174 0.002028
184 0.001994
186 0.001993
187 0.001998
192 0.002033
172 0.001993
71 0.001987
33 0.001996
45 0.002028
63 0.001996
72 0.00103
77 0.000998
82 0.000997
104 0.001014
113 0.001995
123 0.001972
126 0.002016
133 0.001979
143 0.001979
152 0.00204
157 0.002026
162 0.000998
170 0.000999
175 0.000997
179 0.00095
184 0.000993
189 0.000995
192 0.001011
179 0.001016
53 0.000996
25 0.000969
40 0.000997
52 0.001979
58 0.001947
60 0.000998
68 0.000993
81 0.001002
104 0.001011
110 0.000997
117 0.000997
121 0.000999
133 0.000985
144 0.000985
151 0.000994
157 0.000998
164 0.0
172 0.0
175 0.0
180 0.0
187 0.0
192 0.0
190 0.0
170 0.000979
46 0.000952
28 0.0
41 0.000987
57 0.000997
62 0.0
63 0.0
73 0.0
88 0.0
112 0.0
114 0.0
120 0.0
124 0.0
138 0.0
147 0.0
152 0.0
160 0.0
168 0.000997
172 0.0
176 0.0
182 0.0
189 0.0
193 0.0
195 0.0
196 0.0
161 0.0
58 0.0
31 0.0
51 0.0
65 0.0
71 0.000968
74 0.001959
84 0.0
105 0.001988
114 0.0
124 0.000996
128 0.0
134 0.000991
145 0.00104
153 0.001055
162 0.001019
170 0.001007
177 0.001015
179 0.001061
185 0.002034
190 0.001994
194 0.002005
197 0.0
201 0.0
204 0.0
199 0.002039
139 0.003031
40 0.001025
47 0.0
62 0.0
75 0.001026
77 0.001997
82 0.001984
96 0.001978
111 0.001001
119 0.001003
124 0.0
133 0.001998
139 0.002021
151 0.0
160 0.0
164 0.0
170 0.00203
177 0.002024
183 0.002021
188 0.001991
192 0.0
195 0.0
199 0.0
198 0.000997
169 0.00099
50 0.0
41 0.0
55 0.0
74 0.000996
80 0.001034
87 0.001029
96 0.000998
114 0.0
127 0.0
132 0.0
140 0.002009
144 0.002046
153 0.0
158 0.0
166 0.0
171 0.002038
179 0.002044
185 0.003098
188 0.002041
194 0.001006
194 0.0
181 0.000964
95 0.002991
48 0.002992
67 0.001997
83 0.0
94 0.0
100 0.002018
104 0.002053
126 0.001992
133 0.002991
141 0.000998
144 0.000998
151 0.001995
160 0.001995
170 0.002938
176 0.003028
181 0.001984
186 0.002011
189 0.002005
192 0.002995
171 0.000997
69 0.00302
29 0.002011
37 0.001996
51 0.002012
56 0.001988
56 0.002992
61 0.002992
81 0.001012
96 0.001981
106 0.002009
106 0.003041
116 0.001995
122 0.002044
135 0.002958
148 0.002027
155 0.002
166 0.001997
172 0.003046
178 0.003025
184 0.001994
177 0.001092
102 0.001007
29 0.003028
34 0.002001
47 0.002994
49 0.002999
49 0.001996
60 0.001981
79 0.002017
98 0.003989
111 0.004022
114 0.002046
117 0.001041
128 0.001984
140 0.00399
157 0.001995
162 0.004024
166 0.004026
177 0.002033
181 0.002024
189 0.002041
189 0.003989
136 0.00399
35 0.001994
31 0.001995
44 0.001996
52 0.003989
55 0.002014
58 0.004021
74 0.003999
103 0.001999
117 0.001998
120 0.001994
124 0.003991
135 0.004988
147 0.002982
158 0.003016
169 0.002952
175 0.004986
188 0.002971
193 0.003956
201 0.00502
197 0.001995
111 0.002959
52 0.00301
53 0.002995
69 0.004986
77 0.004989
75 0.002995
77 0.002993
92 0.001983
120 0.002987
123 0.00296
128 0.005021
138 0.005022
148 0.00205
161 0.003011
169 0.002979
176 0.005022
179 0.005029
189 0.002958
197 0.003015
194 0.003011
68 0.002001
34 0.001965
44 0.005984
52 0.004988
51 0.003029
51 0.003025
54 0.002945
73 0.004985
95 0.005012
109 0.002993
111 0.003018
114 0.003003
131 0.003944
142 0.003951
152 0.005028
162 0.006013
172 0.002991
177 0.004005
181 0.00402
188 0.005973
182 0.006015
59 0.004014
18 0.003995
27 0.003996
43 0.003165
43 0.002993
46 0.006
54 0.007015
84 0.004032
99 0.00296
104 0.003987
110 0.005984
116 0.005987
129 0.003962
143 0.00396
156 0.004038
174 0.003996
180 0.003956
188 0.006019
194 0.00703
201 0.004042
204 0.004979
210 0.00499
217 0.006034
219 0.006037
223 0.004987
200 0.004023
86 0.004025
53 0.002977
72 0.004884
86 0.00493
87 0.007022
91 0.005984
103 0.004975
122 0.004992
137 0.004954
147 0.007023
152 0.007014
163 0.005003
174 0.004004
188 0.003949
193 0.002992
197 0.003989
203 0.006982
207 0.006982
213 0.004997
218 0.004988
222 0.005014
215 0.00703
151 0.006985
61 0.005033
67 0.005014
96 0.004983
102 0.004936
105 0.005003
109 0.007974
132 0.007947
148 0.005979
153 0.005998
155 0.005002
164 0.006965
172 0.006982
178 0.004992
183 0.005004
194 0.005004
199 0.005944
203 0.005
206 0.007982
211 0.007978
219 0.005977
214 0.005961
149 0.005959
56 0.007958
60 0.00795
80 0.004993
91 0.005992
97 0.005977
102 0.006012
117 0.00602
140 0.007989
148 0.007978
155 0.006
157 0.006002
169 0.005957
178 0.007971
184 0.007975
189 0.00596
195 0.006002
202 0.006015
205 0.005941
207 0.005997
217 0.006968
220 0.007979
224 0.006001
209 0.006006
114 0.005986
66 0.007979
87 0.007961
107 0.005971
113 0.004974
120 0.005933
137 0.006983
147 0.006951
155 0.005981
162 0.007017
167 0.007007
173 0.00695
178 0.006964
183 0.007022
188 0.007934
194 0.007974
200 0.005981
207 0.007989
213 0.006987
212 0.006637
206 0.006981
94 0.007009
60 0.007014
75 0.006976
100 0.00698
113 0.006979
119 0.008009
126 0.006018
148 0.006017
160 0.006982
164 0.006969
171 0.006991
175 0.006987
181 0.007013
188 0.007013
193 0.006947
195 0.006945
202 0.006963
204 0.007016
208 0.006951
212 0.005979
210 0.006965
111 0.007017
48 0.005987
58 0.005986
80 0.00602
93 0.006998
100 0.006954
104 0.006937
107 0.00698
126 0.007027
141 0.006026
149 0.005983
155 0.005971
163 0.005998
170 0.005998
173 0.005959
177 0.006017
183 0.006031
188 0.005965
190 0.005983
194 0.005984
195 0.006017
196 0.007025
161 0.006007
55 0.005977
60 0.005974
82 0.006015
98 0.006015
106 0.006005
113 0.006018
131 0.004969
143 0.005982
152 0.005986
160 0.005021
164 0.005017
171 0.005021
181 0.005034
185 0.004984
193 0.00498
196 0.00598
198 0.005969
205 0.006018
207 0.006018
194 0.00597
108 0.005987
52 0.005023
56 0.005038
76 0.005022
93 0.005001
94 0.004983
105 0.004983
119 0.005034
133 0.005026
140 0.004987
149 0.004986
154 0.005032
161 0.005979
167 0.004986
172 0.005023
175 0.005019
185 0.004988
192 0.004985
194 0.004988
195 0.005044
194 0.005021
147 0.005021
52 0.004988
42 0.004041
62 0.004031
75 0.003991
79 0.003991
82 0.004039
100 0.004001
115 0.005013
125 0.004991
129 0.00496
137 0.003987
142 0.005022
148 0.005028
158 0.00399
164 0.004033
166 0.004025
174 0.004042
176 0.003936
185 0.004
185 0.004043
121 0.003
44 0.004018
41 0.00399
63 0.003933
75 0.005019
87 0.004047
91 0.004024
102 0.003955
119 0.003987
134 0.004021
140 0.003988
143 0.003968
153 0.003986
163 0.003991
170 0.002968
173 0.00403
180 0.003989
186 0.002981
189 0.003999
194 0.002992
195 0.002992
159 0.004015
35 0.004012
36 0.003964
53 0.00398
64 0.004022
65 0.00399
70 0.003991
83 0.004
101 0.003031
118 0.002992
123 0.003018
127 0.002993
136 0.002994
150 0.002994
156 0.002946
164 0.003041
172 0.003991
177 0.003991
182 0.002995
185 0.002992
187 0.002992
188 0.003991
153 0.002989
55 0.002994
29 0.002992
59 0.002973
73 0.002998
79 0.003941
82 0.002984
94 0.002992
112 0.002944
124 0.003036
131 0.002994
141 0.002992
146 0.001995
151 0.002034
159 0.001996
171 0.002002
176 0.001995
183 0.001997
190 0.003019
195 0.002992
197 0.003007
177 0.002994
79 0.002992
42 0.001994
59 0.001995
79 0.001994
87 0.001996
94 0.002
107 0.001995
121 0.001998
136 0.001997
139 0.001996
144 0.00204
149 0.002038
159 0.001996
169 0.001995
174 0.001995
179 0.000998
185 0.001995
195 0.001991
196 0.001945
198 0.002028
198 0.001996
134 0.002014
46 0.001995
37 0.002025
55 0.000998
68 0.002041
72 0.000998
77 0.000997
83 0.000987
110 0.001077
121 0.001032
128 0.002006
132 0.002083
142 0.001988
151 0.001985
162 0.002028
170 0.001996
176 0.002027
186 0.00203
189 0.001991
193 0.002029
200 0.001995
198 0.002015
190 0.000998
98 0.000999
38 0.001011
54 0.00103
73 0.000997
82 0.001996
84 0.000998
94 0.002002
107 0.002063
120 0.002001
136 0.001942
143 0.0
151 0.000998
157 0.001
165 0.001996
172 0.000998
176 0.001055
182 0.000997
188 0.001027
192 0.000949
195 0.001025
198 0.000998
195 0.000978
123 0.000987
54 0.000997
60 0.0
89 0.0
105 0.0
109 0.0
115 0.0
127 0.0
146 0.0
154 0.0
159 0.0
168 0.0
176 0.0
181 0.0
185 0.0
192 0.000997
198 0.000997
199 0.001011
205 0.0
208 0.0
209 0.0
213 0.0
213 0.0
121 0.0
51 0.0
52 0.0
80 0.0
92 0.0
97 0.000997
103 0.000997
117 0.000954
129 0.0
145 0.0
154 0.001046
158 0.0
167 0.001979
177 0.0
182 0.0
187 0.000946
190 0.000987
195 0.00204
199 0.00203
204 0.000957
207 0.001059
209 0.00102
211 0.00204
211 0.002034
215 0.003
213 0.004021
213 0.0
204 0.001027
138 0.0
61 0.001992
61 0.002001
89 0.0
108 0.0
123 0.000951
131 0.002052
137 0.002029
151 0.003024
157 0.003026
162 0.000948
164 0.0
171 0.000993
175 0.001028
177 0.001054
185 0.0
189 0.0
190 0.0
192 0.002042
195 0.002027
199 0.001982
203 0.002027
203 0.0
202 0.0
184 0.0
96 0.002044
68 0.002041
92 0.0
114 0.000951
128 0.0
138 0.002027
147 0.002043
159 0.001987
166 0.002046
171 0.0
174 0.0
177 0.0
182 0.002029
183 0.002042
188 0.0
193 0.0
193 0.001025
197 0.002027
201 0.002036
204 0.001994
203 0.002026
204 0.000992
203 0.0
179 0.0
82 0.00205
49 0.002043
69 0.0
89 0.0
106 0.0
116 0.00199
124 0.001969
138 0.0
145 0.001993
150 0.001945
155 0.001995
159 0.002017
164 0.001991
168 0.001993
173 0.003034
178 0.001998
183 0.001991
186 0.002018
188 0.002992
192 0.001991
191 0.002993
194 0.00399
193 0.001995
181 0.002022
110 0.002002
50 0.004018
52 0.002056
79 0.001044
96 0.002024
108 0.001991
116 0.003041
135 0.001998
144 0.003038
151 0.003018
151 0.001995
153 0.002009
158 0.002008
156 0.00305
159 0.00399
167 0.001992
168 0.002001
171 0.002007
177 0.004066
178 0.002901
179 0.002965
173 0.004026
88 0.00299
46 0.002019
55 0.001996
76 0.002992
93 0.003044
111 0.002024
120 0.002004
134 0.001997
143 0.003989
150 0.001999
154 0.004044
158 0.003948
166 0.002018
170 0.002014
175 0.001998
177 0.003988
180 0.003987
184 0.001028
184 0.002033
188 0.00204
184 0.003989
71 0.002029
30 0.004009
40 0.00399
63 0.001997
72 0.001998
76 0.002044
84 0.003989
98 0.004038
111 0.003015
120 0.001994
129 0.002962
132 0.004986
143 0.002052
148 0.004036
153 0.004011
162 0.002003
165 0.002992
170 0.001995
173 0.001995
176 0.004987
173 0.005016
127 0.002996
38 0.002994
23 0.002964
51 0.001973
61 0.001997
67 0.005045
72 0.005014
84 0.00295
97 0.003018
108 0.003072
113 0.005018
116 0.004987
126 0.003008
132 0.002
139 0.002964
147 0.002043
153 0.003013
159 0.004987
162 0.005984
167 0.003007
168 0.003048
141 0.004025
47 0.006015
23 0.005981
43 0.003047
58 0.003025
69 0.002993
79 0.002994
93 0.00299
106 0.004995
116 0.005019
124 0.002991
127 0.002957
137 0.002988
142 0.005989
150 0.00603
159 0.004006
163 0.003985
168 0.00401
174 0.003037
178 0.004988
177 0.005021
138 0.005984
27 0.002996
21 0.002996
30 0.003981
44 0.005995
51 0.00603
51 0.004039
61 0.004017
78 0.003959
101 0.003949
104 0.00397
110 0.006047
115 0.006038
129 0.004011
137 0.003976
146 0.003995
156 0.006015
163 0.006027
170 0.003038
176 0.003021
178 0.004982
184 0.004005
187 0.00404
179 0.005965
107 0.00694
28 0.006982
25 0.00396
40 0.004522
51 0.004982
55 0.007014
58 0.007035
74 0.005022
89 0.004036
106 0.003996
110 0.004018
115 0.004047
124 0.006017
130 0.005981
140 0.00399
147 0.004993
151 0.005005
154 0.006987
161 0.007012
169 0.005026
173 0.004983
178 0.005011
184 0.004993
188 0.003984
191 0.007979
192 0.007957
181 0.003992
93 0.005019
39 0.004948
46 0.006983
67 0.006981
84 0.004983
91 0.005016
104 0.00396
116 0.004041
128 0.005
136 0.007031
145 0.007978
151 0.004987
158 0.005034
161 0.004981
171 0.007971
176 0.007959
181 0.004999
188 0.005014
195 0.004986
202 0.005
202 0.005
205 0.007968
199 0.007958
126 0.005982
50 0.00401
47 0.005999
71 0.007959
81 0.007973
87 0.00601
92 0.004971
112 0.004995
123 0.004987
131 0.004988
143 0.007997
148 0.007962
152 0.00599
161 0.005977
169 0.006006
175 0.007984
183 0.00796
188 0.005999
191 0.005995
197 0.006967
201 0.005939
201 0.006951
204 0.007954
203 0.00702
189 0.005969
93 0.005985
43 0.00594
47 0.007966
68 0.007942
88 0.007042
91 0.005987
100 0.007032
113 0.00599
128 0.006015
138 0.006021
144 0.007966
149 0.007965
156 0.005983
161 0.005984
168 0.005982
179 0.007007
183 0.007015
189 0.005979
194 0.00698
198 0.006031
198 0.00698
200 0.00606
203 0.00698
206 0.006977
204 0.005964
204 0.006954
193 0.005994
104 0.007031
50 0.007014
59 0.006983
94 0.007012
110 0.00698
117 0.006962
127 0.00697
139 0.006031
143 0.007013
149 0.005948
155 0.005981
159 0.005984
166 0.005994
170 0.006015
177 0.006972
184 0.007019
189 0.006939
192 0.006975
198 0.006962
202 0.006034
200 0.007016
181 0.005981
88 0.005985
44 0.00599
55 0.006019
73 0.005967
92 0.005988
102 0.005966
112 0.00697
126 0.006963
132 0.006973
143 0.005985
146 0.005975
157 0.005983
162 0.005981
167 0.005987
173 0.00598
178 0.006019
183 0.005993
188 0.006007
192 0.005989
196 0.005954
195 0.005983
184 0.005985
92 0.006015
29 0.006946
38 0.005012
55 0.004995
68 0.005018
75 0.005039
81 0.005995
98 0.00603
115 0.005969
123 0.005952
130 0.005979
135 0.005983
142 0.006016
150 0.006032
155 0.004969
160 0.004986
169 0.004987
171 0.004987
173 0.004988
179 0.003989
182 0.005021
172 0.004984
84 0.00496
27 0.006002
30 0.006036
48 0.005024
62 0.004945
69 0.004987
71 0.004989
83 0.00502
99 0.004988
112 0.00502
118 0.005051
127 0.00495
134 0.005979
144 0.004956
149 0.004988
157 0.00399
167 0.004017
171 0.004997
177 0.005062
181 0.005017
180 0.004982
71 0.005036
24 0.005019
35 0.005025
51 0.005
61 0.004045
63 0.005036
69 0.004023
90 0.004067
104 0.004029
110 0.003946
116 0.003991
122 0.003999
135 0.00399
144 0.005018
154 0.005026
163 0.004977
167 0.003993
171 0.004028
177 0.00399
185 0.003991
186 0.003989
185 0.00399
124 0.002992
31 0.003995
24 0.00398
37 0.00401
46 0.005051
44 0.003996
49 0.004001
63 0.004045
79 0.003991
96 0.003991
102 0.004024
107 0.003991
115 0.003997
125 0.003945
141 0.00399
153 0.00399
163 0.003998
170 0.002992
175 0.002995
180 0.003005
185 0.00305
185 0.004032
190 0.003015
196 0.003025
194 0.00398
177 0.004005
32 0.003989
31 0.003991
51 0.002991
65 0.003948
70 0.00399
72 0.002984
81 0.003003
97 0.003
119 0.002992
124 0.002964
129 0.002991
137 0.003053
148 0.003037
156 0.002996
163 0.002992
172 0.003023
180 0.00299
184 0.001995
192 0.002992
193 0.001996
201 0.002994
202 0.002994
161 0.003017
65 0.002993
51 0.003059
72 0.002992
83 0.002993
88 0.002997
94 0.002992
106 0.001995
122 0.001994
132 0.002961
138 0.001995
142 0.001995
150 0.002006
161 0.002013
173 0.001961
179 0.002993
183 0.002999
191 0.002994
195 0.003048
199 0.002998
202 0.001997
206 0.001998
208 0.001995
198 0.001995
100 0.001996
39 0.002024
53 0.001004
68 0.001995
71 0.002046
74 0.002027
82 0.001989
96 0.001046
111 0.001026
125 0.000977
133 0.001996
138 0.001995
147 0.002052
155 0.002011
169 0.002004
175 0.002031
183 0.001978
189 0.002026
193 0.001995
198 0.001033
203 0.00199
205 0.000998
207 0.000962
212 0.000998
204 0.00201
134 0.001005
39 0.001998
57 0.00204
75 0.00204
87 0.002029
91 0.002002
97 0.002044
110 0.001997
123 0.00203
133 0.001004
142 0.001022
146 0.000992
153 0.001001
163 0.000997
169 0.002042
176 0.002043
179 0.001009
188 0.002026
192 0.002033
198 0.002
201 0.001995
207 0.000998
208 0.001995
199 0.001015
132 0.001021
51 0.000998
72 0.001052
92 0.000982
106 0.000998
117 0.000998
126 0.000997
138 0.000992
149 0.000998
155 0.000997
160 0.001001
164 0.0
172 0.0
181 0.0
185 0.0
189 0.0
194 0.001003
200 0.000925
201 0.000997
205 0.000998
206 0.000998
190 0.000997
62 0.0
38 0.0
53 0.0
74 0.0
82 0.0
84 0.0
95 0.0
114 0.0
123 0.0
134 0.0
140 0.000999
145 0.0
154 0.0
161 0.002052
170 0.001036
178 0.0
182 0.0
187 0.0
192 0.0
196 0.0
200 0.0
194 0.0
132 0.000999
41 0.0
33 0.001017
47 0.002998
65 0.001993
76 0.001948
83 0.001963
99 0.0
113 0.0
124 0.0
133 0.00202
138 0.003025
146 0.0
154 0.0
161 0.0
164 0.001994
170 0.001992
181 0.003028
186 0.002994
192 0.0
195 0.0
200 0.0
201 0.001995
199 0.002048
145 0.0
57 0.0
52 0.0
73 0.001986
98 0.002055
117 0.002042
126 0.002028
140 0.000966
148 0.001014
157 0.0
159 0.003023
165 0.002048
174 0.0
178 0.0
183 0.000967
189 0.002971
196 0.002993
206 0.002027
207 0.002029
212 0.001963
215 0.000968
200 0.0
107 0.002047
49 0.002044
61 0.000966
78 0.000982
90 0.000989
96 0.002988
101 0.003988
121 0.003019
137 0.002987
146 0.0
148 0.0
155 0.0
161 0.001958
166 0.001962
171 0.0
176 0.0
182 0.001017
186 0.001995
190 0.002023
195 0.002029
198 0.002992
199 0.001022
168 0.000964
59 0.0
24 0.002993
38 0.002993
53 0.002991
65 0.0
68 0.0
71 0.0
84 0.002068
106 0.0
117 0.002046
123 0.002068
127 0.0
136 0.001958
143 0.0
148 0.002021
154 0.00302
163 0.0
167 0.0
171 0.000969
177 0.003019
179 0.003016
180 0.003044
155 0.002993
40 0.0
34 0.002993
55 0.002991
75 0.002997
82 0.003032
91 0.000956
102 0.0
113 0.002988
127 0.003028
134 0.001994
143 0.003042
147 0.004037
155 0.0
165 0.003003
168 0.001996
173 0.003053
177 0.002988
186 0.001993
188 0.002026
192 0.001989
186 0.00403
43 0.001998
19 0.004013
32 0.003989
51 0.001995
56 0.001998
56 0.001956
67 0.002992
81 0.002986
98 0.003031
111 0.003024
117 0.001985
123 0.003953
134 0.002015
144 0.003023
148 0.003996
158 0.002997
165 0.002034
168 0.002017
174 0.004039
178 0.00402
181 0.003001
179 0.003003
125 0.002027
34 0.003992
36 0.001941
55 0.005018
65 0.004989
71 0.002023
76 0.00198
92 0.0
111 0.00403
118 0.00399
127 0.002992
136 0.001994
140 0.001975
148 0.002988
160 0.00207
168 0.002947
174 0.003951
181 0.003953
186 0.002024
189 0.002993
187 0.002045
138 0.004986
39 0.003957
24 0.002033
39 0.00249
51 0.002029
54 0.002979
61 0.002998
76 0.005023
93 0.004986
106 0.00299
108 0.001965
114 0.002008
120 0.003996
132 0.004992
147 0.001984
153 0.003021
163 0.003038
173 0.002966
181 0.002997
182 0.005984
185 0.004986
185 0.00299
114 0.002973
24 0.002946
13 0.005018
29 0.005055
40 0.003001
42 0.003002
45 0.00203
65 0.002974
82 0.002001
94 0.005021
98 0.004988
105 0.003007
112 0.002037
125 0.003
135 0.004955
148 0.005986
156 0.002995
160 0.003036
166 0.003026
169 0.002951
176 0.002972
178 0.005984
185 0.006041
182 0.002987
104 0.00297
30 0.002959
30 0.006
50 0.00613
65 0.002961
67 0.003946
69 0.004003
95 0.003989
110 0.004027
120 0.005984
126 0.005988
129 0.004028
138 0.004009
148 0.004022
157 0.006
165 0.005977
176 0.002994
179 0.00403
183 0.003975
189 0.002991
196 0.003994
194 0.004002
143 0.007031
45 0.007034
29 0.003993
45 0.004022
57 0.004
58 0.006019
58 0.007036
70 0.004984
88 0.00497
108 0.00403
112 0.004054
116 0.004021
124 0.007033
133 0.006984
151 0.004012
159 0.004
168 0.004042
177 0.007016
182 0.007969
184 0.003978
191 0.004954
198 0.004978
202 0.004958
201 0.004011
179 0.006976
74 0.007015
34 0.005
51 0.003954
68 0.004022
73 0.007024
75 0.00702
80 0.005952
99 0.004985
122 0.003958
130 0.00499
133 0.005004
145 0.007987
153 0.007958
160 0.005005
170 0.004987
176 0.005012
184 0.007981
188 0.00698
196 0.006006
202 0.00599
210 0.006008
215 0.005999
203 0.005009
114 0.007977
50 0.00798
58 0.004992
78 0.004905
86 0.004883
87 0.007953
95 0.007979
112 0.005954
125 0.00595
138 0.004986
142 0.005978
148 0.005966
160 0.007961
169 0.007972
179 0.00499
186 0.003956
190 0.005053
198 0.007993
205 0.007956
207 0.004965
210 0.004955
215 0.004993
220 0.004998
221 0.005985
223 0.005988
148 0.006989
54 0.00795
47 0.00599
65 0.005953
79 0.005991
89 0.007982
88 0.007981
97 0.005955
121 0.007965
134 0.005983
142 0.005995
145 0.005985
152 0.007015
161 0.007015
168 0.005965
174 0.005955
179 0.006066
182 0.007013
183 0.006981
189 0.005981
197 0.006941
202 0.006002
204 0.005967
208 0.005987
211 0.006986
192 0.006997
97 0.006949
48 0.005985
57 0.006948
86 0.007056
98 0.006997
105 0.006949
119 0.007036
138 0.006946
146 0.005966
156 0.006955
160 0.006976
165 0.006949
176 0.005947
182 0.005966
186 0.006022
195 0.005984
200 0.005996
207 0.006952
211 0.007021
216 0.00698
218 0.006942
192 0.005989
80 0.007029
25 0.006973
42 0.005984
61 0.006051
71 0.005984
75 0.005983
82 0.005986
100 0.006056
120 0.005998
133 0.005993
143 0.005984
150 0.006012
156 0.005993
165 0.006055
174 0.006967
175 0.006962
182 0.005983
189 0.006003
193 0.005951
196 0.006004
203 0.006023
205 0.005975
183 0.005987
76 0.005019
39 0.005019
51 0.006017
73 0.005983
86 0.004936
90 0.004998
95 0.004985
105 0.004968
119 0.004967
138 0.006045
145 0.00598
152 0.005985
160 0.005941
167 0.005981
175 0.005021
182 0.005031
190 0.004988
194 0.005014
198 0.004989
200 0.005005
205 0.004988
208 0.004936
211 0.005032
142 0.005972
56 0.006004
53 0.005986
70 0.00496
88 0.004988
102 0.004977
104 0.004981
111 0.004987
126 0.005017
140 0.004983
153 0.005018
154 0.004992
162 0.004987
168 0.004995
173 0.004037
178 0.004026
182 0.003974
192 0.004932
195 0.004978
199 0.005001
203 0.004978
209 0.004974
199 0.005052
114 0.005019
52 0.004989
67 0.003992
88 0.003953
97 0.003985
102 0.003962
110 0.003993
122 0.003991
136 0.003989
144 0.003989
147 0.003989
154 0.004025
160 0.00399
172 0.003989
178 0.005071
182 0.004032
187 0.00396
193 0.003954
195 0.003988
201 0.002946
205 0.002991
207 0.004004
206 0.003958
90 0.004015
40 0.003989
53 0.00399
69 0.003989
79 0.003984
80 0.004008
84 0.00402
94 0.003958
115 0.003968
124 0.003966
131 0.004011
133 0.002994
145 0.002977
155 0.003052
164 0.002992
170 0.002989
176 0.002986
184 0.003903
187 0.004044
189 0.003944
195 0.003962
199 0.002962
199 0.003015
204 0.003956
111 0.003994
43 0.00403
42 0.003031
67 0.002994
79 0.003026
83 0.002984
83 0.003026
91 0.002999
113 0.002992
123 0.003026
130 0.002984
135 0.003988
145 0.002971
151 0.004023
158 0.001995
166 0.002029
170 0.002003
175 0.002967
181 0.00298
184 0.003052
189 0.003003
196 0.002988
196 0.002995
201 0.002976
194 0.003028
123 0.002993
52 0.002992
62 0.002992
84 0.002026
96 0.001998
105 0.001974
111 0.001992
121 0.002998
137 0.001994
146 0.00199
149 0.002015
157 0.002033
163 0.002025
169 0.001995
178 0.002981
183 0.002992
188 0.003023
194 0.002095
196 0.001973
199 0.002012
204 0.001999
204 0.001991
206 0.002028
156 0.002029
62 0.001995
43 0.001998
62 0.001998
80 0.002031
88 0.000943
91 0.000998
94 0.000993
107 0.000973
124 0.000977
133 0.001011
137 0.001015
146 0.00207
152 0.00198
161 0.002026
166 0.002028
173 0.001995
179 0.001991
184 0.000988
186 0.001003
191 0.001991
197 0.002014
197 0.001014
202 0.002023
181 0.001948
81 0.002022
35 0.000999
47 0.001996
71 0.001008
77 0.002016
80 0.001025
83 0.000997
94 0.001968
112 0.002005
124 0.001007
131 0.001013
140 0.002003
148 0.002074
155 0.000997
160 0.001002
168 0.000998
172 0.000994
177 0.000998
181 0.000998
186 0.001028
189 0.00099
192 0.0
196 0.0
193 0.0
159 0.0
62 0.0
43 0.001007
65 0.001005
81 0.000996
92 0.001012
97 0.000996
103 0.0
118 0.0
129 0.0
137 0.0
144 0.0
148 0.0
155 0.0
161 0.0
168 0.000956
174 0.00103
181 0.0
184 0.0
190 0.0
196 0.0
198 0.0
200 0.0
154 0.0
62 0.0
48 0.0
69 0.0
89 0.0
98 0.0
107 0.001997
118 0.000996
129 0.0
138 0.0
144 0.000998
146 0.002994
155 0.002038
163 0.0
169 0.0
173 0.0
176 0.0
183 0.004023
187 0.001998
191 0.0
193 0.000995
197 0.0
197 0.001994
189 0.003042
52 0.002027
35 0.003051
55 0.0
69 0.0
78 0.0
80 0.002992
84 0.003024
103 0.0
114 0.0
120 0.0
128 0.001997
136 0.001991
147 0.001994
153 0.001971
164 0.000966
169 0.001006
174 0.000998
178 0.002985
182 0.002968
188 0.0
187 0.0
190 0.0
190 0.003023
180 0.00298
44 0.001998
36 0.002026
59 0.0
75 0.000959
82 0.0
82 0.002992
91 0.001993
109 0.000997
114 0.001999
124 0.000963
129 0.00199
133 0.002027
146 0.002046
154 0.002044
168 0.000965
172 0.00095
177 0.0
182 0.002994
186 0.002973
185 0.000965
188 0.0
192 0.0
186 0.003039
154 0.004029
43 0.001993
54 0.001912
81 0.0
93 0.0
100 0.000998
104 0.001995
118 0.004008
128 0.002025
137 0.001011
144 0.0
149 0.000989
153 0.002989
163 0.0
170 0.003022
176 0.003041
181 0.0
184 0.0
188 0.0
191 0.001978
192 0.001998
196 0.000983
167 0.0
63 0.0
30 0.002993
50 0.0
63 0.002993
67 0.002994
72 0.0
83 0.0
97 0.0
110 0.003985
117 0.002024
126 0.0
131 0.000988
140 0.0
149 0.003991
161 0.000969
168 0.003032
172 0.004039
178 0.0
180 0.0
184 0.002992
186 0.002369
186 0.003993
187 0.000954
169 0.003003
75 0.0
36 0.002992
56 0.001995
72 0.002969
78 0.003042
85 0.001999
96 0.003036
108 0.003021
120 0.003957
128 0.003992
134 0.003009
143 0.0
150 0.003024
155 0.004032
165 0.001998
172 0.004038
177 0.004039
185 0.00299
190 0.0
195 0.002988
200 0.004958
201 0.003945
180 0.00402
84 0.0
43 0.003027
54 0.003992
78 0.002046
87 0.004039
89 0.003961
103 0.002992
117 0.002983
125 0.003034
135 0.003991
139 0.005009
147 0.003006
155 0.002993
162 0.002035
168 0.002993
177 0.003004
185 0.002989
190 0.004966
194 0.003958
197 0.002994
202 0.002998
206 0.000952
205 0.003996
203 0.005003
111 0.00299
38 0.003026
40 0.002992
64 0.002992
74 0.001995
75 0.003988
79 0.004044
97 0.002033
110 0.00306
118 0.002978
127 0.004004
133 0.00493
141 0.00301
150 0.002042
157 0.002991
169 0.003005
176 0.002024
180 0.004971
185 0.005021
192 0.002995
196 0.002024
199 0.002024
201 0.005015
203 0.005011
142 0.003005
58 0.002996
53 0.003007
83 0.002998
94 0.003032
96 0.00504
101 0.005942
119 0.002995
127 0.002026
137 0.003004
142 0.006022
146 0.006018
154 0.003035
162 0.002965
168 0.00199
176 0.003007
180 0.003
185 0.005986
189 0.006022
195 0.002955
198 0.002983
202 0.003009
200 0.007018
164 0.006985
47 0.003037
34 0.003071
52 0.003032
67 0.004028
68 0.001945
68 0.006038
82 0.00605
99 0.002972
110 0.001978
117 0.003984
122 0.003994
128 0.00699
137 0.007033
148 0.003044
154 0.003989
166 0.003989
175 0.004002
179 0.004029
184 0.005986
186 0.005986
193 0.002962
194 0.003991
168 0.003998
69 0.006951
30 0.006983
46 0.003961
60 0.003959
68 0.004005
73 0.004012
82 0.003965
97 0.007015
107 0.00695
119 0.003958
122 0.003982
130 0.005001
139 0.007066
151 0.007016
162 0.00502
169 0.004926
178 0.003984
182 0.004989
187 0.004986
192 0.007973
196 0.00798
200 0.004013
195 0.003993
138 0.003989
59 0.006983
53 0.007019
80 0.004021
93 0.004997
99 0.00399
106 0.004962
119 0.005013
133 0.007978
137 0.007979
138 0.004987
145 0.004994
151 0.004965
158 0.007943
164 0.006981
174 0.004992
178 0.004946
186 0.005002
191 0.004933
194 0.005017
198 0.007979
189 0.007975
113 0.004994
39 0.005978
33 0.006009
52 0.007973
59 0.007977
55 0.005977
57 0.005956
73 0.00599
89 0.00591
100 0.005946
106 0.006934
109 0.007978
118 0.007974
130 0.005961
135 0.004985
143 0.006016
154 0.00798
158 0.007975
161 0.00595
167 0.007976
171 0.005994
162 0.00595
75 0.005932
2 0.006947
16 0.006964
31 0.004987
36 0.004987
37 0.004946
41 0.007998
49 0.007974
66 0.005984
85 0.006971
92 0.006024
96 0.006039
109 0.005977
124 0.006987
135 0.007005
145 0.005977
152 0.005957
160 0.005955
164 0.006996
170 0.006968
174 0.005983
142 0.007057
47 0.00695
17 0.00695
29 0.006952
55 0.006972
64 0.006972
72 0.005946
80 0.005952
103 0.006027
114 0.006983
119 0.005987
118 0.005984
127 0.006019
134 0.005036
140 0.005002
150 0.00601
153 0.006998
157 0.006984
163 0.006983
169 0.00694
173 0.006954
161 0.006966
70 0.00598
9 0.006016
20 0.005992
37 0.006015
46 0.006055
50 0.005984
67 0.006008
87 0.005985
104 0.005984
113 0.005962
119 0.005926
133 0.006992
143 0.005981
153 0.005977
165 0.006037
178 0.005982
183 0.006018
189 0.006016
194 0.005986
193 0.005986
161 0.005978
60 0.005948
30 0.004979
48 0.005021
65 0.004987
76 0.004945
80 0.005001
95 0.005993
117 0.004996
125 0.005999
133 0.005901
137 0.005038
141 0.004964
153 0.00599
163 0.00599
170 0.004959
175 0.004965
180 0.00497
192 0.004957
197 0.004996
163 0.004954
62 0.004987
35 0.005017
46 0.005967
63 0.004956
76 0.004984
79 0.004988
88 0.004988
103 0.004988
119 0.004987
133 0.004981
141 0.005026
149 0.005023
156 0.004969
166 0.005024
175 0.005002
181 0.004985
190 0.004935
195 0.005538
198 0.004969
204 0.004987
201 0.004969
58 0.004992
33 0.004949
55 0.004988
70 0.004986
75 0.004952
73 0.005005
83 0.005018
105 0.004983
116 0.004942
127 0.004959
133 0.004986
139 0.003957
153 0.00396
163 0.003958
175 0.004001
182 0.003984
187 0.00396
193 0.003962
199 0.003961
204 0.004958
209 0.004959
215 0.004987
206 0.003989
125 0.003954
48 0.003965
65 0.003958
88 0.00398
94 0.003949
97 0.003989
105 0.003927
121 0.003989
139 0.003989
145 0.00399
153 0.003993
161 0.00301
168 0.004015
179 0.003987
187 0.004017
193 0.003955
199 0.002945
207 0.002959
214 0.002991
217 0.003985
219 0.003987
216 0.003997
138 0.004021
59 0.002992
59 0.00296
92 0.003938
108 0.002992
115 0.002943
129 0.004
143 0.003991
153 0.002994
161 0.003969
164 0.002961
172 0.003987
178 0.003988
185 0.004052
192 0.002992
200 0.002991
206 0.002994
208 0.00299
212 0.002993
216 0.003025
220 0.003021
221 0.002968
211 0.002991
88 0.002992
46 0.002995
58 0.002987
81 0.003029
99 0.001992
104 0.001968
109 0.003017
130 0.003008
141 0.002991
146 0.003028
155 0.002979
161 0.002959
168 0.00196
177 0.00199
184 0.002025
189 0.002043
197 0.001998
201 0.001996
205 0.002025
211 0.002998
212 0.002981
216 0.001977
210 0.003009
143 0.002996
51 0.001964
59 0.001994
80 0.001952
99 0.001996
110 0.002008
116 0.001997
130 0.002028
144 0.002025
152 0.001994
156 0.001994
164 0.002001
170 0.001984
176 0.000959
184 0.000966
188 0.001968
193 0.001991
198 0.001991
203 0.001948
208 0.002011
211 0.00198
215 0.001993
216 0.001992
216 0.002026
178 0.001996
81 0.001003
61 0.001977
79 0.000962
102 0.001996
121 0.001036
129 0.002008
141 0.002017
149 0.001996
158 0.001996
160 0.001965
166 0.001983
170 0.001995
176 0.001006
183 0.00194
188 0.002002
192 0.00204
197 0.002009
204 0.002
204 0.000966
207 0.000995
206 0.000999
153 0.000999
60 0.001058
48 0.001988
69 0.001979
90 0.001994
99 0.001997
107 0.0
123 0.0
133 0.0
138 0.0
147 0.0
153 0.00101
157 0.001
165 0.001034
173 0.000998
178 0.000995
184 0.000997
189 0.000988
192 0.0
197 0.0
201 0.0
202 0.0
200 0.0
108 0.0
35 0.0
38 0.0
58 0.0
74 0.0
84 0.001001
86 0.0
96 0.0
117 0.0
124 0.0
131 0.0
139 0.0
147 0.0
152 0.0
162 0.0
166 0.0
172 0.0
182 0.0
186 0.0
189 0.0
193 0.0
200 0.0
202 0.00099
200 0.000951
103 0.0
38 0.002023
40 0.00297
57 0.001052
79 0.000995
83 0.001013
84 0.002026
95 0.002025
117 0.001988
127 0.003025
132 0.0
140 0.0
149 0.0
155 0.002987
163 0.002994
170 0.0
174 0.0
176 0.0
180 0.002995
187 0.002026
192 0.003036
198 0.002983
199 0.0
199 0.0
190 0.0
113 0.003034
47 0.002988
57 0.0
78 0.0
94 0.0
102 0.003032
112 0.00303
130 0.00303
137 0.003024
145 0.0
150 0.0
154 0.0
160 0.003021
167 0.003022
175 0.0
179 0.0
187 0.000984
191 0.002027
194 0.002025
196 0.003022
200 0.003019
171 0.0
67 0.0
34 0.0
45 0.003022
64 0.002987
77 0.001
81 0.0
91 0.0
102 0.002993
114 0.00396
124 0.003015
128 0.002979
140 0.0
147 0.0
154 0.000971
160 0.002966
167 0.002981
174 0.0
177 0.0
183 0.0
187 0.003022
190 0.003022
190 0.002987
129 0.003026
37 0.004005
25 0.0
45 0.0
55 0.00099
60 0.003993
61 0.003026
75 0.0
89 0.0
101 0.000967
110 0.00205
121 0.0
128 0.003012
139 0.003024
150 0.0
158 0.0
163 0.000973
170 0.002995
177 0.002953
185 0.001021
192 0.0
193 0.0
198 0.003989
146 0.001005
54 0.003987
34 0.003022
54 0.000966
70 0.00094
73 0.000947
71 0.003339
78 0.003992
99 0.001013
105 0.0
109 0.0
116 0.003992
125 0.0
137 0.003984
144 0.004028
157 0.0
164 0.0
169 0.001015
176 0.004044
181 0.002993
185 0.003032
184 0.001985
118 0.0
32 0.002993
24 0.000957
40 0.00399
44 0.00399
44 0.003033
51 0.000968
66 0.0
80 0.003989
92 0.00398
97 0.003022
103 0.002952
114 0.002986
125 0.003006
146 0.003025
153 0.003958
164 0.00399
173 0.003058
180 0.003037
187 0.003016
194 0.00404
195 0.004039
203 0.002933
207 0.002035
184 0.003002
78 0.00404
36 0.001066
53 0.003984
66 0.003961
67 0.003964
68 0.003
78 0.001948
96 0.002995
111 0.003989
120 0.004981
125 0.0
132 0.001961
145 0.002998
159 0.002977
166 0.002981
174 0.003991
181 0.004945
190 0.003039
194 0.003042
201 0.002994
203 0.005011
208 0.005048
216 0.003
