97 0.025019
99 0.005985
112 0.005005
120 0.005018
129 0.006981
135 0.007012
137 0.005984
144 0.004987
147 0.005985
151 0.006013
142 0.007009
93 0.006976
55 0.006007
50 0.006949
71 0.006975
85 0.006949
98 0.006982
107 0.006981
104 0.006943
97 0.007011
95 0.005998
101 0.005983
107 0.007023
115 0.006982
124 0.005983
127 0.006982
131 0.007012
132 0.007013
135 0.007013
139 0.007979
138 0.006982
100 0.006977
49 0.007001
36 0.006983
48 0.006981
62 0.006981
76 0.007015
87 0.007026
96 0.007998
91 0.006991
88 0.007012
91 0.007948
103 0.007981
112 0.006969
119 0.006971
126 0.006953
131 0.007979
135 0.007972
137 0.007026
142 0.007023
147 0.00703
138 0.007968
73 0.007016
51 0.007998
55 0.007979
67 0.007979
88 0.007991
92 0.00798
105 0.007978
104 0.007994
96 0.007007
95 0.007016
104 0.007021
116 0.007015
124 0.007009
131 0.006971
136 0.006986
140 0.007012
142 0.007018
146 0.007012
149 0.007935
141 0.006984
81 0.007969
68 0.007979
61 0.006992
75 0.006976
87 0.00698
100 0.006994
107 0.007022
106 0.006981
98 0.006981
97 0.006981
103 0.006981
112 0.006982
118 0.006981
127 0.007022
135 0.00699
140 0.007001
142 0.006987
144 0.006973
148 0.00697
151 0.007027
156 0.007014
162 0.006943
165 0.005979
139 0.005984
80 0.006031
52 0.006031
58 0.006983
71 0.006974
79 0.006981
89 0.007017
96 0.006989
97 0.005023
92 0.006014
92 0.006092
96 0.006023
103 0.006047
110 0.006037
120 0.005984
128 0.006028
133 0.006942
137 0.006974
138 0.006984
141 0.005984
143 0.006009
148 0.006049
154 0.00599
157 0.006033
163 0.005983
170 0.005984
171 0.00603
106 0.005995
56 0.005982
55 0.006943
66 0.005939
75 0.005973
82 0.006016
92 0.006007
98 0.005023
99 0.005016
99 0.005021
100 0.005022
107 0.006017
119 0.006039
131 0.006066
138 0.006043
144 0.005999
147 0.00602
151 0.005985
154 0.005984
159 0.005984
162 0.004985
167 0.004981
170 0.005994
177 0.005973
182 0.00595
183 0.004973
129 0.004978
82 0.004994
71 0.004987
78 0.005026
92 0.004991
105 0.004987
113 0.004977
120 0.004987
120 0.004983
116 0.005032
114 0.004991
120 0.003997
130 0.004986
138 0.003989
145 0.00402
151 0.004989
154 0.004021
158 0.004987
162 0.004993
165 0.005027
168 0.005048
170 0.005016
175 0.004968
179 0.004978
183 0.004977
160 0.004988
102 0.003989
73 0.00399
73 0.003989
88 0.003989
102 0.004021
112 0.003989
121 0.00399
125 0.004027
117 0.004009
114 0.004986
119 0.003941
128 0.003945
139 0.00403
147 0.005037
155 0.004031
161 0.003989
163 0.003989
166 0.003989
168 0.004026
169 0.00399
173 0.004021
177 0.003982
183 0.003946
175 0.00399
127 0.004034
82 0.00399
72 0.00399
87 0.004033
101 0.002946
115 0.004015
125 0.002992
131 0.003025
124 0.003003
118 0.002973
119 0.003046
127 0.002995
137 0.003989
145 0.003957
151 0.003989
158 0.00403
161 0.00399
164 0.004041
168 0.004001
171 0.00399
176 0.003951
180 0.003001
183 0.002987
173 0.002766
120 0.003023
77 0.002993
69 0.002992
77 0.002988
99 0.002992
108 0.011962
115 0.0
116 0.002984
118 0.002992
127 0.003027
137 0.002993
146 0.002994
153 0.003008
160 0.002985
166 0.002992
167 0.003014
169 0.002992
171 0.003029
175 0.002983
178 0.001962
182 0.001995
151 0.001994
94 0.001994
68 0.002963
70 0.002002
83 0.002993
106 0.001995
118 0.003005
126 0.002992
128 0.001995
118 0.001984
116 0.002042
118 0.00199
129 0.002939
139 0.002044
145 0.001995
150 0.001995
154 0.001994
157 0.001993
158 0.00204
160 0.001994
163 0.002045
167 0.001995
167 0.001994
136 0.001989
71 0.001995
57 0.001959
65 0.001995
79 0.000993
97 0.000998
113 0.000997
119 0.001995
118 0.001995
110 0.001995
107 0.001979
110 0.001971
118 0.001964
130 0.001994
137 0.000998
142 0.000964
146 0.000998
149 0.000999
151 0.000996
153 0.001017
158 0.000998
159 0.000998
116 0.000989
68 0.001002
54 0.001033
59 0.000997
76 0.002
89 0.000998
102 0.001007
110 0.001027
109 0.000998
99 0.000998
96 0.000998
100 0.000998
115 0.000999
123 0.001043
130 0.001002
136 0.000998
140 0.000998
143 0.00101
146 0.0
151 0.000997
152 0.0
116 0.0
75 0.0
60 0.0
72 0.0
85 0.0
99 0.0
111 0.0
117 0.0
111 0.0
105 0.0
106 0.0
112 0.0
125 0.0
132 0.0
140 0.000997
145 0.000997
148 0.000998
151 0.001001
155 0.0
160 0.0
147 0.0
102 0.0
66 0.0
59 0.0
71 0.0
84 0.0
96 0.0
110 0.0
109 0.0
105 0.0
104 0.0
107 0.000966
115 0.000998
129 0.0
136 0.0
141 0.0
146 0.0
150 0.0
152 0.0
154 0.0
159 0.0
163 0.0
159 0.0
121 0.000997
72 0.000998
56 0.0
62 0.0
71 0.0
79 0.000998
87 0.000985
93 0.000998
96 0.000984
93 0.001
95 0.0
98 0.000998
108 0.0
116 0.00097
124 0.000999
129 0.0
133 0.0
137 0.0
140 0.000998
143 0.000998
149 0.00099
152 0.000992
158 0.000949
161 0.000999
145 0.001025
92 0.001995
56 0.001996
52 0.001002
58 0.000999
66 0.000998
76 0.000999
82 0.001012
93 0.000996
93 0.002001
92 0.001032
96 0.00103
103 0.000997
112 0.001995
119 0.002027
129 0.001031
134 0.001001
134 0.01792
139 0.000998
142 0.0
58 0.000978
68 0.002993
81 0.002992
95 0.002032
101 0.001992
104 0.000995
101 0.000997
100 0.001032
102 0.002027
109 0.001996
120 0.001036
130 0.002026
136 0.001977
141 0.002992
146 0.002995
150 0.002049
153 0.002026
155 0.002052
156 0.002027
161 0.001995
166 0.001998
170 0.00203
158 0.001995
108 0.002028
69 0.002993
61 0.002027
74 0.003014
94 0.001988
103 0.002993
111 0.002989
112 0.002993
108 0.003024
104 0.003026
108 0.002992
116 0.003027
129 0.002027
136 0.002038
142 0.002018
147 0.003989
151 0.00297
153 0.004026
153 0.003989
155 0.003026
161 0.003023
165 0.003025
170 0.004017
166 0.003991
125 0.003028
79 0.003024
63 0.002988
71 0.00399
93 0.002941
107 0.003987
117 0.004027
116 0.003023
109 0.002999
105 0.003042
108 0.003983
117 0.003989
130 0.002992
138 0.00302
145 0.003023
150 0.004058
155 0.002984
158 0.004021
159 0.004984
162 0.00402
166 0.00402
170 0.004032
156 0.003989
108 0.004026
67 0.003031
67 0.00294
78 0.002998
91 0.004026
111 0.002984
119 0.005022
119 0.005048
111 0.004024
108 0.004015
112 0.004037
121 0.005019
130 0.004988
140 0.004032
146 0.004987
151 0.004033
155 0.004038
160 0.003006
161 0.004023
164 0.004987
169 0.004028
170 0.005027
149 0.005022
98 0.00502
62 0.004987
64 0.005019
81 0.004021
93 0.004022
102 0.003986
111 0.004039
108 0.003985
104 0.005019
102 0.006017
110 0.005018
119 0.005017
128 0.005018
136 0.006016
142 0.005984
149 0.005017
152 0.005026
155 0.005022
158 0.005988
161 0.006001
165 0.005999
165 0.005984
116 0.004987
70 0.004986
57 0.005033
63 0.006017
76 0.006018
91 0.005008
100 0.005021
105 0.005018
101 0.005026
96 0.005025
97 0.006029
103 0.006017
112 0.006028
121 0.006008
132 0.005019
136 0.006021
140 0.006016
145 0.004976
147 0.005017
148 0.005018
155 0.004992
159 0.005023
163 0.005984
153 0.007017
90 0.00598
58 0.006019
54 0.006017
65 0.006981
80 0.006017
91 0.006985
101 0.006016
107 0.006022
100 0.004988
97 0.005018
99 0.006982
104 0.0
144 0.000998
149 0.006028
151 0.006014
153 0.006018
157 0.006017
163 0.005019
164 0.006013
140 0.007012
92 0.006983
60 0.006014
63 0.005971
76 0.006015
90 0.006981
104 0.007979
116 0.006
116 0.007013
105 0.005996
105 0.007012
112 0.006028
122 0.006984
132 0.007011
143 0.006016
148 0.006018
153 0.007015
156 0.007947
159 0.007979
162 0.007013
165 0.007017
171 0.007022
174 0.007016
168 0.006987
124 0.007978
83 0.006981
71 0.005983
81 0.006946
94 0.006967
106 0.007979
120 0.007978
127 0.006984
121 0.006973
109 0.007015
113 0.006982
118 0.006982
128 0.007979
137 0.007978
149 0.007016
154 0.007012
157 0.006981
160 0.007979
163 0.007994
166 0.007973
167 0.006934
170 0.006981
142 0.00703
95 0.006986
69 0.007976
73 0.007984
89 0.007015
101 0.007079
113 0.006981
119 0.006981
118 0.006991
109 0.006982
107 0.007016
118 0.007085
126 0.006982
136 0.006982
146 0.007019
150 0.007012
155 0.006965
158 0.006971
160 0.00701
163 0.007978
165 0.00699
168 0.00796
175 0.006919
173 0.006985
112 0.007021
71 0.007016
62 0.007011
67 0.006981
78 0.007024
92 0.007022
100 0.007016
106 0.007016
108 0.00702
103 0.007014
102 0.007034
108 0.005984
122 0.005984
132 0.00599
137 0.00598
144 0.006981
149 0.006022
152 0.006986
154 0.006981
156 0.006981
160 0.007015
162 0.007012
169 0.005957
159 0.006025
94 0.005982
62 0.006036
57 0.006022
66 0.005976
76 0.005966
85 0.006016
92 0.006018
98 0.005986
98 0.005984
94 0.005986
95 0.005984
101 0.006018
114 0.006031
123 0.006015
131 0.006019
137 0.006016
142 0.005987
148 0.006012
151 0.006018
153 0.006016
156 0.005004
159 0.00503
165 0.005022
165 0.00502
111 0.005027
71 0.005986
60 0.005988
65 0.006031
76 0.005984
89 0.006026
97 0.005016
103 0.005021
103 0.005021
99 0.005058
98 0.005008
105 0.004961
116 0.005018
125 0.004987
134 0.005023
139 0.004954
143 0.004941
146 0.00502
150 0.005021
150 0.004982
153 0.004986
158 0.004987
163 0.005024
169 0.005023
145 0.005021
111 0.010973
82 0.0
100 0.004989
107 0.004024
106 0.004003
101 0.004024
98 0.00402
104 0.004019
113 0.005027
127 0.005022
134 0.004987
139 0.005017
143 0.004023
146 0.004028
150 0.004022
153 0.004022
155 0.004029
158 0.003991
163 0.004021
170 0.003991
162 0.00399
103 0.00403
71 0.004043
66 0.003991
75 0.004003
86 0.005021
100 0.00384
109 0.004024
112 0.004023
109 0.004023
104 0.004023
106 0.00399
115 0.003995
125 0.003989
135 0.004022
144 0.004016
149 0.002977
151 0.002992
156 0.003031
157 0.002995
160 0.003024
164 0.002959
168 0.004037
172 0.003999
144 0.004041
84 0.00399
72 0.00398
78 0.002993
88 0.002992
103 0.002993
120 0.003024
126 0.003025
124 0.003026
116 0.002993
112 0.002992
123 0.003991
133 0.002996
143 0.002992
153 0.002994
159 0.003035
162 0.003025
163 0.002993
167 0.002008
170 0.001965
174 0.002993
179 0.003011
175 0.001992
109 0.002992
81 0.002949
78 0.002992
93 0.002991
106 0.002992
115 0.001986
125 0.001995
128 0.002999
120 0.001995
116 0.002962
118 0.002025
126 0.002994
141 0.002992
148 0.002992
153 0.002992
163 0.001997
163 0.001995
164 0.001985
167 0.002025
170 0.001996
176 0.001991
170 0.002052
129 0.001988
87 0.002025
71 0.000998
82 0.001996
99 0.002002
107 0.000997
120 0.000999
121 0.000998
113 0.001995
108 0.001995
113 0.001996
118 0.001995
127 0.001996
139 0.001981
147 0.000996
155 0.002025
158 0.001996
161 0.000997
166 0.001017
167 0.000997
170 0.001996
169 0.000966
119 0.000998
78 0.000953
68 0.000998
73 0.000996
97 0.000998
107 0.000998
114 0.000993
115 0.001995
108 0.001995
103 0.001995
106 0.001
111 0.001043
124 0.000999
134 0.000997
142 0.000997
149 0.000999
154 0.000998
156 0.000997
159 0.000998
163 0.000997
168 0.000997
161 0.000998
119 0.000997
77 0.001003
64 0.000997
73 0.000998
87 0.000998
102 0.001001
119 0.000998
119 0.000998
111 0.000997
105 0.000998
109 0.000997
117 0.0
123 0.000998
132 0.0
141 0.0
149 0.0
154 0.0
156 0.0
162 0.0
168 0.000997
168 0.000992
66 0.0
73 0.0
87 0.0
102 0.0
122 0.0
130 0.0
128 0.0
116 0.0
116 0.0
125 0.0
136 0.0
149 0.000996
156 0.000998
161 0.0
163 0.0
166 0.0
171 0.0
174 0.001039
168 0.0
100 0.001044
75 0.0
80 0.0
92 0.0
107 0.000998
121 0.000997
131 0.0
129 0.0
121 0.0
116 0.000997
121 0.000998
134 0.0
146 0.0
155 0.0
162 0.0
166 0.0
171 0.001046
173 0.001026
179 0.0
173 0.0
131 0.0
85 0.000998
68 0.000998
70 0.001035
91 0.000998
104 0.000998
116 0.0
118 0.0
115 0.001031
110 0.000995
111 0.000998
121 0.0
132 0.0
142 0.0
151 0.001029
158 0.000996
164 0.000998
167 0.001005
172 0.000998
178 0.001041
174 0.000998
134 0.001995
86 0.001992
67 0.000957
73 0.000998
85 0.001061
95 0.001031
105 0.001024
114 0.000999
111 0.001995
107 0.001052
111 0.001001
118 0.000996
127 0.001995
139 0.001995
151 0.00103
159 0.001005
163 0.000999
168 0.001999
168 0.001987
173 0.001995
174 0.00203
129 0.002026
95 0.001995
68 0.001996
68 0.002027
82 0.001994
95 0.001997
105 0.001042
116 0.001042
114 0.001994
107 0.001998
108 0.001995
115 0.002028
129 0.002029
139 0.002027
146 0.002031
152 0.002992
158 0.002992
160 0.002022
165 0.001994
170 0.001994
174 0.002984
170 0.002987
99 0.00299
72 0.001995
72 0.002992
88 0.002031
100 0.00198
112 0.001978
122 0.003033
122 0.003026
115 0.001998
115 0.002034
119 0.001939
126 0.002991
145 0.001996
153 0.004033
159 0.004033
167 0.003025
168 0.003025
171 0.002025
176 0.002973
180 0.002992
176 0.001998
136 0.001982
90 0.001996
76 0.002991
91 0.001999
106 0.002992
119 0.003989
134 0.003026
132 0.002992
124 0.003022
118 0.00402
120 0.00399
130 0.002991
142 0.002992
152 0.002994
159 0.00399
169 0.004031
172 0.003989
176 0.004991
180 0.003035
182 0.004017
170 0.004022
109 0.003983
82 0.004025
84 0.002993
97 0.002993
114 0.002999
119 0.019946
135 0.0
134 0.004034
124 0.004987
126 0.004021
134 0.00402
144 0.004024
155 0.00502
162 0.004967
168 0.003986
174 0.002991
179 0.003994
184 0.004023
180 0.002999
140 0.004987
96 0.005025
82 0.004033
91 0.003966
107 0.00402
124 0.004987
137 0.005023
144 0.00402
136 0.003989
128 0.003023
127 0.002996
140 0.003022
149 0.003989
159 0.004971
167 0.004987
173 0.003972
177 0.003985
180 0.004019
184 0.005021
183 0.005029
133 0.003024
88 0.003963
76 0.005017
92 0.004989
108 0.005017
120 0.006017
130 0.005984
133 0.004991
126 0.004023
119 0.004025
122 0.005019
131 0.005019
143 0.003993
152 0.003989
159 0.004993
167 0.005038
171 0.004966
174 0.005973
179 0.005984
174 0.005021
130 0.005023
87 0.004028
74 0.005984
81 0.004986
94 0.005016
111 0.004024
121 0.00497
126 0.004988
121 0.004988
116 0.005984
119 0.005984
128 0.005028
137 0.006021
147 0.005968
155 0.005984
160 0.005984
165 0.005947
168 0.005988
173 0.004985
178 0.005986
160 0.006014
109 0.006024
77 0.005985
74 0.004955
86 0.004979
101 0.004997
112 0.00602
119 0.007032
120 0.006044
112 0.006008
108 0.005021
114 0.006027
124 0.006018
135 0.007015
145 0.006981
152 0.004985
156 0.005007
159 0.006018
160 0.006982
164 0.006017
170 0.005999
169 0.006018
142 0.005986
73 0.006029
68 0.005984
78 0.005985
94 0.006979
107 0.007037
120 0.00602
122 0.00602
114 0.005982
108 0.006984
106 0.007014
115 0.006981
125 0.007017
141 0.006983
150 0.006962
153 0.006019
156 0.006981
159 0.007039
162 0.005979
166 0.005999
169 0.005971
171 0.00798
127 0.007979
80 0.006023
67 0.006973
80 0.006984
95 0.00701
108 0.006979
119 0.007979
121 0.007979
111 0.007013
106 0.007019
108 0.007017
116 0.007979
130 0.007974
141 0.006988
147 0.006961
153 0.007979
156 0.007015
159 0.006977
163 0.007979
167 0.007983
171 0.007035
165 0.007018
126 0.007016
81 0.007982
69 0.006986
84 0.006977
99 0.006964
119 0.007018
122 0.006966
119 0.00698
111 0.007017
106 0.007019
110 0.006971
120 0.006965
130 0.007015
142 0.007978
149 0.006997
154 0.006979
156 0.007032
161 0.006946
165 0.007016
168 0.007121
171 0.007017
163 0.006983
98 0.007012
69 0.007014
66 0.007014
72 0.006964
90 0.006949
99 0.006988
111 0.005982
111 0.005992
102 0.006021
100 0.007012
106 0.007012
116 0.007014
126 0.007017
138 0.007015
144 0.007012
148 0.006989
151 0.006976
153 0.006982
158 0.005983
161 0.005982
168 0.006017
162 0.006015
118 0.006017
76 0.006017
64 0.006034
75 0.007015
84 0.006984
98 0.005978
107 0.006017
112 0.005951
107 0.006953
102 0.006952
105 0.007015
113 0.006017
123 0.005971
132 0.005983
139 0.006029
145 0.005709
148 0.005967
151 0.005989
153 0.005988
158 0.005979
163 0.005969
167 0.004984
125 0.006023
78 0.006051
61 0.006018
65 0.00602
78 0.006026
95 0.006019
103 0.006016
109 0.005984
107 0.004984
101 0.005979
98 0.004977
104 0.00498
120 0.005017
130 0.005113
138 0.004959
143 0.00502
147 0.005021
151 0.004986
153 0.00502
156 0.004982
161 0.005992
165 0.005987
160 0.004985
115 0.004964
61 0.005017
64 0.004988
77 0.005017
92 0.005023
105 0.005023
114 0.005015
113 0.004975
105 0.004987
100 0.004981
102 0.00504
111 0.003956
125 0.004015
138 0.004011
146 0.005017
151 0.005026
153 0.004985
155 0.005019
158 0.005023
165 0.005023
168 0.004985
159 0.004986
114 0.004989
74 0.003864
66 0.003972
82 0.004023
99 0.004022
109 0.003988
117 0.003986
115 0.004023
107 0.004032
102 0.004782
106 0.005003
115 0.004991
126 0.005003
137 0.004989
147 0.003974
153 0.004027
155 0.004025
158 0.003996
161 0.004032
166 0.003991
171 0.003991
162 0.00395
112 0.00396
71 0.003956
63 0.003963
71 0.003962
90 0.002998
103 0.003991
110 0.003026
108 0.004027
100 0.004046
97 0.00402
101 0.003991
112 0.003987
124 0.003967
135 0.003979
142 0.003955
147 0.003958
152 0.003995
154 0.002992
159 0.002957
163 0.00299
168 0.003024
172 0.003001
160 0.002992
90 0.003037
62 0.002993
62 0.00395
74 0.003958
88 0.003968
104 0.002949
113 0.002964
106 0.003031
100 0.002994
99 0.002993
106 0.002959
114 0.002992
125 0.002992
139 0.002993
145 0.002984
148 0.002991
152 0.002961
155 0.001995
161 0.003001
165 0.001995
172 0.002961
174 0.002992
143 0.002992
88 0.003031
60 0.002957
59 0.0
94 0.001996
107 0.001996
116 0.001993
111 0.001995
103 0.002027
102 0.002995
110 0.002028
121 0.001995
133 0.002026
143 0.001989
152 0.002003
156 0.00199
160 0.003007
163 0.001961
167 0.001993
174 0.001991
170 0.001995
111 0.001995
69 0.00101
60 0.000966
70 0.002042
87 0.001968
108 0.00201
121 0.001989
124 0.000997
117 0.000981
108 0.000992
108 0.000998
117 0.002006
134 0.001992
144 0.002027
153 0.001995
159 0.001995
164 0.001946
167 0.002011
170 0.000994
174 0.000991
175 0.001026
151 0.001001
70 0.000998
58 0.000998
70 0.000998
84 0.001066
97 0.001012
108 0.001007
111 0.000997
106 0.001023
101 0.000997
100 0.000985
107 0.001004
118 0.001002
136 0.001996
145 0.000997
151 0.000998
154 0.000997
159 0.000997
162 0.000991
166 0.001996
164 0.0
110 0.0
64 0.0
53 0.0
60 0.0
85 0.0
96 0.000969
104 0.000998
105 0.000998
96 0.000997
92 0.000963
95 0.001039
102 0.000993
119 0.0
130 0.0
138 0.0
143 0.0
148 0.0
153 0.0
157 0.0
161 0.0
138 0.0
84 0.0
53 0.0
51 0.000965
67 0.0
82 0.001005
94 0.0
104 0.0
96 0.0
90 0.0
89 0.0
99 0.0
110 0.0
122 0.0
130 0.0
139 0.0
142 0.000998
146 0.001004
150 0.0
155 0.000971
128 0.000992
79 0.0
52 0.0
51 0.000999
63 0.000998
81 0.0
94 0.0
104 0.0
102 0.001009
91 0.000994
84 0.0
89 0.0
109 0.0
120 0.0
130 0.0
135 0.000998
139 0.000999
143 0.0
148 0.00098
151 0.0
141 0.000992
89 0.001994
59 0.002
61 0.0
78 0.001038
96 0.0
108 0.0
114 0.0
106 0.001028
96 0.000998
98 0.0
108 0.0
119 0.000998
131 0.001952
139 0.001988
148 0.001015
152 0.001994
157 0.002048
162 0.001069
159 0.000968
125 0.001995
78 0.001983
59 0.000995
69 0.000999
84 0.001007
97 0.000983
110 0.00201
116 0.001016
108 0.001996
102 0.00101
106 0.001994
120 0.00103
131 0.001997
142 0.002008
153 0.001033
158 0.000978
161 0.001016
164 0.001996
169 0.00299
174 0.000992
159 0.001991
92 0.00101
71 0.000999
72 0.001004
81 0.001995
91 0.002992
104 0.000999
112 0.000998
114 0.001002
110 0.001988
106 0.002004
112 0.001006
128 0.001995
141 0.000965
149 0.002029
156 0.001962
160 0.003003
161 0.002988
164 0.002009
166 0.001957
167 0.001993
173 0.002999
178 0.00285
188 0.001027
146 0.003029
76 0.000996
62 0.001002
66 0.00199
76 0.003022
83 0.003032
87 0.00299
97 0.001991
101 0.002006
99 0.000983
97 0.002994
102 0.002988
117 0.002992
129 0.00399
140 0.001995
147 0.002997
151 0.001996
153 0.003986
157 0.004022
162 0.00199
167 0.001952
172 0.001984
178 0.002989
186 0.002992
179 0.00299
122 0.002984
70 0.002003
66 0.002997
76 0.002988
87 0.004022
93 0.00399
106 0.003021
113 0.002982
111 0.001979
107 0.004952
109 0.005005
124 0.005027
133 0.003993
147 0.002025
156 0.002881
160 0.003001
163 0.003953
167 0.00402
171 0.002985
173 0.001962
179 0.001995
187 0.004025
194 0.004033
205 0.004023
186 0.00402
105 0.003031
78 0.002011
77 0.001994
88 0.003997
103 0.004988
118 0.00298
128 0.002987
132 0.00299
128 0.00401
122 0.004023
128 0.00403
138 0.003954
153 0.003026
164 0.003025
170 0.003997
176 0.004035
182 0.005027
184 0.003023
186 0.002972
189 0.002998
193 0.004987
200 0.004997
207 0.004987
182 0.004986
101 0.003996
78 0.002983
82 0.003982
97 0.003989
112 0.005049
125 0.004962
139 0.004001
137 0.003988
129 0.003993
123 0.004991
130 0.004011
141 0.005018
152 0.005985
166 0.004023
173 0.004989
179 0.00403
184 0.006024
186 0.006031
190 0.004014
192 0.003952
197 0.004944
203 0.005942
143 0.003982
89 0.006017
71 0.005019
83 0.003981
101 0.004958
119 0.004955
135 0.005985
144 0.006024
137 0.004959
125 0.00499
121 0.004021
127 0.006016
146 0.004985
158 0.005984
167 0.006017
178 0.002972
183 0.004986
188 0.00495
194 0.006019
198 0.005968
184 0.004984
150 0.005984
111 0.0
71 0.004979
91 0.005039
110 0.00602
129 0.005984
145 0.004971
142 0.004993
129 0.004997
120 0.007013
122 0.007103
135 0.004954
147 0.004931
158 0.004985
167 0.005821
178 0.005948
183 0.006017
188 0.005984
175 0.004985
120 0.005985
73 0.005012
61 0.007011
69 0.007005
91 0.004991
107 0.006033
121 0.004989
129 0.007005
113 0.005015
105 0.007013
110 0.007946
120 0.007945
131 0.005979
141 0.005983
148 0.005973
154 0.007018
159 0.00702
166 0.005986
164 0.00595
128 0.005981
58 0.005969
54 0.005956
63 0.006981
78 0.006981
95 0.006982
105 0.006959
105 0.006029
96 0.00702
89 0.00704
92 0.005973
101 0.005974
112 0.007015
129 0.007016
135 0.007015
141 0.007978
147 0.007996
152 0.007023
149 0.00596
114 0.00598
57 0.007975
47 0.008016
54 0.006996
67 0.006981
80 0.006014
96 0.00699
96 0.006982
88 0.007979
83 0.007959
87 0.006963
97 0.00698
108 0.007012
119 0.007974
129 0.00797
132 0.006055
136 0.007013
139 0.007014
147 0.006988
139 0.006982
94 0.007018
57 0.006948
48 0.006985
59 0.006978
69 0.006965
80 0.007977
94 0.007012
97 0.006981
89 0.00697
85 0.00696
93 0.007024
99 0.006978
114 0.007016
124 0.006985
132 0.006973
135 0.006977
138 0.007019
141 0.006982
145 0.006975
151 0.005985
156 0.005982
146 0.005986
68 0.006983
53 0.007018
58 0.006977
70 0.006977
82 0.006974
95 0.006969
99 0.006979
95 0.006975
89 0.006982
89 0.005991
98 0.005982
108 0.005981
124 0.006008
131 0.006015
134 0.005981
138 0.005987
141 0.006014
143 0.006975
148 0.00699
154 0.005978
161 0.00598
166 0.006003
132 0.005971
80 0.005982
59 0.00599
69 0.006017
81 0.005986
90 0.005982
99 0.005984
101 0.005949
95 0.005994
92 0.005977
94 0.00598
102 0.006039
116 0.006942
127 0.004972
139 0.005013
143 0.005026
147 0.004987
150 0.004995
152 0.005952
157 0.006005
163 0.005995
171 0.005977
175 0.005985
160 0.005905
89 0.005985
66 0.005
75 0.005018
90 0.005026
102 0.004982
113 0.004991
117 0.004939
111 0.004996
104 0.004996
105 0.004045
113 0.005984
124 0.005984
139 0.004982
149 0.005
159 0.004978
163 0.00503
165 0.004986
169 0.004984
172 0.004982
177 0.005004
186 0.004987
191 0.004988
179 0.00403
124 0.004025
80 0.003973
73 0.003985
90 0.004021
106 0.004021
116 0.005032
122 0.005
120 0.004988
114 0.00502
111 0.004989
116 0.003989
128 0.003992
139 0.004003
150 0.004008
161 0.004011
168 0.00396
172 0.004036
174 0.003991
178 0.003943
182 0.003991
187 0.003992
195 0.003991
187 0.00296
131 0.00296
83 0.003989
71 0.003956
84 0.004002
103 0.003992
117 0.004023
124 0.00399
124 0.003988
118 0.003957
113 0.00396
118 0.003947
129 0.004012
141 0.003977
152 0.003959
162 0.003965
171 0.003958
177 0.003992
180 0.003991
183 0.002993
188 0.002952
193 0.002986
197 0.002971
183 0.002989
123 0.002996
77 0.002993
69 0.002993
80 0.002988
100 0.003958
117 0.003997
127 0.003992
126 0.002951
116 0.002959
112 0.003016
116 0.002968
131 0.00296
144 0.00299
155 0.002988
164 0.00301
171 0.002962
177 0.00295
182 0.003008
184 0.002995
189 0.002995
195 0.002987
198 0.001992
162 0.001996
97 0.001994
64 0.002953
70 0.002968
86 0.002999
104 0.002939
118 0.002943
130 0.003047
123 0.002986
109 0.002992
110 0.002994
121 0.002989
136 0.001988
149 0.001998
163 0.001964
170 0.001989
175 0.002
177 0.001997
181 0.001996
188 0.002017
192 0.00196
165 0.002006
102 0.001986
65 0.00199
62 0.001988
74 0.001996
98 0.001952
115 0.001992
127 0.001953
129 0.002015
120 0.001996
108 0.002028
113 0.001996
131 0.001961
144 0.001994
154 0.00199
163 0.001976
168 0.001992
174 0.002
176 0.001995
178 0.002034
184 0.000999
186 0.000995
109 0.000996
63 0.000991
54 0.000995
67 0.001006
81 0.002002
95 0.001956
109 0.001965
111 0.001978
102 0.002004
94 0.001957
94 0.000966
102 0.000982
124 0.000997
135 0.000999
147 0.001016
151 0.001002
154 0.001969
158 0.000986
161 0.001973
166 0.000966
148 0.00201
90 0.002
50 0.0
43 0.000998
65 0.000997
79 0.000997
95 0.00099
101 0.000967
95 0.001001
87 0.000995
84 0.001008
87 0.001001
102 0.000996
115 0.000994
127 0.001024
136 0.001
144 0.001002
148 0.0
153 0.0
158 0.0
146 0.0
95 0.0
54 0.0
44 0.0
59 0.001008
74 0.001002
89 0.000953
102 0.001029
102 0.0
91 0.0
87 0.0
94 0.0
106 0.0
119 0.000994
131 0.0
139 0.000999
148 0.0
153 0.0
156 0.0
160 0.0
134 0.0
78 0.0
48 0.0
51 0.0
66 0.0
83 0.000991
105 0.0
111 0.000992
108 0.0
96 0.0
92 0.0
104 0.0
124 0.0
135 0.0
144 0.0
150 0.000956
156 0.001003
163 0.001004
164 0.0
148 0.001957
78 0.000955
53 0.001018
57 0.0
67 0.000986
98 0.0
112 0.0
116 0.0
108 0.002
101 0.002001
104 0.0
113 0.0
126 0.0
138 0.000992
148 0.000997
158 0.0
163 0.0
168 0.001009
175 0.0
172 0.000991
124 0.000988
68 0.001004
51 0.001023
59 0.000984
72 0.0
85 0.0
95 0.002001
101 0.00098
97 0.0
89 0.001013
96 0.0
105 0.000965
118 0.0
131 0.001997
141 0.001963
148 0.0
151 0.001994
155 0.001038
161 0.001995
166 0.002025
148 0.000998
75 0.001994
51 0.00099
58 0.000998
73 0.000994
84 0.002034
96 0.003007
103 0.001955
99 0.001002
93 0.000995
93 0.001983
99 0.001981
114 0.002035
130 0.001992
142 0.00199
148 0.002031
153 0.001004
157 0.002028
161 0.001986
169 0.000991
173 0.001954
149 0.000982
89 0.00299
57 0.002992
57 0.000997
76 0.001989
93 0.001953
106 0.000999
111 0.001008
105 0.001998
97 0.001995
99 0.002001
108 0.001983
121 0.001993
135 0.002962
147 0.00301
157 0.002026
163 0.00396
168 0.001013
175 0.000981
180 0.001998
175 0.004024
130 0.002992
66 0.002005
57 0.001992
69 0.000997
85 0.002993
104 0.003038
121 0.002984
129 0.002992
118 0.00298
112 0.001991
117 0.001997
128 0.002033
144 0.002995
158 0.002993
170 0.001993
176 0.002989
182 0.002977
187 0.003998
192 0.00399
148 0.003983
92 0.004022
69 0.002019
78 0.001949
97 0.001973
116 0.002993
134 0.003991
145 0.002979
136 0.003015
122 0.002996
120 0.003997
128 0.004021
145 0.008946
163 0.003992
176 0.003012
183 0.002988
188 0.002999
194 0.003985
199 0.004986
187 0.002961
126 0.002975
75 0.002995
63 0.003985
71 0.004041
98 0.003001
113 0.004036
126 0.002994
126 0.001995
119 0.002004
113 0.003946
117 0.005035
133 0.002989
146 0.001988
158 0.002995
168 0.004963
176 0.004987
185 0.005021
190 0.004988
197 0.002978
194 0.002954
143 0.002988
81 0.004021
60 0.004028
68 0.00299
82 0.002027
96 0.003025
109 0.005024
120 0.005021
116 0.004984
110 0.004993
113 0.004022
124 0.003026
136 0.002989
149 0.004988
161 0.005986
171 0.002978
177 0.002991
180 0.003996
186 0.003995
192 0.006016
182 0.003954
122 0.006016
71 0.006013
61 0.003
73 0.003952
90 0.003998
104 0.005018
117 0.004985
125 0.003046
119 0.003025
113 0.004992
114 0.005984
129 0.003979
143 0.005019
155 0.006022
170 0.003058
178 0.003034
182 0.004012
187 0.004999
190 0.005986
198 0.00398
202 0.004023
176 0.004
107 0.005987
62 0.003974
72 0.006018
90 0.006016
112 0.00304
128 0.003993
134 0.00399
128 0.004999
118 0.005982
116 0.004989
125 0.004029
137 0.004991
152 0.005979
171 0.003989
179 0.00602
183 0.006019
188 0.004035
194 0.004953
198 0.004985
202 0.007023
197 0.007027
119 0.004995
69 0.004986
61 0.004986
74 0.007014
111 0.004956
131 0.007018
144 0.007012
142 0.004982
128 0.004989
120 0.003964
125 0.006986
136 0.007018
152 0.005982
167 0.005029
178 0.005034
187 0.006981
197 0.004983
201 0.007016
206 0.007025
212 0.005985
187 0.004988
116 0.006009
70 0.008033
68 0.007979
79 0.007938
109 0.005984
132 0.005981
152 0.005954
148 0.005994
132 0.004978
124 0.00797
133 0.007974
146 0.005985
159 0.005957
172 0.005993
182 0.008022
190 0.007028
200 0.005996
206 0.005972
211 0.005992
174 0.005955
101 0.005984
64 0.007945
64 0.007976
86 0.005984
108 0.006981
131 0.005986
149 0.007976
144 0.007975
127 0.005995
118 0.005984
122 0.005986
141 0.006944
156 0.00599
170 0.007981
179 0.006991
187 0.006984
193 0.006975
198 0.006978
199 0.007955
174 0.007948
80 0.006984
50 0.006986
53 0.006975
81 0.006962
102 0.006985
124 0.007989
127 0.007979
116 0.005981
102 0.006969
104 0.007006
114 0.006983
127 0.006982
140 0.006982
154 0.006981
160 0.006965
169 0.009023
177 0.004987
182 0.006961
160 0.00798
94 0.006978
50 0.006964
44 0.006987
61 0.006981
80 0.006982
105 0.006982
115 0.00698
113 0.006979
98 0.006978
94 0.006947
102 0.006982
114 0.006983
132 0.006977
139 0.006979
150 0.005965
156 0.006127
161 0.005985
167 0.00598
169 0.006981
137 0.006985
48 0.006977
39 0.006956
51 0.006951
68 0.006981
85 0.006981
106 0.006018
108 0.005983
97 0.005982
88 0.005987
87 0.00602
98 0.005982
112 0.006014
131 0.005976
140 0.006995
146 0.007006
152 0.006985
158 0.005978
164 0.005985
159 0.005985
111 0.005987
55 0.005988
36 0.00602
48 0.006016
67 0.005983
96 0.005981
106 0.005984
101 0.005985
90 0.00499
83 0.004971
90 0.005987
102 0.005979
116 0.006
128 0.005991
137 0.006019
145 0.006016
151 0.006016
160 0.005991
163 0.005994
145 0.004971
86 0.004981
46 0.004982
41 0.005005
56 0.004987
75 0.004985
91 0.004986
104 0.004979
103 0.00502
92 0.005022
87 0.004994
96 0.004994
110 0.004987
123 0.005002
136 0.004989
145 0.00499
151 0.004987
154 0.004986
159 0.004987
165 0.004026
167 0.00397
130 0.003988
54 0.003978
39 0.00499
51 0.005029
68 0.004992
84 0.005017
97 0.003991
100 0.004986
92 0.004992
84 0.004983
84 0.005019
95 0.005037
113 0.004015
131 0.00395
145 0.003956
151 0.003987
155 0.003979
157 0.003989
161 0.003929
169 0.003952
175 0.00396
169 0.003986
114 0.004021
56 0.005042
38 0.005019
56 0.003976
80 0.003997
93 0.003992
104 0.003979
101 0.003999
93 0.003992
88 0.003954
94 0.003956
107 0.003999
122 0.003992
136 0.003991
151 0.00399
158 0.002951
165 0.00296
167 0.003019
172 0.004011
179 0.004007
187 0.003958
175 0.003941
106 0.003959
53 0.00399
42 0.00399
53 0.004024
79 0.003023
103 0.002955
117 0.002958
113 0.002958
101 0.00296
97 0.002955
104 0.002985
122 0.003958
139 0.003024
152 0.002991
161 0.003023
168 0.00399
175 0.003957
179 0.00296
185 0.002954
192 0.002995
198 0.002991
174 0.002994
103 0.003953
47 0.003988
49 0.002992
66 0.002992
86 0.002993
103 0.001995
122 0.003007
119 0.002963
106 0.002991
104 0.002973
112 0.002996
127 0.002998
142 0.002983
155 0.002987
169 0.00299
176 0.002026
182 0.002027
186 0.002026
189 0.002026
198 0.001994
205 0.001989
186 0.001993
104 0.001996
50 0.001963
37 0.001997
51 0.002995
79 0.003006
97 0.00199
112 0.001995
119 0.001994
110 0.002029
98 0.001994
103 0.001965
120 0.001993
139 0.002011
154 0.001996
166 0.002009
176 0.001992
185 0.001997
191 0.000997
195 0.000999
199 0.000998
206 0.000997
216 0.002012
183 0.001994
71 0.00199
39 0.001998
42 0.00199
62 0.002022
85 0.002002
112 0.001997
126 0.00103
124 0.000998
112 0.000999
102 0.000998
113 0.001017
129 0.001004
150 0.000966
166 0.000998
178 0.000995
188 0.000996
194 0.0
200 0.001997
203 0.002029
209 0.001
217 0.001001
219 0.000999
107 0.001015
50 0.000997
40 0.00101
58 0.00102
83 0.000998
107 0.001006
126 0.001001
134 0.001003
118 0.000997
104 0.000997
104 0.0
115 0.0
145 0.0
161 0.0
173 0.0
186 0.001015
191 0.001015
195 0.000996
200 0.00098
205 0.000998
207 0.000997
164 0.0
81 0.0
36 0.0
41 0.0
63 0.0
87 0.0
114 0.0
121 0.0
112 0.000975
98 0.0
93 0.0
104 0.0
119 0.00104
134 0.0
150 0.0
169 0.0
177 0.0
181 0.0
186 0.000989
192 0.0
197 0.000998
138 0.0
82 0.0
27 0.000998
29 0.002045
54 0.0
76 0.0
104 0.0
108 0.0
98 0.0
87 0.000998
86 0.001002
98 0.0
109 0.00099
125 0.000999
145 0.00103
155 0.001992
163 0.0
166 0.0
172 0.0
178 0.0
180 0.0
145 0.001994
70 0.001995
21 0.0
25 0.0
44 0.0
65 0.001032
83 0.002027
99 0.0
96 0.0
78 0.0
77 0.0
88 0.000963
104 0.000997
120 0.001028
135 0.000997
150 0.0
156 0.000957
160 0.0
165 0.000998
171 0.002047
180 0.0
150 0.002033
57 0.0
27 0.0
29 0.0
49 0.002003
72 0.001997
98 0.0
111 0.0
107 0.0
94 0.002035
86 0.002063
94 0.0
116 0.001963
138 0.002038
152 0.0
162 0.0
168 0.001989
174 0.001934
181 0.002988
185 0.000998
173 0.000978
106 0.002993
50 0.003025
34 0.001982
57 0.003034
89 0.002027
110 0.001996
122 0.001996
115 0.001961
98 0.001952
92 0.001997
101 0.001991
117 0.002003
133 0.001991
147 0.001996
159 0.000997
168 0.002006
177 0.00099
180 0.000994
151 0.000999
83 0.002983
40 0.00299
35 0.001993
52 0.000979
72 0.001993
92 0.002993
107 0.003022
106 0.001995
89 0.002989
89 0.00198
100 0.002049
115 0.001998
130 0.002995
142 0.002994
153 0.001997
161 0.001991
166 0.001995
171 0.002992
162 0.003029
80 0.00098
28 0.002935
30 0.001961
45 0.001004
61 0.001949
76 0.001
87 0.003991
87 0.003989
77 0.00198
75 0.001998
82 0.002008
94 0.003033
111 0.002992
132 0.003022
139 0.003994
145 0.000997
151 0.001956
157 0.002988
157 0.004043
118 0.003996
46 0.001988
27 0.001972
34 0.001943
51 0.004032
63 0.004024
83 0.003988
86 0.004031
80 0.002992
78 0.002113
83 0.002992
94 0.003992
109 0.003985
127 0.002937
136 0.002954
142 0.002992
146 0.00401
151 0.003985
162 0.003981
166 0.003993
130 0.002009
67 0.003001
38 0.002001
38 0.005019
53 0.004023
73 0.002012
86 0.002993
96 0.002995
97 0.005023
91 0.004986
90 0.003988
102 0.004021
120 0.002987
133 0.002016
145 0.002008
153 0.003998
157 0.003989
162 0.002988
165 0.003026
169 0.002987
177 0.004985
184 0.005019
133 0.005019
71 0.005018
46 0.002014
56 0.003009
73 0.001972
88 0.005985
104 0.00499
113 0.00399
105 0.003962
97 0.003956
98 0.005954
108 0.005029
131 0.005025
145 0.005017
158 0.002977
163 0.002949
167 0.003029
170 0.00399
172 0.005043
177 0.00502
188 0.002994
194 0.002999
178 0.003984
114 0.00601
56 0.003008
61 0.004986
78 0.006018
103 0.003994
120 0.003994
128 0.002983
123 0.004977
113 0.004987
109 0.003979
119 0.003045
134 0.004031
149 0.006024
168 0.002992
174 0.006016
179 0.005977
182 0.003999
185 0.003994
189 0.002986
195 0.005982
202 0.005984
189 0.003993
121 0.004987
69 0.004985
56 0.005981
76 0.004012
92 0.005987
108 0.002043
123 0.003997
122 0.003038
113 0.003987
109 0.005984
113 0.006985
130 0.004956
144 0.003982
158 0.005011
169 0.006983
180 0.004022
185 0.007019
189 0.007014
194 0.003994
201 0.004038
208 0.004007
197 0.005972
131 0.005966
67 0.004026
61 0.004994
72 0.004995
90 0.006981
112 0.004972
123 0.007016
126 0.006978
117 0.005003
114 0.004987
119 0.004983
129 0.006977
143 0.007979
161 0.006
170 0.00597
177 0.005985
182 0.00697
188 0.005991
194 0.004999
199 0.007009
203 0.006976
172 0.004994
100 0.005938
63 0.004999
63 0.007971
80 0.007977
97 0.005992
111 0.005999
124 0.005969
122 0.005981
114 0.005987
113 0.007977
118 0.007977
135 0.005985
148 0.005021
160 0.005984
169 0.007012
175 0.007947
183 0.006017
187 0.005018
192 0.00493
201 0.005982
195 0.005972
115 0.007979
68 0.007978
60 0.00602
72 0.005986
90 0.006012
109 0.007978
132 0.007985
136 0.005985
128 0.005041
117 0.00598
119 0.005027
131 0.005992
150 0.00698
162 0.00695
174 0.006952
178 0.006981
184 0.006981
188 0.007978
193 0.007978
201 0.006982
194 0.005984
139 0.005984
64 0.005985
71 0.00698
89 0.006966
110 0.006991
139 0.006976
148 0.006979
144 0.006979
124 0.007012
117 0.007014
122 0.006982
140 0.006977
155 0.00599
170 0.00702
180 0.006984
186 0.006982
192 0.006981
200 0.006984
191 0.006984
134 0.006975
78 0.007022
64 0.007009
79 0.00698
100 0.006977
120 0.006982
149 0.005967
144 0.005986
131 0.005983
120 0.005986
122 0.006968
137 0.006982
151 0.006983
163 0.006966
174 0.007014
180 0.006987
189 0.006952
195 0.005978
192 0.005983
135 0.005949
74 0.005995
58 0.005984
64 0.006021
86 0.005981
103 0.005968
118 0.005983
126 0.007039
121 0.007046
108 0.006016
105 0.006017
119 0.006007
133 0.005983
148 0.006001
156 0.005985
164 0.005985
174 0.006015
180 0.005984
177 0.005985
134 0.005997
74 0.005983
53 0.005018
64 0.00502
94 0.005985
110 0.006011
123 0.005986
123 0.005992
113 0.006022
103 0.00602
105 0.005989
115 0.005995
129 0.00502
138 0.022953
150 0.0
161 0.004984
173 0.00504
174 0.004974
152 0.004983
87 0.004986
51 0.005023
52 0.005038
69 0.006017
87 0.005031
104 0.006026
115 0.005027
111 0.005025
100 0.005028
94 0.004956
102 0.004986
115 0.004983
128 0.004968
139 0.004988
149 0.005022
156 0.005018
163 0.005018
163 0.005986
133 0.004988
61 0.004024
45 0.005032
63 0.005018
80 0.005001
99 0.00498
114 0.004953
112 0.005018
100 0.005022
90 0.005018
93 0.004029
104 0.00402
116 0.004073
127 0.003968
139 0.004034
149 0.003993
158 0.003986
150 0.00398
99 0.003991
54 0.004026
44 0.004022
58 0.004025
74 0.004023
92 0.003992
110 0.004025
113 0.004025
94 0.00399
86 0.003991
96 0.00395
109 0.003967
122 0.003979
132 0.00303
142 0.004067
154 0.003028
158 0.004026
138 0.002993
82 0.00399
52 0.004038
54 0.003991
73 0.003948
97 0.003991
113 0.003976
115 0.00396
105 0.003992
95 0.004025
98 0.003029
108 0.002992
119 0.003026
130 0.002991
141 0.003028
150 0.003035
158 0.002988
149 0.002993
93 0.003959
57 0.003958
51 0.003989
61 0.002993
79 0.004027
90 0.00399
103 0.003002
107 0.003033
101 0.002992
95 0.002993
103 0.002989
117 0.003029
127 0.002993
138 0.002992
146 0.003028
152 0.003023
159 0.003023
166 0.002036
165 0.001995
126 0.002035
79 0.001996
61 0.002011
73 0.001969
85 0.001969
96 0.002967
105 0.002992
107 0.003024
102 0.001996
100 0.002992
106 0.00203
113 0.001995
124 0.002012
136 0.002028
145 0.001995
152 0.001995
154 0.001999
161 0.002005
167 0.001998
173 0.001995
176 0.001995
141 0.001993
80 0.000988
70 0.002001
77 0.002033
91 0.002025
100 0.002008
113 0.001979
115 0.001954
110 0.00198
108 0.001995
113 0.001992
120 0.001995
130 0.002032
144 0.000999
152 0.000998
157 0.000997
163 0.000998
163 0.000997
172 0.001964
177 0.001996
185 0.001992
193 0.002038
178 0.002016
120 0.000999
85 0.000998
80 0.001036
93 0.000998
108 0.000998
116 0.000997
128 0.000997
126 0.000996
119 0.002007
120 0.001993
126 0.002031
137 0.002031
149 0.001032
160 0.001013
170 0.000997
176 0.000998
180 0.000998
181 0.000997
185 0.002028
195 0.000991
203 0.001004
194 0.0
136 0.000997
92 0.000997
84 0.000995
94 0.000995
110 0.001003
132 0.000997
136 0.014927
149 0.0
140 0.000997
131 0.0
138 0.0
149 0.0
168 0.0
179 0.0
186 0.0
191 0.0
195 0.0
198 0.0
202 0.0
208 0.0
212 0.0
159 0.000999
105 0.0
91 0.0
105 0.0
121 0.0
136 0.0
151 0.0
158 0.0
149 0.0
140 0.0
140 0.00099
150 0.0
169 0.001012
183 0.00099
189 0.0
198 0.002999
202 0.002992
209 0.0
212 0.001009
218 0.00095
220 0.00204
184 0.001063
99 0.0
82 0.000958
102 0.0
121 0.0
136 0.0
149 0.001995
152 0.002036
142 0.0
135 0.0
136 0.0
144 0.002041
159 0.000946
176 0.000998
186 0.000994
197 0.0
202 0.000954
207 0.00094
213 0.001032
214 0.001022
164 0.000963
97 0.000998
73 0.0
78 0.001995
94 0.002047
122 0.0
141 0.0
152 0.002019
141 0.000998
130 0.0
129 0.0
136 0.001996
150 0.001995
169 0.0
179 0.000999
188 0.000961
193 0.001032
198 0.002004
205 0.000997
201 0.001986
119 0.000999
72 0.0
64 0.0
78 0.002003
99 0.001994
130 0.0
149 0.0
153 0.0
143 0.001994
129 0.002035
124 0.001995
139 0.001996
157 0.0
169 0.001993
179 0.001013
187 0.002993
195 0.002992
204 0.001995
191 0.001993
128 0.001028
73 0.001997
60 0.002038
77 0.001002
110 0.002
142 0.000999
155 0.001993
148 0.002001
132 0.00203
123 0.003039
128 0.001997
140 0.001978
154 0.001991
166 0.003023
176 0.002993
188 0.002009
195 0.004033
135 0.003029
73 0.00199
55 0.001993
63 0.004023
82 0.00411
112 0.001979
134 0.001996
143 0.002047
135 0.003029
119 0.003026
114 0.001023
125 0.002987
142 0.000988
155 0.001969
164 0.001995
174 0.002993
183 0.002992
182 0.001995
128 0.002011
63 0.002006
43 0.003989
48 0.004028
66 0.003989
96 0.003053
110 0.004033
113 0.001028
102 0.000995
93 0.000995
95 0.004023
105 0.003989
123 0.000996
136 0.001995
145 0.001975
153 0.00399
160 0.003989
164 0.004023
125 0.00402
47 0.001992
35 0.002
45 0.002974
64 0.004022
81 0.00399
102 0.002961
106 0.002028
96 0.002009
87 0.003986
85 0.003989
99 0.004022
113 0.00399
128 0.002038
137 0.001978
146 0.001998
152 0.003989
158 0.003989
125 0.002977
61 0.00298
40 0.004986
33 0.0
52 0.005021
83 0.004997
98 0.003978
102 0.001996
91 0.001966
82 0.003027
81 0.005042
91 0.004986
107 0.002993
121 0.002989
131 0.002976
138 0.004987
143 0.00502
155 0.005019
152 0.005026
83 0.002991
37 0.003977
29 0.002021
40 0.005024
59 0.004997
82 0.002984
97 0.002992
99 0.003027
89 0.004995
79 0.005016
83 0.005036
97 0.005085
115 0.003013
124 0.003006
133 0.002988
140 0.00499
147 0.00502
152 0.006016
129 0.003985
67 0.003985
35 0.003992
34 0.006018
60 0.003023
81 0.005984
101 0.00598
106 0.003989
95 0.003998
83 0.003031
83 0.004978
93 0.005997
111 0.00402
122 0.003991
133 0.003987
141 0.005982
153 0.00301
159 0.005988
138 0.005986
59 0.003983
38 0.003946
41 0.003988
56 0.006978
73 0.006926
94 0.004983
104 0.004991
99 0.003941
88 0.006015
87 0.002992
97 0.005984
111 0.005984
127 0.003997
137 0.003982
144 0.003986
150 0.005984
156 0.007012
163 0.004998
149 0.004931
84 0.003984
43 0.006985
38 0.003957
51 0.006976
63 0.006981
79 0.004989
86 0.00499
86 0.003972
81 0.00598
80 0.006983
88 0.004997
101 0.004987
115 0.004977
127 0.006982
141 0.004991
147 0.007014
152 0.006982
159 0.004995
166 0.004965
171 0.004956
137 0.006981
70 0.007018
39 0.005985
43 0.006001
56 0.005985
70 0.007966
84 0.005986
90 0.005019
88 0.007013
84 0.007029
86 0.004997
97 0.005002
110 0.004992
123 0.006982
134 0.007026
146 0.005973
150 0.005994
155 0.005035
163 0.005994
170 0.005994
178 0.007979
179 0.007979
109 0.005974
58 0.005982
45 0.006948
58 0.007012
73 0.00798
84 0.005981
95 0.005988
100 0.005955
91 0.005993
89 0.005989
96 0.007979
107 0.00797
124 0.005978
137 0.00599
146 0.00598
156 0.007981
160 0.006981
165 0.006948
169 0.006016
176 0.006017
188 0.006022
190 0.005943
116 0.006981
60 0.007977
48 0.005986
57 0.005968
75 0.006019
99 0.007976
114 0.007035
120 0.00697
111 0.006981
101 0.00693
105 0.006966
123 0.006979
138 0.007037
151 0.007026
165 0.006974
168 0.017985
176 0.002948
181 0.007068
185 0.006989
193 0.006948
198 0.006982
204 0.005982
118 0.005988
69 0.005984
59 0.006036
70 0.007034
98 0.006979
113 0.00696
133 0.006945
143 0.006982
135 0.005983
121 0.006981
117 0.006981
129 0.006019
155 0.005981
168 0.005978
179 0.005982
186 0.006015
192 0.006015
200 0.005979
205 0.005969
211 0.00598
214 0.006014
185 0.006016
90 0.006987
64 0.006023
78 0.006012
99 0.006991
120 0.006993
140 0.006979
150 0.006982
138 0.005979
124 0.005984
124 0.005986
132 0.005029
144 0.005985
165 0.005994
178 0.00598
192 0.005981
199 0.005979
205 0.005978
212 0.006015
216 0.006014
190 0.005985
112 0.005979
63 0.005006
55 0.005022
67 0.005019
92 0.005018
112 0.005021
134 0.006064
131 0.004991
120 0.005016
113 0.005018
116 0.005022
133 0.00498
149 0.005021
162 0.005988
172 0.00604
181 0.005989
191 0.004982
197 0.005019
202 0.005013
160 0.005034
83 0.004987
49 0.005001
48 0.005025
69 0.00502
87 0.005018
105 0.004989
120 0.004024
122 0.005018
108 0.004021
100 0.00498
111 0.005056
125 0.005018
140 0.005017
153 0.00504
162 0.005019
174 0.005023
180 0.005006
188 0.004989
189 0.004973
151 0.004023
76 0.003991
41 0.004007
53 0.004037
80 0.004034
100 0.00402
116 0.005031
120 0.004992
111 0.005019
96 0.00502
98 0.003991
108 0.003945
122 0.003992
136 0.004023
152 0.004022
164 0.003989
174 0.004028
181 0.003992
186 0.004022
172 0.004021
103 0.004028
43 0.003954
42 0.003981
57 0.003006
78 0.00403
98 0.004019
119 0.003988
116 0.004019
97 0.004021
94 0.004036
101 0.002991
115 0.004023
129 0.003991
147 0.002992
155 0.003025
162 0.003025
169 0.002992
176 0.003027
183 0.002992
149 0.002996
60 0.002993
39 0.00303
46 0.003034
66 0.002994
88 0.002993
116 0.004036
124 0.003021
117 0.00299
103 0.002993
96 0.002993
103 0.00305
121 0.003027
141 0.002991
152 0.002987
161 0.003024
169 0.002992
174 0.003958
182 0.003985
184 0.002992
152 0.003083
77 0.003944
40 0.002988
44 0.002993
64 0.017986
95 0.001991
121 0.002992
126 0.001996
113 0.003033
95 0.002992
93 0.002992
105 0.002985
120 0.002987
136 0.003024
148 0.00203
158 0.002993
171 0.001996
179 0.002026
189 0.002027
164 0.000994
92 0.001995
48 0.001988
42 0.001946
64 0.003027
89 0.002025
114 0.003029
135 0.001995
138 0.001993
107 0.001995
98 0.002004
109 0.001995
125 0.002028
141 0.001996
155 0.002027
167 0.001995
178 0.002061
187 0.002042
193 0.002009
160 0.001965
85 0.001991
41 0.001986
54 0.001998
83 0.001996
108 0.002
134 0.000998
141 0.001031
127 0.000999
108 0.000985
108 0.000997
117 0.000998
131 0.000997
146 0.00199
166 0.000998
173 0.001995
184 0.001995
184 0.002024
132 0.002027
59 0.000997
35 0.000998
42 0.000999
61 0.000997
82 0.000997
103 0.000997
115 0.000998
101 0.00217
90 0.0
95 0.002051
108 0.002045
122 0.0
136 0.001038
148 0.002029
160 0.002009
167 0.000996
175 0.0
181 0.0
156 0.0
39 0.0
23 0.000998
36 0.001033
52 0.001022
66 0.000997
81 0.000998
90 0.000998
86 0.001004
76 0.000998
77 0.0
85 0.0
98 0.0
123 0.0
136 0.0
146 0.0
155 0.0
162 0.0
168 0.0
147 0.0
77 0.0
30 0.0
27 0.0
39 0.000998
55 0.001012
78 0.000998
89 0.0
89 0.001014
78 0.0
80 0.002032
92 0.0
102 0.0
122 0.0
136 0.0
146 0.002027
155 0.0
161 0.0
172 0.0
172 0.001041
107 0.0
50 0.002025
35 0.002027
48 0.0
66 0.0
83 0.0
98 0.002028
106 0.001995
100 0.000959
92 0.0
99 0.000967
112 0.0
127 0.001004
142 0.002028
153 0.002024
163 0.0
170 0.0
178 0.0
184 0.003027
186 0.002017
127 0.0
67 0.0
52 0.0
70 0.0
90 0.001034
109 0.002
127 0.002028
130 0.000965
118 0.0
108 0.0
110 0.002025
123 0.002028
139 0.001993
159 0.0
173 0.002026
185 0.0
192 0.0
199 0.00096
198 0.003027
154 0.002028
73 0.000951
60 0.000994
71 0.000979
93 0.00203
116 0.001997
147 0.0
150 0.002042
129 0.00095
120 0.000956
125 0.000977
138 0.002045
153 0.002993
169 0.0
182 0.000981
193 0.000947
203 0.001996
207 0.002994
157 0.0
108 0.017953
77 0.000998
84 0.0
107 0.0
133 0.002029
157 0.002027
158 0.002013
141 0.000972
129 0.001001
129 0.003
139 0.002952
158 0.001004
176 0.002994
191 0.002983
203 0.001994
207 0.001995
171 0.00203
95 0.002026
60 0.002008
68 0.001995
87 0.001996
108 0.002993
131 0.002992
148 0.00199
136 0.002992
120 0.001992
123 0.001991
133 0.001994
146 0.002993
159 0.002992
175 0.002994
186 0.001996
195 0.001959
192 0.00399
130 0.004006
59 0.001997
57 0.002971
81 0.001993
100 0.001993
120 0.001996
133 0.002994
130 0.002993
117 0.003034
108 0.001997
114 0.001992
126 0.001988
140 0.004018
151 0.004024
171 0.003989
179 0.004024
175 0.002024
114 0.003007
61 0.001966
50 0.002993
60 0.004025
85 0.002001
106 0.001997
124 0.001997
128 0.004018
118 0.003987
102 0.003989
107 0.004002
123 0.001993
136 0.001993
149 0.001994
160 0.003959
171 0.004986
175 0.001992
135 0.002027
71 0.001994
47 0.004026
51 0.003982
84 0.004987
106 0.004988
130 0.002007
127 0.001996
112 0.00295
103 0.004987
104 0.004986
117 0.001993
132 0.002995
146 0.002024
157 0.005017
170 0.004986
177 0.004986
135 0.005034
55 0.002015
45 0.003032
57 0.002051
77 0.005019
102 0.00499
133 0.002023
134 0.002991
119 0.00299
105 0.004987
104 0.004968
122 0.006017
136 0.00502
154 0.002995
168 0.003011
179 0.002993
184 0.004986
150 0.004986
65 0.003002
48 0.002992
57 0.003029
78 0.004993
104 0.004972
144 0.005984
141 0.005985
122 0.006017
110 0.004015
116 0.003943
129 0.003977
143 0.00602
157 0.006006
173 0.003045
184 0.002041
191 0.003015
160 0.004953
60 0.002978
52 0.006024
64 0.006952
94 0.003973
120 0.002992
141 0.003945
143 0.00602
128 0.005984
114 0.003988
118 0.003017
128 0.002973
142 0.006016
165 0.003995
177 0.005984
190 0.005989
189 0.004022
129 0.003989
68 0.004984
52 0.006979
62 0.006981
88 0.00395
109 0.00399
131 0.001996
138 0.005983
121 0.003991
113 0.006021
118 0.006016
133 0.004012
147 0.003034
162 0.003987
174 0.007013
185 0.007024
189 0.022907
197 0.0
89 0.002979
56 0.005994
64 0.003961
86 0.007022
107 0.006982
133 0.00499
138 0.003976
129 0.003992
116 0.006981
118 0.00798
127 0.004989
141 0.00499
154 0.004023
166 0.007016
187 0.004995
195 0.006981
186 0.006995
93 0.004982
57 0.004986
57 0.004971
73 0.006983
97 0.00698
130 0.006002
147 0.005956
145 0.005956
131 0.005987
120 0.004993
126 0.004986
143 0.007974
157 0.007975
173 0.005001
187 0.004983
200 0.004989
199 0.007978
143 0.007986
74 0.005974
58 0.005988
70 0.006021
110 0.005982
137 0.005982
162 0.007976
155 0.007977
138 0.006949
126 0.006044
129 0.004978
146 0.006957
162 0.007013
176 0.005988
193 0.005981
208 0.005981
188 0.005995
110 0.005983
63 0.007978
70 0.007985
93 0.005984
123 0.006977
155 0.006976
179 0.007021
167 0.006974
146 0.005967
139 0.005939
141 0.006004
163 0.005978
180 0.005984
203 0.007977
216 0.007977
193 0.006974
94 0.006963
71 0.006977
73 0.00701
94 0.006982
127 0.005937
172 0.006979
182 0.006851
161 0.005974
143 0.00598
141 0.005983
153 0.005984
172 0.006976
189 0.006981
205 0.006964
207 0.007013
150 0.006952
71 0.006953
62 0.006973
72 0.006968
115 0.006972
156 0.006978
170 0.006981
160 0.006017
136 0.00598
130 0.005982
137 0.005979
151 0.006017
164 0.007
185 0.006844
195 0.006949
194 0.006984
68 0.005979
52 0.006024
62 0.005985
84 0.006021
110 0.005984
141 0.005987
145 0.005984
132 0.005985
117 0.006005
115 0.00598
125 0.005978
139 0.005988
163 0.006005
177 0.005992
184 0.005994
145 0.005041
73 0.005018
46 0.005984
55 0.004986
73 0.004952
95 0.005962
116 0.005985
125 0.006016
115 0.005994
102 0.005975
107 0.006069
117 0.006002
131 0.006017
146 0.006016
161 0.005983
171 0.004984
161 0.004985
94 0.004991
48 0.004986
43 0.005021
58 0.004987
92 0.004982
112 0.004987
117 0.004967
108 0.004991
94 0.005019
94 0.005986
102 0.005021
115 0.00499
129 0.004992
140 0.00499
154 0.00498
164 0.004991
141 0.004976
72 0.004983
38 0.004933
35 0.010974
41 0.001008
52 0.0
99 0.005039
112 0.003989
106 0.004021
92 0.00399
85 0.00399
92 0.00399
112 0.003989
126 0.003988
137 0.004987
146 0.004984
155 0.004988
165 0.004026
164 0.004971
110 0.003989
49 0.004987
30 0.004955
37 0.00394
63 0.003997
94 0.003986
111 0.004039
106 0.003989
91 0.00399
85 0.00399
91 0.003991
107 0.004012
121 0.004017
134 0.002967
144 0.002959
153 0.003959
164 0.002958
171 0.004002
142 0.003026
75 0.003991
39 0.002999
40 0.002993
56 0.004025
84 0.003055
109 0.003954
122 0.00299
116 0.002991
100 0.00403
90 0.003993
103 0.00399
124 0.00399
137 0.004021
148 0.002972
158 0.002986
166 0.002992
177 0.003035
179 0.002993
146 0.002982
75 0.002994
44 0.002987
48 0.00395
75 0.004022
106 0.001993
124 0.00399
126 0.004038
112 0.003005
100 0.003027
104 0.002993
115 0.002985
130 0.002962
143 0.00301
154 0.002993
168 0.002992
177 0.002992
190 0.002992
187 0.003021
125 0.002994
62 0.003025
43 0.002993
52 0.001995
72 0.001962
91 0.001994
110 0.002031
120 0.001961
111 0.001965
100 0.002035
106 0.001995
119 0.002022
135 0.001959
148 0.002992
158 0.00203
169 0.001997
179 0.001985
186 0.001995
194 0.001995
198 0.002004
173 0.001997
55 0.001989
38 0.001978
50 0.002025
69 0.001995
87 0.002036
104 0.00204
113 0.002026
104 0.000996
95 0.000983
95 0.001997
105 0.001991
120 0.001994
148 0.001995
160 0.001999
171 0.001996
176 0.001958
183 0.001978
189 0.002027
195 0.002027
192 0.000991
124 0.000997
59 0.001
41 0.001998
48 0.001994
82 0.000997
102 0.000998
122 0.002037
119 0.002046
107 0.00203
100 0.002026
103 0.001002
119 0.000992
138 0.000998
153 0.000953
167 0.002089
176 0.001036
187 0.002004
194 0.000998
202 0.002028
209 0.002027
207 0.001995
145 0.00203
69 0.001992
43 0.0
53 0.001024
77 0.00102
100 0.00101
121 0.001013
132 0.000997
117 0.000998
104 0.000997
110 0.000997
125 0.000997
144 0.000997
161 0.0
179 0.0
188 0.0
195 0.0
201 0.0
207 0.000997
213 0.0
213 0.0
147 0.0
56 0.0
43 0.0
57 0.0
82 0.0
110 0.0
143 0.0
149 0.0
134 0.000952
116 0.0
118 0.001001
132 0.0
148 0.0
170 0.0
182 0.0
196 0.0
202 0.001002
212 0.000974
217 0.0
185 0.0
100 0.0
45 0.0
57 0.0
89 0.0
118 0.0
145 0.002027
156 0.002026
138 0.001
121 0.001007
117 0.000998
127 0.002992
143 0.002997
163 0.0
178 0.0
196 0.0
206 0.0
214 0.0
219 0.002029
198 0.002001
78 0.0
35 0.0
35 0.0
54 0.002006
77 0.001994
110 0.0
127 0.000984
118 0.0
101 0.000991
95 0.001004
104 0.002028
119 0.002027
140 0.0
156 0.0
167 0.0
177 0.003035
187 0.002997
196 0.0
180 0.0
56 0.0
29 0.0
35 0.0
54 0.002026
78 0.00203
109 0.0
121 0.0
115 0.000986
99 0.001982
90 0.002991
94 0.002992
113 0.0
134 0.002993
152 0.0
163 0.0
172 0.0
181 0.002031
187 0.001985
144 0.0
61 0.0
26 0.0
28 0.001993
45 0.001995
78 0.0
111 0.002046
118 0.0
104 0.000969
88 0.0
86 0.003027
96 0.002986
117 0.0
132 0.0
145 0.0
155 0.001976
166 0.001991
177 0.000959
173 0.00297
86 0.0
36 0.0
28 0.0
42 0.002031
65 0.003005
99 0.0
118 0.0
119 0.0
103 0.00299
88 0.002986
92 0.001996
110 0.002993
131 0.002
144 0.002004
154 0.001988
164 0.002993
172 0.002995
178 0.002146
144 0.001982
66 0.000965
29 0.003008
27 0.002978
48 0.002993
78 0.003031
104 0.002992
108 0.002028
96 0.003008
82 0.002994
81 0.00399
96 0.002998
110 0.002003
126 0.001978
139 0.003986
149 0.003961
161 0.001997
171 0.003989
148 0.002037
73 0.002006
27 0.002038
19 0.002992
33 0.003022
54 0.002984
80 0.002027
97 0.001989
97 0.002025
84 0.003971
74 0.003955
83 0.004026
98 0.00402
120 0.001999
135 0.001996
145 0.001996
153 0.003989
161 0.003026
172 0.002001
163 0.001971
99 0.001993
37 0.003992
20 0.004032
43 0.003989
63 0.003987
92 0.001978
106 0.002
99 0.001992
86 0.004026
81 0.004029
90 0.002003
106 0.001997
123 0.003025
138 0.003954
150 0.003989
158 0.000975
170 0.004995
181 0.001995
175 0.002994
115 0.001994
51 0.004985
31 0.004984
43 0.003014
65 0.00496
81 0.0
120 0.004987
98 0.005021
90 0.005021
101 0.002025
117 0.002006
134 0.001992
148 0.004985
159 0.005001
170 0.002033
179 0.002013
187 0.002048
187 0.004022
140 0.005067
46 0.005961
42 0.005018
64 0.002952
85 0.002945
107 0.002993
125 0.005021
124 0.005011
107 0.002999
101 0.001995
106 0.00301
121 0.004992
138 0.004984
163 0.004987
174 0.005987
182 0.002998
189 0.003013
196 0.00299
202 0.006019
185 0.007016
82 0.001986
40 0.002013
38 0.002025
54 0.002993
74 0.005954
105 0.003974
117 0.005984
114 0.006017
101 0.003989
100 0.002991
108 0.003007
123 0.005019
143 0.004967
164 0.002991
176 0.003047
184 0.002048
192 0.004988
205 0.002974
209 0.006009
190 0.006019
87 0.003986
50 0.003012
50 0.002981
68 0.006019
91 0.006033
121 0.003037
139 0.002028
139 0.002936
123 0.00599
115 0.003979
125 0.005976
142 0.005993
167 0.003989
182 0.002991
192 0.002968
202 0.006018
210 0.007031
220 0.004
226 0.003951
205 0.003934
122 0.007016
54 0.003987
60 0.006983
83 0.006997
120 0.003959
145 0.004053
157 0.003008
150 0.006021
130 0.007018
124 0.003989
135 0.004019
151 0.003993
168 0.006989
193 0.003978
205 0.006993
214 0.007028
226 0.00402
227 0.003989
176 0.004947
69 0.007962
49 0.007987
58 0.004992
81 0.004973
107 0.003984
133 0.007006
155 0.003996
142 0.007021
126 0.007014
127 0.002998
140 0.003027
157 0.004948
175 0.008013
194 0.007982
205 0.004982
216 0.004988
226 0.004987
231 0.004954
138 0.005023
58 0.005033
37 0.007032
56 0.007981
83 0.004993
110 0.004995
134 0.005
147 0.007016
133 0.00798
116 0.00595
113 0.005989
123 0.005994
151 0.005983
167 0.004991
183 0.007978
200 0.007974
212 0.004971
221 0.005984
217 0.005937
105 0.007975
39 0.007013
27 0.005969
45 0.005939
72 0.005937
124 0.005981
146 0.005994
141 0.006982
127 0.007959
109 0.006035
113 0.005956
128 0.00597
151 0.007979
168 0.007974
184 0.005937
199 0.005999
212 0.006018
202 0.005969
112 0.006982
42 0.007979
30 0.007961
60 0.006976
81 0.005976
117 0.006004
154 0.007013
152 0.006974
138 0.005949
120 0.005988
119 0.0
126 0.000997
137 0.002991
196 0.000928
213 0.00698
222 0.006981
156 0.006939
69 0.006981
42 0.006981
47 0.006981
80 0.006974
101 0.006969
149 0.006982
154 0.00698
134 0.006983
120 0.006981
126 0.005985
140 0.005983
158 0.00598
174 0.005985
190 0.005952
215 0.006971
220 0.00695
159 0.006015
48 0.006942
47 0.005981
63 0.00598
89 0.005954
125 0.005973
162 0.006015
158 0.005983
135 0.005986
120 0.005967
122 0.006017
136 0.005972
152 0.00598
179 0.005987
195 0.005979
204 0.005984
192 0.005989
112 0.005987
40 0.005982
37 0.005982
54 0.00602
80 0.006007
113 0.005984
142 0.005983
135 0.005997
108 0.005994
108 0.005982
116 0.005983
130 0.005984
146 0.005981
168 0.004987
181 0.005019
192 0.004977
181 0.004984
101 0.004986
26 0.005025
24 0.004988
56 0.004987
82 0.004985
110 0.005972
126 0.006009
120 0.005993
98 0.004955
95 0.004986
103 0.004972
119 0.005001
136 0.004987
154 0.004989
167 0.004975
183 0.004981
188 0.004987
192 0.004987
198 0.004959
193 0.004988
78 0.00394
18 0.004015
6 0.003991
18 0.003989
37 0.003986
63 0.004949
81 0.004991
88 0.004943
77 0.003991
72 0.004983
79 0.004989
92 0.004989
114 0.004022
129 0.003957
141 0.003986
151 0.003988
162 0.004009
168 0.003989
174 0.003941
183 0.004023
180 0.003956
108 0.003988
40 0.003958
22 0.004032
28 0.004012
53 0.003959
72 0.003992
90 0.00399
101 0.003959
100 0.003975
88 0.003957
92 0.004025
107 0.003954
124 0.003948
140 0.003989
154 0.003958
165 0.003961
176 0.003956
180 0.003951
183 0.003
189 0.003003
197 0.002992
181 0.003004
79 0.002992
44 0.003022
52 0.003956
71 0.003961
92 0.003984
114 0.003953
132 0.003013
126 0.003945
112 0.002988
107 0.004017
113 0.003961
129 0.002964
151 0.003019
169 0.003029
178 0.002962
186 0.001963
189 0.002992
193 0.002991
201 0.002992
205 0.003
196 0.002992
134 0.002992
74 0.002993
60 0.002982
85 0.002987
116 0.002994
140 0.002993
155 0.003012
148 0.002991
130 0.001983
119 0.001945
125 0.001991
138 0.001964
154 0.001997
169 0.001974
184 0.002006
192 0.001995
200 0.001997
206 0.00196
210 0.001983
205 0.001994
157 0.002003
94 0.001996
72 0.00299
83 0.002943
106 0.001959
132 0.001959
157 0.001954
164 0.001996
145 0.002041
128 0.002014
130 0.001962
142 0.001991
158 0.001991
171 0.001032
186 0.001994
194 0.001992
201 0.000998
206 0.000997
211 0.001999
178 0.001997
110 0.000998
80 0.002008
86 0.002007
106 0.002029
132 0.002039
156 0.001994
171 0.001992
159 0.001984
141 0.001994
132 0.000966
136 0.001997
157 0.000997
170 0.001004
183 0.002015
192 0.001958
200 0.001986
206 0.001994
209 0.00199
175 0.000994
109 0.001026
82 0.001
84 0.001012
101 0.000997
140 0.000997
164 0.000997
167 0.001006
149 0.001992
134 0.000997
131 0.001003
138 0.000995
153 0.001994
165 0.001993
177 0.0
187 0.0
196 0.000999
206 0.0
193 0.000998
113 0.000997
84 0.000996
87 0.00103
103 0.000997
126 0.000997
158 0.001
171 0.000999
163 0.0
144 0.0
133 0.0
142 0.0
153 0.0
164 0.0
180 0.0
188 0.0
195 0.0
204 0.0
202 0.0
139 0.0
95 0.000998
86 0.000969
96 0.0
128 0.0
148 0.0
160 0.0
152 0.0
137 0.0
130 0.0
137 0.0
143 0.0
158 0.0
168 0.003001
180 0.0
186 0.0
193 0.0
187 0.000991
138 0.0
92 0.001988
82 0.00204
96 0.0
113 0.0
129 0.001001
143 0.001961
146 0.001991
133 0.000994
123 0.0
127 0.000989
136 0.0
149 0.001008
158 0.00301
166 0.001988
174 0.0
178 0.0
183 0.0
178 0.002997
134 0.002984
80 0.0
76 0.0
100 0.0
117 0.0
131 0.0
139 0.003023
133 0.002998
119 0.0
116 0.0
122 0.0
130 0.001985
142 0.00204
156 0.0
162 0.001005
170 0.0
175 0.000989
179 0.00101
178 0.001997
153 0.002993
87 0.0
72 0.0
79 0.0
97 0.003024
115 0.002993
129 0.002992
139 0.0
126 0.003989
115 0.000959
114 0.000961
124 0.000998
137 0.001947
148 0.002985
158 0.000968
165 0.0
167 0.0
170 0.002983
175 0.001991
181 0.000998
160 0.001987
90 0.001
72 0.0
77 0.0
94 0.002992
113 0.002993
133 0.0
139 0.0
130 0.0
115 0.003025
111 0.003025
120 0.000998
137 0.003008
153 0.0
162 0.0
167 0.0
170 0.002993
174 0.002992
179 0.000997
182 0.0
182 0.0
158 0.003026
95 0.003026
81 0.01895
67 0.001942
77 0.0
140 0.0
140 0.00305
128 0.003026
112 0.002985
113 0.0
123 0.0
136 0.002993
149 0.002997
165 0.000971
171 0.003027
178 0.0
183 0.0
186 0.002983
190 0.00303
181 0.002996
104 0.001975
70 0.002992
69 0.001976
84 0.002958
106 0.003954
136 0.002992
152 0.003983
140 0.003962
123 0.003019
118 0.001881
124 0.003023
138 0.003985
156 0.003002
169 0.003002
177 0.002989
183 0.002991
188 0.003989
193 0.003984
198 0.003958
196 0.004005
123 0.002025
76 0.003001
68 0.002996
78 0.003971
97 0.003989
124 0.000997
141 0.003001
146 0.002992
136 0.004006
121 0.004022
118 0.00397
129 0.003996
148 0.002991
161 0.002016
170 0.002033
176 0.00399
182 0.00499
189 0.003005
192 0.003003
189 0.0
145 0.00502
81 0.005021
60 0.004939
74 0.005029
100 0.001952
120 0.002052
136 0.003004
134 0.004044
122 0.003968
107 0.002024
107 0.002033
119 0.00201
134 0.004989
147 0.004989
162 0.005021
168 0.005018
179 0.002989
183 0.003
182 0.00399
149 0.004972
81 0.004972
49 0.002038
56 0.003039
75 0.002999
95 0.005018
117 0.004989
132 0.005009
118 0.005018
102 0.003033
99 0.002024
108 0.004025
123 0.004987
137 0.004989
151 0.002041
160 0.00399
168 0.001995
175 0.006023
179 0.006016
131 0.006022
64 0.005025
40 0.003031
50 0.00204
70 0.003038
94 0.00499
119 0.003988
131 0.00497
118 0.00299
99 0.002993
92 0.002989
99 0.006015
120 0.003027
134 0.006026
146 0.006021
158 0.003009
167 0.003019
172 0.00301
165 0.005986
109 0.004984
44 0.002992
40 0.003968
53 0.003001
76 0.006017
117 0.002997
131 0.004984
124 0.004989
100 0.002009
92 0.003045
96 0.001996
108 0.007009
122 0.006983
139 0.004043
150 0.002946
159 0.002993
168 0.006983
149 0.002984
76 0.005993
33 0.005987
32 0.003031
48 0.003966
70 0.002032
93 0.007022
110 0.007024
107 0.002951
92 0.003023
82 0.003034
83 0.006942
104 0.00292
116 0.007018
128 0.007017
143 0.00303
151 0.00401
160 0.004989
163 0.007043
127 0.008018
38 0.004953
18 0.00498
22 0.004992
39 0.007016
71 0.004024
87 0.006979
91 0.00793
77 0.004964
67 0.003991
69 0.003993
79 0.006976
99 0.007958
112 0.004974
124 0.004997
132 0.004973
140 0.007956
151 0.004987
149 0.006984
97 0.007021
24 0.003995
14 0.005007
24 0.005044
42 0.007978
67 0.007949
84 0.007979
88 0.004027
77 0.004931
64 0.004987
69 0.005008
80 0.004974
100 0.007963
115 0.00798
125 0.005997
133 0.005995
140 0.004973
147 0.007968
150 0.007982
119 0.005981
51 0.005934
18 0.005953
26 0.005926
46 0.004989
73 0.00797
90 0.007984
95 0.004986
82 0.00498
69 0.004949
69 0.007943
77 0.007975
97 0.005981
112 0.005945
126 0.005933
142 0.004981
149 0.005972
158 0.006973
160 0.006983
129 0.004997
60 0.005986
25 0.005984
28 0.006985
47 0.007
71 0.005993
96 0.006934
111 0.006035
97 0.006016
84 0.005953
85 0.006988
96 0.006982
112 0.005992
127 0.005995
140 0.005989
153 0.006987
163 0.006977
170 0.005984
177 0.005982
159 0.006007
51 0.005983
29 0.006021
35 0.00599
58 0.005993
92 0.005984
115 0.006021
127 0.005984
117 0.005985
98 0.006979
93 0.006983
99 0.006984
113 0.00698
140 0.00695
153 0.005948
167 0.006987
175 0.006982
185 0.005987
190 0.005992
179 0.005986
112 0.005019
48 0.005987
31 0.00597
48 0.005993
71 0.005991
114 0.005988
129 0.005997
128 0.006016
107 0.005984
96 0.004993
103 0.004987
114 0.005984
136 0.005984
152 0.005979
166 0.005981
178 0.005998
184 0.005981
192 0.00596
193 0.005972
161 0.004991
81 0.005984
34 0.004988
33 0.004986
55 0.004957
80 0.005017
104 0.004971
123 0.005938
120 0.006003
103 0.00595
92 0.005988
98 0.005947
120 0.004982
138 0.004956
152 0.004972
167 0.004983
175 0.004987
183 0.004955
188 0.004958
189 0.003996
127 0.004985
56 0.003977
32 0.005984
50 0.004945
78 0.004951
105 0.004983
128 0.004981
134 0.004988
115 0.00501
100 0.004977
101 0.004976
112 0.004983
134 0.004006
149 0.005042
172 0.004988
181 0.005004
191 0.003984
200 0.003975
194 0.003964
109 0.003977
49 0.004014
35 0.003988
49 0.003986
75 0.004938
114 0.004939
140 0.004987
138 0.004987
117 0.003989
107 0.00399
111 0.003989
123 0.003973
145 0.003955
159 0.004006
172 0.003968
186 0.003956
197 0.004022
203 0.003992
170 0.004988
69 0.003956
36 0.003977
47 0.003988
73 0.003988
103 0.002993
133 0.002953
146 0.003021
128 0.003026
109 0.003086
105 0.002992
109 0.012018
117 0.000983
156 0.0
181 0.004024
188 0.003988
169 0.00399
99 0.003976
38 0.004019
36 0.003989
53 0.003996
78 0.002992
107 0.003029
133 0.004019
121 0.004045
98 0.003985
98 0.003946
109 0.002963
122 0.00399
136 0.003989
155 0.003952
165 0.003959
175 0.002975
177 0.003048
131 0.002992
40 0.003025
21 0.003025
41 0.002993
60 0.002979
82 0.003024
101 0.002995
100 0.00299
82 0.00299
75 0.003005
81 0.001986
93 0.003029
109 0.001996
128 0.00199
143 0.001995
157 0.001997
161 0.002008
135 0.002018
66 0.001966
25 0.003017
20 0.002988
36 0.002034
56 0.002007
79 0.001992
94 0.002028
89 0.002063
73 0.00199
75 0.001998
86 0.002001
101 0.001995
116 0.001995
129 0.002995
140 0.001986
153 0.002004
160 0.001996
147 0.001997
85 0.002026
31 0.002027
19 0.001984
38 0.001988
66 0.001989
87 0.001989
97 0.001951
90 0.001988
76 0.002007
74 0.001998
84 0.001996
101 0.000998
116 0.000998
130 0.002034
148 0.001981
157 0.001983
166 0.001996
166 0.001995
118 0.001997
52 0.001978
26 0.001995
34 0.001982
55 0.000997
80 0.00203
103 0.000963
112 0.002038
93 0.001998
82 0.002032
90 0.001011
106 0.000998
121 0.001002
136 0.001
147 0.001
160 0.001989
170 0.002025
176 0.002052
172 0.002032
123 0.002032
38 0.001996
35 0.001988
56 0.00096
81 0.0
107 0.001012
123 0.001011
118 0.001012
95 0.001005
92 0.001029
102 0.000997
117 0.000994
133 0.000997
155 0.000994
164 0.0
176 0.0
182 0.0
175 0.0
122 0.0
60 0.0
33 0.0
45 0.0
66 0.0
87 0.0
108 0.0
116 0.0
100 0.0
92 0.0
101 0.0
116 0.000957
134 0.000996
148 0.0
160 0.0
172 0.000998
180 0.0
188 0.0
191 0.001003
107 0.000993
49 0.0
33 0.0
46 0.003025
66 0.000929
86 0.0
107 0.000998
110 0.001016
98 0.002025
88 0.002992
91 0.0
109 0.0
139 0.0
152 0.0
162 0.0
171 0.003022
179 0.002994
188 0.0
190 0.0
170 0.014922
76 0.003002
39 0.003029
40 0.0
60 0.0
96 0.0
115 0.0
118 0.0
107 0.002996
96 0.002991
98 0.0
113 0.0
130 0.001964
148 0.003024
163 0.003023
176 0.000965
185 0.0
199 0.001001
198 0.000992
151 0.0
74 0.003001
41 0.003041
48 0.0
68 0.001008
92 0.000995
118 0.002992
133 0.003026
123 0.0
109 0.0
110 0.0
124 0.0
142 0.0
156 0.002993
170 0.002989
188 0.0
196 0.0
204 0.0
212 0.000967
190 0.002034
109 0.002026
43 0.000961
45 0.002985
79 0.000997
106 0.001004
134 0.0
149 0.002993
141 0.002991
117 0.0
115 0.0
125 0.0
141 0.003009
158 0.003038
181 0.0
200 0.00301
217 0.0
223 0.0
190 0.000988
105 0.002973
54 0.002992
51 0.000996
74 0.000998
103 0.000938
137 0.002041
163 0.003026
