147 0.027924
150 0.003989
161 0.003989
172 0.004021
182 0.002992
188 0.001995
197 0.002024
208 0.001024
218 0.001037
219 0.000997
195 0.000971
153 0.000997
150 0.001025
158 0.000997
176 0.001026
187 0.000995
186 0.000997
183 0.000998
185 0.000998
195 0.0
204 0.0
210 0.0
215 0.0
219 0.0
223 0.0
231 0.001995
236 0.002046
185 0.001995
162 0.003992
151 0.004988
146 0.004981
155 0.005981
160 0.005989
164 0.005957
162 0.005985
159 0.006032
160 0.006983
163 0.00601
167 0.005023
170 0.003988
172 0.002043
173 0.000997
176 0.0
179 0.000998
181 0.000998
175 0.000997
152 0.001996
138 0.002952
138 0.003983
144 0.005972
148 0.005978
150 0.007926
148 0.006006
146 0.005964
147 0.005014
150 0.005027
153 0.005032
156 0.005012
158 0.004989
160 0.005003
161 0.004974
164 0.004995
166 0.005014
158 0.004981
128 0.005027
116 0.003995
118 0.003988
121 0.003987
124 0.003981
126 0.003022
123 0.003007
122 0.003036
122 0.002982
126 0.002992
129 0.003036
132 0.001993
134 0.00101
143 0.0
149 0.0
153 0.0
160 0.0
129 0.000988
93 0.000964
65 0.001003
68 0.000992
76 0.001053
86 0.001018
89 0.001011
85 0.001016
83 0.002993
88 0.003952
96 0.003989
105 0.005987
110 0.006981
116 0.006978
122 0.007959
126 0.007977
136 0.007018
143 0.006981
150 0.007019
104 0.006975
74 0.006988
58 0.006016
61 0.005982
75 0.004995
85 0.003968
87 0.002962
79 0.001976
80 0.001995
89 0.000999
103 0.000961
109 0.001995
116 0.001
119 0.0
124 0.0
134 0.001996
140 0.002042
123 0.003945
71 0.00399
54 0.005018
57 0.005039
70 0.005049
77 0.004962
78 0.004988
72 0.007017
71 0.007011
76 0.006982
83 0.007016
92 0.006975
98 0.007011
105 0.006982
110 0.006982
113 0.00698
118 0.007017
126 0.007979
124 0.007919
75 0.007978
45 0.007047
45 0.00601
56 0.005019
62 0.005987
69 0.005028
64 0.004022
62 0.003002
66 0.00302
76 0.002993
82 0.003029
90 0.002993
97 0.001995
105 0.002991
111 0.002992
118 0.001995
129 0.003029
105 0.002962
68 0.003018
35 0.001995
34 0.001026
43 0.0
55 0.0
59 0.0
54 0.000999
51 0.002054
53 0.001995
63 0.00299
73 0.002957
78 0.002991
89 0.004023
93 0.00399
102 0.005939
113 0.006023
119 0.006014
84 0.005985
33 0.006009
21 0.006017
24 0.006009
33 0.005984
48 0.007007
47 0.007019
41 0.007018
38 0.006981
45 0.005033
50 0.004986
60 0.00496
67 0.004022
73 0.004986
80 0.002043
89 0.001032
98 0.0
100 0.0
71 0.0
19 0.0
6 0.000998
9 0.001
23 0.00101
29 0.000999
25 0.000998
16 0.002962
20 0.00399
28 0.004016
40 0.004018
45 0.004022
55 0.003982
61 0.004017
70 0.004022
81 0.003991
84 0.003988
47 0.004986
0 0.005014
0 0.005014
0 0.005012
0 0.005005
12 0.006017
13 0.007015
5 0.00602
7 0.005002
19 0.005027
23 0.004986
35 0.005021
45 0.004929
50 0.00502
61 0.003989
71 0.004957
78 0.002999
40 0.002992
0 0.002001
0 0.002031
0 0.000997
0 0.0
0 0.0
0 0.001015
0 0.001989
0 0.001996
66 0.002012
70 0.001958
77 0.002984
82 0.003032
83 0.003028
87 0.002962
92 0.003989
101 0.004025
93 0.003989
75 0.004026
53 0.004024
50 0.004031
51 0.011967
54 0.0
63 0.0
77 0.007036
85 0.007014
93 0.006972
97 0.006973
104 0.007031
109 0.007038
117 0.006964
120 0.007933
114 0.006982
88 0.006036
79 0.005995
83 0.004986
90 0.005014
97 0.004986
100 0.002991
103 0.002019
106 0.002026
110 0.002025
118 0.000997
122 0.000997
130 0.0
135 0.002014
142 0.003986
145 0.00399
151 0.003989
155 0.00399
163 0.00399
154 0.005976
139 0.007013
128 0.007024
135 0.006996
139 0.006969
148 0.007019
150 0.00699
151 0.006986
153 0.006984
156 0.006973
162 0.006977
166 0.00697
170 0.006993
175 0.006971
177 0.006986
182 0.006978
186 0.005995
188 0.004951
193 0.003949
198 0.00297
195 0.004014
170 0.002957
163 0.002993
165 0.002991
173 0.000999
180 0.0
184 0.00096
184 0.00102
184 0.002033
186 0.00397
192 0.003962
195 0.003987
198 0.004993
201 0.004987
202 0.004981
205 0.004973
207 0.00496
210 0.004967
213 0.004974
214 0.004996
195 0.004995
179 0.004988
179 0.005971
187 0.005962
191 0.005978
196 0.005948
194 0.005976
193 0.005958
194 0.007024
197 0.007954
200 0.005952
203 0.004989
253 0.00499
255 0.003958
255 0.003956
255 0.00395
255 0.001001
255 0.001988
249 0.001004
216 0.001994
204 0.001974
210 0.001991
222 0.00195
229 0.001989
232 0.000949
227 0.000956
224 0.00095
229 0.0
231 0.000958
236 0.0
239 0.0
240 0.0
243 0.0
245 0.0
248 0.0
250 0.0
236 0.0
196 0.0
186 0.000967
192 0.001992
202 0.003968
210 0.003976
207 0.003992
199 0.003976
198 0.00494
201 0.006017
205 0.005942
207 0.007931
209 0.005994
211 0.004983
211 0.005986
214 0.005033
216 0.004985
210 0.004989
170 0.004984
154 0.004932
150 0.005004
158 0.004988
164 0.004988
166 0.003959
159 0.004999
155 0.003033
155 0.002985
159 0.001977
161 0.000993
164 0.000996
163 0.0
166 0.0
170 0.0
172 0.0
167 0.0
129 0.000999
110 0.001995
106 0.003988
114 0.003991
120 0.005984
121 0.005979
111 0.006981
108 0.006975
108 0.007975
112 0.006982
118 0.005984
120 0.004988
121 0.004988
123 0.004989
126 0.00598
130 0.004987
133 0.004987
117 0.004985
75 0.004987
63 0.004987
65 0.003985
70 0.002988
75 0.002023
74 0.003022
65 0.001991
64 0.003034
66 0.002014
69 0.001026
72 0.000996
75 0.000993
76 0.001069
79 0.0
83 0.0
86 0.0
92 0.0
81 0.00103
53 0.0
16 0.000994
11 0.000999
9 0.000999
10 0.001
13 0.000959
10 0.001001
6 0.000963
6 0.000994
10 0.001003
16 0.002994
19 0.002993
24 0.00399
27 0.00399
33 0.004022
37 0.003991
41 0.003947
49 0.004017
55 0.004017
58 0.004018
17 0.003992
0 0.003982
0 0.00602
0 0.006955
0 0.00698
0 0.00702
0 0.007018
0 0.005984
0 0.007009
0 0.005983
0 0.007018
0 0.006982
0 0.005982
2 0.006011
6 0.005988
16 0.005984
24 0.004991
30 0.005021
40 0.00203
49 0.001022
57 0.000998
65 0.0
60 0.001
33 0.002024
0 0.002995
59 0.003029
58 0.003028
57 0.002994
60 0.002933
61 0.002992
60 0.00302
61 0.003049
65 0.003937
69 0.004019
72 0.00399
76 0.00396
79 0.003964
83 0.004035
88 0.00399
91 0.003991
95 0.003991
101 0.006031
104 0.005984
108 0.00695
111 0.006954
116 0.005995
118 0.006983
103 0.006009
82 0.005951
78 0.00698
78 0.006024
78 0.006981
81 0.005026
82 0.004986
82 0.003962
83 0.004026
86 0.004023
90 0.0
93 0.000998
99 0.0
102 0.0
105 0.0
110 0.0
112 0.0
116 0.000963
121 0.0
124 0.0
129 0.0
134 0.0
136 0.0
119 0.0
106 0.000998
96 0.00204
98 0.004024
99 0.005975
85 0.006977
88 0.007973
88 0.007008
88 0.007941
94 0.007977
99 0.007941
108 0.007976
113 0.00701
117 0.007979
123 0.007042
126 0.007977
132 0.006982
138 0.006949
144 0.005984
152 0.005977
155 0.005977
165 0.006025
162 0.00601
138 0.006009
105 0.005981
99 0.005969
99 0.005
102 0.003986
106 0.004026
109 0.003976
106 0.003989
105 0.003986
111 0.003988
114 0.003977
122 0.002983
129 0.001991
133 0.002985
137 0.001988
144 0.001994
148 0.000955
153 0.000998
157 0.000991
164 0.000997
172 0.000999
174 0.000998
141 0.000993
119 0.000963
104 0.000963
105 0.000984
107 0.000946
114 0.000952
115 0.000996
113 0.001
112 0.000977
115 0.001979
121 0.002953
126 0.00399
134 0.004936
138 0.004939
146 0.004986
151 0.005981
158 0.005951
167 0.005951
174 0.005984
188 0.005946
170 0.006984
132 0.007951
85 0.007969
79 0.007017
83 0.006983
92 0.006985
100 0.007019
100 0.00694
96 0.006975
95 0.006982
100 0.007019
109 0.006986
120 0.007969
128 0.005993
136 0.006964
144 0.006985
148 0.006934
158 0.006021
170 0.005021
173 0.005968
131 0.003991
75 0.003009
66 0.002999
66 0.001985
70 0.001986
83 0.00097
84 0.000963
78 0.000996
79 0.000995
88 0.0
95 0.0
107 0.001993
116 0.002967
122 0.002965
132 0.002958
137 0.002965
148 0.002955
158 0.00299
158 0.002983
114 0.002985
64 0.002961
39 0.004987
37 0.004978
39 0.006014
44 0.005954
49 0.005974
48 0.006973
49 0.006967
54 0.007011
62 0.00498
77 0.004042
90 0.000962
100 0.000968
107 0.001955
117 0.002001
124 0.00399
135 0.00394
142 0.003989
105 0.003991
54 0.003962
25 0.004981
25 0.005984
29 0.005984
38 0.00698
42 0.00698
43 0.006983
45 0.006981
54 0.006981
68 0.006979
77 0.006981
91 0.006981
97 0.006983
106 0.006982
119 0.005988
126 0.005984
135 0.005983
150 0.005984
155 0.004988
116 0.006028
53 0.005017
38 0.004987
38 0.005016
41 0.004019
52 0.00299
57 0.002025
56 0.000998
59 0.0
70 0.0
80 0.0
93 0.0
101 0.0
113 0.0
122 0.000936
130 0.000998
141 0.000998
154 0.0
162 0.0
145 0.0
104 0.0
54 0.001995
50 0.003993
59 0.006008
68 0.005984
76 0.006969
75 0.006016
73 0.005031
79 0.005037
86 0.00504
101 0.004986
113 0.002016
121 0.002997
133 0.001039
144 0.000998
151 0.001001
164 0.001006
174 0.0
164 0.000999
88 0.0
63 0.0
57 0.0
67 0.000957
78 0.0
86 0.000999
83 0.000998
80 0.000998
87 0.000962
96 0.001005
110 0.001995
123 0.001999
133 0.001962
141 0.002992
152 0.002958
159 0.00399
171 0.005012
180 0.004972
162 0.005985
94 0.006991
76 0.00798
61 0.00701
71 0.006983
79 0.006946
89 0.006979
86 0.006013
84 0.003953
91 0.00301
106 0.004001
117 0.001996
128 0.000999
139 0.0
146 0.0
156 0.0
164 0.0
181 0.0
186 0.0
143 0.002004
86 0.001996
60 0.002001
63 0.002967
77 0.002993
91 0.004986
91 0.006012
86 0.006017
86 0.005029
95 0.005987
112 0.005965
122 0.005991
135 0.005972
142 0.007983
149 0.007979
161 0.006982
170 0.006976
182 0.00702
149 0.007979
90 0.007027
57 0.006986
56 0.006981
64 0.007028
83 0.006985
88 0.005986
82 0.005028
79 0.003993
85 0.003989
100 0.002992
115 0.003025
122 0.003052
133 0.002992
140 0.002999
152 0.000999
168 0.0
172 0.000985
123 0.001037
59 0.001003
46 0.000998
51 0.001994
69 0.002034
76 0.002044
75 0.002955
70 0.002998
70 0.004042
82 0.005022
93 0.005985
108 0.007993
118 0.006975
124 0.007973
136 0.007005
152 0.006977
159 0.007003
123 0.007009
78 0.006972
33 0.004985
33 0.004996
41 0.005008
58 0.004027
62 0.00495
58 0.003989
55 0.004979
64 0.00399
79 0.004986
94 0.004984
103 0.004974
116 0.002978
128 0.001011
134 0.001994
148 0.0
155 0.0
126 0.0
46 0.0
17 0.0
10 0.0
17 0.0
26 0.0
35 0.000993
36 0.001999
39 0.002923
51 0.002991
61 0.002988
80 0.003032
95 0.003044
102 0.004019
117 0.00499
128 0.005019
138 0.004989
151 0.005975
131 0.007006
99 0.007975
16 0.00798
5 0.007971
9 0.007967
15 0.005016
25 0.006012
35 0.004958
36 0.005024
38 0.005012
54 0.00399
65 0.003991
82 0.003991
98 0.004028
106 0.003995
119 0.002988
132 0.004023
140 0.003017
152 0.003989
166 0.002984
161 0.001035
83 0.000963
41 0.000995
15 0.00299
17 0.001997
26 0.001996
37 0.002989
41 0.002019
40 0.002025
47 0.002963
55 0.004027
73 0.004981
90 0.004986
99 0.004976
113 0.005002
125 0.004988
133 0.004987
146 0.005023
154 0.005014
170 0.004991
164 0.006027
116 0.006012
41 0.005984
23 0.006985
29 0.006983
40 0.00701
52 0.007007
55 0.006997
52 0.007021
55 0.007006
67 0.007978
76 0.007946
95 0.005982
111 0.004984
124 0.002983
131 0.002994
143 0.003032
149 0.003025
164 0.002995
180 0.003035
183 0.003018
111 0.001995
62 0.001031
31 0.0
38 0.001025
49 0.0
65 0.000997
67 0.0
64 0.000998
66 0.001993
79 0.003054
93 0.004019
106 0.003994
121 0.005011
130 0.006019
143 0.005988
150 0.006008
163 0.006012
180 0.005977
191 0.005983
167 0.005953
80 0.007017
46 0.007013
38 0.006977
46 0.006982
67 0.007008
76 0.007002
75 0.006943
74 0.007012
80 0.006988
88 0.006977
107 0.006014
118 0.00496
134 0.004022
147 0.003005
156 0.004019
167 0.002999
181 0.003003
192 0.002031
200 0.001037
117 0.000997
82 0.000998
37 0.0
38 0.0
56 0.0
77 0.000979
79 0.00097
73 0.001997
73 0.004023
81 0.00399
102 0.006009
117 0.005986
130 0.006975
142 0.007015
153 0.007971
160 0.006948
174 0.006979
184 0.007014
192 0.00501
112 0.00402
65 0.004987
36 0.003051
50 0.000993
65 0.000962
86 0.001027
83 0.000997
77 0.000996
80 0.000984
90 0.000997
111 0.001007
127 0.0
136 0.0
149 0.001024
161 0.001006
170 0.00199
189 0.002992
187 0.002963
118 0.002962
53 0.002994
32 0.004017
37 0.004989
59 0.005016
74 0.005025
77 0.006979
68 0.007009
69 0.007018
82 0.006013
102 0.006018
115 0.006008
131 0.006047
145 0.003998
153 0.003981
169 0.002985
178 0.00399
139 0.002991
65 0.00302
20 0.000997
14 0.001963
29 0.002032
44 0.00199
59 0.001995
57 0.0
55 0.0
64 0.000997
81 0.000998
97 0.000998
117 0.000998
127 0.001996
142 0.002973
157 0.003005
166 0.002993
183 0.002949
183 0.002996
94 0.003991
13 0.004929
0 0.005017
0 0.00496
9 0.006031
19 0.006018
29 0.005987
32 0.005962
39 0.007038
52 0.008
66 0.006966
81 0.007015
101 0.006978
111 0.005977
126 0.005014
142 0.00402
155 0.005014
169 0.004015
135 0.005019
43 0.003988
3 0.003041
2 0.002954
16 0.003006
30 0.002987
43 0.003004
46 0.002994
51 0.002993
64 0.003021
75 0.003022
98 0.002981
112 0.00402
124 0.00203
138 0.00297
154 0.003025
163 0.00298
179 0.002992
189 0.003022
139 0.001034
65 0.0
28 0.0
25 0.0
44 0.000964
60 0.000962
71 0.000987
72 0.000979
73 0.001
86 0.001
97 0.001006
117 0.001001
135 0.001989
143 0.002958
157 0.00296
166 0.003955
179 0.003978
197 0.003989
204 0.003983
142 0.003943
71 0.003991
45 0.005014
49 0.005959
61 0.005997
86 0.005954
93 0.006043
88 0.006967
88 0.006943
102 0.007026
113 0.007012
132 0.006947
139 0.00698
153 0.005987
167 0.005008
174 0.003989
189 0.002015
201 0.002981
183 0.001984
110 0.002985
52 0.003009
49 0.002979
66 0.002992
82 0.002981
101 0.002995
96 0.001946
92 0.003045
99 0.000969
110 0.001995
125 0.0
143 0.0
151 0.0
164 0.000997
178 0.001996
186 0.001972
200 0.003009
151 0.003942
95 0.004932
46 0.004983
52 0.006947
60 0.006987
87 0.006947
98 0.007943
93 0.006961
91 0.00796
97 0.006028
110 0.007964
127 0.007985
138 0.006986
153 0.004968
167 0.003986
176 0.004979
191 0.003989
187 0.00502
104 0.00399
40 0.003976
34 0.00302
51 0.002991
68 0.003
89 0.002981
86 0.002993
81 0.002987
87 0.002991
102 0.004026
118 0.002063
133 0.000997
147 0.000951
155 0.000986
172 0.001995
186 0.002023
164 0.001996
90 0.003952
37 0.003993
26 0.004024
42 0.004989
60 0.004992
80 0.005026
77 0.004954
75 0.004971
82 0.005936
92 0.005985
113 0.006013
129 0.006949
138 0.006989
152 0.006982
171 0.006982
181 0.007031
148 0.007979
88 0.007025
27 0.004001
24 0.003987
40 0.003008
63 0.002993
79 0.001996
76 0.000999
70 0.000959
79 0.000995
95 0.000951
111 0.0
128 0.001028
137 0.000957
153 0.001996
171 0.003991
182 0.003991
138 0.004032
50 0.004989
26 0.005952
28 0.007025
49 0.005987
69 0.005955
81 0.006014
74 0.006
70 0.005993
80 0.007006
97 0.006023
114 0.006958
128 0.006021
139 0.005991
154 0.006012
163 0.005984
181 0.003987
136 0.002006
77 0.003021
24 0.001998
29 0.000963
45 0.0
75 0.0
81 0.0
77 0.000962
71 0.000997
81 0.0
99 0.000986
119 0.0
129 0.0
143 0.0
151 0.0
167 0.0
184 0.0
173 0.0
80 0.0
37 0.0
20 0.0
35 0.000984
52 0.00101
75 0.000999
76 0.000997
68 0.000999
75 0.000971
86 0.000991
109 0.000998
127 0.001013
137 0.000992
151 0.00203
161 0.002024
176 0.001996
194 0.001965
188 0.001995
91 0.002041
36 0.001996
2 0.001995
10 0.004026
24 0.004022
41 0.004026
50 0.005027
50 0.005009
56 0.005029
66 0.005029
88 0.006982
108 0.006984
119 0.007007
135 0.006972
149 0.006983
155 0.006964
171 0.006981
183 0.007004
184 0.006997
83 0.006991
31 0.005992
3 0.007016
8 0.007021
26 0.006022
49 0.007963
54 0.007007
54 0.007973
61 0.006985
72 0.005975
95 0.004987
117 0.003004
129 0.002961
146 0.000996
160 0.000963
164 0.0
179 0.002028
195 0.002024
209 0.002031
176 0.003958
69 0.005028
33 0.004986
26 0.007008
40 0.005026
54 0.005022
73 0.00502
75 0.005984
74 0.004017
82 0.00403
97 0.003001
115 0.003989
136 0.002971
146 0.003032
162 0.00302
176 0.001994
184 0.003011
198 0.001052
209 0.002962
227 0.000986
163 0.001001
97 0.000997
44 0.000998
43 0.001007
65 0.000967
93 0.001032
101 0.0
95 0.000995
94 0.0
100 0.0
121 0.000998
134 0.000999
153 0.000967
171 0.000999
180 0.000998
195 0.000968
205 0.000999
216 0.000964
232 0.000998
232 0.001996
158 0.001962
67 0.001999
50 0.001994
63 0.001997
79 0.001997
110 0.001996
110 0.001958
104 0.002942
105 0.001981
122 0.002944
135 0.003998
156 0.004969
165 0.005991
181 0.006975
195 0.007016
203 0.006978
221 0.006943
232 0.007939
218 0.004986
131 0.004984
56 0.002027
48 0.001993
66 0.001995
100 0.000997
113 0.001978
110 0.001033
105 0.002014
109 0.002005
128 0.0
143 0.0
166 0.0
184 0.0
195 0.0
207 0.00099
221 0.0
242 0.00097
209 0.000958
135 0.000999
55 0.0
45 0.0
64 0.0
100 0.002961
116 0.004987
111 0.004989
101 0.004979
104 0.004975
119 0.004957
143 0.004982
156 0.003994
173 0.004976
182 0.004947
197 0.004948
217 0.00596
223 0.006027
140 0.005928
46 0.006949
33 0.006989
37 0.006979
53 0.00703
85 0.006978
94 0.007978
82 0.005978
74 0.007974
85 0.006976
99 0.006964
122 0.006971
133 0.006959
148 0.006982
162 0.006013
171 0.006987
188 0.002972
123 0.002972
59 0.002
7 0.001993
8 0.001986
31 0.002016
62 0.001995
68 0.002051
59 0.001993
56 0.001032
67 0.001002
82 0.002958
99 0.000985
114 0.001984
127 0.002003
135 0.002011
151 0.002014
161 0.001999
141 0.001938
40 0.0
2 0.000959
60 0.0
68 0.001005
76 0.001995
86 0.003981
85 0.003958
84 0.004953
90 0.004986
96 0.00497
107 0.005997
114 0.006946
121 0.006981
128 0.006977
134 0.006989
139 0.006983
145 0.006961
119 0.006981
81 0.004985
62 0.006003
63 0.005028
70 0.004963
84 0.003983
87 0.00399
87 0.002988
89 0.001988
95 0.002989
105 0.001995
112 0.003
121 0.001962
128 0.001986
132 0.002009
139 0.001004
148 0.000988
151 0.000989
116 0.001964
98 0.000945
71 0.0
74 0.0
80 0.0
93 0.001974
97 0.002945
96 0.004006
99 0.004021
105 0.004979
114 0.005002
121 0.004973
128 0.004949
134 0.005013
141 0.00494
145 0.004949
152 0.004972
171 0.005982
163 0.006975
103 0.006969
85 0.007941
69 0.007008
80 0.005983
89 0.005996
102 0.004986
102 0.004961
103 0.004996
109 0.003988
117 0.003994
130 0.004002
139 0.005992
147 0.003994
155 0.004978
163 0.005009
168 0.004958
180 0.005014
185 0.004963
159 0.004986
105 0.000987
90 0.00303
95 0.000956
110 0.0
120 0.0
125 0.0
124 0.0
126 0.0
136 0.0
143 0.000997
153 0.000987
163 0.0
168 0.000995
176 0.003948
185 0.003974
190 0.003964
201 0.00395
194 0.003987
136 0.00398
108 0.003956
106 0.003949
116 0.00495
129 0.003991
138 0.005985
137 0.005974
134 0.004994
137 0.003988
147 0.002995
158 0.002961
164 0.00298
173 0.001044
178 0.001002
184 0.0
190 0.000972
201 0.001967
204 0.001994
159 0.002004
126 0.001982
108 0.001994
117 0.00198
130 0.001995
145 0.001964
147 0.001966
141 0.00197
140 0.002968
144 0.003963
156 0.006032
166 0.006977
169 0.007977
177 0.007022
182 0.005991
186 0.005987
196 0.004983
204 0.004987
186 0.004994
125 0.004989
107 0.004988
109 0.004992
121 0.005016
136 0.003982
143 0.004971
137 0.00399
134 0.003029
138 0.00204
149 0.0
154 0.0
162 0.0
167 0.000971
172 0.0
178 0.0
182 0.0
191 0.001988
156 0.001983
117 0.002956
85 0.001995
85 0.002992
97 0.004975
111 0.004993
114 0.004986
111 0.004997
109 0.004966
114 0.004939
124 0.004987
130 0.004954
140 0.005007
146 0.005986
153 0.006942
158 0.006949
166 0.00694
173 0.006918
163 0.006975
121 0.006977
71 0.00698
63 0.006959
70 0.007938
80 0.006962
90 0.007979
92 0.006037
89 0.005984
89 0.005033
98 0.003019
109 0.002954
116 0.00199
125 0.002008
132 0.003957
139 0.001982
145 0.004002
153 0.002032
162 0.002983
144 0.002992
103 0.002991
60 0.003991
57 0.003034
68 0.002992
83 0.001001
89 0.001995
88 0.000991
87 0.00097
90 0.001967
99 0.0
107 0.0
119 0.0
130 0.001039
134 0.001996
143 0.002042
154 0.001995
161 0.001996
166 0.002992
112 0.003953
80 0.004993
66 0.006018
76 0.006983
85 0.006963
103 0.007018
105 0.006936
101 0.006976
103 0.007033
109 0.006983
120 0.007951
126 0.007981
139 0.006926
149 0.005974
154 0.007011
164 0.004987
177 0.004028
184 0.003013
145 0.002982
92 0.003001
83 0.003011
91 0.001989
106 0.000968
120 0.000971
124 0.001032
119 0.0
118 0.001004
127 0.000998
135 0.000998
149 0.001
158 0.002034
166 0.001996
173 0.00198
182 0.002036
193 0.002029
191 0.002032
154 0.001997
99 0.003991
91 0.00399
98 0.00399
117 0.00397
127 0.004981
125 0.00499
118 0.006981
120 0.006991
131 0.006947
141 0.00697
150 0.006984
155 0.007965
161 0.00702
166 0.007017
178 0.005022
184 0.005031
152 0.005025
96 0.002991
83 0.003976
88 0.002025
106 0.001023
115 0.000994
115 0.001985
109 0.001981
107 0.000999
118 0.001962
127 0.001996
138 0.001997
145 0.0
148 0.0
157 0.000998
168 0.00199
162 0.003004
109 0.001995
86 0.002993
81 0.002963
92 0.002993
108 0.002994
117 0.004988
112 0.00502
109 0.004958
114 0.00502
121 0.005018
134 0.00701
143 0.00696
149 0.004959
153 0.005016
163 0.004994
168 0.004986
147 0.004016
92 0.004
76 0.002983
79 0.00099
90 0.003039
102 0.001952
106 0.001024
102 0.0
102 0.0
110 0.0
117 0.0
129 0.0
136 0.0
142 0.000999
148 0.002992
157 0.001998
162 0.002992
149 0.002992
112 0.002963
68 0.002994
64 0.002995
69 0.00398
78 0.004997
87 0.006025
87 0.005985
87 0.00599
93 0.006998
99 0.005014
110 0.003025
119 0.005013
125 0.001941
130 0.004023
137 0.001995
144 0.003989
155 0.004041
153 0.004016
102 0.00399
66 0.002019
64 0.003028
72 0.001992
76 0.001995
88 0.0
91 0.001047
90 0.0
94 0.000998
104 0.000993
111 0.002952
121 0.003021
130 0.002992
136 0.003021
143 0.002954
147 0.002987
155 0.00403
166 0.003955
172 0.003957
143 0.004019
98 0.004987
78 0.006985
80 0.006982
84 0.006974
94 0.007978
104 0.007013
104 0.007009
104 0.007021
110 0.004988
114 0.007011
126 0.004986
135 0.003023
140 0.002984
147 0.003
152 0.002993
159 0.001992
167 0.001938
173 0.002002
182 0.001996
160 0.004029
110 0.002944
87 0.00199
88 0.0
96 0.001028
110 0.001029
115 0.001052
113 0.000996
113 0.0
118 0.0
126 0.000993
136 0.002031
143 0.002966
150 0.002994
155 0.00399
162 0.003954
170 0.004015
173 0.005015
185 0.006011
183 0.00601
150 0.006012
98 0.005984
91 0.006026
99 0.006973
113 0.006952
120 0.006984
121 0.006989
117 0.007007
118 0.007979
124 0.007007
131 0.007979
144 0.007022
152 0.004001
157 0.004026
166 0.001997
171 0.001967
176 0.0
186 0.0
191 0.0
165 0.0
107 0.0
91 0.0
94 0.000998
108 0.001962
118 0.001995
123 0.004019
117 0.003987
116 0.00499
123 0.005984
133 0.005966
142 0.006023
149 0.006024
156 0.007028
160 0.007021
167 0.006983
173 0.00697
185 0.007022
179 0.006981
133 0.006938
89 0.006973
86 0.005985
92 0.00501
110 0.003954
120 0.003
116 0.002991
112 0.002999
116 0.003012
127 0.002981
137 0.004021
147 0.000986
152 0.00203
160 0.001979
165 0.00199
173 0.000998
180 0.000955
187 0.000995
148 0.0
95 0.0
70 0.0
72 0.0
76 0.0
89 0.0
94 0.0
94 0.0
97 0.001
102 0.000998
113 0.002018
127 0.002993
134 0.002992
144 0.002993
149 0.002958
158 0.002995
168 0.00295
176 0.003952
160 0.003982
108 0.005984
73 0.006985
67 0.007015
74 0.006974
82 0.007025
94 0.007012
96 0.006972
97 0.007014
102 0.004984
107 0.007
121 0.004968
128 0.005972
139 0.00497
148 0.004017
154 0.003997
163 0.004025
173 0.004001
180 0.001994
160 0.001966
110 0.002997
79 0.000997
76 0.001989
83 0.002006
95 0.00197
104 0.00201
103 0.001993
104 0.001961
108 0.002007
119 0.001988
129 0.0
139 0.001994
146 0.00198
154 0.001964
160 0.004004
168 0.005991
178 0.005981
185 0.005975
169 0.005984
108 0.005952
86 0.005975
84 0.005979
92 0.006999
107 0.006968
114 0.006957
112 0.006023
111 0.004971
116 0.007
124 0.005005
135 0.007014
144 0.004986
151 0.006981
159 0.005985
164 0.005989
172 0.005979
181 0.003989
188 0.003989
169 0.001995
109 0.0
89 0.0
88 0.0
98 0.000995
109 0.001989
118 0.001954
116 0.001989
115 0.00199
122 0.001995
129 0.001961
142 0.001999
151 0.00299
157 0.00399
165 0.003985
171 0.004987
178 0.006979
186 0.006983
191 0.006981
148 0.006983
96 0.006977
87 0.00698
93 0.004987
108 0.004985
118 0.002993
121 0.002998
117 0.002954
119 0.002998
130 0.002988
137 0.00299
149 0.002986
157 0.003992
163 0.001008
169 0.002026
178 0.002034
185 0.002028
190 0.002002
152 0.000997
104 0.000998
85 0.001996
89 0.002984
102 0.003991
119 0.004985
121 0.005015
115 0.005988
118 0.006965
124 0.007013
137 0.006962
147 0.00698
153 0.006991
161 0.006997
166 0.007
174 0.00602
185 0.00596
189 0.005981
141 0.005973
90 0.00797
83 0.005985
89 0.00702
104 0.005999
118 0.006945
118 0.006981
114 0.007021
115 0.005031
126 0.001995
134 0.002993
146 0.0
155 0.0
158 0.0
165 0.010036
171 0.0
183 0.0
160 0.0
119 0.0
76 0.0
78 0.000966
88 0.002942
107 0.004017
111 0.00495
107 0.004988
103 0.004987
109 0.004991
123 0.004988
135 0.004992
142 0.004931
149 0.005026
155 0.005013
162 0.006981
173 0.00702
175 0.008025
131 0.007978
69 0.006981
56 0.007976
62 0.00602
70 0.007974
87 0.00599
89 0.005989
90 0.005982
93 0.003975
105 0.003983
114 0.004005
127 0.003988
136 0.00403
143 0.001047
151 0.001999
161 0.002021
169 0.002023
147 0.002007
101 0.001999
49 0.000997
44 0.001954
50 0.001995
59 0.002959
72 0.00402
75 0.004018
76 0.004982
84 0.006021
93 0.00601
109 0.005988
121 0.00697
128 0.006979
138 0.006987
142 0.006985
154 0.006946
166 0.006975
170 0.006979
101 0.006983
75 0.005951
45 0.005972
51 0.006981
61 0.004986
74 0.004988
82 0.005006
82 0.003988
85 0.002993
97 0.000999
107 0.001995
118 0.000998
131 0.000999
138 0.002992
148 0.003969
157 0.004048
164 0.004016
177 0.003965
182 0.003988
130 0.00502
69 0.005987
57 0.005998
64 0.005972
79 0.004008
93 0.006028
96 0.003945
95 0.004983
97 0.003
106 0.003026
122 0.002998
131 0.00299
144 0.001995
154 0.000999
160 0.001
169 0.0
176 0.0
190 0.0
189 0.000995
119 0.002992
83 0.002993
66 0.002994
73 0.002958
92 0.002979
108 0.005019
107 0.00598
103 0.006954
104 0.005987
114 0.004934
128 0.005985
142 0.003998
150 0.003981
161 0.004018
170 0.001964
175 0.003989
186 0.002
193 0.004031
202 0.001991
135 0.001995
94 0.001991
70 0.001019
76 0.000962
96 0.000997
116 0.000967
115 0.0
106 0.0
107 0.001995
115 0.000999
132 0.001996
147 0.004034
153 0.004992
165 0.005937
172 0.00702
178 0.006984
186 0.006996
200 0.007007
204 0.007007
138 0.007979
94 0.007982
69 0.007979
78 0.006026
96 0.007934
114 0.005035
114 0.003988
107 0.003994
103 0.003984
111 0.003987
129 0.003987
144 0.003983
151 0.003
161 0.004
165 0.003027
175 0.003005
187 0.004966
195 0.003021
152 0.004964
72 0.004987
53 0.004024
58 0.001956
77 0.000969
92 0.0
98 0.0
93 0.0
90 0.000972
100 0.000997
111 0.000992
129 0.000999
143 0.000997
150 0.001995
161 0.001995
167 0.002992
179 0.003943
193 0.003994
176 0.004003
79 0.003947
31 0.00398
28 0.003967
40 0.00395
49 0.004941
64 0.006973
66 0.006936
64 0.006963
70 0.006959
80 0.007958
96 0.007978
110 0.004981
124 0.002001
132 0.003994
143 0.002026
154 0.001984
162 0.002011
176 0.002015
155 0.000985
67 0.0
27 0.0
25 0.0
38 0.0
56 0.0
65 0.0
67 0.001995
67 0.002957
73 0.002949
90 0.003986
104 0.003967
116 0.00402
127 0.003929
136 0.003944
146 0.003992
157 0.003955
166 0.005021
178 0.006949
135 0.007008
68 0.007964
38 0.005981
38 0.007938
53 0.005984
75 0.004986
81 0.004986
80 0.004971
80 0.004985
87 0.004986
104 0.004995
114 0.004989
130 0.003987
140 0.005976
149 0.00399
158 0.005982
167 0.003997
180 0.006022
168 0.005983
116 0.00598
55 0.004989
47 0.005015
60 0.003003
85 0.00298
97 0.001994
96 0.001962
91 0.0
95 0.0
111 0.0
125 0.000989
135 0.0
148 0.000965
160 0.000991
166 0.001014
180 0.001957
189 0.001953
172 0.002994
102 0.002988
60 0.00399
54 0.004941
72 0.005987
88 0.005963
104 0.005959
96 0.006968
92 0.007979
97 0.006028
110 0.007996
123 0.004986
139 0.00399
146 0.002992
156 0.001993
167 0.001996
176 0.000997
183 0.0
129 0.001997
74 0.0
56 0.001994
68 0.001983
82 0.002006
105 0.001994
105 0.002945
95 0.002969
95 0.002992
105 0.002994
118 0.00301
135 0.002965
141 0.002959
151 0.002969
158 0.002986
174 0.002992
176 0.002994
138 0.003025
75 0.003948
64 0.005014
72 0.006033
95 0.005954
109 0.005945
107 0.00598
98 0.006
99 0.006975
111 0.005027
125 0.005988
137 0.004019
144 0.005017
153 0.004998
159 0.004998
172 0.005031
167 0.005037
99 0.003989
58 0.002017
58 0.003993
71 0.001029
91 0.001996
97 0.001992
93 0.001989
91 0.001025
98 0.00203
112 0.0
121 0.0
134 0.000957
141 0.0
147 0.0
159 0.0
167 0.000998
140 0.001964
69 0.002993
48 0.004021
47 0.005993
54 0.00602
65 0.005961
74 0.006983
75 0.007953
75 0.007954
83 0.00797
94 0.005984
104 0.006937
115 0.005014
121 0.006992
132 0.004991
143 0.004994
151 0.004007
151 0.002994
88 0.001994
59 0.001994
48 0.0
54 0.001995
65 0.001996
76 0.002023
81 0.0
81 0.001998
86 0.002027
92 0.0
106 0.0
117 0.0
125 0.0
134 0.002986
143 0.002994
149 0.00399
161 0.00503
168 0.005035
139 0.005021
77 0.005024
64 0.006008
66 0.00697
77 0.006981
87 0.00697
97 0.006973
95 0.006022
97 0.005984
106 0.003993
115 0.005
124 0.005014
135 0.004986
143 0.003973
151 0.00203
159 0.000953
164 0.0
174 0.0
183 0.000999
163 0.000999
98 0.002946
76 0.002993
80 0.002993
94 0.00399
111 0.005017
112 0.004963
109 0.005982
113 0.005991
117 0.00698
130 0.005987
139 0.005989
151 0.005981
161 0.007986
166 0.005952
174 0.007979
182 0.007016
190 0.005013
197 0.005002
168 0.004979
103 0.004987
88 0.002924
93 0.004986
111 0.001998
129 0.0
128 0.000999
124 0.0
124 0.001996
131 0.002029
147 0.001996
160 0.002992
166 0.003992
175 0.005989
185 0.005944
191 0.005981
203 0.006994
211 0.006988
191 0.004985
131 0.005978
97 0.006033
97 0.005984
114 0.00599
127 0.00598
140 0.005984
132 0.00302
129 0.005016
135 0.003988
143 0.006
158 0.001988
169 0.001983
174 0.001996
183 0.000986
193 0.000957
201 0.001998
207 0.001969
174 0.002005
116 0.0
89 0.001981
95 0.0
111 0.0
133 0.0
135 0.001005
122 0.0
119 0.0
128 0.000952
141 0.000998
151 0.00101
159 0.000984
167 0.001001
172 0.002992
185 0.00294
193 0.002948
146 0.00299
83 0.004949
71 0.004957
80 0.004948
101 0.004991
113 0.004983
113 0.006981
106 0.006976
106 0.006973
117 0.003985
130 0.00498
141 0.001967
151 0.003956
161 0.002
167 0.001994
177 0.001972
187 0.0
177 0.0
109 0.001012
57 0.000975
43 0.001018
52 0.001994
60 0.002992
76 0.002959
79 0.002991
79 0.002952
83 0.003962
96 0.005977
102 0.00698
119 0.006049
131 0.005991
138 0.005964
148 0.005965
157 0.006007
170 0.005999
134 0.007965
73 0.005996
41 0.00798
43 0.006003
55 0.006981
75 0.004977
81 0.004945
82 0.004984
84 0.002962
90 0.004944
106 0.002952
116 0.00496
131 0.002985
142 0.002963
147 0.002975
158 0.001998
172 0.0
176 0.0
119 0.0
77 0.0
51 0.0
59 0.001993
73 0.000964
89 0.0
94 0.001988
90 0.003954
90 0.004982
100 0.004937
110 0.004988
124 0.004961
134 0.004981
140 0.004993
149 0.004952
156 0.004988
169 0.005987
163 0.005932
123 0.005968
69 0.005984
59 0.006016
66 0.005959
86 0.006
98 0.004983
99 0.004
96 0.00596
98 0.00399
109 0.005973
123 0.004973
130 0.004992
140 0.002981
149 0.001962
155 0.002983
166 0.0
174 0.002018
163 0.0
100 0.0
77 0.0
77 0.000948
86 0.0
105 0.001018
117 0.0
114 0.0
111 0.000999
120 0.001999
128 0.002992
143 0.003991
153 0.005954
159 0.006953
166 0.006972
174 0.00798
185 0.006011
190 0.007968
139 0.007942
110 0.007953
97 0.007977
102 0.007024
121 0.005967
140 0.004001
140 0.006017
135 0.002975
139 0.003021
145 0.002998
158 0.002958
165 0.003008
174 0.002953
181 0.002024
187 0.001961
198 0.002015
206 0.002992
187 0.002012
139 0.001999
115 0.00102
118 0.001983
136 0.002034
150 0.001997
157 0.001954
152 0.002016
147 0.0
153 0.0
163 0.000997
172 0.00402
179 0.005014
182 0.005019
188 0.006971
194 0.006976
200 0.006983
207 0.005984
173 0.004959
138 0.004991
115 0.004999
127 0.004029
137 0.003988
154 0.004024
155 0.003985
147 0.003997
145 0.005967
153 0.003983
163 0.005984
172 0.005957
176 0.005986
182 0.006026
186 0.005012
192 0.004986
199 0.002967
205 0.005021
178 0.00302
138 0.005031
103 0.002974
109 0.001997
116 0.001995
129 0.002031
132 0.000995
129 0.001974
128 0.002034
132 0.001978
142 0.001997
150 0.003028
156 0.001968
160 0.002992
166 0.001994
171 0.002977
180 0.002031
186 0.001996
158 0.001991
120 0.001969
88 0.002032
96 0.0
103 0.003028
115 0.0
118 0.000972
116 0.0
114 0.000999
116 0.000959
126 0.002992
136 0.003945
145 0.004953
149 0.00599
154 0.006003
160 0.006982
167 0.00399
175 0.004945
158 0.003991
118 0.004016
77 0.004018
77 0.003975
90 0.004019
105 0.001985
109 0.004018
106 0.001995
104 0.0
106 0.0
117 0.001023
125 0.0
133 0.000942
140 0.0
147 0.0
154 0.0
162 0.0
169 0.000999
173 0.001994
145 0.001034
96 0.000998
94 0.003987
104 0.003991
121 0.005979
132 0.006011
132 0.006966
130 0.007944
132 0.006982
141 0.007978
152 0.007979
163 0.004988
169 0.007007
177 0.005987
182 0.007016
189 0.004959
198 0.005005
206 0.004988
200 0.004995
166 0.005016
125 0.004041
131 0.003966
140 0.003964
155 0.001999
163 0.002026
162 0.0
160 0.002024
165 0.002011
172 0.001966
183 0.002022
189 0.001
195 0.00202
201 0.002992
207 0.004042
210 0.004977
218 0.004949
224 0.00495
213 0.005035
158 0.004959
145 0.004983
150 0.005027
165 0.004979
175 0.005014
180 0.005985
178 0.005977
175 0.006978
180 0.00698
186 0.006938
194 0.004986
200 0.004016
206 0.001994
209 0.002966
215 0.002993
219 0.002992
225 0.002992
233 0.0
134 0.002002
180 0.0
160 0.002029
160 0.000952
174 0.0
182 0.0
189 0.000988
187 0.0
183 0.000965
185 0.00102
188 0.000995
197 0.001996
203 0.001986
206 0.001996
210 0.002007
212 0.001987
216 0.002022
221 0.001933
227 0.002992
222 0.003986
181 0.004972
153 0.005961
150 0.006952
162 0.006992
169 0.006984
177 0.006943
176 0.006975
170 0.006978
170 0.004027
172 0.00697
180 0.004029
186 0.002034
190 0.001997
194 0.002
197 0.0
200 0.00096
205 0.000968
211 0.001966
211 0.000997
177 0.002001
144 0.000961
136 0.0
146 0.000993
153 0.0
162 0.000998
159 0.000991
153 0.001996
151 0.003986
157 0.003986
161 0.004984
166 0.004983
170 0.005957
173 0.006012
177 0.005984
178 0.006027
185 0.005986
191 0.005982
193 0.004958
160 0.00694
128 0.006952
120 0.00303
129 0.006964
137 0.002992
145 0.003961
144 0.003003
141 0.00299
141 0.002983
147 0.002976
152 0.002956
159 0.001997
163 0.0
164 0.001995
169 0.000997
175 0.002993
178 0.003988
185 0.005979
169 0.005949
141 0.005992
119 0.006935
126 0.005024
133 0.00503
143 0.003932
147 0.003978
146 0.002059
145 0.003947
146 0.002003
152 0.003987
160 0.00399
163 0.00295
168 0.001989
172 0.000954
175 0.001967
180 0.002944
186 0.003944
190 0.004938
179 0.004959
138 0.004989
129 0.006978
137 0.006911
151 0.003994
156 0.003977
161 0.002976
157 0.002959
156 0.001995
160 0.001989
167 0.003993
174 0.002016
175 0.003976
214 0.001035
220 0.004041
226 0.003995
232 0.003978
246 0.003974
251 0.003991
201 0.00401
151 0.002002
152 0.002973
172 0.0
192 0.000946
199 0.001022
191 0.0
186 0.0
189 0.0
198 0.000997
206 0.001999
214 0.003959
218 0.005976
225 0.006974
226 0.005036
231 0.00597
240 0.005989
236 0.002993
178 0.004946
139 0.002004
141 0.004949
158 0.001995
170 0.0
180 0.0
176 0.000959
171 0.001996
173 0.002941
182 0.002941
187 0.00295
194 0.002954
200 0.00295
203 0.002956
207 0.004983
214 0.004987
221 0.004987
205 0.004953
159 0.004948
109 0.004986
118 0.004978
124 0.004996
135 0.004985
141 0.004979
138 0.005989
135 0.005984
136 0.006026
145 0.006006
153 0.005988
158 0.005936
164 0.00499
168 0.005987
175 0.005975
182 0.00599
190 0.005975
192 0.006985
153 0.006947
95 0.006971
90 0.006005
97 0.004987
111 0.002998
123 0.001994
124 0.000996
117 0.001995
118 0.003987
122 0.002969
131 0.003016
137 0.002983
145 0.003954
152 0.002002
157 0.002987
166 0.002956
172 0.002962
184 0.001999
156 0.0
112 0.001009
78 0.0
83 0.0
94 0.0
109 0.000995
113 0.001955
108 0.002949
103 0.003996
111 0.004989
117 0.00598
125 0.005022
132 0.006029
138 0.002996
144 0.004981
152 0.004978
157 0.004978
169 0.004965
165 0.00496
109 0.002988
76 0.0
82 0.002989
101 0.0
120 0.0
121 0.0
110 0.000968
105 0.0
111 0.000998
122 0.00197
134 0.002971
141 0.003989
148 0.004975
156 0.00602
163 0.005987
171 0.005982
160 0.007021
115 0.003996
86 0.004987
95 0.004004
108 0.002994
128 0.001996
133 0.0
129 0.003004
126 0.0
129 0.0
140 0.000964
152 0.002009
157 0.001998
164 0.001961
173 0.001986
180 0.002007
189 0.002942
184 0.002988
126 0.002991
97 0.002989
104 0.003987
124 0.004987
137 0.004958
142 0.004983
140 0.005025
138 0.004995
144 0.005987
154 0.007974
161 0.00598
170 0.007962
177 0.006983
181 0.00599
190 0.004986
199 0.002
202 0.002984
160 0.000986
120 0.001
123 0.0
140 0.001009
159 0.001943
169 0.001929
167 0.002003
165 0.00199
168 0.002004
180 0.001995
187 0.001992
196 0.001996
203 0.002954
204 0.003956
212 0.003953
219 0.004992
225 0.004997
216 0.004968
170 0.004969
145 0.005014
158 0.004997
172 0.004994
191 0.004962
196 0.005006
191 0.005987
184 0.005971
189 0.006984
200 0.004991
209 0.003952
214 0.003947
219 0.003955
224 0.004029
226 0.002967
234 0.001989
237 0.001983
204 0.00201
162 0.004004
154 0.001992
169 0.003984
187 0.001985
196 0.001992
195 0.001995
189 0.000954
190 0.0
193 0.0
201 0.000963
207 0.000991
212 0.001994
217 0.001994
219 0.001981
224 0.00199
228 0.003031
227 0.003946
167 0.004949
141 0.004989
142 0.006981
154 0.006984
166 0.006941
174 0.006954
172 0.006973
167 0.006947
167 0.007011
170 0.007011
179 0.00698
184 0.006988
186 0.007014
191 0.003994
192 0.006021
198 0.003989
205 0.004011
201 0.003981
145 0.003983
119 0.003967
118 0.001989
133 0.001988
141 0.001995
148 0.001996
145 0.00302
142 0.0
142 0.001995
147 0.001995
154 0.002041
162 0.0
164 0.0
168 0.0
171 0.0
172 0.014918
183 0.00302
178 0.00499
145 0.004964
103 0.005021
110 0.004965
121 0.004994
137 0.004987
141 0.00499
137 0.004965
133 0.005978
134 0.005913
143 0.00599
152 0.005933
156 0.005984
161 0.005983
165 0.005982
169 0.005984
176 0.007978
180 0.005941
181 0.007019
132 0.006951
108 0.005977
111 0.004027
122 0.003984
143 0.004024
150 0.0
144 0.002022
138 0.0
142 0.0
150 0.000999
157 0.0
162 0.0
165 0.001003
189 0.000998
193 0.000998
203 0.000991
205 0.000998
167 0.001961
89 0.000998
88 0.000998
102 0.000988
124 0.000997
135 0.001995
131 0.001955
123 0.002022
123 0.00203
130 0.003955
143 0.003922
149 0.004026
158 0.003964
164 0.003955
170 0.003985
182 0.004988
188 0.004988
171 0.004991
114 0.004963
54 0.004986
62 0.006935
76 0.00698
93 0.005971
101 0.004965
95 0.003995
86 0.002998
89 0.003953
97 0.001994
104 0.002024
115 0.002031
120 0.0
127 0.0
132 0.0
141 0.0
146 0.0
125 0.002988
72 0.002992
19 0.002023
19 0.003025
37 0.003028
54 0.002991
55 0.002956
45 0.003963
35 0.004964
37 0.005948
47 0.00498
58 0.004985
65 0.004987
72 0.005006
76 0.00499
82 0.004995
90 0.007014
103 0.003986
100 0.007019
41 0.003996
0 0.006941
0 0.005986
0 0.006015
1 0.005017
10 0.001988
1 0.002999
0 0.0
0 0.000997
0 0.0
13 0.0
24 0.0
27 0.0
36 0.000994
42 0.00101
53 0.000998
70 0.001044
76 0.00098
13 0.000998
0 0.000998
0 0.001024
0 0.000998
0 0.000998
0 0.000961
0 0.002034
46 0.001993
43 0.002968
48 0.002966
57 0.003015
63 0.0
66 0.002992
72 0.003989
78 0.004983
83 0.004984
92 0.005971
91 0.005965
51 0.00595
25 0.005959
24 0.005987
35 0.005945
42 0.005949
47 0.005993
42 0.005933
35 0.006024
37 0.002998
45 0.002986
54 0.0
59 0.0
66 0.0
59 0.0
35 0.0
0 0.0
63 0.0
66 0.000997
73 0.002956
75 0.002993
73 0.00299
72 0.003961
74 0.004015
78 0.003988
81 0.003952
86 0.003988
90 0.00396
93 0.003955
97 0.003988
101 0.00495
104 0.004987
108 0.006981
97 0.006981
67 0.006981
56 0.007978
56 0.006979
59 0.004986
63 0.001974
63 0.004992
61 0.002024
62 0.0
64 0.0
69 0.0
74 0.0
77 0.0
81 0.0
84 0.000994
87 0.0
93 0.0
97 0.0
92 0.000963
67 0.000996
59 0.0
59 0.000998
62 0.000956
68 0.002986
71 0.00299
70 0.003988
69 0.002959
73 0.003988
76 0.003992
83 0.004029
88 0.003989
92 0.003941
97 0.003988
100 0.004026
74 0.003951
84 0.003943
86 0.004015
30 0.005967
0 0.005957
59 0.005951
67 0.005983
72 0.005992
79 0.00399
78 0.006024
77 0.003988
78 0.00601
84 0.005958
90 0.005973
97 0.004031
99 0.003043
104 0.002997
110 0.001989
114 0.003018
122 0.001984
111 0.000972
92 0.000936
77 0.002028
76 0.002041
81 0.002994
91 0.003961
93 0.004016
90 0.00399
87 0.004951
90 0.005008
98 0.004939
105 0.004985
108 0.005989
111 0.005982
116 0.00702
121 0.005983
126 0.005984
118 0.005984
100 0.00598
78 0.006022
80 0.002035
85 0.004006
95 0.001989
96 0.003983
93 0.0
91 0.0
94 0.0
102 0.0
108 0.0
111 0.000966
115 0.001997
120 0.000968
124 0.002028
131 0.001983
129 0.000968
57 0.0
20 0.0
3 0.000991
6 0.001996
14 0.002017
26 0.003951
28 0.00399
28 0.010971
36 0.005987
50 0.005949
61 0.005997
74 0.004986
89 0.004987
97 0.004988
110 0.003983
126 0.002989
131 0.002935
79 0.001993
27 0.003978
8 0.00201
9 0.002021
18 0.0
26 0.001029
37 0.000996
40 0.00299
45 0.002963
55 0.002954
74 0.005003
85 0.00498
100 0.006935
112 0.005988
122 0.006985
134 0.00598
150 0.006945
159 0.005989
125 0.005967
83 0.003036
42 0.003989
44 0.003993
48 0.002999
65 0.002953
72 0.002987
72 0.002997
79 0.004976
87 0.001995
100 0.00498
115 0.002986
127 0.00399
141 0.002951
149 0.003001
160 0.002989
174 0.0
186 0.002982
195 0.000964
151 0.000997
107 0.001029
75 0.000999
75 0.000994
85 0.001988
104 0.003991
107 0.002953
100 0.003987
105 0.00598
119 0.004984
127 0.002998
142 0.002964
152 0.003984
160 0.002983
169 0.00199
180 0.0
187 0.0
203 0.0
208 0.00099
167 0.002949
113 0.003984
89 0.006983
92 0.007979
108 0.007975
122 0.004987
122 0.007979
116 0.005028
116 0.007945
126 0.003998
142 0.003976
150 0.00399
159 0.003985
168 0.001995
175 0.002997
184 0.002031
195 0.002927
207 0.00098
193 0.002996
127 0.002993
100 0.002981
98 0.001991
106 0.0
126 0.0
133 0.0
126 0.001991
123 0.002994
132 0.004031
141 0.003994
156 0.004988
168 0.004992
176 0.006982
183 0.006964
192 0.007004
200 0.006954
206 0.002947
208 0.019947
217 0.0
80 0.005025
72 0.003994
75 0.004003
79 0.003982
94 0.003978
97 0.005979
93 0.002941
99 0.005983
112 0.00499
122 0.003988
141 0.002992
153 0.0
162 0.003985
173 0.0
181 0.002016
191 0.000995
203 0.00196
150 0.003001
104 0.002985
69 0.002992
70 0.004025
80 0.002987
98 0.003993
101 0.002986
101 0.003992
103 0.004988
113 0.004995
124 0.004948
137 0.004955
150 0.004985
165 0.005943
171 0.007986
186 0.00599
201 0.002948
208 0.003961
191 0.001958
112 0.001995
82 0.002031
76 0.001981
86 0.002957
107 0.003
119 0.001997
118 0.001988
117 0.001997
121 0.001983
136 0.000997
152 0.003007
162 0.001995
173 0.003001
186 0.001997
192 0.002032
206 0.0
217 0.002011
190 0.0
130 0.0
97 0.000993
93 0.002938
113 0.004994
129 0.004979
140 0.005988
134 0.004986
133 0.004949
144 0.004986
163 0.004987
174 0.00598
186 0.004987
191 0.005024
202 0.00503
217 0.005981
222 0.005992
205 0.005979
149 0.007976
111 0.004986
111 0.007946
124 0.004981
150 0.007951
154 0.007013
149 0.006985
141 0.006979
145 0.006983
160 0.00701
174 0.00399
179 0.006978
190 0.004001
202 0.002984
209 0.002987
217 0.001996
206 0.001991
137 0.001965
101 0.0
107 0.000965
130 0.0
148 0.001988
152 0.0
141 0.000998
137 0.001976
144 0.003036
160 0.002988
171 0.002994
181 0.002995
190 0.002994
196 0.002956
207 0.00294
214 0.003948
180 0.00299
103 0.002958
83 0.002957
87 0.003946
108 0.004987
122 0.005976
124 0.00598
115 0.005983
115 0.005984
127 0.005985
137 0.005925
142 0.001004
164 0.00295
173 0.005932
185 0.00697
195 0.006934
198 0.006966
141 0.006997
95 0.006012
63 0.006982
75 0.006985
90 0.006983
109 0.006949
109 0.007968
101 0.005985
102 0.002999
110 0.003984
127 0.002999
146 0.001049
153 0.002039
165 0.0
177 0.000996
186 0.001991
196 0.001996
137 0.003989
91 0.003988
60 0.005984
72 0.00698
88 0.006982
109 0.004008
111 0.006949
99 0.003951
99 0.004964
112 0.003976
121 0.003011
139 0.00199
154 0.0
161 0.002
172 0.00101
189 0.000998
196 0.002959
156 0.004941
81 0.006003
62 0.00595
65 0.004996
90 0.003985
105 0.003967
110 0.002003
103 0.003983
97 0.003006
103 0.00396
125 0.003992
136 0.002989
149 0.002992
162 0.0
172 0.003006
184 0.0
190 0.001995
162 0.0
78 0.0
52 0.0
53 0.0
73 0.0
88 0.000981
93 0.001998
86 0.001994
83 0.002041
95 0.00198
107 0.001946
123 0.003028
137 0.003991
147 0.003978
159 0.00499
170 0.005974
180 0.005961
135 0.005955
64 0.006945
29 0.006937
35 0.006981
48 0.006981
71 0.006956
74 0.003993
68 0.006976
66 0.003987
70 0.006965
90 0.002992
109 0.003994
120 0.003984
133 0.002958
147 0.00098
158 0.000998
169 0.000946
129 0.001042
76 0.00103
23 0.000965
28 0.001951
45 0.002004
72 0.002964
76 0.003946
67 0.004978
65 0.006937
71 0.007979
88 0.007974
102 0.007028
115 0.002964
125 0.006023
141 0.002991
160 0.003006
167 0.002968
121 0.002996
70 0.002971
25 0.000962
35 0.001003
53 0.0
80 0.0
81 0.0
74 0.0
71 0.001004
78 0.001002
99 0.002001
119 0.002997
129 0.005017
140 0.005985
151 0.006987
170 0.006951
175 0.006952
107 0.006964
70 0.00698
22 0.007041
28 0.003008
42 0.005033
67 0.00396
68 0.001995
63 0.001993
65 0.0
81 0.0
93 0.0
112 0.0
122 0.000969
133 0.0
146 0.000997
154 0.001956
171 0.002993
133 0.002982
75 0.002989
14 0.003991
7 0.004987
20 0.005947
38 0.005982
48 0.006018
47 0.006038
47 0.005918
51 0.005947
69 0.006018
89 0.005981
98 0.005953
115 0.005947
123 0.006982
137 0.005983
152 0.005008
162 0.005003
120 0.004972
35 0.004046
10 0.003952
12 0.002991
27 0.004987
49 0.0
54 0.003021
50 0.001993
52 0.0
68 0.0
84 0.001997
101 0.001995
113 0.00197
127 0.003987
136 0.004984
149 0.006979
162 0.004995
175 0.007971
145 0.004007
55 0.003986
24 0.003989
24 0.002963
42 0.004017
62 0.002001
71 0.005024
63 0.003
58 0.002962
71 0.002031
83 0.001997
103 0.0
119 0.0
128 0.0
140 0.0
151 0.0
160 0.0
178 0.0
173 0.0
90 0.0
31 0.001949
30 0.002994
50 0.003022
67 0.003042
84 0.002989
75 0.004951
69 0.004953
79 0.005951
98 0.005984
112 0.005995
130 0.004961
139 0.004988
148 0.002978
160 0.004017
176 0.004996
186 0.003981
160 0.004018
65 0.0
33 0.002992
32 0.0
46 0.003019
73 0.0
80 0.000972
75 0.000953
71 0.0
83 0.0
96 0.0
118 0.0
130 0.0
146 0.0
158 0.0
166 0.0
180 0.000968
192 0.000959
174 0.000969
66 0.002001
24 0.003963
8 0.00499
17 0.005024
30 0.005005
44 0.005001
46 0.004988
47 0.004993
53 0.005984
63 0.006013
88 0.007018
106 0.005025
119 0.00795
131 0.004995
148 0.003992
155 0.00399
176 0.003979
185 0.003992
140 0.003998
37 0.002995
11 0.002992
8 0.000997
25 0.005983
46 0.00299
55 0.003926
51 0.004047
52 0.004001
66 0.003948
80 0.003948
103 0.002045
119 0.001994
131 0.002001
146 0.000977
158 0.000998
166 0.000998
184 0.001025
199 0.003002
161 0.003981
60 0.004959
25 0.005001
33 0.004966
57 0.004986
74 0.004952
81 0.004994
67 0.004983
66 0.004964
85 0.004973
99 0.004983
120 0.004977
134 0.00598
145 0.005935
151 0.006017
163 0.005943
179 0.005963
197 0.006013
186 0.005984
86 0.005988
32 0.005983
24 0.006982
39 0.004981
62 0.007978
80 0.004984
74 0.003977
70 0.003018
78 0.002995
99 0.002966
111 0.002927
132 0.002982
142 0.001998
157 0.002998
169 0.005
182 0.002997
197 0.004
195 0.004021
140 0.004014
43 0.004027
20 0.004046
23 0.003989
38 0.000946
51 0.002992
59 0.002985
57 0.0
62 0.0
77 0.000988
86 0.000999
109 0.001991
128 0.00399
135 0.0
149 0.0
167 0.005985
179 0.004999
194 0.005968
205 0.007978
147 0.004983
60 0.007948
43 0.007922
53 0.007951
70 0.007984
85 0.008006
94 0.006977
89 0.00298
88 0.005983
104 0.003981
123 0.003991
134 0.002941
149 0.003028
162 0.000949
169 0.000971
182 0.0
193 0.0
210 0.0
199 0.004027
133 0.0
81 0.0
75 0.001995
89 0.003008
116 0.00396
123 0.00502
113 0.004966
103 0.005989
109 0.006953
119 0.00698
131 0.007956
137 0.004998
141 0.007943
142 0.004991
145 0.006981
154 0.002947
166 0.002959
125 0.0
79 0.0
45 0.0
48 0.001994
64 0.000998
81 0.002023
85 0.001026
80 0.002989
80 0.0
87 0.002972
105 0.00302
118 0.000998
132 0.00098
141 0.001995
151 0.001996
162 0.00196
172 0.001995
187 0.001996
151 0.001997
103 0.002003
68 0.002011
82 0.001995
97 0.00399
120 0.003991
119 0.005945
115 0.006973
115 0.006953
129 0.004017
140 0.002992
158 0.003988
165 0.003986
176 0.00299
183 0.004996
198 0.002989
207 0.004025
174 0.004014
131 0.004034
95 0.003053
106 0.000991
118 0.003029
140 0.0
144 0.002956
136 0.0
139 0.00097
146 0.0
161 0.0
175 0.000998
184 0.002001
197 0.003947
205 0.003989
214 0.004987
229 0.006014
227 0.004935
191 0.003002
134 0.002992
126 0.00502
140 0.002995
158 0.005001
173 0.001969
175 0.004987
170 0.003014
172 0.00299
185 0.003016
199 0.0
206 0.0
216 0.000999
226 0.001996
229 0.002992
239 0.004964
253 0.005998
255 0.006004
226 0.005941
165 0.005986
156 0.004992
165 0.005958
186 0.00499
198 0.004986
200 0.003993
192 0.003994
192 0.003952
200 0.004986
211 0.002987
220 0.004944
163 0.004006
235 0.003991
243 0.00398
249 0.004005
255 0.002956
255 0.0
255 0.00296
163 0.0
175 0.0
171 0.0
185 0.000996
203 0.0
218 0.0
210 0.001028
201 0.0
201 0.00196
210 0.001978
219 0.001995
226 0.00196
229 0.003952
233 0.003951
237 0.003943
187 0.004968
190 0.004995
191 0.006957
176 0.006986
146 0.007007
142 0.005935
147 0.00695
155 0.005956
160 0.005983
157 0.005983
152 0.004025
152 0.00398
156 0.003986
160 0.003993
164 0.003055
167 0.002992
168 0.005933
171 0.002965
175 0.004996
178 0.002992
179 0.002988
151 0.002982
135 0.002984
130 0.001993
135 0.000993
139 0.001026
144 0.002023
143 0.002004
141 0.001969
142 0.001961
146 0.001971
149 0.001937
153 0.002956
155 0.002963
158 0.003003
162 0.002934
165 0.002957
171 0.002954
171 0.002998
147 0.002994
129 0.002929
131 0.002994
136 0.002994
140 0.00399
146 0.005947
145 0.005988
144 0.00798
145 0.006968
150 0.005977
155 0.002984
185 0.004983
190 0.00299
194 0.005002
199 0.001013
207 0.0
216 0.000961
224 0.000994
193 0.0
160 0.0
145 0.0
156 0.000984
165 0.001968
180 0.001991
182 0.003945
179 0.004999
178 0.004043
183 0.004986
194 0.004986
200 0.005986
203 0.005984
207 0.006977
213 0.006018
218 0.002995
222 0.002975
231 0.0
237 0.000995
227 0.001985
176 0.002955
160 0.003955
167 0.003996
182 0.005954
197 0.005984
197 0.005988
191 0.005998
192 0.004987
195 0.004997
203 0.004027
209 0.003989
214 0.003976
220 0.006944
221 0.003977
222 0.006982
225 0.004004
233 0.004944
241 0.001995
179 0.0
157 0.0
147 0.0
152 0.0
157 0.0
165 0.0
166 0.0
162 0.0
160 0.0
163 0.000968
167 0.002995
171 0.002992
172 0.003954
174 0.00495
176 0.005945
177 0.005987
180 0.005948
182 0.005987
184 0.004951
167 0.004951
144 0.005984
138 0.006985
140 0.005977
144 0.007003
150 0.006981
151 0.006015
146 0.004987
140 0.002958
141 0.0
145 0.001025
147 0.001996
149 0.002991
151 0.002031
152 0.0
153 0.0
155 0.003022
160 0.0
160 0.002987
135 0.002948
119 0.00399
111 0.003014
111 0.001986
114 0.0
117 0.0
115 0.0
111 0.0
107 0.002
108 0.002999
112 0.003987
114 0.004987
105 0.005985
107 0.004983
110 0.001989
116 0.002029
118 0.00096
124 0.0
131 0.000995
122 0.000994
64 0.001006
30 0.001995
24 0.002965
20 0.00396
22 0.004977
24 0.00495
21 0.004987
17 0.005017
17 0.005952
21 0.007965
25 0.006981
32 0.006984
39 0.002992
44 0.005983
52 0.002991
60 0.000998
66 0.000966
76 0.000994
86 0.0
90 0.0
60 0.0
15 0.0
61 0.00099
59 0.000974
59 0.000959
60 0.001995
63 0.00199
62 0.001953
61 0.002988
64 0.003952
67 0.003988
71 0.00394
76 0.003992
79 0.004987
84 0.00798
89 0.004988
91 0.006964
96 0.003991
101 0.00693
107 0.004022
113 0.003959
107 0.004953
80 0.003986
68 0.004014
66 0.002996
69 0.001958
71 0.001995
76 0.0
76 0.002998
76 0.0
78 0.002992
83 0.0
87 0.0
93 0.0
97 0.000988
101 0.001012
104 0.001978
109 0.001959
113 0.002988
119 0.003931
124 0.003953
129 0.004982
113 0.004982
96 0.006981
83 0.005965
84 0.00595
87 0.004987
93 0.00498
94 0.00499
95 0.004985
95 0.004994
95 0.004981
81 0.004995
90 0.006012
97 0.003009
104 0.003941
111 0.003997
117 0.002944
124 0.002014
130 0.002
141 0.002993
152 0.0
155 0.002994
118 0.0
73 0.0
67 0.000998
70 0.000993
75 0.00099
87 0.001962
88 0.002028
85 0.001974
84 0.001952
92 0.001973
100 0.002947
111 0.00196
117 0.001975
124 0.002964
130 0.004954
135 0.004949
143 0.00498
149 0.00494
158 0.004952
164 0.004985
135 0.004933
103 0.010931
76 0.005955
81 0.006969
90 0.00698
104 0.004991
104 0.004983
97 0.002993
96 0.002993
102 0.0
114 0.0
123 0.0
128 0.0
135 0.0
141 0.0
145 0.001996
154 0.003992
163 0.004987
165 0.004987
130 0.004985
87 0.004988
80 0.004987
89 0.005985
98 0.004989
108 0.005015
104 0.004952
100 0.005982
101 0.005993
105 0.006022
117 0.005993
128 0.005944
131 0.005971
138 0.004987
145 0.002963
150 0.002993
161 0.001994
166 0.004987
135 0.002988
88 0.002969
63 0.003021
65 0.003019
72 0.0
81 0.0
85 0.0
81 0.0
80 0.0
84 0.001971
95 0.002991
102 0.003992
113 0.004972
122 0.005
126 0.00499
134 0.00499
146 0.004984
150 0.004953
113 0.005988
89 0.006029
56 0.003951
56 0.002958
63 0.002997
75 0.002993
79 0.005973
78 0.003006
76 0.005968
83 0.004971
89 0.005003
103 0.005015
111 0.005013
120 0.005001
129 0.002002
135 0.003958
146 0.002974
150 0.00402
117 0.0
68 0.0
57 0.0
61 0.0
72 0.00097
78 0.001042
80 0.0
78 0.000958
80 0.000961
89 0.000968
97 0.001993
109 0.000989
119 0.000972
124 0.001997
132 0.000997
138 0.000995
151 0.003955
149 0.003937
111 0.003981
71 0.003956
60 0.003955
66 0.004972
79 0.004945
89 0.005973
87 0.005962
84 0.005989
87 0.003989
94 0.004002
107 0.004945
115 0.003987
