133 0.02811
133 0.004984
143 0.002954
150 0.002993
158 0.004544
165 0.003562
170 0.004146
169 0.004752
136 0.004837
86 0.004496
67 0.00387
59 0.003042
56 0.005025
58 0.003967
63 0.003989
66 0.002989
65 0.003456
66 0.004753
70 0.004705
77 0.004732
85 0.004319
98 0.004528
107 0.004447
116 0.003989
124 0.005311
133 0.00529
143 0.003989
153 0.004253
161 0.004996
164 0.003931
143 0.00398
102 0.004987
74 0.003989
59 0.00453
57 0.00443
58 0.003731
64 0.004991
70 0.004993
73 0.00469
76 0.005029
81 0.004566
86 0.00514
94 0.005122
106 0.003946
116 0.005406
129 0.004017
137 0.005117
146 0.003987
154 0.005066
162 0.00598
169 0.004322
181 0.004949
185 0.005121
161 0.00388
124 0.0056
100 0.005098
91 0.004939
91 0.00499
97 0.005173
104 0.003989
112 0.004987
116 0.004987
118 0.004037
122 0.004038
130 0.00508
138 0.004092
144 0.004469
152 0.005517
159 0.005439
165 0.005721
173 0.005096
179 0.00398
184 0.006988
188 0.00551
176 0.003987
131 0.00641
104 0.004483
98 0.004935
99 0.00503
102 0.004987
111 0.005602
117 0.006107
121 0.00507
121 0.004987
123 0.004036
128 0.00495
134 0.005192
145 0.005699
152 0.005513
160 0.004613
166 0.005391
171 0.00498
177 0.005445
181 0.006439
180 0.005502
151 0.004028
110 0.004991
86 0.004933
76 0.005655
74 0.006271
79 0.006004
85 0.004978
92 0.004775
93 0.006054
95 0.005026
99 0.005972
107 0.004932
115 0.004984
123 0.003933
132 0.005622
139 0.004987
151 0.005106
157 0.006862
166 0.004739
171 0.004964
169 0.005811
141 0.006083
101 0.005239
78 0.00617
67 0.005039
67 0.005121
72 0.005797
80 0.006219
90 0.005624
93 0.00603
98 0.006024
102 0.004987
108 0.005021
113 0.006776
119 0.005203
125 0.00655
134 0.003991
141 0.004986
148 0.006011
155 0.006543
167 0.006198
172 0.006424
176 0.006422
157 0.005116
116 0.005891
88 0.006375
76 0.006328
74 0.005818
80 0.006013
84 0.006087
94 0.006281
101 0.006327
104 0.006334
108 0.006718
116 0.005777
123 0.005626
132 0.006172
140 0.007364
148 0.007492
158 0.006254
165 0.004983
171 0.004997
177 0.005894
183 0.005129
174 0.005952
143 0.006071
109 0.004936
101 0.004774
101 0.004943
107 0.006252
113 0.007033
121 0.005705
124 0.004988
125 0.004986
126 0.006497
132 0.006568
137 0.006742
142 0.006801
147 0.006081
156 0.006614
159 0.006006
166 0.006002
171 0.007237
167 0.006643
136 0.00598
101 0.006006
81 0.006731
74 0.005988
79 0.006783
86 0.007065
96 0.006287
100 0.005902
101 0.005915
104 0.005854
107 0.007317
115 0.006824
121 0.006154
125 0.005985
134 0.007374
143 0.005984
149 0.007106
154 0.007833
152 0.00696
120 0.007113
83 0.005988
120 0.007641
130 0.006586
129 0.00607
129 0.006823
129 0.005996
129 0.007517
129 0.005849
129 0.006981
129 0.006851
129 0.006108
129 0.005286
129 0.00725
129 0.007636
129 0.007001
129 0.006789
131 0.006393
139 0.006551
140 0.006986
79 0.006125
48 0.007143
36 0.007363
35 0.006617
41 0.006984
50 0.00603
58 0.007231
62 0.007392
63 0.006627
65 0.007012
71 0.005687
80 0.007022
99 0.006225
111 0.007395
123 0.007143
133 0.007789
148 0.007095
158 0.006746
168 0.006056
175 0.007222
174 0.007298
128 0.005994
97 0.007039
85 0.005976
87 0.007459
91 0.007274
103 0.007664
110 0.007643
111 0.007824
108 0.00648
108 0.007733
112 0.007344
119 0.007527
130 0.005947
138 0.005945
152 0.007022
160 0.007021
166 0.00663
173 0.006981
178 0.007141
158 0.006385
122 0.006683
102 0.007434
96 0.007915
99 0.007976
108 0.006984
117 0.00702
125 0.007485
122 0.007357
120 0.005941
121 0.007283
127 0.007328
136 0.007692
144 0.007464
149 0.007491
160 0.007828
166 0.007786
174 0.006783
182 0.00598
182 0.007869
146 0.007825
106 0.006847
96 0.008016
93 0.00702
97 0.006758
104 0.00711
114 0.007133
115 0.007784
113 0.00718
110 0.005984
111 0.006979
117 0.00746
127 0.00791
136 0.007529
146 0.007759
151 0.007486
163 0.006929
168 0.006799
175 0.007651
178 0.007589
153 0.007674
116 0.006958
95 0.006984
90 0.007175
93 0.005875
100 0.00722
108 0.006982
110 0.00698
108 0.007462
104 0.007175
105 0.007254
112 0.007103
117 0.008074
131 0.007792
136 0.006947
153 0.007476
157 0.007417
166 0.007405
173 0.007439
178 0.007801
165 0.007434
116 0.00706
96 0.007041
91 0.00802
92 0.007977
104 0.007157
113 0.007177
119 0.007034
115 0.007267
111 0.007213
113 0.007089
119 0.006966
128 0.007084
137 0.007679
145 0.006634
153 0.007036
160 0.006942
170 0.007391
174 0.006951
183 0.007011
158 0.007166
124 0.006557
105 0.006985
99 0.006899
103 0.005983
111 0.006434
116 0.007328
123 0.006426
119 0.005987
111 0.007158
109 0.006871
110 0.007629
117 0.007463
130 0.006901
140 0.006942
149 0.006985
162 0.007643
170 0.006123
175 0.006679
147 0.006125
100 0.006947
60 0.006645
52 0.005947
59 0.00677
71 0.006983
81 0.007406
83 0.006725
77 0.005967
71 0.007206
73 0.006809
80 0.007706
91 0.005981
104 0.006973
119 0.006531
134 0.00595
148 0.007555
158 0.007523
167 0.005086
161 0.006219
110 0.005982
42 0.004985
18 0.005986
13 0.005949
16 0.00599
22 0.006567
31 0.007046
33 0.007127
28 0.005985
29 0.006981
35 0.006525
46 0.006432
59 0.005979
74 0.005986
92 0.006627
105 0.005932
118 0.006432
129 0.005291
141 0.005908
159 0.007377
145 0.006561
71 0.006749
30 0.006204
15 0.005951
16 0.005082
22 0.006018
37 0.006299
46 0.006324
46 0.005862
43 0.006072
44 0.006081
56 0.005981
70 0.00499
92 0.004989
109 0.006127
126 0.006141
141 0.005946
155 0.006104
175 0.006938
187 0.005944
199 0.006423
210 0.006025
221 0.006419
239 0.007011
238 0.005981
155 0.006923
97 0.006638
70 0.005942
65 0.005355
69 0.005985
83 0.005408
94 0.005204
96 0.004989
91 0.004991
86 0.00571
91 0.006346
101 0.004985
118 0.005984
133 0.006254
147 0.00575
160 0.004991
173 0.004985
189 0.0056
200 0.004956
212 0.006026
223 0.005775
224 0.005453
143 0.006649
99 0.004953
80 0.00499
83 0.004953
92 0.004985
107 0.004933
120 0.005984
126 0.006558
124 0.004947
124 0.004935
130 0.004942
141 0.006221
164 0.005021
176 0.005984
195 0.00656
207 0.004982
218 0.006442
229 0.005
241 0.004993
191 0.004933
193 0.005023
177 0.005914
139 0.006014
112 0.006119
98 0.005144
99 0.005053
106 0.00495
112 0.004612
116 0.006414
116 0.005953
115 0.004031
117 0.006026
121 0.004986
128 0.004988
135 0.004997
148 0.005026
155 0.004948
161 0.005234
169 0.006039
176 0.006322
181 0.006222
184 0.004319
171 0.004989
123 0.005338
100 0.005347
91 0.005933
90 0.004341
97 0.004978
103 0.00617
108 0.005015
108 0.004036
108 0.004967
110 0.005004
115 0.004986
121 0.004552
132 0.006038
141 0.005263
148 0.004894
156 0.00558
166 0.004188
173 0.006049
179 0.004987
185 0.004998
180 0.005958
147 0.005021
114 0.004021
97 0.004033
91 0.004989
94 0.004989
100 0.00495
106 0.004955
111 0.005276
111 0.004074
111 0.004084
117 0.005508
123 0.003983
131 0.00515
139 0.00474
147 0.003988
156 0.004301
163 0.004953
185 0.004932
194 0.004024
207 0.003997
211 0.003982
194 0.004002
132 0.003956
102 0.004987
89 0.005645
87 0.004273
93 0.005022
103 0.004002
108 0.00503
107 0.003991
102 0.003992
103 0.004989
108 0.00398
118 0.00496
132 0.003987
141 0.004028
150 0.00395
159 0.003993
165 0.003994
172 0.00399
182 0.00399
186 0.003991
174 0.003997
96 0.00499
66 0.003986
56 0.003988
57 0.004341
66 0.00303
77 0.003994
83 0.004026
83 0.004019
81 0.003996
84 0.003033
91 0.004071
102 0.003978
121 0.003988
133 0.004029
144 0.004989
153 0.004419
165 0.004025
174 0.00465
182 0.003044
189 0.003033
196 0.00392
199 0.004033
164 0.003992
109 0.003952
60 0.003987
54 0.004001
54 0.005265
59 0.003993
69 0.003988
72 0.004976
72 0.004688
73 0.00399
77 0.003981
89 0.003185
101 0.003419
123 0.003035
135 0.004029
146 0.003909
157 0.003953
166 0.003212
179 0.0033
188 0.002986
196 0.002986
205 0.003977
212 0.00378
214 0.003106
180 0.003973
100 0.003989
80 0.004757
75 0.002991
78 0.003793
86 0.003043
97 0.003982
101 0.003331
102 0.004028
103 0.003999
106 0.004422
117 0.003025
129 0.002978
147 0.003399
156 0.002995
165 0.003277
174 0.004
182 0.004032
191 0.002944
198 0.002981
205 0.003986
211 0.00296
208 0.003052
154 0.002989
110 0.003029
80 0.002992
79 0.002989
85 0.004025
94 0.002953
102 0.0024
104 0.002993
102 0.004027
102 0.003002
107 0.004045
114 0.004038
128 0.002998
138 0.002996
154 0.001993
163 0.002991
171 0.003047
179 0.003994
186 0.003956
194 0.004225
197 0.003216
172 0.003026
120 0.002994
83 0.003577
63 0.002989
60 0.00294
69 0.00399
78 0.002991
82 0.003598
83 0.003028
82 0.003134
86 0.002965
93 0.002794
103 0.002967
115 0.00299
126 0.002952
140 0.003994
150 0.002835
165 0.00253
173 0.002956
180 0.001964
188 0.002994
188 0.003636
137 0.002993
94 0.002952
71 0.002984
65 0.003045
67 0.002996
77 0.003369
87 0.002297
98 0.003179
99 0.001995
102 0.002142
108 0.002142
118 0.001993
132 0.003031
143 0.002027
153 0.002963
163 0.002992
171 0.002995
183 0.001996
192 0.001983
204 0.002312
204 0.003034
172 0.003032
129 0.001941
103 0.002056
92 0.003991
96 0.003034
105 0.002957
113 0.002031
121 0.001962
122 0.002029
120 0.001996
123 0.002001
132 0.002981
141 0.003212
150 0.003031
160 0.002028
168 0.003259
178 0.002023
186 0.001978
192 0.002995
190 0.002031
159 0.002642
94 0.002033
80 0.002031
78 0.002003
86 0.002
101 0.001948
117 0.002007
126 0.002993
130 0.003001
130 0.001994
133 0.002004
139 0.002356
144 0.001959
157 0.002641
164 0.002992
175 0.003034
182 0.002001
189 0.002019
195 0.002954
190 0.001924
124 0.002996
77 0.003013
56 0.001997
50 0.002993
54 0.00203
67 0.001995
76 0.001134
82 0.002021
81 0.00198
83 0.002994
87 0.00197
96 0.001991
110 0.001992
121 0.001991
133 0.000999
144 0.000967
154 0.000997
169 0.00199
177 0.002036
185 0.001994
171 0.001996
118 0.001954
74 0.001996
53 0.001026
46 0.001999
49 0.002009
56 0.001032
63 0.001627
69 0.001814
71 0.001998
74 0.001999
83 0.002
93 0.002053
105 0.002029
118 0.000997
129 0.001979
144 0.00167
154 0.001226
164 0.001001
174 0.000979
182 0.000991
194 0.001247
187 0.000991
123 0.001268
84 0.000899
67 0.001001
65 0.001006
69 0.001143
82 0.00106
92 0.000961
97 0.000994
96 0.001959
96 0.002031
104 0.001997
113 0.001031
125 0.002033
136 0.000961
146 0.001
154 0.002006
161 0.000983
173 0.001002
179 0.00101
186 0.000998
186 0.001997
153 0.001033
86 0.00096
70 0.0
69 0.001011
77 0.000583
88 0.000971
98 0.000985
104 0.000933
107 0.001995
109 0.00094
115 0.0
123 0.000961
133 0.0
149 0.000998
158 0.0
170 0.000996
178 0.000936
185 0.000963
191 0.000941
198 0.000998
198 0.000997
164 0.001015
106 0.0
69 0.0
52 0.0
54 0.0
62 0.0
76 0.0
82 0.000805
84 0.002024
86 0.000999
92 0.0
101 0.000989
111 0.000789
123 0.000776
133 0.0
149 0.000967
158 0.001003
166 0.000998
176 0.001995
183 0.000996
186 0.000994
170 0.000997
119 0.001013
67 0.000996
54 0.0
54 0.0
61 0.0
80 0.0
88 0.0
93 0.0
96 0.0
101 0.001959
109 0.001034
120 0.0
130 0.0
140 0.0
155 0.001995
164 0.0
172 0.0
186 0.001019
194 0.000995
202 0.000986
206 0.0
187 0.000576
140 0.0
101 0.0
85 0.000966
84 0.000998
93 0.0
102 0.001001
111 0.0
112 0.0
110 0.0
111 0.0
117 0.0
129 0.000957
138 0.001008
147 0.0
156 0.000171
165 0.001038
175 0.0
181 0.002032
187 0.0
178 0.0
139 0.001
101 0.001
82 0.0
81 0.0
89 0.0
99 0.0
109 0.0
116 0.0
117 0.0
119 0.001004
124 0.000995
136 0.000999
144 0.0
152 0.0
160 0.0
169 0.0
175 0.000997
182 0.0
187 0.000925
185 0.001011
139 0.001004
90 0.0
62 0.0
55 0.0
62 0.0
76 0.000996
82 0.000994
89 0.0
89 0.001
91 0.001002
97 0.0
105 0.00058
118 0.0
128 0.0
137 0.0
151 0.0
161 0.0
168 0.000983
172 0.000964
169 0.0
135 0.00085
74 0.0
52 0.0
47 0.0
51 0.002041
60 0.001004
73 0.0
78 0.000999
77 0.0
79 0.0
84 0.0
95 0.001
106 0.002037
119 0.0
128 0.0
138 0.0
146 0.00203
153 0.001588
163 0.002032
155 0.001055
102 0.0
68 0.001
57 0.001004
53 0.001001
59 0.001035
70 0.0
79 0.0
84 0.0
82 0.001998
81 0.001001
91 0.0
101 0.001035
112 0.000979
126 0.0
136 0.001008
144 0.001964
153 0.001996
162 0.0
163 0.0
139 0.0
98 0.001003
71 0.0
63 0.001032
71 0.000996
82 0.000966
93 0.0
94 0.0
88 0.001002
85 0.001005
91 0.0
95 0.001004
107 0.0
117 0.00203
127 0.001036
141 0.001956
149 0.001033
155 0.000961
140 0.0
96 0.0
61 0.001037
47 0.000198
46 0.0
53 0.0
64 0.0
71 0.001001
71 0.000177
64 0.000226
66 0.001011
75 0.0
85 0.000997
96 0.0
106 0.001754
115 0.001039
126 0.000998
137 0.0
145 0.0
151 0.0
140 0.001275
67 0.0
40 0.001995
32 0.000209
34 0.000957
38 0.0
46 0.0
50 0.001226
49 0.000853
49 0.000959
52 0.0
59 0.0
68 0.001996
85 0.001005
95 0.001609
103 0.000974
113 0.001011
121 0.0
129 0.0
136 0.001409
131 0.00129
81 0.002059
49 0.0
36 0.0
37 0.001993
46 0.0
54 0.001994
60 0.001997
61 0.000997
60 0.000966
64 0.0
71 0.001333
80 0.001249
95 0.0
107 0.000964
116 0.0
125 0.001052
138 0.001007
146 0.000993
153 0.001954
163 0.0
173 0.00097
180 0.001012
186 0.00152
159 0.002671
93 0.0
67 0.000882
61 0.000998
68 0.0
76 0.000997
82 0.001993
82 0.001961
77 0.0
77 0.001953
81 0.0
90 0.002938
100 0.002183
114 0.001997
123 0.001008
131 0.000999
143 0.001957
150 0.000941
157 0.002002
163 0.001751
173 0.002037
181 0.000942
189 0.001957
197 0.002395
198 0.002988
139 0.001034
93 0.000998
72 0.000996
71 0.000966
75 0.0
81 0.002018
87 0.001996
88 0.002023
86 0.000957
88 0.000997
93 0.00199
101 0.00229
115 0.001039
126 0.000966
135 0.00096
149 0.000961
155 0.0
163 0.002695
171 0.002729
180 0.0
188 0.000961
197 0.000959
204 0.002952
212 0.001677
221 0.000964
226 0.000997
206 0.001939
113 0.002061
86 0.000964
80 0.001959
83 0.002992
87 0.001941
93 0.001983
97 0.002025
98 0.003048
96 0.002103
99 0.001993
105 0.001045
114 0.000994
132 0.001955
142 0.000998
152 0.00304
160 0.002992
171 0.000979
179 0.000993
186 0.000997
194 0.003319
202 0.00332
213 0.001965
220 0.000997
228 0.002036
240 0.000994
240 0.001953
199 0.002086
146 0.002992
114 0.000961
112 0.001944
115 0.000993
122 0.002992
130 0.002994
135 0.002943
133 0.001996
130 0.001961
133 0.001978
140 0.001993
150 0.003014
159 0.002585
172 0.002032
180 0.002003
187 0.001001
194 0.003382
200 0.003188
207 0.002026
213 0.002006
219 0.001995
229 0.001996
165 0.001031
199 0.00299
154 0.002989
121 0.000997
109 0.000997
108 0.001974
115 0.001997
125 0.002468
133 0.003792
135 0.002035
131 0.002953
135 0.001993
142 0.001035
152 0.000997
163 0.002956
173 0.003001
185 0.001994
193 0.00199
199 0.001994
206 0.003989
211 0.003551
219 0.002024
226 0.003994
214 0.001959
164 0.001991
122 0.001027
102 0.003989
97 0.002696
103 0.002043
110 0.00302
116 0.002958
119 0.003989
117 0.002544
113 0.002029
115 0.003991
124 0.001993
133 0.001964
142 0.001
151 0.002992
159 0.004003
170 0.002956
177 0.002008
183 0.002017
191 0.003907
199 0.003817
208 0.00226
217 0.004983
193 0.001995
140 0.001688
103 0.00203
89 0.003988
89 0.004034
95 0.001983
102 0.002737
109 0.002955
111 0.004065
108 0.004042
105 0.001957
111 0.00339
123 0.001985
134 0.002013
145 0.002046
155 0.00403
165 0.004993
176 0.002011
184 0.003003
194 0.00369
203 0.004474
212 0.005041
223 0.002983
231 0.003981
209 0.001994
153 0.001994
115 0.001959
101 0.004991
101 0.004333
110 0.003212
121 0.00296
129 0.00298
130 0.00599
125 0.004006
120 0.003019
125 0.004026
136 0.002988
146 0.00295
157 0.000958
166 0.004988
176 0.004504
187 0.0022
194 0.003193
200 0.003178
208 0.004076
214 0.004242
216 0.001996
163 0.005027
108 0.00294
93 0.002985
93 0.002714
99 0.003988
110 0.004039
123 0.00295
126 0.003876
122 0.00203
118 0.004616
120 0.004681
128 0.002727
142 0.004988
155 0.000958
165 0.002728
175 0.003044
183 0.003992
191 0.004885
202 0.00327
208 0.004005
216 0.002634
222 0.004812
209 0.004907
133 0.002988
84 0.004992
73 0.002987
76 0.001994
84 0.001982
93 0.004987
99 0.005345
96 0.002493
92 0.003429
91 0.003088
96 0.005047
106 0.004104
125 0.00402
136 0.004989
150 0.002991
160 0.003978
169 0.001982
177 0.005993
184 0.005027
194 0.002958
202 0.003442
205 0.002956
173 0.005509
111 0.00523
56 0.006016
50 0.004989
55 0.003018
62 0.003985
69 0.003954
73 0.003989
72 0.005012
69 0.002998
73 0.002955
81 0.004074
92 0.005509
104 0.005889
125 0.002991
136 0.005016
147 0.005987
159 0.003956
169 0.003954
177 0.003828
187 0.004971
195 0.005513
202 0.003974
177 0.00399
116 0.00399
70 0.005392
47 0.002986
49 0.005987
54 0.007019
64 0.002991
69 0.002991
70 0.002993
68 0.00566
70 0.00568
80 0.003353
92 0.003313
104 0.004213
117 0.005104
139 0.002987
150 0.005984
160 0.005985
173 0.002991
182 0.002956
191 0.003954
199 0.005989
208 0.006477
216 0.003937
192 0.004354
132 0.00418
88 0.00486
69 0.005009
73 0.005987
81 0.005991
94 0.002992
99 0.003959
98 0.003954
95 0.005984
97 0.005807
107 0.004378
118 0.004298
130 0.003736
143 0.006076
161 0.002984
170 0.006112
179 0.00612
191 0.004961
199 0.004341
206 0.003991
214 0.006016
218 0.004989
185 0.004022
130 0.003035
94 0.004986
81 0.005984
86 0.002991
96 0.005984
108 0.004985
116 0.00494
114 0.003832
112 0.004411
116 0.006273
123 0.007048
136 0.005094
148 0.004934
158 0.004947
168 0.006984
180 0.003953
188 0.006363
196 0.006027
206 0.004203
213 0.004987
217 0.003985
198 0.006547
138 0.006415
80 0.004875
65 0.004973
65 0.005032
75 0.004959
84 0.003986
91 0.005688
92 0.005984
89 0.003954
92 0.00539
100 0.003989
110 0.007457
121 0.006673
138 0.004796
149 0.00453
159 0.004731
174 0.004007
183 0.004986
191 0.006342
199 0.006291
206 0.004572
186 0.003943
128 0.004946
82 0.006138
61 0.006697
58 0.005263
61 0.005384
70 0.005236
80 0.003958
80 0.005029
78 0.005801
80 0.005986
90 0.005739
101 0.004948
113 0.005983
125 0.006312
137 0.00614
151 0.004945
161 0.00532
170 0.004685
184 0.004947
193 0.003945
189 0.006985
148 0.007135
88 0.004988
69 0.004988
65 0.004987
70 0.007058
80 0.006766
96 0.00632
104 0.00521
104 0.005748
103 0.004987
108 0.00495
117 0.006987
127 0.007028
141 0.005931
150 0.00497
160 0.005952
168 0.008066
176 0.008196
186 0.004625
187 0.005984
157 0.005278
85 0.006185
69 0.00494
67 0.006312
72 0.006101
83 0.007222
94 0.005945
94 0.00499
89 0.005314
87 0.006977
90 0.007512
101 0.004448
111 0.004266
130 0.004891
140 0.004757
149 0.004988
157 0.007147
165 0.007232
175 0.004987
172 0.005452
131 0.005369
79 0.007407
50 0.00788
42 0.004386
45 0.005362
57 0.004996
64 0.006009
64 0.006736
61 0.007306
61 0.006752
69 0.004987
77 0.006014
89 0.005827
101 0.006982
112 0.006864
126 0.004814
136 0.00632
150 0.004984
159 0.00598
167 0.00602
175 0.006973
160 0.006768
89 0.005586
52 0.005987
38 0.005656
38 0.007811
41 0.007831
49 0.00586
56 0.005039
57 0.006031
58 0.005688
61 0.006338
68 0.007043
79 0.007709
95 0.005892
107 0.004992
118 0.005948
128 0.007703
137 0.007369
150 0.005948
161 0.007254
173 0.005832
182 0.004949
190 0.005038
173 0.007972
136 0.007518
71 0.004986
53 0.006023
52 0.004046
57 0.007863
65 0.006934
73 0.006768
75 0.007283
74 0.005915
76 0.005951
83 0.005025
93 0.007393
106 0.007278
123 0.006528
135 0.004984
147 0.00618
158 0.007977
167 0.007966
180 0.006431
195 0.007744
204 0.005777
212 0.006115
221 0.005971
155 0.007179
240 0.007772
238 0.006544
194 0.005983
134 0.006154
101 0.007981
91 0.00765
95 0.005493
105 0.007779
114 0.006982
115 0.006984
111 0.006228
107 0.007708
111 0.007697
119 0.006218
129 0.006981
140 0.006706
154 0.007764
163 0.007715
172 0.006917
184 0.007798
193 0.006736
201 0.004987
209 0.005945
219 0.007647
222 0.007979
205 0.007129
152 0.006985
111 0.006471
96 0.007957
96 0.007949
107 0.00684
120 0.007801
126 0.0071
125 0.006773
120 0.007369
120 0.007628
123 0.007901
138 0.006973
144 0.005423
155 0.006257
168 0.006979
177 0.007092
187 0.007633
200 0.006955
208 0.007735
216 0.006938
222 0.005966
229 0.00783
213 0.007484
156 0.00692
108 0.006228
85 0.005412
81 0.006873
86 0.005989
96 0.006974
110 0.007814
112 0.005949
110 0.006969
110 0.007328
117 0.007468
126 0.007152
137 0.00499
147 0.006333
161 0.00644
170 0.007625
179 0.006984
190 0.00648
201 0.006829
208 0.006007
214 0.006085
210 0.006876
164 0.006708
108 0.007541
78 0.006981
71 0.007108
72 0.007178
83 0.005982
94 0.005994
105 0.005983
108 0.007113
109 0.006932
114 0.006483
126 0.005984
136 0.006902
148 0.007414
159 0.006736
172 0.006481
178 0.006874
190 0.00586
198 0.006208
211 0.007128
207 0.006698
170 0.005695
110 0.006165
95 0.006852
88 0.006321
94 0.007074
105 0.007086
119 0.007152
127 0.006978
128 0.006689
127 0.006459
133 0.006662
140 0.006561
148 0.006702
160 0.005982
168 0.005984
176 0.006596
184 0.00705
191 0.005983
198 0.005899
191 0.005166
149 0.006159
99 0.00499
67 0.006751
70 0.006838
80 0.006068
91 0.00693
105 0.006323
109 0.006992
108 0.006142
107 0.007028
115 0.005984
124 0.006363
134 0.006951
145 0.005687
158 0.005982
170 0.006461
177 0.005945
186 0.006261
191 0.00602
171 0.005983
112 0.00657
65 0.005778
42 0.005287
43 0.006493
49 0.005952
60 0.005958
72 0.005984
72 0.006488
69 0.006236
72 0.006168
80 0.005986
91 0.006413
103 0.006163
115 0.006156
130 0.005924
140 0.005437
150 0.005786
159 0.005727
173 0.006606
170 0.005963
127 0.005987
59 0.005908
37 0.00598
33 0.005919
37 0.006433
46 0.00602
60 0.006218
66 0.0064
67 0.00606
67 0.005473
77 0.005744
88 0.005794
101 0.006283
119 0.005685
132 0.005018
145 0.005495
156 0.006009
166 0.006223
178 0.006016
187 0.005984
196 0.005154
205 0.005757
204 0.006061
156 0.006163
98 0.005195
65 0.005502
63 0.005447
69 0.005414
81 0.005817
92 0.005224
100 0.004825
99 0.004883
98 0.005534
100 0.004944
115 0.004989
127 0.005984
138 0.006008
151 0.005773
161 0.005654
170 0.005526
178 0.00545
185 0.005295
197 0.005882
204 0.005002
199 0.004799
121 0.005048
82 0.006059
69 0.005759
69 0.005777
81 0.004767
95 0.005209
105 0.005055
108 0.005938
107 0.005455
109 0.00499
115 0.004991
124 0.005366
142 0.005096
152 0.005735
162 0.005032
170 0.00499
181 0.00517
188 0.005685
195 0.004675
200 0.005735
207 0.004366
213 0.004
212 0.004987
171 0.004987
64 0.00551
40 0.005005
34 0.005
38 0.004889
46 0.00504
59 0.005897
64 0.004715
67 0.004753
69 0.004316
73 0.003998
86 0.00401
99 0.004666
120 0.005157
132 0.005248
144 0.00502
155 0.004605
164 0.003962
176 0.005304
185 0.005025
193 0.004576
201 0.004725
208 0.004049
217 0.00387
223 0.004647
233 0.004755
239 0.004574
244 0.004359
245 0.005143
223 0.004633
127 0.005138
77 0.004957
59 0.004982
58 0.004026
65 0.004342
81 0.004991
92 0.003953
102 0.005007
104 0.004489
110 0.005338
118 0.005098
127 0.004616
142 0.004535
153 0.004234
163 0.005041
172 0.003548
181 0.003233
190 0.003035
197 0.003949
208 0.004853
211 0.004791
209 0.003985
207 0.004393
208 0.004413
214 0.004779
211 0.00399
185 0.004256
135 0.004092
100 0.003856
88 0.003733
95 0.003913
113 0.004539
123 0.004034
131 0.003991
135 0.003924
136 0.004844
134 0.002977
136 0.004295
140 0.00399
150 0.004686
159 0.003981
172 0.003469
181 0.003646
193 0.004023
200 0.003688
206 0.004006
211 0.003993
216 0.003716
204 0.002993
166 0.003399
122 0.003991
97 0.003993
92 0.002957
100 0.002988
112 0.00361
124 0.004032
129 0.004354
134 0.004
138 0.003639
144 0.003634
153 0.00374
162 0.00394
171 0.003497
179 0.004022
187 0.003033
196 0.003995
202 0.002957
209 0.003989
213 0.00299
218 0.002975
222 0.003741
220 0.002992
178 0.004062
116 0.00311
75 0.002565
60 0.003525
60 0.00434
71 0.002909
85 0.003405
96 0.003992
101 0.003991
106 0.002996
112 0.003992
120 0.002993
133 0.002993
143 0.002815
152 0.003021
161 0.002774
170 0.002747
179 0.002716
187 0.003021
195 0.00303
201 0.002993
207 0.002571
212 0.003136
210 0.00337
171 0.003992
122 0.002993
92 0.002993
83 0.002991
85 0.002986
97 0.002995
109 0.002562
116 0.003138
119 0.002612
121 0.003555
125 0.002993
131 0.003404
140 0.002994
147 0.00257
154 0.002035
160 0.002995
166 0.002992
170 0.00199
176 0.003185
179 0.002991
177 0.001994
158 0.002995
115 0.002994
79 0.002762
63 0.003001
65 0.002583
74 0.003035
85 0.002993
93 0.00199
99 0.002901
104 0.002664
109 0.003023
117 0.002747
125 0.003025
132 0.002975
139 0.00191
145 0.001995
150 0.002999
154 0.001984
159 0.002641
165 0.001766
169 0.001998
159 0.002994
113 0.001949
42 0.002026
18 0.003027
13 0.003029
17 0.001847
26 0.001996
40 0.002405
49 0.002299
53 0.001658
56 0.000997
63 0.001995
78 0.002992
89 0.003013
102 0.003012
113 0.002
122 0.002994
130 0.002995
137 0.001998
147 0.002028
153 0.001999
159 0.001997
158 0.001991
99 0.002443
50 0.001993
26 0.002176
22 0.001998
30 0.002058
41 0.00161
53 0.001996
61 0.002014
70 0.002075
75 0.001813
82 0.002509
92 0.001824
111 0.000998
122 0.002042
132 0.001947
144 0.001994
154 0.001995
161 0.00202
168 0.00165
176 0.001953
185 0.001996
191 0.001999
195 0.001996
188 0.001994
116 0.002027
75 0.001647
59 0.001997
63 0.001997
72 0.001538
82 0.002027
91 0.000999
96 0.001995
99 0.001998
103 0.002012
109 0.001771
117 0.001032
132 0.001995
141 0.002016
149 0.002032
158 0.002057
164 0.000999
170 0.00103
176 0.001
183 0.002195
190 0.00074
190 0.000996
173 0.001003
125 0.001036
64 0.002034
56 0.002049
60 0.002031
72 0.002
81 0.001589
88 0.001995
92 0.002057
94 0.002029
99 0.002001
107 0.001519
115 0.001227
123 0.0
138 0.002015
146 0.002002
153 0.001
160 0.000951
167 0.001349
172 0.000596
177 0.001
182 0.001507
179 0.001997
148 0.001996
88 0.002004
47 0.000932
31 0.000998
36 0.002012
47 0.001996
61 0.001994
69 0.001997
72 0.000653
74 0.001991
79 0.000479
91 0.001998
101 0.000666
111 0.001057
121 0.0
136 0.000508
144 0.000995
151 0.000993
159 0.001
165 0.000997
171 0.001995
175 0.000997
169 0.000998
110 0.000584
56 0.00103
32 0.000997
27 0.0
39 0.001031
52 0.000508
62 0.001034
69 0.000611
73 0.002014
77 0.001417
84 0.000997
94 0.001958
105 0.001
119 0.000987
129 0.0
138 0.0
151 0.000997
158 0.001268
164 0.000576
171 0.0
180 0.000625
178 0.000965
154 0.001032
103 0.0
63 0.001161
50 0.0
61 0.001
86 0.000999
99 0.000962
106 0.0
111 0.000998
115 0.0
120 0.000996
127 0.000964
136 0.0
145 0.000554
153 0.000508
164 0.000497
170 0.000471
181 0.001057
186 0.00104
192 0.0
196 0.001001
190 0.0
149 0.0
104 0.001
78 0.0
75 0.0
81 0.001053
96 0.00096
106 0.0
115 0.000999
118 0.000999
121 0.001
127 0.0
134 0.000462
146 0.000999
154 0.0
161 0.000999
167 0.0
173 0.000996
181 0.0
185 0.0
190 0.0
178 0.0
138 0.0
85 0.001055
57 0.0
52 0.0
61 0.0
72 0.00103
84 0.0
92 0.0
98 0.0
102 0.0
111 0.0
120 0.0
129 0.000998
138 0.0
147 0.0
157 0.0
163 0.0
169 0.0
175 0.000997
181 0.0
178 0.0
149 0.0
58 0.0
35 0.0
35 0.000996
41 0.0
53 0.0
70 0.0
78 0.0
84 0.0
89 0.0
94 0.000993
105 0.0
116 0.0
132 0.0
142 0.0
149 0.0
160 0.000958
164 0.0
172 0.0
179 0.001
176 0.0
147 0.000986
93 0.0
56 0.001042
45 0.001049
56 0.001008
68 0.001033
80 0.0
91 0.0
95 0.0
99 0.000993
105 0.001028
113 0.0
125 0.0
135 0.0
144 0.001001
152 0.001043
164 0.001039
170 0.001032
178 0.0
182 0.000966
176 0.0
146 0.001035
95 0.001
63 0.000959
56 0.000963
63 0.000997
75 0.001
90 0.001007
98 0.001036
101 0.001029
105 0.0
111 0.0
119 0.0
129 0.001122
138 0.001037
146 0.001002
157 0.0
163 0.0
169 0.001034
178 0.000961
178 0.001939
159 0.001193
88 0.0
51 0.0
41 0.0
44 0.001041
54 0.001
72 0.0
81 0.0
87 0.0
89 0.001201
97 0.0
106 0.0
115 0.000998
125 0.000993
138 0.0
146 0.000984
153 0.00196
160 0.001994
166 0.001225
174 0.000997
176 0.0
166 0.000994
69 0.000959
42 0.0
37 0.001001
44 0.001994
56 0.002029
70 0.000966
83 0.0
89 0.001999
92 0.001228
99 0.0
107 0.0
118 0.0
136 0.000945
145 0.0
154 0.001219
163 0.000963
172 0.0
178 0.000997
185 0.000997
183 0.001959
158 0.001936
92 0.0
65 0.0
61 0.0
78 0.0
91 0.0
104 0.001993
111 0.001285
116 0.0
119 0.000992
125 0.0
133 0.001787
142 0.001994
155 0.0
163 0.000995
170 0.0
180 0.0
185 0.000957
185 0.002039
168 0.001113
109 0.0
79 0.0
73 0.0
81 0.002026
95 0.001937
113 0.000996
120 0.0
123 0.00099
127 0.0
133 0.0
142 0.001967
151 0.001994
163 0.0
171 0.0
177 0.0
183 0.001995
188 0.001255
183 0.0
147 0.0
90 0.001951
49 0.0
51 0.0
61 0.002048
75 0.001443
90 0.000962
95 0.000997
95 0.0
95 0.001992
100 0.003026
110 0.0
120 0.000957
130 0.000979
144 0.0
152 0.0
158 0.002028
163 0.002276
148 0.000996
89 0.0
34 0.002059
10 0.001995
6 0.002991
12 0.000917
23 0.000997
38 0.0
41 0.0
42 0.0
45 0.001994
54 0.00299
70 0.000996
82 0.0
95 0.002057
107 0.002953
117 0.001663
129 0.000961
138 0.000998
148 0.000971
128 0.000967
67 0.000998
19 0.002992
0 0.002945
0 0.002001
0 0.001044
5 0.0
14 0.003056
19 0.002128
22 0.001954
25 0.0
40 0.001389
53 0.001002
67 0.000989
80 0.002752
93 0.002953
107 0.002028
117 0.001995
128 0.000951
137 0.002956
146 0.002951
160 0.001962
169 0.000998
183 0.001993
191 0.001983
198 0.001079
188 0.002954
128 0.002906
56 0.001992
37 0.000999
34 0.001029
37 0.002714
43 0.001995
52 0.00095
54 0.002006
56 0.000946
60 0.000998
67 0.001094
77 0.004019
89 0.003954
103 0.001995
113 0.001857
120 0.000996
127 0.003159
134 0.002991
141 0.002991
147 0.001956
145 0.00303
147 0.001936
155 0.001054
163 0.001009
174 0.002959
176 0.001988
124 0.0
85 0.0
69 0.0
70 0.00293
76 0.002969
87 0.0
97 0.00399
97 0.001032
93 0.001965
93 0.001262
100 0.002444
109 0.004063
123 0.002093
134 0.00176
143 0.001029
150 0.003988
157 0.002977
165 0.001955
170 0.002996
178 0.001995
183 0.000988
191 0.00299
197 0.004003
205 0.00299
208 0.002044
174 0.001003
127 0.001038
96 0.002781
85 0.004126
89 0.001954
96 0.002734
105 0.001961
108 0.001954
107 0.001956
106 0.003943
108 0.003953
117 0.002037
126 0.001993
134 0.001001
142 0.003989
150 0.002991
160 0.003772
167 0.002831
175 0.001519
181 0.0
188 0.000998
194 0.003992
200 0.003834
209 0.001953
215 0.00196
208 0.000963
166 0.003097
126 0.002992
101 0.0031
103 0.00336
110 0.002023
119 0.003039
126 0.001984
129 0.004025
128 0.003989
129 0.0
133 0.0
141 0.002014
148 0.004451
156 0.003992
167 0.003314
173 0.003228
182 0.001997
188 0.002988
194 0.002922
200 0.00393
206 0.003948
214 0.000914
218 0.001993
224 0.0
216 0.004987
175 0.004949
125 0.003942
119 0.004406
125 0.002954
133 0.001994
143 0.001904
150 0.004923
150 0.004051
146 0.001993
145 0.001994
150 0.002942
156 0.00399
164 0.004038
177 0.003652
183 0.004039
192 0.003025
197 0.001993
202 0.002027
207 0.004961
213 0.00495
220 0.000998
218 0.001995
186 0.001959
146 0.004736
124 0.004836
120 0.004992
127 0.004634
140 0.001995
147 0.001995
150 0.002038
147 0.004795
142 0.004987
143 0.00199
150 0.001998
158 0.002035
166 0.004453
174 0.004035
186 0.004606
194 0.003842
201 0.001994
207 0.0
213 0.001994
218 0.00385
216 0.00499
161 0.001002
120 0.000999
100 0.002003
95 0.004574
99 0.004994
113 0.005034
121 0.003852
124 0.001993
122 0.001989
120 0.002957
122 0.004991
127 0.005341
140 0.002989
149 0.002965
158 0.001994
167 0.004989
175 0.005137
187 0.004972
193 0.004108
202 0.003381
199 0.002935
158 0.001962
113 0.004909
89 0.004479
84 0.002008
88 0.001999
97 0.001961
108 0.002033
116 0.006018
116 0.002992
114 0.005
116 0.004424
126 0.001987
135 0.001987
146 0.001994
156 0.005576
167 0.005849
179 0.002993
188 0.002948
196 0.00293
208 0.002696
210 0.001978
187 0.004223
137 0.005021
100 0.003029
94 0.001993
99 0.002994
109 0.004843
120 0.00585
132 0.003884
136 0.002555
133 0.00304
133 0.002955
139 0.002573
148 0.004602
158 0.005722
168 0.003959
177 0.002954
185 0.003989
190 0.005883
196 0.005986
204 0.002994
202 0.002959
170 0.00399
101 0.002775
88 0.003493
89 0.004725
98 0.004773
114 0.003955
125 0.002958
132 0.003948
133 0.004987
132 0.006017
137 0.002993
144 0.000966
153 0.002935
170 0.00299
178 0.001996
187 0.004905
194 0.006016
204 0.004027
210 0.003995
210 0.003949
180 0.005988
123 0.005988
80 0.002992
73 0.002994
78 0.003958
95 0.003219
106 0.002757
111 0.00599
112 0.005866
111 0.004027
114 0.002992
121 0.004301
131 0.006984
142 0.006019
154 0.004153
163 0.003952
172 0.003947
180 0.002026
182 0.002954
186 0.005249
182 0.006106
118 0.003995
66 0.00402
42 0.003956
38 0.006949
46 0.005908
60 0.004575
73 0.002955
82 0.00415
86 0.004987
89 0.004115
94 0.005799
105 0.006173
120 0.003988
132 0.003021
144 0.00399
156 0.007032
165 0.006029
176 0.002955
184 0.002989
190 0.00501
199 0.003957
179 0.003203
120 0.006677
75 0.006123
54 0.00399
57 0.004954
65 0.004947
76 0.006985
87 0.005899
96 0.003985
97 0.003989
99 0.003966
111 0.003665
123 0.00443
134 0.006472
147 0.005776
160 0.003961
170 0.004951
178 0.004021
186 0.006986
193 0.006935
204 0.002939
207 0.005948
158 0.003993
106 0.003592
79 0.003497
75 0.00714
80 0.005971
96 0.004508
108 0.002955
117 0.003991
119 0.006628
120 0.006618
125 0.003957
132 0.003956
149 0.004134
159 0.003945
169 0.004036
177 0.005983
185 0.005985
195 0.004995
201 0.002992
207 0.003987
206 0.00666
174 0.006619
99 0.003992
72 0.004984
67 0.003981
76 0.004984
88 0.004114
99 0.006735
105 0.006952
108 0.003955
110 0.004976
116 0.005986
125 0.004009
136 0.006256
146 0.006996
159 0.003988
170 0.006208
182 0.005369
190 0.005491
196 0.004115
202 0.006865
210 0.007015
210 0.004947
177 0.004998
109 0.005003
63 0.006984
46 0.006505
48 0.00299
59 0.007016
75 0.005742
83 0.005266
87 0.004814
90 0.007115
95 0.007276
106 0.004988
118 0.004988
129 0.004992
140 0.006942
151 0.006463
163 0.004953
175 0.006989
185 0.005322
192 0.005253
198 0.004986
205 0.007966
211 0.007215
214 0.003883
193 0.004984
128 0.005948
73 0.007191
50 0.007539
48 0.004
60 0.007399
75 0.005448
84 0.005027
90 0.005474
93 0.007295
97 0.006782
109 0.005008
119 0.005957
131 0.005985
142 0.00798
153 0.007143
166 0.003991
178 0.007478
188 0.005721
196 0.006391
202 0.005574
208 0.008019
214 0.007405
223 0.005143
228 0.00497
234 0.004988
228 0.00747
189 0.00714
112 0.004986
82 0.007259
84 0.005984
94 0.006302
105 0.006758
118 0.007773
121 0.007006
124 0.003989
126 0.005984
132 0.003984
140 0.007799
148 0.007756
163 0.00688
171 0.007163
181 0.005607
187 0.005926
192 0.006591
199 0.007986
203 0.007225
210 0.00599
211 0.005768
200 0.004996
148 0.007253
121 0.007216
96 0.007931
102 0.007599
111 0.006472
121 0.006848
128 0.006766
133 0.007883
134 0.007574
139 0.005655
146 0.004983
152 0.00498
160 0.007518
167 0.007258
178 0.007987
184 0.0076
190 0.005213
195 0.005628
200 0.006359
199 0.007607
177 0.007716
124 0.006128
78 0.004995
59 0.004989
57 0.007722
64 0.007642
81 0.007565
91 0.00791
95 0.006373
97 0.00633
102 0.006935
109 0.007717
115 0.007605
128 0.005985
137 0.004955
145 0.004986
155 0.007145
162 0.007626
171 0.00679
176 0.007409
182 0.007101
183 0.00634
161 0.006507
101 0.007961
38 0.006984
21 0.004989
18 0.006016
23 0.006919
36 0.008065
45 0.007409
51 0.008026
54 0.008037
62 0.006669
71 0.005982
78 0.00699
93 0.007956
104 0.007236
113 0.004953
123 0.005988
132 0.005943
142 0.007631
150 0.007701
162 0.007403
168 0.006981
164 0.007293
142 0.006579
81 0.006564
27 0.007458
14 0.007111
15 0.004952
21 0.005979
35 0.006562
42 0.004987
48 0.007739
52 0.006993
61 0.007662
70 0.006976
86 0.007076
98 0.006832
109 0.006981
119 0.006982
129 0.007428
139 0.005984
147 0.006009
157 0.006294
165 0.006715
174 0.00622
183 0.006988
190 0.006537
194 0.006711
179 0.007238
128 0.006483
61 0.006768
43 0.006892
44 0.006535
49 0.005946
65 0.006475
74 0.007456
79 0.006289
80 0.006587
84 0.006039
94 0.006554
104 0.006668
114 0.006606
123 0.006748
133 0.007349
144 0.006685
151 0.006455
156 0.006948
169 0.00679
175 0.006884
180 0.00688
183 0.006749
168 0.006922
103 0.007344
75 0.006894
52 0.00703
52 0.006724
60 0.005803
77 0.006683
84 0.005986
93 0.007124
95 0.006478
101 0.006107
108 0.005984
119 0.007326
129 0.006651
138 0.005879
145 0.006017
154 0.005985
163 0.006926
170 0.006682
174 0.00595
186 0.006919
194 0.006294
195 0.005481
179 0.006945
103 0.005062
60 0.006709
42 0.00624
42 0.00675
49 0.005879
61 0.005985
75 0.006852
80 0.006246
85 0.005984
89 0.007023
96 0.00693
106 0.006154
120 0.00615
131 0.006686
140 0.00589
149 0.005959
157 0.005796
167 0.006161
173 0.006002
180 0.005927
190 0.006082
197 0.005734
199 0.006154
185 0.005914
116 0.005022
71 0.006413
54 0.005237
53 0.006595
61 0.005246
75 0.006643
85 0.005797
91 0.005783
93 0.005479
96 0.005523
104 0.005518
112 0.006016
124 0.004981
133 0.005019
141 0.006498
148 0.00582
154 0.006402
161 0.006214
166 0.005732
172 0.005747
171 0.005595
144 0.006438
90 0.005834
56 0.005
44 0.005986
50 0.005982
61 0.005986
74 0.006032
85 0.005609
91 0.005023
93 0.00604
96 0.005607
109 0.005976
118 0.006265
128 0.005451
138 0.005211
150 0.005536
158 0.00609
165 0.004815
171 0.006056
177 0.00525
184 0.005489
177 0.004715
133 0.004917
43 0.005984
25 0.006099
25 0.005885
32 0.005021
48 0.004926
59 0.004987
65 0.006057
67 0.005632
68 0.005247
76 0.005309
85 0.00526
103 0.005163
115 0.005575
125 0.003989
134 0.005112
142 0.004038
148 0.004024
158 0.005988
165 0.004025
168 0.005315
156 0.00522
101 0.003993
29 0.005668
7 0.004639
9 0.004816
17 0.00499
27 0.004998
37 0.005538
43 0.003902
47 0.0039
51 0.004134
60 0.005345
71 0.004603
85 0.004525
101 0.00502
117 0.00454
132 0.00401
141 0.004977
150 0.004986
159 0.003897
168 0.004092
179 0.005075
188 0.004196
194 0.004781
183 0.004986
125 0.004014
51 0.003967
28 0.00399
32 0.003992
41 0.004988
52 0.005016
63 0.004719
69 0.003878
71 0.003799
76 0.004974
84 0.00484
95 0.0042
107 0.003989
125 0.004625
139 0.003951
153 0.005128
161 0.00499
169 0.003992
176 0.004022
182 0.004285
186 0.003966
191 0.003987
195 0.004064
199 0.004504
189 0.004415
118 0.004987
49 0.004918
32 0.00402
36 0.004427
46 0.004677
58 0.003833
68 0.004949
75 0.004938
76 0.003677
79 0.004126
85 0.004286
96 0.004027
113 0.004025
131 0.003992
146 0.003991
156 0.00399
166 0.00399
174 0.004029
182 0.004415
191 0.003865
197 0.003848
201 0.003954
207 0.002958
211 0.003952
192 0.003592
104 0.003255
43 0.005025
31 0.003996
33 0.003993
41 0.003025
52 0.002992
67 0.003036
74 0.004015
77 0.003989
80 0.002994
87 0.003994
101 0.003923
117 0.002959
134 0.004468
145 0.004258
155 0.002993
163 0.003156
170 0.002927
180 0.002904
187 0.002997
193 0.002961
201 0.004
207 0.003147
215 0.003805
219 0.003039
188 0.00399
118 0.00378
65 0.003029
45 0.003097
44 0.003996
56 0.00296
69 0.002686
82 0.003796
90 0.003021
93 0.002958
99 0.002303
107 0.003992
122 0.002997
133 0.00204
146 0.003719
157 0.002133
167 0.002963
179 0.002977
187 0.002574
194 0.003121
200 0.002621
206 0.002985
216 0.00314
223 0.002952
225 0.00299
206 0.002992
154 0.002664
102 0.003025
80 0.002982
80 0.002861
90 0.002163
103 0.002993
114 0.002543
122 0.004007
128 0.003025
131 0.002037
138 0.00305
146 0.003301
156 0.002026
166 0.002919
174 0.002437
183 0.002044
192 0.003998
198 0.003051
204 0.002555
210 0.002564
214 0.002608
203 0.004021
168 0.003432
110 0.003002
91 0.003206
89 0.003146
97 0.002994
108 0.001903
121 0.002127
125 0.003037
127 0.002541
129 0.003989
136 0.002994
144 0.002992
153 0.003033
165 0.003036
173 0.002012
179 0.001918
186 0.002599
192 0.002005
199 0.003008
199 0.002994
180 0.001994
123 0.002959
50 0.003033
42 0.002041
48 0.002994
64 0.002024
76 0.003027
87 0.002995
92 0.003032
93 0.003028
98 0.002994
106 0.002992
114 0.002549
124 0.001965
141 0.003
151 0.001707
158 0.001546
168 0.001751
175 0.001997
178 0.001997
161 0.002996
105 0.002991
42 0.001998
28 0.001964
30 0.001955
39 0.003037
62 0.001917
73 0.002065
79 0.002648
81 0.001996
85 0.001997
94 0.002994
103 0.001688
113 0.002033
128 0.002994
138 0.00204
143 0.00196
147 0.000997
153 0.001815
158 0.001995
147 0.001993
79 0.00169
38 0.002065
23 0.002047
25 0.001863
37 0.002029
57 0.001994
71 0.001994
80 0.002002
86 0.002
91 0.003027
99 0.002193
110 0.001967
126 0.001996
137 0.001489
147 0.001871
156 0.001996
164 0.001881
174 0.001954
181 0.001943
181 0.001996
116 0.001937
69 0.001996
49 0.002063
49 0.001996
62 0.001996
77 0.00096
89 0.001997
97 0.001581
97 0.001989
98 0.00171
104 0.001646
113 0.002031
124 0.001997
122 0.001997
122 0.001997
127 0.002994
138 0.00197
148 0.001003
158 0.000997
158 0.001994
125 0.001995
65 0.000659
47 0.000994
48 0.000707
68 0.001009
83 0.000984
95 0.000995
99 0.002029
98 0.001833
99 0.000995
105 0.001757
114 0.002006
125 0.000627
140 0.001998
149 0.001025
159 0.001994
172 0.000997
179 0.000926
182 0.001997
162 0.001885
84 0.000966
46 0.001998
35 0.001011
39 0.002
51 0.000991
72 0.001643
83 0.000554
88 0.002
91 0.000996
96 0.000964
106 0.000953
117 0.0
133 0.000994
144 0.000997
154 0.001003
163 0.0
171 0.0
179 0.000998
186 0.0
179 0.001993
93 0.0
55 0.001127
44 0.0
49 0.001585
60 0.0
80 0.0
92 0.0
98 0.0
99 0.001031
102 0.001981
111 0.001037
121 0.001065
141 0.001001
153 0.001031
162 0.001001
171 0.0
179 0.0
189 0.001028
196 0.000723
197 0.0
172 0.0
116 0.000969
70 0.000622
65 0.00052
81 0.001996
96 0.000987
108 0.000959
117 0.001492
121 0.0
123 0.000956
129 0.0
137 0.0
146 0.0
157 0.000518
171 0.001107
180 0.0
194 0.000581
201 0.0
208 0.0
211 0.0
199 0.0
138 0.0
101 0.000997
89 0.0
93 0.0
104 0.001028
122 0.000491
134 0.0
136 0.001051
135 0.0
139 0.0
146 0.0
154 0.0
163 0.0
168 0.0
169 0.0
171 0.000998
175 0.001029
175 0.0
156 0.0
92 0.0
57 0.0
49 0.0
56 0.0
69 0.001004
89 0.0
101 0.0
107 0.0
110 0.0
111 0.0
119 0.0
133 0.000995
143 0.0
153 0.0
162 0.0
170 0.0
176 0.0
185 0.000655
190 0.0
184 0.0
146 0.001001
85 0.001001
42 0.0
40 0.0
53 0.000578
68 0.0
80 0.0
87 0.000746
92 0.0
96 0.0
102 0.0
112 0.0
123 0.0
137 0.000959
147 0.0
159 0.001
170 0.001001
177 0.001
184 0.0
190 0.001001
177 0.000985
128 0.003004
77 0.001999
54 0.0
56 0.000968
68 0.001019
82 0.000487
97 0.0
105 0.000967
107 0.0
111 0.0
122 0.0
132 0.000973
143 0.0
153 0.002998
166 0.0
175 0.001
182 0.0
189 0.001997
200 0.0
204 0.002995
195 0.003019
159 0.0
97 0.0
79 0.0
79 0.001993
89 0.002956
101 0.0
115 0.001009
122 0.0
124 0.003023
128 0.0
134 0.002996
143 0.00304
155 0.001005
163 0.000998
171 0.0
179 0.003032
185 0.002994
192 0.0
198 0.0
195 0.0
168 0.002023
91 0.000995
74 0.001997
74 0.003033
87 0.0
100 0.0
112 0.0
118 0.002
122 0.003117
123 0.002236
131 0.0
139 0.000959
154 0.001006
164 0.0
169 0.000998
178 0.002235
184 0.002993
192 0.0
197 0.0
202 0.000963
196 0.001228
163 0.002055
85 0.0
56 0.000989
55 0.0
66 0.0
80 0.0
91 0.00203
99 0.003194
104 0.0
108 0.000998
115 0.000997
124 0.002249
135 0.003475
148 0.000959
158 0.0
172 0.00096
180 0.0
187 0.0
193 0.00232
200 0.001202
199 0.000996
173 0.0
121 0.000997
81 0.002039
69 0.002024
75 0.0
88 0.0
108 0.001033
115 0.001001
120 0.000999
122 0.001939
127 0.002951
137 0.0
146 0.0
156 0.000959
166 0.002283
174 0.00236
183 0.0
190 0.0
199 0.0
199 0.0
182 0.000997
137 0.001994
90 0.002028
67 0.0
70 0.000965
80 0.000927
92 0.001993
102 0.001944
111 0.000998
112 0.000997
115 0.0
121 0.0
129 0.0
138 0.002201
147 0.001999
157 0.0
164 0.0
170 0.0
176 0.002014
176 0.002001
140 0.0
81 0.0
34 0.000993
34 0.0
42 0.0
55 0.002986
68 0.001997
79 0.0
83 0.0
85 0.0
90 0.003379
99 0.002415
112 0.0
123 0.0
140 0.000984
148 0.000996
156 0.000998
163 0.002251
169 0.002274
158 0.000965
105 0.0
50 0.0
25 0.001958
21 0.001951
29 0.0
42 0.000946
61 0.0
68 0.0
71 0.0
74 0.002268
81 0.001994
95 0.000991
106 0.0
118 0.000941
128 0.00231
138 0.002996
150 0.000967
160 0.002613
170 0.0
167 0.0
132 0.0
73 0.002271
39 0.002964
30 0.001013
37 0.0
49 0.0
63 0.003018
74 0.002992
83 0.0
87 0.002996
95 0.000949
105 0.0
115 0.0
127 0.002329
138 0.002996
151 0.0
161 0.0
169 0.001956
177 0.002949
185 0.002028
192 0.002006
167 0.003996
96 0.00101
65 0.001994
59 0.001992
66 0.00241
79 0.002996
97 0.001992
107 0.002028
111 0.00103
113 0.002046
115 0.002227
123 0.002274
138 0.002997
148 0.003025
159 0.0
166 0.002005
173 0.001946
180 0.001996
185 0.002989
191 0.001992
180 0.001934
141 0.0
96 0.002465
76 0.002788
82 0.003029
95 0.003232
112 0.002027
122 0.0
126 0.000997
128 0.003463
131 0.003628
139 0.002028
146 0.0
155 0.0
164 0.002992
171 0.002994
182 0.00303
188 0.003214
196 0.001912
194 0.002951
168 0.003021
109 0.003039
67 0.003948
54 0.001956
61 0.003026
73 0.002985
88 0.003041
100 0.002986
110 0.00303
112 0.00304
118 0.001995
126 0.001999
134 0.001959
143 0.003375
151 0.003444
159 0.001976
166 0.002989
172 0.001998
178 0.003482
176 0.003272
113 0.003408
63 0.003223
40 0.001975
43 0.001998
54 0.003031
69 0.002665
82 0.003336
93 0.001993
97 0.002013
99 0.000962
104 0.003714
112 0.003669
130 0.00299
140 0.003447
152 0.002024
161 0.001943
169 0.001992
177 0.003666
181 0.003602
161 0.002959
108 0.002951
67 0.003006
53 0.003316
57 0.002994
78 0.00318
92 0.004279
105 0.0
110 0.003002
112 0.0
117 0.003988
124 0.004191
138 0.002992
148 0.001953
158 0.002951
168 0.004305
180 0.002036
188 0.003994
194 0.004273
192 0.002363
164 0.001962
114 0.002962
84 0.003278
78 0.004745
89 0.003018
102 0.001964
116 0.0
125 0.004021
129 0.001965
130 0.004368
134 0.003374
145 0.00294
154 0.001957
163 0.001985
171 0.003533
178 0.005053
186 0.001995
192 0.001995
191 0.002062
167 0.004215
91 0.0
74 0.004031
75 0.004558
91 0.002989
105 0.0
116 0.002992
124 0.004707
127 0.003993
128 0.002982
134 0.00399
142 0.002988
151 0.004427
165 0.001001
173 0.004028
181 0.004061
190 0.002026
195 0.003032
188 0.00298
144 0.004512
83 0.003948
51 0.002579
51 0.002992
60 0.001895
74 0.004596
94 0.00281
101 0.004232
102 0.004257
105 0.002985
111 0.003023
120 0.002959
131 0.004952
141 0.004157
154 0.001962
162 0.002992
170 0.003076
177 0.004721
172 0.001996
127 0.004327
73 0.003989
45 0.001979
46 0.002523
57 0.002995
71 0.004326
85 0.0046
97 0.001983
100 0.002956
101 0.002992
106 0.003024
120 0.002047
131 0.002703
142 0.005018
152 0.004541
164 0.002953
172 0.003009
179 0.002053
184 0.005252
171 0.004279
104 0.002956
68 0.002928
58 0.003584
71 0.0
86 0.0
101 0.004986
110 0.004716
113 0.001959
112 0.000994
115 0.002992
124 0.004406
136 0.004481
149 0.003626
159 0.002999
168 0.002951
180 0.000997
186 0.001963
185 0.005021
159 0.005203
91 0.003024
65 0.00294
64 0.001994
73 0.004985
88 0.004728
107 0.002
116 0.00288
119 0.002995
120 0.001988
125 0.002992
134 0.004914
143 0.005598
155 0.002882
164 0.00299
173 0.002992
179 0.005286
187 0.005259
195 0.002945
188 0.002953
98 0.001958
60 0.000997
49 0.002999
54 0.006228
67 0.006122
85 0.003033
96 0.003943
101 0.003669
101 0.005856
101 0.004975
110 0.002187
119 0.002968
137 0.002992
146 0.003027
154 0.003005
163 0.004936
170 0.005
179 0.002948
184 0.002938
168 0.003956
114 0.00599
65 0.005249
45 0.002826
50 0.003015
71 0.002987
86 0.002988
96 0.002982
100 0.005104
101 0.005061
106 0.001995
115 0.003943
126 0.003989
138 0.005984
148 0.005301
162 0.001993
171 0.002992
184 0.004947
191 0.004985
199 0.002955
203 0.006782
190 0.005651
119 0.002033
78 0.004514
65 0.003596
70 0.005889
82 0.006292
101 0.00392
112 0.003655
118 0.00404
119 0.003991
123 0.003976
131 0.0053
141 0.006332
156 0.002989
165 0.001949
175 0.001981
183 0.006379
190 0.005672
198 0.002961
204 0.002046
199 0.003957
162 0.002992
110 0.002953
83 0.005504
79 0.005985
91 0.003972
106 0.004624
119 0.003458
128 0.005614
131 0.007022
131 0.003984
134 0.004132
147 0.003953
156 0.003025
165 0.002992
174 0.006969
182 0.00669
191 0.002994
196 0.002992
203 0.004576
204 0.006781
187 0.006981
110 0.004025
70 0.0042
59 0.003959
67 0.003986
81 0.004004
95 0.006262
104 0.00672
108 0.003951
110 0.003007
113 0.003029
121 0.006675
131 0.006021
145 0.003625
155 0.004943
168 0.006986
178 0.00399
186 0.003981
192 0.004096
198 0.00678
194 0.007068
138 0.004995
80 0.004599
54 0.002953
50 0.006434
59 0.006309
82 0.007152
95 0.00675
104 0.003026
107 0.003781
110 0.003963
116 0.007267
127 0.00706
141 0.004041
151 0.003885
161 0.004938
171 0.006476
178 0.006377
190 0.006187
196 0.006716
199 0.005001
176 0.002959
120 0.004892
78 0.007102
64 0.006437
70 0.003975
84 0.005109
99 0.004237
111 0.007329
119 0.006656
123 0.006985
127 0.007187
138 0.004944
147 0.005313
158 0.004947
168 0.00697
177 0.007348
187 0.004785
195 0.004302
201 0.005188
208 0.007444
210 0.00748
169 0.007257
117 0.007461
84 0.003954
84 0.003982
94 0.005917
108 0.00688
119 0.00685
128 0.00394
131 0.005226
131 0.005227
134 0.008
142 0.00777
158 0.00741
167 0.006712
176 0.004011
184 0.004644
191 0.004168
196 0.007107
202 0.006603
199 0.003991
167 0.004961
109 0.004964
75 0.006919
66 0.007665
79 0.007885
93 0.006992
108 0.0048
115 0.003004
116 0.005247
115 0.007751
112 0.00784
118 0.005934
126 0.004751
136 0.005147
147 0.007177
157 0.008074
171 0.007285
181 0.007809
188 0.005949
187 0.004849
157 0.005064
96 0.007354
50 0.008079
45 0.005903
51 0.00569
65 0.005298
80 0.007221
94 0.007795
99 0.007501
101 0.007158
109 0.004956
117 0.005639
128 0.004954
142 0.007979
149 0.007475
160 0.005731
169 0.003991
177 0.004918
184 0.008119
191 0.006887
159 0.007849
104 0.007695
68 0.004954
59 0.003599
65 0.0062
81 0.007416
95 0.007703
106 0.005361
111 0.005438
112 0.005983
115 0.008401
127 0.005897
137 0.007368
148 0.007299
161 0.004951
169 0.003034
177 0.004014
186 0.007551
193 0.007137
196 0.00588
182 0.005898
137 0.006049
83 0.007044
71 0.00496
78 0.007792
96 0.007826
109 0.005927
117 0.006286
119 0.005341
118 0.007973
123 0.00736
132 0.005008
140 0.004982
150 0.005008
161 0.007886
171 0.004987
179 0.007229
185 0.007419
181 0.005985
149 0.006626
92 0.005535
53 0.007123
50 0.006985
58 0.005984
72 0.006289
86 0.005218
95 0.005866
97 0.00502
99 0.005025
106 0.007895
115 0.007269
126 0.00652
135 0.004945
144 0.005803
155 0.006902
162 0.006855
167 0.005951
174 0.006682
172 0.006118
94 0.00603
43 0.005932
19 0.00772
21 0.006923
28 0.005577
39 0.006849
50 0.006029
56 0.006958
56 0.007635
59 0.005664
67 0.00676
77 0.006857
99 0.004985
110 0.004948
125 0.006632
134 0.007126
145 0.006016
150 0.006022
157 0.006375
146 0.006892
96 0.007466
46 0.006545
23 0.006594
19 0.005945
30 0.005946
42 0.006283
55 0.007391
59 0.006743
59 0.005947
64 0.006458
72 0.006557
87 0.006907
100 0.006668
116 0.005983
124 0.006071
134 0.006596
154 0.006808
160 0.005824
172 0.007091
179 0.006963
185 0.005697
179 0.005735
129 0.005982
60 0.006433
43 0.006952
44 0.006632
49 0.006621
60 0.005002
76 0.004986
77 0.005943
77 0.006651
81 0.00667
94 0.006494
106 0.006658
115 0.006607
131 0.006395
142 0.005357
152 0.006644
164 0.006277
174 0.005982
184 0.005789
189 0.005977
199 0.006829
207 0.006675
212 0.006229
200 0.006709
129 0.005958
91 0.006781
81 0.006721
88 0.005926
95 0.005919
119 0.006714
124 0.006231
122 0.006026
117 0.005596
120 0.005647
130 0.006218
141 0.006233
152 0.006641
162 0.006321
170 0.006256
180 0.00624
185 0.006011
193 0.006792
198 0.005921
199 0.006141
174 0.00666
122 0.005962
81 0.005834
73 0.005815
74 0.005749
83 0.005657
95 0.005993
105 0.004987
103 0.006023
100 0.005751
105 0.006034
113 0.005766
124 0.005991
136 0.006464
146 0.006051
159 0.005247
166 0.005936
174 0.005714
181 0.005986
189 0.004842
180 0.005891
94 0.006058
63 0.005741
56 0.006369
60 0.005512
67 0.006311
82 0.005269
92 0.005729
95 0.006018
95 0.004986
96 0.004793
103 0.004779
113 0.005575
133 0.006023
145 0.004763
156 0.005799
165 0.005964
175 0.00554
187 0.006106
195 0.006212
196 0.004814
164 0.005372
107 0.006031
69 0.004732
65 0.005045
77 0.004987
88 0.004991
99 0.006193
105 0.005642
105 0.004988
105 0.004958
110 0.005941
119 0.005416
130 0.005475
142 0.005068
158 0.005332
167 0.005466
179 0.005145
189 0.005348
194 0.005927
201 0.004985
185 0.005621
130 0.004663
81 0.005531
73 0.0049
78 0.004989
88 0.004023
102 0.003985
117 0.005455
120 0.005833
116 0.004986
119 0.004982
127 0.003989
137 0.003953
148 0.004027
163 0.004896
173 0.004834
181 0.004385
189 0.005058
196 0.003847
205 0.004953
212 0.004911
187 0.005315
135 0.004991
103 0.005045
95 0.004568
99 0.004909
115 0.003988
128 0.004814
138 0.005013
141 0.004834
138 0.004605
137 0.003989
142 0.004955
154 0.003719
165 0.005055
174 0.00457
182 0.005356
189 0.003952
198 0.003992
204 0.004988
210 0.004715
214 0.003953
196 0.003979
126 0.004144
110 0.004998
114 0.004644
125 0.004421
139 0.004475
152 0.005019
159 0.003976
153 0.00525
149 0.003716
151 0.004004
156 0.003956
164 0.003988
178 0.005154
185 0.003998
194 0.003988
199 0.003993
205 0.004952
210 0.00399
211 0.002963
164 0.003295
122 0.004008
104 0.003996
102 0.004916
109 0.003873
129 0.004778
139 0.003719
141 0.00354
134 0.003999
130 0.00407
132 0.003946
137 0.002944
148 0.004917
156 0.003749
164 0.004141
170 0.003799
176 0.003741
186 0.004585
189 0.003963
158 0.004166
111 0.004989
84 0.002987
75 0.003962
80 0.003236
93 0.003758
104 0.004023
111 0.003991
110 0.003999
104 0.002961
102 0.004025
108 0.00399
119 0.003547
128 0.003991
136 0.003789
143 0.003909
149 0.003586
157 0.002696
163 0.003016
163 0.003599
132 0.003595
88 0.003992
57 0.002989
59 0.003086
71 0.003169
83 0.002952
92 0.002991
92 0.004021
87 0.004022
84 0.00374
87 0.003026
95 0.00303
105 0.00295
114 0.002997
128 0.003993
135 0.003991
144 0.003561
150 0.003173
156 0.002806
154 0.002996
119 0.002993
70 0.002997
57 0.003028
60 0.002996
68 0.00303
81 0.00299
97 0.00299
96 0.003035
90 0.002999
90 0.004045
96 0.002737
105 0.003991
116 0.002882
129 0.002719
138 0.002305
145 0.002915
152 0.002226
163 0.00399
169 0.002994
167 0.003738
132 0.003141
82 0.002948
69 0.002725
73 0.002994
82 0.003032
96 0.003332
112 0.002994
114 0.002783
110 0.002582
107 0.002603
113 0.003117
122 0.003286
133 0.003414
146 0.002525
155 0.002994
163 0.002529
170 0.002027
177 0.002273
185 0.003133
188 0.002822
170 0.00203
91 0.00296
71 0.003001
71 0.003988
81 0.001966
97 0.001908
109 0.002993
115 0.002653
112 0.002745
108 0.002285
111 0.003025
118 0.002583
129 0.002142
147 0.002993
158 0.002993
167 0.002994
174 0.00299
184 0.00402
191 0.003054
196 0.002994
195 0.0
154 0.001974
90 0.001876
73 0.001871
74 0.002604
90 0.002623
103 0.003177
112 0.002578
115 0.002994
111 0.002993
112 0.00257
118 0.001714
128 0.001995
140 0.002994
155 0.002992
166 0.002035
175 0.001963
189 0.001993
196 0.002994
203 0.002083
210 0.002992
200 0.001594
148 0.002599
103 0.002994
87 0.001969
88 0.00204
101 0.001996
115 0.002007
127 0.003026
134 0.001995
131 0.001995
132 0.001953
138 0.001995
149 0.001639
159 0.001996
170 0.002175
179 0.002065
187 0.002007
201 0.001958
214 0.001602
227 0.001985
233 0.001997
202 0.001997
147 0.001997
113 0.002036
104 0.001996
111 0.001994
124 0.002042
142 0.00214
159 0.00203
170 0.001957
171 0.001826
173 0.001997
178 0.002103
183 0.001996
189 0.002006
195 0.001869
202 0.001996
206 0.001997
211 0.001997
216 0.002141
219 0.002009
196 0.001982
133 0.001995
86 0.001991
69 0.002022
77 0.000997
88 0.002982
100 0.001997
111 0.001603
111 0.001588
108 0.001553
110 0.002291
118 0.001989
131 0.001762
142 0.001998
159 0.002142
169 0.001646
177 0.002207
184 0.001962
191 0.001997
200 0.00203
200 0.001985
169 0.002055
104 0.001845
63 0.000965
50 0.001985
56 0.001996
75 0.001817
85 0.001996
90 0.002044
90 0.001628
89 0.001997
95 0.001808
102 0.00062
112 0.001504
123 0.001997
134 0.00202
148 0.002002
158 0.001953
173 0.000584
181 0.001962
188 0.001887
197 0.001887
197 0.001893
142 0.002048
84 0.000578
57 0.000957
53 0.001028
60 0.001
76 0.001652
88 0.001
97 0.000997
98 0.000998
100 0.000997
106 0.001996
116 0.001994
128 0.000959
143 0.000573
154 0.002072
164 0.000771
173 0.001717
181 0.0
191 0.000564
201 0.001996
211 0.002528
218 0.001996
223 0.001548
212 0.000997
156 0.001952
85 0.001569
68 0.001998
68 0.0
76 0.0
88 0.001038
103 0.000962
110 0.0
112 0.002032
117 0.001997
124 0.001997
135 0.000999
146 0.001042
161 0.000769
170 0.001001
179 0.0
183 0.001988
183 0.000997
185 0.001037
192 0.001046
202 0.001996
210 0.001148
215 0.0
204 0.000997
158 0.000996
95 0.0
83 0.0
88 0.0
100 0.0
113 0.0
128 0.00202
134 0.0
135 0.000997
139 0.00099
145 0.0
155 0.001034
164 0.000888
175 0.002
184 0.0
192 0.0
198 0.0
203 0.0
211 0.000998
217 0.0
223 0.000544
221 0.000921
194 0.0
134 0.0
87 0.0
71 0.000997
77 0.001048
87 0.000126
100 0.0
111 0.001011
120 0.0
121 0.001129
128 0.001
136 0.000997
146 0.0
155 0.000434
166 0.0
177 0.0
184 0.0
191 0.0
197 0.0
203 0.000968
212 0.000997
218 0.0
224 0.0
216 0.0
179 0.0
114 0.0
72 0.0
61 0.0
68 0.0
79 0.0
92 0.001
102 0.001
109 0.0
111 0.0
119 0.0
128 0.0
138 0.0
147 0.0
158 0.000998
169 0.0
177 0.0
186 0.000995
191 0.0
196 0.0
206 0.0
212 0.0
204 0.0
169 0.0
117 0.0
85 0.0
76 0.0
84 0.001
96 0.0
107 0.0
116 0.0
119 0.0
122 0.0
127 0.000997
137 0.0
146 0.0
154 0.0
162 0.000998
170 0.0
178 0.0
184 0.0
189 0.0
196 0.0
199 0.0
183 0.000946
142 0.000998
86 0.0
71 0.003002
72 0.000997
84 0.0
92 0.000965
104 0.0
109 0.003024
110 0.0
113 0.0
120 0.0
134 0.0
142 0.0
151 0.001992
159 0.002039
168 0.0
174 0.0
180 0.000964
185 0.0
190 0.002057
181 0.0
138 0.0
76 0.000997
34 0.000997
34 0.0
43 0.000966
55 0.002032
67 0.001997
74 0.0
75 0.0
77 0.0
82 0.002037
90 0.001995
104 0.0
115 0.0
131 0.0
138 0.0
146 0.0
153 0.0
160 0.003041
168 0.0
172 0.000968
161 0.0
115 0.002733
59 0.004031
29 0.0
29 0.0
46 0.0
59 0.0
69 0.0
74 0.002267
76 0.001994
81 0.000947
89 0.0
99 0.0
110 0.002214
121 0.002274
135 0.0
147 0.002211
157 0.0
164 0.0
171 0.000956
179 0.002257
183 0.002201
172 0.0
129 0.0
79 0.0
55 0.001904
54 0.004004
66 0.0
84 0.003981
97 0.0
101 0.000996
102 0.000965
104 0.001989
110 0.002991
122 0.0
131 0.0
140 0.0
148 0.002273
155 0.004321
164 0.0
172 0.003007
181 0.0
184 0.0
173 0.000967
136 0.003028
89 0.004004
60 0.000965
61 0.000996
71 0.000997
84 0.003955
95 0.003023
103 0.000956
103 0.003977
107 0.0
114 0.0
123 0.0
133 0.002039
142 0.002215
152 0.0
159 0.0
164 0.0
170 0.002047
176 0.002085
182 0.0
170 0.002022
101 0.001031
50 0.0
30 0.000996
29 0.003031
37 0.003026
54 0.0
66 0.0
71 0.000995
74 0.001959
76 0.002238
85 0.0
98 0.003024
112 0.0
123 0.0
133 0.000926
141 0.003986
149 0.003
159 0.0
166 0.0
171 0.0
168 0.002451
135 0.003994
60 0.0
32 0.003051
35 0.0
46 0.0
60 0.000997
71 0.002981
79 0.001985
84 0.000957
89 0.0
96 0.000947
107 0.002991
119 0.003672
134 0.000996
148 0.002031
160 0.000958
169 0.000996
176 0.0
183 0.001961
190 0.002994
198 0.000992
190 0.0
155 0.0
101 0.002951
69 0.004251
63 0.0
76 0.003023
94 0.000964
103 0.001021
108 0.000953
109 0.002956
111 0.001995
119 0.0
127 0.000969
137 0.0
147 0.002023
155 0.001995
167 0.00204
173 0.001995
181 0.0
186 0.000979
181 0.000998
154 0.002983
106 0.002962
66 0.000999
62 0.0
69 0.001017
81 0.002046
92 0.002996
107 0.003024
110 0.002993
113 0.000996
118 0.0
128 0.0
138 0.0
147 0.002998
155 0.002997
166 0.0
172 0.001003
177 0.0
183 0.00321
183 0.0
150 0.001986
84 0.00299
34 0.000999
28 0.001045
32 0.000957
43 0.002991
55 0.00301
68 0.0
73 0.0
77 0.0
81 0.002325
95 0.000999
106 0.003001
117 0.002997
131 0.0
140 0.000956
149 0.0
157 0.00299
166 0.00395
172 0.0
162 0.0
118 0.0
61 0.003991
28 0.00099
32 0.003976
42 0.003945
61 0.0
72 0.0
79 0.0
84 0.002938
89 0.002954
99 0.000998
110 0.000435
121 0.0
132 0.002323
148 0.0
156 0.002962
164 0.003992
173 0.000997
179 0.001004
186 0.002992
187 0.001992
157 0.00399
76 0.0
44 0.000964
37 0.000963
42 0.003988
64 0.0
77 0.003992
85 0.003989
88 0.002996
91 0.000998
99 0.0
108 0.002994
119 0.002996
134 0.002038
144 0.002993
154 0.0
162 0.003988
175 0.002997
182 0.003994
189 0.00399
197 0.000986
195 0.000997
168 0.002029
110 0.00383
68 0.00399
56 0.002938
62 0.00299
75 0.002923
89 0.003989
103 0.0
102 0.003988
101 0.0
109 0.001
118 0.0
125 0.002965
135 0.003978
143 0.003953
154 0.001931
161 0.001963
168 0.0
179 0.0
182 0.0
169 0.004987
123 0.003989
61 0.001994
47 0.002991
50 0.002741
61 0.002992
76 0.003961
93 0.002994
99 0.001995
101 0.003023
105 0.003405
113 0.000998
122 0.005017
133 0.00399
146 0.000999
155 0.0
162 0.000997
165 0.005984
177 0.0
187 0.002992
188 0.00299
168 0.00299
64 0.002991
33 0.003031
27 0.004036
33 0.003993
49 0.000998
62 0.002955
73 0.001996
78 0.003989
81 0.004988
86 0.001995
94 0.000996
104 0.001003
123 0.0
134 0.000955
143 0.005017
152 0.003989
163 0.002991
171 0.002026
177 0.0
172 0.004042
130 0.004103
56 0.002998
36 0.000961
36 0.001963
57 0.0
72 0.001987
85 0.004952
92 0.005024
95 0.003991
98 0.002023
106 0.002136
116 0.000998
129 0.003508
142 0.004986
156 0.002993
164 0.002055
177 0.001999
184 0.001943
190 0.002979
183 0.00396
142 0.004986
74 0.003976
58 0.004168
57 0.00399
67 0.00499
83 0.005987
102 0.001025
108 0.0
106 0.0
106 0.002019
113 0.002027
121 0.004986
131 0.00499
146 0.003042
155 0.002992
163 0.0
171 0.00594
179 0.005107
175 0.0
142 0.00297
67 0.0
56 0.001
60 0.0
72 0.004991
88 0.004954
105 0.003021
109 0.003987
108 0.0
106 0.005093
109 0.005814
120 0.003002
131 0.001034
148 0.002035
157 0.000994
165 0.001003
172 0.005744
179 0.006052
172 0.003034
122 0.000997
67 0.001993
42 0.005985
38 0.005987
49 0.003024
61 0.003987
77 0.002978
79 0.003024
76 0.000999
77 0.00502
83 0.005988
95 0.002996
106 0.001955
117 0.000966
127 0.005987
136 0.005038
147 0.003004
157 0.0049
165 0.002007
148 0.003991
94 0.002981
55 0.005986
40 0.004952
44 0.001995
54 0.00199
66 0.000957
76 0.005988
79 0.005988
77 0.00593
79 0.005209
88 0.003986
99 0.002962
111 0.002992
123 0.005992
134 0.005985
146 0.002992
154 0.003023
161 0.002991
168 0.006938
175 0.005797
171 0.003024
110 0.005985
67 0.001995
61 0.004987
68 0.001995
77 0.006981
91 0.005984
104 0.001995
105 0.000996
102 0.003989
102 0.005984
108 0.005986
120 0.002991
136 0.005395
151 0.003987
160 0.002991
167 0.003984
173 0.005978
179 0.005983
189 0.00399
196 0.003972
200 0.001992
179 0.005654
132 0.005988
96 0.004022
95 0.006266
108 0.003989
121 0.003938
133 0.004026
136 0.005985
131 0.005986
126 0.003958
129 0.002991
137 0.002983
147 0.006626
157 0.006515
169 0.003029
179 0.00628
182 0.002991
183 0.003983
183 0.002997
172 0.006065
133 0.005988
92 0.004034
86 0.00399
94 0.003953
107 0.006218
124 0.006019
144 0.002991
147 0.006324
140 0.00396
140 0.004947
145 0.004036
146 0.00603
146 0.007025
150 0.002934
157 0.002993
164 0.00299
173 0.004993
182 0.006056
187 0.005984
123 0.006063
88 0.005988
74 0.003992
80 0.003987
90 0.003959
104 0.005986
115 0.005986
120 0.003981
117 0.003015
115 0.003038
119 0.006985
128 0.005985
147 0.00672
159 0.006582
174 0.002991
184 0.004026
193 0.004055
202 0.006982
210 0.006191
209 0.004024
161 0.003967
116 0.003025
96 0.007155
102 0.002042
114 0.006126
128 0.006006
143 0.004938
146 0.00303
143 0.003981
141 0.007333
145 0.00726
155 0.001028
167 0.00399
177 0.003945
188 0.006801
203 0.003916
211 0.007287
217 0.007298
221 0.002936
192 0.003995
139 0.004953
107 0.006984
99 0.00721
105 0.004026
116 0.003949
129 0.003945
137 0.007172
135 0.002992
131 0.006981
132 0.00784
141 0.004994
151 0.003957
161 0.004937
172 0.006496
183 0.007247
197 0.003977
207 0.003961
213 0.003989
199 0.007331
112 0.004023
86 0.007484
85 0.007266
94 0.003996
108 0.004956
123 0.005018
133 0.007979
137 0.007984
136 0.00399
136 0.003959
143 0.003955
152 0.007441
170 0.00407
180 0.006997
190 0.007984
200 0.003998
207 0.004999
214 0.004994
211 0.007391
167 0.007228
93 0.003988
71 0.004889
70 0.004987
80 0.007986
102 0.003968
118 0.007897
123 0.007777
125 0.00494
126 0.003998
130 0.004019
140 0.007801
151 0.007231
166 0.00499
176 0.005033
186 0.004949
196 0.007859
211 0.004986
219 0.007701
212 0.007979
163 0.004986
110 0.002959
88 0.003988
91 0.008005
103 0.008101
118 0.005022
133 0.005921
143 0.003945
150 0.007934
154 0.003996
162 0.007374
171 0.007523
181 0.00399
192 0.003989
202 0.003953
212 0.007212
223 0.007979
235 0.00502
242 0.003989
246 0.00398
223 0.007761
148 0.004961
114 0.007917
107 0.007023
115 0.005952
127 0.004986
140 0.004945
150 0.007762
152 0.007587
151 0.004974
153 0.004975
157 0.005922
166 0.006973
169 0.005273
161 0.007371
159 0.007746
161 0.005949
167 0.00402
172 0.004985
146 0.007942
98 0.006742
74 0.004979
73 0.004954
84 0.004012
111 0.006269
126 0.004442
138 0.008112
146 0.007451
148 0.00798
154 0.005981
162 0.003989
173 0.006781
182 0.007424
191 0.007491
199 0.005991
205 0.006447
215 0.004849
220 0.005416
208 0.005151
152 0.008028
78 0.007916
62 0.004013
64 0.004986
75 0.005025
96 0.006981
110 0.007022
120 0.005985
126 0.005828
131 0.005518
139 0.004862
148 0.004871
161 0.007665
172 0.007615
181 0.004045
189 0.004955
198 0.005983
208 0.007719
208 0.007773
184 0.005002
125 0.003982
68 0.00598
68 0.005999
77 0.005984
96 0.007629
110 0.007145
119 0.005044
125 0.004956
128 0.004953
134 0.007056
141 0.00701
151 0.005031
162 0.004985
180 0.0052
189 0.006268
197 0.005609
208 0.006822
209 0.006129
181 0.00675
129 0.006763
101 0.004956
81 0.007434
85 0.006323
98 0.005953
111 0.004971
127 0.006159
130 0.00599
131 0.006462
133 0.006969
137 0.006726
143 0.005955
150 0.005982
157 0.005951
167 0.006628
174 0.006981
182 0.006866
183 0.005983
131 0.006283
82 0.005696
61 0.005533
62 0.00644
75 0.005986
95 0.006845
108 0.006601
116 0.006717
120 0.006995
124 0.006612
129 0.006476
136 0.005952
156 0.006182
165 0.006308
172 0.005986
182 0.006086
190 0.005701
196 0.005957
170 0.006775
131 0.005945
65 0.006372
51 0.006303
56 0.006759
69 0.005983
98 0.006904
108 0.006274
112 0.006321
115 0.006212
120 0.006312
128 0.005956
141 0.0061
147 0.006207
161 0.006041
170 0.006085
179 0.005916
192 0.005987
180 0.006692
152 0.006817
84 0.006718
62 0.006042
62 0.006139
75 0.006802
89 0.00672
98 0.005984
108 0.006134
110 0.005984
112 0.005625
117 0.00603
115 0.005922
115 0.006312
116 0.006042
125 0.006487
134 0.006539
148 0.00584
148 0.006228
103 0.006283
49 0.005956
24 0.005816
25 0.0058
43 0.006458
64 0.006337
78 0.005057
85 0.004985
87 0.006229
88 0.006814
98 0.00616
109 0.005023
120 0.004935
132 0.005931
142 0.004989
154 0.006471
164 0.006327
147 0.005825
108 0.006503
33 0.005703
12 0.0061
11 0.005684
24 0.005777
38 0.005218
51 0.005916
