166 0.021984
169 0.005983
180 0.005984
118 0.00595
58 0.005984
35 0.005986
48 0.004958
66 0.004974
85 0.004987
102 0.004988
110 0.004954
108 0.004986
109 0.004986
115 0.004987
133 0.004938
147 0.004915
159 0.004988
172 0.005976
124 0.004975
59 0.004987
30 0.004987
35 0.004969
61 0.004988
81 0.005031
100 0.004987
109 0.005038
107 0.004987
110 0.004956
116 0.004018
131 0.004986
144 0.00399
157 0.004985
171 0.004986
162 0.004987
77 0.003971
43 0.00399
46 0.004934
64 0.00399
101 0.004024
119 0.004022
123 0.00399
119 0.00398
120 0.003989
126 0.004003
136 0.00399
149 0.00399
163 0.004
175 0.003989
150 0.00399
83 0.003992
40 0.004021
53 0.003985
74 0.004036
106 0.00399
122 0.003956
126 0.002992
123 0.002991
125 0.00399
134 0.003989
144 0.003989
155 0.003944
167 0.003996
166 0.003961
96 0.003989
37 0.002992
18 0.004028
31 0.003947
50 0.003026
71 0.002992
88 0.002992
94 0.002992
94 0.002957
95 0.002942
100 0.002989
118 0.002956
131 0.002958
146 0.00295
145 0.004
61 0.003033
13 0.002992
4 0.003055
16 0.002988
33 0.00299
59 0.003021
75 0.002992
79 0.002992
79 0.002972
85 0.002942
95 0.001974
107 0.002992
126 0.00198
140 0.001985
147 0.002993
95 0.001995
30 0.001994
3 0.001995
16 0.00305
34 0.002992
68 0.003039
81 0.00296
82 0.001995
79 0.001995
86 0.002002
95 0.001995
106 0.001985
119 0.001996
132 0.001992
145 0.001995
97 0.001994
37 0.001969
19 0.001985
37 0.001978
58 0.001975
81 0.002027
98 0.001994
97 0.001964
98 0.001964
104 0.000996
114 0.000998
130 0.001995
143 0.001894
154 0.001995
126 0.001995
54 0.000995
15 0.002
12 0.001011
28 0.000997
55 0.000997
74 0.000998
86 0.000999
87 0.000998
85 0.000997
91 0.000998
101 0.000997
123 0.001006
137 0.000984
150 0.000996
117 0.001995
48 0.000998
4 0.000997
8 0.000994
21 0.000994
37 0.000997
57 0.000997
73 0.000965
75 0.000953
81 0.000997
91 0.000967
103 0.000998
117 0.0
134 0.0
153 0.0
124 0.0
55 0.0
15 0.001005
13 0.0
35 0.0
53 0.0
82 0.0
89 0.0
90 0.0
94 0.0
103 0.0
120 0.000998
134 0.000978
148 0.000997
162 0.0
172 0.0
107 0.0
58 0.0
56 0.0
74 0.0
94 0.0
113 0.0
126 0.0
127 0.0
127 0.0
134 0.0
144 0.000998
157 0.000997
175 0.0
189 0.001003
181 0.001038
120 0.0
85 0.0
86 0.0
104 0.0
131 0.0
150 0.0
160 0.0
160 0.0
159 0.000964
162 0.000998
173 0.000997
188 0.000998
203 0.001004
214 0.001012
205 0.000997
145 0.000997
100 0.000998
95 0.001996
112 0.000998
127 0.000998
143 0.001006
157 0.000998
163 0.000998
164 0.000965
170 0.000998
179 0.001995
191 0.000997
203 0.000996
215 0.000998
226 0.00102
179 0.000997
119 0.002024
100 0.017917
96 0.001943
97 0.000996
116 0.001034
154 0.000986
161 0.000982
182 0.00197
204 0.001987
213 0.001995
220 0.001994
189 0.002029
103 0.001995
98 0.001991
111 0.002007
130 0.001949
139 0.001965
153 0.000999
161 0.000998
160 0.001028
163 0.001997
168 0.001994
174 0.001971
187 0.002032
202 0.001982
218 0.001988
219 0.001995
149 0.002001
124 0.001945
117 0.002012
134 0.001995
152 0.002029
174 0.001963
184 0.001028
185 0.002004
182 0.002994
185 0.002007
193 0.001996
205 0.002031
216 0.001997
228 0.001023
235 0.001995
202 0.002018
149 0.002992
129 0.002996
141 0.000998
158 0.000999
173 0.001022
194 0.000974
196 0.001028
193 0.002992
195 0.003042
203 0.001997
212 0.000997
220 0.001963
179 0.003023
240 0.003036
225 0.001059
166 0.000997
135 0.000976
145 0.000996
160 0.000997
175 0.00296
189 0.002992
195 0.001005
194 0.000997
194 0.000983
197 0.003029
204 0.002999
217 0.0
227 0.001006
235 0.0
225 0.0
171 0.0
143 0.003974
144 0.003989
163 0.0
177 0.0
188 0.0
195 0.004021
196 0.005034
192 0.00095
192 0.000997
196 0.000966
209 0.000959
217 0.001001
225 0.003994
232 0.003959
192 0.001011
146 0.0
134 0.0
145 0.003993
163 0.004048
183 0.000953
194 0.0
198 0.000998
192 0.0
193 0.0
195 0.000997
200 0.004988
207 0.005018
218 0.0
225 0.0
217 0.0
169 0.005018
141 0.00399
149 0.000998
168 0.00101
195 0.001002
206 0.00103
206 0.000988
202 0.005019
199 0.004987
202 0.001033
207 0.000957
213 0.001
220 0.005056
226 0.005032
204 0.000972
151 0.000998
131 0.001931
145 0.002032
161 0.002049
175 0.004987
185 0.005031
187 0.001995
182 0.001997
181 0.001995
182 0.005017
186 0.005019
195 0.002956
202 0.001991
209 0.001997
163 0.000987
122 0.000961
113 0.005984
123 0.006017
143 0.002014
155 0.001995
165 0.002001
167 0.005024
164 0.005031
162 0.001995
164 0.001959
172 0.003003
180 0.003023
188 0.003007
195 0.005981
190 0.005979
123 0.001978
99 0.001994
102 0.002015
116 0.005981
131 0.006031
147 0.002029
154 0.002992
151 0.003012
149 0.003016
151 0.002044
155 0.006986
161 0.00603
169 0.006022
179 0.002064
186 0.002024
172 0.001988
121 0.005984
98 0.002992
94 0.001992
129 0.001975
148 0.001023
150 0.001037
164 0.0
180 0.002029
94 0.001051
120 0.000997
152 0.00098
147 0.002994
142 0.002995
143 0.007967
147 0.007977
152 0.003992
161 0.008001
171 0.00303
166 0.003007
117 0.003994
82 0.007934
76 0.007933
92 0.003984
108 0.002989
120 0.003032
129 0.007022
129 0.006982
122 0.00502
123 0.007979
129 0.003974
136 0.004028
144 0.003953
151 0.007943
158 0.007979
124 0.004008
74 0.004042
53 0.004004
57 0.007979
75 0.007022
87 0.004978
101 0.008022
104 0.004944
102 0.005002
103 0.003989
107 0.007982
113 0.006979
119 0.004989
128 0.004959
135 0.004989
143 0.003989
121 0.007945
56 0.006958
44 0.007012
58 0.006983
72 0.004984
84 0.005001
93 0.003965
95 0.00698
92 0.006993
93 0.004019
98 0.004023
105 0.005041
115 0.007034
124 0.00702
138 0.006982
121 0.006985
70 0.004005
45 0.005017
49 0.004999
71 0.006983
87 0.006927
102 0.005023
110 0.004029
106 0.005949
104 0.005909
107 0.006941
118 0.006982
127 0.007012
135 0.005016
143 0.005017
146 0.005071
84 0.006961
53 0.006938
52 0.004945
67 0.005018
87 0.005957
101 0.005984
108 0.006063
106 0.005984
106 0.006039
113 0.005981
119 0.005967
125 0.005026
137 0.006982
147 0.005985
151 0.005008
106 0.004975
59 0.00564
45 0.00701
56 0.006019
82 0.006035
95 0.005985
104 0.00598
104 0.005007
103 0.004961
106 0.005036
111 0.005022
118 0.005975
128 0.005933
137 0.005953
146 0.006029
116 0.004994
42 0.005973
38 0.005978
48 0.005984
62 0.005922
75 0.006002
89 0.005995
94 0.005007
96 0.006019
99 0.005985
102 0.004995
108 0.00502
118 0.005019
137 0.004981
148 0.004987
136 0.004986
65 0.004992
39 0.00594
43 0.004988
57 0.005986
69 0.005938
86 0.004938
94 0.00398
93 0.004963
92 0.005015
101 0.004986
110 0.004987
119 0.005017
132 0.004959
141 0.004987
150 0.004953
123 0.004986
71 0.004989
46 0.00502
59 0.004049
77 0.003989
93 0.00399
113 0.004021
113 0.00402
110 0.004022
113 0.005015
120 0.00496
131 0.00402
142 0.004031
153 0.004988
164 0.004035
160 0.004037
147 0.001997
93 0.001996
65 0.001957
86 0.000972
110 0.001001
130 0.0
132 0.000977
138 0.001954
150 0.000998
167 0.0
185 0.003959
138 0.003998
94 0.003989
82 0.003997
95 0.003989
108 0.003989
120 0.00399
130 0.004022
136 0.00399
137 0.003035
139 0.00294
143 0.002982
157 0.002992
166 0.003033
176 0.002992
187 0.003
186 0.003023
136 0.002992
94 0.00304
87 0.002975
97 0.003991
113 0.002987
126 0.003027
137 0.002953
142 0.002999
140 0.002994
142 0.002993
147 0.002994
158 0.002994
168 0.002995
178 0.002025
188 0.001996
196 0.001998
148 0.001996
102 0.002035
90 0.00201
112 0.002026
127 0.002039
141 0.002051
151 0.00304
150 0.002992
147 0.002038
150 0.002992
157 0.001994
165 0.001995
176 0.001995
185 0.002047
194 0.001999
169 0.001995
119 0.001994
98 0.001995
106 0.001025
128 0.001995
144 0.001994
159 0.002003
164 0.001994
162 0.001994
159 0.001996
162 0.001995
168 0.002011
184 0.001995
193 0.001995
200 0.002028
194 0.002027
140 0.002026
93 0.001993
95 0.000991
111 0.000998
126 0.000999
141 0.000988
154 0.000997
154 0.001
151 0.000997
153 0.001995
160 0.001995
169 0.001987
178 0.001996
190 0.000997
193 0.000998
143 0.001
92 0.001002
74 0.000998
85 0.000998
98 0.001036
122 0.000984
132 0.000998
134 0.001074
133 0.0
134 0.0
141 0.0
149 0.001004
159 0.000997
169 0.000998
179 0.000998
177 0.000998
120 0.001007
64 0.000997
69 0.0
85 0.000998
99 0.000997
113 0.0
125 0.0
125 0.0
123 0.0
126 0.0
133 0.0
147 0.0
160 0.0
178 0.0
188 0.0
181 0.0
120 0.000997
76 0.001006
71 0.0
86 0.0
104 0.0
120 0.0
133 0.0
134 0.0
131 0.0
137 0.0
144 0.0
154 0.000997
164 0.000998
174 0.000997
187 0.000998
176 0.000997
118 0.001
80 0.000998
77 0.001004
93 0.000991
117 0.0
140 0.000988
148 0.0
144 0.0
142 0.001078
146 0.000999
153 0.000998
167 0.000998
180 0.000999
192 0.000967
201 0.000998
170 0.000998
92 0.000966
73 0.000998
92 0.000954
111 0.001038
135 0.001994
142 0.000997
143 0.001961
136 0.001996
135 0.001969
143 0.001994
150 0.001022
161 0.00101
177 0.001015
192 0.000992
150 0.000999
87 0.001024
73 0.016954
63 0.001997
57 0.000997
93 0.0
113 0.00195
116 0.0
144 0.0
173 0.000946
47 0.001044
47 0.0
60 0.001988
80 0.001987
88 0.001995
86 0.001995
86 0.002033
96 0.001033
107 0.001989
119 0.002012
130 0.00302
142 0.003019
157 0.001978
134 0.001995
90 0.00198
28 0.00202
27 0.002001
48 0.001993
65 0.001995
82 0.002027
90 0.000997
88 0.000976
87 0.00101
93 0.003
103 0.002997
119 0.000995
132 0.001003
145 0.001905
161 0.000979
118 0.000984
59 0.002992
35 0.0029
45 0.0
64 0.000962
82 0.001021
101 0.002993
109 0.002993
107 0.000996
107 0.001987
112 0.001967
131 0.002019
143 0.000969
157 0.004015
171 0.004023
185 0.001021
146 0.001009
82 0.000997
52 0.002993
52 0.003024
69 0.000975
81 0.001001
101 0.001999
108 0.000998
110 0.000953
115 0.004025
125 0.004019
140 0.0
153 0.0
163 0.00099
172 0.003997
180 0.003989
158 0.0
101 0.001009
65 0.0
77 0.0
90 0.0
99 0.004023
109 0.00399
120 0.0
124 0.0
117 0.0
122 0.003991
132 0.004019
147 0.000945
160 0.000954
186 0.000966
197 0.000991
156 0.000998
95 0.000966
64 0.003989
64 0.00502
85 0.00101
101 0.0
118 0.0
124 0.00503
124 0.004985
123 0.0
132 0.004987
148 0.000997
161 0.001022
173 0.0
183 0.005029
184 0.004987
120 0.001033
88 0.001994
86 0.000998
99 0.005038
116 0.004956
140 0.000971
155 0.006039
158 0.001002
164 0.0
173 0.001023
183 0.005017
191 0.00504
205 0.000961
215 0.000999
196 0.000998
136 0.006047
100 0.006026
102 0.001021
124 0.006012
148 0.002028
164 0.00202
168 0.002001
164 0.005995
162 0.005984
168 0.002031
178 0.000997
187 0.001021
197 0.005027
206 0.005988
155 0.001999
90 0.006015
86 0.001977
99 0.001986
112 0.001995
123 0.005984
133 0.005982
140 0.002023
138 0.001995
139 0.002008
144 0.006983
152 0.007014
163 0.006979
177 0.006966
168 0.007013
93 0.003962
65 0.002966
66 0.003031
76 0.006982
83 0.006986
94 0.00399
102 0.002931
107 0.003003
108 0.002958
112 0.000979
143 0.000972
169 0.001951
86 0.001021
56 0.001983
65 0.002992
74 0.006998
85 0.00699
108 0.007033
113 0.007027
116 0.002045
123 0.002025
132 0.003006
142 0.007948
154 0.007981
163 0.003002
174 0.002024
185 0.003026
188 0.007984
134 0.007978
76 0.007979
77 0.008026
91 0.004001
100 0.00298
110 0.004007
121 0.00701
131 0.006981
136 0.003026
138 0.002983
142 0.004029
152 0.007945
169 0.007982
182 0.007948
190 0.007972
201 0.004007
208 0.002992
215 0.003027
165 0.007971
115 0.007977
103 0.003956
113 0.004995
128 0.002969
144 0.006958
156 0.006983
169 0.007948
170 0.007949
173 0.00798
179 0.005
187 0.003989
195 0.003993
204 0.007978
211 0.007978
217 0.003989
212 0.004014
168 0.003988
134 0.007965
149 0.00499
173 0.007036
185 0.00695
194 0.005019
194 0.005019
188 0.005024
184 0.007029
188 0.006987
195 0.004985
206 0.005983
211 0.005036
222 0.006985
232 0.00499
205 0.007038
156 0.00604
139 0.006027
147 0.004983
163 0.004988
178 0.007008
187 0.006982
196 0.00499
197 0.005016
197 0.005024
198 0.006995
205 0.005969
212 0.005955
217 0.005998
225 0.005036
231 0.005023
232 0.005019
172 0.00598
142 0.005985
141 0.004995
152 0.005034
166 0.004987
179 0.006582
190 0.005984
195 0.006974
194 0.006935
197 0.005934
201 0.005992
204 0.005983
210 0.005984
215 0.005992
221 0.006024
227 0.004926
226 0.005972
162 0.006025
133 0.006005
144 0.005994
158 0.006021
169 0.005984
183 0.005951
188 0.005954
189 0.00597
186 0.005985
186 0.00599
191 0.004964
195 0.005961
201 0.004974
212 0.005995
217 0.004949
223 0.004983
187 0.004964
135 0.005953
134 0.00593
148 0.005937
162 0.00601
171 0.006021
182 0.005985
185 0.004987
181 0.004991
177 0.004987
179 0.005005
184 0.005013
191 0.004988
200 0.004989
206 0.004024
213 0.004021
188 0.003987
141 0.004022
125 0.004022
138 0.004041
155 0.004983
174 0.005015
182 0.004979
182 0.004987
177 0.005017
174 0.004986
177 0.004967
182 0.004991
186 0.004987
192 0.003948
200 0.003982
206 0.003993
179 0.003989
111 0.00405
112 0.004036
124 0.003971
140 0.003993
156 0.004021
164 0.003989
165 0.003973
162 0.00399
158 0.003982
159 0.003971
160 0.011968
164 0.002014
169 0.0
186 0.001995
127 0.0
98 0.000997
119 0.003989
131 0.003969
141 0.003989
144 0.003987
141 0.003989
139 0.003035
142 0.003026
147 0.002989
154 0.002993
162 0.002992
170 0.003992
177 0.003959
150 0.003995
98 0.003033
75 0.003021
83 0.003018
96 0.003914
117 0.004019
125 0.003023
128 0.002989
126 0.002992
125 0.003024
128 0.003024
133 0.003039
139 0.002992
147 0.002991
154 0.001998
165 0.003038
162 0.002984
82 0.003017
66 0.002985
73 0.002992
88 0.002995
101 0.002966
117 0.002992
124 0.003022
122 0.003019
118 0.002986
118 0.001994
124 0.001996
130 0.002003
141 0.003023
149 0.002027
158 0.003022
156 0.00298
106 0.002992
63 0.003023
65 0.001986
80 0.002002
98 0.001993
112 0.001997
126 0.002
126 0.001996
118 0.001972
118 0.001986
121 0.002033
128 0.002025
136 0.001984
147 0.001992
157 0.002028
146 0.001994
95 0.00195
67 0.002028
69 0.001979
84 0.001994
111 0.002026
125 0.002026
128 0.001985
122 0.001994
117 0.001995
117 0.002024
122 0.002004
131 0.000984
140 0.001002
148 0.001004
158 0.000997
110 0.001001
52 0.001995
47 0.002027
61 0.002026
76 0.001993
89 0.002034
99 0.001995
100 0.001024
95 0.001
93 0.001019
97 0.000995
103 0.001002
115 0.001034
128 0.001073
140 0.000997
120 0.000998
61 0.000966
27 0.001001
21 0.001063
35 0.000977
47 0.001042
57 0.000928
65 0.000966
68 0.000992
66 0.001012
68 0.000997
76 0.000997
85 0.000967
95 0.000997
107 0.0
118 0.0
117 0.0
59 0.0
12 0.0
0 0.0
3 0.001
18 0.001032
32 0.000997
45 0.000997
48 0.000998
48 0.0
50 0.000997
56 0.0
68 0.0
77 0.0
89 0.0
99 0.0
111 0.0
94 0.0
19 0.0
0 0.0
0 0.0
14 0.0
26 0.0
40 0.0
53 0.0
53 0.000966
54 0.001963
58 0.000989
64 0.000966
75 0.000962
93 0.001046
105 0.002041
120 0.001017
129 0.00103
88 0.001031
33 0.0
9 0.000997
18 0.001041
34 0.000997
50 0.001006
67 0.000965
78 0.001008
76 0.000997
77 0.000998
85 0.000997
94 0.000994
105 0.001016
118 0.001004
130 0.000997
147 0.000985
127 0.000995
67 0.000967
52 0.028894
32 0.0
27 0.001
29 0.002992
69 0.001011
94 0.0
90 0.000994
107 0.001994
119 0.001982
131 0.00201
145 0.002003
158 0.00199
136 0.001029
70 0.001997
28 0.000997
29 0.002025
40 0.000903
53 0.002001
67 0.001055
83 0.001999
88 0.002
89 0.001988
92 0.001969
98 0.001994
117 0.001996
135 0.001997
149 0.001995
161 0.00203
165 0.001995
88 0.001989
51 0.001995
23 0.002015
28 0.002007
39 0.00198
56 0.001995
71 0.002032
85 0.002001
85 0.001963
92 0.002054
100 0.001995
111 0.001995
122 0.001992
136 0.002
153 0.001934
167 0.002021
176 0.003004
104 0.001997
51 0.001959
35 0.000999
49 0.001969
62 0.00198
77 0.002995
92 0.002071
101 0.000992
100 0.00198
105 0.00196
113 0.001995
124 0.00292
142 0.001991
156 0.001965
179 0.000997
192 0.002026
169 0.002042
104 0.003991
63 0.002992
60 0.001
77 0.002024
93 0.000994
110 0.002957
124 0.002955
128 0.000977
125 0.001977
133 0.000966
142 0.000997
153 0.000998
166 0.002992
180 0.002979
198 0.000996
205 0.000972
153 0.000997
92 0.003035
66 0.003028
74 0.001021
91 0.000966
120 0.0
135 0.0
138 0.002008
137 0.003936
138 0.004049
147 0.000963
159 0.000974
171 0.000973
185 0.004052
199 0.003909
216 0.0
177 0.000972
74 0.0
57 0.0
64 0.0
77 0.003989
91 0.003988
106 0.004955
120 0.0
121 0.00097
122 0.001972
126 0.003992
135 0.004969
151 0.0
168 0.005011
187 0.001039
201 0.0
184 0.0
111 0.005044
59 0.004988
44 0.0
54 0.0
68 0.00099
83 0.003989
97 0.003989
108 0.000997
109 0.004986
114 0.000996
123 0.000966
136 0.0
149 0.004987
165 0.004989
184 0.0
197 0.00099
173 0.0
100 0.004983
53 0.003982
46 0.000936
66 0.00602
87 0.000977
102 0.000992
111 0.001048
111 0.006019
112 0.005013
117 0.001003
128 0.00096
141 0.000977
154 0.004987
168 0.004974
187 0.000972
197 0.00502
115 0.001991
63 0.001982
51 0.001014
64 0.005984
82 0.005973
108 0.000999
125 0.001038
130 0.000969
125 0.005021
124 0.005002
130 0.001976
144 0.005964
161 0.002
174 0.001997
189 0.001997
201 0.005974
162 0.005984
77 0.001032
53 0.001048
58 0.000979
75 0.005947
88 0.000999
115 0.007017
128 0.007024
124 0.006981
124 0.002007
130 0.000996
141 0.001991
153 0.00602
167 0.005994
186 0.001015
197 0.001012
158 0.001029
84 0.005995
41 0.007017
40 0.007022
53 0.006981
73 0.003002
88 0.002992
96 0.003004
96 0.006977
96 0.006979
102 0.001996
112 0.002035
126 0.002969
141 0.006983
155 0.006981
176 0.006988
130 0.007033
41 0.003018
15 0.002961
18 0.002972
29 0.006985
41 0.006991
61 0.001994
75 0.003008
80 0.00299
81 0.007967
84 0.007979
101 0.007963
119 0.007949
136 0.003958
153 0.003994
170 0.003041
173 0.006981
108 0.007976
29 0.003017
15 0.002983
24 0.003031
38 0.007001
54 0.007002
81 0.006995
86 0.007946
84 0.003976
88 0.00401
97 0.003988
114 0.007975
129 0.007961
145 0.002966
160 0.003984
175 0.003031
136 0.007973
86 0.007982
25 0.007014
33 0.007978
57 0.004987
76 0.003949
95 0.004016
104 0.004038
102 0.007956
100 0.00794
106 0.004941
117 0.005022
131 0.005029
151 0.006965
173 0.005028
186 0.006985
130 0.006957
62 0.004956
32 0.005028
33 0.003021
49 0.008009
72 0.007966
92 0.003992
104 0.004028
107 0.003942
106 0.007982
115 0.004013
129 0.006934
143 0.007035
159 0.004988
174 0.00499
192 0.00398
156 0.006972
76 0.00696
30 0.004017
20 0.003972
29 0.005
46 0.005983
73 0.005966
85 0.006037
87 0.006985
88 0.005994
94 0.004975
103 0.004998
121 0.006979
137 0.007
154 0.004961
171 0.004955
186 0.005002
126 0.006987
27 0.005926
16 0.006021
25 0.005987
39 0.005993
55 0.005017
72 0.005034
86 0.005952
87 0.005951
91 0.003959
99 0.005
117 0.005942
132 0.005976
155 0.004988
178 0.005987
195 0.005986
196 0.005982
125 0.005966
44 0.005938
30 0.005979
41 0.005976
58 0.00498
75 0.00493
102 0.005956
110 0.004986
108 0.004933
112 0.005975
121 0.006026
135 0.004979
149 0.005993
165 0.005036
181 0.005952
203 0.00498
171 0.005979
80 0.004936
49 0.004988
52 0.004996
83 0.006009
106 0.004989
126 0.005984
134 0.005892
130 0.005936
130 0.00595
136 0.005932
148 0.005984
164 0.004987
187 0.004986
203 0.004987
220 0.004988
135 0.004955
69 0.004997
44 0.004987
48 0.005032
70 0.004955
89 0.004991
110 0.004978
121 0.004995
123 0.005001
121 0.003937
121 0.011968
123 0.001992
130 0.0
133 0.001992
162 0.001973
202 0.001019
149 0.004953
72 0.004962
33 0.004949
27 0.004943
40 0.003963
60 0.003991
79 0.003991
94 0.00395
100 0.00398
101 0.003984
106 0.003989
118 0.003982
139 0.004005
154 0.004
170 0.003982
186 0.003993
178 0.004002
78 0.004013
29 0.003993
18 0.00395
38 0.003963
54 0.003989
72 0.003977
87 0.00402
92 0.003982
92 0.003956
96 0.003944
106 0.003985
118 0.002969
134 0.002985
158 0.003024
175 0.002995
175 0.003032
98 0.002976
39 0.003024
20 0.004001
27 0.004018
49 0.003995
70 0.003966
89 0.002966
98 0.002992
97 0.002984
98 0.003006
106 0.002993
128 0.003023
145 0.002999
160 0.002992
178 0.002962
191 0.003
120 0.002993
55 0.001974
28 0.002961
33 0.002962
51 0.002981
79 0.002993
100 0.002963
109 0.003029
106 0.003001
109 0.003025
117 0.002986
129 0.00299
150 0.002037
167 0.001992
183 0.001994
195 0.001996
144 0.002036
47 0.001995
18 0.002013
30 0.002015
46 0.002991
64 0.001995
81 0.002997
90 0.003007
90 0.002978
92 0.003015
102 0.001961
116 0.001997
131 0.001997
154 0.00195
171 0.001991
163 0.002026
83 0.002002
22 0.00196
0 0.001998
2 0.002006
13 0.001987
26 0.001962
42 0.000959
55 0.000992
60 0.001013
63 0.001036
73 0.001029
90 0.000997
111 0.000999
128 0.000998
145 0.001053
163 0.000968
141 0.000983
40 0.002034
0 0.002038
0 0.001019
0 0.000992
0 0.001992
21 0.001
44 0.000999
51 0.000997
54 0.000997
62 0.001011
74 0.00102
89 0.001
112 0.000998
128 0.001958
144 0.001982
163 0.001994
163 0.000995
66 0.000964
3 0.000998
63 0.001044
70 0.000998
77 0.001011
86 0.000982
95 0.00103
98 0.001013
97 0.0
100 0.001007
105 0.000995
113 0.000997
125 0.000995
137 0.000997
148 0.0
152 0.0
123 0.0
88 0.0
73 0.0
76 0.0
85 0.0
94 0.0
105 0.0
112 0.0
114 0.0
116 0.0
123 0.000994
130 0.0
138 0.0
146 0.0
156 0.0
167 0.0
170 0.0
139 0.0
99 0.001992
78 0.0
74 0.000965
80 0.001031
87 0.001043
99 0.001004
106 0.001004
110 0.000983
112 0.001981
117 0.001997
127 0.001994
136 0.000993
143 0.001
148 0.016956
150 0.00399
164 0.0
124 0.00101
80 0.001984
71 0.000969
74 0.000954
78 0.001001
83 0.001003
92 0.000992
100 0.001009
103 0.001001
106 0.001008
110 0.000992
122 0.001999
131 0.002019
141 0.000981
150 0.000999
167 0.000989
176 0.000993
147 0.000994
87 0.001016
69 0.001015
70 0.00098
78 0.000997
87 0.000995
109 0.001996
119 0.001983
129 0.001953
135 0.002032
142 0.002006
152 0.002042
164 0.001999
180 0.001997
190 0.001978
206 0.002053
207 0.001031
169 0.000992
98 0.001995
90 0.001977
100 0.001963
117 0.001998
141 0.001975
148 0.001981
152 0.001993
146 0.002012
144 0.002024
147 0.001995
155 0.001996
168 0.001993
185 0.001991
199 0.002003
173 0.00201
127 0.003019
103 0.002971
102 0.001954
116 0.001994
134 0.001989
156 0.002994
166 0.002952
167 0.002022
168 0.002031
176 0.001035
184 0.002027
191 0.002987
204 0.002941
215 0.002984
209 0.001963
155 0.001966
114 0.001994
101 0.002992
106 0.002995
120 0.001995
132 0.000997
149 0.001995
152 0.000994
153 0.002043
156 0.00301
162 0.003013
175 0.000976
188 0.00096
199 0.000996
209 0.003003
196 0.00296
124 0.001998
93 0.000992
93 0.001997
106 0.000981
120 0.001001
136 0.004025
148 0.004018
153 0.000983
154 0.001014
157 0.001974
164 0.003025
175 0.002986
190 0.002002
201 0.001995
206 0.0
153 0.000984
107 0.001014
91 0.004056
95 0.00399
112 0.000998
128 0.00103
143 0.001029
152 0.003989
154 0.003981
154 0.000998
159 0.000997
175 0.0
187 0.0
197 0.00095
207 0.000999
210 0.003962
167 0.003965
110 0.0
100 0.001009
110 0.000981
126 0.003968
142 0.004001
163 0.000993
169 0.004986
165 0.0
165 0.000987
170 0.0
179 0.004986
189 0.004994
203 0.001004
214 0.00102
193 0.0
140 0.004002
111 0.004943
110 0.0
126 0.004956
147 0.0
161 0.001033
166 0.001001
164 0.004986
162 0.004986
165 0.000994
172 0.000977
182 0.000997
192 0.005965
202 0.005965
189 0.001015
117 0.005984
86 0.00101
88 0.000977
99 0.00103
110 0.004998
123 0.004995
126 0.020909
130 0.002996
134 0.001948
134 0.001993
143 0.001998
154 0.001004
167 0.005984
180 0.001005
171 0.000996
118 0.000995
76 0.005994
62 0.004997
68 0.002007
77 0.000995
87 0.002015
98 0.006006
106 0.005994
108 0.00203
112 0.006034
119 0.001996
128 0.000994
138 0.001997
149 0.001002
159 0.005977
165 0.005986
107 0.001985
65 0.002013
50 0.002016
53 0.006985
62 0.006966
80 0.005984
92 0.005961
100 0.0
101 0.001988
103 0.001993
110 0.006947
119 0.006939
134 0.001976
144 0.002996
155 0.003055
165 0.006967
152 0.006974
70 0.006975
51 0.006998
59 0.001029
71 0.002022
83 0.002065
97 0.006994
107 0.006999
106 0.001995
105 0.001986
110 0.001999
118 0.007023
127 0.006981
146 0.006985
156 0.006944
167 0.001975
137 0.002029
86 0.002022
59 0.007981
61 0.007964
78 0.003014
92 0.003012
106 0.002071
117 0.007977
118 0.007929
118 0.007984
122 0.00798
132 0.00202
142 0.002038
153 0.00198
163 0.007974
176 0.007941
172 0.001048
123 0.002046
63 0.003025
61 0.007936
72 0.007965
100 0.007981
113 0.00797
119 0.002963
118 0.002066
119 0.003018
126 0.006987
135 0.007997
144 0.00203
153 0.003026
163 0.002986
174 0.003022
152 0.007994
80 0.004019
52 0.007989
56 0.007964
66 0.003027
76 0.005041
88 0.004025
103 0.006977
107 0.006982
107 0.00399
110 0.004005
117 0.004017
129 0.007897
143 0.00403
158 0.007005
171 0.007983
177 0.00298
135 0.004007
80 0.003951
49 0.007012
49 0.006976
55 0.005039
63 0.004033
73 0.003984
88 0.006966
94 0.004023
98 0.006967
104 0.005986
113 0.003987
124 0.004988
136 0.004987
152 0.005953
165 0.005987
177 0.004965
189 0.004989
167 0.005025
86 0.007037
52 0.005019
57 0.006723
66 0.006959
75 0.004987
88 0.00503
99 0.005012
103 0.005943
104 0.005992
109 0.005018
117 0.005035
128 0.004034
144 0.005944
160 0.005
176 0.006951
187 0.005962
160 0.004994
102 0.00495
70 0.005009
68 0.005985
80 0.005977
93 0.004986
108 0.004011
122 0.004967
126 0.004971
125 0.004996
129 0.004985
139 0.005038
150 0.004987
160 0.005007
176 0.005027
188 0.004942
199 0.00594
180 0.004966
118 0.005984
73 0.004964
71 0.004997
86 0.005952
104 0.006004
119 0.00602
128 0.006011
129 0.004966
129 0.005099
130 0.010936
136 0.001992
152 0.004997
167 0.004995
179 0.004971
191 0.004991
205 0.004943
153 0.004944
95 0.004993
67 0.003995
66 0.004987
76 0.003956
87 0.004948
100 0.004008
113 0.003998
121 0.005006
121 0.005027
125 0.004988
139 0.004995
150 0.004969
160 0.004962
173 0.004974
190 0.004033
202 0.004943
182 0.00398
116 0.003986
73 0.003996
58 0.003984
65 0.003989
75 0.003974
96 0.003977
108 0.003966
115 0.003961
117 0.004968
122 0.003976
131 0.004054
142 0.002993
154 0.004025
167 0.003998
183 0.003988
196 0.003989
209 0.003942
146 0.003977
90 0.003971
66 0.003981
67 0.002984
78 0.003047
93 0.003003
108 0.002993
122 0.002996
126 0.002982
126 0.003
130 0.003995
137 0.003941
154 0.003991
167 0.003993
179 0.003995
191 0.002984
205 0.003
171 0.003014
109 0.00299
77 0.003
74 0.003002
85 0.002988
106 0.002992
124 0.00303
141 0.002996
140 0.002005
137 0.003977
141 0.002995
149 0.002989
162 0.003003
174 0.002992
186 0.002997
199 0.002988
209 0.002994
151 0.002992
96 0.003026
73 0.002991
83 0.001992
98 0.001961
114 0.001997
130 0.002003
140 0.001991
138 0.001994
138 0.002054
143 0.002993
151 0.002979
165 0.003023
176 0.002994
198 0.001981
208 0.001964
168 0.001996
102 0.001997
67 0.002001
62 0.001999
71 0.001994
83 0.002001
96 0.001998
111 0.001988
119 0.002958
120 0.000998
125 0.001979
134 0.000997
145 0.001992
157 0.000983
170 0.000994
184 0.000989
199 0.002
162 0.002005
97 0.001016
62 0.001992
54 0.001996
66 0.002027
81 0.002001
101 0.001023
112 0.000997
116 0.000996
116 0.001007
120 0.001001
131 0.000988
143 0.001018
156 0.001011
169 0.000987
182 0.000999
200 0.001951
151 0.002
79 0.001001
62 0.000988
66 0.000974
78 0.001049
91 0.000989
113 0.001004
124 0.000997
126 0.000966
124 0.000998
127 0.001959
136 0.000997
150 0.00199
166 0.000993
178 0.0
192 0.000998
189 0.000998
130 0.001035
76 0.0
69 0.0
78 0.001008
93 0.001018
111 0.001004
132 0.0
137 0.001011
134 0.001994
137 0.000997
144 0.0
154 0.000997
166 0.0
182 0.000999
195 0.0
201 0.0
149 0.0
91 0.0
62 0.0
70 0.0
88 0.0
103 0.0
117 0.0
123 0.000998
123 0.0
124 0.0
130 0.0
139 0.000997
150 0.0
162 0.0
175 0.000998
192 0.0
143 0.0
71 0.0
51 0.002028
52 0.001993
62 0.00201
72 0.001994
90 0.001987
101 0.001988
105 0.001993
105 0.002047
109 0.002043
123 0.000989
134 0.001001
151 0.001001
165 0.000991
179 0.001962
186 0.001963
135 0.001962
67 0.001965
49 0.002011
52 0.00194
63 0.002033
74 0.001997
98 0.001951
106 0.001971
108 0.001947
111 0.002988
116 0.001961
126 0.001984
137 0.001993
155 0.002002
168 0.000957
181 0.002021
191 0.001001
148 0.001001
69 0.00196
61 0.000999
74 0.002002
87 0.002011
102 0.002002
117 0.001982
123 0.001992
121 0.002001
122 0.002028
127 0.001998
137 0.002064
148 0.002026
169 0.000985
182 0.000988
193 0.000979
147 0.00202
92 0.001986
69 0.001996
70 0.001996
86 0.002959
101 0.002999
118 0.001986
131 0.001949
133 0.002045
132 0.001982
138 0.001982
147 0.002985
157 0.002995
169 0.002028
182 0.001993
197 0.002034
198 0.00199
118 0.002028
74 0.002027
59 0.002011
63 0.001995
85 0.002003
99 0.001999
111 0.002002
115 0.003024
115 0.003032
119 0.001992
127 0.001984
137 0.001991
149 0.001992
162 0.002992
179 0.001987
193 0.001993
169 0.00199
87 0.000999
58 0.001013
55 0.002961
63 0.002975
75 0.001999
84 0.002957
101 0.001998
108 0.002992
110 0.002992
115 0.001989
122 0.000963
140 0.002001
152 0.000995
165 0.000997
179 0.003053
193 0.002989
190 0.002987
127 0.002013
79 0.001049
62 0.003989
65 0.003957
79 0.000994
92 0.001034
114 0.002009
119 0.00299
119 0.002024
121 0.003977
126 0.003965
139 0.001987
147 0.002991
164 0.002967
176 0.002993
191 0.003022
202 0.001015
151 0.000943
78 0.001002
73 0.001029
83 0.000998
96 0.001005
112 0.003989
129 0.003936
138 0.001993
136 0.001002
134 0.002008
138 0.003958
146 0.004021
161 0.0
178 0.004956
197 0.0
207 0.000999
166 0.000962
106 0.003984
78 0.004987
78 0.002005
90 0.000998
105 0.002008
122 0.004032
136 0.00399
139 0.0
137 0.004993
144 0.000972
153 0.000994
163 0.000999
175 0.005013
187 0.004956
205 0.0
188 0.002
121 0.001
76 0.005022
61 0.004997
69 0.001995
84 0.006018
102 0.0
114 0.0
118 0.0
119 0.004966
120 0.005006
129 0.0
138 0.001002
149 0.001009
162 0.005021
176 0.004988
193 0.002007
139 0.006024
69 0.000998
52 0.002024
53 0.001998
62 0.005968
72 0.005982
90 0.002068
102 0.001966
107 0.001997
109 0.005982
112 0.005962
122 0.000998
136 0.005996
149 0.005966
167 0.000992
182 0.002008
191 0.001003
147 0.006027
88 0.005992
55 0.000995
57 0.001047
68 0.001017
80 0.007017
94 0.006986
111 0.007001
111 0.006981
112 0.001055
117 0.001995
126 0.002991
137 0.005942
149 0.005986
166 0.002043
180 0.002036
183 0.00203
133 0.007016
83 0.006979
62 0.006995
72 0.00699
91 0.002002
108 0.002017
121 0.001994
124 0.006976
121 0.00797
123 0.001978
128 0.002987
138 0.002044
153 0.007973
161 0.007946
183 0.006955
189 0.00701
119 0.002993
75 0.001989
60 0.001998
66 0.006993
77 0.006974
96 0.001994
112 0.002023
120 0.002044
120 0.007941
120 0.007979
131 0.007992
141 0.00798
152 0.003019
164 0.003022
177 0.003989
193 0.007991
176 0.007935
95 0.002958
61 0.003991
53 0.004025
59 0.007974
72 0.007966
87 0.007969
101 0.007968
105 0.002995
107 0.002988
112 0.003052
119 0.003011
133 0.006989
145 0.00698
157 0.004025
170 0.003996
183 0.003988
169 0.007976
77 0.002992
54 0.00798
53 0.007982
65 0.003009
76 0.00399
90 0.004961
105 0.007009
108 0.006952
109 0.003979
113 0.003988
121 0.004022
135 0.00694
152 0.003985
168 0.007978
181 0.007979
192 0.004026
163 0.003988
102 0.003958
61 0.006937
60 0.00695
70 0.004991
82 0.004008
96 0.00398
113 0.006985
115 0.003955
114 0.006979
116 0.009972
127 0.001997
138 0.005009
150 0.00503
166 0.006943
179 0.006017
186 0.004986
147 0.004988
94 0.005014
66 0.007079
75 0.004011
94 0.006958
111 0.006982
129 0.005983
131 0.003988
130 0.003989
131 0.005985
137 0.005982
146 0.004996
156 0.002958
168 0.004001
185 0.005979
201 0.003971
148 0.005938
91 0.006952
62 0.005983
63 0.005985
72 0.004972
86 0.00596
101 0.005986
113 0.005932
118 0.00499
118 0.004982
122 0.005965
132 0.00501
143 0.004999
159 0.005978
172 0.005984
189 0.004937
189 0.004993
133 0.005023
81 0.004986
58 0.005018
56 0.004973
66 0.005957
77 0.005995
100 0.005974
107 0.005029
112 0.005952
114 0.004957
122 0.00498
131 0.005034
143 0.00501
156 0.005017
168 0.005019
187 0.004968
199 0.004991
165 0.004033
75 0.004948
59 0.003947
62 0.004961
72 0.004972
87 0.005052
102 0.004935
113 0.004962
116 0.00502
118 0.004991
124 0.004987
133 0.00498
144 0.00498
165 0.004931
178 0.003964
191 0.003973
204 0.00399
167 0.004018
105 0.00399
74 0.003983
69 0.003989
79 0.004977
96 0.00492
107 0.004931
127 0.003956
130 0.004037
128 0.00502
132 0.003997
139 0.003983
153 0.003991
165 0.003974
177 0.004008
191 0.00399
203 0.003023
160 0.002981
105 0.003023
79 0.002988
85 0.003944
99 0.004014
116 0.00405
134 0.003989
142 0.00402
141 0.002997
140 0.003988
144 0.002995
152 0.003062
162 0.003026
178 0.003024
190 0.002992
211 0.003995
182 0.002991
115 0.003957
76 0.002963
66 0.002991
76 0.003024
89 0.002989
104 0.002978
118 0.003024
124 0.002992
124 0.003976
125 0.003025
136 0.002991
146 0.003979
158 0.003006
171 0.003003
184 0.002992
195 0.002992
148 0.002989
88 0.002992
58 0.002993
53 0.002993
64 0.003023
74 0.002028
98 0.003032
106 0.002987
109 0.002029
110 0.001974
114 0.001993
126 0.001955
137 0.001965
149 0.00199
162 0.002992
175 0.001995
191 0.003024
162 0.00304
67 0.002994
47 0.003015
49 0.002991
59 0.002983
69 0.001991
87 0.002025
97 0.001995
100 0.001999
100 0.001995
104 0.005
114 0.001993
124 0.001995
144 0.002029
157 0.001977
169 0.001991
176 0.000977
133 0.001006
79 0.001008
50 0.001995
54 0.001031
66 0.000996
78 0.002057
94 0.000997
107 0.000997
105 0.000997
106 0.001992
112 0.001032
122 0.001974
132 0.001994
144 0.001995
160 0.001018
172 0.000997
161 0.000997
106 0.001001
64 0.001001
50 0.000996
63 0.000974
82 0.001993
98 0.000994
108 0.001988
110 0.001983
109 0.002011
114 0.000998
122 0.000998
132 0.000956
143 0.001017
154 0.001005
171 0.000939
179 0.001025
111 0.000996
64 0.000993
45 0.000985
45 0.000997
53 0.001
66 0.000995
79 0.0
89 0.0
94 0.0
96 0.0
102 0.001
113 0.0
127 0.0
140 0.0
151 0.000992
163 0.001006
174 0.0
134 0.0
78 0.0
48 0.0
41 0.0
47 0.0
57 0.0
74 0.0
86 0.0
94 0.000985
96 0.0
101 0.00102
110 0.000997
120 0.000997
136 0.0
147 0.001985
158 0.001007
169 0.001023
181 0.002
139 0.000995
85 0.002008
55 0.002004
57 0.002008
67 0.002021
76 0.002019
89 0.001997
104 0.002031
107 0.000998
107 0.00203
110 0.000997
118 0.001971
135 0.001987
146 0.001998
161 0.001969
173 0.001992
181 0.001999
152 0.002042
104 0.002068
74 0.001998
76 0.001996
87 0.002035
99 0.002018
116 0.001
131 0.000997
131 0.002035
132 0.001039
137 0.000998
146 0.002004
156 0.00103
167 0.002029
182 0.001977
194 0.001984
203 0.002068
172 0.00203
102 0.001982
77 0.001986
81 0.002023
93 0.002057
105 0.000978
118 0.000977
127 0.001982
130 0.001008
132 0.001996
137 0.002034
146 0.001995
156 0.001995
167 0.001995
186 0.001974
197 0.001983
206 0.00201
158 0.001977
106 0.001961
81 0.002993
77 0.002993
86 0.002958
95 0.00399
107 0.003985
120 0.001995
127 0.001997
131 0.002011
136 0.001974
144 0.001993
157 0.002993
168 0.002987
184 0.001998
196 0.001969
208 0.002017
188 0.002993
132 0.003044
88 0.00205
83 0.00205
96 0.002942
103 0.001994
120 0.001943
133 0.003021
138 0.0
140 0.002
143 0.002013
151 0.000994
162 0.002984
172 0.002983
187 0.002992
195 0.002992
215 0.002985
188 0.002914
149 0.002948
101 0.002949
96 0.004017
108 0.000998
120 0.001934
135 0.001964
148 0.003992
154 0.003985
153 0.00101
153 0.001961
164 0.001995
173 0.002004
181 0.002952
195 0.002994
206 0.003025
218 0.001968
181 0.000963
130 0.001002
104 0.003989
102 0.004035
117 0.001007
130 0.000998
155 0.002992
161 0.000997
161 0.002
160 0.004003
163 0.003957
170 0.003993
183 0.0
193 0.002039
204 0.001002
216 0.004987
223 0.004987
159 0.0
102 0.004016
92 0.000997
100 0.001018
109 0.00101
122 0.003982
135 0.003973
144 0.001006
145 0.001008
146 0.000997
150 0.004943
158 0.004954
171 0.0
187 0.004954
202 0.002
214 0.00199
189 0.001992
128 0.004943
90 0.006038
80 0.0
86 0.0
96 0.001984
106 0.005985
119 0.006025
132 0.0
134 0.00499
139 0.0
145 0.0
155 0.001005
166 0.00499
177 0.005019
193 0.000997
207 0.0
206 0.001001
152 0.004987
103 0.005991
82 0.001022
91 0.006006
107 0.0
119 0.0
133 0.002041
139 0.006004
141 0.004986
143 0.001977
149 0.002045
157 0.002026
168 0.004989
179 0.005985
194 0.00106
210 0.006018
204 0.002
145 0.002039
105 0.0
95 0.005028
102 0.005984
119 0.002
133 0.000991
149 0.001992
155 0.002056
154 0.006018
152 0.005985
158 0.005984
166 0.005985
180 0.001995
191 0.000999
202 0.002047
214 0.005985
208 0.006036
138 0.001045
106 0.001045
101 0.001035
111 0.006976
125 0.006975
151 0.006963
161 0.006987
162 0.002003
160 0.002015
162 0.001988
167 0.006032
176 0.006034
189 0.002017
199 0.001988
211 0.001995
221 0.006981
190 0.006982
104 0.006981
88 0.006982
95 0.002023
104 0.001047
115 0.001997
128 0.006981
139 0.006983
140 0.002003
140 0.001999
143 0.002
153 0.007964
163 0.007954
177 0.006973
188 0.006963
203 0.001994
184 0.001995
124 0.002032
78 0.007949
73 0.007979
80 0.003982
89 0.003009
100 0.002995
114 0.007981
125 0.007986
127 0.007981
130 0.007975
139 0.002051
148 0.002994
158 0.001959
174 0.007977
182 0.007017
199 0.003999
204 0.004043
153 0.00298
87 0.007984
73 0.007979
79 0.003018
91 0.007972
107 0.007977
121 0.003006
129 0.001005
129 0.003004
129 0.007987
135 0.006996
143 0.004024
154 0.003978
165 0.003996
180 0.008009
196 0.003021
197 0.007957
140 0.007972
93 0.002988
76 0.002989
81 0.003024
100 0.006939
115 0.007031
132 0.00399
141 0.003992
141 0.004037
139 0.006982
143 0.003988
155 0.006981
166 0.006982
177 0.003961
188 0.00399
199 0.002993
195 0.005985
135 0.006982
90 0.00399
75 0.004038
80 0.003994
98 0.006939
119 0.003986
138 0.007011
141 0.006997
139 0.004011
140 0.003996
145 0.003024
156 0.006996
166 0.005987
177 0.004981
189 0.004
200 0.004983
203 0.00601
117 0.004987
66 0.005981
60 0.006955
67 0.005013
79 0.005027
91 0.004978
110 0.006016
118 0.006016
120 0.004993
120 0.004993
123 0.004985
135 0.005984
149 0.004991
161 0.004988
178 0.006046
191 0.005974
169 0.004986
103 0.005067
73 0.005978
53 0.005957
60 0.004987
72 0.005032
84 0.00502
101 0.004993
117 0.004955
119 0.004995
121 0.005977
128 0.004991
138 0.003022
153 0.004992
165 0.004945
178 0.005018
191 0.005003
189 0.005005
124 0.004957
76 0.004986
61 0.005006
73 0.005026
87 0.004997
104 0.004041
123 0.00498
128 0.005005
125 0.005017
125 0.004981
130 0.005021
142 0.004997
153 0.004948
164 0.00497
185 0.004933
194 0.004982
158 0.004987
97 0.004986
64 0.003981
69 0.003956
82 0.003958
99 0.004023
117 0.004986
133 0.00498
132 0.004965
130 0.004034
135 0.003983
143 0.004985
153 0.005017
164 0.003953
180 0.003983
193 0.004014
181 0.00399
115 0.004023
68 0.003989
52 0.004011
61 0.003973
74 0.003979
99 0.002994
112 0.003978
114 0.002983
112 0.003989
113 0.00399
122 0.004008
132 0.003988
143 0.003955
155 0.003951
168 0.00399
183 0.003989
145 0.00399
53 0.003991
37 0.003997
40 0.00399
51 0.003957
61 0.003147
80 0.002996
91 0.003022
95 0.002992
95 0.002992
99 0.002984
110 0.002987
121 0.002996
141 0.002992
154 0.002992
168 0.00298
178 0.003988
143 0.00402
63 0.002997
38 0.003005
37 0.002995
47 0.002991
59 0.002992
79 0.002997
92 0.003
98 0.002991
99 0.002992
105 0.002994
114 0.002031
125 0.002993
143 0.00203
155 0.001968
168 0.001962
181 0.002999
186 0.002993
111 0.003013
62 0.002999
50 0.002981
62 0.002984
76 0.001996
92 0.002984
103 0.00199
114 0.002002
112 0.001965
113 0.001998
119 0.001997
128 0.002039
143 0.002037
155 0.002025
176 0.00197
189 0.00197
179 0.002019
115 0.001059
70 0.001995
58 0.002022
70 0.001994
85 0.001945
102 0.001995
120 0.001995
127 0.002007
125 0.000982
125 0.001027
135 0.001985
146 0.002035
157 0.001995
170 0.001969
183 0.000987
200 0.000994
205 0.000999
147 0.001024
83 0.001036
54 0.000997
56 0.002004
72 0.001977
91 0.00204
106 0.001957
114 0.001016
114 0.000999
115 0.000985
122 0.001008
132 0.000963
143 0.000997
156 0.000997
168 0.000997
185 0.00198
203 0.001995
161 0.001999
91 0.002028
53 0.001987
46 0.000999
53 0.000998
68 0.000997
82 0.000998
96 0.001025
106 0.001018
110 0.001001
112 0.000997
122 0.000963
137 0.000988
150 0.000997
163 0.0
178 0.0
192 0.0
209 0.0
183 0.0
109 0.0
64 0.0
52 0.0
64 0.0
82 0.0
103 0.000997
117 0.0
122 0.0
121 0.0
123 0.0
134 0.0
145 0.0
157 0.0
171 0.0
184 0.0
198 0.0
217 0.0
173 0.0
89 0.002025
66 0.0
69 0.0
84 0.002031
99 0.002029
124 0.001988
137 0.00203
139 0.0
134 0.001046
134 0.001044
146 0.001009
158 0.002027
175 0.001991
188 0.001994
202 0.002031
213 0.002047
177 0.00203
93 0.001993
69 0.002026
71 0.002027
86 0.002025
103 0.002029
135 0.001989
144 0.002031
142 0.002031
140 0.001035
144 0.001031
152 0.002034
163 0.002049
180 0.002067
193 0.002029
208 0.001026
215 0.002027
158 0.001033
64 0.003026
52 0.002044
63 0.00196
77 0.002022
93 0.001
109 0.002026
119 0.002027
119 0.000995
119 0.002033
124 0.002046
134 0.001045
145 0.002031
168 0.002059
181 0.001998
199 0.002053
168 0.002044
94 0.001992
51 0.002032
39 0.001995
49 0.002962
62 0.00196
75 0.001991
91 0.001966
102 0.002033
105 0.001991
107 0.002044
117 0.002035
129 0.002036
142 0.00301
161 0.001997
175 0.002992
185 0.002992
184 0.001978
115 0.002011
60 0.001956
39 0.001964
51 0.002992
63 0.003037
77 0.001997
98 0.003023
104 0.002991
104 0.002026
107 0.002028
114 0.003007
125 0.003011
138 0.002992
155 0.001998
168 0.002958
191 0.001992
182 0.002967
95 0.00101
54 0.002992
46 0.000979
60 0.001993
74 0.00203
92 0.002027
108 0.003027
114 0.002992
110 0.001989
109 0.002026
122 0.002026
134 0.002033
146 0.002025
159 0.002993
171 0.004026
181 0.002992
134 0.002033
75 0.002965
48 0.005
48 0.004988
65 0.001997
80 0.00205
110 0.001981
117 0.002026
116 0.001037
116 0.00399
121 0.00399
132 0.000978
141 0.001015
153 0.000999
164 0.003989
176 0.00399
159 0.00097
87 0.001067
28 0.003988
19 0.000977
30 0.002084
42 0.002232
55 0.00399
68 0.004991
74 0.001
76 0.002044
78 0.001994
85 0.004019
96 0.003966
115 0.002003
136 0.003989
152 0.001989
159 0.001995
114 0.001023
55 0.005014
23 0.004986
18 0.001003
24 0.001955
31 0.001
43 0.004986
56 0.005059
70 0.001021
73 0.004039
80 0.001019
89 0.000998
103 0.001001
120 0.004987
134 0.004994
153 0.0
158 0.0
118 0.0
62 0.004994
30 0.004981
31 0.00201
50 0.004987
67 0.002
84 0.00103
96 0.0
99 0.004983
96 0.005022
104 0.0
116 0.000962
132 0.000996
150 0.004981
164 0.005022
185 0.0
195 0.004968
123 0.000998
75 0.000997
59 0.0
65 0.005984
78 0.005018
99 0.0
118 0.001989
131 0.002046
133 0.005019
133 0.004995
140 0.001967
153 0.00599
168 0.00101
180 0.002024
192 0.001999
202 0.005957
171 0.005984
112 0.006015
76 0.000987
79 0.001994
93 0.001993
108 0.005993
126 0.005984
147 0.006982
148 0.007021
149 0.002006
154 0.001992
163 0.002045
175 0.006027
188 0.005997
207 0.002037
216 0.002011
174 0.001045
113 0.006976
82 0.006937
87 0.00695
100 0.006984
121 0.002005
138 0.002035
147 0.002003
149 0.006938
151 0.007955
157 0.002007
167 0.002002
179 0.002006
192 0.006984
205 0.00701
211 0.006934
150 0.007019
87 0.002015
75 0.002002
81 0.002005
93 0.007018
106 0.006974
127 0.001992
139 0.000952
144 0.001031
146 0.00799
151 0.007963
171 0.008008
179 0.007992
195 0.003993
208 0.004001
219 0.00302
185 0.007007
122 0.007023
80 0.002038
80 0.002042
89 0.003069
101 0.007967
121 0.00799
143 0.007975
147 0.007991
149 0.002992
155 0.002004
165 0.002018
180 0.007979
194 0.007977
202 0.007999
220 0.002985
190 0.003009
189 0.003018
113 0.007973
91 0.003018
99 0.007966
113 0.007979
133 0.002998
145 0.006983
161 0.001998
162 0.007977
163 0.007925
167 0.002992
176 0.001982
187 0.003004
202 0.007949
218 0.002993
190 0.007981
196 0.007903
138 0.00296
109 0.003034
108 0.002997
127 0.006983
143 0.007011
161 0.004011
176 0.004002
180 0.004042
178 0.006024
180 0.002932
190 0.006983
200 0.00798
211 0.002983
223 0.004981
235 0.004001
215 0.006982
152 0.006955
116 0.004968
109 0.003028
118 0.004011
139 0.006938
161 0.003007
176 0.006989
177 0.007005
174 0.003991
176 0.002991
182 0.003958
194 0.005977
204 0.005948
215 0.004003
227 0.002986
231 0.00396
155 0.007039
102 0.002997
97 0.006983
107 0.007016
120 0.003994
135 0.00497
150 0.004987
158 0.005988
158 0.005984
158 0.005001
163 0.004984
171 0.005017
180 0.004957
198 0.004023
210 0.003973
210 0.004976
148 0.004987
99 0.005023
80 0.004986
82 0.002999
96 0.006028
108 0.004986
128 0.004986
137 0.005026
140 0.003933
142 0.005036
147 0.004921
155 0.004999
166 0.005014
181 0.004963
193 0.004988
201 0.004986
196 0.004987
131 0.005986
78 0.004982
71 0.003955
76 0.004995
96 0.004987
111 0.004986
128 0.006045
132 0.005952
130 0.004986
130 0.004988
137 0.005985
146 0.004954
156 0.004953
171 0.004941
182 0.004992
191 0.004974
115 0.004986
77 0.005025
67 0.004977
76 0.003996
95 0.004942
111 0.003969
126 0.004002
131 0.003997
128 0.004026
125 0.003995
130 0.00503
138 0.003988
155 0.003976
166 0.004022
178 0.004991
179 0.005038
110 0.004917
70 0.00498
58 0.004024
65 0.004022
77 0.003978
96 0.003992
110 0.003993
117 0.003992
115 0.003953
117 0.003991
123 0.00394
133 0.004012
143 0.003029
157 0.002998
168 0.002983
177 0.003021
145 0.003027
89 0.004028
52 0.003993
51 0.004015
65 0.00399
75 0.003004
89 0.003988
99 0.004023
102 0.003989
104 0.002984
109 0.00297
117 0.00299
127 0.002992
138 0.002958
153 0.002992
164 0.002979
167 0.002987
114 0.002975
70 0.002996
53 0.002951
55 0.002992
66 0.003987
75 0.003964
88 0.003991
99 0.003057
105 0.002992
108 0.002992
113 0.002989
127 0.002991
138 0.002998
148 0.002994
159 0.002994
169 0.002992
182 0.002974
192 0.001961
191 0.001986
138 0.002029
88 0.001994
67 0.001994
72 0.002045
86 0.003015
97 0.003001
109 0.002984
116 0.003023
116 0.009011
117 0.002001
124 0.002032
133 0.002003
143 0.001954
153 0.001987
166 0.001995
175 0.001985
191 0.001995
166 0.001994
115 0.002001
86 0.001993
81 0.002992
90 0.000998
105 0.002019
119 0.001983
132 0.002
136 0.001995
135 0.00201
135 0.001999
144 0.001991
157 0.00197
166 0.001983
175 0.001983
186 0.001995
196 0.001022
201 0.000997
153 0.000998
103 0.000963
80 0.001994
79 0.000955
90 0.002008
102 0.001995
119 0.001997
126 0.001983
128 0.001973
128 0.002026
133 0.0
143 0.000997
153 0.000998
163 0.001995
172 0.001995
182 0.001995
197 0.001995
193 0.000997
117 0.002029
79 0.0
68 0.001995
71 0.001994
78 0.0
88 0.000998
101 0.0
111 0.000998
115 0.001006
117 0.001009
123 0.001007
135 0.000994
150 0.000997
161 0.001003
172 0.00098
183 0.000986
193 0.0
207 0.0
213 0.0
165 0.0
105 0.0
75 0.0
71 0.0
82 0.0
93 0.0
106 0.0
117 0.0
120 0.0
121 0.000997
126 0.0
134 0.0
145 0.0
157 0.0
169 0.0
180 0.0
201 0.0
204 0.0
134 0.0
91 0.0
78 0.0
84 0.0
95 0.0
111 0.002029
128 0.00203
141 0.002994
140 0.000962
138 0.001987
144 0.001031
153 0.002
168 0.00203
180 0.001995
192 0.001994
203 0.002029
213 0.002046
160 0.001977
105 0.001987
82 0.001995
82 0.002008
92 0.002961
114 0.001998
135 0.002969
142 0.003073
142 0.003027
143 0.002972
146 0.002027
157 0.002959
168 0.002005
180 0.00203
191 0.001999
203 0.002981
215 0.00299
191 0.000996
120 0.001969
71 0.002028
67 0.002028
75 0.001996
84 0.002001
94 0.002042
113 0.00203
122 0.001986
125 0.002014
126 0.001998
131 0.00198
147 0.002025
159 0.002019
175 0.003012
188 0.002029
201 0.002035
203 0.003015
163 0.002028
84 0.00198
61 0.002034
61 0.001996
71 0.001914
82 0.001996
105 0.002027
118 0.00296
124 0.002025
127 0.002992
132 0.002033
141 0.001991
154 0.001994
167 0.002
183 0.003028
196 0.003035
212 0.002995
220 0.00301
217 0.002992
138 0.003051
83 0.001991
63 0.002025
70 0.002995
87 0.002018
101 0.002035
112 0.002994
130 0.002992
132 0.002979
131 0.002983
134 0.002957
153 0.001967
161 0.002993
179 0.002995
192 0.003031
202 0.002945
214 0.0
140 0.002991
90 0.001962
73 0.003026
79 0.004034
99 0.003007
110 0.00298
147 0.002043
151 0.002062
148 0.002028
147 0.003019
152 0.002963
165 0.001927
177 0.001993
190 0.00197
203 0.002991
217 0.002934
214 0.001994
139 0.002
67 0.000993
64 0.002041
76 0.001997
92 0.003983
108 0.004062
130 0.001996
135 0.002988
135 0.002028
135 0.003992
140 0.003989
153 0.002024
165 0.002992
186 0.001994
200 0.001995
214 0.002013
199 0.001995
120 0.00399
67 0.00399
47 0.002011
55 0.001991
67 0.002996
79 0.005016
95 0.003958
112 0.00197
115 0.003985
118 0.001008
124 0.001006
136 0.00201
148 0.003981
161 0.00401
179 0.001997
193 0.002029
207 0.000983
195 0.004948
115 0.004985
47 0.001022
37 0.005022
51 0.00102
63 0.001995
77 0.001999
93 0.005018
103 0.005013
107 0.001004
110 0.000998
117 0.0
128 0.004963
141 0.004984
160 0.0
179 0.004994
199 0.0
203 0.001
140 0.0
74 0.00498
46 0.00498
49 0.002013
62 0.0
76 0.001003
95 0.005967
111 0.005989
118 0.001
116 0.005022
123 0.000998
133 0.001005
145 0.0
159 0.004969
173 0.005013
190 0.001994
205 0.0
198 0.001992
123 0.005995
68 0.005985
50 0.0
66 0.006018
88 0.0
108 0.002041
125 0.002044
129 0.005012
125 0.005948
124 0.00199
130 0.001997
141 0.001993
153 0.001998
167 0.005986
181 0.005999
204 0.006024
185 0.006015
89 0.001998
54 0.001996
49 0.002053
62 0.005986
79 0.006017
104 0.002961
123 0.003035
128 0.002967
126 0.006977
124 0.00697
135 0.006013
146 0.00698
163 0.003018
177 0.002028
191 0.00204
206 0.006011
195 0.007012
90 0.002994
44 0.002001
32 0.00197
39 0.007013
51 0.006989
75 0.007014
91 0.006982
102 0.001995
103 0.001993
105 0.001993
112 0.00798
123 0.006015
141 0.002044
156 0.001989
170 0.003016
180 0.010972
198 0.002043
102 0.007072
47 0.007019
26 0.003038
34 0.001992
46 0.002023
58 0.006979
79 0.007976
92 0.002009
98 0.002005
100 0.002012
105 0.00798
113 0.007017
136 0.006982
151 0.006984
170 0.001983
185 0.003002
200 0.002955
214 0.007948
149 0.007977
74 0.00301
39 0.002992
35 0.002993
50 0.006917
64 0.006981
85 0.002997
104 0.007953
108 0.007975
109 0.001986
112 0.008976
116 0.002035
134 0.002992
153 0.007994
168 0.003016
182 0.002033
196 0.002034
216 0.007979
160 0.003018
71 0.007943
50 0.006983
54 0.001971
70 0.001984
86 0.002999
112 0.006972
125 0.007009
128 0.003028
124 0.002981
124 0.002045
131 0.007948
151 0.003992
170 0.007946
184 0.007943
199 0.002992
214 0.004034
200 0.003023
100 0.007033
60 0.007002
53 0.001996
65 0.002008
81 0.003031
107 0.006979
133 0.003991
137 0.00795
135 0.006947
137 0.003005
144 0.004018
156 0.003992
174 0.006942
188 0.006989
203 0.003042
218 0.003042
222 0.003935
122 0.006977
55 0.005005
45 0.007016
56 0.006983
70 0.004985
86 0.00499
104 0.003952
117 0.005986
118 0.006949
119 0.003958
125 0.002993
134 0.00399
151 0.005952
171 0.004991
191 0.006989
207 0.00596
196 0.004984
117 0.005001
61 0.004037
41 0.004041
48 0.006009
62 0.006015
78 0.004047
98 0.003001
113 0.002991
117 0.003994
118 0.001985
127 0.004974
138 0.004987
151 0.004996
165 0.003999
179 0.003995
198 0.006004
208 0.005983
156 0.003978
66 0.004989
46 0.004926
50 0.004999
66 0.004985
90 0.006016
109 0.005019
118 0.004988
115 0.005032
113 0.00496
118 0.004989
127 0.004977
138 0.00498
156 0.003985
165 0.004946
192 0.004984
157 0.004024
86 0.00499
49 0.005028
45 0.003985
60 0.004987
77 0.004988
98 0.004999
114 0.004934
118 0.004967
113 0.003999
111 0.004976
123 0.004957
131 0.004949
149 0.005017
162 0.003994
181 0.003997
163 0.00399
92 0.003991
43 0.003999
27 0.004
37 0.003964
51 0.00399
67 0.004941
92 0.004977
96 0.004954
95 0.004987
97 0.004028
107 0.004976
118 0.004983
131 0.003998
145 0.003998
159 0.003996
173 0.003988
122 0.003992
55 0.003988
13 0.004021
18 0.004002
27 0.003037
38 0.004022
53 0.002992
71 0.002992
76 0.002988
78 0.002996
83 0.003998
92 0.003995
108 0.003983
122 0.004014
145 0.003995
160 0.003978
165 0.003982
111 0.003989
49 0.003001
14 0.003005
15 0.003003
25 0.002996
36 0.002996
51 0.002972
72 0.002997
79 0.002988
85 0.004015
92 0.004012
103 0.00399
116 0.002997
130 0.003031
149 0.003031
163 0.002992
176 0.003025
190 0.00301
184 0.002987
89 0.002967
42 0.002991
31 0.002992
42 0.002025
54 0.002033
70 0.001993
86 0.003984
95 0.002029
96 0.002985
99 0.001992
106 0.002025
117 0.003032
135 0.002025
148 0.002027
171 0.001975
186 0.00294
190 0.001997
135 0.001996
76 0.002043
49 0.001993
55 0.001991
69 0.00199
85 0.001991
105 0.001993
120 0.001998
121 0.001995
119 0.001034
127 0.000998
138 0.001003
151 0.001988
164 0.002019
178 0.001986
196 0.001992
205 0.001994
159 0.001993
93 0.001996
59 0.001985
58 0.002003
75 0.001968
98 0.00195
116 0.001031
125 0.001
125 0.001
125 0.001981
130 0.001063
141 0.001994
153 0.002
166 0.001036
180 0.001013
198 0.001976
214 0.001995
150 0.000998
83 0.001087
51 0.000997
48 0.001995
56 0.00101
71 0.002018
86 0.001995
102 0.000996
111 0.001002
112 0.00199
116 0.001031
127 0.000999
143 0.000979
157 0.000998
171 0.000989
185 0.000997
200 0.000979
203 0.000993
135 0.0
74 0.001043
46 0.000999
45 0.000999
58 0.000983
73 0.0
94 0.0
107 0.0
112 0.0
114 0.0
120 0.0
135 0.0
149 0.0
163 0.0
177 0.0
191 0.0
209 0.0
227 0.0
193 0.0
93 0.0
58 0.000998
53 0.0
63 0.0
73 0.0
91 0.0
108 0.0
118 0.0
120 0.0
121 0.0
133 0.0
145 0.0
163 0.002031
178 0.001995
197 0.002996
206 0.000987
219 0.00295
156 0.002992
94 0.002978
66 0.003023
68 0.002006
81 0.001986
108 0.002045
128 0.002044
139 0.002029
137 0.002001
135 0.00296
139 0.001999
148 0.001985
164 0.002981
177 0.003003
190 0.003001
204 0.002982
218 0.002988
154 0.003
92 0.00197
63 0.002026
71 0.002028
85 0.001997
100 0.001997
120 0.002004
137 0.001999
138 0.002946
136 0.002963
138 0.002982
145 0.002987
164 0.003073
181 0.002988
195 0.003008
209 0.003029
220 0.002001
178 0.002026
103 0.002022
56 0.002024
54 0.001967
63 0.002
75 0.001989
89 0.001987
112 0.001994
117 0.001982
118 0.00199
123 0.00203
132 0.00198
143 0.002
156 0.001989
170 0.002992
189 0.002991
203 0.003031
196 0.002979
128 0.002973
54 0.002983
47 0.001998
54 0.002992
67 0.001955
80 0.002991
97 0.003026
110 0.00296
113 0.002018
118 0.002024
124 0.003014
135 0.003023
152 0.002938
170 0.002975
189 0.002995
202 0.00297
211 0.011922
215 0.001995
167 0.001994
70 0.002983
54 0.002029
62 0.002029
73 0.001995
90 0.002991
101 0.002985
118 0.002982
118 0.002986
120 0.002993
129 0.003026
140 0.002968
157 0.002999
166 0.002942
182 0.002019
196 0.002948
206 0.00396
148 0.00302
91 0.002023
65 0.001984
74 0.002027
88 0.002027
104 0.002957
123 0.003024
134 0.002962
135 0.003987
133 0.003007
137 0.002981
146 0.003991
161 0.000997
173 0.002023
194 0.002031
208 0.002024
214 0.002993
162 0.003973
99 0.004262
64 0.003048
67 0.002082
79 0.002992
92 0.001965
107 0.003989
123 0.004018
129 0.002993
129 0.004025
135 0.001996
145 0.002048
156 0.001989
168 0.003989
180 0.005025
198 0.002999
211 0.002023
212 0.001993
150 0.005005
87 0.004955
54 0.000999
59 0.00399
72 0.002007
84 0.001984
100 0.002021
111 0.003984
115 0.004019
118 0.00098
124 0.001995
134 0.002959
145 0.004983
158 0.004973
175 0.002991
192 0.004985
210 0.001993
213 0.000944
155 0.001987
89 0.004949
57 0.005952
53 0.001997
62 0.001977
72 0.000985
86 0.006018
102 0.005985
114 0.001996
117 0.004953
123 0.0
132 0.000998
144 0.001995
157 0.004991
171 0.004988
189 0.000996
203 0.000974
217 0.000999
197 0.006029
126 0.005991
70 0.0
66 0.005986
82 0.002016
94 0.000955
111 0.001009
126 0.006983
132 0.005005
131 0.005985
134 0.0
141 0.0
152 0.0
164 0.005989
178 0.005954
199 0.005936
213 0.006023
215 0.002962
152 0.001933
96 0.001965
74 0.005981
81 0.007975
97 0.002993
113 0.0
132 0.0
147 0.007958
148 0.00698
145 0.005984
149 0.005947
162 0.0
174 0.000997
187 0.0
200 0.005988
213 0.006973
166 0.0
204 0.003021
128 0.00199
81 0.006953
68 0.005984
84 0.006979
98 0.005985
121 0.002023
135 0.002992
140 0.001998
138 0.006992
140 0.007958
147 0.002985
158 0.002996
171 0.00201
185 0.006968
198 0.006985
222 0.007016
210 0.007032
111 0.004025
68 0.002995
55 0.002019
62 0.00698
73 0.008008
90 0.002023
106 0.001999
119 0.001995
124 0.00698
124 0.018941
131 0.002025
144 0.007948
161 0.003004
175 0.002996
190 0.001984
204 0.007968
221 0.007969
208 0.007972
108 0.002023
63 0.002006
50 0.003038
56 0.007955
76 0.001999
97 0.007936
112 0.007972
120 0.001983
121 0.00303
124 0.003002
134 0.007969
145 0.006982
159 0.003025
173 0.002992
187 0.001997
205 0.006991
219 0.003016
140 0.007945
96 0.007919
57 0.003027
60 0.001983
72 0.003022
86 0.007996
110 0.007988
125 0.00303
128 0.004027
125 0.003027
127 0.00697
138 0.003988
155 0.007005
169 0.006978
183 0.002989
197 0.002995
210 0.002022
161 0.006968
99 0.007979
69 0.002985
67 0.002997
80 0.00303
101 0.006986
128 0.003957
142 0.006979
140 0.00698
139 0.003017
143 0.003989
151 0.00402
167 0.007023
179 0.006973
192 0.003016
205 0.002987
219 0.003055
167 0.006975
85 0.003992
60 0.006022
66 0.005966
78 0.002985
90 0.002987
106 0.003041
123 0.006002
126 0.006001
126 0.002988
129 0.002992
137 0.003942
146 0.002031
167 0.003004
181 0.003998
199 0.005934
205 0.005975
152 0.003023
90 0.002962
59 0.003989
56 0.005982
67 0.006039
79 0.003028
94 0.004952
109 0.004956
119 0.003989
120 0.004978
126 0.005011
136 0.005011
147 0.004983
160 0.004957
174 0.004955
192 0.005026
207 0.005947
196 0.004954
107 0.004976
77 0.004956
60 0.004947
75 0.004942
88 0.00501
105 0.004986
120 0.004951
125 0.004947
124 0.003986
125 0.005012
132 0.004985
146 0.004986
155 0.00402
172 0.003988
194 0.004009
207 0.003982
183 0.00501
116 0.005018
75 0.003952
65 0.004935
74 0.004952
94 0.005008
113 0.005042
132 0.004955
139 0.003982
134 0.004023
135 0.003982
143 0.003982
154 0.003994
166 0.003994
184 0.003993
193 0.003948
206 0.003016
160 0.003994
99 0.004992
64 0.004985
68 0.00497
81 0.003989
111 0.003978
129 0.00397
137 0.004041
135 0.003987
133 0.003989
139 0.003957
148 0.003966
159 0.002983
172 0.003016
184 0.002968
203 0.002981
197 0.00299
87 0.002982
53 0.003014
48 0.003993
56 0.003936
68 0.002992
87 0.003975
93 0.011942
104 0.003042
113 0.003014
114 0.003025
122 0.002989
132 0.003004
154 0.002958
167 0.00404
181 0.003022
195 0.002992
167 0.002977
77 0.003989
43 0.003988
38 0.003004
46 0.003
57 0.002983
76 0.002959
93 0.002996
105 0.002992
107 0.002992
111 0.002982
120 0.002993
132 0.002995
151 0.002987
165 0.002042
180 0.00301
195 0.002984
201 0.002981
120 0.001996
66 0.00294
46 0.002989
56 0.003058
69 0.002984
85 0.003015
103 0.002999
115 0.002974
116 0.00298
116 0.002999
122 0.002004
132 0.001966
149 0.001996
163 0.001996
185 0.001994
200 0.000983
208 0.00199
155 0.002018
91 0.002001
60 0.001017
61 0.002989
76 0.003025
92 0.001995
112 0.002016
129 0.001984
131 0.001991
127 0.001994
133 0.001968
143 0.001995
155 0.002005
168 0.001999
182 0.00201
201 0.001997
210 0.001988
165 0.00199
98 0.001994
63 0.002002
63 0.002026
82 0.000998
105 0.002026
125 0.000995
134 0.002007
134 0.001999
132 0.001997
138 0.002037
148 0.002023
161 0.001989
173 0.001991
187 0.002001
205 0.001993
223 0.001002
178 0.001997
99 0.001995
56 0.001965
46 0.001964
54 0.001971
70 0.001995
84 0.001989
101 0.000987
113 0.0
116 0.0
118 0.000984
126 0.000997
141 0.001032
154 0.000995
168 0.0
182 0.001006
197 0.000997
196 0.000968
128 0.001058
70 0.0
46 0.000985
48 0.000992
66 0.0
86 0.0
111 0.0
122 0.0
125 0.0
125 0.0
130 0.000992
138 0.0
155 0.0
168 0.001056
185 0.0
198 0.0
211 0.0
201 0.0
120 0.0
56 0.0
48 0.0
59 0.000963
73 0.000961
97 0.002993
117 0.002989
130 0.00299
131 0.000997
131 0.002992
139 0.002963
156 0.002989
169 0.002984
185 0.0
198 0.002991
210 0.0
194 0.001996
147 0.002027
78 0.001995
63 0.001998
70 0.001962
87 0.001994
105 0.001993
139 0.001988
144 0.001987
139 0.001985
137 0.002988
144 0.003001
162 0.001997
175 0.001997
188 0.003001
201 0.002991
204 0.002962
141 0.002953
81 0.00296
50 0.002987
55 0.001989
76 0.00201
95 0.002967
118 0.001964
134 0.001995
136 0.002988
135 0.003972
138 0.002989
148 0.002977
160 0.002992
173 0.002985
189 0.003029
197 0.003032
125 0.002991
59 0.00302
25 0.003014
26 0.002028
33 0.00504
58 0.0
78 0.001985
97 0.003035
110 0.002001
114 0.00199
117 0.001994
124 0.002003
141 0.002974
156 0.003026
172 0.002027
193 0.001996
177 0.003005
127 0.002984
50 0.003023
32 0.00304
43 0.002976
57 0.002963
80 0.001974
105 0.002981
115 0.003021
123 0.002991
124 0.003023
129 0.002975
144 0.002986
159 0.001987
174 0.003021
191 0.002989
211 0.002963
190 0.002984
75 0.002989
49 0.001984
49 0.002991
67 0.003073
84 0.002993
113 0.002009
126 0.002001
136 0.001991
133 0.003021
130 0.003042
136 0.002972
146 0.002002
169 0.002962
185 0.002938
200 0.002991
204 0.003989
142 0.003998
68 0.002042
53 0.002029
62 0.001996
81 0.003954
103 0.003957
136 0.000952
149 0.003011
145 0.002008
144 0.002014
149 0.001995
158 0.00298
170 0.002956
188 0.002991
203 0.002015
216 0.002001
184 0.003976
109 0.002993
67 0.004018
59 0.002011
78 0.002996
104 0.00099
126 0.002029
140 0.002023
142 0.003997
139 0.003989
141 0.002
149 0.002011
159 0.002026
171 0.003939
185 0.003988
203 0.001987
199 0.003994
106 0.002992
64 0.000987
55 0.001993
64 0.004988
82 0.004987
109 0.001996
129 0.001982
138 0.00199
137 0.00399
135 0.004987
139 0.0
151 0.005
167 0.000949
181 0.001996
195 0.002015
210 0.003996
204 0.005947
114 0.003031
71 0.001995
61 0.001986
72 0.004931
91 0.005022
118 0.000993
142 0.004983
143 0.001001
139 0.001012
138 0.001994
143 0.004976
152 0.00496
168 0.00202
181 0.0
195 0.001995
209 0.005968
197 0.004986
111 0.000958
70 0.004945
77 0.002023
96 0.0
118 0.0
143 0.005993
156 0.004958
150 0.0
143 0.00101
142 0.0
148 0.005988
157 0.005986
173 0.003009
189 0.005995
203 0.002023
160 0.0
95 0.0
63 0.00203
59 0.005969
73 0.006009
98 0.002953
120 0.002967
135 0.001988
135 0.006003
129 0.005933
127 0.006977
133 0.005928
146 0.0
158 0.0
170 0.001994
183 0.005936
165 0.006952
76 0.0
39 0.000987
32 0.0
42 0.006936
56 0.007017
85 0.006006
97 0.006958
98 0.001994
94 0.003045
96 0.002044
102 0.006022
112 0.005994
129 0.001993
142 0.002034
156 0.002999
157 0.007045
99 0.007031
22 0.00697
131 0.005997
130 0.002038
130 0.003039
130 0.002038
130 0.00698
130 0.00303
130 0.002987
130 0.000997
130 0.002963
130 0.006981
130 0.006982
130 0.006983
130 0.006984
130 0.003001
129 0.002993
70 0.002994
27 0.006983
21 0.006982
39 0.002992
55 0.002992
76 0.002998
97 0.007025
106 0.00699
106 0.00699
111 0.006964
125 0.001959
140 0.002998
157 0.002998
173 0.007948
195 0.007967
211 0.002012
208 0.002998
132 0.001972
58 0.003056
26 0.006995
42 0.003033
62 0.007979
85 0.006985
115 0.002984
121 0.003041
116 0.003955
117 0.007949
125 0.007982
138 0.003029
153 0.002026
168 0.003003
185 0.008006
214 0.002995
210 0.007993
112 0.006972
59 0.002982
46 0.002964
59 0.002992
88 0.00798
115 0.007911
138 0.002959
145 0.00399
141 0.003932
137 0.007947
148 0.003041
166 0.007532
176 0.007946
197 0.002995
213 0.002997
231 0.003039
213 0.006949
124 0.006944
62 0.002987
41 0.002994
49 0.002996
74 0.006989
103 0.003051
124 0.007978
134 0.006982
132 0.003001
133 0.003989
140 0.003012
157 0.006954
173 0.006953
189 0.003068
206 0.002993
223 0.004971
235 0.007016
139 0.003029
52 0.006981
36 0.007041
45 0.003025
61 0.002041
79 0.003988
109 0.006952
124 0.006046
128 0.004985
128 0.00396
131 0.002968
146 0.006988
166 0.003984
183 0.003968
206 0.005973
223 0.005006
240 0.004954
252 0.003959
196 0.004064
82 0.005966
47 0.005973
47 0.003947
63 0.003996
82 0.004987
120 0.004949
137 0.003939
140 0.00595
137 0.005984
141 0.004986
157 0.004967
174 0.005018
191 0.004986
210 0.004987
233 0.005037
244 0.004937
236 0.004969
101 0.003954
66 0.004018
68 0.004002
88 0.004946
121 0.005023
148 0.005023
169 0.005035
171 0.004971
164 0.004981
160 0.004988
167 0.004961
181 0.004952
210 0.003977
228 0.003992
187 0.004978
196 0.004997
181 0.003974
122 0.003057
100 0.004993
98 0.003971
107 0.003968
124 0.004947
138 0.005
149 0.005027
150 0.004939
147 0.004974
148 0.005001
152 0.004983
162 0.00498
167 0.004984
179 0.003985
188 0.003957
197 0.003992
169 0.003989
119 0.00399
93 0.004031
92 0.004028
95 0.005985
110 0.002003
127 0.004011
138 0.003988
142 0.003001
140 0.002985
141 0.004023
144 0.00399
151 0.003982
162 0.004007
172 0.003034
188 0.004034
194 0.004017
160 0.003971
110 0.003979
86 0.003018
83 0.00305
92 0.002933
102 0.003034
114 0.003027
128 0.003061
135 0.003037
135 0.002993
137 0.003992
142 0.003981
149 0.00397
158 0.004032
168 0.003993
181 0.002973
191 0.00297
195 0.002957
153 0.002998
105 0.003019
81 0.002993
85 0.002956
104 0.001948
117 0.00207
130 0.003017
139 0.003002
140 0.002992
138 0.002028
141 0.002987
146 0.003003
154 0.003024
163 0.002997
176 0.00299
186 0.003
198 0.002928
160 0.002959
111 0.002963
89 0.00299
89 0.002986
104 0.002987
118 0.00198
135 0.001994
147 0.001989
151 0.001995
146 0.001991
145 0.002001
152 0.002992
160 0.003014
168 0.002933
177 0.00298
186 0.002988
197 0.002958
166 0.002939
116 0.002988
93 0.001994
92 0.001969
103 0.002015
123 0.001992
145 0.001995
157 0.002
155 0.001995
150 0.001995
149 0.001993
152 0.002944
162 0.001967
170 0.001005
179 0.001965
189 0.001029
197 0.002011
149 0.001983
92 0.001995
80 0.002009
88 0.001999
101 0.001995
116 0.001955
132 0.002028
142 0.002022
140 0.002024
136 0.000994
137 0.000999
141 0.00102
152 0.000998
163 0.001993
176 0.001992
186 0.002003
170 0.001989
114 0.001964
78 0.002027
67 0.000998
75 0.001996
87 0.001986
99 0.001949
113 0.000997
123 0.001038
121 0.0
121 0.001003
124 0.000959
130 0.0
139 0.0
148 0.0
161 0.0
171 0.000988
164 0.0
113 0.000999
75 0.000998
61 0.000997
71 0.001006
85 0.000995
99 0.001005
110 0.001051
114 0.00101
112 0.00101
112 0.0
116 0.001013
123 0.000996
132 0.001006
141 0.0
153 0.0
167 0.0
140 0.0
92 0.0
68 0.0
64 0.0
73 0.0
86 0.0
105 0.0
117 0.001013
120 0.0
116 0.0
114 0.0
119 0.0
127 0.0
140 0.000953
149 0.0
159 0.0
167 0.0
139 0.0
85 0.0
70 0.000997
76 0.002987
83 0.000948
101 0.002962
123 0.002982
124 0.0
121 0.002991
119 0.004995
122 0.000984
131 0.002978
139 0.001999
148 0.002987
157 0.003026
166 0.002981
129 0.002983
86 0.003
63 0.00099
64 0.004002
81 0.003039
98 0.000996
114 0.001992
115 0.001989
113 0.00298
116 0.002005
121 0.002025
131 0.001968
140 0.002995
156 0.00201
162 0.002987
134 0.002983
88 0.002999
63 0.002985
59 0.00299
64 0.002958
77 0.003047
88 0.002967
102 0.002998
105 0.002987
106 0.002046
108 0.001986
113 0.001985
123 0.001995
132 0.002018
142 0.001995
151 0.001983
161 0.001983
143 0.002992
96 0.003023
67 0.002943
60 0.002977
67 0.002985
80 0.00292
96 0.003
103 0.00299
109 0.004
109 0.003003
112 0.003002
115 0.002948
126 0.002999
134 0.003026
144 0.00304
156 0.001985
166 0.003024
169 0.002986
111 0.002965
86 0.002989
68 0.002989
73 0.002031
83 0.003023
99 0.00296
112 0.002963
119 0.003024
119 0.002993
117 0.002979
119 0.002983
132 0.002967
141 0.002991
147 0.002981
160 0.003035
169 0.002978
177 0.002995
145 0.002053
114 0.002986
82 0.002048
81 0.003019
95 0.002019
109 0.001985
128 0.002995
135 0.002976
133 0.003001
130 0.003042
132 0.003033
138 0.002966
145 0.002991
154 0.002992
166 0.00299
176 0.002992
186 0.002991
158 0.001995
91 0.003007
80 0.002008
85 0.002996
96 0.00399
108 0.00399
123 0.002981
134 0.001994
134 0.00298
132 0.003002
133 0.004031
140 0.001996
148 0.001982
159 0.004003
171 0.002992
181 0.003986
189 0.002942
163 0.00403
111 0.004031
77 0.002004
76 0.002023
84 0.001992
93 0.004013
105 0.00396
120 0.001999
125 0.005025
125 0.002026
127 0.002046
