94 0.017981
93 0.001964
92 0.001995
93 0.000997
99 0.000998
107 0.001009
115 0.001004
120 0.001995
125 0.001995
132 0.001995
139 0.001994
147 0.002015
127 0.001993
78 0.002
34 0.001964
16 0.001964
22 0.001027
35 0.000994
47 0.001024
61 0.000996
70 0.000996
76 0.000997
75 0.000996
78 0.000992
84 0.000988
91 0.001
102 0.00197
108 0.001965
116 0.001963
123 0.000996
129 0.000996
135 0.000997
137 0.001032
106 0.000997
24 0.000998
2 0.000966
5 0.000999
16 0.000997
24 0.001014
37 0.000997
51 0.0
62 0.0
64 0.000997
64 0.0
67 0.0
73 0.0
88 0.0
96 0.0
107 0.000997
112 0.000997
117 0.000962
122 0.001002
128 0.001998
136 0.0
133 0.000998
69 0.0
33 0.0
0 0.0
0 0.0
3 0.0
15 0.0
27 0.0
39 0.0
50 0.0
53 0.0
54 0.0
57 0.0
64 0.0
73 0.0
83 0.0
99 0.0
108 0.0
117 0.0
122 0.0
128 0.0
132 0.0
136 0.0
144 0.0
146 0.000967
88 0.0
48 0.0
6 0.0
64 0.0
70 0.0
76 0.0
82 0.0
89 0.0
93 0.0
94 0.0
95 0.000998
96 0.001011
100 0.0
104 0.0
109 0.0
114 0.0
118 0.0
121 0.0
123 0.0
126 0.0
128 0.000998
128 0.0
111 0.000962
83 0.000997
63 0.0
63 0.0
68 0.0
79 0.000999
85 0.000997
90 0.0
92 0.000984
92 0.001005
91 0.000999
93 0.000997
96 0.001014
102 0.000959
106 0.000997
110 0.000999
113 0.000997
119 0.0
122 0.0
124 0.001031
125 0.000997
106 0.000997
72 0.000966
57 0.000998
56 0.000997
61 0.002028
66 0.001999
73 0.000956
78 0.000995
86 0.000998
86 0.001043
86 0.001
88 0.002027
91 0.001994
98 0.00099
103 0.000997
107 0.001007
110 0.001961
114 0.001995
118 0.00096
122 0.000999
116 0.000998
90 0.000998
21 0.001036
1 0.001994
1 0.00199
12 0.001006
18 0.001042
27 0.001
40 0.001025
49 0.00203
53 0.002025
53 0.002028
57 0.002028
66 0.001009
73 0.000998
82 0.001996
90 0.001953
97 0.001997
103 0.002004
109 0.001042
115 0.002874
122 0.002985
115 0.001996
77 0.001995
11 0.001987
3 0.002032
8 0.002027
20 0.002035
29 0.002005
43 0.000996
54 0.002003
60 0.001994
60 0.003038
60 0.002994
66 0.002037
72 0.002031
86 0.00203
93 0.00203
100 0.001993
107 0.002031
111 0.002956
119 0.002034
124 0.002984
127 0.00202
90 0.002047
48 0.002044
22 0.003
20 0.002986
37 0.002979
51 0.001995
58 0.002998
71 0.001994
74 0.002984
74 0.002981
74 0.002035
79 0.001995
86 0.002007
93 0.003982
101 0.003958
108 0.002979
117 0.003028
124 0.002028
128 0.002975
135 0.002979
133 0.002992
101 0.00298
58 0.003006
34 0.002985
34 0.00193
45 0.002989
53 0.003994
67 0.003019
81 0.003998
88 0.002996
88 0.002993
88 0.002993
93 0.003985
100 0.003996
109 0.003023
118 0.003005
122 0.002992
132 0.002992
136 0.00399
140 0.003043
149 0.00399
157 0.002993
157 0.002992
129 0.002996
83 0.004023
54 0.00399
47 0.002985
55 0.003007
62 0.002976
69 0.003997
79 0.005031
94 0.002992
100 0.003993
101 0.003968
102 0.003968
106 0.004025
115 0.003978
123 0.003948
133 0.002995
141 0.002992
147 0.002971
152 0.003947
160 0.004976
166 0.00403
174 0.00498
181 0.004022
187 0.003991
188 0.003972
157 0.004945
108 0.004944
76 0.00399
69 0.003985
75 0.003979
83 0.004987
88 0.004989
98 0.004027
113 0.004983
116 0.003991
117 0.003968
118 0.003989
123 0.004987
129 0.004995
140 0.003988
147 0.004035
153 0.003977
159 0.004986
165 0.004981
169 0.004987
175 0.004984
178 0.004989
183 0.004991
189 0.00399
185 0.004982
135 0.004989
97 0.005019
78 0.003984
84 0.003983
94 0.004022
103 0.004981
111 0.005984
123 0.005978
125 0.005968
125 0.004982
126 0.00499
130 0.005017
138 0.00499
145 0.005007
152 0.005019
160 0.004027
163 0.004963
170 0.004986
174 0.00595
183 0.006016
178 0.005968
131 0.004988
95 0.005029
80 0.004988
84 0.006004
91 0.005987
102 0.004997
111 0.004969
120 0.004986
126 0.004964
130 0.005984
131 0.006145
135 0.00595
140 0.005984
150 0.004986
158 0.004998
164 0.005982
170 0.00598
178 0.004985
181 0.005015
184 0.005998
189 0.006982
195 0.006981
187 0.00698
147 0.006017
106 0.005984
85 0.005984
84 0.006002
95 0.005983
101 0.005987
111 0.00502
121 0.004995
129 0.00598
132 0.006981
132 0.006981
135 0.006982
142 0.006974
151 0.006017
158 0.005978
164 0.006017
171 0.005985
177 0.005982
182 0.005984
185 0.005985
189 0.006973
196 0.007013
200 0.006982
167 0.007013
122 0.006935
91 0.00598
91 0.005975
98 0.006028
107 0.006941
115 0.006977
124 0.006984
137 0.006985
140 0.006976
141 0.006981
142 0.006948
147 0.007015
154 0.00698
161 0.007016
169 0.006032
176 0.005988
181 0.00598
184 0.006997
187 0.006987
190 0.007013
194 0.006978
198 0.006969
198 0.007979
148 0.007961
108 0.006934
90 0.006981
91 0.006978
102 0.005976
111 0.007015
119 0.006991
128 0.007923
134 0.00699
134 0.006937
132 0.006981
135 0.007979
143 0.00699
151 0.007949
157 0.007926
162 0.006983
166 0.006963
171 0.006968
175 0.007944
184 0.007972
186 0.007945
165 0.00694
126 0.006949
91 0.007984
91 0.006937
100 0.007986
106 0.007976
119 0.00702
128 0.006966
135 0.006976
137 0.007981
136 0.007976
138 0.007979
141 0.00798
150 0.006986
158 0.007978
168 0.006992
173 0.007946
177 0.007946
183 0.006953
187 0.006984
192 0.006981
196 0.007012
198 0.006987
166 0.006984
122 0.007016
111 0.007979
90 0.007823
96 0.007979
106 0.007974
113 0.006987
125 0.007025
133 0.007026
135 0.006981
134 0.006979
135 0.007023
142 0.007022
147 0.007017
155 0.007942
161 0.00798
168 0.006981
176 0.007012
180 0.00702
184 0.007022
190 0.006979
193 0.007025
196 0.006981
198 0.006981
202 0.007023
204 0.007022
207 0.007012
211 0.007012
208 0.006026
168 0.006016
121 0.006028
95 0.006019
93 0.007009
100 0.00702
106 0.007014
111 0.006974
120 0.006971
128 0.00698
131 0.006024
130 0.006023
132 0.005984
137 0.006025
143 0.006025
148 0.006018
157 0.006022
162 0.006027
167 0.006026
173 0.006982
177 0.00699
181 0.007025
183 0.007004
185 0.007016
187 0.005984
194 0.006017
197 0.005984
188 0.005984
132 0.005986
98 0.006078
87 0.006064
89 0.006018
96 0.005975
106 0.005984
112 0.006014
119 0.006029
124 0.005997
124 0.005021
125 0.00499
128 0.006025
134 0.006022
142 0.006034
146 0.005972
151 0.005984
156 0.006022
162 0.006016
165 0.005984
168 0.005972
170 0.006026
174 0.005021
178 0.005019
182 0.005018
175 0.005019
140 0.004985
102 0.005984
83 0.005984
84 0.00597
98 0.005987
106 0.006018
115 0.005028
123 0.005024
125 0.004987
123 0.005
123 0.004997
128 0.005069
134 0.005022
140 0.004988
146 0.004986
152 0.005024
158 0.005021
162 0.005025
167 0.004981
169 0.005025
173 0.005019
176 0.005021
180 0.005025
182 0.005022
149 0.004987
107 0.005023
78 0.005031
73 0.004987
78 0.004987
87 0.005014
93 0.00502
101 0.004034
111 0.004124
113 0.00502
112 0.00503
114 0.005019
118 0.005025
125 0.004986
133 0.005022
139 0.005038
143 0.004987
150 0.004031
154 0.004042
157 0.00402
162 0.004004
167 0.003972
172 0.003935
177 0.004096
179 0.003965
156 0.003989
112 0.003993
78 0.003987
68 0.00403
75 0.004023
82 0.003992
87 0.00399
100 0.003992
108 0.004048
111 0.004024
111 0.004027
114 0.004029
117 0.004025
123 0.003989
130 0.004017
137 0.003992
145 0.004023
151 0.004021
155 0.00399
163 0.004023
166 0.003028
168 0.003013
170 0.003989
176 0.004064
181 0.002995
180 0.004023
156 0.003988
110 0.00399
71 0.004022
68 0.003973
77 0.003958
87 0.002963
92 0.002995
102 0.002992
109 0.003023
113 0.002992
112 0.002995
115 0.002992
119 0.003002
125 0.00298
135 0.004033
141 0.00402
147 0.004026
156 0.002993
160 0.002993
165 0.002994
167 0.003026
171 0.004009
173 0.002994
177 0.003019
181 0.002993
185 0.003043
175 0.002992
135 0.002992
93 0.002992
71 0.001995
79 0.003035
89 0.003028
97 0.003029
104 0.002994
111 0.002993
113 0.002996
111 0.002993
110 0.003033
113 0.002993
120 0.002034
126 0.001994
137 0.002038
143 0.002035
149 0.001995
153 0.002004
157 0.001995
160 0.002991
163 0.002988
166 0.001995
171 0.00297
171 0.002993
133 0.002993
92 0.002993
65 0.001995
72 0.001993
82 0.001996
90 0.001955
97 0.001995
108 0.001995
111 0.001998
111 0.002019
110 0.001995
113 0.002015
119 0.001995
126 0.002028
137 0.002958
144 0.001995
149 0.001994
154 0.001995
158 0.001995
162 0.001995
164 0.001995
167 0.001994
171 0.001995
176 0.001995
174 0.002034
141 0.001995
71 0.001995
57 0.001994
61 0.001039
69 0.001012
75 0.001041
81 0.000997
90 0.001003
99 0.001028
101 0.000997
101 0.001982
103 0.001996
107 0.001924
119 0.002024
125 0.001961
132 0.001995
138 0.001006
144 0.000998
149 0.001
152 0.000998
156 0.001005
159 0.000997
162 0.000998
168 0.000965
172 0.000999
144 0.000994
97 0.000997
63 0.000997
54 0.001004
58 0.002028
70 0.000997
75 0.000998
81 0.001013
90 0.000998
98 0.000998
100 0.000998
101 0.000963
106 0.000997
114 0.000998
121 0.001004
128 0.000998
134 0.0
139 0.0
147 0.0
151 0.000998
154 0.000997
157 0.000997
161 0.000998
164 0.000997
171 0.000998
174 0.000998
154 0.000997
109 0.000997
71 0.0
59 0.0
67 0.0
76 0.0
83 0.0
91 0.0
99 0.0
104 0.0
102 0.0
104 0.0
108 0.0
112 0.0
123 0.0
127 0.000997
134 0.0
140 0.0
145 0.0
148 0.0
150 0.0
155 0.0
160 0.0
165 0.000998
153 0.001031
114 0.0
66 0.0
57 0.000998
62 0.001004
72 0.001007
81 0.0
90 0.0
99 0.0
103 0.0
104 0.0
104 0.001036
108 0.001038
116 0.0
122 0.0
129 0.0
135 0.001032
142 0.000999
148 0.0
152 0.0
156 0.0
158 0.000999
162 0.0
166 0.001034
171 0.002007
172 0.0
140 0.000997
91 0.0
59 0.001031
50 0.000997
55 0.00103
67 0.0
71 0.0
78 0.001031
92 0.0
96 0.000997
96 0.001043
97 0.001006
102 0.0
109 0.0
116 0.000999
122 0.001996
129 0.001959
137 0.000963
142 0.001003
146 0.0
152 0.0
154 0.0
158 0.000999
163 0.000995
169 0.001031
169 0.001031
141 0.000998
92 0.001994
61 0.002025
52 0.001028
60 0.001003
69 0.000964
75 0.001006
88 0.0
95 0.001032
98 0.000998
100 0.0
101 0.001008
105 0.00101
111 0.002026
119 0.001996
128 0.001017
134 0.000999
141 0.00103
149 0.00106
151 0.001029
153 0.001995
156 0.001962
159 0.002028
164 0.00204
167 0.000985
147 0.001997
102 0.001999
60 0.000996
55 0.001007
63 0.001031
78 0.00103
86 0.001031
94 0.001987
99 0.002994
100 0.002029
100 0.002025
102 0.002024
108 0.001994
113 0.002027
122 0.000989
128 0.000984
134 0.001008
143 0.000994
146 0.001017
149 0.001996
151 0.002999
155 0.002013
159 0.001996
163 0.002028
147 0.002992
103 0.002992
57 0.002023
45 0.002043
48 0.001986
64 0.000989
72 0.00099
84 0.002993
94 0.002992
99 0.002025
99 0.001995
99 0.002026
101 0.002992
106 0.003027
113 0.002027
117 0.002029
122 0.002992
127 0.002994
131 0.003025
132 0.002994
132 0.002956
133 0.00299
139 0.002025
144 0.001992
151 0.002035
150 0.002989
122 0.002994
71 0.001977
53 0.002038
60 0.00299
71 0.003
77 0.002999
85 0.003988
97 0.003987
110 0.003024
113 0.002031
116 0.001995
120 0.003014
121 0.002992
126 0.001993
132 0.002987
138 0.003
142 0.002995
145 0.002991
148 0.004021
153 0.003964
155 0.002997
158 0.002988
162 0.003031
162 0.00399
139 0.002989
94 0.002987
61 0.004024
51 0.002996
58 0.002989
64 0.003026
69 0.003977
79 0.003987
88 0.003036
93 0.003042
94 0.003028
92 0.004022
92 0.003989
100 0.004019
111 0.004019
141 0.00402
150 0.00302
155 0.002965
152 0.003982
151 0.003988
158 0.002994
165 0.001978
163 0.003997
134 0.004989
92 0.004987
58 0.004026
57 0.00399
73 0.003994
81 0.003979
91 0.003958
100 0.004992
104 0.004989
105 0.00303
104 0.004023
106 0.004024
112 0.003989
117 0.004021
126 0.004004
134 0.003971
142 0.004027
145 0.003991
149 0.00399
153 0.004985
157 0.005023
157 0.004008
128 0.004029
84 0.002999
57 0.004024
50 0.004986
56 0.005017
68 0.004017
77 0.005017
92 0.003988
99 0.004031
102 0.003983
103 0.00504
105 0.00502
110 0.003989
116 0.004024
124 0.005029
132 0.006015
139 0.006016
145 0.005027
148 0.005985
154 0.004974
158 0.004024
161 0.004989
144 0.004982
102 0.004987
61 0.004027
55 0.003997
62 0.003985
70 0.005984
75 0.005984
88 0.005019
102 0.005981
108 0.004987
109 0.004989
111 0.004995
114 0.005984
119 0.005984
129 0.003986
138 0.004981
144 0.005021
149 0.006016
155 0.005969
161 0.004991
165 0.005984
167 0.004989
171 0.004983
177 0.004994
180 0.005986
168 0.005984
111 0.005009
75 0.006015
64 0.004986
69 0.00695
78 0.007013
85 0.006015
96 0.005946
107 0.004999
111 0.004983
110 0.004986
111 0.006018
113 0.005984
121 0.005019
130 0.005018
138 0.006018
144 0.006982
151 0.006981
158 0.006018
165 0.006981
172 0.005995
173 0.004954
173 0.006019
177 0.006021
172 0.005984
122 0.004991
85 0.005991
72 0.005988
74 0.006982
81 0.006931
88 0.006033
99 0.007001
111 0.005988
115 0.005983
118 0.00602
121 0.007015
124 0.006981
126 0.006024
132 0.007013
142 0.006021
147 0.007012
152 0.006981
159 0.007016
169 0.006985
170 0.006979
168 0.004964
136 0.006017
97 0.006018
79 0.007979
78 0.007978
86 0.006959
95 0.007013
99 0.007016
108 0.00702
119 0.00698
124 0.006998
124 0.006985
126 0.005984
132 0.006976
141 0.006977
148 0.007941
154 0.007978
162 0.007012
168 0.006983
172 0.00698
179 0.007979
185 0.007978
160 0.007972
118 0.007005
90 0.00702
86 0.006004
94 0.007013
103 0.006981
110 0.007978
124 0.006975
130 0.006985
133 0.007012
132 0.007979
134 0.007979
141 0.007947
147 0.007978
156 0.007008
163 0.006982
168 0.006022
175 0.006981
179 0.007932
182 0.007014
184 0.006983
187 0.006984
192 0.007932
196 0.007948
153 0.007978
108 0.008009
85 0.007014
81 0.006981
89 0.007024
100 0.007978
107 0.00798
122 0.00698
126 0.006973
125 0.006974
125 0.007978
126 0.007972
133 0.00701
141 0.007022
147 0.007027
153 0.006975
159 0.007017
166 0.007977
170 0.006999
175 0.006993
176 0.007979
180 0.007015
184 0.007016
188 0.007015
166 0.007024
119 0.007015
85 0.006964
74 0.007016
78 0.006965
91 0.007981
100 0.007026
112 0.006992
117 0.006981
119 0.006929
119 0.005954
118 0.006984
124 0.007025
130 0.007023
137 0.007011
147 0.007035
152 0.006981
157 0.00702
163 0.006992
167 0.006982
170 0.007014
173 0.005982
177 0.007016
181 0.006018
186 0.006039
157 0.005984
111 0.005997
74 0.006017
70 0.006017
79 0.006026
91 0.005986
99 0.005984
112 0.00602
118 0.006017
119 0.00697
117 0.007003
119 0.006989
124 0.006016
131 0.006014
140 0.006018
147 0.005985
154 0.005983
158 0.006018
163 0.006027
169 0.005984
170 0.005985
173 0.006014
176 0.006037
183 0.005018
182 0.005084
152 0.004993
91 0.005976
69 0.005033
68 0.005028
79 0.004992
89 0.00499
104 0.006025
112 0.005021
114 0.006034
113 0.005982
112 0.005982
115 0.006023
119 0.00603
128 0.006016
136 0.005982
141 0.005023
146 0.004979
152 0.00502
157 0.005061
160 0.005034
165 0.005022
170 0.005985
173 0.005028
145 0.005029
98 0.004989
61 0.005031
57 0.005021
66 0.005019
79 0.005027
89 0.005022
102 0.00604
108 0.004987
108 0.005026
107 0.005039
109 0.005022
114 0.005022
120 0.005025
128 0.004988
137 0.00502
143 0.004986
149 0.005021
155 0.00502
157 0.004986
161 0.005021
165 0.004021
169 0.004023
168 0.003992
131 0.00399
84 0.003992
57 0.004022
52 0.005028
63 0.004988
74 0.005027
82 0.005023
90 0.004029
100 0.004078
101 0.005035
99 0.004987
103 0.004044
109 0.005003
116 0.005017
124 0.003977
133 0.004034
140 0.004023
146 0.00402
150 0.003994
153 0.003988
158 0.003996
162 0.00403
167 0.00402
166 0.003991
131 0.00403
86 0.004026
58 0.003029
56 0.004028
67 0.003994
76 0.004023
83 0.004022
93 0.004024
102 0.004009
103 0.004008
104 0.004044
108 0.004024
115 0.003992
122 0.003026
129 0.002993
140 0.002994
146 0.002993
151 0.002994
157 0.003993
161 0.003991
164 0.004036
168 0.003997
174 0.003945
180 0.004039
174 0.003992
136 0.00399
92 0.004032
67 0.003025
71 0.003034
83 0.003005
92 0.002992
101 0.002996
112 0.003026
117 0.003035
118 0.004039
118 0.003028
120 0.004022
124 0.003031
131 0.003024
139 0.003025
144 0.002994
149 0.003037
154 0.003027
157 0.002993
162 0.002994
167 0.002994
171 0.002992
158 0.003007
118 0.002992
83 0.003032
70 0.003057
76 0.002993
91 0.003038
102 0.002994
112 0.002026
120 0.001995
123 0.002992
122 0.003025
122 0.003035
128 0.002974
135 0.003043
142 0.001995
149 0.001995
156 0.001994
164 0.001996
168 0.001997
172 0.001996
174 0.001995
177 0.002014
180 0.002029
184 0.001995
181 0.002992
142 0.002992
97 0.002983
70 0.002018
66 0.001993
78 0.001995
85 0.001995
90 0.002004
99 0.001995
108 0.001995
111 0.00204
112 0.001994
114 0.001995
120 0.002013
126 0.001035
132 0.000999
140 0.001012
148 0.00205
153 0.00203
158 0.001995
162 0.001996
164 0.001995
167 0.001995
172 0.001994
179 0.002026
173 0.001995
135 0.000997
89 0.001008
64 0.000985
62 0.000998
72 0.001008
79 0.000997
85 0.000997
94 0.001
106 0.000997
109 0.000997
110 0.002035
113 0.002007
116 0.001995
123 0.000999
132 0.000992
141 0.000997
147 0.001009
153 0.00102
157 0.000997
160 0.000998
165 0.000998
167 0.000998
173 0.000997
177 0.001032
181 0.002048
168 0.001995
125 0.000997
72 0.001011
62 0.001014
68 0.001001
78 0.000998
86 0.001
93 0.000984
105 0.000997
109 0.000997
107 0.000997
107 0.000998
110 0.001003
116 0.0
122 0.0
131 0.0
138 0.0
142 0.0
147 0.000996
151 0.0
154 0.000965
160 0.000997
165 0.000997
158 0.000998
121 0.0
80 0.0
60 0.0
64 0.0
74 0.0
83 0.0
92 0.0
102 0.0
107 0.0
105 0.0
106 0.000997
109 0.0
114 0.0
121 0.0
128 0.0
135 0.0
141 0.0
146 0.0
149 0.0
154 0.0
157 0.0
165 0.0
160 0.0
124 0.0
69 0.0
54 0.001003
50 0.000998
59 0.000989
65 0.002037
70 0.000987
82 0.0
91 0.0
96 0.001011
97 0.0
99 0.001008
103 0.001047
113 0.0
121 0.0
127 0.0
134 0.000962
141 0.000997
146 0.0
149 0.0
153 0.0
155 0.001004
163 0.0
167 0.001003
168 0.000998
127 0.000997
95 0.0
55 0.0
51 0.001032
58 0.000988
65 0.0
70 0.0
78 0.0
89 0.001027
97 0.0
98 0.000993
99 0.001009
103 0.000999
112 0.0
121 0.001
128 0.000948
135 0.001996
140 0.001995
148 0.0
153 0.0
156 0.00103
162 0.000992
165 0.001007
168 0.001029
172 0.001029
178 0.001002
177 0.001012
143 0.000996
95 0.001996
66 0.001995
61 0.000998
68 0.000998
76 0.001003
85 0.001005
95 0.001027
101 0.001018
102 0.001029
102 0.000996
103 0.000998
107 0.001028
114 0.001995
121 0.001995
130 0.001046
137 0.001056
143 0.00101
151 0.000998
154 0.000998
156 0.002006
159 0.002001
165 0.001032
169 0.001002
174 0.000998
164 0.001995
126 0.001995
75 0.000986
63 0.000965
69 0.000954
84 0.0
90 0.000996
98 0.003025
107 0.002992
110 0.002015
109 0.002025
110 0.001056
112 0.003028
118 0.002037
128 0.001011
136 0.000999
142 0.000997
153 0.001
157 0.00203
162 0.002017
166 0.002992
169 0.001984
171 0.001988
174 0.001004
178 0.002992
181 0.002992
185 0.002023
162 0.001024
113 0.001009
62 0.001005
59 0.001026
68 0.002992
76 0.003025
81 0.001993
89 0.001988
96 0.001992
103 0.003024
108 0.002992
105 0.002009
105 0.002026
112 0.002029
127 0.002022
134 0.002015
143 0.003
148 0.004022
150 0.003989
157 0.001997
160 0.001994
162 0.001999
163 0.002957
167 0.002992
175 0.001988
181 0.001992
153 0.002007
104 0.002992
68 0.003031
57 0.00402
67 0.004
81 0.001971
80 0.003022
86 0.003048
99 0.002989
106 0.003991
109 0.002029
110 0.002009
114 0.001999
117 0.003017
122 0.003022
130 0.004021
138 0.003989
144 0.003025
149 0.003035
155 0.003041
161 0.003989
163 0.004026
162 0.002027
167 0.00197
173 0.002999
154 0.002986
108 0.002991
74 0.003989
61 0.004025
71 0.002996
82 0.004005
90 0.002039
98 0.003982
104 0.00399
106 0.002992
107 0.003038
108 0.003032
110 0.00402
117 0.003026
123 0.004987
129 0.004022
137 0.003006
145 0.002995
151 0.002996
152 0.004029
151 0.004007
159 0.002953
163 0.003989
122 0.003988
79 0.004019
57 0.003976
56 0.005024
60 0.004987
70 0.004016
78 0.003969
88 0.002979
93 0.004987
97 0.004025
99 0.002995
104 0.003981
107 0.004003
109 0.004025
119 0.004022
128 0.005023
132 0.004987
140 0.003992
145 0.004027
150 0.004032
153 0.005026
155 0.00499
156 0.005987
153 0.003985
97 0.005984
50 0.003987
44 0.00399
51 0.004009
61 0.005035
70 0.004987
79 0.003989
85 0.003987
90 0.003944
94 0.004987
95 0.005984
98 0.003988
104 0.006021
114 0.003974
124 0.005019
133 0.004022
140 0.005984
142 0.005985
144 0.003996
149 0.00399
155 0.003993
158 0.006023
161 0.005984
159 0.004989
113 0.005984
64 0.004988
51 0.005019
58 0.005026
69 0.005986
73 0.006037
81 0.004021
92 0.004005
101 0.004987
107 0.007023
107 0.006981
105 0.004995
112 0.005984
121 0.004984
128 0.004969
134 0.00499
143 0.005984
152 0.005984
153 0.005031
151 0.003986
156 0.005016
160 0.006981
164 0.006981
170 0.00497
153 0.007013
95 0.004969
69 0.004976
69 0.004988
78 0.006017
87 0.005986
97 0.004967
106 0.00499
112 0.006035
115 0.006979
114 0.006982
114 0.005995
121 0.006982
129 0.006035
137 0.004956
142 0.004994
147 0.006981
152 0.005984
157 0.004992
160 0.005985
165 0.005955
171 0.006981
174 0.006982
152 0.005982
103 0.006977
81 0.005985
83 0.006019
93 0.006018
102 0.007014
110 0.006979
122 0.005965
124 0.005992
124 0.005984
123 0.007025
124 0.007013
126 0.006983
137 0.006981
144 0.006982
152 0.006016
156 0.005987
160 0.006986
164 0.00798
168 0.007016
173 0.007013
177 0.007016
155 0.007035
114 0.007979
77 0.007976
74 0.007978
83 0.007979
91 0.005987
98 0.005984
108 0.005986
115 0.007011
118 0.007016
118 0.005987
118 0.006998
122 0.006986
127 0.007962
133 0.007974
145 0.007978
154 0.007939
159 0.007011
164 0.006999
167 0.006023
172 0.007971
178 0.007978
182 0.006982
182 0.00699
152 0.006977
107 0.00798
77 0.007924
71 0.007979
78 0.007979
82 0.007016
88 0.007016
96 0.006023
100 0.023976
108 0.0
110 0.0
119 0.006978
126 0.007004
133 0.006976
145 0.007979
153 0.007945
160 0.00695
163 0.006973
168 0.006972
170 0.007979
173 0.007978
178 0.006973
182 0.006972
189 0.007014
184 0.007013
148 0.007013
80 0.007016
68 0.007012
73 0.006955
79 0.006949
81 0.006945
85 0.007015
94 0.007017
102 0.006976
107 0.006979
107 0.005989
109 0.006022
114 0.006014
127 0.007029
135 0.00702
145 0.00703
153 0.007015
158 0.007016
162 0.007015
166 0.007013
170 0.007016
173 0.006977
176 0.006983
179 0.006014
183 0.005974
191 0.006017
187 0.005997
148 0.005985
90 0.007018
69 0.007025
68 0.006977
76 0.007015
83 0.007019
86 0.006985
95 0.007006
104 0.005965
108 0.006018
110 0.006028
112 0.006015
117 0.005989
126 0.005994
133 0.006007
140 0.006017
147 0.00604
154 0.006982
160 0.006985
164 0.006026
168 0.006026
171 0.005984
174 0.006021
179 0.005984
183 0.005952
187 0.006014
173 0.006018
130 0.005998
89 0.005951
69 0.006015
73 0.006031
81 0.006018
87 0.005985
92 0.006
106 0.005024
112 0.00547
113 0.006021
112 0.005993
115 0.00604
122 0.006035
129 0.006041
136 0.006033
146 0.005014
152 0.006018
157 0.005037
162 0.005021
168 0.005025
171 0.005036
174 0.00502
178 0.005986
183 0.005986
187 0.005018
183 0.006059
149 0.006031
93 0.006021
74 0.006021
76 0.005024
87 0.005031
99 0.005033
107 0.005047
115 0.004988
118 0.005028
117 0.005046
116 0.004969
117 0.004986
122 0.006027
132 0.005031
138 0.005019
145 0.003992
151 0.004088
159 0.005028
163 0.00503
165 0.004988
171 0.004973
175 0.004986
179 0.005036
177 0.005051
147 0.004981
105 0.004988
76 0.005023
79 0.005019
89 0.005023
103 0.004031
111 0.003991
119 0.003959
123 0.003991
122 0.004039
123 0.005003
126 0.003969
131 0.004048
138 0.004046
148 0.004037
154 0.003995
160 0.004025
167 0.003951
171 0.004029
174 0.005039
178 0.00502
182 0.004996
187 0.004036
188 0.004021
163 0.004033
117 0.004023
77 0.004001
73 0.00402
80 0.004021
91 0.004051
97 0.004023
105 0.004022
113 0.002992
116 0.004034
117 0.004023
117 0.003991
121 0.00399
128 0.003991
137 0.003991
143 0.002971
150 0.002955
159 0.003991
164 0.004029
167 0.004024
170 0.00399
174 0.004042
179 0.004015
183 0.004039
177 0.00399
142 0.00399
88 0.003952
71 0.003038
73 0.002993
88 0.003026
92 0.002992
99 0.003023
108 0.003031
116 0.004029
117 0.002993
116 0.002992
118 0.003004
123 0.003026
132 0.003039
140 0.003043
147 0.003029
157 0.002992
161 0.002992
164 0.003026
167 0.002986
171 0.002993
174 0.00304
179 0.002994
182 0.003047
166 0.002986
110 0.003
80 0.002994
72 0.003028
87 0.002027
93 0.002032
99 0.003025
108 0.001996
114 0.002025
115 0.001956
114 0.003029
115 0.002993
120 0.002027
124 0.001995
134 0.002994
140 0.001992
149 0.002994
153 0.001996
156 0.001995
161 0.002025
163 0.001981
169 0.001995
171 0.003043
151 0.002987
109 0.002053
77 0.002992
68 0.003043
75 0.003026
90 0.002025
98 0.002013
108 0.001995
113 0.00203
115 0.001995
116 0.001954
117 0.001996
121 0.001995
128 0.002041
135 0.002001
143 0.001997
150 0.000998
159 0.002058
163 0.002032
165 0.002026
168 0.00199
170 0.00198
177 0.002019
180 0.001995
165 0.001964
122 0.002003
83 0.001995
66 0.0
71 0.000998
84 0.000998
90 0.001003
99 0.000965
107 0.001
113 0.001995
115 0.001985
116 0.002002
120 0.001995
126 0.00203
133 0.001996
143 0.001987
150 0.000997
160 0.001003
165 0.001
167 0.000997
170 0.000997
173 0.000996
178 0.002028
183 0.001011
187 0.001995
173 0.002021
131 0.001996
83 0.001045
74 0.000997
87 0.000997
94 0.000998
99 0.000998
108 0.000997
119 0.000997
124 0.000998
125 0.000998
126 0.001046
129 0.0
134 0.000998
144 0.000993
151 0.0
161 0.001995
166 0.0
171 0.000997
176 0.0
178 0.0
179 0.0
184 0.0
187 0.0
192 0.000998
195 0.0
181 0.0
123 0.000994
85 0.000997
85 0.000998
96 0.000997
104 0.000966
109 0.000997
119 0.0
129 0.0
130 0.0
130 0.0
132 0.0
135 0.0
143 0.0
152 0.0
160 0.0
165 0.0
170 0.0
174 0.000997
177 0.0
180 0.0
182 0.0
184 0.0
189 0.0
192 0.0
184 0.0
131 0.0
90 0.0
85 0.0
94 0.0
106 0.0
116 0.0
126 0.001033
133 0.00101
133 0.0
132 0.0
133 0.0
137 0.00203
147 0.0
153 0.002042
159 0.002042
167 0.0
172 0.0
175 0.0
177 0.000998
181 0.001029
183 0.0
187 0.0
191 0.0
184 0.001993
115 0.0
84 0.001001
76 0.000998
88 0.000998
97 0.0
105 0.0
113 0.002045
121 0.002025
126 0.0
126 0.0
126 0.0
129 0.001998
137 0.0
144 0.001013
151 0.001028
159 0.0
164 0.0
169 0.0
173 0.001038
175 0.000994
178 0.000998
180 0.000998
186 0.0
185 0.001986
126 0.0
86 0.002003
70 0.000993
76 0.0
86 0.0
94 0.0
100 0.0
108 0.001031
115 0.001031
118 0.000994
119 0.000964
120 0.0
128 0.0
135 0.0
143 0.002021
149 0.002028
157 0.0
161 0.000952
165 0.000996
167 0.001028
171 0.001033
175 0.000999
180 0.001004
182 0.000943
135 0.000958
92 0.001994
70 0.001999
68 0.001996
82 0.002032
90 0.001026
95 0.000998
106 0.003047
113 0.002991
116 0.000997
116 0.000968
118 0.00199
126 0.000963
132 0.002
138 0.002013
145 0.002027
153 0.00101
157 0.002027
161 0.001035
165 0.002002
167 0.002014
171 0.00199
176 0.0
179 0.000997
146 0.001995
100 0.001002
70 0.002992
64 0.003026
76 0.002033
84 0.001
91 0.001992
100 0.001965
108 0.00196
113 0.002028
112 0.001028
113 0.00203
119 0.002026
125 0.000996
133 0.002989
140 0.003028
147 0.000999
152 0.000996
156 0.000997
159 0.001989
162 0.001982
166 0.002004
170 0.001997
174 0.001977
159 0.001993
116 0.001996
79 0.002964
62 0.003024
69 0.001
80 0.001024
86 0.000999
93 0.002991
103 0.00401
108 0.001965
108 0.001996
108 0.002001
113 0.002001
120 0.001996
126 0.002992
133 0.002992
138 0.003032
146 0.002026
148 0.002002
151 0.001972
154 0.003989
158 0.003991
163 0.001963
166 0.001962
125 0.002001
85 0.001961
64 0.001995
63 0.002992
75 0.002999
89 0.002005
98 0.002999
108 0.002987
112 0.003994
110 0.003955
108 0.001993
112 0.001995
121 0.002028
127 0.002028
134 0.001994
140 0.004019
145 0.00399
151 0.001998
155 0.002993
158 0.002979
162 0.003987
166 0.003982
168 0.002989
145 0.002955
74 0.002997
53 0.003023
55 0.00203
64 0.003989
72 0.004986
80 0.002997
90 0.003028
97 0.002974
100 0.004987
99 0.00499
102 0.002959
106 0.00296
118 0.002988
125 0.002994
132 0.003024
139 0.003989
143 0.004991
149 0.003992
151 0.002983
154 0.003002
158 0.004992
164 0.004989
160 0.002999
125 0.002995
59 0.002996
49 0.002994
54 0.003005
63 0.003981
69 0.004987
78 0.003987
88 0.003989
95 0.003992
97 0.004988
97 0.004988
99 0.003995
105 0.003004
117 0.002958
125 0.002988
132 0.002994
138 0.006038
142 0.005986
148 0.003988
152 0.003986
154 0.003986
159 0.004979
165 0.004986
166 0.004989
131 0.003987
74 0.004986
53 0.003991
57 0.003989
65 0.003979
72 0.005984
80 0.005981
92 0.003991
98 0.003989
99 0.004005
98 0.005966
99 0.005967
106 0.003991
113 0.005019
122 0.003986
127 0.005001
133 0.004989
137 0.006021
142 0.005991
145 0.004991
150 0.004987
155 0.003994
157 0.005991
139 0.005951
87 0.004975
57 0.006982
61 0.004986
72 0.004983
81 0.004981
91 0.006015
100 0.005982
104 0.004987
105 0.004995
104 0.004988
106 0.005987
111 0.005983
121 0.003991
130 0.006982
136 0.004991
142 0.004993
147 0.00499
149 0.006981
151 0.006991
156 0.003982
160 0.004034
164 0.004983
160 0.005983
127 0.005984
70 0.005035
51 0.007022
59 0.005986
67 0.006016
72 0.005023
79 0.006981
88 0.007021
97 0.004968
97 0.004973
98 0.004992
101 0.007016
107 0.006015
116 0.00499
125 0.006982
135 0.004986
140 0.005986
144 0.005983
146 0.006982
150 0.006996
154 0.005986
157 0.005985
163 0.00599
164 0.006982
137 0.006967
79 0.004987
54 0.006982
61 0.005983
69 0.005992
73 0.005986
81 0.006981
92 0.007015
101 0.005992
103 0.005982
104 0.005981
104 0.006981
109 0.007009
116 0.007926
128 0.007979
135 0.007981
142 0.005951
148 0.00598
152 0.006003
156 0.007984
159 0.007971
162 0.005983
166 0.005988
170 0.00699
173 0.006988
164 0.007047
94 0.007974
68 0.007979
63 0.006988
72 0.006068
81 0.006981
85 0.007977
97 0.007973
106 0.005977
108 0.005997
107 0.005982
109 0.007982
111 0.007965
123 0.00797
128 0.006995
136 0.00698
142 0.006962
146 0.006981
151 0.007966
152 0.007975
156 0.005999
157 0.006984
161 0.005986
166 0.007936
168 0.007947
129 0.007982
90 0.007015
70 0.006975
73 0.006978
81 0.006974
94 0.006976
103 0.007014
113 0.00698
115 0.006952
114 0.006987
114 0.007977
115 0.007983
124 0.00785
131 0.006982
139 0.00698
145 0.006973
150 0.006972
154 0.007011
158 0.006959
159 0.006979
162 0.006961
166 0.006967
170 0.006975
173 0.00698
139 0.006979
96 0.007012
64 0.006951
64 0.006984
74 0.006982
82 0.006984
86 0.007013
98 0.006974
106 0.006977
108 0.006966
108 0.007013
109 0.006974
115 0.007012
121 0.007013
130 0.005987
137 0.005984
142 0.006974
147 0.007017
152 0.006995
156 0.006949
157 0.006976
161 0.006977
166 0.006966
170 0.007015
151 0.006013
107 0.006988
71 0.005985
59 0.006013
66 0.005989
76 0.00598
81 0.005985
89 0.005944
101 0.005966
106 0.005984
107 0.005984
107 0.006015
112 0.004995
117 0.006031
125 0.006015
134 0.005992
140 0.006014
145 0.005943
151 0.005984
154 0.005984
157 0.005969
161 0.005984
163 0.005984
166 0.00498
171 0.00603
151 0.005017
107 0.005005
66 0.005065
62 0.005019
70 0.005019
80 0.005989
86 0.00602
97 0.006016
105 0.006016
107 0.005975
109 0.006018
109 0.006017
113 0.006022
120 0.005028
129 0.00504
135 0.004994
140 0.005952
146 0.005021
148 0.005025
153 0.004988
154 0.004997
156 0.004942
159 0.00503
166 0.005017
169 0.005985
150 0.006015
94 0.005018
67 0.005021
63 0.005021
70 0.005018
82 0.005022
92 0.005017
100 0.005025
107 0.005023
109 0.004955
106 0.004986
106 0.004997
110 0.003989
119 0.004022
126 0.004023
131 0.003992
137 0.003952
141 0.004022
144 0.005032
148 0.005022
152 0.004966
156 0.005021
160 0.00499
142 0.005021
103 0.005024
73 0.003974
64 0.004022
73 0.003992
84 0.004024
92 0.003993
102 0.003988
112 0.003991
114 0.003998
112 0.003955
114 0.005045
118 0.004988
126 0.004021
132 0.004021
139 0.004946
145 0.005016
151 0.004987
154 0.004022
156 0.004023
160 0.004022
162 0.003957
166 0.00399
169 0.00399
146 0.004
103 0.00402
69 0.004024
59 0.003943
68 0.002962
76 0.002992
81 0.002993
87 0.002992
101 0.003972
105 0.00399
106 0.004031
107 0.004023
111 0.004021
118 0.00396
125 0.003992
134 0.003951
140 0.003952
145 0.002936
148 0.002953
152 0.002992
155 0.002954
157 0.002949
160 0.002965
167 0.003984
172 0.003961
163 0.003994
124 0.004034
71 0.003958
58 0.003944
61 0.002992
72 0.002992
79 0.003001
87 0.00299
97 0.002961
105 0.002994
108 0.002992
107 0.002993
110 0.002992
115 0.00399
124 0.003958
131 0.001995
137 0.002957
142 0.002994
148 0.00303
152 0.002995
155 0.002992
157 0.002992
160 0.002888
163 0.00299
168 0.002993
171 0.002993
159 0.003013
117 0.00299
77 0.001997
62 0.00204
65 0.002029
81 0.00203
88 0.002026
95 0.00199
108 0.001968
109 0.001989
109 0.001995
108 0.001996
110 0.001962
117 0.001995
125 0.002997
131 0.002987
136 0.00299
141 0.002996
147 0.002033
149 0.002034
154 0.001995
158 0.001995
162 0.001954
165 0.001988
152 0.002041
101 0.001982
71 0.001997
65 0.001998
73 0.000999
85 0.001022
96 0.002
105 0.002001
117 0.001995
117 0.002025
116 0.001996
117 0.001997
120 0.001996
130 0.002036
136 0.002024
142 0.002049
147 0.002047
153 0.002056
158 0.001009
160 0.001028
163 0.001011
167 0.000998
171 0.001029
175 0.000999
169 0.00101
116 0.000997
76 0.001996
62 0.002027
65 0.002061
75 0.00205
84 0.000996
90 0.001026
106 0.000998
110 0.001018
110 0.001007
110 0.000997
112 0.000998
119 0.001043
126 0.001001
133 0.002031
141 0.001995
145 0.002028
153 0.001008
156 0.000997
160 0.000967
163 0.000995
164 0.001052
170 0.00106
175 0.000999
168 0.000997
130 0.000997
87 0.001996
64 0.000997
62 0.000997
77 0.0
83 0.0
94 0.000999
103 0.0
110 0.0
112 0.000997
111 0.000997
113 0.000998
119 0.000951
125 0.000998
132 0.0
139 0.0
144 0.0
151 0.0
157 0.0
162 0.0
164 0.0
166 0.0
168 0.0
172 0.0
178 0.000997
179 0.0
152 0.000998
106 0.000997
73 0.0
64 0.0
78 0.0
89 0.0
96 0.0
105 0.0
110 0.0
112 0.0
111 0.0
111 0.0
115 0.0
122 0.0
128 0.000998
136 0.000997
143 0.000993
150 0.001001
153 0.002035
155 0.000997
159 0.0
162 0.0
165 0.0
170 0.00103
170 0.0
154 0.0
111 0.000999
72 0.002028
73 0.0
85 0.002046
94 0.002027
107 0.0
115 0.0
118 0.0
117 0.002027
116 0.002028
119 0.0
125 0.0
132 0.001003
139 0.001036
150 0.0
155 0.001031
159 0.001995
164 0.0
166 0.0
168 0.0
170 0.001996
175 0.002027
180 0.0
179 0.0
151 0.0
102 0.002045
62 0.0
65 0.001033
77 0.001029
87 0.000997
91 0.000997
102 0.0
109 0.002031
111 0.002031
110 0.0
112 0.0
115 0.000962
120 0.001989
134 0.000995
140 0.002029
147 0.001995
153 0.0
158 0.0
162 0.00096
165 0.0
167 0.001003
169 0.001999
175 0.000997
179 0.0
173 0.0
103 0.0
69 0.0
62 0.001998
69 0.001989
83 0.0
90 0.0
98 0.000979
105 0.002003
110 0.00199
110 0.001988
108 0.0
111 0.0
120 0.000961
128 0.0
134 0.001993
140 0.001984
148 0.0
151 0.000998
153 0.002001
156 0.001986
161 0.00295
166 0.002001
168 0.001999
153 0.000989
87 0.001995
66 0.001013
67 0.002005
79 0.002013
94 0.002013
104 0.001992
114 0.00199
118 0.003004
117 0.003003
113 0.001991
115 0.00199
119 0.0
130 0.002
139 0.001994
146 0.001965
149 0.001992
150 0.000996
156 0.001997
159 0.002032
161 0.002996
165 0.002986
169 0.001995
142 0.001991
95 0.000994
58 0.000999
62 0.001989
72 0.002991
79 0.002952
88 0.001992
97 0.001996
105 0.002003
106 0.002995
105 0.002994
108 0.000982
113 0.000985
119 0.000992
135 0.001008
143 0.001003
146 0.002998
147 0.002991
154 0.001992
157 0.001994
159 0.002
163 0.003995
168 0.004023
159 0.001994
116 0.00103
74 0.002007
55 0.001032
62 0.000997
71 0.002993
76 0.002991
87 0.001
97 0.002004
103 0.001992
103 0.001995
104 0.003986
107 0.003996
114 0.001982
122 0.002037
134 0.002012
142 0.001995
148 0.001034
152 0.00396
157 0.004004
161 0.001952
164 0.001995
170 0.002002
175 0.003996
174 0.003981
130 0.00203
88 0.001965
64 0.001996
71 0.002026
81 0.002994
86 0.003982
93 0.003993
105 0.001991
111 0.002996
111 0.00199
111 0.003992
111 0.003993
118 0.001985
126 0.001994
138 0.002006
145 0.002991
149 0.003001
153 0.005008
156 0.004987
160 0.002992
164 0.002997
169 0.00195
172 0.004009
161 0.003989
110 0.002004
78 0.003005
73 0.002008
83 0.001992
94 0.002992
104 0.004979
113 0.004991
118 0.002993
116 0.002996
115 0.002992
115 0.004996
120 0.004987
129 0.003983
136 0.002989
145 0.001983
151 0.003007
155 0.002996
158 0.004982
161 0.00499
168 0.002986
171 0.002998
172 0.003
145 0.004989
102 0.004988
66 0.002973
64 0.002988
78 0.003991
85 0.003989
93 0.002993
102 0.004987
108 0.004987
112 0.002979
111 0.002982
112 0.003004
118 0.004984
125 0.005968
134 0.003994
142 0.003035
152 0.003996
157 0.003983
161 0.00399
163 0.005992
166 0.005983
172 0.002983
176 0.003995
180 0.003991
174 0.003993
135 0.005028
91 0.004989
66 0.002993
72 0.005993
83 0.003989
87 0.003989
95 0.003983
106 0.005971
113 0.005984
113 0.003993
114 0.004009
118 0.003934
123 0.007032
129 0.006982
140 0.003971
150 0.006985
158 0.004986
162 0.004988
167 0.004984
171 0.005969
173 0.005983
176 0.003988
181 0.003983
184 0.003991
188 0.00598
179 0.005991
121 0.003991
77 0.005975
73 0.004987
83 0.004985
92 0.004956
98 0.006984
106 0.006985
118 0.004996
121 0.004035
120 0.003949
120 0.005984
123 0.005993
131 0.005041
142 0.006999
150 0.004997
156 0.004985
163 0.004993
167 0.007016
171 0.007016
175 0.004991
177 0.004002
179 0.004991
182 0.005989
187 0.005974
192 0.005989
177 0.007075
117 0.005984
85 0.005986
76 0.004987
84 0.00708
96 0.007011
107 0.004985
115 0.004987
123 0.004989
126 0.006989
125 0.006981
124 0.00598
129 0.007963
136 0.005995
143 0.005982
148 0.00599
154 0.007979
159 0.007981
164 0.005983
166 0.004968
168 0.004986
171 0.007019
174 0.006992
179 0.005006
182 0.00796
165 0.007979
108 0.00599
81 0.005998
76 0.005988
86 0.007978
102 0.007972
111 0.005988
121 0.005983
126 0.005984
124 0.007011
122 0.007016
123 0.007969
130 0.007969
136 0.005982
144 0.005986
150 0.00599
156 0.007961
161 0.007977
166 0.005981
168 0.005996
170 0.005017
173 0.007971
179 0.007015
180 0.00798
163 0.008019
102 0.005968
71 0.005971
65 0.005986
75 0.007979
85 0.00797
91 0.005003
98 0.00599
109 0.006977
112 0.007971
112 0.007014
113 0.007015
117 0.00702
127 0.006952
134 0.006979
139 0.006
147 0.006971
153 0.007014
158 0.006001
160 0.006013
163 0.005973
166 0.006992
169 0.007018
177 0.006981
168 0.007013
127 0.006954
73 0.006979
60 0.006976
64 0.007013
74 0.007024
81 0.006941
88 0.005978
100 0.006032
106 0.006977
109 0.007012
108 0.006979
111 0.006136
116 0.006972
123 0.006041
134 0.006061
140 0.005976
146 0.00604
154 0.006058
156 0.006978
160 0.005969
163 0.006019
166 0.006021
174 0.006976
178 0.006981
167 0.00698
124 0.006978
94 0.006964
63 0.007026
65 0.007014
75 0.006984
88 0.005971
94 0.005979
103 0.00598
111 0.006027
113 0.005988
113 0.006012
114 0.006035
122 0.006009
128 0.006979
136 0.006989
144 0.007019
150 0.006014
157 0.005981
161 0.005985
165 0.005953
167 0.005983
171 0.00598
175 0.005974
180 0.006017
183 0.005987
157 0.00597
112 0.005986
78 0.005021
68 0.00502
79 0.006029
92 0.005977
99 0.006027
108 0.006041
117 0.005979
117 0.006016
115 0.006015
116 0.005985
121 0.005981
128 0.005989
135 0.005018
142 0.004989
150 0.004981
155 0.004961
157 0.006017
160 0.006017
165 0.006015
169 0.006027
174 0.006051
174 0.005979
147 0.006039
104 0.004987
75 0.005021
69 0.005028
84 0.004972
96 0.005019
104 0.005021
114 0.004988
122 0.003955
122 0.003989
119 0.005033
122 0.004982
129 0.003955
135 0.003979
142 0.00399
149 0.005025
157 0.005043
162 0.004992
166 0.005034
170 0.005043
174 0.004983
176 0.005009
180 0.004954
185 0.004989
180 0.004986
143 0.004983
95 0.004987
68 0.004986
67 0.004025
80 0.003992
87 0.004025
91 0.003998
106 0.003969
112 0.005031
112 0.005025
111 0.004985
112 0.004974
115 0.004984
123 0.004021
132 0.00402
140 0.004019
148 0.003997
154 0.004165
158 0.004041
163 0.003934
164 0.003991
168 0.003973
173 0.003972
179 0.003956
179 0.003955
150 0.003993
102 0.004982
72 0.004026
67 0.003991
76 0.004022
86 0.003989
97 0.00399
106 0.003936
113 0.00399
116 0.004024
115 0.004044
116 0.003956
120 0.002996
125 0.003035
131 0.002992
142 0.002992
148 0.003985
154 0.002992
161 0.003987
163 0.003988
166 0.003979
167 0.003962
171 0.002964
176 0.002942
179 0.003989
169 0.003958
130 0.002963
79 0.002961
67 0.002993
73 0.002993
89 0.002996
95 0.003958
104 0.00401
112 0.002977
118 0.002985
117 0.00399
117 0.003976
121 0.003955
128 0.00399
137 0.002993
145 0.003033
151 0.002962
161 0.002994
165 0.002991
168 0.003027
169 0.003028
173 0.002987
178 0.002994
183 0.002994
187 0.003028
185 0.002993
136 0.002962
97 0.002954
80 0.003015
89 0.002995
99 0.002993
105 0.003027
114 0.002987
123 0.002991
123 0.00299
122 0.002996
122 0.00299
125 0.002991
133 0.002993
140 0.001995
147 0.002027
156 0.002027
160 0.002015
165 0.001986
167 0.003006
170 0.003034
175 0.002959
179 0.002985
182 0.002992
170 0.002029
130 0.002992
82 0.001995
72 0.001961
85 0.002014
93 0.002037
99 0.002029
109 0.001996
116 0.001991
118 0.001992
116 0.001986
117 0.001995
119 0.000992
126 0.001994
135 0.001033
142 0.00101
151 0.001028
155 0.001996
159 0.002014
163 0.001995
165 0.002001
173 0.002
174 0.001982
152 0.002017
110 0.002028
79 0.002041
70 0.001995
80 0.000966
92 0.000991
100 0.001006
108 0.000998
115 0.001026
116 0.000956
117 0.001013
119 0.000997
129 0.000997
132 0.000997
133 0.000997
141 0.000998
150 0.002038
159 0.000997
166 0.002028
169 0.002006
165 0.00203
140 0.00203
89 0.001032
72 0.000999
75 0.001974
88 0.001002
97 0.000997
104 0.001054
112 0.001011
123 0.000998
123 0.000997
120 0.001995
125 0.000997
133 0.000997
140 0.001989
146 0.0
151 0.0
155 0.000997
160 0.000997
170 0.0
175 0.0
157 0.0
114 0.0
84 0.0
77 0.0
83 0.001045
93 0.000986
102 0.001
111 0.000997
122 0.000998
127 0.0
126 0.000997
125 0.0
130 0.0
138 0.0
144 0.0
151 0.0
156 0.0
161 0.0
165 0.0
168 0.0
171 0.0
175 0.0
181 0.0
187 0.0
177 0.000997
117 0.0
85 0.0
78 0.0
85 0.0
93 0.0
100 0.0
109 0.0
117 0.0
122 0.0
122 0.0
123 0.0
126 0.0
134 0.0
140 0.0
145 0.0
153 0.0
158 0.0
163 0.002026
166 0.0
171 0.0
174 0.0
177 0.0
181 0.002025
182 0.0
150 0.001033
105 0.001032
77 0.0
81 0.0
91 0.0
98 0.002025
108 0.002026
118 0.0
121 0.0
119 0.0
118 0.002031
121 0.0
126 0.002027
132 0.002025
142 0.001
147 0.0
151 0.000998
156 0.002027
161 0.003012
166 0.0
171 0.001056
173 0.001012
150 0.002021
89 0.0
74 0.002027
79 0.002025
94 0.001005
101 0.0
112 0.0
120 0.002027
121 0.001991
119 0.0
119 0.0
121 0.0
127 0.002011
138 0.0
144 0.001995
149 0.002029
155 0.0
159 0.00101
162 0.0
166 0.001032
171 0.00201
172 0.0
146 0.0
101 0.0
68 0.002041
62 0.0
70 0.0
76 0.00199
80 0.001994
91 0.000958
99 0.0
101 0.0
100 0.001993
102 0.002
108 0.000972
114 0.0
122 0.0
133 0.0
139 0.0
143 0.001973
147 0.002043
153 0.0
157 0.0
161 0.0
158 0.002025
126 0.002035
72 0.0
54 0.001992
56 0.0
70 0.0
74 0.000973
82 0.002981
91 0.002994
99 0.0
100 0.001041
100 0.001957
103 0.002993
109 0.003038
118 0.00203
125 0.002054
133 0.002004
144 0.001994
149 0.001994
152 0.002966
156 0.002962
160 0.001996
163 0.001971
168 0.001981
173 0.002994
168 0.002993
116 0.001996
78 0.001027
62 0.002021
70 0.000982
78 0.00201
83 0.003961
92 0.002979
103 0.001985
107 0.001993
107 0.000993
108 0.003026
110 0.003025
119 0.001998
126 0.001003
133 0.001969
142 0.001996
148 0.001992
153 0.002961
159 0.003947
162 0.000972
164 0.001994
167 0.001998
170 0.00299
173 0.002992
179 0.001984
180 0.001996
155 0.00198
86 0.001996
71 0.001995
75 0.004005
86 0.003989
98 0.001992
108 0.002006
114 0.001999
115 0.001997
114 0.00399
112 0.003989
115 0.001012
121 0.002994
133 0.001964
139 0.00201
145 0.001999
150 0.00399
152 0.003998
157 0.002005
159 0.001994
163 0.001976
167 0.003991
172 0.004023
150 0.001999
108 0.001989
63 0.002003
65 0.001023
74 0.001989
83 0.005024
90 0.004986
102 0.001994
106 0.002
109 0.002
109 0.003989
108 0.00399
114 0.001988
121 0.001991
133 0.001988
139 0.001994
145 0.002988
150 0.004995
155 0.004979
158 0.002009
161 0.002996
165 0.002998
169 0.003975
173 0.003993
161 0.001984
117 0.001993
60 0.002986
55 0.003008
65 0.003008
73 0.004999
79 0.004997
89 0.002959
98 0.002997
103 0.002952
104 0.005986
103 0.006018
107 0.002032
113 0.002028
125 0.001985
132 0.001993
139 0.002961
146 0.004986
150 0.004989
154 0.00282
158 0.002962
160 0.003013
163 0.004987
169 0.004987
171 0.003976
148 0.003958
75 0.002964
56 0.002951
59 0.002993
69 0.005989
77 0.005954
87 0.002936
95 0.003993
102 0.003024
106 0.005022
106 0.00502
106 0.003027
111 0.002994
122 0.002977
130 0.002028
137 0.002998
143 0.005988
147 0.005981
154 0.003024
157 0.002989
159 0.002997
161 0.005021
165 0.005984
170 0.003037
174 0.003022
160 0.004968
100 0.002992
66 0.003993
56 0.00401
64 0.005982
77 0.005987
87 0.003983
96 0.003995
104 0.003003
106 0.005984
104 0.005982
104 0.003992
107 0.005981
116 0.003989
122 0.003993
129 0.003982
134 0.006986
138 0.005993
144 0.004019
148 0.003985
152 0.003973
156 0.005984
159 0.005984
141 0.003988
87 0.005985
57 0.00398
60 0.004986
72 0.003977
85 0.00699
96 0.006975
108 0.004987
111 0.004999
108 0.003985
105 0.005976
106 0.005978
113 0.004033
122 0.00598
130 0.004977
136 0.004991
142 0.004989
145 0.006985
148 0.006978
153 0.004989
156 0.005005
160 0.004973
151 0.007983
124 0.007014
64 0.004985
41 0.006986
51 0.004985
62 0.004983
68 0.00498
75 0.006992
84 0.006982
91 0.004996
91 0.004957
91 0.004999
93 0.00702
98 0.006982
107 0.004958
119 0.007969
125 0.004975
130 0.005988
133 0.004979
137 0.008016
141 0.007016
146 0.005985
150 0.004996
135 0.004987
92 0.007023
52 0.006981
35 0.004988
45 0.006981
57 0.005995
64 0.005982
72 0.005018
83 0.004988
87 0.007939
87 0.007979
88 0.006003
92 0.005022
99 0.005019
105 0.007979
113 0.007978
126 0.007991
130 0.007979
135 0.005017
139 0.006004
142 0.005933
146 0.007949
151 0.007948
155 0.00699
138 0.006014
94 0.006016
56 0.007978
43 0.00798
59 0.007947
66 0.00698
74 0.005988
84 0.005987
93 0.005984
94 0.007959
93 0.007979
96 0.005987
99 0.005998
105 0.00598
115 0.007993
122 0.007015
131 0.00697
135 0.006981
139 0.005986
142 0.005986
145 0.005984
151 0.007022
157 0.00697
157 0.00602
132 0.006018
90 0.005992
59 0.007989
60 0.00798
79 0.006975
90 0.006974
103 0.006976
108 0.006986
110 0.006975
110 0.006992
109 0.007018
112 0.006982
118 0.006983
124 0.006978
134 0.006982
140 0.006983
149 0.007955
154 0.00801
156 0.006985
159 0.005038
164 0.006939
167 0.006995
171 0.007009
167 0.006956
133 0.006971
88 0.006973
57 0.007009
59 0.007017
75 0.006983
80 0.006985
92 0.005987
101 0.006017
106 0.005986
106 0.006016
105 0.005985
110 0.00601
115 0.006001
122 0.005986
130 0.005998
137 0.007032
146 0.006979
151 0.006001
155 0.006014
159 0.005976
161 0.005984
163 0.005953
167 0.005985
172 0.005991
172 0.005976
141 0.005964
95 0.005981
64 0.004989
62 0.005983
71 0.005018
78 0.005993
87 0.005984
96 0.005985
104 0.006026
107 0.005987
107 0.005977
109 0.005983
114 0.005977
120 0.006005
128 0.006031
139 0.004981
145 0.005021
150 0.004988
156 0.004981
160 0.004988
163 0.004985
167 0.006036
169 0.006023
173 0.005957
177 0.005997
180 0.006004
185 0.006029
161 0.00499
111 0.005051
75 0.006016
63 0.005026
73 0.004985
83 0.005019
88 0.005024
97 0.005025
108 0.00599
111 0.005949
111 0.005939
111 0.006016
116 0.004981
123 0.006016
130 0.004989
139 0.005079
145 0.004056
150 0.005033
154 0.005014
158 0.005037
161 0.005993
163 0.005022
166 0.005008
169 0.004982
176 0.004974
174 0.005021
142 0.005018
87 0.004992
69 0.003988
71 0.004007
82 0.00405
93 0.004049
105 0.004992
114 0.005021
117 0.005013
116 0.00502
115 0.004975
117 0.004984
122 0.004986
132 0.004972
138 0.00403
144 0.003991
150 0.004007
155 0.003989
158 0.004022
161 0.004032
164 0.003977
168 0.003973
174 0.004957
161 0.004957
119 0.004958
80 0.004025
60 0.003991
67 0.004033
78 0.003991
87 0.003991
95 0.004045
107 0.003991
112 0.003967
112 0.004025
111 0.00398
114 0.003945
120 0.003997
128 0.002956
136 0.004006
143 0.003036
150 0.002994
154 0.003991
157 0.003013
162 0.004026
163 0.004028
166 0.004023
172 0.003985
176 0.003987
164 0.003996
119 0.004042
66 0.004023
54 0.004022
59 0.003986
70 0.002993
77 0.003029
86 0.002992
95 0.003
102 0.003999
104 0.003986
105 0.002988
108 0.003958
113 0.004037
123 0.003989
130 0.00399
138 0.003989
143 0.003005
149 0.002985
154 0.002958
157 0.002992
159 0.003027
164 0.003028
170 0.002972
174 0.002992
165 0.002991
109 0.003056
70 0.004
54 0.002986
59 0.004022
71 0.003024
81 0.004021
88 0.002987
99 0.002009
107 0.002957
107 0.001997
106 0.003026
109 0.002993
117 0.002956
124 0.002978
131 0.002993
139 0.003023
145 0.00304
152 0.002039
157 0.001997
159 0.002006
163 0.001987
165 0.002012
170 0.002027
173 0.001995
151 0.001996
105 0.003023
70 0.001995
60 0.002993
66 0.001996
79 0.001956
92 0.002039
102 0.001995
111 0.002013
110 0.00199
108 0.002034
110 0.001996
113 0.002022
121 0.000997
129 0.001994
136 0.000997
141 0.000999
146 0.000997
152 0.002016
154 0.002007
161 0.002005
165 0.001961
169 0.001991
159 0.001996
118 0.001989
69 0.002005
58 0.002038
65 0.002027
78 0.001946
88 0.001995
100 0.001031
109 0.000999
112 0.000956
111 0.000997
112 0.001046
116 0.000998
121 0.000997
132 0.000997
139 0.000998
144 0.000997
150 0.002038
155 0.002043
159 0.002032
162 0.000997
167 0.001962
173 0.000991
173 0.000997
147 0.000998
99 0.000997
57 0.000997
52 0.001995
61 0.000997
72 0.002042
79 0.002028
89 0.0
99 0.002032
107 0.0
105 0.000991
106 0.000997
111 0.000998
118 0.000997
127 0.000997
132 0.000998
136 0.000999
139 0.00103
144 0.000998
151 0.000998
156 0.000997
165 0.000957
173 0.0
173 0.0
148 0.0
102 0.0
58 0.0
51 0.0
60 0.0
71 0.0
80 0.0
96 0.0
105 0.0
110 0.000992
110 0.000997
110 0.000997
114 0.0
119 0.0
127 0.0
138 0.0
144 0.0
148 0.0
153 0.0
157 0.0
160 0.0
166 0.0
173 0.0
176 0.0
154 0.0
108 0.0
70 0.0
58 0.002025
66 0.000997
82 0.000951
89 0.00095
99 0.000966
109 0.0
115 0.0
114 0.0
115 0.002042
119 0.0
126 0.0
133 0.0
140 0.002003
145 0.002045
152 0.0
156 0.0
160 0.0
164 0.002026
170 0.0
153 0.002026
110 0.002021
67 0.001
61 0.000998
70 0.000949
82 0.002995
93 0.002992
107 0.0
115 0.0
118 0.0
118 0.001995
118 0.0
121 0.002005
127 0.002026
137 0.0
143 0.0
147 0.0
153 0.002033
159 0.002026
166 0.001
170 0.000993
159 0.0
117 0.003027
64 0.0
61 0.002027
72 0.002025
89 0.0
100 0.000969
112 0.000964
120 0.002028
122 0.002029
120 0.0
120 0.0
124 0.0
130 0.002026
142 0.000992
147 0.002987
152 0.002974
159 0.0
165 0.000964
170 0.0
171 0.00204
141 0.002031
84 0.0
66 0.0
66 0.0
78 0.001992
99 0.0
112 0.001999
122 0.002029
125 0.002026
124 0.0
123 0.0
125 0.000988
130 0.002018
137 0.002021
146 0.0
152 0.0
156 0.0
164 0.0
170 0.0
176 0.002027
179 0.002025
150 0.0
105 0.0
75 0.0
69 0.00203
80 0.002058
98 0.001985
111 0.0
124 0.0
129 0.0
127 0.0
123 0.001994
123 0.002959
131 0.000951
138 0.002995
144 0.002981
151 0.002993
156 0.002993
163 0.001996
168 0.0
174 0.000968
170 0.001013
131 0.0
91 0.002026
74 0.002028
79 0.0
93 0.0
107 0.001996
120 0.002992
130 0.002991
132 0.003004
130 0.001988
127 0.002003
133 0.00199
139 0.001994
146 0.002988
152 0.003034
159 0.003004
163 0.002044
168 0.00198
174 0.002987
178 0.003998
174 0.001991
136 0.001991
92 0.001994
66 0.001996
71 0.002
83 0.002992
92 0.002992
105 0.002012
113 0.001995
117 0.002996
117 0.002962
115 0.002988
118 0.001998
123 0.002031
130 0.002032
142 0.002013
149 0.002023
155 0.002948
159 0.003027
162 0.001996
166 0.001991
169 0.001997
174 0.002992
173 0.004042
130 0.00198
84 0.002004
61 0.002988
64 0.001984
75 0.002022
83 0.002005
91 0.002992
101 0.002993
107 0.001998
107 0.002992
106 0.002997
108 0.00399
114 0.004025
122 0.0
129 0.003011
139 0.002036
147 0.002989
150 0.001996
153 0.004023
156 0.005024
161 0.001983
165 0.002987
168 0.002998
154 0.003984
112 0.004033
66 0.001999
58 0.001994
72 0.001993
80 0.00198
89 0.001977
98 0.003996
104 0.003984
105 0.001993
105 0.001994
105 0.001997
111 0.00399
117 0.00399
127 0.003004
133 0.002992
143 0.002985
148 0.002956
151 0.002985
154 0.004987
158 0.004986
161 0.002017
165 0.001954
170 0.001994
163 0.004986
126 0.005029
74 0.002016
61 0.002946
72 0.003004
82 0.002942
93 0.002995
103 0.00502
109 0.004987
108 0.002983
106 0.003017
105 0.00298
108 0.00505
114 0.005036
123 0.00301
129 0.003011
137 0.002991
141 0.002994
145 0.004003
150 0.006015
154 0.006015
157 0.002991
137 0.002987
99 0.002992
70 0.006017
63 0.005984
75 0.002953
88 0.003006
110 0.002972
116 0.003003
118 0.002983
115 0.004986
112 0.004997
116 0.003988
122 0.003946
128 0.003974
136 0.00595
142 0.005941
147 0.003971
152 0.003979
156 0.00594
163 0.003982
167 0.002998
168 0.003975
145 0.005987
100 0.005984
62 0.002989
59 0.003025
67 0.002953
77 0.005998
85 0.005973
97 0.003981
106 0.005975
108 0.00399
107 0.003972
108 0.003993
113 0.005973
121 0.006031
130 0.004021
138 0.003969
145 0.003981
150 0.006019
152 0.006027
158 0.003987
165 0.006014
170 0.003989
155 0.003988
114 0.004961
78 0.007033
61 0.006982
66 0.003993
76 0.003982
82 0.003991
89 0.006982
101 0.006981
111 0.003988
113 0.007012
112 0.004992
116 0.003981
122 0.003976
129 0.007035
137 0.007013
147 0.004941
153 0.003988
157 0.003975
162 0.006989
167 0.006225
171 0.003982
176 0.007978
179 0.004933
182 0.004945
187 0.004969
192 0.00698
189 0.006958
141 0.005006
95 0.004985
72 0.004987
70 0.008107
83 0.007965
92 0.004981
102 0.00696
113 0.004988
117 0.004988
117 0.004992
115 0.006981
117 0.007014
124 0.00599
130 0.00502
137 0.005019
145 0.007979
151 0.007947
151 0.023935
161 0.0
165 0.005957
167 0.005005
171 0.004972
175 0.007012
175 0.006984
150 0.007983
98 0.004975
79 0.004986
78 0.005974
88 0.007983
100 0.007979
118 0.008009
127 0.007976
126 0.004994
122 0.005021
121 0.006004
125 0.00791
131 0.006981
139 0.005988
145 0.005938
152 0.005969
158 0.00795
162 0.007978
167 0.007957
171 0.007914
175 0.005951
178 0.00597
165 0.004986
109 0.007948
77 0.007949
68 0.005014
73 0.005977
84 0.005967
92 0.007948
102 0.007979
116 0.006968
117 0.007148
117 0.006982
117 0.006017
120 0.005992
128 0.007036
137 0.006975
143 0.005928
149 0.005969
155 0.005987
160 0.007979
163 0.007005
169 0.007032
173 0.007022
178 0.006981
177 0.006964
147 0.006946
91 0.007009
68 0.006949
67 0.006937
75 0.005945
84 0.005979
93 0.006018
103 0.005982
114 0.006953
115 0.006003
115 0.00602
118 0.005968
123 0.005985
131 0.005968
139 0.007014
148 0.005968
154 0.005963
159 0.005953
162 0.005917
167 0.006018
171 0.007034
175 0.007019
181 0.006975
183 0.006973
178 0.006971
129 0.00698
90 0.006939
75 0.006016
81 0.005986
91 0.005985
99 0.005986
107 0.006014
121 0.006016
124 0.005988
124 0.005981
126 0.00598
128 0.006003
134 0.005979
142 0.006027
150 0.006071
156 0.005976
163 0.005959
173 0.005985
174 0.006046
169 0.005989
176 0.005986
181 0.006037
185 0.005979
192 0.005952
195 0.006992
183 0.006036
144 0.005996
98 0.006029
83 0.005988
84 0.006014
96 0.006013
113 0.005941
122 0.004987
128 0.005003
131 0.005983
130 0.005014
133 0.00499
136 0.004958
138 0.006025
146 0.006014
154 0.005964
159 0.005988
163 0.005019
169 0.005983
175 0.005013
181 0.004953
180 0.00501
179 0.004987
184 0.004979
189 0.005993
170 0.006047
114 0.005961
89 0.006016
85 0.004986
95 0.005028
108 0.005972
116 0.006033
127 0.006033
130 0.004998
129 0.004967
129 0.005997
131 0.004988
134 0.003986
144 0.004987
152 0.004953
158 0.005035
164 0.005016
170 0.004982
174 0.004993
177 0.004985
179 0.00499
180 0.004954
161 0.004953
121 0.004988
92 0.005024
86 0.005052
95 0.005001
107 0.00499
118 0.006029
134 0.003988
136 0.004003
134 0.003991
132 0.003987
133 0.003988
136 0.004986
142 0.004025
148 0.004025
154 0.00395
160 0.003973
164 0.003989
169 0.003955
173 0.004954
151 0.003943
113 0.004954
83 0.004997
82 0.004037
92 0.003991
104 0.003991
116 0.003927
125 0.004031
130 0.004037
129 0.00402
127 0.003968
130 0.004
135 0.003946
142 0.004021
149 0.00402
156 0.004022
165 0.003997
168 0.002992
159 0.003996
164 0.003048
162 0.003953
124 0.004037
89 0.003972
73 0.003991
79 0.00399
89 0.003985
96 0.003987
103 0.003003
113 0.003049
118 0.003031
118 0.003023
116 0.002992
121 0.00399
129 0.003026
138 0.003938
145 0.00399
146 0.003031
153 0.003989
160 0.004024
167 0.002992
170 0.003045
167 0.003047
139 0.003039
102 0.002992
76 0.003024
76 0.002993
84 0.003001
94 0.002972
103 0.002011
113 0.002993
118 0.004028
121 0.001989
121 0.002004
123 0.001995
129 0.003001
137 0.002996
147 0.002989
154 0.003025
161 0.002988
170 0.003024
172 0.002992
174 0.003025
178 0.002995
184 0.001983
188 0.002029
186 0.002028
155 0.001994
114 0.00201
84 0.001996
85 0.001995
95 0.002009
106 0.00203
114 0.001998
122 0.002992
127 0.002993
128 0.001996
127 0.001992
130 0.002032
137 0.002026
143 0.002007
151 0.001994
158 0.001991
163 0.001992
171 0.002067
173 0.001995
175 0.002043
178 0.002002
180 0.000998
184 0.002029
190 0.001995
191 0.001995
173 0.001996
131 0.001996
90 0.001989
85 0.002018
97 0.001995
104 0.001992
112 0.002027
121 0.00104
126 0.001996
127 0.000997
127 0.000998
129 0.001997
133 0.002024
141 0.000998
149 0.002006
151 0.002984
157 0.000996
165 0.000968
170 0.000998
171 0.001996
171 0.00199
173 0.00204
177 0.000999
182 0.000998
187 0.000998
185 0.001044
139 0.001961
102 0.001996
85 0.000997
94 0.001995
106 0.001987
113 0.001989
111 0.002048
119 0.002032
124 0.000998
125 0.001976
128 0.002016
132 0.001001
135 0.001001
140 0.001011
151 0.001
158 0.001028
160 0.000997
163 0.001997
167 0.000997
172 0.001998
175 0.00202
178 0.0
182 0.0
185 0.001993
192 0.0
195 0.000997
142 0.000998
103 0.000999
86 0.000997
89 0.000998
99 0.0
110 0.000998
119 0.000999
127 0.000997
131 0.000997
129 0.000997
125 0.000966
124 0.0
130 0.0
134 0.0
140 0.0
147 0.0
153 0.0
160 0.0
165 0.0
167 0.0
169 0.000998
171 0.0
176 0.0
179 0.0
179 0.0
148 0.0
109 0.0
88 0.0
86 0.0
96 0.0
113 0.0
124 0.0
132 0.0
134 0.0
132 0.0
126 0.0
128 0.0
135 0.003027
139 0.00299
143 0.0
150 0.00095
153 0.0
156 0.002028
158 0.002994
164 0.0
169 0.0
173 0.0
175 0.00299
126 0.0
88 0.001978
70 0.002028
74 0.0
86 0.0
95 0.0
103 0.002032
112 0.002044
117 0.001001
117 0.0
116 0.0
118 0.002962
125 0.0
133 0.002991
140 0.003988
148 0.0
153 0.0
157 0.0
160 0.003041
163 0.003022
167 0.0
172 0.0
176 0.0
164 0.00199
93 0.0
66 0.002028
61 0.002032
73 0.0
82 0.0
87 0.000965
96 0.003008
104 0.003027
108 0.0
108 0.0
110 0.0
112 0.003
123 0.000998
130 0.003025
138 0.003024
147 0.0
152 0.00095
157 0.0
161 0.002027
163 0.002027
168 0.001017
173 0.000993
173 0.001007
152 0.003017
83 0.0
64 0.003024
66 0.002992
80 0.0
88 0.0
96 0.0
104 0.00298
111 0.003
113 0.0
112 0.0
113 0.000995
117 0.002005
128 0.001015
136 0.000996
143 0.002033
148 0.002027
153 0.0
158 0.0
160 0.001019
163 0.002996
167 0.003024
171 0.0
163 0.0
129 0.0
75 0.0
71 0.0
80 0.002027
92 0.003025
107 0.0
116 0.00096
120 0.000966
120 0.003027
118 0.002028
118 0.0
123 0.0
130 0.0
141 0.0
147 0.0
152 0.002027
155 0.003024
160 0.0
163 0.0
168 0.0
172 0.002025
171 0.002993
128 0.0
84 0.0
61 0.0
65 0.0
74 0.0
80 0.003029
89 0.003007
101 0.001983
104 0.001994
105 0.001993
105 0.003039
106 0.002973
112 0.00298
120 0.001015
127 0.002972
136 0.002981
140 0.001995
145 0.002958
148 0.002992
152 0.002993
157 0.00299
161 0.002975
150 0.003008
110 0.002975
59 0.001993
45 0.001
48 0.002988
62 0.002986
68 0.002993
76 0.004024
87 0.004022
92 0.002991
92 0.003
93 0.002995
96 0.002993
101 0.002991
112 0.002996
120 0.002013
126 0.00199
136 0.001998
141 0.001985
145 0.004021
148 0.004024
152 0.001998
157 0.001995
160 0.001997
141 0.00402
99 0.004957
54 0.002991
46 0.002992
55 0.002989
69 0.00299
76 0.002992
85 0.003041
93 0.003989
96 0.004023
96 0.002023
97 0.001975
101 0.002027
107 0.003991
115 0.00399
124 0.002995
130 0.002
139 0.001948
142 0.001995
145 0.001995
147 0.003988
151 0.003992
156 0.002003
145 0.002993
110 0.002994
75 0.003992
59 0.004984
66 0.001996
79 0.001999
96 0.002005
106 0.001988
110 0.001998
110 0.005021
110 0.004986
110 0.002002
116 0.001994
123 0.00299
131 0.003984
137 0.005007
146 0.001988
151 0.001978
156 0.001959
158 0.003017
161 0.002983
166 0.00502
171 0.005019
172 0.002989
150 0.002992
103 0.00299
69 0.004987
57 0.006001
67 0.003022
74 0.003035
84 0.002995
95 0.002999
102 0.003004
106 0.004978
106 0.00503
107 0.002992
113 0.002022
119 0.002024
126 0.003994
134 0.005989
143 0.002974
148 0.003009
155 0.003028
158 0.002994
162 0.002028
164 0.004987
168 0.004987
175 0.002997
174 0.002992
146 0.001995
101 0.005983
70 0.005954
62 0.002991
71 0.002998
81 0.002973
90 0.002956
99 0.002997
108 0.006003
109 0.005987
106 0.002992
106 0.002993
109 0.003
114 0.005984
122 0.005987
131 0.00598
143 0.003991
149 0.006016
152 0.002995
153 0.002991
156 0.003028
160 0.005984
164 0.005984
163 0.002987
166 0.003981
173 0.004001
179 0.007014
185 0.006979
144 0.004003
83 0.005984
60 0.004987
64 0.003993
72 0.005984
82 0.002992
87 0.006981
102 0.00399
109 0.003968
111 0.003993
107 0.006981
105 0.006942
112 0.003959
122 0.007017
128 0.003985
134 0.003992
141 0.004987
148 0.007016
154 0.006981
162 0.003989
159 0.003988
157 0.004021
161 0.007011
167 0.006989
171 0.003984
174 0.006984
139 0.004026
99 0.004989
70 0.003986
59 0.006975
66 0.006994
82 0.003991
89 0.003994
96 0.005008
103 0.006952
107 0.007973
108 0.004943
113 0.007979
119 0.004945
123 0.004965
127 0.004992
134 0.008012
141 0.008016
147 0.004978
150 0.003976
153 0.004978
160 0.007976
164 0.007977
167 0.005019
169 0.007932
174 0.004996
166 0.00498
132 0.004988
96 0.007978
75 0.008013
72 0.004991
83 0.005031
95 0.005021
109 0.007979
116 0.007983
119 0.006984
117 0.007984
114 0.007979
113 0.005018
118 0.005001
124 0.004986
132 0.007986
137 0.007979
145 0.004997
152 0.004987
155 0.004982
157 0.007015
162 0.006985
156 0.007975
124 0.006984
88 0.005986
70 0.005984
70 0.005999
86 0.007984
100 0.006994
115 0.004965
126 0.002927
130 0.004996
127 0.007983
124 0.006988
128 0.006976
134 0.006974
141 0.005975
146 0.00598
152 0.00598
157 0.006981
162 0.006986
166 0.005024
170 0.004995
160 0.00502
112 0.007977
89 0.007978
69 0.006981
79 0.006981
89 0.005976
101 0.006984
111 0.006002
117 0.007012
117 0.00698
115 0.004975
115 0.004977
120 0.005965
127 0.006966
133 0.006981
143 0.007011
149 0.007032
154 0.005982
160 0.005986
164 0.005982
152 0.006017
112 0.005982
66 0.006021
55 0.006966
58 0.006977
71 0.006986
79 0.006997
95 0.006979
104 0.006991
108 0.005911
108 0.005991
108 0.005944
112 0.006979
117 0.006978
125 0.005027
135 0.005969
141 0.005973
146 0.006014
151 0.005971
159 0.006016
163 0.007006
144 0.005944
100 0.005959
65 0.006019
52 0.006021
54 0.00599
64 0.00498
71 0.006974
79 0.005984
90 0.005985
100 0.005974
105 0.005982
105 0.006026
108 0.007012
116 0.006946
125 0.005983
132 0.005978
141 0.005989
148 0.004957
154 0.005015
159 0.004997
163 0.004982
166 0.00502
170 0.00599
173 0.004999
175 0.006038
181 0.005991
185 0.005952
181 0.00497
142 0.005981
94 0.004955
60 0.004985
60 0.004987
68 0.004989
73 0.005018
82 0.005985
91 0.006013
101 0.005996
105 0.006046
105 0.005979
108 0.004987
114 0.005042
120 0.005007
131 0.004988
138 0.00498
145 0.004994
150 0.003986
158 0.004994
162 0.004974
167 0.00502
171 0.006005
174 0.004954
176 0.00499
178 0.004975
181 0.004977
188 0.00498
187 0.004995
153 0.004987
105 0.003987
64 0.003976
66 0.003991
74 0.004027
80 0.003955
85 0.004995
94 0.004999
103 0.004987
108 0.005072
109 0.004987
110 0.004978
115 0.004965
121 0.00498
134 0.004988
141 0.004993
147 0.003989
155 0.00399
160 0.003991
164 0.00399
167 0.00399
171 0.00399
175 0.003989
177 0.003958
180 0.004012
184 0.004001
190 0.003988
194 0.002994
185 0.003999
126 0.003958
86 0.002996
68 0.003957
71 0.003948
81 0.003999
88 0.003986
95 0.004047
104 0.003958
111 0.003968
114 0.003955
114 0.003992
116 0.003995
121 0.002994
130 0.00396
138 0.002974
145 0.00301
151 0.002992
156 0.002998
162 0.003972
165 0.003953
167 0.00394
169 0.003957
173 0.003959
176 0.003989
180 0.003991
185 0.003991
186 0.003998
161 0.003955
116 0.002942
81 0.002988
74 0.00295
83 0.002994
94 0.002976
105 0.00299
119 0.003025
123 0.004045
121 0.002974
118 0.00404
120 0.002975
125 0.002998
130 0.002996
139 0.003952
147 0.002959
153 0.002993
159 0.002991
164 0.001996
169 0.003006
170 0.003146
172 0.002992
178 0.002992
181 0.002999
184 0.002982
170 0.002975
126 0.002988
75 0.00199
63 0.002985
67 0.001963
79 0.002025
92 0.001996
101 0.002992
108 0.002992
113 0.001994
113 0.002984
111 0.002971
115 0.002992
121 0.002948
129 0.002994
137 0.002005
145 0.002026
151 0.001996
159 0.001995
163 0.001995
166 0.002039
170 0.001999
171 0.002039
174 0.001999
179 0.001994
183 0.002029
166 0.002993
119 0.002986
78 0.001966
60 0.002006
68 0.00198
79 0.002006
86 0.002043
95 0.002015
105 0.001997
110 0.001981
110 0.001983
110 0.002032
110 0.001996
118 0.001995
125 0.001995
132 0.000988
143 0.002025
149 0.002028
156 0.001995
160 0.001996
164 0.001996
167 0.001986
169 0.001983
170 0.001968
174 0.002019
181 0.001973
180 0.001994
151 0.002006
76 0.000998
58 0.002022
59 0.002026
68 0.000997
80 0.000951
85 0.001992
92 0.001989
98 0.002024
101 0.00203
101 0.001999
101 0.001998
102 0.00095
112 0.001042
120 0.000999
125 0.000997
129 0.001003
138 0.001
144 0.002029
149 0.001993
153 0.002056
157 0.001974
160 0.001994
165 0.000998
171 0.000996
172 0.001039
135 0.0
88 0.0
61 0.001028
59 0.0
70 0.0
84 0.0
95 0.0
104 0.0
111 0.0
111 0.0
108 0.0
109 0.000965
112 0.000997
119 0.000998
126 0.001002
134 0.001002
140 0.000976
146 0.0
151 0.0
154 0.0
158 0.0
162 0.0
165 0.0
169 0.0
144 0.0
99 0.0
68 0.0
58 0.0
70 0.001006
85 0.001004
98 0.0
108 0.0
119 0.0
118 0.0
116 0.0
116 0.0
122 0.0
130 0.0
136 0.0
144 0.0
151 0.0
156 0.0
160 0.0
164 0.0
167 0.0
170 0.0
174 0.001013
180 0.0
164 0.000998
100 0.0
66 0.0
55 0.0
62 0.003002
74 0.003037
89 0.0
97 0.0
106 0.0
111 0.003041
112 0.002988
113 0.003025
115 0.00299
123 0.0
131 0.0
137 0.0
144 0.002998
150 0.002991
159 0.0
162 0.0
165 0.001025
168 0.003993
172 0.002991
179 0.002032
180 0.002025
142 0.0
94 0.0
65 0.0
59 0.003023
69 0.003001
85 0.0
95 0.0
105 0.0
113 0.002991
117 0.002991
117 0.005024
117 0.003021
123 0.0
130 0.000999
137 0.000957
146 0.004015
153 0.002992
160 0.001022
166 0.001022
170 0.001012
173 0.002998
175 0.002997
179 0.003008
184 0.001997
189 0.001013
177 0.0
133 0.0
90 0.001994
70 0.002995
74 0.0
88 0.0
101 0.0
111 0.00299
120 0.002994
125 0.003043
124 0.003042
122 0.0
124 0.0
129 0.0
137 0.003062
143 0.00303
152 0.0
158 0.000991
163 0.000998
165 0.002978
169 0.002992
174 0.003026
179 0.002991
183 0.001013
176 0.0
137 0.0
94 0.0
71 0.002994
71 0.002991
89 0.0
103 0.000976
115 0.0
126 0.002992
130 0.001018
127 0.002029
125 0.001997
129 0.0
135 0.0
142 0.0
149 0.003
156 0.003003
162 0.0
168 0.000943
172 0.0
176 0.002995
179 0.000987
181 0.003025
184 0.002988
189 0.0
174 0.001
124 0.0
80 0.002994
60 0.003001
64 0.0
78 0.0
90 0.0
99 0.002992
113 0.0
115 0.003025
115 0.00299
114 0.001009
115 0.000957
121 0.000966
129 0.002992
137 0.002004
147 0.0
153 0.000966
159 0.001009
163 0.002992
168 0.0
171 0.003001
173 0.002999
178 0.000988
182 0.0
175 0.00299
134 0.003973
86 0.003965
56 0.0
60 0.001008
73 0.002034
85 0.004002
102 0.00299
111 0.00299
