88 0.027933
88 0.003978
92 0.003959
97 0.003958
100 0.003953
102 0.00199
105 0.0
105 0.0
95 0.0
84 0.0
76 0.0
79 0.0
82 0.0
88 0.0
90 0.000967
92 0.001005
96 0.000971
97 0.000997
90 0.000998
72 0.000903
69 0.000997
0 0.001991
0 0.001991
60 0.001964
64 0.001995
64 0.001994
69 0.001987
75 0.002992
74 0.003992
46 0.00399
37 0.006017
41 0.006023
50 0.005984
56 0.006032
58 0.006983
61 0.005985
62 0.007964
68 0.006996
71 0.007029
61 0.005984
39 0.00404
41 0.005021
47 0.003983
58 0.003025
62 0.001995
64 0.002071
67 0.001044
72 0.000993
80 0.000993
73 0.001006
55 0.000997
46 0.00092
53 0.00099
61 0.000997
73 0.000998
78 0.000998
83 0.00094
89 0.001963
93 0.001989
101 0.001967
92 0.001975
69 0.002007
71 0.003959
77 0.003959
90 0.00402
97 0.003989
101 0.003989
105 0.00403
107 0.003988
115 0.004956
109 0.004986
88 0.004987
83 0.004987
67 0.005967
77 0.00697
93 0.007013
96 0.007017
100 0.006967
108 0.007015
112 0.007979
118 0.005984
98 0.004987
73 0.00399
65 0.003995
81 0.002992
93 0.002996
104 0.003039
104 0.003
110 0.002992
116 0.00399
128 0.002991
112 0.001999
74 0.0
69 0.002006
76 0.002025
92 0.002071
105 0.001994
114 0.002005
120 0.003995
125 0.003987
135 0.003955
129 0.004953
101 0.004956
96 0.004954
92 0.004953
80 0.004986
71 0.004983
57 0.004945
98 0.005984
129 0.005952
183 0.005953
180 0.006982
174 0.00698
130 0.00698
90 0.006948
74 0.006979
95 0.00696
108 0.005982
96 0.007012
88 0.006944
84 0.006984
105 0.007014
118 0.005984
77 0.006021
57 0.004949
40 0.004025
48 0.002029
68 0.001995
73 0.001995
83 0.000997
94 0.002042
112 0.000996
120 0.001994
101 0.0
82 0.000997
85 0.001021
92 0.000998
115 0.0
124 0.0
132 0.0
141 0.0
156 0.0
162 0.0
172 0.0
164 0.0
121 0.000998
111 0.003012
114 0.002992
127 0.004965
135 0.005984
134 0.006986
137 0.006982
145 0.007027
154 0.007
155 0.006981
130 0.007034
99 0.00603
101 0.005993
114 0.005017
131 0.005978
139 0.006032
145 0.006035
154 0.006028
159 0.005983
171 0.004042
147 0.001085
121 0.002043
105 0.000966
115 0.000999
125 0.001026
142 0.000984
148 0.000997
152 0.0
159 0.000997
163 0.000861
172 0.000998
129 0.00108
115 0.000995
112 0.000998
125 0.000998
144 0.001995
160 0.002995
161 0.004034
167 0.004024
176 0.004971
184 0.005969
183 0.006016
140 0.006952
128 0.00602
132 0.005979
140 0.00695
154 0.006994
163 0.006979
168 0.007128
172 0.006018
182 0.005984
189 0.005988
184 0.005017
152 0.004036
137 0.003976
148 0.003005
162 0.002982
176 0.002047
182 0.003023
188 0.000984
191 0.002031
201 0.0
204 0.0
191 0.0
159 0.0
146 0.0
157 0.0
168 0.0
182 0.000998
186 0.002994
188 0.00306
191 0.004998
201 0.004987
205 0.004986
173 0.004988
150 0.006981
152 0.006981
165 0.007009
176 0.006034
189 0.005985
191 0.006016
189 0.006015
195 0.00598
204 0.005986
207 0.006983
150 0.00599
127 0.004023
127 0.003989
149 0.004039
156 0.004206
169 0.004015
171 0.002026
180 0.003026
189 0.003039
197 0.003027
158 0.003051
108 0.002046
103 0.001001
119 0.000997
140 0.001011
146 0.002007
154 0.0
161 0.001995
168 0.001966
179 0.003041
160 0.002962
99 0.002992
88 0.002994
93 0.002994
114 0.004044
129 0.005064
137 0.004988
140 0.005017
144 0.006016
158 0.006953
159 0.006919
125 0.00702
80 0.00694
80 0.006975
92 0.006989
105 0.007979
121 0.007946
129 0.00502
132 0.005042
145 0.00404
155 0.00299
155 0.004019
106 0.003052
78 0.004021
85 0.003989
96 0.002041
115 0.000984
126 0.001004
130 0.001002
141 0.001012
151 0.000997
158 0.000998
151 0.000998
115 0.000998
83 0.000999
91 0.001006
103 0.000998
125 0.000997
127 0.002036
125 0.00194
98 0.001961
75 0.001994
50 0.001917
34 0.002039
0 0.004018
0 0.003991
0 0.005043
0 0.004958
0 0.005019
0 0.004987
0 0.005992
6 0.006037
10 0.005984
31 0.006035
19 0.005984
0 0.005974
0 0.00603
0 0.005984
0 0.006988
12 0.007995
24 0.006961
32 0.007983
40 0.007953
51 0.006985
71 0.006981
61 0.006922
13 0.007035
0 0.00712
66 0.007031
79 0.007979
85 0.007015
92 0.007031
96 0.005983
104 0.006982
114 0.005032
124 0.004024
127 0.003042
105 0.002998
99 0.001995
107 0.00104
119 0.001054
123 0.000998
128 0.001044
133 0.000995
139 0.000997
145 0.0
151 0.0
150 0.000997
130 0.0
119 0.000997
126 0.000998
134 0.002021
146 0.000998
150 0.000998
153 0.003027
156 0.005992
160 0.006023
166 0.006084
162 0.005962
138 0.005986
133 0.006984
133 0.007979
144 0.006915
152 0.007981
161 0.007159
161 0.007978
168 0.007049
171 0.007028
176 0.007022
180 0.007035
164 0.007019
141 0.005983
147 0.005981
151 0.005976
164 0.006034
166 0.006019
168 0.006015
170 0.007138
193 0.006038
200 0.007016
202 0.005984
182 0.006038
158 0.00403
162 0.001998
167 0.00203
183 0.001027
190 0.002053
193 0.001
197 0.0
196 0.0
206 0.000998
212 0.000997
201 0.000997
172 0.001995
172 0.002976
179 0.002945
192 0.004024
197 0.004987
197 0.005979
198 0.006947
197 0.006981
200 0.0071
206 0.005023
185 0.003986
170 0.005018
163 0.00402
166 0.004986
176 0.004023
185 0.004034
184 0.004035
188 0.004023
190 0.004027
195 0.004039
200 0.004023
180 0.003062
159 0.003035
160 0.003027
169 0.003035
180 0.002041
187 0.001
197 0.001987
205 0.001081
207 0.000997
215 0.000954
207 0.000997
177 0.000997
166 0.000831
167 0.000969
176 0.000998
252 0.000999
255 0.000998
198 0.001022
204 0.002043
209 0.001995
216 0.002002
199 0.001962
165 0.002039
161 0.002006
165 0.001995
174 0.003996
184 0.004043
184 0.004039
187 0.005017
191 0.004971
199 0.005029
196 0.005017
170 0.004968
152 0.005975
150 0.007012
158 0.007011
169 0.006981
173 0.007012
176 0.008015
179 0.006981
184 0.006217
190 0.006014
193 0.005024
171 0.005004
146 0.004043
143 0.004034
151 0.004038
166 0.004038
172 0.003037
172 0.002998
173 0.002991
180 0.001047
184 0.001038
184 0.000997
162 0.001004
139 0.0
137 0.0
150 0.0
157 0.0
163 0.001004
163 0.000952
165 0.000995
167 0.001004
173 0.000998
172 0.001001
135 0.001951
119 0.003026
118 0.001995
132 0.001963
143 0.002958
150 0.002994
153 0.002985
154 0.003031
159 0.002974
164 0.002945
128 0.003046
89 0.003011
80 0.002946
92 0.003027
110 0.003007
120 0.003001
119 0.004036
122 0.003994
127 0.004019
137 0.003985
142 0.004003
97 0.00399
70 0.00399
61 0.004982
79 0.005966
84 0.005981
100 0.007084
103 0.006007
104 0.006023
114 0.005954
124 0.00402
126 0.004035
69 0.00399
53 0.004987
62 0.004036
72 0.004987
89 0.004023
97 0.004
102 0.003042
107 0.002045
115 0.00199
125 0.001062
112 0.001001
62 0.000988
51 0.001021
60 0.0
81 0.0
92 0.000998
101 0.0
105 0.000998
105 0.000997
118 0.001036
125 0.001037
108 0.000997
58 0.000997
56 0.000997
64 0.001001
80 0.001006
95 0.000998
99 0.001995
97 0.00199
106 0.001994
117 0.002943
119 0.002991
97 0.003022
69 0.002945
53 0.003039
70 0.002932
81 0.002961
98 0.00398
102 0.003991
99 0.00402
110 0.003988
115 0.003843
123 0.005984
72 0.00598
51 0.005977
46 0.005983
58 0.007016
72 0.00703
90 0.006953
92 0.006981
99 0.006981
108 0.007017
114 0.007043
124 0.006984
102 0.006958
46 0.00694
34 0.005987
45 0.00502
68 0.004024
83 0.003989
85 0.003977
93 0.003056
101 0.003023
107 0.00304
122 0.002009
100 0.00199
46 0.002026
33 0.002971
27 0.000988
47 0.000997
68 0.0
76 0.0
79 0.001979
87 0.003003
105 0.004028
119 0.004027
119 0.003978
62 0.004994
17 0.004987
15 0.00502
46 0.004985
70 0.005024
76 0.006038
80 0.00598
91 0.006017
108 0.005968
130 0.006032
135 0.006032
69 0.005988
28 0.005984
19 0.006031
44 0.005967
61 0.007003
78 0.007013
90 0.007015
97 0.007014
108 0.006951
128 0.005984
138 0.005984
124 0.005973
72 0.005984
15 0.00597
20 0.004026
37 0.005018
68 0.004031
77 0.004979
92 0.003026
102 0.002995
108 0.002989
131 0.001028
147 0.0
134 0.000999
54 0.001996
24 0.001855
29 0.002028
59 0.001962
86 0.00296
90 0.003994
98 0.002995
116 0.004979
127 0.00599
147 0.006031
166 0.005976
146 0.006017
64 0.006985
39 0.006977
42 0.007979
72 0.005932
93 0.006966
110 0.00597
110 0.006984
123 0.006031
137 0.005981
145 0.005989
165 0.005017
158 0.003004
92 0.000972
62 0.000997
64 0.0
75 0.000998
110 0.001016
121 0.000998
119 0.000953
133 0.000959
141 0.001076
158 0.000955
175 0.001996
166 0.001985
86 0.002992
56 0.00304
59 0.003043
92 0.003006
113 0.003025
126 0.00296
129 0.003053
139 0.003989
155 0.004002
163 0.003999
180 0.004017
114 0.003959
61 0.00403
37 0.003977
49 0.003965
76 0.002996
98 0.00396
109 0.004988
118 0.004988
127 0.005985
137 0.005984
156 0.006017
171 0.005979
131 0.006017
44 0.005919
33 0.005983
46 0.006016
78 0.006979
87 0.006928
103 0.006023
111 0.005024
124 0.004025
139 0.004002
155 0.004002
174 0.004021
164 0.004977
91 0.004021
39 0.005026
41 0.003989
58 0.002992
96 0.003005
108 0.002949
116 0.002992
122 0.002007
131 0.003007
148 0.000972
173 0.0
179 0.0
123 0.0
70 0.000962
39 0.0
52 0.001996
75 0.002025
105 0.001964
117 0.002038
118 0.002059
124 0.001995
137 0.001994
152 0.002028
176 0.003953
181 0.005024
100 0.005004
48 0.005027
46 0.00503
60 0.004988
89 0.004983
109 0.005022
116 0.004963
124 0.004992
135 0.004972
154 0.006035
164 0.007023
180 0.006982
135 0.00703
51 0.007014
39 0.007015
58 0.007007
90 0.007028
115 0.007012
123 0.007014
121 0.006968
132 0.005988
146 0.005018
158 0.003989
182 0.00198
158 0.003039
69 0.003039
45 0.002992
54 0.00303
71 0.003001
105 0.002985
117 0.001013
112 0.002982
125 0.002026
136 0.00101
147 0.001002
165 0.000998
128 0.000996
43 0.001029
28 0.000978
44 0.0
71 0.0
96 0.000957
103 0.00102
108 0.003022
123 0.004036
131 0.005017
144 0.006027
148 0.006036
86 0.005987
7 0.005984
0 0.005986
12 0.006022
46 0.005985
57 0.005848
67 0.008001
71 0.005999
81 0.00599
99 0.005984
116 0.006006
118 0.005983
28 0.006015
0 0.006206
0 0.005956
3 0.005974
39 0.002983
55 0.002992
64 0.001967
74 0.001992
91 0.002004
104 0.001996
129 0.002048
100 0.0
34 0.0
0 0.0
61 0.000946
70 0.000966
88 0.000951
92 0.000965
95 0.000998
103 0.000963
109 0.001
121 0.00208
130 0.002022
116 0.002008
72 0.001995
60 0.003014
68 0.003988
86 0.004973
95 0.006016
98 0.006059
102 0.006979
106 0.006954
116 0.007945
128 0.007029
134 0.005981
100 0.005984
67 0.00602
53 0.00495
64 0.003996
77 0.003958
92 0.002048
95 0.001998
101 0.001999
111 0.001995
116 0.001994
127 0.0
128 0.000964
78 0.001001
57 0.002995
55 0.003047
63 0.003026
81 0.002988
92 0.003032
96 0.002945
103 0.00407
112 0.003985
123 0.004022
134 0.005023
134 0.004989
90 0.005037
59 0.005062
60 0.006031
73 0.007026
92 0.007013
86 0.00701
91 0.007047
95 0.007947
109 0.006206
128 0.004989
139 0.004985
154 0.003989
95 0.002949
53 0.00304
39 0.003001
54 0.004003
74 0.002992
94 0.003989
106 0.002011
109 0.002974
120 0.002931
131 0.002984
153 0.001994
174 0.000963
175 0.002013
105 0.000982
68 0.00201
62 0.001023
81 0.0
98 0.000997
113 0.0
111 0.0
120 0.0
130 0.0
145 0.0
159 0.0
179 0.0
162 0.0
94 0.0
74 0.001994
83 0.00285
109 0.002996
121 0.002992
129 0.002991
137 0.00298
145 0.002988
157 0.002992
175 0.004039
184 0.002981
174 0.003008
121 0.002982
67 0.004027
64 0.004022
82 0.003967
105 0.004021
112 0.004026
120 0.004996
128 0.005029
133 0.005017
151 0.004984
164 0.005017
171 0.005986
115 0.007027
74 0.007016
64 0.007958
75 0.006971
85 0.006976
108 0.006981
121 0.00702
129 0.006977
144 0.005984
156 0.006968
177 0.005037
196 0.002983
185 0.002954
106 0.002994
76 0.002993
75 0.003008
100 0.003008
122 0.002044
137 0.001997
143 0.001997
148 0.001013
154 0.001994
170 0.0
182 0.001013
182 0.000999
137 0.001017
84 0.001984
80 0.004037
98 0.00399
123 0.004019
142 0.005
143 0.006015
147 0.007013
160 0.006022
169 0.007022
187 0.005985
147 0.005985
99 0.005982
69 0.004996
79 0.003958
93 0.001959
116 0.001047
127 0.002085
130 0.0
139 0.002012
156 0.000824
166 0.000963
161 0.0
112 0.0
58 0.0
54 0.0
71 0.0
93 0.000997
113 0.000997
121 0.000998
128 0.001995
136 0.001991
152 0.001996
165 0.00204
149 0.001978
74 0.002047
54 0.001997
59 0.00197
86 0.00304
105 0.001995
119 0.001995
121 0.002992
130 0.002958
150 0.004022
161 0.003036
176 0.003001
151 0.003031
77 0.002993
57 0.002983
67 0.002993
90 0.003973
118 0.002992
126 0.00399
135 0.005012
141 0.005032
158 0.005013
180 0.004991
187 0.007031
162 0.005998
90 0.005977
75 0.005006
88 0.004983
117 0.004203
135 0.003989
142 0.003998
143 0.003037
152 0.003003
166 0.002992
175 0.001057
191 0.001995
140 0.002015
100 0.001986
86 0.00103
100 0.001008
129 0.001005
148 0.000992
156 0.000999
158 0.000984
170 0.000982
181 0.00101
197 0.000997
184 0.002004
134 0.004002
86 0.004044
91 0.005028
105 0.005025
134 0.005015
149 0.004987
153 0.007015
160 0.006969
171 0.006998
182 0.006912
194 0.007009
160 0.005001
98 0.006057
78 0.005983
84 0.00603
112 0.004999
129 0.006032
145 0.004998
150 0.003973
153 0.004037
172 0.003992
180 0.003984
180 0.003981
100 0.003992
76 0.004
77 0.004004
91 0.003991
124 0.002991
135 0.003008
142 0.002004
150 0.003029
164 0.003005
177 0.003002
191 0.002035
163 0.002031
95 0.001996
82 0.000999
89 0.001143
117 0.0
142 0.001961
145 0.002994
150 0.002995
160 0.002965
169 0.003977
185 0.004023
183 0.003992
111 0.004023
80 0.002951
86 0.004988
116 0.005035
142 0.005025
146 0.00502
146 0.005034
153 0.005021
165 0.006015
181 0.006969
188 0.006997
144 0.007939
75 0.007987
75 0.007972
87 0.00793
106 0.007972
136 0.007962
137 0.00397
143 0.005014
156 0.003988
172 0.003954
188 0.003951
146 0.003989
103 0.004009
70 0.003025
85 0.003008
101 0.002032
129 0.003003
141 0.002031
145 0.000997
156 0.001983
170 0.00099
184 0.002037
181 0.000969
143 0.0
89 0.000998
87 0.002992
109 0.003008
131 0.00402
152 0.005023
158 0.006028
167 0.005999
184 0.006031
194 0.006016
210 0.005983
196 0.005968
127 0.005986
108 0.006016
117 0.006016
146 0.005955
166 0.006987
167 0.005988
173 0.006037
184 0.004988
196 0.004113
209 0.004989
222 0.004009
181 0.005024
130 0.005032
124 0.004951
140 0.00499
169 0.001969
179 0.003022
184 0.000979
186 0.001995
195 0.000998
208 0.0
215 0.0
190 0.0
126 0.000948
113 0.001001
122 0.000998
152 0.001995
165 0.004034
172 0.003854
177 0.003993
188 0.003977
199 0.004025
207 0.004944
180 0.006003
121 0.005946
98 0.006944
101 0.007977
121 0.006969
137 0.005971
152 0.004988
160 0.003976
162 0.005024
177 0.002972
186 0.004986
195 0.003192
131 0.002988
103 0.002987
94 0.003006
105 0.003005
132 0.003002
148 0.004025
157 0.003023
160 0.003968
171 0.00405
183 0.004021
202 0.003038
193 0.002992
125 0.00103
96 0.0
100 0.001042
124 0.000966
150 0.001001
153 0.000998
157 0.000967
166 0.002992
170 0.003081
187 0.003991
184 0.005974
145 0.005937
96 0.007029
93 0.007028
108 0.006982
139 0.007007
153 0.007016
157 0.005046
159 0.005984
171 0.004021
184 0.006028
199 0.004981
185 0.004986
108 0.005005
83 0.005018
86 0.004987
109 0.002996
126 0.004986
139 0.004021
145 0.002053
152 0.00095
168 0.001023
178 0.001011
186 0.000998
114 0.001071
87 0.000947
69 0.0
83 0.0
106 0.001
128 0.001018
140 0.003023
142 0.002992
156 0.003992
161 0.003991
182 0.003002
180 0.004025
117 0.003989
82 0.004021
85 0.00405
98 0.004033
129 0.003977
142 0.005986
148 0.00603
158 0.006982
163 0.007959
174 0.006981
193 0.006987
187 0.005959
112 0.003987
88 0.004956
93 0.004994
119 0.005019
138 0.004988
150 0.004025
153 0.006069
156 0.004023
166 0.003989
177 0.001995
184 0.003
121 0.001995
86 0.001994
80 0.001017
92 0.0
123 0.0
137 0.001031
143 0.001995
150 0.002021
161 0.002027
182 0.002993
183 0.003954
115 0.004028
74 0.004043
59 0.004987
77 0.00502
100 0.005021
116 0.005948
118 0.006834
124 0.007011
144 0.006966
151 0.006979
154 0.006959
92 0.006871
56 0.006948
43 0.006969
55 0.007979
71 0.007978
99 0.007977
104 0.007977
107 0.007969
121 0.006013
137 0.00798
146 0.005986
81 0.003995
41 0.002988
34 0.004
45 0.002993
77 0.000995
95 0.000967
104 0.000968
112 0.0
124 0.001033
145 0.00104
161 0.000997
109 0.002029
72 0.002025
62 0.002055
73 0.001995
104 0.001049
128 0.001043
135 0.002049
140 0.001987
152 0.001996
164 0.003992
184 0.003991
178 0.004035
110 0.003976
94 0.003972
104 0.00498
140 0.004021
160 0.004961
162 0.004972
164 0.005034
170 0.005021
187 0.005009
204 0.006017
175 0.006025
129 0.006018
115 0.006015
122 0.0059
153 0.006017
168 0.00602
174 0.006983
180 0.007016
190 0.007016
204 0.006998
213 0.007015
159 0.007007
121 0.00698
114 0.006972
127 0.00698
148 0.006017
168 0.005973
177 0.00599
180 0.004988
194 0.005004
208 0.006022
214 0.005032
165 0.005984
127 0.00505
122 0.006036
136 0.006018
157 0.005016
173 0.004987
178 0.002031
179 0.003024
192 0.002034
196 0.003041
211 0.001962
150 0.001046
127 0.001008
124 0.000952
145 0.000965
154 0.0
173 0.001039
178 0.002036
181 0.001997
195 0.003028
208 0.00396
223 0.003991
180 0.00404
145 0.00402
129 0.003987
141 0.004035
159 0.005013
175 0.006982
186 0.006842
184 0.006986
195 0.006966
203 0.007946
217 0.007981
233 0.007014
206 0.007978
146 0.00604
135 0.006016
147 0.004989
169 0.004986
183 0.004982
183 0.003011
188 0.002024
188 0.002026
203 0.001996
217 0.003026
219 0.002049
177 0.003036
138 0.000969
134 0.002992
149 0.002026
162 0.002052
173 0.00103
175 0.0
181 0.0
186 0.0
200 0.0
211 0.0
188 0.0
145 0.000997
108 0.002006
116 0.002967
127 0.002962
147 0.002994
156 0.004973
153 0.00497
160 0.004994
169 0.004933
184 0.00601
197 0.006981
172 0.006981
105 0.006009
84 0.007985
95 0.005944
112 0.00801
133 0.006037
139 0.005034
142 0.003989
153 0.00199
160 0.001997
172 0.000999
191 0.0
163 0.0
93 0.0
79 0.0
83 0.000965
105 0.000997
121 0.0
135 0.000999
141 0.002941
141 0.004004
156 0.004025
172 0.003995
187 0.003981
175 0.004879
133 0.004984
86 0.004976
79 0.004987
93 0.005984
118 0.005983
133 0.005983
136 0.005966
143 0.00602
146 0.007013
160 0.007028
176 0.004999
185 0.004999
125 0.004952
77 0.003989
81 0.003982
98 0.004003
119 0.003994
135 0.003985
139 0.005035
142 0.003041
149 0.003024
170 0.00304
178 0.002992
159 0.003003
110 0.002051
67 0.001995
75 0.000998
91 0.002027
119 0.001966
131 0.0
137 0.0
141 0.0
156 0.002029
164 0.002028
179 0.001977
142 0.001949
70 0.002993
57 0.00399
68 0.004048
96 0.003997
122 0.004021
128 0.004985
135 0.006013
139 0.005979
157 0.00603
173 0.005999
174 0.005982
117 0.006015
61 0.005983
59 0.005985
76 0.007011
90 0.006982
118 0.006967
127 0.005972
129 0.007012
136 0.00402
157 0.00404
167 0.002068
178 0.001028
98 0.0
69 0.0
62 0.0
89 0.0
111 0.0
136 0.0
144 0.0
147 0.001986
159 0.001976
167 0.002009
186 0.001994
187 0.001964
119 0.003001
78 0.002993
77 0.002993
95 0.002934
130 0.002993
146 0.002992
146 0.003024
149 0.003959
153 0.00398
171 0.003973
176 0.005049
148 0.004982
74 0.004907
65 0.005043
76 0.00501
100 0.004991
128 0.004982
137 0.004985
135 0.004987
145 0.004977
153 0.005991
171 0.006019
159 0.005986
86 0.005983
45 0.006019
49 0.005982
67 0.005976
97 0.00699
110 0.006997
110 0.006974
121 0.006964
129 0.006969
143 0.006985
162 0.005984
120 0.004995
38 0.004019
24 0.002963
40 0.003088
70 0.001047
90 0.001998
99 0.0
102 0.00103
116 0.001983
126 0.001991
146 0.001951
137 0.001993
53 0.003032
18 0.003967
20 0.005982
43 0.005984
77 0.006003
84 0.006055
88 0.006033
101 0.006004
106 0.006994
126 0.007
142 0.007978
124 0.006989
40 0.006981
12 0.006983
26 0.00698
46 0.006982
79 0.006163
93 0.007978
101 0.005985
105 0.007977
121 0.006981
136 0.006981
160 0.004987
146 0.004986
59 0.00502
33 0.003959
41 0.003988
74 0.002963
102 0.002012
107 0.001965
109 0.001963
122 0.0
134 0.0
155 0.000944
165 0.000994
122 0.000998
49 0.0
40 0.000998
63 0.00097
95 0.000997
108 0.002052
111 0.003891
115 0.004022
124 0.004023
141 0.003976
158 0.003978
154 0.004034
63 0.003993
31 0.003984
36 0.004056
54 0.004986
91 0.007023
105 0.006035
112 0.006968
117 0.006978
137 0.006985
147 0.006974
163 0.006984
140 0.00698
43 0.005999
19 0.003999
24 0.003993
58 0.004014
88 0.004987
96 0.003959
102 0.00504
113 0.00399
126 0.004958
149 0.004056
164 0.004041
97 0.003004
27 0.001002
27 0.00199
50 0.001021
86 0.000967
100 0.002026
105 0.002029
107 0.002038
124 0.0
143 0.0
159 0.000998
158 0.001074
73 0.001996
38 0.001994
46 0.00195
77 0.00402
99 0.004012
118 0.003987
124 0.004021
131 0.00399
142 0.003921
165 0.004024
186 0.004989
158 0.004986
87 0.003985
54 0.004985
61 0.004991
95 0.004989
124 0.006021
132 0.006016
130 0.006002
137 0.005983
153 0.006016
173 0.006979
172 0.00699
89 0.006961
51 0.006954
47 0.006977
73 0.006978
100 0.006919
116 0.006977
116 0.007955
115 0.004978
128 0.006981
143 0.005011
162 0.00613
114 0.005019
53 0.003989
10 0.002992
27 0.002028
51 0.000998
88 0.0
96 0.0
101 0.0
111 0.0
126 0.000957
146 0.00201
148 0.002028
91 0.002027
28 0.002021
32 0.002995
47 0.002993
88 0.004988
105 0.005019
113 0.005023
123 0.005976
138 0.005979
152 0.005995
165 0.006016
150 0.006015
56 0.005996
27 0.006033
38 0.00601
75 0.005981
91 0.005982
105 0.006018
108 0.006014
113 0.005957
133 0.006978
147 0.006996
126 0.006992
54 0.006948
23 0.006958
26 0.006017
53 0.007952
83 0.006017
102 0.007953
106 0.006022
118 0.007975
131 0.008043
144 0.00798
156 0.006981
102 0.007013
25 0.007013
18 0.006016
32 0.007014
68 0.004988
92 0.00502
98 0.004991
111 0.005003
120 0.004984
145 0.002982
153 0.003119
101 0.002992
27 0.002993
20 0.004037
40 0.003036
72 0.003972
96 0.00101
107 0.00203
116 0.001032
122 0.001031
145 0.000994
156 0.000958
115 0.001039
41 0.0
37 0.000967
57 0.000997
99 0.0
114 0.0
125 0.0
129 0.0
144 0.0
166 0.0
181 0.0
132 0.0
75 0.0
61 0.0
85 0.0
115 0.0
148 0.000998
154 0.000991
160 0.000999
176 0.000997
185 0.00104
200 0.001993
143 0.001968
91 0.002042
89 0.002029
108 0.001882
142 0.001944
166 0.003018
171 0.002992
176 0.005008
194 0.00502
204 0.00502
222 0.004991
151 0.00502
118 0.00502
117 0.005988
135 0.005984
173 0.006021
192 0.006017
191 0.006013
199 0.006002
205 0.005955
223 0.006016
237 0.005978
195 0.005971
136 0.007023
124 0.007016
143 0.007022
175 0.006979
192 0.00703
196 0.007015
201 0.006975
205 0.005991
220 0.006972
234 0.006983
200 0.006888
138 0.00698
117 0.006983
132 0.006989
151 0.006979
184 0.007067
191 0.00698
194 0.005984
201 0.006037
211 0.006983
225 0.003985
227 0.004986
162 0.003995
118 0.005019
115 0.004992
130 0.004985
163 0.004986
182 0.001997
181 0.004004
187 0.000997
201 0.0
210 0.0
225 0.0
214 0.0
137 0.000998
111 0.00105
119 0.001024
148 0.001002
175 0.003002
180 0.00299
182 0.001993
190 0.004021
201 0.00604
218 0.006005
228 0.005986
186 0.006018
122 0.007033
114 0.006982
134 0.006984
164 0.006979
182 0.006844
186 0.006981
183 0.007933
191 0.006973
208 0.00697
217 0.007025
225 0.006997
189 0.00698
128 0.006995
124 0.004036
139 0.004007
170 0.004017
183 0.004987
180 0.001992
181 0.001987
194 0.001995
201 0.001995
216 0.0
195 0.0
131 0.0
106 0.0
116 0.0
135 0.00195
165 0.002992
173 0.004944
174 0.005937
181 0.006959
192 0.006996
203 0.004969
212 0.005004
134 0.003992
95 0.004014
88 0.003997
99 0.004009
131 0.004071
149 0.004986
156 0.002992
157 0.005019
162 0.004058
176 0.003909
192 0.002031
194 0.001995
117 0.001997
72 0.0
78 0.002029
95 0.000949
128 0.002012
136 0.001989
136 0.002049
141 0.002984
149 0.002992
167 0.002992
181 0.004028
138 0.005995
71 0.005034
61 0.005985
75 0.007017
98 0.00701
111 0.006982
113 0.006031
113 0.007939
118 0.005023
136 0.005998
157 0.004985
160 0.005033
81 0.004986
45 0.004988
36 0.001986
63 0.000965
86 0.001994
110 0.000993
114 0.002028
121 0.0
136 0.0
148 0.0
163 0.001023
139 0.000991
85 0.000998
36 0.001995
46 0.002041
66 0.002992
94 0.002992
108 0.003008
108 0.002995
119 0.004998
133 0.006034
148 0.006954
164 0.007002
128 0.007014
72 0.006981
31 0.006015
45 0.002002
61 0.002991
91 0.002007
102 0.0
105 0.002006
114 0.000997
131 0.001954
145 0.001977
168 0.002993
156 0.004054
71 0.005044
41 0.005017
46 0.004989
79 0.005
109 0.004946
114 0.004993
119 0.006983
131 0.005992
138 0.007028
151 0.006014
170 0.003987
167 0.00402
82 0.003088
53 0.003989
55 0.002003
89 0.001967
107 0.001996
124 0.001993
125 0.0
126 0.0
138 0.0
153 0.0
164 0.001048
111 0.000997
67 0.000997
45 0.001926
69 0.003026
90 0.003027
120 0.005011
125 0.005032
126 0.005031
138 0.005022
158 0.005999
168 0.00703
144 0.00698
57 0.005019
37 0.005984
43 0.003989
77 0.002984
98 0.002987
110 0.000995
111 0.0
119 0.0
139 0.0
156 0.00196
148 0.002013
58 0.001996
26 0.001996
23 0.002005
53 0.002007
77 0.002989
98 0.002034
98 0.001996
105 0.002974
118 0.003006
135 0.002992
156 0.001995
94 0.005015
41 0.005011
16 0.00498
43 0.006016
63 0.007031
95 0.006976
103 0.007977
109 0.006996
119 0.005995
133 0.005017
159 0.005006
153 0.004018
98 0.004004
40 0.002992
42 0.004986
68 0.003009
100 0.003999
118 0.001993
125 0.001994
130 0.001995
136 0.001997
156 0.001996
177 0.0
143 0.002023
62 0.0
49 0.001992
64 0.0
98 0.002011
116 0.000963
123 0.001996
124 0.001995
131 0.002987
146 0.005007
166 0.005978
139 0.005984
59 0.006016
42 0.005989
55 0.005041
90 0.006027
109 0.006005
125 0.004973
126 0.007026
136 0.004993
155 0.006981
174 0.006981
145 0.006007
59 0.004987
38 0.000943
46 0.001966
78 0.000965
107 0.0
115 0.0
122 0.001013
126 0.000954
148 0.0
168 0.000993
150 0.0
66 0.0
46 0.000964
53 0.000928
82 0.000998
101 0.001025
120 0.001898
126 0.003997
135 0.004001
157 0.003033
176 0.003992
176 0.00601
107 0.007971
73 0.007978
75 0.007981
95 0.007975
115 0.006982
141 0.005987
151 0.003975
159 0.005983
173 0.002989
190 0.003022
207 0.004004
190 0.002027
122 0.002963
92 0.000946
100 0.002039
122 0.0
154 0.002992
169 0.00204
169 0.002055
174 0.002024
188 0.0
200 0.0
215 0.001996
151 0.001909
108 0.002037
90 0.001996
107 0.001996
140 0.003991
165 0.003891
168 0.004954
173 0.004978
183 0.006897
188 0.006973
203 0.006951
131 0.006963
91 0.006949
86 0.006002
97 0.00697
126 0.006
151 0.005983
155 0.005003
161 0.005995
173 0.006071
183 0.006011
201 0.005004
141 0.001965
96 0.003039
74 0.0
86 0.0
102 0.000998
138 0.000998
148 0.001
153 0.001022
165 0.000997
176 0.000998
201 0.000973
194 0.001996
114 0.002004
75 0.002948
86 0.005018
101 0.004924
135 0.005984
148 0.005922
155 0.006009
164 0.006005
179 0.005984
190 0.005985
206 0.005946
164 0.00597
89 0.005962
83 0.005987
101 0.005986
129 0.006996
150 0.006959
161 0.005999
163 0.006982
167 0.004028
186 0.003018
198 0.003014
210 0.002984
131 0.002968
96 0.003003
90 0.00299
111 0.00399
144 0.000984
156 0.002043
162 0.0
162 0.002038
173 0.002009
186 0.002028
207 0.001995
167 0.001964
102 0.000965
77 0.001965
96 0.003008
118 0.004022
154 0.004022
161 0.006001
161 0.005948
173 0.006015
177 0.005986
199 0.005993
156 0.005986
100 0.005985
64 0.00694
69 0.00595
91 0.005999
128 0.00502
142 0.004997
151 0.004958
149 0.005983
165 0.005002
181 0.004932
190 0.004987
143 0.005017
69 0.004972
57 0.00499
77 0.006009
115 0.00299
131 0.004037
141 0.001996
151 0.001027
159 0.001996
180 0.002067
194 0.0
172 0.002001
84 0.0
64 0.0
74 0.000991
102 0.002028
129 0.0
146 0.001961
153 0.004933
157 0.004832
170 0.006043
193 0.005954
199 0.005986
145 0.006977
77 0.005999
62 0.007933
82 0.00502
102 0.006984
140 0.004005
152 0.003981
151 0.004018
162 0.004002
180 0.004
193 0.00199
198 0.001983
147 0.001972
78 0.001005
75 0.003029
100 0.001996
134 0.003044
156 0.004044
158 0.002992
158 0.001966
164 0.002991
180 0.001963
198 0.0
178 0.001032
103 0.0
72 0.0
76 0.001058
110 0.002047
143 0.00299
153 0.003992
153 0.005044
160 0.005969
163 0.006971
193 0.006961
171 0.006936
89 0.005985
51 0.005017
60 0.004988
98 0.005034
128 0.006942
142 0.004039
146 0.003989
148 0.002034
159 0.00198
176 0.001031
156 0.0
87 0.002046
28 0.0
31 0.001
54 0.001002
94 0.002035
107 0.002026
113 0.000998
118 0.004024
133 0.00399
153 0.003989
156 0.004041
99 0.003962
29 0.005985
25 0.005954
40 0.005991
78 0.006032
101 0.006005
111 0.005976
114 0.007944
122 0.004988
142 0.007957
163 0.006998
148 0.005984
49 0.006018
22 0.00597
29 0.00599
67 0.002042
89 0.004036
104 0.00202
104 0.000994
114 0.001988
131 0.001994
142 0.001993
139 0.000957
64 0.001009
14 0.000967
23 0.0
55 0.0
76 0.000998
98 0.002054
101 0.004045
103 0.00399
121 0.003989
143 0.003959
139 0.003963
63 0.00399
11 0.005983
6 0.007978
29 0.005985
69 0.003074
79 0.005021
87 0.003133
90 0.005021
108 0.001989
133 0.002978
149 0.002996
68 0.002868
2 0.001033
0 0.000969
19 0.0
51 0.0
72 0.002063
88 0.001995
93 0.003046
104 0.005036
130 0.005964
153 0.007016
137 0.005996
53 0.005983
0 0.005921
8 0.006009
34 0.004022
75 0.0
86 0.001981
98 0.0
111 0.0
125 0.0
150 0.0
164 0.000988
127 0.0
46 0.001024
18 0.000967
26 0.001973
61 0.002963
84 0.001991
105 0.001976
110 0.003006
123 0.001996
141 0.003041
160 0.003049
184 0.001996
186 0.003
106 0.002992
35 0.003002
32 0.002998
53 0.002993
95 0.00299
113 0.00296
124 0.002954
128 0.003002
149 0.004038
169 0.003977
188 0.005017
207 0.006995
118 0.006959
65 0.006981
54 0.00698
71 0.006965
103 0.006989
136 0.006947
137 0.005998
141 0.008011
151 0.005956
160 0.006025
186 0.005932
195 0.006016
164 0.005976
81 0.004014
79 0.006038
101 0.002998
129 0.001027
146 0.002035
153 0.001974
152 0.001996
158 0.0
190 0.001024
235 0.000997
189 0.000997
139 0.000997
109 0.000998
92 0.000933
108 0.001019
122 0.002024
140 0.000997
142 0.000998
144 0.001996
146 0.002992
152 0.004043
158 0.004012
157 0.00399
125 0.003991
85 0.003993
86 0.005986
93 0.006009
113 0.005971
123 0.006017
128 0.00583
131 0.005972
137 0.007017
146 0.00595
158 0.006016
159 0.005982
109 0.006019
88 0.005976
87 0.005981
105 0.007978
120 0.005989
135 0.007973
136 0.004943
139 0.007014
146 0.005985
152 0.006979
165 0.006035
150 0.00406
116 0.006031
90 0.003002
95 0.004046
113 0.001998
136 0.000964
143 0.0
141 0.001013
147 0.002035
151 0.001995
164 0.004004
172 0.003958
161 0.003976
108 0.004035
88 0.005722
96 0.006008
127 0.005988
149 0.00598
154 0.006994
158 0.006982
160 0.007001
171 0.007012
185 0.007006
193 0.007015
166 0.007012
104 0.004919
96 0.00701
110 0.003028
141 0.002992
157 0.002994
163 0.003014
163 0.001975
171 0.0
176 0.002994
188 0.0
191 0.002042
119 0.001996
97 0.0
101 0.000963
121 0.000998
147 0.001003
161 0.001997
161 0.002996
158 0.004007
166 0.006024
175 0.006978
184 0.007978
133 0.005977
83 0.004021
82 0.004003
102 0.003989
120 0.003976
141 0.003997
140 0.002952
141 0.002955
148 0.001028
161 0.003024
160 0.001041
100 0.002041
64 0.0
62 0.001986
83 0.002035
104 0.002046
123 0.00204
124 0.000959
124 0.001985
135 0.002017
152 0.001995
152 0.001995
86 0.001994
54 0.001995
50 0.001986
71 0.001996
92 0.001996
108 0.002988
113 0.003987
114 0.003989
128 0.004982
137 0.006016
141 0.00597
68 0.006003
47 0.00598
48 0.005008
73 0.007013
96 0.006974
109 0.006999
113 0.006962
116 0.007981
127 0.005987
137 0.005993
155 0.006018
108 0.004036
66 0.005991
54 0.002008
73 0.001993
92 0.00199
115 0.001996
119 0.001997
122 0.0
132 0.002013
139 0.0
155 0.0
136 0.0
91 0.000969
64 0.000998
78 0.001006
94 0.000995
122 0.001884
130 0.001985
130 0.002993
136 0.002988
149 0.003014
159 0.002992
164 0.002993
109 0.002993
71 0.002954
75 0.002961
96 0.004025
123 0.004997
131 0.005949
135 0.006016
144 0.006971
149 0.005985
163 0.00599
174 0.005939
131 0.005993
82 0.005976
77 0.005959
94 0.005023
113 0.007029
130 0.004027
135 0.004992
142 0.002962
146 0.004987
160 0.004982
171 0.004
163 0.001993
100 0.000996
80 0.003026
84 0.001022
100 0.0
117 0.000998
140 0.002015
144 0.002025
150 0.002032
164 0.001893
174 0.003034
193 0.005004
165 0.00599
126 0.006005
100 0.006027
106 0.005955
123 0.006981
140 0.005978
153 0.005988
157 0.004955
159 0.004972
170 0.003007
181 0.006052
195 0.002998
185 0.004995
125 0.002074
108 0.002962
113 0.002969
134 0.003015
148 0.00201
159 0.00194
163 0.001987
167 0.0
180 0.0
192 0.002008
182 0.0
129 0.0
97 0.002007
98 0.002036
115 0.003985
136 0.005034
153 0.005016
154 0.005965
160 0.006981
168 0.007008
176 0.007014
190 0.005104
167 0.006989
105 0.00399
94 0.006991
101 0.004985
123 0.002997
137 0.001998
153 0.003009
156 0.003979
161 0.003003
174 0.002992
187 0.00298
193 0.003999
146 0.004981
100 0.002021
89 0.003033
105 0.002996
120 0.002991
146 0.003024
154 0.002992
160 0.001974
170 0.0
177 0.001968
192 0.0
204 0.00103
170 0.001994
108 0.002992
97 0.002998
105 0.003026
132 0.002993
147 0.003022
157 0.002993
160 0.004033
167 0.00399
182 0.004022
197 0.004971
192 0.006006
142 0.007011
105 0.006784
105 0.006984
127 0.007973
144 0.004997
162 0.006966
169 0.007015
173 0.007018
180 0.004024
193 0.001044
203 0.003025
200 0.001981
131 0.001992
109 0.001976
114 0.002036
126 0.001967
154 0.0
167 0.0
167 0.0
169 0.000995
177 0.0
186 0.0
198 0.001032
193 0.0
125 0.0
100 0.0
105 0.0
127 0.0
146 0.0
160 0.0
164 0.0
168 0.0
174 0.000967
188 0.001995
198 0.001997
148 0.001947
116 0.002004
103 0.002962
122 0.00402
135 0.003957
155 0.003959
161 0.00595
160 0.005984
168 0.006995
179 0.004969
188 0.004977
173 0.005015
127 0.00498
88 0.00501
92 0.007014
108 0.004985
130 0.007032
148 0.005983
151 0.006017
154 0.006018
157 0.005984
172 0.005952
182 0.003029
153 0.005139
87 0.002007
77 0.001991
82 0.0
106 0.0
130 0.0
134 0.0
139 0.0
139 0.0
152 0.001934
166 0.00201
173 0.002005
108 0.002029
72 0.001991
72 0.002007
88 0.001996
111 0.001997
131 0.001973
137 0.002002
139 0.001997
147 0.004989
160 0.004997
169 0.004989
148 0.00502
101 0.005018
69 0.004986
82 0.004985
99 0.004986
125 0.005024
132 0.003994
131 0.004988
135 0.006015
142 0.005984
155 0.006953
161 0.007978
121 0.006022
66 0.007978
61 0.006003
79 0.007978
109 0.007979
124 0.007985
129 0.007005
132 0.002985
134 0.00602
148 0.003034
156 0.00502
134 0.001955
65 0.002994
53 0.002994
65 0.002992
94 0.001992
108 0.001992
117 0.0
118 0.003001
123 0.001003
134 0.00196
150 0.002021
143 0.002034
69 0.003953
45 0.005026
49 0.005996
69 0.00599
93 0.005983
104 0.006019
109 0.007029
111 0.007013
122 0.006945
138 0.004955
145 0.007012
91 0.004986
56 0.007018
43 0.005002
67 0.004963
88 0.004993
113 0.005185
116 0.001992
116 0.002045
130 0.002006
146 0.003024
156 0.001989
116 0.002993
67 0.001964
57 0.002996
77 0.002992
95 0.003026
121 0.003009
123 0.00199
125 0.0
129 0.0
141 0.0
154 0.0
125 0.000906
83 0.002992
59 0.00299
77 0.002997
95 0.003001
122 0.003989
128 0.00399
129 0.003989
135 0.004022
144 0.004024
160 0.002993
110 0.004042
79 0.004994
70 0.005946
85 0.00799
105 0.005951
126 0.006982
137 0.00499
134 0.00698
138 0.00602
146 0.004986
161 0.004021
118 0.001994
77 0.003004
58 0.001013
81 0.000994
94 0.001021
121 0.001994
126 0.002992
124 0.002992
131 0.002991
147 0.003003
153 0.002997
95 0.003
64 0.003999
56 0.004979
82 0.006006
94 0.00599
118 0.005037
122 0.005993
123 0.006011
129 0.006003
146 0.002998
157 0.00397
106 0.001994
51 0.001995
53 0.0
79 0.000993
109 0.000963
118 0.000953
122 0.0
121 0.000999
130 0.0
143 0.001968
155 0.0
116 0.001995
63 0.0
52 0.002025
73 0.002036
92 0.0
116 0.000999
119 0.003042
119 0.00398
121 0.003989
137 0.004021
146 0.004038
132 0.003954
82 0.003994
43 0.006018
52 0.005983
73 0.007966
99 0.006038
114 0.006027
114 0.005026
120 0.006027
131 0.004983
140 0.005019
148 0.005056
104 0.005001
48 0.003013
48 0.004988
67 0.003046
88 0.00498
110 0.004017
113 0.002992
117 0.002046
128 0.0
140 0.001995
156 0.0
134 0.001996
72 0.0
46 0.001998
54 0.001996
86 0.001964
115 0.005013
121 0.006963
123 0.004993
126 0.005028
132 0.005061
151 0.004987
155 0.004994
108 0.004001
57 0.002996
60 0.004987
79 0.002991
107 0.005037
124 0.002996
121 0.004035
125 0.002985
131 0.002014
145 0.002025
158 0.0
115 0.0
65 0.0
54 0.0
68 0.000998
101 0.0
116 0.0
127 0.0
128 0.0
134 0.0
150 0.0
162 0.0
126 0.000993
57 0.001001
48 0.000998
64 0.000997
96 0.001996
111 0.002004
121 0.002017
122 0.003024
129 0.002865
144 0.005018
158 0.00499
147 0.003963
69 0.004986
46 0.004965
53 0.007017
74 0.004983
94 0.006021
117 0.00399
120 0.003988
123 0.002989
136 0.003005
146 0.003015
156 0.001994
83 0.00199
55 0.001999
54 0.000998
71 0.00203
98 0.000997
118 0.000995
127 0.000997
129 0.000998
141 0.002049
151 0.001024
171 0.001975
138 0.002003
77 0.002004
62 0.00202
80 0.002009
97 0.003054
126 0.004031
134 0.00496
136 0.005985
142 0.006
153 0.006019
166 0.005003
158 0.005974
108 0.004986
67 0.004974
76 0.005989
100 0.002026
126 0.004987
143 0.004952
146 0.003945
151 0.002962
164 0.0
172 0.002002
170 0.001995
87 0.001995
62 0.0
76 0.002992
80 0.0
107 0.00399
130 0.003989
130 0.00399
135 0.00299
149 0.005994
162 0.005984
172 0.005002
106 0.005984
79 0.006981
74 0.006946
85 0.005999
120 0.006984
142 0.006902
147 0.006988
152 0.007955
162 0.006982
174 0.005997
194 0.003028
168 0.00198
126 0.003011
97 0.0
113 0.00101
124 0.0
154 0.0
168 0.001946
172 0.001964
177 0.002964
182 0.00203
197 0.001853
202 0.003039
162 0.00199
117 0.001998
122 0.003997
139 0.005017
167 0.004948
179 0.004997
184 0.004988
185 0.005026
190 0.005029
202 0.00499
212 0.007029
179 0.006966
123 0.006978
120 0.007984
128 0.005997
155 0.002979
177 0.002993
180 0.002988
183 0.000948
190 0.0
199 0.000998
210 0.001994
174 0.00205
135 0.002068
113 0.002
116 0.002017
140 0.001848
166 0.003023
172 0.002993
176 0.00306
180 0.003022
193 0.004035
204 0.004977
209 0.004998
162 0.006979
115 0.007033
108 0.007012
123 0.007002
147 0.005982
161 0.006947
171 0.004015
175 0.003985
178 0.002944
191 0.002001
201 0.001993
199 0.004995
133 0.0
111 0.0
113 0.001
134 0.000962
160 0.004022
170 0.004024
174 0.003988
173 0.00596
182 0.005978
192 0.006945
202 0.006956
185 0.007979
124 0.007811
111 0.007966
117 0.007978
138 0.005977
155 0.007969
170 0.006013
172 0.008026
177 0.002961
186 0.001995
192 0.001998
208 0.002025
171 0.0
135 0.0
117 0.000956
131 0.001003
154 0.000981
173 0.000836
178 0.000998
179 0.002057
183 0.001995
187 0.001952
198 0.002994
199 0.003027
144 0.00201
115 0.005019
116 0.006047
126 0.007017
154 0.006978
164 0.005986
163 0.008013
163 0.003047
172 0.003989
181 0.003988
180 0.004002
139 0.00401
92 0.002992
89 0.003995
104 0.001993
125 0.004056
146 0.00403
151 0.003988
155 0.004166
159 0.003999
170 0.002967
175 0.001992
137 0.002991
80 0.002998
73 0.002993
85 0.002002
111 0.0
126 0.000999
135 0.0
138 0.0
141 0.0
156 0.0
170 0.002025
141 0.003956
77 0.00599
66 0.005991
75 0.00599
98 0.006093
123 0.007973
130 0.006
128 0.00703
136 0.006977
146 0.006018
161 0.005015
160 0.00502
94 0.004989
64 0.002992
68 0.005022
92 0.002997
116 0.001984
123 0.00198
125 0.0
132 0.0
143 0.0
158 0.001961
162 0.000997
98 0.000998
64 0.0
64 0.001002
84 0.000998
111 0.002002
121 0.002021
124 0.001997
126 0.002016
135 0.001968
147 0.004018
155 0.005017
126 0.005997
67 0.005984
57 0.005963
74 0.006027
94 0.006022
120 0.00595
123 0.005975
127 0.00602
131 0.006031
145 0.004984
159 0.004034
148 0.002989
76 0.003062
59 0.004011
66 0.001991
84 0.004025
108 0.001995
119 0.00394
120 0.002014
126 0.004023
140 0.003989
149 0.003
160 0.001995
92 0.0
59 0.001996
49 0.0
64 0.0
86 0.0
110 0.0
120 0.0
124 0.001993
134 0.002992
145 0.003004
163 0.004989
136 0.005961
88 0.005982
54 0.005984
58 0.005981
81 0.005985
110 0.005954
119 0.005977
120 0.006951
124 0.00697
130 0.004013
143 0.005022
157 0.005018
128 0.003981
61 0.004022
49 0.004041
61 0.004014
89 0.001992
104 0.003964
114 0.002987
118 0.000984
123 0.0
139 0.001055
149 0.0
132 0.0
67 0.000997
38 0.001043
36 0.002992
60 0.004005
76 0.003949
95 0.003992
100 0.003926
106 0.003941
117 0.005021
135 0.004998
141 0.005034
87 0.007003
43 0.006942
23 0.007013
33 0.004987
50 0.007014
80 0.004986
94 0.005013
98 0.004957
109 0.001964
128 0.001951
140 0.001992
151 0.002006
110 0.001994
42 0.001991
36 0.004022
51 0.002023
74 0.004022
101 0.002993
106 0.002992
113 0.002998
119 0.002969
136 0.0
152 0.000998
167 0.001995
125 0.002051
62 0.002004
53 0.002993
69 0.003804
100 0.005979
117 0.006944
123 0.00605
128 0.005995
133 0.00595
152 0.004999
183 0.00398
191 0.004005
126 0.003958
95 0.003958
89 0.004004
107 0.00601
126 0.004022
141 0.004024
147 0.004047
149 0.004021
160 0.003023
177 0.000966
186 0.002994
145 0.0
99 0.002037
74 0.001031
88 0.000945
96 0.000997
127 0.000996
144 0.001026
147 0.002049
155 0.0
163 0.002037
180 0.002048
189 0.001996
146 0.001995
89 0.00399
86 0.006004
96 0.006972
119 0.005951
144 0.007944
153 0.004027
156 0.007979
166 0.00799
170 0.006984
186 0.004983
197 0.004979
139 0.00502
92 0.0
92 0.002972
112 0.001997
144 0.0
156 0.000992
163 0.000961
168 0.0
172 0.000997
188 0.000936
200 0.0
187 0.0
127 0.001973
104 0.0
112 0.0
123 0.0
157 0.000998
175 0.002967
174 0.004026
178 0.003984
186 0.005966
199 0.005961
212 0.006015
185 0.006951
138 0.006992
109 0.007022
119 0.006965
143 0.006989
171 0.006813
181 0.006982
180 0.005988
185 0.006944
188 0.006975
201 0.006032
209 0.004994
173 0.005097
116 0.00497
115 0.005954
132 0.004953
156 0.007014
175 0.004012
178 0.00502
178 0.004976
180 0.004973
194 0.002992
208 0.002039
179 0.002997
108 0.0
97 0.003009
111 0.0
132 0.000995
147 0.002032
160 0.002004
160 0.002983
162 0.002895
172 0.00399
182 0.005015
145 0.003994
82 0.004029
71 0.003935
85 0.005952
110 0.007021
130 0.006951
143 0.006981
142 0.007961
145 0.007042
157 0.006024
169 0.003026
144 0.005983
70 0.002943
56 0.002024
65 0.003001
93 0.0
118 0.0
123 0.0
127 0.000968
127 0.000999
142 0.003965
156 0.00304
133 0.002994
65 0.003004
55 0.002994
67 0.004962
98 0.004997
116 0.006982
121 0.005947
122 0.007976
130 0.007979
139 0.00798
158 0.007978
134 0.007982
77 0.00601
56 0.00399
63 0.005986
90 0.001995
119 0.002965
122 0.004955
123 0.002033
129 0.002027
143 0.002009
159 0.002022
148 0.002992
75 0.001026
54 0.002025
66 0.000955
88 0.002037
113 0.001023
126 0.0
128 0.0
129 0.00207
146 0.002057
161 0.00191
166 0.002065
113 0.001962
65 0.002993
65 0.002993
86 0.003022
108 0.00299
134 0.004011
138 0.004002
138 0.004019
149 0.004987
166 0.005972
177 0.005985
138 0.005858
106 0.006987
70 0.004033
83 0.002962
105 0.004988
130 0.002993
139 0.003024
140 0.002993
146 0.002993
158 0.003991
167 0.00402
177 0.003024
107 0.0
78 0.003028
76 0.000982
92 0.003028
124 0.00093
142 0.0
146 0.000997
147 0.0
158 0.00198
167 0.002007
180 0.000999
165 0.0
91 0.001015
76 0.00201
85 0.001961
112 0.001962
138 0.003029
142 0.003991
141 0.003988
144 0.003953
157 0.003957
169 0.005021
174 0.005953
113 0.006981
73 0.006982
76 0.001994
90 0.00399
119 0.0
133 0.0
132 0.000999
132 0.001994
142 0.003991
154 0.004022
169 0.003989
107 0.006977
81 0.006945
70 0.006036
87 0.006948
108 0.005984
134 0.006982
141 0.004987
140 0.006962
149 0.006948
157 0.006983
174 0.007011
156 0.007928
90 0.006014
57 0.002992
63 0.005984
88 0.002992
116 0.003958
126 0.004001
129 0.00196
135 0.002992
143 0.0
164 0.0
168 0.0
97 0.000989
62 0.002031
63 0.000976
85 0.001992
114 0.002959
126 0.002992
130 0.0
130 0.0
139 0.0
154 0.0
168 0.001971
139 0.003028
69 0.003002
56 0.002992
71 0.003033
90 0.003002
122 0.003001
127 0.003959
132 0.00399
140 0.004003
157 0.005974
169 0.00601
153 0.006018
95 0.005007
73 0.004986
87 0.005128
112 0.006016
138 0.002991
151 0.00503
149 0.001995
154 0.004023
168 0.003977
176 0.003991
180 0.004959
114 0.0
93 0.002026
101 0.000998
133 0.0
154 0.00099
167 0.0
171 0.001995
173 0.004023
187 0.003994
207 0.005983
203 0.006993
148 0.006984
119 0.004985
126 0.005005
156 0.003019
179 0.00502
190 0.002027
188 0.004975
188 0.002007
198 0.002979
214 0.002025
208 0.002026
145 0.001989
133 0.000941
140 0.002029
175 0.0
195 0.002992
210 0.001008
210 0.00203
210 0.001996
216 0.003009
228 0.002983
216 0.003034
150 0.002992
133 0.004035
139 0.003991
166 0.003954
177 0.00402
180 0.004935
174 0.005927
174 0.005993
185 0.005983
198 0.007972
171 0.005019
122 0.007036
107 0.00697
116 0.007017
143 0.006973
157 0.006976
161 0.007014
161 0.003992
166 0.006977
176 0.003984
175 0.0
137 0.0
89 0.0
94 0.0
105 0.000967
134 0.000967
140 0.0
148 0.0
151 0.0
154 0.0
169 0.0
166 0.0
127 0.0
87 0.001953
88 0.001963
105 0.002988
126 0.004989
145 0.007943
147 0.007
149 0.007013
160 0.002986
167 0.005081
177 0.004005
145 0.004988
95 0.00203
92 0.002994
105 0.00403
131 0.0
146 0.000968
149 0.002049
154 0.001995
165 0.001997
170 0.002961
186 0.003999
159 0.005985
102 0.007963
100 0.007978
112 0.007975
122 0.007973
147 0.007076
149 0.004988
151 0.007009
155 0.004984
164 0.006981
176 0.003133
151 0.002002
90 0.0
80 0.0
89 0.0
104 0.0
132 0.000986
142 0.001969
145 0.0
151 0.0
166 0.000976
177 0.001963
175 0.000971
131 0.002009
82 0.001996
76 0.002985
88 0.003001
110 0.003029
128 0.002999
132 0.003009
136 0.00296
139 0.003938
153 0.003997
173 0.003986
168 0.005983
106 0.005897
76 0.005995
79 0.005993
110 0.005018
145 0.005952
159 0.005
171 0.004988
171 0.004987
184 0.004996
199 0.005013
211 0.003032
218 0.004037
156 0.004992
122 0.004989
113 0.003045
129 0.0
145 0.003004
164 0.0
167 0.000875
167 0.000997
173 0.000998
181 0.00097
195 0.000999
177 0.00103
129 0.000976
84 0.000963
83 0.001055
100 0.000994
125 0.002001
134 0.002035
137 0.001994
141 0.003984
147 0.004991
163 0.004978
157 0.004963
111 0.006009
60 0.006813
55 0.00601
72 0.007979
96 0.007981
108 0.005983
124 0.006984
131 0.002992
139 0.004025
155 0.002025
167 0.0
140 0.0
90 0.0
75 0.0
81 0.0
105 0.0
116 0.0
133 0.001001
135 0.000998
142 0.000967
158 0.000962
177 0.002004
162 0.000997
87 0.002006
64 0.002009
67 0.00298
84 0.003998
112 0.004984
127 0.005032
134 0.006975
139 0.006981
150 0.006993
160 0.005977
173 0.006965
134 0.006934
93 0.007974
64 0.005987
81 0.004984
94 0.004038
124 0.00402
136 0.002996
136 0.003008
146 0.003969
160 0.00399
180 0.003002
186 0.003002
115 0.002028
85 0.002036
84 0.002987
98 0.00301
132 0.002037
153 0.0
166 0.002005
171 0.001988
183 0.002954
197 0.002982
213 0.002883
213 0.003022
145 0.003019
123 0.003954
132 0.003979
164 0.005005
191 0.005016
199 0.00598
205 0.005985
209 0.007964
217 0.004
155 0.005022
245 0.004986
219 0.002992
158 0.003022
152 0.0
168 0.003027
197 0.0
211 0.001984
221 0.0
223 0.001024
227 0.000993
237 0.000965
249 0.000964
235 0.0
176 0.0
165 0.0
183 0.002001
204 0.001955
220 0.0
236 0.000971
233 0.002011
234 0.003066
243 0.005006
254 0.005051
254 0.006014
192 0.006982
165 0.006979
171 0.007011
187 0.006983
209 0.00702
226 0.00698
226 0.003005
226 0.00399
234 0.003003
187 0.003
185 0.002012
152 0.002006
140 0.0
142 0.0
154 0.0
166 0.0
168 0.000973
169 0.002061
168 0.003999
171 0.005983
181 0.005987
176 0.006001
153 0.005971
148 0.006015
156 0.00797
162 0.007973
170 0.007041
170 0.007009
163 0.007014
155 0.004968
154 0.006968
156 0.004989
144 0.007007
109 0.00397
102 0.004007
107 0.002012
121 0.002999
130 0.003012
129 0.003006
127 0.0
131 0.002012
136 0.0
134 0.001012
98 0.002019
88 0.002034
90 0.000997
98 0.002022
113 0.002996
118 0.003937
117 0.003956
119 0.003976
124 0.003953
128 0.003956
108 0.00399
86 0.004045
74 0.002973
81 0.003962
91 0.002954
102 0.004895
104 0.004989
105 0.004989
110 0.004984
114 0.004956
116 0.00695
82 0.005973
67 0.005966
68 0.00595
80 0.005984
93 0.001994
100 0.00399
100 0.003024
103 0.002047
108 0.002991
117 0.001027
105 0.003038
73 0.0
67 0.0
74 0.002062
91 0.002017
99 0.003025
105 0.003024
105 0.003018
107 0.004022
114 0.002974
112 0.00402
90 0.004021
72 0.00401
74 0.004014
89 0.00396
101 0.003984
108 0.004967
109 0.004989
110 0.004959
116 0.005034
123 0.005018
112 0.005
80 0.006946
76 0.005967
81 0.007944
96 0.003987
108 0.003991
109 0.003018
109 0.002991
110 0.002991
119 0.002992
114 0.002997
92 0.002989
74 0.001997
22 0.004985
52 0.001995
76 0.004987
91 0.001996
93 0.004975
101 0.004986
107 0.003989
129 0.003
83 0.000989
40 0.0
26 0.0
48 0.0
69 0.001959
97 0.001995
104 0.002003
103 0.002961
114 0.002962
126 0.005035
142 0.006965
78 0.00695
46 0.006948
37 0.00598
60 0.005991
81 0.005953
106 0.005983
110 0.00598
111 0.003988
121 0.006977
136 0.004014
150 0.005996
82 0.005984
43 0.006018
38 0.004018
64 0.003022
85 0.003025
106 0.0
109 0.0
115 0.0
133 0.001004
145 0.0
145 0.001002
71 0.0
38 0.001996
34 0.000971
57 0.001005
82 0.002016
103 0.001971
109 0.004956
110 0.003957
121 0.004936
130 0.004978
142 0.004987
81 0.005033
30 0.005967
21 0.006975
44 0.006908
66 0.006981
97 0.006951
106 0.006987
110 0.007988
122 0.004024
137 0.006105
162 0.004005
155 0.003996
101 0.00399
50 0.003988
49 0.002994
68 0.002956
100 0.002992
114 0.002989
122 0.001959
128 0.00399
138 0.0
152 0.003025
171 0.0
177 0.001994
95 0.002025
60 0.003036
55 0.001995
83 0.0
107 0.003054
128 0.0
129 0.003025
134 0.0
142 0.001
155 0.0
172 0.00096
165 0.002993
108 0.003961
52 0.005002
54 0.005966
73 0.005947
103 0.005954
124 0.005972
127 0.005954
129 0.006032
141 0.005953
155 0.004986
179 0.006982
169 0.006013
90 0.007986
50 0.00502
51 0.007979
76 0.004994
98 0.006947
125 0.003035
130 0.003991
134 0.003046
148 0.005011
171 0.00296
182 0.002989
157 0.0
86 0.002994
58 0.000966
65 0.001995
91 0.0
117 0.002992
137 0.0
140 0.0
148 0.0
158 0.002013
177 0.00304
195 0.003004
196 0.003023
131 0.003026
86 0.00302
90 0.002996
120 0.003066
157 0.003028
169 0.003992
174 0.004988
182 0.005978
193 0.005995
209 0.004981
220 0.004964
225 0.00502
157 0.00499
133 0.00499
141 0.004987
159 0.004972
192 0.00402
203 0.005975
201 0.002992
203 0.004958
215 0.004976
225 0.004988
241 0.004987
185 0.003975
152 0.002985
146 0.0
160 0.003023
192 0.0
214 0.000954
218 0.0
220 0.0
233 0.0
238 0.0
249 0.001995
193 0.004025
159 0.004025
149 0.003023
169 0.003977
187 0.005982
209 0.006
218 0.007962
221 0.005023
227 0.008
234 0.00497
249 0.007974
229 0.006018
185 0.004951
151 0.003986
163 0.000966
177 0.002984
202 0.0
215 0.001977
216 0.0
220 0.000999
229 0.002015
238 0.002993
185 0.004026
151 0.002993
141 0.004005
144 0.002992
151 0.003993
167 0.003986
173 0.004957
173 0.005008
174 0.004972
177 0.005984
180 0.005022
186 0.006957
171 0.006971
151 0.005993
139 0.004026
147 0.003031
153 0.00392
165 0.002979
164 0.003989
163 0.002995
164 0.00299
168 0.002965
173 0.002036
172 0.00299
138 0.000998
126 0.0
129 0.001011
142 0.001965
151 0.000992
155 0.001037
155 0.000997
156 0.000959
159 0.001968
165 0.002986
156 0.002925
123 0.002937
110 0.002992
112 0.003955
121 0.005028
134 0.006017
139 0.006026
139 0.005991
140 0.005945
144 0.005985
148 0.005012
144 0.003995
122 0.003008
97 0.003001
97 0.002961
107 0.000963
118 0.002992
123 0.000974
127 0.000965
130 0.003051
134 0.001002
145 0.002999
150 0.002992
122 0.002001
82 0.0
78 0.003028
88 0.000973
108 0.003008
117 0.002993
119 0.002958
122 0.003028
124 0.00305
136 0.003034
144 0.004009
128 0.005004
80 0.005019
72 0.004981
80 0.004975
102 0.00602
110 0.004025
116 0.003999
114 0.004981
116 0.003007
124 0.004999
138 0.004987
130 0.005134
80 0.004985
63 0.002992
69 0.003037
85 0.002013
104 0.0
108 0.0
109 0.0
109 0.0
117 0.0
131 0.0
126 0.0
73 0.001021
50 0.000997
56 0.002028
73 0.001992
86 0.00198
97 0.002993
98 0.003974
101 0.005013
112 0.005992
125 0.005975
126 0.005982
79 0.005986
46 0.007964
46 0.007975
59 0.008009
71 0.008014
90 0.007017
95 0.003958
98 0.005951
107 0.002964
122 0.003964
131 0.003974
104 0.002991
68 0.002985
46 0.003007
57 0.003987
68 0.004002
89 0.002961
97 0.001998
100 0.0
106 0.00304
116 0.0
127 0.0
141 0.0
123 0.0
71 0.0
62 0.000967
71 0.001011
87 0.000997
107 0.002046
114 0.00299
120 0.004994
130 0.004987
139 0.004992
153 0.005956
165 0.005983
158 0.004986
105 0.004986
90 0.001957
97 0.00199
117 0.001998
128 0.001996
136 0.003
140 0.00502
143 0.002989
151 0.004025
164 0.003972
172 0.003009
157 0.002038
119 0.000951
105 0.001056
112 0.000997
128 0.000998
143 0.001996
150 0.0
151 0.002032
156 0.000998
166 0.003009
172 0.005012
184 0.00596
148 0.005958
120 0.005933
106 0.005979
110 0.005939
127 0.005983
145 0.005955
148 0.005985
149 0.004987
156 0.007944
163 0.003985
172 0.004979
185 0.004028
168 0.003987
120 0.003996
110 0.003989
114 0.003982
132 0.003011
146 0.004019
156 0.0
159 0.0
163 0.0
174 0.001012
179 0.001009
192 0.0
168 0.002064
130 0.0
117 0.000946
127 0.0
139 0.0
157 0.0
161 0.001038
161 0.001077
164 0.000997
172 0.00097
180 0.000841
219 0.002004
203 0.002038
133 0.00203
114 0.001047
125 0.002023
151 0.00297
166 0.002958
175 0.003989
176 0.005983
182 0.005945
197 0.005004
213 0.003996
220 0.004987
168 0.002991
111 0.002972
93 0.001048
102 0.002991
132 0.000998
151 0.000972
177 0.000998
188 0.001031
194 0.002018
195 0.003025
207 0.004023
218 0.005022
163 0.006981
101 0.00499
86 0.007976
94 0.003955
108 0.006985
139 0.003979
151 0.004073
155 0.003991
161 0.004008
177 0.004009
186 0.003991
204 0.002991
177 0.004032
93 0.002961
75 0.003976
82 0.002981
106 0.002962
136 0.00304
146 0.003038
152 0.002976
158 0.0
170 0.0
183 0.002994
203 0.00399
207 0.006949
124 0.007972
86 0.003995
87 0.007008
111 0.003962
145 0.003998
159 0.003987
167 0.004958
172 0.003998
182 0.003959
197 0.004013
210 0.003961
226 0.002996
205 0.004985
132 0.001994
108 0.002973
119 0.002982
135 0.00295
169 0.000966
183 0.0
180 0.000971
186 0.001013
193 0.001943
200 0.003034
217 0.002991
227 0.002988
174 0.002993
116 0.003012
117 0.003037
138 0.003035
156 0.003024
179 0.003858
185 0.004036
186 0.005023
194 0.005988
206 0.005955
212 0.005953
229 0.005981
207 0.006006
142 0.005985
114 0.005997
124 0.005994
151 0.007983
173 0.006975
181 0.006987
180 0.007015
183 0.00698
191 0.006932
204 0.002971
213 0.004947
199 0.001994
131 0.003007
116 0.005023
128 0.003016
158 0.002014
177 0.0
190 0.0
196 0.0
200 0.000966
204 0.002954
217 0.0
227 0.003057
179 0.0
151 0.001995
140 0.001999
157 0.002995
178 0.003999
196 0.00396
196 0.004
196 0.004025
203 0.003961
207 0.005045
223 0.005976
219 0.004957
181 0.007017
149 0.00499
