92 0.030904
92 0.00103
116 0.000997
126 0.000997
132 0.000998
130 0.0
132 0.000998
142 0.001995
149 0.002981
153 0.002954
158 0.003024
161 0.003957
162 0.003022
106 0.005985
47 0.005028
34 0.005022
62 0.005816
78 0.004986
99 0.006023
116 0.005982
119 0.005949
121 0.006019
126 0.005984
135 0.005035
145 0.005
150 0.003989
157 0.003989
160 0.007011
155 0.002992
79 0.004986
126 0.00399
129 0.00399
129 0.004005
129 0.004147
129 0.004022
129 0.0
129 0.003991
129 0.00102
129 0.001995
129 0.001995
129 0.0
129 0.000982
129 0.0
137 0.0
141 0.001055
147 0.000997
151 0.001995
121 0.001925
0 0.00195
0 0.002003
9 0.001999
41 0.00295
57 0.002987
88 0.002992
99 0.002991
105 0.004938
114 0.004982
128 0.004005
144 0.005984
156 0.006014
161 0.006969
166 0.006933
171 0.004981
172 0.00798
177 0.00402
180 0.003998
180 0.004006
181 0.003052
183 0.003025
184 0.001996
114 0.002943
35 0.002012
19 0.00199
58 0.005004
91 0.000967
112 0.004002
126 0.001994
131 0.002992
130 0.002035
133 0.002994
146 0.000997
155 0.000986
161 0.00103
167 0.00103
169 0.017913
171 0.002009
172 0.000999
177 0.001994
45 0.00199
84 0.003989
103 0.00402
126 0.005942
134 0.005968
136 0.005966
139 0.004957
144 0.004003
153 0.005028
160 0.00798
165 0.00299
170 0.005984
174 0.005988
176 0.005981
176 0.006033
160 0.005978
36 0.00399
14 0.0
39 0.000968
79 0.000965
105 0.0
116 0.00099
126 0.000995
128 0.000968
133 0.000998
142 0.003987
150 0.000966
157 0.003989
162 0.0
165 0.002941
170 0.00303
171 0.002992
170 0.002983
71 0.001999
16 0.002979
25 0.002049
54 0.001995
86 0.002105
113 0.001995
124 0.00203
132 0.000998
134 0.000997
141 0.001016
151 0.000997
157 0.001149
165 0.0
172 0.0
175 0.0
180 0.0
182 0.0
170 0.0
58 0.000965
32 0.0
66 0.000999
94 0.0
124 0.001003
139 0.000959
144 0.001992
145 0.001995
149 0.002992
152 0.002984
160 0.002993
163 0.002992
168 0.002992
172 0.002781
175 0.003989
175 0.005931
106 0.006008
44 0.005985
40 0.00599
77 0.005982
113 0.005969
132 0.005039
137 0.005039
137 0.005952
139 0.005956
142 0.005995
150 0.006981
154 0.004989
161 0.007018
165 0.006983
167 0.006993
140 0.006943
63 0.006978
16 0.006957
45 0.000995
82 0.006984
106 0.005022
121 0.007998
129 0.004013
128 0.004032
132 0.004009
142 0.003958
151 0.002026
157 0.000988
163 0.002026
166 0.005012
152 0.001113
47 0.004011
4 0.0
23 0.004023
63 0.003985
82 0.003956
108 0.003951
116 0.004039
120 0.004003
127 0.000969
135 0.00399
149 0.000964
158 0.001965
162 0.002003
168 0.000998
171 0.000998
138 0.000998
17 0.000999
8 0.000998
42 0.00101
81 0.000999
99 0.000999
104 0.000999
109 0.001995
126 0.00103
155 0.001968
174 0.001032
187 0.000997
189 0.004828
185 0.00502
70 0.004966
18 0.005979
35 0.005958
85 0.005958
105 0.005976
129 0.005988
134 0.005975
133 0.005934
134 0.005033
143 0.006979
152 0.001994
161 0.006981
168 0.000999
173 0.006981
176 0.004997
178 0.004986
181 0.004024
162 0.002009
77 0.003962
19 0.0
53 0.002
83 0.001968
111 0.002046
125 0.000997
134 0.000998
130 0.001003
132 0.0
143 0.000967
156 0.0
162 0.001005
170 0.0
173 0.0
177 0.000966
179 0.0
180 0.001
96 0.000997
23 0.000999
9 0.002
42 0.002992
72 0.003039
93 0.003013
117 0.004043
121 0.004059
121 0.00502
130 0.005949
139 0.004968
153 0.005954
160 0.005953
167 0.005987
172 0.005952
175 0.00598
178 0.005985
180 0.004983
161 0.004992
26 0.005005
2 0.004987
26 0.005952
61 0.007977
81 0.003969
104 0.006981
120 0.006965
122 0.00698
124 0.00702
133 0.007028
150 0.007008
163 0.00198
168 0.006022
176 0.001994
178 0.005984
183 0.001996
187 0.00194
190 0.002989
192 0.000962
154 0.0
59 0.0
18 0.0
36 0.0
87 0.0
110 0.003989
129 0.0
137 0.003979
135 0.002087
138 0.001994
148 0.00203
157 0.001993
168 0.002967
175 0.001995
179 0.002025
182 0.001
184 0.000997
186 0.000997
188 0.001002
181 0.000998
61 0.0
28 0.0
51 0.0
103 0.00096
123 0.0
143 0.0
147 0.0
142 0.0
145 0.0
151 0.000999
163 0.0
169 0.000974
172 0.000997
175 0.000998
177 0.002027
180 0.002019
137 0.001995
48 0.002025
11 0.00203
53 0.003011
81 0.002967
109 0.003023
123 0.003008
131 0.003993
127 0.003989
131 0.004023
143 0.003983
154 0.004987
156 0.010934
159 0.002992
163 0.000972
172 0.001961
65 0.001016
0 0.001991
63 0.001999
101 0.001985
118 0.001991
151 0.0
157 0.002952
162 0.003022
165 0.003022
166 0.002001
165 0.003032
163 0.00199
36 0.002993
0 0.00504
1 0.000998
39 0.00399
73 0.004037
87 0.00402
109 0.004015
112 0.00399
116 0.004107
129 0.002976
141 0.002974
152 0.002972
163 0.002962
168 0.001998
172 0.001008
175 0.000997
177 0.001018
182 0.000999
182 0.0
183 0.0
117 0.001004
33 0.000998
12 0.001966
58 0.002991
84 0.002992
112 0.003967
123 0.004989
127 0.004961
123 0.005985
128 0.005935
137 0.005961
149 0.006015
156 0.006012
161 0.005984
165 0.005951
169 0.005986
172 0.005992
173 0.00695
127 0.00404
15 0.003975
10 0.004032
55 0.003972
82 0.003991
111 0.003989
127 0.004005
129 0.004004
125 0.003024
129 0.002985
141 0.001962
151 0.005097
157 0.001995
162 0.005005
167 0.004026
169 0.004025
172 0.00399
87 0.001996
15 0.003029
0 0.001995
28 0.001995
61 0.001998
87 0.001995
102 0.001995
113 0.00202
115 0.0
118 0.0
133 0.000997
142 0.000999
154 0.0
162 0.000999
166 0.001995
170 0.001954
173 0.001995
154 0.002992
40 0.002961
0 0.003955
15 0.005986
56 0.005952
71 0.006008
100 0.00503
115 0.005015
120 0.007016
124 0.00401
135 0.006958
150 0.005037
164 0.003988
170 0.003998
177 0.004023
181 0.003983
183 0.002995
186 0.002994
187 0.003991
191 0.002005
165 0.004982
53 0.0
21 0.006018
58 0.005987
84 0.005032
110 0.004987
124 0.00402
133 0.002991
130 0.000998
132 0.003027
146 0.001964
159 0.002027
163 0.002
170 0.000998
174 0.0
175 0.0
177 0.000997
180 0.001029
166 0.002002
150 0.001996
94 0.001046
59 0.000962
110 0.00196
128 0.002004
143 0.002031
167 0.002162
175 0.001981
177 0.006017
179 0.001995
131 0.000982
45 0.001062
10 0.001013
29 0.000998
66 0.000956
87 0.000998
102 0.001997
116 0.0
117 0.0
123 0.001997
134 0.003977
146 0.000967
155 0.004041
163 0.004035
167 0.004014
170 0.003024
172 0.002996
175 0.002019
178 0.002018
177 0.001982
117 0.001995
18 0.001995
8 0.001995
44 0.002002
62 0.001996
83 0.0
108 0.0
115 0.000975
118 0.001008
124 0.00088
139 0.002005
154 0.001995
159 0.002043
168 0.002006
174 0.002002
177 0.002002
180 0.002045
181 0.001995
183 0.001992
186 0.002992
189 0.002992
186 0.002962
89 0.004064
34 0.003022
41 0.003038
70 0.004022
106 0.003975
126 0.004014
136 0.004016
142 0.005984
144 0.004993
149 0.005019
159 0.00595
165 0.003976
172 0.004985
176 0.006985
179 0.002989
180 0.007019
182 0.006007
182 0.005991
184 0.005017
171 0.000987
117 0.005029
39 0.00101
51 0.003954
96 0.000999
122 0.001041
133 0.001945
142 0.001996
143 0.001964
145 0.002021
151 0.001999
156 0.001957
160 0.002027
165 0.002036
168 0.002
170 0.001995
172 0.000999
171 0.001001
100 0.0
36 0.0
35 0.000976
70 0.002028
94 0.002001
112 0.002027
125 0.002027
130 0.001948
131 0.001996
135 0.001995
144 0.001989
151 0.00302
156 0.002992
160 0.003969
162 0.003989
165 0.003974
166 0.00398
148 0.004016
26 0.003991
3 0.00397
29 0.004025
64 0.003983
76 0.003969
100 0.004
110 0.004812
112 0.004981
115 0.004988
125 0.005028
136 0.006009
147 0.006994
152 0.006983
158 0.007025
160 0.008952
160 0.001993
168 0.001994
96 0.0
29 0.001994
68 0.001995
82 0.002041
106 0.002026
116 0.002045
121 0.001986
129 0.006983
140 0.002015
151 0.005984
158 0.001018
165 0.00507
169 0.004985
170 0.004987
173 0.005001
175 0.004994
180 0.004986
180 0.0
173 0.00395
67 0.000998
28 0.0
49 0.000974
91 0.00197
105 0.000999
127 0.000966
134 0.002011
134 0.001995
134 0.001988
143 0.000988
149 0.000986
157 0.001003
160 0.001035
165 0.000998
168 0.001956
170 0.001018
171 0.000998
148 0.001077
55 0.001964
25 0.0
47 0.001005
86 0.0
110 0.0
122 0.0
129 0.0
129 0.0
134 0.000972
144 0.0
149 0.0
156 0.0
160 0.000968
166 0.000968
170 0.000998
171 0.001002
161 0.000999
98 0.0
15 0.000997
26 0.000952
55 0.000968
73 0.001034
95 0.000967
107 0.002031
113 0.002011
114 0.002043
122 0.002046
136 0.001972
145 0.002014
153 0.001997
157 0.002993
162 0.002963
169 0.003036
171 0.003001
172 0.002993
82 0.005022
24 0.004996
23 0.004975
46 0.004983
70 0.005985
90 0.00602
108 0.005949
116 0.005949
122 0.006026
127 0.006001
143 0.006953
150 0.005975
160 0.006986
167 0.005997
172 0.006982
177 0.00602
179 0.007977
182 0.003989
185 0.003965
187 0.003967
177 0.003989
64 0.003982
30 0.00297
54 0.004989
78 0.002994
104 0.00096
122 0.004025
132 0.000853
134 0.002992
135 0.002979
141 0.002997
153 0.000997
161 0.001972
165 0.001963
169 0.0
172 0.001001
172 0.002049
174 0.002007
174 0.001988
169 0.001997
79 0.00198
35 0.001955
50 0.001995
76 0.001995
104 0.001982
124 0.002992
129 0.004023
127 0.004028
129 0.002992
136 0.003989
147 0.003996
151 0.003958
155 0.003988
161 0.004035
166 0.004078
168 0.004018
170 0.003992
163 0.026926
116 0.000999
19 0.0
51 0.005997
78 0.005019
90 0.004982
110 0.005133
114 0.005027
114 0.004986
122 0.005017
130 0.004987
146 0.005983
152 0.006984
156 0.003982
159 0.007979
161 0.004994
163 0.00795
160 0.007956
97 0.00793
9 0.006981
0 0.007029
24 0.006959
48 0.003025
60 0.006981
89 0.001984
102 0.001997
104 0.001997
115 0.001986
124 0.002965
142 0.002005
155 0.001033
161 0.000997
169 0.001964
174 0.003969
178 0.0
182 0.00398
184 0.001005
187 0.002999
189 0.003023
183 0.003026
78 0.002987
30 0.002992
42 0.003026
77 0.002001
89 0.002999
109 0.001985
119 0.001049
122 0.001041
125 0.000994
132 0.000994
147 0.000998
158 0.000964
163 0.000997
169 0.000997
170 0.001998
171 0.000998
173 0.001999
174 0.0
111 0.0
32 0.001031
37 0.001
74 0.000998
92 0.000999
114 0.000963
125 0.000998
128 0.000996
128 0.001996
135 0.000999
146 0.001006
158 0.001999
163 0.002025
169 0.001953
172 0.002989
174 0.002992
176 0.002971
165 0.002978
48 0.003
18 0.003969
34 0.003991
65 0.003963
86 0.003958
100 0.003989
113 0.005005
115 0.003976
121 0.005006
132 0.00499
145 0.00499
153 0.00503
160 0.004963
165 0.004957
169 0.003974
170 0.004992
172 0.006004
174 0.005952
174 0.005956
94 0.005026
26 0.005988
10 0.005004
39 0.005037
56 0.005957
76 0.004081
94 0.003991
114 0.003987
119 0.007978
127 0.002975
138 0.006932
154 0.007012
161 0.006014
169 0.005997
172 0.00601
176 0.005984
180 0.00099
181 0.006019
184 0.000937
188 0.001001
188 0.001044
162 0.000968
85 0.00196
28 0.000998
61 0.001976
86 0.00197
105 0.001047
125 0.0
132 0.000963
131 0.000966
135 0.000968
143 0.000966
154 0.00197
157 0.002001
164 0.001979
170 0.00204
174 0.002006
175 0.002021
176 0.002972
164 0.013964
127 0.000996
74 0.000997
75 0.001934
116 0.003996
134 0.00402
137 0.004016
135 0.005985
139 0.005977
147 0.005953
156 0.004986
163 0.005993
167 0.00598
170 0.003954
171 0.004976
173 0.004957
133 0.007975
30 0.00399
11 0.007982
43 0.00795
63 0.007949
87 0.007965
102 0.007978
116 0.007952
117 0.001994
121 0.006019
133 0.000996
147 0.000977
153 0.001004
160 0.0
164 0.000959
170 0.0
173 0.0
172 0.000968
78 0.000966
11 0.003022
18 0.002027
50 0.001971
79 0.0
95 0.0
119 0.000977
124 0.0
127 0.000964
135 0.00097
146 0.001984
156 0.002032
164 0.002961
169 0.002987
174 0.002965
176 0.004027
179 0.002977
183 0.004021
184 0.003034
157 0.002992
38 0.005954
26 0.005021
63 0.00598
80 0.005982
114 0.005023
129 0.004985
134 0.004994
130 0.003993
132 0.007979
141 0.001989
150 0.006981
159 0.001985
165 0.006016
169 0.00597
171 0.005983
174 0.00599
131 0.000999
51 0.004989
20 0.000998
41 0.000972
82 0.00197
110 0.000975
123 0.001971
130 0.001994
127 0.002983
131 0.000996
141 0.00299
150 0.001965
157 0.002984
162 0.00199
166 0.0
169 0.000973
168 0.000968
98 0.002
10 0.001993
10 0.001999
31 0.002011
62 0.002992
76 0.001999
103 0.00304
114 0.002998
114 0.002987
121 0.002933
131 0.003025
145 0.00299
156 0.003024
160 0.003023
165 0.002023
168 0.005021
171 0.003988
109 0.004961
27 0.005
0 0.004957
25 0.005013
52 0.004976
72 0.005014
95 0.004965
110 0.004013
112 0.005014
114 0.005018
129 0.004991
144 0.004994
156 0.007008
165 0.004973
172 0.006987
177 0.005078
181 0.003987
185 0.003958
188 0.004988
187 0.002992
143 0.002992
28 0.001979
22 0.002958
60 0.001998
90 0.005984
109 0.002113
127 0.005991
133 0.002003
131 0.005983
137 0.005985
140 0.002038
160 0.001005
171 0.0
175 0.003974
180 0.0
182 0.003989
185 0.00097
186 0.0
184 0.000973
91 0.001967
30 0.001985
45 0.000977
94 0.002034
112 0.001995
136 0.002017
144 0.00297
143 0.003007
143 0.001977
147 0.001996
159 0.001969
167 0.001977
170 0.002032
176 0.002012
179 0.002021
181 0.001999
177 0.002003
100 0.001006
26 0.001966
38 0.001968
64 0.001963
98 0.000956
113 0.001
131 0.0
132 0.0
134 0.0
143 0.001027
151 0.000969
160 0.000998
168 0.001031
171 0.000961
175 0.002001
176 0.002035
171 0.003035
78 0.003022
12 0.003023
18 0.002973
56 0.003024
72 0.003043
98 0.002965
117 0.00396
120 0.004029
125 0.003012
131 0.004009
146 0.005025
159 0.004024
165 0.004997
169 0.004962
174 0.004989
176 0.004987
179 0.004953
165 0.004981
39 0.004988
10 0.005017
31 0.004987
62 0.005031
82 0.00593
103 0.006012
121 0.005989
124 0.005993
127 0.006023
135 0.006058
148 0.005985
158 0.003961
164 0.006996
169 0.003998
173 0.002991
174 0.003957
178 0.002997
180 0.002996
183 0.003987
182 0.002992
142 0.003001
24 0.002988
21 0.005964
54 0.002032
86 0.005983
105 0.001996
122 0.006019
132 0.005985
131 0.004988
139 0.004999
147 0.004987
158 0.004955
165 0.001965
170 0.002985
173 0.001963
178 0.001972
179 0.002006
183 0.002949
184 0.002969
186 0.00198
168 0.002005
97 0.001988
32 0.001996
46 0.001997
95 0.001991
122 0.001994
134 0.002046
141 0.001008
139 0.002002
141 0.001028
151 0.000949
156 0.001994
163 0.0
167 0.001997
168 0.0
171 0.001935
174 0.002041
175 0.000999
131 0.002027
38 0.003987
39 0.002965
84 0.004962
106 0.00595
125 0.005977
139 0.004993
141 0.004992
140 0.005959
144 0.003992
150 0.003984
158 0.003986
162 0.007016
167 0.00097
172 0.00596
173 0.021906
174 0.002035
175 0.002031
101 0.001992
32 0.004033
74 0.0
92 0.004026
114 0.002019
122 0.002986
126 0.002012
128 0.002966
135 0.001994
147 0.001999
154 0.001004
158 0.002007
163 0.0
165 0.0
167 0.0
123 0.0
39 0.0
4 0.002031
28 0.001971
54 0.002999
73 0.003989
100 0.003989
107 0.00299
111 0.003874
114 0.003955
127 0.004023
142 0.004021
150 0.003948
159 0.003951
163 0.003989
168 0.003989
174 0.00498
170 0.00596
64 0.005985
18 0.004966
25 0.005975
62 0.00595
77 0.005957
107 0.004986
117 0.007015
119 0.004019
121 0.006981
127 0.00398
139 0.007009
154 0.006977
160 0.00698
168 0.006983
172 0.002986
174 0.00698
175 0.002003
176 0.006015
115 0.001042
27 0.000998
32 0.001
73 0.001093
102 0.000997
117 0.000994
128 0.001001
124 0.00103
123 0.001
132 0.004988
144 0.001971
154 0.004026
163 0.002991
166 0.002974
170 0.002023
172 0.002032
156 0.001986
58 0.001028
22 0.001028
39 0.001002
75 0.0
89 0.0
115 0.0
121 0.0
118 0.0
123 0.000951
133 0.000963
147 0.00198
158 0.00196
163 0.001995
169 0.002026
172 0.001945
174 0.002963
143 0.002992
56 0.003983
9 0.003982
25 0.004972
47 0.004929
59 0.005984
74 0.004943
101 0.005991
106 0.006975
107 0.007
123 0.006942
140 0.00399
152 0.006985
162 0.004017
167 0.007945
172 0.002963
175 0.001994
178 0.001995
180 0.001994
170 0.001051
96 0.001005
12 0.002962
14 0.001995
39 0.001994
50 0.005
67 0.0
93 0.004023
109 0.002994
111 0.002996
120 0.003041
131 0.003046
149 0.001998
163 0.001995
168 0.001996
177 0.002015
180 0.002993
182 0.0
189 0.000997
192 0.002021
194 0.002077
197 0.001028
199 0.0
201 0.0
190 0.0
70 0.0
28 0.000998
45 0.000998
80 0.002004
96 0.002019
115 0.002841
128 0.002018
131 0.002998
134 0.002997
146 0.004021
155 0.004022
167 0.004997
176 0.004978
180 0.005014
184 0.00399
186 0.004963
187 0.004951
190 0.004998
191 0.004996
165 0.004999
57 0.004992
43 0.004998
74 0.003988
105 0.00697
123 0.001002
140 0.004987
148 0.006006
147 0.004002
151 0.004016
157 0.004
166 0.003023
170 0.001962
174 0.00301
178 0.00202
181 0.004026
181 0.001986
109 0.002002
61 0.002991
43 0.002012
81 0.002988
94 0.00296
118 0.002031
130 0.001029
140 0.000976
141 0.0
144 0.0
154 0.0
162 0.000973
166 0.0
171 0.0
173 0.001013
174 0.000995
124 0.002033
29 0.002992
18 0.002997
52 0.002956
71 0.002987
92 0.002896
107 0.004025
123 0.004002
126 0.004991
130 0.005012
143 0.004987
154 0.005997
158 0.005979
164 0.005987
168 0.005956
172 0.005857
151 0.004964
70 0.004979
9 0.004991
18 0.004985
50 0.004996
72 0.007023
90 0.004994
116 0.006915
123 0.007979
126 0.007974
136 0.007025
144 0.007949
157 0.006985
166 0.002948
170 0.006985
175 0.000999
178 0.000975
162 0.001105
38 0.001996
14 0.000998
28 0.00297
65 0.003025
86 0.001997
107 0.002996
126 0.001997
129 0.00199
135 0.001007
144 0.001012
156 0.0
166 0.0
173 0.001012
179 0.000975
183 0.000997
186 0.000998
189 0.000968
191 0.000998
171 0.001991
49 0.001995
31 0.002993
66 0.003
106 0.003024
122 0.003023
141 0.003992
147 0.004979
148 0.005012
154 0.005001
160 0.005014
169 0.004952
175 0.004987
179 0.004998
183 0.004955
185 0.004985
186 0.005921
182 0.006985
143 0.006998
47 0.007954
55 0.004013
93 0.007954
102 0.0
129 0.001979
147 0.002008
151 0.001998
152 0.000972
157 0.001029
164 0.000992
168 0.000999
171 0.001022
174 0.001997
177 0.001962
179 0.005986
148 0.002002
55 0.005003
37 0.003987
63 0.003985
105 0.003952
120 0.003989
136 0.00496
141 0.002028
142 0.001995
145 0.001976
152 0.001995
157 0.002025
164 0.002014
168 0.002027
171 0.001986
169 0.001995
132 0.002036
25 0.002015
20 0.001972
62 0.001
97 0.000969
113 0.000999
131 0.001002
138 0.000997
139 0.001
146 0.0
150 0.000971
159 0.000998
164 0.00089
168 0.000974
172 0.000999
170 0.001997
107 0.001989
20 0.001003
27 0.002027
69 0.000999
101 0.002993
116 0.001973
130 0.003014
132 0.003022
136 0.003026
145 0.003954
151 0.004022
160 0.005037
168 0.004949
170 0.004998
173 0.004986
176 0.004983
135 0.005004
31 0.006023
29 0.005953
74 0.006018
103 0.003988
122 0.006978
134 0.003983
137 0.00797
138 0.003996
145 0.002964
152 0.003018
160 0.001991
167 0.001972
169 0.001962
173 0.001008
174 0.000998
141 0.002031
54 0.00395
41 0.000999
76 0.00404
114 0.003991
128 0.004965
140 0.003987
143 0.003996
142 0.003989
148 0.001973
152 0.003992
160 0.000998
162 0.002984
166 0.001995
168 0.001987
147 0.001997
35 0.001995
43 0.001961
71 0.002007
107 0.001995
122 0.002032
134 0.001987
135 0.00203
135 0.002036
143 0.002002
148 0.000999
156 0.0
160 0.0
165 0.0
141 0.0
39 0.0
9 0.0
31 0.0
62 0.000965
85 0.000969
110 0.0
115 0.0
117 0.0
121 0.000953
133 0.002003
145 0.001995
152 0.001995
158 0.001994
159 0.002048
110 0.002063
32 0.012998
5 0.001979
38 0.003023
64 0.002999
82 0.003994
105 0.003984
111 0.004907
115 0.004984
124 0.004981
137 0.004979
150 0.004979
161 0.004035
165 0.004988
172 0.005974
170 0.005992
70 0.005988
20 0.004986
32 0.006981
61 0.00499
90 0.003957
108 0.004987
126 0.003972
129 0.003984
132 0.004018
145 0.00296
154 0.002018
168 0.002986
175 0.007016
180 0.00198
184 0.006962
186 0.001995
190 0.006031
189 0.00695
153 0.005004
40 0.005023
47 0.002021
73 0.003033
109 0.002016
124 0.002016
140 0.002024
136 0.000965
135 0.001963
143 0.001029
157 0.001948
165 0.001962
172 0.0
176 0.0
180 0.000999
183 0.000954
181 0.001009
92 0.001982
32 0.001989
42 0.002001
76 0.002973
102 0.002988
123 0.003027
136 0.002991
136 0.003002
137 0.002992
149 0.003978
157 0.003941
167 0.003977
170 0.0
177 0.004017
180 0.00598
182 0.004986
179 0.005983
104 0.004943
32 0.004035
18 0.003968
44 0.006982
66 0.001979
84 0.007952
107 0.002966
119 0.006001
122 0.006012
127 0.006012
142 0.003984
156 0.000997
164 0.004014
171 0.002049
175 0.002968
179 0.002046
183 0.001995
184 0.002019
131 0.002991
30 0.002036
13 0.001997
40 0.001962
62 0.0
91 0.0
120 0.0
130 0.0
134 0.0
142 0.000998
150 0.000998
164 0.001993
173 0.002993
178 0.002988
183 0.002044
186 0.003036
189 0.003984
192 0.004014
194 0.003989
192 0.003983
161 0.003957
40 0.004017
40 0.004012
68 0.003999
109 0.004006
124 0.005022
143 0.004985
144 0.004991
142 0.00501
147 0.004995
158 0.00494
167 0.004974
172 0.004984
175 0.003989
179 0.004006
183 0.00697
184 0.004001
165 0.007938
45 0.007024
28 0.007959
58 0.007004
88 0.007068
121 0.007012
140 0.001993
146 0.006977
143 0.002045
147 0.001965
153 0.002001
165 0.0
169 0.000999
175 0.001013
178 0.000982
180 0.001964
167 0.000976
59 0.002982
8 0.001959
19 0.002991
47 0.002951
83 0.002994
112 0.001968
124 0.001985
129 0.001995
129 0.002028
136 0.001994
149 0.001964
155 0.001959
165 0.000998
172 0.001962
174 0.002009
175 0.002054
158 0.001998
25 0.000991
4 0.000997
23 0.00199
62 0.001986
90 0.001991
108 0.001982
122 0.001995
123 0.001995
128 0.001962
141 0.002991
153 0.002999
163 0.003989
173 0.00398
176 0.002983
182 0.005012
184 0.00498
167 0.004996
35 0.004996
13 0.004987
39 0.005021
67 0.003987
99 0.004979
124 0.004999
130 0.004994
130 0.005001
134 0.003996
142 0.003998
157 0.004
164 0.005033
173 0.003968
178 0.007979
182 0.00495
185 0.00804
166 0.00797
82 0.007981
25 0.007963
39 0.007982
79 0.006943
115 0.002993
130 0.006026
143 0.001962
136 0.001036
137 0.00203
147 0.002011
158 0.001986
165 0.001991
172 0.001995
176 0.002031
179 0.000994
177 0.000998
126 0.000962
17 0.000965
27 0.001968
57 0.0
93 0.001996
110 0.001996
128 0.0
128 0.000949
126 0.001949
133 0.001994
146 0.002015
157 0.001922
166 0.002992
170 0.00303
176 0.001998
178 0.003981
164 0.004987
26 0.004994
1 0.004998
12 0.003976
50 0.003983
66 0.003997
95 0.005026
115 0.003982
116 0.003989
119 0.003989
134 0.007975
145 0.002995
158 0.00795
166 0.004006
171 0.007017
177 0.006991
180 0.006986
180 0.007017
135 0.00798
14 0.006975
16 0.001023
40 0.005983
75 0.000967
105 0.001006
121 0.001969
129 0.001993
130 0.001994
138 0.001989
152 0.005036
164 0.001973
173 0.004986
179 0.0
183 0.004963
188 0.004954
189 0.005014
193 0.004976
194 0.001011
176 0.002987
64 0.002069
27 0.0
49 0.0
96 0.001014
112 0.0
136 0.0
144 0.0
139 0.0
142 0.000802
150 0.0
163 0.0
172 0.000975
176 0.000999
181 0.000965
185 0.000998
186 0.001
168 0.0
92 0.000998
30 0.000998
54 0.0
92 0.001001
117 0.001966
137 0.002001
147 0.000997
144 0.0
145 0.003005
154 0.00399
166 0.003999
170 0.004008
176 0.003982
178 0.004989
183 0.004989
180 0.004983
138 0.004983
32 0.004981
19 0.004919
53 0.005018
82 0.00502
97 0.004004
121 0.002964
130 0.006972
131 0.002102
135 0.006976
148 0.007016
156 0.00702
165 0.00599
169 0.005991
175 0.006019
178 0.002018
176 0.005976
76 0.000968
9 0.000949
17 0.0
56 0.001956
74 0.00095
101 0.002992
121 0.000962
125 0.001991
127 0.002022
136 0.001972
146 0.003019
160 0.000995
171 0.000998
175 0.000998
181 0.000971
183 0.000987
186 0.001005
155 0.0
47 0.000999
22 0.000966
49 0.000969
85 0.000998
112 0.0
126 0.0
137 0.001995
136 0.001978
139 0.001984
151 0.002981
159 0.003977
170 0.003992
176 0.003024
179 0.002985
182 0.003023
185 0.004984
173 0.004987
81 0.004986
35 0.004988
50 0.004987
99 0.005033
117 0.004991
141 0.006978
147 0.007974
146 0.007014
146 0.007897
152 0.007975
161 0.002994
169 0.002024
173 0.001994
178 0.001996
182 0.002999
180 0.001993
94 0.0
23 0.003033
23 0.002001
68 0.003035
102 0.001996
118 0.001996
135 0.0
135 0.001971
134 0.0
141 0.0
151 0.0
158 0.002047
166 0.000966
170 0.0
174 0.000963
175 0.001997
108 0.002986
8 0.003004
10 0.003017
48 0.002993
69 0.003037
97 0.00299
120 0.002989
123 0.003983
125 0.003982
134 0.003991
143 0.003979
155 0.004995
161 0.004994
166 0.00497
171 0.004023
174 0.004025
176 0.005979
156 0.005029
27 0.006021
16 0.004961
39 0.006982
82 0.005974
106 0.005018
126 0.007982
134 0.001968
134 0.002025
137 0.002026
149 0.001012
158 0.001963
168 0.001003
175 0.001992
177 0.001984
183 0.0
186 0.004018
185 0.0
134 0.003003
41 0.001959
35 0.002024
83 0.002
108 0.0
133 0.001
145 0.0
146 0.0
141 0.000967
150 0.001995
155 0.000999
166 0.001998
170 0.002993
176 0.003025
179 0.003995
181 0.003989
149 0.003995
38 0.003994
30 0.004013
73 0.003058
99 0.003962
127 0.004006
141 0.005985
145 0.00496
143 0.005983
148 0.00699
154 0.004072
163 0.007942
168 0.004069
173 0.007001
176 0.00798
178 0.007978
163 0.007011
36 0.001973
10 0.005984
37 0.002005
64 0.007012
95 0.001994
119 0.001993
127 0.001998
126 0.000967
133 0.000976
140 0.001946
150 0.00399
159 0.000975
165 0.004962
170 0.004009
173 0.003028
166 0.001999
70 0.002028
10 0.001036
19 0.001
62 0.001996
82 0.001967
109 0.001995
122 0.002008
125 0.002061
128 0.002044
136 0.003018
152 0.002999
162 0.003014
168 0.003055
176 0.004979
180 0.004999
181 0.005018
142 0.005001
56 0.004981
22 0.004947
45 0.003988
95 0.004964
119 0.006
133 0.004987
145 0.005961
142 0.00695
144 0.006986
155 0.006991
162 0.00696
170 0.006986
175 0.005027
180 0.006946
183 0.004023
180 0.007002
110 0.002986
34 0.002026
46 0.002048
97 0.002136
129 0.001997
141 0.002029
147 0.002982
143 0.005986
145 0.002998
154 0.005035
162 0.001969
168 0.003997
176 0.004022
177 0.003992
172 0.004004
125 0.004966
25 0.008945
33 0.002964
73 0.002029
103 0.001992
130 0.001997
138 0.002036
138 0.002009
137 0.0
144 0.0
157 0.001015
162 0.000998
170 0.0
174 0.000965
173 0.001982
65 0.0
9 0.001989
22 0.001961
66 0.00206
85 0.002968
113 0.002986
126 0.004021
129 0.004005
130 0.004987
141 0.005952
149 0.006027
161 0.00693
166 0.004924
172 0.006003
174 0.004986
121 0.007033
22 0.003989
16 0.003962
38 0.00301
77 0.001982
96 0.002964
122 0.001989
128 0.00196
131 0.002027
138 0.002976
149 0.006981
160 0.00295
168 0.006998
173 0.001995
177 0.005989
182 0.006015
175 0.005983
58 0.002992
24 0.00698
48 0.00101
93 0.001996
111 0.001986
134 0.002054
136 0.002982
133 0.001995
136 0.002955
147 0.001022
155 0.001024
166 0.001941
170 0.0
175 0.0
176 0.0
151 0.0
37 0.0
28 0.0
68 0.0
101 0.000992
125 0.000956
139 0.0
139 0.002005
137 0.00199
145 0.003018
157 0.003981
164 0.00398
172 0.004019
175 0.004021
179 0.002995
135 0.003989
50 0.003993
19 0.00405
57 0.003961
78 0.00299
108 0.004003
122 0.003025
129 0.002993
128 0.007972
133 0.002983
144 0.007978
158 0.006025
165 0.00699
172 0.007014
176 0.00696
128 0.006981
16 0.001992
9 0.005951
39 0.001995
67 0.000999
86 0.0
113 0.00101
119 0.001945
120 0.00304
133 0.000962
143 0.00203
158 0.003033
167 0.000991
172 0.001988
177 0.001977
174 0.001997
56 0.002003
16 0.001982
31 0.00197
67 0.000958
90 0.0
116 0.001
130 0.000966
132 0.000961
133 0.001048
147 0.001997
156 0.000999
171 0.001958
179 0.002998
183 0.002987
189 0.003002
192 0.002997
190 0.004963
87 0.003974
36 0.003939
44 0.004016
89 0.003955
107 0.003958
135 0.003962
142 0.00399
140 0.003952
141 0.006983
149 0.003984
162 0.007979
175 0.007972
177 0.007993
183 0.006976
187 0.000964
183 0.004997
79 0.0
37 0.005958
53 0.000966
99 0.0
118 0.000967
142 0.000955
147 0.002024
143 0.001982
148 0.000952
155 0.002028
166 0.002971
176 0.002986
179 0.002019
184 0.002962
186 0.002027
163 0.002954
52 0.002149
22 0.002005
43 0.002021
84 0.001026
101 0.002975
128 0.0
136 0.000976
136 0.0
141 0.001969
149 0.0
163 0.002023
172 0.001996
177 0.002002
181 0.002004
184 0.002
119 0.00401
19 0.004983
16 0.004957
48 0.002971
76 0.007982
98 0.002999
122 0.007964
133 0.00698
134 0.00793
144 0.007972
149 0.007974
163 0.00696
172 0.002012
177 0.006993
181 0.001993
184 0.000976
183 0.002027
77 0.000967
17 0.003058
23 0.002993
64 0.001995
86 0.00103
115 0.001957
135 0.00197
140 0.001971
142 0.001997
153 0.0
161 0.0
172 0.0
177 0.0
183 0.001024
187 0.0
189 0.0
190 0.000999
184 0.000986
97 0.002044
34 0.002002
52 0.001964
102 0.003024
131 0.002995
144 0.003026
154 0.003026
152 0.005001
155 0.004991
164 0.005032
167 0.003991
175 0.004983
181 0.005016
185 0.004974
186 0.003988
182 0.00698
140 0.003981
56 0.007977
64 0.006983
94 0.005964
131 0.006028
145 0.006068
156 0.005975
157 0.001039
156 0.005991
161 0.000997
167 0.002993
169 0.001995
173 0.002992
174 0.002992
175 0.001995
126 0.001962
53 0.002001
38 0.002006
87 0.001956
110 0.00199
133 0.002007
141 0.001971
143 0.000953
143 0.000968
145 0.0
154 0.002001
159 0.001997
164 0.001987
165 0.00302
164 0.002028
94 0.002985
1 0.003044
4 0.003026
46 0.001993
82 0.002959
99 0.004016
116 0.005985
117 0.00497
117 0.00499
127 0.00503
137 0.004
150 0.002962
157 0.006983
162 0.001998
161 0.006981
51 0.006992
3 0.005986
1 0.023902
28 0.001995
74 0.00295
98 0.001981
116 0.001994
120 0.002017
122 0.001991
126 0.002015
140 0.001995
152 0.002028
157 0.002028
163 0.0
166 0.001
82 0.000972
8 0.000968
15 0.000968
56 0.000967
89 0.000953
108 0.000999
122 0.000972
123 0.001965
128 0.0
139 0.001007
151 0.002005
162 0.003025
171 0.00397
175 0.004002
180 0.005021
180 0.004021
85 0.005021
22 0.004965
35 0.004976
79 0.004982
102 0.005014
128 0.003989
133 0.004993
129 0.004928
132 0.004984
144 0.005969
151 0.00598
163 0.004986
169 0.005005
176 0.004041
175 0.006939
137 0.002992
33 0.00797
34 0.006983
61 0.00599
106 0.004997
137 0.000965
143 0.004989
140 0.001005
139 0.003984
147 0.002988
161 0.001998
166 0.002985
176 0.002957
180 0.00203
166 0.002957
46 0.002008
23 0.001969
48 0.001955
89 0.001952
108 0.0
133 0.003031
133 0.000997
130 0.001033
137 0.001963
146 0.001993
160 0.001998
167 0.001974
174 0.002984
154 0.003935
26 0.002992
6 0.002988
27 0.004003
57 0.005012
73 0.006018
101 0.005021
115 0.005024
113 0.005007
119 0.004971
131 0.003943
150 0.003026
164 0.002985
171 0.002943
172 0.002987
109 0.001999
8 0.002019
8 0.006919
28 0.003992
45 0.005976
77 0.005964
99 0.005985
112 0.0
110 0.004022
120 0.002031
142 0.002015
153 0.001994
167 0.001965
174 0.002993
182 0.002965
178 0.001988
105 0.001988
10 0.002
14 0.002025
30 0.00298
52 0.001987
73 0.00199
107 0.002995
112 0.003008
112 0.0
127 0.000999
146 0.000998
161 0.001951
172 0.002014
182 0.002992
187 0.002993
194 0.002943
197 0.002956
201 0.004026
203 0.004956
169 0.005993
49 0.003995
20 0.00495
37 0.005005
70 0.003955
85 0.004006
117 0.003987
129 0.002984
127 0.001991
133 0.003165
151 0.007979
164 0.001992
174 0.003005
185 0.001954
192 0.006045
197 0.006983
199 0.006983
203 0.004965
206 0.000968
208 0.005035
162 0.0
75 0.004983
44 0.002009
87 0.001981
111 0.000964
141 0.00302
156 0.001962
156 0.001963
153 0.001988
156 0.002979
169 0.002976
178 0.002968
183 0.002994
189 0.001998
194 0.003043
196 0.001996
197 0.001984
182 0.002019
62 0.0
40 0.000997
68 0.000985
106 0.00198
135 0.002992
149 0.003025
157 0.002955
154 0.002958
154 0.002992
166 0.004009
173 0.00401
180 0.002992
186 0.004995
188 0.005006
187 0.004982
142 0.00496
30 0.004983
37 0.004992
64 0.004951
100 0.004016
116 0.004993
135 0.004943
143 0.004987
141 0.004951
148 0.006018
161 0.005946
167 0.004988
176 0.005984
178 0.006008
182 0.005998
137 0.004984
46 0.004964
8 0.004952
27 0.006936
57 0.002992
86 0.002992
104 0.00192
128 0.002994
131 0.006978
134 0.001969
142 0.007948
154 0.001982
163 0.006009
171 0.005983
176 0.005039
181 0.005959
103 0.002956
28 0.004021
11 0.002042
30 0.004986
61 0.002994
91 0.001995
110 0.00195
127 0.002056
130 0.001022
133 0.00096
147 0.0
162 0.00098
169 0.0
178 0.0
184 0.001009
189 0.0
163 0.0
73 0.000975
21 0.000998
34 0.000999
77 0.000962
102 0.000998
125 0.0
136 0.0
133 0.003003
135 0.001993
148 0.002994
156 0.003025
169 0.00204
179 0.003985
183 0.005058
186 0.004969
167 0.004985
90 0.00398
36 0.004965
44 0.003943
92 0.004955
129 0.003989
143 0.002992
151 0.003965
145 0.006989
148 0.00399
159 0.007009
166 0.002991
175 0.006929
180 0.007967
183 0.007966
180 0.007979
95 0.006008
37 0.019947
40 0.002969
88 0.007965
116 0.001941
141 0.001993
144 0.0
139 0.001988
139 0.001966
150 0.0
162 0.001967
169 0.003
177 0.001971
180 0.0
123 0.0
24 0.005981
12 0.003009
38 0.004979
73 0.004017
91 0.00499
118 0.00411
122 0.003982
119 0.004
129 0.002001
138 0.004036
155 0.003024
165 0.002021
170 0.002025
171 0.001972
114 0.001995
5 0.001997
8 0.001987
26 0.002005
52 0.001004
86 0.0
104 0.0
113 0.000984
113 0.0
125 0.001002
145 0.0
156 0.000972
170 0.000936
175 0.0
181 0.000967
136 0.000967
46 0.000965
6 0.002015
17 0.000998
46 0.002011
74 0.004023
103 0.004955
117 0.004989
121 0.004968
124 0.004992
141 0.003008
167 0.005027
177 0.005016
186 0.002978
191 0.007979
196 0.003036
198 0.005978
200 0.001996
184 0.005957
50 0.005022
25 0.005017
49 0.004987
88 0.00097
104 0.005019
133 0.00201
141 0.004981
140 0.001995
146 0.000999
156 0.001995
173 0.001019
181 0.003025
189 0.002974
195 0.002028
197 0.002984
200 0.001981
179 0.001985
98 0.002948
43 0.003021
78 0.002992
105 0.003035
136 0.000978
151 0.0
159 0.000965
155 0.000991
157 0.000877
165 0.002035
174 0.001007
181 0.001998
186 0.001999
188 0.001968
191 0.001995
167 0.001986
84 0.003025
29 0.003024
53 0.00497
82 0.00402
120 0.004984
135 0.003965
145 0.004984
143 0.005018
146 0.004992
157 0.003979
169 0.007974
175 0.002007
180 0.007979
184 0.002993
188 0.00701
176 0.00798
71 0.006972
19 0.007998
26 0.007973
68 0.006983
102 0.0
118 0.005022
135 0.000968
137 0.0
139 0.00098
148 0.001031
162 0.002007
166 0.002992
175 0.002957
178 0.003095
182 0.001991
180 0.002012
133 0.0
20 0.000992
29 0.0
59 0.0
96 0.001985
118 0.001995
135 0.002019
140 0.013963
141 0.002993
148 0.003027
162 0.002994
168 0.004037
177 0.004002
183 0.004963
187 0.00498
190 0.004027
190 0.004965
106 0.004957
34 0.004941
37 0.003989
87 0.002996
118 0.007978
139 0.002992
151 0.007979
155 0.005985
155 0.006008
162 0.00601
167 0.004976
175 0.004981
181 0.001013
184 0.004996
187 0.002002
188 0.000999
185 0.002015
104 0.002084
49 0.002063
63 0.001992
112 0.002996
131 0.002992
151 0.001979
156 0.002981
155 0.002965
155 0.002021
158 0.002025
164 0.001999
171 0.001995
173 0.002965
178 0.002981
179 0.0
123 0.000962
43 0.0
46 0.000998
84 0.000998
120 0.000999
136 0.000999
148 0.003024
151 0.001987
151 0.003045
156 0.002957
159 0.002959
166 0.002962
170 0.002989
173 0.00398
145 0.005018
40 0.003994
14 0.003994
39 0.004019
67 0.003983
99 0.003979
119 0.007978
128 0.002951
128 0.008001
133 0.007969
142 0.007981
153 0.006021
159 0.005999
165 0.004957
157 0.0
88 0.004988
6 0.0
23 0.000997
45 0.001994
75 0.003045
96 0.002031
117 0.002003
121 0.002027
125 0.00296
137 0.001989
142 0.002994
156 0.001983
165 0.002028
168 0.002024
110 0.001991
13 0.002004
11 0.002006
44 0.0
71 0.002032
101 0.002991
123 0.002994
128 0.003986
130 0.004994
138 0.004986
146 0.00502
158 0.003988
169 0.004995
173 0.004988
177 0.003989
103 0.005991
36 0.005056
24 0.003994
43 0.004082
85 0.002998
116 0.002985
127 0.002992
128 0.002051
124 0.005998
132 0.00199
146 0.005953
155 0.0
164 0.006018
174 0.005989
175 0.005979
139 0.004985
30 0.001013
26 0.003989
53 0.002967
95 0.002001
118 0.001995
138 0.001994
140 0.0
136 0.002989
143 0.002026
151 0.002006
163 0.003025
172 0.0
177 0.0
152 0.0
67 0.000977
19 0.0
39 0.0
69 0.0
95 0.0
118 0.002027
126 0.00196
123 0.001999
125 0.003025
140 0.002992
154 0.00197
164 0.002025
172 0.002993
175 0.003048
76 0.001995
8 0.002979
15 0.00401
46 0.003988
63 0.002996
98 0.003016
118 0.003989
118 0.004977
119 0.004985
132 0.004988
148 0.004997
160 0.004979
168 0.003989
178 0.006979
174 0.007999
134 0.007958
18 0.007984
24 0.002995
42 0.005954
71 0.0
104 0.002996
120 0.002991
128 0.002977
132 0.003024
140 0.002993
158 0.002981
169 0.001995
181 0.001995
190 0.002991
194 0.002991
198 0.0
162 0.000996
72 0.000946
32 0.002998
57 0.002986
89 0.002989
113 0.003001
136 0.002011
145 0.002941
141 0.00297
142 0.00298
157 0.003026
171 0.004052
178 0.004001
186 0.004055
191 0.004989
193 0.005015
146 0.004983
66 0.004982
40 0.002988
82 0.00299
105 0.003978
137 0.003949
148 0.002996
150 0.003129
148 0.006982
153 0.002993
162 0.005973
174 0.006039
180 0.006039
184 0.004985
188 0.005011
140 0.004026
28 0.00301
23 0.002947
49 0.00298
95 0.002024
116 0.003014
139 0.002996
144 0.001971
145 0.00206
152 0.001998
158 0.002023
169 0.002041
179 0.002976
183 0.001997
188 0.0
156 0.0
36 0.000965
34 0.000999
59 0.001992
98 0.001947
125 0.001991
142 0.00195
145 0.001968
143 0.001953
147 0.001995
159 0.00199
165 0.002994
175 0.004021
181 0.004008
157 0.003996
40 0.003032
29 0.004972
62 0.004992
107 0.004959
123 0.004985
149 0.004981
156 0.006947
156 0.004958
163 0.006966
169 0.00299
179 0.00797
186 0.007933
185 0.007947
124 0.00702
44 0.001996
53 0.005987
99 0.003013
124 0.005982
150 0.001996
159 0.002996
159 0.001006
156 0.002949
163 0.002996
177 0.002993
185 0.0
188 0.00097
145 0.0
60 0.003986
56 0.001999
95 0.004003
132 0.003032
154 0.003038
165 0.001973
165 0.002962
167 0.002993
171 0.00297
176 0.001959
182 0.001998
188 0.001963
179 0.001953
72 0.002998
62 0.002988
96 0.001997
125 0.002003
154 0.002978
166 0.003026
165 0.00304
164 0.002994
167 0.000951
171 0.00099
177 0.002056
180 0.000998
144 0.000873
49 0.000998
50 0.000998
100 0.000974
131 0.001996
148 0.001047
156 0.002004
157 0.003
159 0.002992
165 0.003989
169 0.003989
175 0.003874
170 0.004972
84 0.004987
29 0.004992
44 0.005949
85 0.003959
124 0.003982
138 0.003989
146 0.003965
142 0.002993
146 0.003004
158 0.002992
164 0.002995
169 0.003009
105 0.007967
33 0.001979
23 0.007976
45 0.002994
80 0.007986
115 0.007976
127 0.008017
129 0.006985
130 0.00199
136 0.005987
151 0.002992
157 0.005023
158 0.001004
48 0.0
13 0.000965
23 0.003018
61 0.001061
84 0.001993
111 0.002002
120 0.000966
119 0.000967
124 0.002001
135 0.002
147 0.002993
157 0.002992
163 0.002973
87 0.002029
7 0.003027
12 0.002024
48 0.003995
79 0.004942
108 0.006059
120 0.003913
119 0.00396
123 0.006032
139 0.002986
157 0.000992
167 0.000999
178 0.001996
184 0.002002
144 0.00197
42 0.004988
27 0.001998
55 0.002987
96 0.003028
120 0.002026
138 0.002966
138 0.002962
132 0.002968
140 0.002019
155 0.001995
166 0.0
180 0.0
185 0.001
190 0.000969
167 0.000973
49 0.002042
47 0.000997
74 0.001956
118 0.001953
147 0.001995
149 0.001002
145 0.001999
145 0.001996
155 0.001996
168 0.003985
176 0.003966
184 0.004992
186 0.006948
154 0.003991
37 0.005982
33 0.007961
58 0.007966
110 0.007946
130 0.007012
145 0.007978
142 0.002955
140 0.003945
140 0.001029
161 0.001996
171 0.001971
179 0.001995
184 0.000978
119 0.0
17 0.0
16 0.0
51 0.001999
78 0.002992
105 0.002961
124 0.002993
127 0.002991
125 0.002968
136 0.002994
148 0.00296
165 0.001947
175 0.001992
181 0.001955
159 0.001995
44 0.003041
9 0.001966
32 0.0
51 0.0
84 0.000971
117 0.001998
126 0.001999
126 0.001992
130 0.002032
147 0.002012
165 0.001996
172 0.001991
184 0.001042
188 0.001028
184 0.002997
51 0.00299
17 0.003971
25 0.004975
61 0.006982
83 0.001992
120 0.007949
137 0.007971
138 0.006933
138 0.007018
152 0.001969
163 0.006981
179 0.00095
186 0.005995
194 0.000997
199 0.002957
201 0.003005
200 0.000998
97 0.002994
37 0.002993
29 0.00198
71 0.002993
96 0.002993
130 0.000997
144 0.001
145 0.000997
138 0.0
144 0.001994
158 0.002992
174 0.003016
182 0.00297
190 0.003036
194 0.003025
198 0.00399
181 0.003025
95 0.003021
36 0.004984
67 0.004961
99 0.004019
136 0.004997
147 0.004982
158 0.004008
152 0.002987
152 0.003994
162 0.003001
175 0.00799
180 0.003989
186 0.006989
191 0.007007
193 0.006978
147 0.006975
56 0.006995
20 0.00699
56 0.002048
84 0.00798
120 0.001012
136 0.005942
144 0.002009
140 0.000997
143 0.001993
157 0.000965
169 0.001969
176 0.002009
180 0.001998
185 0.002026
184 0.002992
58 0.00295
13 0.002963
17 0.002946
59 0.001956
80 0.001996
114 0.003005
126 0.003033
130 0.001995
131 0.002999
139 0.003015
152 0.0
166 0.000995
172 0.0
179 0.0
182 0.001998
173 0.001996
38 0.001033
6 0.002015
24 0.001995
52 0.001996
94 0.003039
128 0.001972
138 0.002991
141 0.002995
145 0.002993
152 0.004
166 0.003993
174 0.003994
181 0.00397
186 0.003876
189 0.003984
190 0.004033
96 0.004987
66 0.002025
22 0.002018
36 0.0
106 0.004989
133 0.00501
146 0.006013
147 0.005
142 0.006007
145 0.003997
159 0.003953
166 0.004032
176 0.003957
180 0.00399
185 0.002997
181 0.00296
122 0.002004
24 0.003025
33 0.005941
74 0.0
111 0.005986
139 0.004985
144 0.002984
138 0.00199
137 0.002953
144 0.001994
154 0.002994
162 0.002962
169 0.001965
175 0.001972
174 0.001964
59 0.00296
8 0.001961
24 0.0
72 0.000962
96 0.000959
127 0.0
133 0.001014
128 0.001996
129 0.002971
140 0.002922
151 0.003966
160 0.003987
169 0.004986
173 0.004023
101 0.004976
21 0.004981
0 0.004994
39 0.004986
63 0.004028
91 0.003947
117 0.003989
120 0.003991
115 0.002028
120 0.00302
138 0.004029
154 0.001984
162 0.002954
172 0.002002
176 0.005985
98 0.000968
8 0.00695
0 0.000959
26 0.004964
61 0.004982
82 0.003994
114 0.002973
120 0.002038
118 0.001987
125 0.001994
143 0.002046
153 0.002031
167 0.002989
174 0.002966
182 0.0
187 0.0
183 0.0
50 0.0
9 0.0
20 0.0
61 0.000999
82 0.000959
117 0.001958
133 0.002996
133 0.003948
132 0.003991
146 0.005975
156 0.003986
173 0.006964
184 0.006942
188 0.007017
195 0.007855
197 0.007015
198 0.007983
196 0.002993
107 0.007011
29 0.003046
32 0.007958
70 0.001982
110 0.00197
129 0.002004
147 0.002925
143 0.001951
142 0.003002
153 0.0
162 0.0
173 0.002035
180 0.003943
185 0.001997
188 0.004988
190 0.003989
191 0.003989
133 0.00399
50 0.00399
30 0.001991
38 0.033873
47 0.003989
68 0.002992
79 0.000997
113 0.001994
149 0.002997
145 0.0
155 0.000965
172 0.002998
175 0.00098
181 0.000997
185 0.000997
186 0.003039
163 0.002977
49 0.004953
14 0.004018
37 0.003972
86 0.006005
105 0.002993
131 0.007949
138 0.007937
139 0.007976
140 0.002959
146 0.006982
159 0.002972
169 0.002972
174 0.002962
180 0.0
183 0.000987
185 0.002036
141 0.000967
49 0.001996
11 0.000994
28 0.0
73 0.001995
99 0.003964
111 0.012953
117 0.003988
136 0.001995
138 0.002035
149 0.00298
160 0.002994
167 0.002992
172 0.003002
178 0.002964
180 0.001996
184 0.001996
186 0.000953
187 0.000999
91 0.000957
26 0.000965
23 0.001995
50 0.001004
93 0.001992
122 0.001951
135 0.001998
141 0.000997
140 0.002052
147 0.001962
158 0.001962
166 0.002016
175 0.00197
180 0.002992
184 0.003012
188 0.002994
190 0.001994
191 0.004036
193 0.004022
192 0.004008
168 0.004995
61 0.004021
30 0.006981
58 0.002984
99 0.007011
123 0.002969
144 0.002989
149 0.001981
147 0.001994
148 0.0
154 0.001974
164 0.002961
170 0.004042
174 0.002045
177 0.00397
178 0.001981
180 0.004949
181 0.004012
168 0.002987
57 0.002983
35 0.003026
63 0.002993
101 0.002988
124 0.001995
139 0.003011
145 0.0
144 0.0
145 0.000998
152 0.000972
157 0.000999
163 0.001008
166 0.00195
169 0.001025
173 0.001972
170 0.002003
76 0.002989
11 0.002987
25 0.002999
72 0.002992
93 0.003011
117 0.003043
127 0.004008
126 0.003979
124 0.00399
133 0.004015
141 0.004039
151 0.006005
155 0.006027
160 0.006016
164 0.003004
159 0.006974
72 0.003
0 0.002993
2 0.00301
42 0.002986
60 0.00299
89 0.003029
107 0.007941
107 0.001995
105 0.007969
112 0.002999
127 0.00795
137 0.007981
145 0.007983
156 0.00798
161 0.000957
159 0.005991
47 0.002991
1 0.006013
5 0.001965
38 0.000992
55 0.000961
88 0.002002
107 0.001993
106 0.003007
108 0.001992
116 0.002999
135 0.002027
148 0.00498
159 0.002995
166 0.004945
171 0.003042
175 0.001985
178 0.002993
158 0.00297
75 0.012009
50 0.02693
23 0.001995
15 0.002966
47 0.001996
99 0.001975
122 0.001962
117 0.0
122 0.0
142 0.000964
152 0.00202
167 0.001028
176 0.002986
179 0.002987
184 0.002023
187 0.002024
174 0.002977
55 0.003979
29 0.003975
51 0.004001
75 0.003022
108 0.003986
132 0.004021
137 0.003996
130 0.004969
131 0.005986
138 0.006027
153 0.005995
160 0.006977
169 0.007947
175 0.001962
177 0.007933
181 0.0
148 0.001986
60 0.002993
15 0.001995
41 0.000953
61 0.002028
85 0.002978
108 0.002993
117 0.00299
112 0.001972
114 0.001957
130 0.002001
149 0.002951
157 0.0
169 0.0
175 0.0
179 0.000947
182 0.0
177 0.0
86 0.001955
9 0.002034
12 0.001969
40 0.001994
55 0.001999
82 0.001986
111 0.002948
116 0.004013
115 0.00398
128 0.003974
141 0.003989
154 0.004989
167 0.002991
172 0.004006
179 0.002979
182 0.003036
186 0.003993
189 0.006999
190 0.002989
149 0.00795
38 0.006954
12 0.005962
32 0.002004
65 0.003025
79 0.003042
109 0.00296
117 0.002991
124 0.002992
125 0.001994
134 0.002993
154 0.002992
170 0.0
177 0.002003
184 0.00196
186 0.002
186 0.001998
189 0.003033
192 0.003992
195 0.002997
193 0.004025
129 0.003994
44 0.003022
47 0.003965
73 0.004025
109 0.004042
124 0.003989
143 0.003026
143 0.004984
140 0.006982
144 0.003989
157 0.002033
168 0.001978
171 0.002047
177 0.003973
181 0.00296
184 0.003006
186 0.002971
186 0.002987
121 0.002995
31 0.001977
33 0.002005
75 0.000969
103 0.000997
122 0.000963
138 0.0
141 0.0
138 0.001013
145 0.001039
153 0.000964
164 0.002038
170 0.001003
176 0.002043
181 0.000996
183 0.001019
186 0.003994
180 0.003841
127 0.003991
21 0.003955
19 0.002994
57 0.003963
90 0.004951
100 0.005023
124 0.003995
133 0.007018
133 0.002989
138 0.007007
146 0.002998
158 0.006019
167 0.006981
171 0.006981
176 0.006982
178 0.002969
179 0.007974
180 0.004012
166 0.006002
42 0.001998
18 0.0
38 0.000996
81 0.001019
110 0.000951
123 0.001951
134 0.002001
135 0.001995
138 0.001994
147 0.004954
158 0.002992
165 0.002976
171 0.003009
175 0.002994
178 0.002005
180 0.0
182 0.002991
180 0.003025
112 0.00403
31 0.002946
40 0.000963
70 0.000976
110 0.000998
126 0.002029
144 0.001977
145 0.001009
144 0.001973
150 0.001999
161 0.002962
165 0.003995
170 0.002952
176 0.006015
179 0.003989
181 0.006012
181 0.004988
183 0.00698
151 0.007984
73 0.00797
36 0.006942
75 0.002963
101 0.007986
127 0.002984
139 0.007015
144 0.002992
140 0.003016
142 0.001965
152 0.0
157 0.0
164 0.002984
170 0.0
172 0.000979
175 0.001972
150 0.00402
58 0.00299
34 0.00399
73 0.00298
98 0.003971
126 0.001017
140 0.0
142 0.0
139 0.0
141 0.001031
148 0.001963
157 0.00199
162 0.001964
167 0.003007
170 0.003954
149 0.003991
34 0.004016
25 0.004833
41 0.003955
89 0.004975
105 0.003989
125 0.004985
128 0.00399
124 0.004988
130 0.003008
138 0.00199
150 0.004951
160 0.006982
165 0.002995
168 0.008011
96 0.007968
25 0.007974
9 0.006999
26 0.007071
57 0.006983
84 0.00097
101 0.00695
107 0.002998
105 0.0
112 0.0
131 0.001997
141 0.001962
154 0.001015
162 0.003044
165 0.00197
65 0.001968
10 0.002013
2 0.00399
19 0.003989
33 0.001994
54 0.003928
85 0.002994
90 0.003008
91 0.002992
102 0.002
120 0.000998
137 0.002019
152 0.002997
158 0.00301
166 0.004033
172 0.003986
176 0.004963
121 0.004988
35 0.004987
0 0.004967
10 0.004986
20 0.004987
36 0.003989
69 0.002991
82 0.00399
85 0.018917
85 0.005985
98 0.000981
123 0.002965
160 0.001011
175 0.006027
181 0.005985
190 0.000999
192 0.005943
197 0.002068
201 0.001994
202 0.00202
205 0.002982
207 0.002967
208 0.002979
205 0.002992
99 0.002992
25 0.00299
24 0.002994
41 0.002981
66 0.001017
89 0.0
106 0.000961
112 0.0
109 0.000966
118 0.000998
136 0.001031
153 0.001967
164 0.002994
173 0.002956
177 0.003012
181 0.002993
183 0.00402
186 0.003943
189 0.005004
192 0.004995
178 0.004019
59 0.004021
33 0.00498
53 0.003989
81 0.003018
96 0.002992
124 0.003991
133 0.003004
132 0.00299
129 0.006983
140 0.00304
154 0.005986
170 0.005984
177 0.005984
183 0.004961
187 0.005989
190 0.005986
193 0.0
193 0.005018
177 0.002958
39 0.001995
26 0.002992
51 0.002036
72 0.002998
90 0.002995
117 0.002993
129 0.003005
127 0.003989
130 0.002992
138 0.002992
156 0.0
166 0.0
177 0.002993
183 0.0
186 0.0
189 0.0
190 0.000997
179 0.002026
79 0.001992
24 0.002028
30 0.002999
62 0.002994
75 0.002993
100 0.002862
122 0.003015
124 0.002992
125 0.00399
133 0.003992
149 0.003989
164 0.004988
168 0.003957
175 0.004954
180 0.004986
182 0.004983
185 0.00499
187 0.004944
189 0.002977
160 0.005956
73 0.004011
21 0.007979
37 0.007978
61 0.007962
88 0.007937
104 0.007989
127 0.00698
135 0.002993
138 0.004985
148 0.000995
163 0.0
170 0.000876
178 0.002029
182 0.001019
186 0.002992
191 0.002998
193 0.002944
194 0.002967
195 0.001963
194 0.0
191 0.000997
126 0.000997
42 0.0
43 0.001954
78 0.001943
107 0.002952
130 0.002959
142 0.002992
147 0.00299
145 0.003023
148 0.003993
159 0.00399
164 0.00396
172 0.003986
176 0.003944
179 0.003958
182 0.005952
183 0.004014
183 0.003989
148 0.010938
55 0.003022
44 0.002989
89 0.007006
108 0.004021
132 0.006932
144 0.007943
145 0.005949
143 0.004994
148 0.002994
154 0.003977
163 0.00296
170 0.002989
172 0.002961
176 0.002949
178 0.002957
162 0.002993
63 0.002958
18 0.00299
41 0.002
68 0.002029
97 0.002962
116 0.002976
126 0.0
127 0.0
128 0.000997
133 0.000891
146 0.000993
151 0.002027
159 0.001964
163 0.001995
166 0.001964
167 0.003959
84 0.003991
16 0.003025
6 0.004971
43 0.004973
62 0.004941
90 0.004974
105 0.004993
113 0.004948
113 0.004022
119 0.003993
131 0.003988
147 0.003977
154 0.003049
163 0.003021
168 0.003008
173 0.002993
166 0.006924
76 0.002992
15 0.006982
20 0.003004
51 0.007009
85 0.005985
104 0.00697
125 0.004949
129 0.000997
129 0.005984
139 0.002959
154 0.002956
159 0.002963
171 0.002969
174 0.002961
180 0.00198
183 0.003018
185 0.003942
181 0.000997
74 0.001
31 0.001995
45 0.002993
88 0.002993
106 0.002992
130 0.00399
137 0.005984
134 0.002992
131 0.00798
140 0.006991
148 0.006982
160 0.006981
165 0.006938
173 0.006982
177 0.001993
179 0.005989
133 0.000999
34 0.002024
32 0.002991
72 0.002995
100 0.002991
118 0.002993
136 0.002991
136 0.002994
133 0.002993
139 0.00296
147 0.003036
159 0.002992
165 0.002964
172 0.003025
175 0.002957
178 0.002982
123 0.001987
40 0.002957
11 0.00296
37 0.002991
60 0.0
86 0.000999
113 0.001995
118 0.002996
114 0.002992
121 0.002993
130 0.002981
148 0.003042
155 0.004041
165 0.003958
171 0.004009
175 0.003961
168 0.00399
70 0.004956
10 0.003986
15 0.00597
34 0.004987
63 0.007979
85 0.007941
104 0.007994
115 0.007933
115 0.004022
123 0.007947
138 0.003991
148 0.006981
163 0.0
173 0.000999
178 0.000998
183 0.0
189 0.0
192 0.0
191 0.00299
160 0.002989
27 0.00303
66 0.002958
101 0.004986
128 0.003943
136 0.004962
136 0.003988
136 0.003998
149 0.002978
165 0.002954
172 0.00294
181 0.002959
187 0.003012
190 0.00299
192 0.002992
194 0.002977
196 0.0
168 0.0
88 0.000998
39 0.000971
73 0.002031
100 0.001993
130 0.002007
142 0.000983
149 0.00197
145 0.001945
148 0.002
158 0.001997
165 0.001947
173 0.002947
178 0.004
181 0.003044
184 0.002993
187 0.003981
186 0.003967
113 0.003978
44 0.003952
37 0.003986
79 0.003957
102 0.003989
128 0.004975
138 0.004987
142 0.004023
139 0.003991
143 0.002993
154 0.003024
164 0.003983
169 0.00299
176 0.003026
178 0.003957
182 0.002994
183 0.00699
171 0.002958
72 0.006982
19 0.006989
33 0.006955
76 0.00401
95 0.006981
120 0.001001
134 0.003025
133 0.002979
135 0.002978
141 0.0
154 0.002962
163 0.0
167 0.0
171 0.0
175 0.004986
177 0.0
178 0.003995
153 0.003989
46 0.004963
18 0.003991
37 0.004023
81 0.001999
104 0.001994
122 0.002995
132 0.002994
130 0.0
133 0.0
144 0.0
153 0.0
164 0.0
173 0.001996
176 0.00304
181 0.002973
186 0.002992
187 0.002993
147 0.002993
66 0.003989
33 0.003936
71 0.003953
96 0.003999
124 0.002989
139 0.00387
143 0.004955
140 0.005942
141 0.004985
151 0.005988
161 0.005984
167 0.005947
172 0.007015
176 0.002993
178 0.007973
180 0.002993
155 0.00196
83 0.0
36 0.000965
53 0.000957
99 0.001995
127 0.0
138 0.000965
143 0.001995
138 0.002934
138 0.003002
147 0.003012
155 0.002959
162 0.003942
169 0.00299
171 0.002987
175 0.002996
162 0.002957
67 0.002956
22 0.002987
40 0.003987
83 0.002988
112 0.001995
122 0.002952
131 0.002995
129 0.001006
129 0.001947
139 0.001998
144 0.013963
157 0.001993
163 0.001965
166 0.002002
170 0.002002
165 0.002997
52 0.002954
8 0.003991
20 0.004005
55 0.003989
74 0.003989
97 0.004015
110 0.004979
107 0.007013
108 0.006014
121 0.006018
132 0.006982
146 0.007029
155 0.002992
161 0.006984
166 0.00303
170 0.00402
154 0.002992
29 0.002992
5 0.003028
22 0.0
49 0.003034
63 0.0
86 0.006947
102 0.004962
102 0.00399
106 0.004016
116 0.003989
137 0.004957
154 0.001963
161 0.003984
170 0.00303
177 0.00396
182 0.003988
188 0.002992
190 0.002028
182 0.0
58 0.000944
26 0.000953
39 0.000947
71 0.000961
85 0.001947
112 0.001966
122 0.001995
121 0.00196
124 0.002015
134 0.003042
153 0.003958
165 0.004985
172 0.003987
178 0.004948
182 0.004987
186 0.005031
189 0.005952
190 0.005987
171 0.006995
69 0.003994
33 0.006981
50 0.003003
83 0.007947
105 0.002944
130 0.003955
136 0.003018
132 0.003959
135 0.0
142 0.000962
158 0.001959
167 0.004941
173 0.001839
178 0.003965
181 0.002004
184 0.003939
186 0.004008
185 0.004949
101 0.004024
36 0.004022
27 0.003989
64 0.001964
81 0.003934
106 0.002993
122 0.002961
125 0.002034
121 0.0
130 0.000985
140 0.000999
156 0.001
163 0.002003
172 0.0
178 0.002036
180 0.001996
184 0.00296
185 0.002949
178 0.003028
59 0.003999
21 0.002957
31 0.003991
59 0.002991
78 0.005019
99 0.004949
119 0.003987
121 0.003988
119 0.005985
126 0.005997
143 0.006032
155 0.004985
164 0.005947
171 0.004987
175 0.005985
177 0.003027
180 0.002992
182 0.003989
184 0.003024
186 0.003024
185 0.003959
96 0.002992
30 0.002992
17 0.023894
18 0.002992
