113 0.026961
113 0.004953
123 0.004022
125 0.00399
124 0.003989
114 0.004978
86 0.003994
69 0.004023
73 0.004025
85 0.003986
88 0.003989
97 0.003989
109 0.00507
112 0.00502
102 0.003987
100 0.004939
100 0.004985
105 0.00502
108 0.005019
114 0.003985
116 0.004987
119 0.003989
119 0.004013
125 0.004018
121 0.004987
95 0.005028
67 0.003959
65 0.004022
73 0.005019
90 0.005006
99 0.00498
108 0.004989
114 0.004026
115 0.003988
108 0.003989
109 0.003983
110 0.005024
113 0.005018
118 0.004022
119 0.004004
120 0.005041
124 0.005017
126 0.005017
128 0.005089
118 0.005019
79 0.004003
58 0.004994
69 0.004035
79 0.004987
89 0.005019
102 0.004021
107 0.004026
107 0.004023
90 0.00602
85 0.004987
79 0.005022
83 0.005014
87 0.005106
98 0.004998
103 0.005017
109 0.005022
115 0.005009
118 0.005018
121 0.005021
82 0.00502
15 0.004986
0 0.006024
17 0.00503
41 0.005021
56 0.00502
79 0.004986
85 0.005021
87 0.005026
82 0.00602
78 0.003992
79 0.005017
82 0.00502
92 0.004987
98 0.005025
102 0.005023
113 0.004988
119 0.005021
125 0.005017
113 0.005014
64 0.005021
15 0.006014
0 0.005015
13 0.004986
46 0.00502
57 0.004987
79 0.005022
92 0.004987
96 0.006036
88 0.005985
84 0.004985
88 0.004987
96 0.004989
100 0.00598
107 0.00499
117 0.005023
120 0.005024
125 0.005981
129 0.006016
114 0.005984
65 0.006023
14 0.006016
24 0.006018
57 0.00505
78 0.005986
93 0.006194
103 0.006017
111 0.005986
103 0.005999
95 0.006017
102 0.007016
106 0.006018
111 0.006017
122 0.006018
134 0.004986
142 0.00502
146 0.005031
145 0.006045
111 0.006018
44 0.005029
29 0.006017
42 0.005988
67 0.007024
84 0.006982
109 0.006018
125 0.005985
126 0.006018
120 0.006017
113 0.005019
118 0.006017
125 0.00602
133 0.005027
142 0.005022
150 0.005984
156 0.006981
160 0.007011
166 0.006043
122 0.006979
70 0.006025
44 0.00602
48 0.006017
79 0.00602
100 0.005989
113 0.006023
126 0.007013
143 0.006014
140 0.006974
132 0.007012
135 0.006018
140 0.006981
149 0.006019
156 0.006005
166 0.006022
175 0.006021
177 0.007014
181 0.007022
175 0.007
125 0.006993
62 0.006988
51 0.007015
74 0.00599
101 0.006981
125 0.00598
141 0.006026
150 0.006984
150 0.007014
145 0.007012
142 0.007017
142 0.006982
152 0.006981
158 0.007017
165 0.007019
174 0.007017
182 0.006982
187 0.006987
189 0.005981
169 0.00599
111 0.006984
65 0.007016
65 0.006015
87 0.00608
107 0.007024
137 0.00798
147 0.007978
157 0.007016
157 0.006981
145 0.006929
143 0.006981
145 0.006951
153 0.006974
162 0.00695
169 0.005916
165 0.006016
174 0.007015
166 0.00798
166 0.007982
158 0.007016
101 0.007943
48 0.006982
29 0.007015
44 0.006982
73 0.007013
92 0.007981
120 0.007971
126 0.006018
129 0.006982
127 0.007981
120 0.007983
127 0.007984
139 0.007978
143 0.007979
153 0.006981
157 0.006973
162 0.007066
169 0.006993
172 0.006982
174 0.007972
163 0.007039
105 0.007012
58 0.007979
59 0.00698
86 0.007979
109 0.007978
126 0.007015
145 0.007016
154 0.007016
150 0.007978
141 0.007969
139 0.007011
146 0.007988
156 0.007948
167 0.007989
172 0.006929
179 0.007944
185 0.007979
189 0.006982
194 0.00697
197 0.007012
193 0.007981
147 0.006969
76 0.007939
70 0.007977
89 0.008001
109 0.007979
133 0.007022
150 0.007979
158 0.007979
163 0.006981
158 0.006984
157 0.007016
158 0.00797
164 0.006967
173 0.007015
183 0.007017
187 0.006984
192 0.007979
200 0.007978
202 0.007979
204 0.007014
210 0.007978
212 0.007014
184 0.006966
106 0.007969
81 0.007979
83 0.00699
101 0.007025
122 0.007016
140 0.007979
157 0.007013
161 0.006982
162 0.006981
154 0.006981
151 0.006995
155 0.006948
161 0.006993
165 0.007028
177 0.007962
181 0.007984
184 0.007978
188 0.006982
191 0.007022
195 0.00702
197 0.006981
183 0.007023
167 0.008976
75 0.007043
58 0.006951
72 0.007013
98 0.006976
115 0.00702
130 0.007022
141 0.007048
148 0.006976
145 0.007015
140 0.007978
137 0.007035
141 0.006939
146 0.006997
151 0.007001
158 0.00699
166 0.006965
168 0.006983
172 0.006982
175 0.006981
175 0.006982
172 0.007017
138 0.007017
63 0.006988
37 0.006967
47 0.007009
70 0.006977
91 0.00699
108 0.00699
122 0.006929
132 0.006988
130 0.007016
118 0.007015
116 0.006958
120 0.006983
128 0.006981
133 0.005977
140 0.005991
148 0.006003
153 0.005987
155 0.006986
159 0.006984
161 0.006976
119 0.007
59 0.00695
29 0.007023
38 0.00702
63 0.006016
82 0.005985
98 0.005986
116 0.005958
122 0.005991
114 0.006984
103 0.005976
100 0.005982
106 0.007022
109 0.00703
114 0.007014
123 0.006019
127 0.006015
134 0.006003
140 0.005989
144 0.005987
132 0.00599
79 0.005979
23 0.00598
18 0.005966
48 0.006015
70 0.007025
90 0.006025
102 0.005986
109 0.006019
109 0.005986
100 0.005983
96 0.006018
99 0.005951
104 0.005982
115 0.006009
124 0.005988
132 0.005984
139 0.006014
146 0.005014
151 0.005984
146 0.006025
81 0.005989
33 0.005982
17 0.005995
32 0.005985
54 0.005968
77 0.005975
92 0.005972
110 0.006016
115 0.004987
109 0.005019
104 0.004986
105 0.005984
114 0.005984
121 0.005995
129 0.005976
140 0.00599
146 0.00602
150 0.005949
157 0.005997
166 0.005025
163 0.005986
120 0.006018
61 0.005984
29 0.005984
37 0.005984
59 0.005982
80 0.005989
95 0.005001
108 0.004993
122 0.005008
123 0.004992
120 0.004988
119 0.005017
121 0.005019
132 0.006032
140 0.006017
150 0.005984
154 0.004979
163 0.005979
166 0.005021
168 0.004985
174 0.004983
178 0.005032
139 0.004992
73 0.004989
36 0.004976
37 0.005025
54 0.00502
82 0.004996
98 0.004987
110 0.004981
117 0.004943
121 0.004998
118 0.004989
110 0.004954
114 0.005
126 0.005027
135 0.004986
143 0.005023
151 0.004971
161 0.004988
162 0.004988
164 0.004981
170 0.004985
174 0.00499
170 0.004989
111 0.004026
45 0.004979
38 0.004977
56 0.005024
79 0.005021
99 0.004987
124 0.00499
135 0.004956
136 0.003984
136 0.003953
136 0.003981
126 0.003991
141 0.004025
154 0.004024
165 0.005001
171 0.003023
175 0.005026
182 0.005021
189 0.004991
191 0.004998
195 0.004991
200 0.003978
194 0.003989
127 0.00399
63 0.00399
67 0.003995
89 0.003959
112 0.004036
134 0.004007
151 0.004976
164 0.005018
165 0.004992
159 0.003991
155 0.00499
152 0.00396
154 0.004027
170 0.00399
180 0.003989
190 0.003957
193 0.003939
199 0.003991
206 0.00399
207 0.003988
210 0.004985
188 0.00494
126 0.003942
76 0.003988
72 0.004025
106 0.004023
131 0.004026
156 0.004003
174 0.004014
177 0.00399
169 0.003989
155 0.002992
153 0.003957
155 0.002975
161 0.003994
169 0.003988
180 0.003989
188 0.00402
195 0.004017
200 0.003989
206 0.00399
199 0.003958
149 0.004019
90 0.003985
68 0.003987
83 0.004011
104 0.003008
129 0.002969
154 0.002996
172 0.002998
173 0.00399
160 0.003992
156 0.004024
158 0.004022
163 0.004017
173 0.003983
183 0.002972
190 0.003002
199 0.002955
206 0.002987
207 0.002993
208 0.002992
161 0.002993
81 0.004024
54 0.003992
61 0.00399
86 0.003992
111 0.003952
136 0.002992
155 0.003982
166 0.002993
165 0.003023
158 0.003008
153 0.003027
160 0.002992
171 0.003964
179 0.003026
189 0.003023
198 0.003023
203 0.003959
211 0.003982
216 0.002993
195 0.003947
125 0.00304
65 0.00399
49 0.004014
71 0.002013
103 0.002994
123 0.002991
141 0.002993
155 0.002992
155 0.002985
147 0.003025
147 0.00299
149 0.002987
154 0.003023
170 0.002998
182 0.002981
193 0.00399
198 0.002992
205 0.001964
211 0.002933
213 0.002998
177 0.002971
84 0.002993
37 0.00296
38 0.002989
61 0.002977
98 0.002992
120 0.003028
138 0.002992
148 0.001995
145 0.001994
140 0.002008
139 0.002031
140 0.002034
154 0.002997
163 0.002979
172 0.002984
182 0.002994
192 0.002992
199 0.002992
201 0.002027
202 0.002031
184 0.001995
114 0.002027
50 0.001995
28 0.001996
54 0.001993
79 0.001994
103 0.001995
124 0.001984
145 0.002028
145 0.001995
131 0.002023
124 0.001995
133 0.001994
136 0.001957
145 0.001994
154 0.001995
166 0.001964
172 0.001008
178 0.00199
183 0.001995
190 0.003044
154 0.001994
81 0.002034
34 0.001997
32 0.001995
52 0.001995
78 0.002005
105 0.001989
125 0.00198
136 0.002
133 0.001978
124 0.002046
117 0.000993
122 0.002008
134 0.001995
145 0.001995
154 0.001995
164 0.002026
173 0.001995
176 0.001976
180 0.001964
189 0.00098
163 0.001999
91 0.00098
8 0.001004
12 0.000997
35 0.001995
61 0.000997
88 0.000997
106 0.001996
116 0.001995
117 0.001987
109 0.001983
104 0.002014
107 0.001995
115 0.000981
129 0.000998
140 0.000997
152 0.000998
157 0.000997
167 0.000996
171 0.001998
176 0.001995
158 0.002004
93 0.001992
5 0.001992
0 0.001995
0 0.000998
37 0.000998
59 0.000901
74 0.000997
87 0.000998
96 0.00199
89 0.001994
83 0.000998
85 0.001001
95 0.001985
107 0.002006
117 0.001989
136 0.000997
147 0.000997
151 0.000999
154 0.000997
160 0.000997
165 0.000997
153 0.000998
88 0.001001
12 0.000997
0 0.000998
0 0.002015
9 0.000988
52 0.000998
70 0.000997
84 0.000998
84 0.000998
84 0.001002
75 0.000997
77 0.000998
87 0.000997
98 0.001008
110 0.000996
124 0.000997
137 0.0
146 0.000997
149 0.000999
153 0.0
161 0.001005
163 0.000998
88 0.001002
14 0.000997
49 0.000997
50 0.001001
63 0.0
83 0.0
95 0.0
108 0.0
108 0.0
104 0.0
100 0.001031
100 0.001008
104 0.000998
111 0.000997
117 0.0
121 0.000991
125 0.000983
131 0.0
132 0.0
139 0.0
137 0.0
109 0.0
74 0.0
54 0.0
53 0.000997
73 0.0
88 0.000994
99 0.0
111 0.0
117 0.0
112 0.0
105 0.0
106 0.0
111 0.0
115 0.0
120 0.0
126 0.0
133 0.0
137 0.0
141 0.0
143 0.0
142 0.0
99 0.0
63 0.0
62 0.0
74 0.0
87 0.0
99 0.0
108 0.0
116 0.0
118 0.000998
111 0.0
110 0.0
114 0.0
119 0.0
124 0.0
133 0.0
139 0.001043
144 0.0
147 0.0
151 0.0
152 0.001006
149 0.000998
104 0.0
79 0.000963
59 0.0
66 0.001004
82 0.0
96 0.0
106 0.001008
114 0.0
117 0.0
113 0.0
110 0.000965
112 0.001028
115 0.0
120 0.0
127 0.0
132 0.000996
139 0.0
141 0.00104
144 0.0
147 0.0
152 0.0
156 0.0
108 0.001
57 0.000998
38 0.0
47 0.0
61 0.0
78 0.0
85 0.0
93 0.000997
100 0.000997
100 0.0
98 0.0
97 0.0
101 0.000998
108 0.001002
115 0.0
123 0.0
128 0.0
136 0.0
139 0.0
141 0.001001
144 0.000995
148 0.0
150 0.0
141 0.0
103 0.001005
69 0.001049
57 0.0
65 0.0
77 0.001013
98 0.00097
110 0.0
116 0.00203
116 0.000964
112 0.0
110 0.001026
112 0.001019
114 0.001043
120 0.001031
129 0.000952
132 0.000977
138 0.000998
144 0.001035
147 0.000999
148 0.000998
151 0.001996
151 0.000998
150 0.0
126 0.001043
89 0.000997
66 0.001995
68 0.001002
83 0.000996
98 0.000997
118 0.000997
127 0.000998
129 0.001032
124 0.001027
118 0.0
118 0.0
121 0.0
127 0.001016
133 0.001995
140 0.000999
146 0.000995
150 0.000969
153 0.000998
155 0.000998
158 0.000984
159 0.00201
155 0.002007
113 0.000994
91 0.000998
72 0.001031
78 0.001995
92 0.001974
113 0.000996
126 0.001012
136 0.001028
132 0.000999
127 0.001034
122 0.001962
125 0.001995
130 0.000998
137 0.001996
143 0.001949
148 0.001994
152 0.002026
157 0.000957
160 0.001012
165 0.001008
165 0.001002
155 0.001028
120 0.001995
86 0.001995
72 0.001033
84 0.002043
98 0.001
111 0.003039
124 0.003022
136 0.00196
139 0.001955
136 0.002024
130 0.000965
133 0.001008
138 0.002001
143 0.002032
153 0.001027
158 0.00203
161 0.002011
165 0.002988
169 0.003023
170 0.001993
174 0.002992
164 0.001996
114 0.001008
83 0.001017
74 0.001995
82 0.002028
101 0.001028
114 0.002033
124 0.002027
134 0.002992
139 0.003022
138 0.001981
133 0.002993
134 0.002009
140 0.002028
143 0.002027
150 0.001995
157 0.003023
163 0.002004
165 0.001022
168 0.001982
172 0.002992
174 0.003022
163 0.001995
111 0.002949
78 0.002031
78 0.002028
87 0.001996
102 0.003043
116 0.002992
128 0.002029
135 0.003027
139 0.001952
136 0.002989
133 0.002995
133 0.001994
137 0.002992
145 0.001988
151 0.001967
156 0.002007
161 0.003031
163 0.002992
165 0.002006
168 0.002026
170 0.002027
165 0.002992
133 0.00301
85 0.001987
56 0.004009
74 0.003022
92 0.003025
105 0.003026
124 0.002972
132 0.002992
133 0.002008
127 0.001994
121 0.001996
120 0.002985
125 0.003023
134 0.002002
146 0.003989
152 0.003016
157 0.002989
162 0.003022
164 0.003991
167 0.003989
166 0.002023
130 0.002034
77 0.002
47 0.003028
46 0.003983
66 0.003009
94 0.002992
113 0.003011
124 0.002975
125 0.003023
117 0.003023
110 0.00402
111 0.00402
116 0.003027
122 0.003023
132 0.002991
141 0.003976
144 0.003025
152 0.002992
154 0.002992
161 0.00301
163 0.002989
153 0.002986
109 0.003989
59 0.003989
31 0.002981
43 0.00299
60 0.00298
79 0.004022
94 0.003993
113 0.004034
114 0.003999
108 0.003031
103 0.003018
104 0.004023
111 0.004985
121 0.004984
130 0.004035
140 0.003024
146 0.002985
151 0.004029
153 0.00399
160 0.004021
163 0.004017
161 0.003025
122 0.002977
67 0.003002
37 0.00403
33 0.005024
52 0.004021
71 0.004019
87 0.003988
99 0.00503
112 0.003022
113 0.00399
109 0.004017
107 0.002993
113 0.003018
123 0.002994
129 0.004986
137 0.004995
151 0.004021
155 0.004026
159 0.00402
164 0.004935
170 0.004027
172 0.004987
168 0.004979
107 0.003945
60 0.003
41 0.003991
49 0.004988
64 0.004988
88 0.004022
105 0.004024
120 0.00399
124 0.005026
122 0.004023
123 0.004995
121 0.004987
129 0.004033
138 0.003974
147 0.00402
153 0.004986
161 0.004987
170 0.004987
173 0.004035
178 0.004023
185 0.005018
186 0.00402
166 0.004996
115 0.004992
70 0.003993
65 0.005024
78 0.005008
99 0.00498
118 0.00498
135 0.003988
145 0.003985
148 0.004013
139 0.004989
134 0.003983
137 0.004979
142 0.005018
153 0.004027
160 0.004942
169 0.00502
172 0.006022
176 0.005019
180 0.003988
185 0.003997
188 0.004034
183 0.005989
115 0.004031
81 0.005984
75 0.005036
95 0.00503
112 0.005019
134 0.005012
150 0.005984
156 0.005984
152 0.005038
147 0.003987
144 0.004025
142 0.005022
152 0.003989
160 0.005984
169 0.006024
174 0.00502
179 0.005022
184 0.00502
185 0.005022
188 0.005984
190 0.006017
181 0.00502
136 0.004019
92 0.004045
71 0.003985
85 0.005009
104 0.005984
122 0.005984
140 0.004992
147 0.004974
151 0.005019
145 0.005984
139 0.005984
139 0.005021
144 0.005025
149 0.005017
161 0.004978
170 0.005021
173 0.006991
177 0.006974
183 0.006021
186 0.004974
185 0.004989
187 0.005988
169 0.005984
96 0.004995
58 0.005011
59 0.005018
73 0.005009
90 0.00502
105 0.006014
117 0.005984
124 0.005016
124 0.005019
122 0.005989
118 0.007013
118 0.006982
126 0.006022
134 0.006017
144 0.004983
152 0.004985
155 0.004987
159 0.006019
162 0.005984
165 0.006017
168 0.006035
169 0.006017
166 0.007013
126 0.006982
55 0.006027
30 0.006017
45 0.005018
65 0.004982
82 0.004989
98 0.005998
109 0.006023
112 0.005016
109 0.004982
104 0.005007
102 0.006019
103 0.007016
113 0.005993
122 0.005991
133 0.006015
139 0.005987
146 0.006015
150 0.006982
151 0.006981
156 0.006025
158 0.00502
155 0.00602
124 0.006981
68 0.006987
22 0.005953
20 0.005989
52 0.005984
74 0.005948
93 0.006018
107 0.006981
112 0.007014
106 0.006033
98 0.006016
94 0.004979
96 0.007989
103 0.007979
113 0.005964
121 0.005986
131 0.005984
138 0.005986
143 0.005973
146 0.007033
147 0.00699
139 0.006032
92 0.006981
39 0.005982
14 0.007979
17 0.007979
42 0.00602
65 0.006016
100 0.006028
111 0.006004
107 0.005986
97 0.006981
91 0.007021
89 0.005975
94 0.005983
103 0.006015
113 0.00798
123 0.007975
131 0.007013
137 0.005975
145 0.007013
148 0.006009
133 0.00601
79 0.007013
25 0.006972
0 0.005979
5 0.005985
25 0.006024
49 0.007979
70 0.007979
85 0.007978
96 0.00698
90 0.007976
84 0.007025
81 0.007036
89 0.005956
99 0.007979
107 0.007965
119 0.006982
129 0.006992
134 0.006968
138 0.007945
143 0.007978
128 0.006981
48 0.007979
0 0.007022
0 0.007015
0 0.006978
19 0.007017
42 0.006978
59 0.007016
70 0.006979
75 0.006981
72 0.007977
67 0.007979
69 0.007979
78 0.007979
89 0.007014
99 0.007019
110 0.007016
118 0.007015
128 0.007015
134 0.00699
130 0.006979
103 0.007015
20 0.006981
52 0.007975
50 0.007979
62 0.007978
73 0.006984
84 0.006972
91 0.007022
98 0.007015
99 0.007017
96 0.007012
97 0.007014
100 0.006983
105 0.007015
109 0.007011
117 0.007979
122 0.007978
127 0.007015
130 0.006983
132 0.00698
137 0.007043
138 0.007016
118 0.007015
88 0.007024
64 0.007012
59 0.00702
66 0.007006
83 0.006981
94 0.007014
102 0.006981
106 0.007024
107 0.007058
102 0.007011
101 0.007003
105 0.006983
110 0.007012
114 0.007013
119 0.007012
124 0.006965
130 0.006971
132 0.006979
135 0.006982
136 0.006016
137 0.006982
139 0.006995
139 0.007014
132 0.007016
103 0.007013
78 0.006979
71 0.007014
76 0.007014
93 0.007019
103 0.007013
111 0.006979
113 0.006973
112 0.006014
109 0.006019
105 0.007028
107 0.007004
111 0.00696
116 0.007014
120 0.007005
124 0.00701
130 0.006975
132 0.006017
140 0.006017
140 0.006013
138 0.006017
141 0.006012
143 0.006015
144 0.007025
133 0.007015
92 0.007011
49 0.007013
31 0.00701
48 0.006979
64 0.006011
84 0.006016
94 0.005983
97 0.006034
96 0.006016
93 0.006015
88 0.006018
92 0.005984
99 0.006108
105 0.00604
108 0.00602
117 0.006016
121 0.007015
123 0.006995
126 0.007012
128 0.006018
128 0.007011
129 0.00699
130 0.006981
133 0.006006
119 0.006017
78 0.005988
21 0.00598
19 0.005981
33 0.005987
46 0.006017
64 0.006018
76 0.005986
81 0.006014
80 0.006015
77 0.006017
71 0.006019
72 0.006021
78 0.006022
89 0.005986
96 0.006013
102 0.005985
107 0.006022
113 0.005017
116 0.006016
118 0.006019
119 0.006019
122 0.00502
124 0.00502
123 0.005023
101 0.005021
32 0.005989
20 0.006022
28 0.005987
44 0.005979
70 0.005985
84 0.006038
92 0.00598
97 0.005987
94 0.005016
85 0.00502
84 0.004988
88 0.004986
97 0.004992
103 0.005984
109 0.006037
114 0.006015
120 0.005978
122 0.005983
124 0.005033
127 0.005022
129 0.005019
127 0.005028
95 0.005027
53 0.005026
27 0.00499
38 0.005029
54 0.005023
73 0.006018
93 0.006035
102 0.005022
101 0.005011
95 0.00502
88 0.005022
85 0.005022
89 0.005023
97 0.005013
109 0.004977
114 0.004996
119 0.004987
125 0.005026
128 0.005042
131 0.005016
131 0.005015
103 0.004034
59 0.004025
24 0.004032
27 0.005014
42 0.00502
72 0.005023
88 0.005023
101 0.005023
105 0.005024
99 0.005026
94 0.00502
92 0.005022
94 0.005024
101 0.004028
112 0.004041
119 0.004022
125 0.004021
135 0.005012
139 0.005025
143 0.004986
144 0.004978
103 0.00502
53 0.005013
26 0.004986
25 0.004954
40 0.00402
66 0.004022
82 0.003996
96 0.004029
107 0.003954
107 0.005026
102 0.004025
100 0.005031
107 0.004997
113 0.004965
120 0.005019
130 0.005022
139 0.004024
145 0.004093
151 0.004024
157 0.003992
154 0.003993
114 0.004045
65 0.004032
39 0.004019
44 0.004956
61 0.004023
82 0.004021
100 0.003992
115 0.003991
124 0.004024
125 0.003958
117 0.00399
117 0.003989
122 0.003988
129 0.003936
138 0.003992
148 0.003991
156 0.00399
161 0.00395
167 0.004046
171 0.002992
173 0.003018
151 0.003944
85 0.003989
55 0.003957
61 0.003992
80 0.004032
102 0.003988
120 0.00395
139 0.003991
145 0.003992
140 0.003002
132 0.003031
129 0.003025
133 0.003025
142 0.003959
153 0.003957
159 0.003991
166 0.004022
171 0.004168
175 0.00399
180 0.002993
179 0.002992
144 0.002993
95 0.003028
65 0.003043
65 0.002992
91 0.003001
115 0.002983
134 0.003025
146 0.004023
144 0.003992
136 0.003992
130 0.004024
130 0.004056
133 0.002992
142 0.002993
151 0.002992
160 0.002994
168 0.003958
173 0.003957
178 0.003982
178 0.002992
154 0.00403
105 0.003024
60 0.003991
58 0.002992
74 0.003
95 0.00298
116 0.002992
137 0.003023
146 0.003002
142 0.003002
137 0.002997
134 0.003
138 0.002992
145 0.002992
157 0.003987
165 0.003028
173 0.003036
179 0.002992
184 0.002992
189 0.003028
192 0.003135
171 0.002995
119 0.002992
71 0.003025
54 0.002992
64 0.003028
88 0.002062
107 0.001993
124 0.002961
135 0.002964
142 0.002992
143 0.002959
137 0.002994
139 0.002992
144 0.002952
153 0.002987
164 0.002951
172 0.003027
179 0.003022
185 0.001986
189 0.002
193 0.001995
197 0.002026
200 0.002995
154 0.002993
81 0.002991
54 0.002992
60 0.003025
62 0.002992
65 0.002996
78 0.002029
93 0.001995
108 0.00203
115 0.002029
113 0.002032
126 0.001997
136 0.003015
147 0.003009
164 0.002992
178 0.003026
182 0.002992
176 0.002992
178 0.001995
181 0.002027
187 0.00203
194 0.001995
194 0.001996
203 0.00101
189 0.001964
132 0.002987
85 0.002998
58 0.002035
52 0.003022
65 0.002025
92 0.001995
109 0.002034
125 0.001995
129 0.001995
120 0.001996
117 0.001951
116 0.002001
118 0.001962
130 0.001996
140 0.00204
148 0.001995
156 0.001983
166 0.001996
173 0.001995
178 0.002032
181 0.001999
182 0.001994
188 0.00196
188 0.001999
167 0.001962
93 0.000997
55 0.000997
49 0.001029
65 0.000998
84 0.001995
111 0.002037
130 0.001996
140 0.001996
141 0.001996
134 0.001999
130 0.001987
132 0.001997
139 0.001996
148 0.000997
156 0.000915
162 0.000997
168 0.000999
177 0.00203
177 0.001995
180 0.001996
183 0.002028
184 0.002003
160 0.000997
109 0.000991
56 0.000998
52 0.000997
67 0.000999
89 0.001002
110 0.000998
136 0.000998
146 0.000979
144 0.001988
136 0.001994
126 0.002007
130 0.001998
136 0.000998
145 0.000997
154 0.001003
161 0.000997
165 0.000998
169 0.000997
174 0.000997
177 0.000998
178 0.000997
156 0.001995
70 0.000994
41 0.000991
41 0.001
65 0.000998
87 0.000966
106 0.000998
123 0.001044
133 0.000998
127 0.000998
120 0.000997
116 0.001998
117 0.0
127 0.0
135 0.0
143 0.001012
151 0.000997
155 0.000997
161 0.000975
164 0.000998
167 0.000997
160 0.000997
115 0.001007
58 0.000998
22 0.000997
27 0.000986
45 0.001003
67 0.0
91 0.0
105 0.0
110 0.0
107 0.000963
100 0.000953
97 0.000997
102 0.000998
106 0.000989
121 0.001002
129 0.000999
136 0.0
143 0.0
148 0.0
153 0.0
155 0.0
131 0.0
74 0.0
18 0.0
10 0.0
21 0.0
57 0.0
78 0.0
94 0.0
105 0.0
106 0.0
99 0.0
93 0.000997
94 0.001005
100 0.0
111 0.0
114 0.0
124 0.0
135 0.0
138 0.000994
145 0.0
152 0.001029
146 0.0
85 0.000997
33 0.0
10 0.0
16 0.0
28 0.0
62 0.0
87 0.0
106 0.0
102 0.0
92 0.0
84 0.000999
88 0.0
92 0.000964
97 0.002028
103 0.000998
114 0.000997
116 0.0
125 0.001007
132 0.002029
132 0.000995
106 0.000999
33 0.0
6 0.0
7 0.0
23 0.000998
42 0.001038
66 0.000998
83 0.000997
98 0.0
96 0.002026
84 0.001032
81 0.000997
79 0.000931
93 0.0
103 0.0
112 0.0
115 0.001046
122 0.000999
125 0.0
131 0.0
132 0.0
96 0.000997
35 0.001012
0 0.001993
0 0.002014
17 0.0
40 0.0
55 0.0
71 0.001018
77 0.001033
68 0.0
61 0.0
62 0.0
67 0.000998
76 0.000998
91 0.000997
99 0.001026
107 0.001006
112 0.0
117 0.0
124 0.001056
123 0.001032
54 0.0
0 0.0
0 0.0
0 0.001008
0 0.00103
20 0.000989
40 0.001991
57 0.0
60 0.000975
58 0.0
55 0.002032
53 0.002027
60 0.0
69 0.0
79 0.0
87 0.00103
102 0.0
109 0.000991
117 0.000997
121 0.0
112 0.0
62 0.000986
1 0.001995
48 0.001995
51 0.00203
62 0.0
73 0.000995
85 0.001028
99 0.000989
101 0.001008
98 0.001032
94 0.001
96 0.000999
99 0.000968
103 0.001029
109 0.002003
115 0.000966
118 0.001004
122 0.002025
124 0.002037
129 0.000997
123 0.00198
97 0.001995
64 0.001001
59 0.000965
63 0.000974
74 0.000991
88 0.002032
101 0.001995
110 0.002026
112 0.000956
109 0.00095
104 0.002008
106 0.000981
108 0.002019
114 0.001003
122 0.0
125 0.000965
128 0.000964
132 0.002027
134 0.002
133 0.000998
113 0.00199
82 0.002025
57 0.00099
63 0.000988
76 0.003
90 0.001994
107 0.000993
117 0.000992
116 0.000997
115 0.001995
112 0.001995
109 0.000968
111 0.000995
116 0.000999
122 0.000997
126 0.001019
131 0.000997
136 0.002991
138 0.000992
140 0.000977
131 0.000981
99 0.002992
68 0.002043
56 0.001001
26 0.000954
44 0.001009
75 0.001994
91 0.001987
102 0.00303
103 0.003026
99 0.001955
96 0.00103
97 0.000997
104 0.003044
111 0.002992
119 0.000974
128 0.000992
138 0.000998
144 0.001986
146 0.000966
135 0.003023
91 0.002962
33 0.00099
18 0.001028
27 0.000967
44 0.00305
66 0.002992
91 0.000977
105 0.000998
111 0.00099
103 0.001988
102 0.000997
103 0.001997
106 0.003011
120 0.001959
124 0.001948
130 0.001951
139 0.002992
147 0.002988
150 0.002007
153 0.002034
137 0.002061
59 0.000998
33 0.000991
34 0.003009
51 0.00399
80 0.001963
101 0.001993
118 0.001992
129 0.003989
129 0.00399
122 0.001991
122 0.001992
127 0.002003
130 0.001995
136 0.000981
137 0.003031
142 0.001986
149 0.001991
159 0.002991
167 0.003022
167 0.00399
142 0.004019
90 0.001988
68 0.001997
80 0.001987
99 0.001996
116 0.002032
133 0.003027
147 0.002994
148 0.000992
141 0.003009
137 0.002987
137 0.00399
139 0.004022
147 0.003027
153 0.001988
163 0.001979
167 0.001993
173 0.002978
178 0.002985
172 0.004018
123 0.002008
90 0.001982
78 0.001995
86 0.003989
102 0.00399
125 0.002997
140 0.00299
152 0.002025
146 0.002021
140 0.00199
138 0.002025
140 0.003986
143 0.004016
151 0.001997
157 0.003
161 0.002991
165 0.003989
170 0.003989
170 0.002988
137 0.004022
87 0.002996
73 0.002026
76 0.002028
89 0.004025
106 0.004985
126 0.00299
135 0.002984
139 0.002991
136 0.004007
131 0.003989
128 0.002992
132 0.004021
141 0.002043
146 0.00205
151 0.002029
155 0.003992
161 0.005051
165 0.003019
163 0.002991
131 0.002929
88 0.004986
60 0.00501
61 0.002965
76 0.003964
97 0.002992
109 0.002034
119 0.003002
124 0.003987
124 0.005022
118 0.002994
119 0.002996
122 0.002996
128 0.003989
134 0.004023
144 0.002994
152 0.004023
157 0.003021
161 0.003029
165 0.004025
153 0.005013
110 0.005021
64 0.003044
60 0.002986
66 0.002988
79 0.00502
96 0.004984
116 0.002985
127 0.003988
131 0.003995
130 0.003021
129 0.004022
129 0.004984
133 0.005019
143 0.004021
147 0.004022
154 0.002999
161 0.004986
165 0.005018
172 0.004019
176 0.004994
178 0.003991
182 0.003025
177 0.003988
142 0.005018
99 0.005017
78 0.003997
84 0.004022
96 0.004021
112 0.004987
127 0.005019
144 0.005021
147 0.006019
146 0.003996
144 0.003961
143 0.003993
146 0.005009
152 0.005023
160 0.001959
165 0.003984
171 0.003993
176 0.005025
179 0.006022
184 0.006045
186 0.005985
190 0.003985
190 0.003998
179 0.004026
143 0.006021
111 0.00502
101 0.003991
112 0.00399
126 0.003024
141 0.00502
153 0.006019
165 0.006015
163 0.006023
157 0.004022
154 0.00296
155 0.003995
158 0.006029
165 0.006016
170 0.003989
175 0.003986
178 0.00399
181 0.00599
182 0.005952
185 0.006048
188 0.006067
187 0.004992
161 0.005019
127 0.004022
107 0.00598
106 0.006021
121 0.004022
137 0.003991
150 0.00399
161 0.00399
166 0.006005
159 0.005
154 0.006015
151 0.006019
153 0.00502
158 0.004983
162 0.004988
167 0.006015
170 0.005979
174 0.004095
176 0.004002
177 0.004023
180 0.006014
180 0.005021
161 0.007023
120 0.006984
85 0.004994
85 0.005018
94 0.004957
107 0.006017
122 0.006018
138 0.004987
143 0.003981
143 0.004022
137 0.005988
131 0.004991
131 0.006978
132 0.007021
141 0.004987
145 0.004989
148 0.005002
152 0.006029
156 0.005973
158 0.004988
160 0.004982
162 0.004994
152 0.006981
87 0.006018
63 0.007025
60 0.006982
75 0.004994
91 0.004986
107 0.004993
118 0.007022
127 0.005988
126 0.00499
120 0.004987
114 0.006002
115 0.007004
120 0.005991
124 0.006987
132 0.007014
138 0.006017
141 0.004955
145 0.004975
148 0.007974
150 0.006989
148 0.004989
122 0.005989
80 0.005986
48 0.004961
56 0.005989
72 0.007013
90 0.007016
109 0.00599
122 0.005985
125 0.006021
119 0.007031
112 0.006982
110 0.004984
110 0.005014
113 0.005996
123 0.005972
129 0.005988
134 0.00702
137 0.007031
142 0.005022
146 0.005984
137 0.005024
102 0.007019
65 0.007022
47 0.00603
56 0.005985
72 0.006004
103 0.005986
117 0.005993
124 0.007979
122 0.008013
112 0.005984
108 0.005986
109 0.005979
115 0.007964
119 0.007979
126 0.006009
131 0.007027
137 0.00702
142 0.005992
145 0.005995
113 0.007987
70 0.007973
43 0.005974
40 0.005983
52 0.00599
71 0.007014
95 0.007983
109 0.006987
118 0.007012
117 0.007012
107 0.006004
104 0.005981
108 0.007978
111 0.007979
120 0.00597
126 0.005963
133 0.005983
138 0.007008
142 0.007979
144 0.006982
117 0.006976
70 0.006982
25 0.007012
30 0.007012
47 0.007017
72 0.007958
89 0.007995
102 0.006023
106 0.00599
105 0.005993
97 0.007014
96 0.00798
99 0.006994
105 0.006982
117 0.00696
123 0.006996
129 0.00698
136 0.007984
140 0.007976
136 0.006027
100 0.006005
52 0.005963
20 0.007973
26 0.007014
42 0.006961
61 0.006987
88 0.006982
98 0.006981
102 0.006982
98 0.008003
95 0.00798
97 0.006982
102 0.007016
111 0.006988
120 0.007013
128 0.007013
133 0.006975
137 0.006978
146 0.006981
149 0.006985
152 0.006993
136 0.00797
76 0.007014
36 0.006973
38 0.006985
54 0.006975
72 0.007013
90 0.007016
109 0.006988
113 0.006979
110 0.006974
108 0.006983
106 0.006982
110 0.00799
118 0.006982
124 0.006985
135 0.006979
141 0.006982
147 0.006981
149 0.007022
155 0.006979
156 0.006963
160 0.006969
149 0.006951
109 0.006982
70 0.005987
57 0.00698
72 0.006983
89 0.006993
105 0.007007
121 0.007019
131 0.007001
130 0.006991
122 0.006981
118 0.006979
122 0.006974
128 0.00698
135 0.006983
141 0.005971
148 0.007024
153 0.006952
155 0.006981
158 0.006993
161 0.007014
163 0.006975
164 0.006981
139 0.006957
85 0.005988
63 0.006018
65 0.006982
79 0.005987
102 0.005962
119 0.005988
130 0.005974
135 0.006017
133 0.005984
123 0.006013
121 0.006965
126 0.006974
133 0.006983
138 0.006986
142 0.006981
148 0.00597
155 0.005972
156 0.005982
158 0.005981
161 0.005991
162 0.005968
168 0.006023
121 0.006972
53 0.006985
31 0.006964
37 0.006975
51 0.006989
63 0.005971
80 0.005978
91 0.006067
97 0.005983
96 0.005985
90 0.006018
89 0.006017
98 0.005969
109 0.005984
122 0.004987
130 0.004986
126 0.004987
117 0.005987
113 0.005997
118 0.006019
127 0.005985
134 0.006019
129 0.005978
97 0.006014
55 0.005977
43 0.005967
55 0.005985
72 0.005986
89 0.005017
100 0.004957
111 0.004975
113 0.005987
105 0.005996
98 0.006023
94 0.006019
96 0.006021
111 0.005965
120 0.005985
124 0.005996
130 0.005983
132 0.005979
134 0.004979
136 0.004985
143 0.004988
143 0.005989
137 0.00603
100 0.006022
56 0.00598
29 0.005978
43 0.005985
69 0.005984
83 0.005983
95 0.004981
107 0.004988
113 0.004954
107 0.004993
99 0.004988
96 0.00502
100 0.006011
113 0.005982
121 0.005988
128 0.004986
136 0.005989
137 0.005985
140 0.00497
141 0.004969
140 0.004993
118 0.004996
76 0.004977
46 0.005025
39 0.005022
61 0.004985
82 0.004995
103 0.004984
124 0.003992
125 0.005955
119 0.005033
113 0.005006
111 0.005019
112 0.004986
119 0.00498
127 0.00502
134 0.005019
145 0.004988
148 0.004979
152 0.004991
156 0.004987
158 0.004986
145 0.004997
100 0.003977
54 0.004992
33 0.004973
46 0.004983
65 0.004991
85 0.005021
112 0.005001
121 0.004984
120 0.004985
110 0.004955
107 0.004956
107 0.00398
112 0.003976
118 0.003995
129 0.00399
137 0.003989
141 0.00502
145 0.005021
151 0.004987
154 0.004979
144 0.004985
79 0.004957
37 0.004984
23 0.003991
32 0.003992
50 0.005003
79 0.003958
97 0.003984
109 0.003989
113 0.004989
104 0.004956
100 0.004983
99 0.004955
106 0.004952
112 0.004002
118 0.003954
125 0.003982
136 0.003949
142 0.003993
145 0.003998
152 0.003981
143 0.003996
61 0.003973
27 0.003993
24 0.004976
47 0.00399
69 0.003986
88 0.003988
105 0.003958
111 0.003956
105 0.003956
97 0.003936
94 0.003998
95 0.003956
106 0.003985
113 0.003988
119 0.002986
127 0.003956
136 0.003989
141 0.003958
144 0.003957
142 0.003957
104 0.003954
45 0.003961
27 0.003952
33 0.004022
68 0.003957
92 0.003987
112 0.002994
120 0.002992
114 0.003957
105 0.003957
99 0.003971
97 0.003959
101 0.003989
113 0.003943
118 0.00399
123 0.003989
128 0.003961
132 0.00399
136 0.003988
116 0.002992
58 0.002997
29 0.003814
25 0.002941
36 0.002992
56 0.003954
84 0.003969
101 0.003989
104 0.003944
96 0.003984
90 0.00301
89 0.00401
89 0.002975
91 0.003978
96 0.002978
103 0.002989
108 0.002993
115 0.003949
119 0.002982
113 0.003991
55 0.003961
31 0.00401
28 0.003986
39 0.002996
56 0.002993
81 0.002995
98 0.002993
124 0.002992
121 0.002992
125 0.002986
138 0.002978
157 0.00303
165 0.003989
164 0.003961
163 0.003973
165 0.003964
168 0.00299
164 0.002976
143 0.002995
101 0.002995
67 0.002983
52 0.002993
59 0.002992
71 0.002999
89 0.002996
96 0.002998
98 0.002999
95 0.002962
87 0.002994
82 0.002987
83 0.002982
88 0.002994
99 0.002988
106 0.001999
115 0.002027
119 0.001995
126 0.002959
129 0.002002
115 0.001995
76 0.003004
44 0.002994
33 0.002991
44 0.002978
64 0.003008
81 0.002024
92 0.002991
103 0.001995
107 0.001995
101 0.002027
96 0.001997
98 0.001995
104 0.001998
111 0.001993
119 0.002986
128 0.003021
134 0.00299
137 0.002995
139 0.002992
144 0.001995
147 0.001995
149 0.001973
152 0.00201
157 0.001993
159 0.001995
157 0.001982
165 0.002011
167 0.001966
169 0.002022
174 0.003013
176 0.00299
128 0.002027
85 0.002027
70 0.001994
79 0.001988
95 0.001993
110 0.001989
120 0.001983
129 0.001989
133 0.001994
133 0.00201
129 0.002009
128 0.003003
132 0.001984
137 0.001984
147 0.001995
155 0.001998
160 0.002005
162 0.001994
167 0.001995
173 0.001996
173 0.001992
176 0.001957
178 0.001993
182 0.002027
184 0.001997
185 0.000997
162 0.001
121 0.001002
109 0.002015
115 0.001991
126 0.00199
139 0.002013
150 0.001964
157 0.001995
162 0.001993
164 0.001995
161 0.001992
158 0.001994
160 0.000999
164 0.001006
168 0.000999
174 0.000995
180 0.001009
182 0.001013
187 0.001988
190 0.001983
192 0.001997
192 0.001999
194 0.001983
197 0.000951
195 0.001004
159 0.001979
133 0.001006
124 0.001995
131 0.002004
141 0.001965
156 0.001986
163 0.002021
168 0.002001
170 0.00101
171 0.000981
166 0.001016
165 0.001007
166 0.000999
169 0.001963
174 0.001994
176 0.000995
180 0.001002
185 0.0
187 0.001029
189 0.001994
191 0.001002
193 0.001002
194 0.001008
186 0.001031
144 0.000997
126 0.001
124 0.00101
134 0.000982
145 0.00099
169 0.001997
177 0.001995
183 0.0
187 0.000993
183 0.001028
174 0.000998
175 0.000997
179 0.001013
182 0.001012
187 0.000982
193 0.000992
197 0.000995
200 0.000999
204 0.000988
206 0.0
210 0.0
210 0.0
195 0.0
151 0.0
120 0.001037
124 0.000999
137 0.000993
152 0.000998
166 0.000994
178 0.000999
183 0.000994
183 0.000994
177 0.0
170 0.0
169 0.0
173 0.0
178 0.0
182 0.0
187 0.0
193 0.000997
195 0.001022
198 0.001008
200 0.0
202 0.0
194 0.0
159 0.0
112 0.0
117 0.0
135 0.0
150 0.0
164 0.0
172 0.0
176 0.0
172 0.0
164 0.0
159 0.0
158 0.001005
162 0.001004
167 0.0
172 0.0
176 0.0
180 0.0
183 0.0
186 0.0
187 0.0
168 0.0
127 0.0
100 0.0
101 0.0
121 0.0
136 0.0
147 0.0
155 0.001002
160 0.000998
153 0.0
142 0.000992
140 0.0
139 0.0
143 0.000988
148 0.001984
153 0.000994
158 0.002055
160 0.0
164 0.0
167 0.0
153 0.002
112 0.002008
77 0.0
77 0.0
87 0.0
102 0.002007
115 0.000979
128 0.0
134 0.001045
127 0.0
120 0.0
115 0.0
116 0.002018
119 0.002
124 0.0
128 0.0
133 0.0
136 0.002014
141 0.002018
142 0.0
116 0.002011
67 0.000981
55 0.000983
63 0.000985
76 0.001023
91 0.001002
108 0.0
114 0.0
118 0.000996
112 0.001978
104 0.000988
100 0.00099
102 0.000999
109 0.0
112 0.0
115 0.0
121 0.002003
124 0.00202
124 0.0
111 0.001036
74 0.0
48 0.000994
47 0.000986
59 0.000981
84 0.001033
102 0.0
110 0.001
109 0.0
102 0.001994
97 0.002005
95 0.0
99 0.0
106 0.0
109 0.002033
112 0.001955
119 0.0
124 0.002024
122 0.0
95 0.0
59 0.0
46 0.001994
54 0.000982
75 0.0
92 0.001
100 0.000991
113 0.001003
116 0.002013
107 0.0
102 0.00206
102 0.0
108 0.000997
114 0.0
117 0.002001
122 0.001995
129 0.000982
131 0.000992
134 0.000998
109 0.001001
70 0.001999
48 0.0
65 0.002002
88 0.0
103 0.0
114 0.0
121 0.001007
119 0.002028
111 0.0
108 0.0
108 0.000961
114 0.002038
120 0.002029
130 0.001995
134 0.002
142 0.00101
145 0.0
145 0.000987
117 0.001992
80 0.002005
61 0.0
70 0.0
88 0.0
106 0.00199
120 0.002001
135 0.002028
131 0.002991
127 0.002005
123 0.002
124 0.001032
131 0.001962
138 0.001958
144 0.001002
150 0.0
156 0.0
158 0.002
161 0.002989
145 0.0
105 0.002993
77 0.002995
76 0.001989
93 0.0
112 0.000961
131 0.002993
142 0.002012
150 0.000964
148 0.00202
141 0.00102
137 0.00202
142 0.001043
150 0.002034
158 0.003026
165 0.002961
170 0.001996
175 0.001994
177 0.003011
177 0.003024
150 0.0
108 0.002024
82 0.000952
85 0.002995
113 0.002007
132 0.002989
145 0.002021
153 0.000998
149 0.001019
141 0.001994
137 0.003001
137 0.002994
144 0.000981
150 0.001992
159 0.002948
164 0.003036
170 0.001992
176 0.002992
178 0.00299
175 0.000993
145 0.000997
100 0.000998
74 0.002991
80 0.002986
104 0.001995
121 0.001995
137 0.001994
149 0.002994
151 0.001978
144 0.002991
140 0.00298
143 0.002
150 0.000991
154 0.000991
161 0.003008
165 0.00296
166 0.000996
170 0.001994
173 0.002
174 0.001989
154 0.001996
107 0.002993
75 0.003982
76 0.002041
92 0.002002
114 0.001027
132 0.003989
145 0.002999
151 0.002038
148 0.002036
140 0.001973
136 0.003955
140 0.002011
146 0.003031
154 0.004041
161 0.0
165 0.001999
169 0.000997
175 0.004001
174 0.003952
168 0.001997
127 0.001045
82 0.001996
62 0.002992
83 0.001972
106 0.003987
126 0.004024
145 0.001992
152 0.002003
148 0.001993
138 0.004037
131 0.004022
134 0.001026
138 0.002977
143 0.001998
153 0.002
158 0.002015
163 0.003024
167 0.002989
169 0.002027
156 0.002048
110 0.002003
69 0.003988
58 0.00395
77 0.002029
98 0.002001
119 0.00201
143 0.001037
145 0.001028
137 0.004023
122 0.005037
112 0.002044
104 0.002029
96 0.001966
100 0.005014
111 0.003986
126 0.002036
135 0.00203
143 0.001991
140 0.00298
99 0.00198
58 0.00399
46 0.004024
58 0.004004
87 0.002971
111 0.001961
138 0.000993
156 0.004023
160 0.004982
156 0.002995
153 0.002961
151 0.00299
156 0.002991
162 0.003024
166 0.003975
169 0.004024
174 0.002031
177 0.001995
180 0.001996
167 0.005042
117 0.005033
60 0.001965
46 0.002944
72 0.004005
97 0.002991
115 0.003011
129 0.004024
141 0.00399
141 0.002001
134 0.003007
131 0.002025
130 0.005021
137 0.005023
148 0.00299
155 0.002037
168 0.002948
172 0.00299
178 0.00299
173 0.005028
128 0.004987
63 0.002002
47 0.001991
57 0.002988
79 0.00501
102 0.003994
128 0.000989
139 0.002946
143 0.002998
138 0.002995
135 0.002999
136 0.005018
142 0.005051
153 0.001995
160 0.002017
167 0.002032
173 0.003975
178 0.003981
183 0.00294
174 0.002
88 0.002981
56 0.002992
58 0.003003
77 0.005017
98 0.003971
129 0.002049
145 0.00396
151 0.002025
150 0.005028
145 0.006024
140 0.003991
143 0.002949
152 0.002982
162 0.003049
168 0.002988
173 0.005011
179 0.004988
185 0.002992
186 0.002059
168 0.00299
119 0.004954
77 0.00603
70 0.00298
97 0.005984
129 0.003987
148 0.003989
159 0.00399
163 0.006018
156 0.006021
146 0.00203
147 0.002951
153 0.002998
159 0.004988
166 0.005029
177 0.003958
184 0.006025
190 0.003965
193 0.003997
189 0.003993
152 0.006023
103 0.005987
76 0.003992
88 0.004008
110 0.002958
130 0.005022
149 0.005985
166 0.003971
163 0.006022
153 0.003964
147 0.00402
149 0.003982
155 0.005019
162 0.006016
170 0.003998
176 0.004022
181 0.003029
184 0.006025
188 0.006016
176 0.003996
112 0.006981
67 0.003977
72 0.003986
91 0.003977
118 0.006019
142 0.005984
158 0.00399
155 0.003991
156 0.004987
147 0.005984
142 0.006006
138 0.007017
149 0.006977
154 0.006981
156 0.004968
165 0.004944
170 0.003989
171 0.005984
172 0.006022
123 0.004004
71 0.004021
50 0.004955
55 0.006982
73 0.006952
106 0.00603
124 0.006944
137 0.004985
131 0.004984
122 0.00499
118 0.006021
117 0.006016
123 0.004994
130 0.004032
139 0.004025
145 0.006037
148 0.007031
154 0.006017
157 0.007022
121 0.00499
65 0.004996
32 0.005018
32 0.00704
52 0.007009
80 0.004988
100 0.004011
117 0.00402
120 0.006087
114 0.006016
102 0.006024
102 0.006982
110 0.004986
115 0.004996
124 0.004953
132 0.006986
136 0.00699
142 0.004966
146 0.004952
148 0.005045
135 0.007023
86 0.006999
23 0.007012
28 0.006978
53 0.004018
78 0.004022
100 0.004987
113 0.006975
118 0.007013
110 0.004982
103 0.004988
99 0.004955
103 0.007019
111 0.007012
125 0.00702
133 0.007022
139 0.005997
144 0.006009
148 0.00595
152 0.007016
151 0.007014
102 0.004955
49 0.005979
23 0.005028
30 0.007017
65 0.004989
88 0.006981
108 0.007979
115 0.006011
114 0.005979
105 0.005991
101 0.007979
101 0.007978
109 0.005999
115 0.005024
122 0.005973
130 0.006985
140 0.005954
145 0.007962
148 0.007979
152 0.005962
125 0.005982
71 0.005988
34 0.007979
34 0.007978
51 0.005951
73 0.004968
95 0.005938
110 0.00798
117 0.005954
108 0.007978
103 0.00798
101 0.005985
105 0.005992
112 0.004951
123 0.007985
128 0.007967
133 0.004941
138 0.00497
143 0.005952
148 0.007979
144 0.005021
102 0.007012
54 0.006971
29 0.005981
40 0.005984
61 0.005987
87 0.007984
100 0.007977
114 0.00598
112 0.006048
101 0.005974
92 0.007952
94 0.005943
104 0.007012
109 0.006985
115 0.006978
121 0.005984
126 0.006018
128 0.00798
134 0.007979
136 0.005982
115 0.005988
67 0.005997
31 0.006005
33 0.005948
52 0.005988
79 0.007982
98 0.007994
109 0.006049
108 0.005997
98 0.005987
89 0.007977
89 0.006967
93 0.006965
98 0.006964
106 0.006964
113 0.006925
119 0.005984
126 0.006985
130 0.006978
131 0.006016
98 0.006043
45 0.006019
13 0.007965
20 0.00794
39 0.005963
62 0.005983
80 0.006021
103 0.006975
100 0.00698
91 0.007027
87 0.006864
90 0.006981
93 0.006927
104 0.006981
110 0.006979
117 0.006991
125 0.006969
130 0.006979
134 0.005975
134 0.006017
94 0.00698
26 0.007013
6 0.006964
18 0.006953
40 0.00698
51 0.006983
73 0.007029
86 0.006971
94 0.006983
93 0.006982
82 0.006979
84 0.006971
91 0.006989
98 0.007016
107 0.007015
117 0.006963
120 0.006967
127 0.006979
132 0.00701
136 0.006988
114 0.006983
56 0.006966
1 0.006981
13 0.00695
34 0.005985
54 0.00604
70 0.006016
87 0.006939
91 0.006949
88 0.006975
83 0.006979
80 0.006991
85 0.00698
92 0.005988
107 0.005975
115 0.005985
120 0.005988
123 0.006049
130 0.006024
135 0.006995
131 0.005988
89 0.00696
31 0.007028
0 0.006995
5 0.006978
17 0.006978
64 0.006979
81 0.005993
89 0.005979
90 0.006019
83 0.006025
75 0.005983
77 0.006018
83 0.00599
93 0.005981
100 0.006965
113 0.006023
116 0.006968
125 0.005968
130 0.005983
133 0.005985
134 0.00599
103 0.00598
27 0.00599
0 0.005988
5 0.005985
25 0.005983
49 0.005982
80 0.004986
96 0.004985
95 0.006026
83 0.005984
78 0.005987
78 0.006022
83 0.006
95 0.005979
104 0.005978
111 0.004991
117 0.005986
121 0.00498
127 0.004988
131 0.004995
123 0.005027
54 0.00603
11 0.006002
63 0.005983
70 0.006014
82 0.004987
100 0.005991
111 0.006015
116 0.005984
115 0.004983
109 0.004987
104 0.004982
105 0.005019
111 0.005019
117 0.004987
121 0.005946
125 0.006035
128 0.006016
132 0.005981
133 0.005986
135 0.00599
123 0.004977
92 0.00499
63 0.004987
63 0.004981
81 0.004987
94 0.004981
106 0.004982
114 0.005031
117 0.004959
112 0.004944
108 0.005003
107 0.00499
109 0.00399
114 0.005957
122 0.004953
127 0.005021
132 0.005034
135 0.00502
139 0.00502
140 0.004987
140 0.005014
104 0.004989
71 0.003956
56 0.003971
59 0.003945
70 0.003964
92 0.004989
103 0.005019
113 0.005023
115 0.004989
112 0.005017
108 0.005023
108 0.005027
112 0.004948
117 0.003992
123 0.004986
128 0.00399
133 0.003987
138 0.003989
142 0.003992
144 0.004956
145 0.005041
130 0.005018
93 0.00502
62 0.004955
25 0.004955
37 0.004988
55 0.004959
74 0.00396
89 0.00396
103 0.003959
108 0.003992
88 0.004026
83 0.003993
85 0.004998
94 0.005023
104 0.005019
122 0.005016
131 0.004997
138 0.003967
142 0.003955
148 0.003957
149 0.003998
150 0.003989
138 0.003961
91 0.003989
44 0.003991
26 0.003989
34 0.004958
56 0.005014
76 0.003984
91 0.003987
104 0.00399
109 0.003986
110 0.003991
103 0.003989
104 0.00399
106 0.004022
111 0.004023
115 0.004027
118 0.004028
118 0.003998
121 0.00396
122 0.003986
123 0.004013
127 0.00396
140 0.004023
132 0.003992
72 0.003992
31 0.003991
15 0.00399
22 0.00399
41 0.003024
72 0.002994
88 0.003991
100 0.003018
104 0.003964
101 0.003975
89 0.004019
90 0.003953
96 0.003957
104 0.003989
113 0.004022
121 0.003018
128 0.002984
133 0.002992
138 0.002991
141 0.002992
143 0.00396
143 0.003958
82 0.003965
36 0.004021
15 0.003988
26 0.003991
48 0.002976
70 0.003023
90 0.004025
104 0.002992
108 0.002981
98 0.002992
90 0.003979
87 0.003954
93 0.003989
103 0.004049
110 0.004024
119 0.003024
126 0.003023
131 0.002992
133 0.003025
137 0.003007
121 0.003956
72 0.002981
30 0.002994
19 0.002994
38 0.003989
59 0.002951
80 0.002996
106 0.003025
110 0.002992
103 0.003026
95 0.002993
90 0.002992
90 0.003
96 0.003002
104 0.003005
117 0.002971
123 0.002992
128 0.003023
132 0.002993
132 0.001951
96 0.00399
42 0.002035
7 0.002992
4 0.002986
23 0.002996
47 0.002996
69 0.002999
97 0.00302
97 0.002993
89 0.002993
84 0.002992
80 0.001995
83 0.001996
92 0.001996
100 0.001995
106 0.002992
115 0.002992
122 0.002992
125 0.002946
70 0.003029
23 0.00203
4 0.003031
10 0.002993
35 0.001995
59 0.003
81 0.001952
96 0.001996
101 0.002029
94 0.001991
88 0.001995
86 0.001962
94 0.002992
102 0.003033
111 0.002992
120 0.003026
130 0.003025
130 0.001995
98 0.002029
51 0.001996
22 0.001996
24 0.001997
42 0.002013
64 0.001967
99 0.001995
111 0.001996
114 0.001999
107 0.001995
101 0.003024
103 0.002026
107 0.001995
114 0.002025
124 0.002042
135 0.001977
142 0.001995
143 0.001993
86 0.001998
53 0.001995
45 0.001994
55 0.001995
82 0.001981
102 0.001994
119 0.001024
129 0.001995
131 0.001998
123 0.002012
121 0.002003
124 0.001995
134 0.002029
141 0.002028
148 0.001998
155 0.001999
161 0.002031
159 0.001996
126 0.002001
88 0.001014
72 0.002002
81 0.001959
97 0.001998
116 0.002013
142 0.002038
148 0.001995
144 0.001996
138 0.00103
135 0.001996
137 0.001964
142 0.001996
148 0.00201
154 0.000998
158 0.000995
166 0.001013
168 0.001005
136 0.002038
100 0.000987
85 0.000996
91 0.000959
104 0.0
125 0.002039
142 0.002027
152 0.000998
151 0.001028
143 0.000986
136 0.000997
135 0.000998
139 0.000997
144 0.002003
150 0.001985
154 0.001993
157 0.001995
160 0.00201
151 0.002001
116 0.000998
85 0.001042
77 0.00102
89 0.001001
109 0.000995
129 0.001023
139 0.000998
139 0.00203
131 0.001996
123 0.000994
120 0.002041
123 0.001028
128 0.001035
134 0.001014
139 0.000997
145 0.000998
150 0.000998
142 0.002005
107 0.000997
74 0.002026
63 0.001996
70 0.0
90 0.001996
104 0.001031
118 0.0
127 0.0
128 0.001014
120 0.001014
116 0.000996
119 0.000987
123 0.000998
129 0.0
134 0.000999
138 0.0
144 0.001044
148 0.000997
150 0.0
134 0.0
92 0.000966
59 0.001001
63 0.000998
83 0.000998
97 0.001114
108 0.000997
118 0.001003
123 0.000998
119 0.000994
115 0.000998
115 0.0
118 0.0
122 0.0
131 0.0
138 0.0
144 0.0
147 0.0
151 0.0
154 0.000998
147 0.000997
96 0.001002
68 0.001003
63 0.0
74 0.0
88 0.0
108 0.0
121 0.0
129 0.0
129 0.0
125 0.0
124 0.0
125 0.0
131 0.001001
138 0.0
144 0.000998
149 0.0
154 0.0
159 0.0
163 0.0
166 0.0
168 0.0
171 0.0
156 0.0
103 0.0
78 0.0
76 0.0
88 0.0
110 0.0
125 0.0
135 0.001997
142 0.001007
141 0.002025
135 0.002027
133 0.0
137 0.001013
142 0.0
147 0.0
153 0.002029
158 0.002021
164 0.0
167 0.0
171 0.0
173 0.0
176 0.0
178 0.002032
174 0.00203
130 0.000995
94 0.0
81 0.0
88 0.002962
104 0.003023
126 0.0
141 0.0
153 0.0
150 0.0
143 0.0
138 0.001994
137 0.002027
143 0.0
149 0.0
154 0.0
159 0.001985
164 0.002016
167 0.0
170 0.0
173 0.0
175 0.000997
175 0.000997
173 0.002025
144 0.002022
93 0.0
78 0.0
84 0.0
101 0.002026
119 0.002027
141 0.0
153 0.0
151 0.0
143 0.0
137 0.001008
137 0.001963
140 0.003033
148 0.000964
154 0.0
160 0.0
165 0.002039
168 0.002025
172 0.0
175 0.0
192 0.0
182 0.0
135 0.0
82 0.002027
59 0.002027
70 0.0
92 0.0
120 0.0
142 0.002046
158 0.002026
164 0.0
158 0.0
145 0.000998
145 0.001004
149 0.0
158 0.003025
165 0.002022
175 0.0
181 0.0
185 0.0
189 0.002066
194 0.002024
197 0.000973
184 0.0
90 0.000977
56 0.0
54 0.000954
71 0.00303
97 0.003005
130 0.000967
149 0.0
159 0.0
157 0.002034
148 0.002027
139 0.0
138 0.0
148 0.0
158 0.0
166 0.00095
171 0.002031
176 0.00203
184 0.000962
188 0.001021
190 0.0
171 0.002967
112 0.002955
46 0.0
40 0.0
73 0.0
100 0.0
123 0.0
141 0.002035
149 0.002013
141 0.001007
130 0.0
126 0.000971
127 0.002038
133 0.002993
143 0.000975
151 0.0
162 0.0
166 0.0
171 0.0
173 0.0
163 0.002028
113 0.002026
40 0.0
24 0.0
35 0.002
59 0.002041
86 0.002012
125 0.002026
134 0.002025
124 0.001996
111 0.001993
103 0.002005
106 0.002994
110 0.002994
120 0.003
130 0.0
136 0.0
140 0.003023
145 0.002058
151 0.002998
123 0.003026
43 0.00096
11 0.001992
12 0.001994
32 0.003039
58 0.003019
98 0.002009
116 0.002052
118 0.0
109 0.003008
102 0.003024
95 0.002993
102 0.002993
117 0.001996
128 0.001993
138 0.001983
145 0.003036
149 0.002998
155 0.001995
142 0.001998
83 0.001995
18 0.002992
0 0.00296
3 0.002999
30 0.002992
67 0.001981
89 0.001983
100 0.002989
97 0.002995
88 0.004047
80 0.00199
81 0.00203
87 0.001993
98 0.002997
108 0.002992
122 0.003025
130 0.003027
141 0.001997
129 0.001994
72 0.001995
3 0.003989
0 0.003989
0 0.001994
0 0.002027
31 0.002036
56 0.00399
76 0.003023
85 0.002984
77 0.003018
70 0.00199
70 0.001959
78 0.00299
88 0.003025
100 0.002984
111 0.0
120 0.002995
128 0.002031
134 0.003977
122 0.003989
15 0.003974
49 0.003946
48 0.001984
60 0.001995
75 0.001996
90 0.003027
101 0.00399
106 0.001997
105 0.001977
101 0.002006
98 0.004025
100 0.003989
108 0.003998
114 0.003997
120 0.001995
125 0.001995
129 0.001996
132 0.004024
134 0.003993
120 0.002001
85 0.002115
56 0.002021
48 0.00399
56 0.00399
81 0.004024
96 0.003991
109 0.001998
111 0.001999
107 0.002029
103 0.00502
101 0.005014
104 0.001981
109 0.001997
114 0.001997
119 0.00399
123 0.00399
129 0.003972
133 0.003989
136 0.001993
123 0.003011
90 0.002018
62 0.004039
55 0.004016
67 0.002019
82 0.002992
98 0.00199
111 0.004986
116 0.00302
110 0.00399
105 0.004041
103 0.004026
108 0.001981
112 0.001994
118 0.001994
122 0.00402
127 0.004989
131 0.002975
134 0.00303
136 0.002982
118 0.002028
83 0.002036
59 0.004955
55 0.004954
70 0.001964
64 0.002029
85 0.001991
102 0.00399
110 0.00402
104 0.002994
97 0.002977
93 0.002976
99 0.002938
107 0.002956
115 0.004985
122 0.004987
128 0.001989
134 0.002014
139 0.002003
142 0.004985
144 0.004992
124 0.00295
71 0.002987
24 0.002979
12 0.002977
30 0.002991
52 0.004988
70 0.004986
90 0.002989
97 0.001993
96 0.001993
91 0.005018
87 0.005025
90 0.002997
95 0.002987
104 0.002989
118 0.002991
124 0.002944
131 0.004987
134 0.005017
140 0.003028
144 0.003008
144 0.002995
114 0.004943
60 0.005025
12 0.003958
11 0.003053
27 0.00302
63 0.003991
80 0.002995
93 0.006016
100 0.005986
100 0.002996
96 0.002985
93 0.002999
98 0.004995
106 0.005087
116 0.002995
125 0.003009
134 0.003947
145 0.002992
148 0.002988
151 0.005984
155 0.006
160 0.003988
147 0.00299
101 0.003975
58 0.00595
43 0.005988
56 0.002992
77 0.002993
97 0.002945
122 0.002975
129 0.002938
129 0.00502
124 0.004981
120 0.002995
123 0.003994
130 0.004001
138 0.00599
145 0.005985
155 0.003035
161 0.003018
165 0.004018
171 0.003034
174 0.002947
178 0.005984
178 0.006014
138 0.003995
99 0.003991
84 0.003988
89 0.005986
104 0.006016
129 0.00399
145 0.00297
159 0.00294
155 0.003016
149 0.004009
144 0.005984
143 0.006015
149 0.002986
157 0.002999
162 0.003982
166 0.006011
170 0.005959
176 0.004003
178 0.004
183 0.002996
185 0.003984
172 0.004998
132 0.006981
99 0.006985
93 0.004026
103 0.003986
120 0.003979
135 0.006014
148 0.006015
156 0.006039
156 0.003989
148 0.005986
142 0.003993
144 0.002986
147 0.003991
152 0.006968
158 0.007013
164 0.003996
167 0.004024
170 0.004987
174 0.007027
176 0.006981
178 0.004006
157 0.005955
101 0.003988
79 0.00399
80 0.003987
91 0.006965
107 0.007013
125 0.005004
135 0.00499
141 0.003992
142 0.007016
135 0.007016
129 0.003998
128 0.00695
134 0.003993
140 0.003992
145 0.004956
150 0.007022
154 0.007015
157 0.004987
160 0.004954
163 0.003981
162 0.007015
133 0.00702
83 0.004965
67 0.006983
80 0.003015
94 0.003942
111 0.003935
123 0.007936
132 0.007968
133 0.00402
128 0.004985
120 0.004988
118 0.006993
120 0.00696
127 0.004986
134 0.007012
140 0.004973
144 0.004988
148 0.004942
151 0.007018
154 0.007012
149 0.004984
114 0.004997
77 0.004967
61 0.007979
72 0.007966
86 0.00501
110 0.007023
126 0.005001
132 0.004986
129 0.00499
119 0.007015
113 0.00798
115 0.005989
117 0.005947
122 0.005987
130 0.007949
134 0.007981
138 0.00595
144 0.007984
147 0.005965
141 0.004983
105 0.004999
70 0.007016
59 0.007948
68 0.00599
84 0.00599
103 0.006
119 0.00798
129 0.007947
128 0.004984
115 0.008013
112 0.004986
113 0.004985
118 0.004987
127 0.007992
131 0.00798
137 0.005984
141 0.005981
144 0.005936
149 0.007947
136 0.007978
69 0.007976
49 0.00795
51 0.00597
65 0.005987
82 0.005993
104 0.007978
115 0.007963
121 0.005969
117 0.005019
111 0.005003
107 0.007969
109 0.006982
118 0.007996
124 0.008029
131 0.005982
135 0.005984
140 0.006001
146 0.00797
140 0.007976
104 0.005981
62 0.004965
40 0.006952
45 0.007009
62 0.00698
93 0.006979
106 0.006984
114 0.005989
115 0.005984
110 0.005984
104 0.007975
106 0.007981
110 0.006
117 0.004989
124 0.006969
129 0.005972
137 0.006981
144 0.006051
148 0.007001
133 0.007016
88 0.00598
51 0.005952
38 0.005982
46 0.007979
72 0.007976
92 0.005987
107 0.005989
120 0.006974
121 0.006968
111 0.006969
109 0.007019
112 0.007017
118 0.005983
124 0.005984
130 0.005986
139 0.00699
143 0.006981
148 0.005997
152 0.006948
148 0.006961
107 0.007012
53 0.00695
45 0.006984
60 0.006982
81 0.00599
102 0.006003
119 0.005985
131 0.006952
126 0.006982
117 0.005989
112 0.004986
112 0.005987
118 0.006017
127 0.006984
136 0.006985
141 0.007017
147 0.00698
151 0.006981
154 0.005983
138 0.006014
94 0.006978
57 0.005983
46 0.005989
54 0.005951
81 0.006019
115 0.006021
128 0.00599
130 0.006017
121 0.005985
116 0.006978
113 0.006975
116 0.00697
122 0.006981
131 0.006975
137 0.006948
142 0.00599
149 0.006021
155 0.005984
152 0.005983
119 0.006011
60 0.006948
42 0.006976
48 0.005954
67 0.007002
89 0.007035
113 0.006975
123 0.006975
131 0.006016
121 0.005983
116 0.005981
116 0.005977
122 0.005984
133 0.005987
140 0.005981
146 0.005986
152 0.007024
157 0.007018
161 0.006986
166 0.005982
149 0.005975
70 0.005994
45 0.005986
46 0.005986
63 0.005985
90 0.005981
107 0.005981
121 0.005984
129 0.005981
128 0.005988
123 0.006972
121 0.005991
122 0.005976
134 0.005987
141 0.005954
149 0.006043
154 0.005989
161 0.005988
165 0.005981
170 0.005896
167 0.006025
132 0.006014
71 0.00598
51 0.004999
57 0.004922
88 0.005017
107 0.004988
124 0.005002
134 0.006022
137 0.006004
133 0.005965
128 0.005974
127 0.006028
130 0.005971
139 0.00599
146 0.005985
153 0.004978
161 0.004989
166 0.004981
170 0.00498
173 0.005984
173 0.006017
135 0.005973
86 0.005997
58 0.005981
59 0.006018
74 0.005023
99 0.004966
117 0.004981
137 0.004994
138 0.004989
132 0.004987
125 0.005021
124 0.005021
128 0.004995
133 0.005991
141 0.004985
147 0.005983
152 0.004988
157 0.005017
162 0.005015
167 0.003994
165 0.004999
136 0.004985
89 0.005019
61 0.004969
61 0.004986
79 0.004982
99 0.004982
118 0.004033
133 0.005018
140 0.004999
135 0.005016
124 0.00498
123 0.004997
127 0.004986
134 0.005027
142 0.00502
148 0.00499
154 0.004986
158 0.004987
161 0.005026
164 0.005021
169 0.004984
165 0.003989
96 0.004987
61 0.004947
54 0.004955
67 0.004987
84 0.005021
107 0.004995
122 0.004991
131 0.004979
132 0.004022
127 0.004022
120 0.00403
120 0.004021
127 0.003956
135 0.003956
142 0.004025
148 0.004952
152 0.005035
158 0.004956
161 0.004993
164 0.004988
161 0.005019
128 0.003992
73 0.003991
60 0.003953
75 0.003955
92 0.004007
111 0.004025
122 0.00399
131 0.004028
133 0.003959
128 0.003991
122 0.004035
123 0.004023
126 0.004024
133 0.003997
141 0.004
147 0.003955
152 0.003989
155 0.003958
158 0.003981
161 0.003964
153 0.004021
115 0.003985
79 0.003995
68 0.003972
75 0.004029
94 0.004029
115 0.003936
132 0.003967
137 0.004025
134 0.004046
125 0.003941
120 0.00399
120 0.004934
125 0.003984
130 0.00402
137 0.002992
139 0.004025
144 0.003996
148 0.003988
152 0.003995
149 0.00399
117 0.004001
83 0.004041
69 0.004021
78 0.003967
93 0.004021
110 0.003023
123 0.002994
133 0.003964
135 0.004011
125 0.00395
119 0.004003
120 0.004001
124 0.003987
130 0.003991
134 0.004042
141 0.004017
145 0.003022
148 0.00299
151 0.002992
151 0.003025
115 0.00399
71 0.00396
65 0.002992
77 0.00299
94 0.003992
110 0.004025
123 0.003049
130 0.00399
129 0.003025
123 0.003025
117 0.002992
117 0.003023
121 0.002992
129 0.002963
134 0.002979
139 0.003001
145 0.002989
147 0.002994
150 0.003989
143 0.003029
95 0.003026
64 0.00296
59 0.002989
68 0.002992
82 0.002993
108 0.002988
119 0.002993
126 0.002994
123 0.003982
117 0.003994
115 0.002992
115 0.002992
120 0.002958
126 0.001994
132 0.00298
137 0.002999
142 0.002991
149 0.00299
150 0.003003
120 0.002987
79 0.002989
57 0.003027
58 0.002969
73 0.002991
94 0.002993
109 0.001996
121 0.002986
127 0.001955
120 0.002004
112 0.001995
112 0.003001
117 0.002992
122 0.003
129 0.002992
137 0.002992
142 0.001995
148 0.003024
153 0.003026
157 0.003039
156 0.001992
81 0.002988
42 0.00196
34 0.002001
54 0.001995
78 0.002978
101 0.002997
119 0.002995
129 0.001964
126 0.001992
116 0.001974
110 0.001993
110 0.00199
120 0.001966
128 0.001964
137 0.002001
144 0.001979
149 0.001998
155 0.002031
158 0.003007
157 0.003002
108 0.002011
59 0.001998
39 0.001996
46 0.001995
83 0.001998
108 0.002024
127 0.00199
137 0.001992
133 0.001995
122 0.001995
116 0.001996
117 0.002006
125 0.002011
132 0.001987
140 0.001998
148 0.001991
157 0.001973
161 0.001994
166 0.001996
147 0.001986
89 0.001998
44 0.002002
32 0.001999
46 0.001996
77 0.001006
103 0.001989
125 0.001962
138 0.001999
134 0.001959
125 0.001993
120 0.001988
123 0.001995
130 0.000996
139 0.001987
147 0.000992
154 0.000982
161 0.000993
167 0.000999
173 0.001012
170 0.001994
85 0.001991
37 0.002
24 0.002006
37 0.000996
70 0.001999
97 0.001002
120 0.000996
133 0.001001
134 0.000998
124 0.001002
117 0.001011
115 0.002004
124 0.001998
134 0.002003
144 0.001999
150 0.001003
159 0.002001
166 0.000984
171 0.000993
172 0.001016
133 0.001
51 0.001993
20 0.001987
22 0.0
63 0.002004
90 0.002
114 0.002001
128 0.001007
131 0.000998
122 0.001004
114 0.001041
111 0.001022
116 0.001005
128 0.000993
136 0.002002
145 0.002004
156 0.001991
162 0.001998
166 0.00099
168 0.0
120 0.0
55 0.000991
19 0.001009
21 0.00101
42 0.000998
78 0.000997
106 0.000997
134 0.000968
132 0.000974
120 0.000994
110 0.0
107 0.0
114 0.0
122 0.0
132 0.0
141 0.0
150 0.001007
158 0.000996
164 0.001028
157 0.000983
101 0.001024
45 0.0
21 0.000997
31 0.0
65 0.0
93 0.0
120 0.0
139 0.0
141 0.0
127 0.0
118 0.0
120 0.0
128 0.0
137 0.000998
147 0.0
156 0.0
163 0.0
170 0.0
176 0.0
179 0.0
151 0.0
63 0.0
22 0.0
31 0.0
58 0.0
86 0.0
111 0.000965
131 0.000965
136 0.0
129 0.0
120 0.0
118 0.0
120 0.0
133 0.0
142 0.001952
156 0.0
164 0.0
171 0.001005
177 0.0
180 0.000969
161 0.002995
96 0.002994
28 0.0
21 0.0
39 0.0
66 0.001963
92 0.002028
126 0.002954
136 0.002988
131 0.0
123 0.0
118 0.0
122 0.003034
128 0.001995
140 0.0
151 0.0
159 0.0
165 0.001983
173 0.002992
180 0.0
184 0.001995
170 0.002992
85 0.0
34 0.0
20 0.0
34 0.002993
61 0.002991
98 0.0
119 0.0
135 0.0
135 0.001995
119 0.0
113 0.001995
114 0.002992
122 0.0
131 0.0
140 0.0
147 0.002993
154 0.002992
161 0.0
166 0.0
170 0.0
169 0.001994
83 0.000997
30 0.003021
12 0.002026
33 0.0
61 0.000997
89 0.0
114 0.001965
130 0.001995
122 0.0
109 0.0
101 0.0
101 0.0
106 0.0
117 0.001994
126 0.001995
136 0.000963
142 0.0
149 0.0
154 0.001963
157 0.001965
105 0.000998
43 0.000997
7 0.0
21 0.0
47 0.0
77 0.002989
106 0.001995
126 0.0
123 0.0
111 0.0
102 0.001964
99 0.001964
104 0.0
113 0.000997
121 0.000992
134 0.0
138 0.0
143 0.002985
148 0.00296
138 0.0
78 0.0
8 0.0
0 0.001955
0 0.001959
0 0.001423
17 0.0
43 0.0
71 0.0
74 0.001011
66 0.002004
57 0.002998
55 0.000965
63 0.000964
72 0.0
82 0.002994
92 0.002987
103 0.0
110 0.0
117 0.0
99 0.0
26 0.0
0 0.001996
0 0.002002
0 0.000998
0 0.0
7 0.000997
41 0.001993
65 0.002993
76 0.0
69 0.0
59 0.0
53 0.0
61 0.000964
70 0.003033
77 0.002043
88 0.000998
98 0.000966
103 0.000966
109 0.002991
95 0.003032
8 0.0
42 0.001
35 0.0
51 0.0
67 0.0
82 0.00399
94 0.002991
101 0.0
98 0.000994
93 0.001004
92 0.002035
92 0.002033
98 0.0
104 0.00103
110 0.000995
119 0.000996
124 0.0
127 0.003023
126 0.002993
86 0.0
58 0.0
47 0.0
54 0.0
68 0.002993
84 0.002947
106 0.0
115 0.0
112 0.0
107 0.0
105 0.0
106 0.002969
110 0.003054
117 0.000955
122 0.0
127 0.001006
132 0.00303
136 0.00303
137 0.0
112 0.000958
64 0.0
59 0.001992
69 0.000999
83 0.003992
99 0.002992
119 0.0
125 0.0
121 0.002981
115 0.003023
111 0.002982
112 0.001976
118 0.003993
124 0.0
127 0.001991
135 0.001995
139 0.005985
105 0.003989
105 0.003991
83 0.000996
62 0.002991
62 0.002992
74 0.003991
94 0.0
115 0.002993
126 0.0
124 0.0
116 0.000972
110 0.004988
109 0.003989
116 0.002023
122 0.0
130 0.002983
137 0.004024
143 0.003026
151 0.002995
140 0.00301
80 0.0
46 0.003022
39 0.0
53 0.002967
72 0.003959
100 0.003071
117 0.002986
129 0.001995
129 0.003995
123 0.003984
120 0.001995
122 0.003946
132 0.003988
140 0.003022
147 0.003001
155 0.003995
163 0.002998
166 0.003019
146 0.003013
101 0.002996
70 0.005045
65 0.00402
84 0.001995
108 0.003989
131 0.002996
142 0.0
146 0.003999
144 0.004008
140 0.003992
138 0.001989
143 0.0
149 0.002993
155 0.003997
162 0.004026
169 0.0
176 0.004988
181 0.0
167 0.003
128 0.003037
96 0.002937
88 0.003962
103 0.002988
119 0.002983
135 0.002995
150 0.00402
158 0.004994
155 0.002991
149 0.004985
146 0.003003
149 0.002955
154 0.004024
158 0.003993
162 0.003987
169 0.002992
173 0.002037
176 0.002993
178 0.005018
164 0.004046
114 0.003002
93 0.004987
101 0.003999
117 0.001012
133 0.002993
147 0.003971
155 0.005986
156 0.000946
148 0.002036
144 0.002993
144 0.002987
146 0.003989
151 0.003992
159 0.004958
164 0.00502
169 0.0
171 0.00305
175 0.002
174 0.004982
149 0.004012
97 0.00304
81 0.002994
85 0.002003
97 0.00399
122 0.003005
135 0.005021
143 0.00494
143 0.002008
137 0.002996
133 0.003024
134 0.004989
136 0.003991
144 0.001042
149 0.002976
154 0.003008
157 0.004987
163 0.003008
166 0.004954
170 0.005029
157 0.003
118 0.002022
83 0.002004
69 0.00602
74 0.005021
94 0.003038
108 0.002029
121 0.002981
130 0.004953
135 0.003006
131 0.005953
128 0.004953
128 0.002998
133 0.001991
138 0.001994
144 0.005985
149 0.006014
156 0.002993
159 0.002979
162 0.002979
165 0.005013
168 0.003041
150 0.004953
108 0.006019
71 0.002993
70 0.002984
82 0.001995
97 0.006017
114 0.005984
131 0.00299
137 0.003994
139 0.002978
136 0.005194
130 0.002998
131 0.005981
134 0.006019
144 0.002992
150 0.002994
155 0.002001
160 0.005986
165 0.006018
167 0.003988
170 0.00299
172 0.002993
174 0.005021
139 0.003021
97 0.005984
75 0.005984
80 0.002994
95 0.002974
113 0.002974
129 0.005994
143 0.005951
148 0.003004
143 0.002991
136 0.002945
132 0.005981
136 0.002991
140 0.005985
147 0.005984
153 0.003006
157 0.004005
161 0.00399
164 0.007022
167 0.007028
169 0.003975
170 0.002995
149 0.003992
108 0.007014
75 0.004986
82 0.006982
97 0.005985
121 0.004006
138 0.003026
149 0.004034
149 0.005984
142 0.005985
131 0.004991
128 0.00394
130 0.002973
136 0.006016
146 0.003004
151 0.00594
155 0.006977
160 0.003993
164 0.003971
167 0.003991
162 0.005998
127 0.007019
79 0.00399
67 0.002958
74 0.003992
92 0.005976
123 0.003995
139 0.006949
147 0.006983
143 0.004006
135 0.003019
129 0.003027
128 0.006023
132 0.007033
139 0.007027
146 0.002995
152 0.002993
158 0.003991
163 0.003989
166 0.003991
167 0.006987
150 0.006982
88 0.003995
56 0.003984
49 0.003971
62 0.006984
81 0.006993
106 0.003975
122 0.003977
136 0.004045
131 0.004031
123 0.003996
118 0.007013
120 0.007022
125 0.003975
131 0.004003
139 0.00399
146 0.007011
149 0.007013
155 0.00395
160 0.004982
151 0.004001
106 0.003992
59 0.005028
35 0.006986
38 0.006983
57 0.004975
79 0.005001
97 0.004026
112 0.007027
120 0.007953
116 0.004959
108 0.004994
104 0.003989
107 0.004021
110 0.004973
115 0.007041
117 0.00698
128 0.004938
137 0.003974
147 0.003991
155 0.006967
149 0.007014
86 0.004031
43 0.003945
33 0.004943
49 0.004986
69 0.004953
89 0.007945
105 0.007974
116 0.004955
115 0.004963
107 0.004997
101 0.008003
101 0.007977
106 0.003967
112 0.004036
125 0.004944
131 0.005056
138 0.00499
143 0.007975
148 0.007975
138 0.004986
90 0.004991
43 0.004986
21 0.007975
31 0.007979
51 0.004987
73 0.004976
107 0.005983
116 0.00498
115 0.004955
105 0.007978
102 0.007982
101 0.005017
105 0.00499
111 0.005974
121 0.007977
127 0.007978
134 0.005002
140 0.005983
147 0.004949
136 0.005026
91 0.004987
39 0.007952
29 0.00798
41 0.004986
62 0.005972
85 0.006018
114 0.007975
125 0.007981
121 0.005001
111 0.004986
100 0.005951
99 0.005948
103 0.005014
113 0.007978
120 0.006979
125 0.00595
131 0.005949
137 0.005953
133 0.007987
97 0.007977
53 0.004969
27 0.006979
39 0.005966
60 0.00596
83 0.005983
111 0.006988
119 0.006988
117 0.004983
108 0.006008
100 0.005982
102 0.006981
108 0.007983
113 0.004987
121 0.007979
130 0.005983
135 0.005023
138 0.006016
123 0.006015
54 0.007993
19 0.007971
11 0.00602
24 0.005983
46 0.005985
77 0.006968
95 0.007027
105 0.007012
97 0.006981
90 0.005979
89 0.004998
92 0.005988
99 0.006969
108 0.006981
116 0.005017
122 0.005935
132 0.00696
127 0.007003
83 0.006999
8 0.006998
0 0.006986
13 0.005994
34 0.005957
55 0.005984
82 0.006947
93 0.006975
94 0.006016
90 0.006016
87 0.005986
88 0.005978
95 0.007022
110 0.006986
119 0.006984
126 0.006012
134 0.00598
140 0.006049
111 0.005983
61 0.006967
27 0.005979
22 0.006014
39 0.006018
60 0.005983
81 0.006019
107 0.005977
114 0.006999
112 0.005991
111 0.006019
113 0.006021
118 0.006983
125 0.006981
135 0.006951
143 0.006939
151 0.006019
160 0.006987
167 0.007002
161 0.005988
120 0.00606
75 0.005981
70 0.005987
81 0.005983
98 0.005984
117 0.005971
138 0.005977
145 0.005993
149 0.005971
149 0.005991
144 0.007014
147 0.006948
152 0.006982
161 0.005981
167 0.005972
173 0.006038
178 0.005982
183 0.005984
187 0.005933
191 0.005974
191 0.00599
165 0.005984
126 0.006018
102 0.006074
111 0.005951
133 0.006018
147 0.005974
159 0.006004
166 0.005988
169 0.006016
163 0.00499
159 0.005021
160 0.005984
163 0.004988
167 0.006011
175 0.005977
181 0.005984
186 0.005977
188 0.005981
190 0.005024
193 0.005968
194 0.006981
194 0.004985
174 0.004986
138 0.004993
117 0.004991
124 0.004987
138 0.005999
153 0.006031
168 0.005984
174 0.006012
174 0.00594
167 0.005977
161 0.005978
160 0.004947
163 0.004972
166 0.004979
172 0.005
178 0.004987
181 0.00502
183 0.00499
185 0.004985
189 0.005017
190 0.005021
189 0.005035
168 0.004984
136 0.004988
122 0.006035
130 0.004987
143 0.005033
164 0.004991
176 0.00499
178 0.005983
175 0.004989
168 0.005051
164 0.004978
163 0.004993
167 0.005003
171 0.005002
174 0.00499
179 0.004952
182 0.00399
185 0.005995
187 0.003983
187 0.00499
189 0.003984
173 0.00499
139 0.004997
120 0.004987
119 0.00396
130 0.004988
146 0.004979
160 0.004954
169 0.004956
174 0.003988
167 0.003991
160 0.003975
157 0.003986
156 0.004954
160 0.003988
165 0.004035
170 0.004984
174 0.004998
180 0.004972
183 0.004981
187 0.003988
189 0.003989
183 0.003989
153 0.00299
122 0.002991
111 0.003989
119 0.00399
131 0.003989
143 0.005017
164 0.004993
180 0.004984
178 0.004988
170 0.004986
157 0.003989
156 0.003991
159 0.003954
164 0.006002
172 0.004992
178 0.003989
181 0.003989
185 0.003968
189 0.004989
193 0.003953
191 0.003989
