169 0.016958
164 0.000999
85 0.000974
31 0.001001
6 0.000992
62 0.000997
64 0.001002
69 0.0
77 0.0
83 0.0
81 0.001055
79 0.000994
80 0.001001
83 0.000991
90 0.000984
96 0.001001
102 0.000986
109 0.001004
119 0.001013
125 0.0
133 0.0
140 0.0
152 0.0
157 0.000983
140 0.000999
90 0.001012
72 0.000998
65 0.001007
63 0.000958
64 0.000997
70 0.0
75 0.0
77 0.0
76 0.0
74 0.0
75 0.000997
80 0.000998
87 0.001013
94 0.000979
100 0.001018
106 0.001001
113 0.0
121 0.0
128 0.0
135 0.0
142 0.0
153 0.0
160 0.0
165 0.0
125 0.000998
94 0.000981
77 0.0
70 0.001003
68 0.0
69 0.0
73 0.0
78 0.0
80 0.0
78 0.0
77 0.0
79 0.0
85 0.000962
91 0.000999
98 0.000983
105 0.0
112 0.0
120 0.0
127 0.0
134 0.0
141 0.0
152 0.0
159 0.0
166 0.0
150 0.0
117 0.0
98 0.001005
88 0.0
85 0.0
88 0.0
93 0.0
99 0.0
103 0.0
101 0.0
100 0.0
102 0.0
108 0.0
114 0.0
122 0.0
127 0.0
134 0.0
143 0.0
149 0.0
156 0.0
167 0.0
173 0.0
180 0.0
181 0.0
145 0.000999
119 0.001001
103 0.0
100 0.0
100 0.0
103 0.0
108 0.0
114 0.0
115 0.0
113 0.0
113 0.0
116 0.0
121 0.000959
127 0.001004
136 0.0
142 0.0
146 0.0
154 0.0
161 0.0
167 0.0
177 0.0
183 0.0
188 0.0
195 0.0
200 0.000996
199 0.000998
147 0.0
131 0.0
118 0.0
114 0.0
115 0.0
118 0.0
125 0.000999
127 0.000999
125 0.0
122 0.0
122 0.000997
124 0.000953
128 0.000998
139 0.0
152 0.000997
157 0.0
165 0.0
170 0.000998
175 0.000999
179 0.000999
186 0.0
190 0.000998
195 0.000996
200 0.0
183 0.0
145 0.0
127 0.000997
121 0.0
122 0.000998
126 0.000997
131 0.000998
136 0.000999
137 0.000998
134 0.000966
131 0.000996
131 0.0
134 0.0
139 0.000997
144 0.000995
148 0.001965
156 0.001
161 0.000999
166 0.000999
169 0.000997
174 0.000997
180 0.000995
184 0.000997
189 0.0
190 0.0
164 0.0
132 0.000998
118 0.002019
112 0.001049
114 0.001039
116 0.000963
120 0.000987
125 0.0
125 0.000999
123 0.001028
121 0.0
122 0.0
124 0.000998
129 0.002
136 0.00203
147 0.001995
153 0.001995
160 0.000998
166 0.000999
173 0.001
181 0.000999
187 0.000998
193 0.000998
195 0.0
151 0.000998
112 0.001997
93 0.000999
92 0.001995
96 0.001996
100 0.000998
107 0.000999
112 0.000998
110 0.000997
104 0.000998
102 0.000998
103 0.000997
110 0.000998
116 0.001996
127 0.000998
133 0.001995
139 0.001995
148 0.000999
154 0.001027
158 0.000998
164 0.000998
144 0.000999
104 0.000998
81 0.001995
70 0.000997
70 0.001995
79 0.000998
86 0.00203
91 0.001995
91 0.000996
87 0.000996
86 0.000995
88 0.001024
93 0.001037
99 0.002036
106 0.002022
113 0.002027
123 0.001994
134 0.001032
140 0.001995
147 0.001995
153 0.000998
130 0.00096
92 0.000999
69 0.001995
58 0.00199
56 0.001996
56 0.002001
60 0.002029
67 0.001996
74 0.001022
73 0.00202
71 0.001995
74 0.000998
78 0.000989
86 0.000997
94 0.003019
101 0.003044
108 0.001995
115 0.00203
122 0.00203
132 0.001995
142 0.001033
149 0.002994
153 0.001994
116 0.001994
87 0.000997
69 0.001959
62 0.002992
62 0.003043
68 0.002025
73 0.001025
79 0.001995
81 0.001988
77 0.001024
77 0.002024
79 0.001995
86 0.001047
93 0.001046
99 0.002041
106 0.002992
113 0.003019
121 0.001995
126 0.00203
131 0.002034
139 0.001995
117 0.001995
79 0.001994
62 0.001995
56 0.000997
58 0.001995
62 0.001994
70 0.002991
78 0.002992
80 0.001995
78 0.001994
77 0.001995
80 0.001995
88 0.001994
97 0.001995
105 0.002992
113 0.002993
123 0.001995
131 0.002024
138 0.002991
145 0.002992
149 0.000995
88 0.0
120 0.002992
128 0.002993
135 0.00302
145 0.002037
152 0.002027
158 0.003031
165 0.002992
174 0.002041
175 0.002038
114 0.002994
90 0.002993
81 0.002993
81 0.002992
85 0.002997
90 0.002994
98 0.002993
104 0.002992
102 0.002992
99 0.002993
98 0.001995
102 0.002992
113 0.002991
121 0.002993
129 0.002992
136 0.003988
143 0.002992
150 0.002993
156 0.002995
163 0.002995
171 0.002993
160 0.002992
113 0.002002
94 0.003031
86 0.002986
88 0.003018
92 0.003029
99 0.003955
107 0.003956
110 0.002986
109 0.003019
106 0.003026
108 0.003028
113 0.002993
123 0.002019
132 0.003033
145 0.003043
152 0.00304
160 0.002996
168 0.003996
174 0.004023
183 0.002992
188 0.003025
193 0.003032
201 0.002992
187 0.002993
141 0.002992
111 0.003
105 0.002991
108 0.003025
112 0.003027
118 0.00399
125 0.00399
129 0.002992
128 0.003046
127 0.003992
128 0.004018
132 0.002993
138 0.004024
148 0.002994
160 0.002993
167 0.002993
174 0.002992
180 0.004025
186 0.004988
194 0.002994
199 0.003045
201 0.004038
207 0.002982
211 0.004034
207 0.00399
150 0.003006
125 0.004057
120 0.002992
124 0.002994
130 0.004027
137 0.004027
147 0.003047
148 0.002983
144 0.003952
140 0.004987
140 0.00399
144 0.004004
149 0.003993
159 0.003972
167 0.002994
173 0.002993
179 0.003952
183 0.00398
189 0.002982
194 0.00303
197 0.004017
185 0.004987
144 0.004986
116 0.003994
112 0.003951
115 0.003982
123 0.002999
131 0.002955
137 0.003993
140 0.004936
138 0.003031
135 0.002984
136 0.003969
140 0.004991
147 0.004937
156 0.003979
164 0.003987
170 0.004038
176 0.003952
184 0.003029
188 0.003997
193 0.004016
200 0.003005
192 0.003984
144 0.003982
116 0.004986
105 0.004998
104 0.003969
110 0.004025
116 0.003964
122 0.003993
127 0.003997
126 0.003986
122 0.004988
121 0.003995
124 0.003989
131 0.004016
137 0.004988
144 0.004969
152 0.003992
159 0.004972
167 0.003991
171 0.003993
176 0.003986
185 0.003959
189 0.004981
160 0.004002
119 0.003988
99 0.00402
92 0.004999
92 0.020943
96 0.0
103 0.0
146 0.004988
155 0.004996
161 0.004983
168 0.004037
162 0.004978
133 0.004984
91 0.004983
81 0.004952
82 0.003996
86 0.004016
95 0.004005
104 0.004986
109 0.004993
103 0.004995
98 0.004986
99 0.004038
103 0.004987
109 0.004984
116 0.004978
123 0.004992
130 0.004996
138 0.004013
145 0.004012
151 0.005004
157 0.00499
162 0.005001
119 0.005999
78 0.00399
68 0.004996
68 0.005
74 0.004972
81 0.004922
89 0.004965
97 0.004018
97 0.003987
93 0.005932
90 0.005952
94 0.005984
100 0.004983
109 0.004978
116 0.004968
124 0.004975
131 0.005997
139 0.004983
147 0.004965
154 0.004953
162 0.005004
172 0.004982
176 0.004974
109 0.004979
82 0.005983
70 0.00502
71 0.004987
75 0.004989
82 0.005955
89 0.005972
94 0.005009
92 0.004981
88 0.004984
85 0.00498
92 0.003997
99 0.005984
108 0.005973
119 0.004978
128 0.004983
136 0.004938
143 0.005996
151 0.005974
161 0.004951
164 0.00502
146 0.004986
93 0.005003
67 0.00404
67 0.006
71 0.005974
80 0.004977
89 0.004985
94 0.005002
92 0.005964
87 0.005989
86 0.00498
89 0.00497
94 0.004985
105 0.004984
115 0.005984
126 0.006024
135 0.006022
145 0.005
153 0.005025
160 0.004982
147 0.005978
100 0.006979
67 0.004987
60 0.005013
61 0.00497
65 0.005969
79 0.005022
87 0.005977
89 0.005945
85 0.00498
85 0.004986
85 0.004991
91 0.005984
99 0.005981
109 0.005026
118 0.004984
127 0.005978
136 0.006977
147 0.005985
158 0.005978
167 0.005985
169 0.005974
107 0.004997
79 0.004998
66 0.005983
64 0.005989
69 0.004976
77 0.00599
85 0.005969
91 0.006996
89 0.004989
85 0.005988
85 0.006008
90 0.004985
97 0.004965
105 0.005012
114 0.005969
123 0.005984
134 0.004971
143 0.005939
151 0.005979
158 0.006978
173 0.005967
175 0.00697
133 0.005972
91 0.006025
69 0.005985
67 0.005001
71 0.006015
77 0.006985
89 0.005981
95 0.005948
94 0.005959
88 0.006972
85 0.006022
90 0.006956
97 0.006965
104 0.00597
112 0.005977
120 0.005943
133 0.006032
140 0.006995
152 0.006022
161 0.005984
164 0.006982
154 0.000998
67 0.0
139 0.004982
149 0.006946
162 0.005974
171 0.005953
177 0.006981
187 0.00697
170 0.006969
104 0.005988
82 0.005982
73 0.005989
76 0.005979
81 0.005948
91 0.007017
98 0.006981
100 0.007037
98 0.006982
93 0.006017
95 0.006962
99 0.006971
109 0.005991
117 0.005999
132 0.006026
142 0.005995
153 0.005976
163 0.006969
173 0.007024
183 0.007002
190 0.006997
171 0.006966
119 0.006966
89 0.006944
76 0.005988
75 0.005944
83 0.005995
91 0.005984
98 0.006032
97 0.006979
89 0.007954
86 0.006976
88 0.006976
92 0.006952
99 0.007978
107 0.007
115 0.006978
123 0.006976
141 0.005994
152 0.005997
162 0.006983
147 0.007959
103 0.007947
76 0.006967
61 0.00698
58 0.006954
61 0.007989
68 0.006987
76 0.006963
84 0.006985
82 0.006019
82 0.006003
83 0.006974
90 0.007983
96 0.007967
108 0.00703
117 0.007027
127 0.006989
140 0.007955
149 0.007942
160 0.006979
169 0.005997
154 0.006976
94 0.006022
70 0.006979
59 0.00798
58 0.007979
62 0.006976
69 0.007022
77 0.007006
82 0.007975
81 0.007978
78 0.007025
80 0.007978
89 0.007978
100 0.007042
109 0.007012
119 0.007979
132 0.007968
142 0.007013
151 0.007013
160 0.007005
168 0.007976
179 0.006982
158 0.007007
102 0.007017
73 0.007944
71 0.007018
73 0.00701
79 0.00794
87 0.007983
97 0.006939
98 0.00702
94 0.006963
92 0.007978
94 0.007008
102 0.007018
108 0.006981
120 0.007993
126 0.007939
139 0.007975
144 0.00798
152 0.007947
162 0.006901
167 0.006944
141 0.006982
95 0.007012
81 0.007978
69 0.006986
73 0.006985
81 0.007978
95 0.007998
100 0.007982
99 0.007979
95 0.007976
96 0.006928
100 0.006979
107 0.007008
119 0.007982
129 0.007006
141 0.006981
153 0.006933
165 0.006978
174 0.006978
179 0.006985
183 0.007979
149 0.007978
99 0.00698
81 0.006979
75 0.00696
76 0.007978
82 0.006981
92 0.007008
99 0.007018
98 0.006994
96 0.006979
99 0.007973
103 0.007979
110 0.007953
119 0.007978
130 0.006979
139 0.006975
150 0.007006
159 0.007008
170 0.00702
181 0.006941
191 0.007017
180 0.006983
133 0.006991
104 0.007005
92 0.00798
85 0.007978
89 0.007018
96 0.007008
104 0.00698
110 0.007014
108 0.006979
104 0.006976
105 0.006976
111 0.007001
113 0.009007
119 0.001
170 0.0
93 0.007009
103 0.006045
113 0.00703
113 0.006982
109 0.007009
108 0.006985
111 0.00701
122 0.006992
130 0.007021
142 0.006975
151 0.006976
159 0.005983
169 0.005984
177 0.005983
188 0.00701
196 0.006981
183 0.007021
134 0.007009
104 0.007015
90 0.00697
92 0.00698
98 0.00698
106 0.00699
113 0.006011
115 0.006011
112 0.005977
109 0.006012
111 0.006012
116 0.007018
123 0.007023
130 0.006983
145 0.00698
153 0.006964
163 0.006974
171 0.007001
179 0.005988
185 0.005983
192 0.006045
200 0.006018
183 0.005986
133 0.007019
106 0.007021
96 0.006982
98 0.006955
104 0.006973
115 0.007011
121 0.006972
122 0.00602
117 0.006014
114 0.006014
116 0.006014
122 0.006983
128 0.007021
135 0.006981
148 0.006962
155 0.006989
163 0.006018
171 0.006956
178 0.00601
185 0.005961
185 0.006035
150 0.006021
110 0.005985
100 0.006016
100 0.005997
105 0.006018
120 0.006969
129 0.006976
133 0.006958
128 0.006006
123 0.00595
124 0.005984
129 0.006029
135 0.00604
145 0.006027
153 0.005987
161 0.005986
169 0.006029
180 0.006981
187 0.00698
193 0.005981
177 0.005956
133 0.00595
108 0.005995
99 0.005984
100 0.006018
105 0.005986
114 0.006018
122 0.006022
126 0.006024
122 0.005978
119 0.004954
120 0.005976
126 0.005975
133 0.005985
142 0.005982
149 0.006016
156 0.006032
166 0.005983
173 0.005012
179 0.006003
184 0.006031
195 0.004994
185 0.00498
139 0.005986
102 0.005987
94 0.005987
94 0.005979
98 0.006024
105 0.006029
116 0.006018
120 0.005986
118 0.006011
113 0.006028
112 0.004981
116 0.004994
123 0.004986
133 0.005976
140 0.006002
148 0.005981
155 0.00602
163 0.006008
172 0.006027
179 0.006015
185 0.005029
187 0.005033
126 0.004991
103 0.004992
94 0.005008
96 0.004994
102 0.00599
111 0.005927
120 0.006011
124 0.006019
118 0.006019
113 0.005985
113 0.006023
117 0.005021
129 0.004976
136 0.004991
143 0.004961
153 0.004953
160 0.004973
166 0.006008
173 0.006002
179 0.006013
161 0.004984
119 0.006015
96 0.005022
89 0.010971
87 0.00097
115 0.0
113 0.005022
119 0.005013
126 0.00503
134 0.005041
146 0.004994
152 0.004987
159 0.004985
166 0.00498
175 0.004968
181 0.004983
187 0.005957
179 0.004019
134 0.006025
105 0.004988
91 0.004987
92 0.005027
100 0.004993
108 0.004964
114 0.00501
117 0.004989
114 0.004021
110 0.004987
111 0.004987
116 0.004016
122 0.004988
130 0.00502
141 0.00504
149 0.00502
160 0.004982
167 0.004986
174 0.004976
179 0.004992
185 0.005027
192 0.003999
175 0.004024
135 0.00399
111 0.004034
101 0.004028
102 0.005014
107 0.005032
120 0.004986
127 0.004992
126 0.004988
120 0.004986
116 0.004986
118 0.003974
122 0.003978
127 0.003997
134 0.003992
141 0.003987
148 0.004025
154 0.004033
164 0.004979
170 0.004992
176 0.004985
176 0.004978
143 0.004983
104 0.003989
92 0.004009
91 0.004004
95 0.004
102 0.003989
114 0.003987
121 0.003936
118 0.005003
114 0.004975
114 0.005023
118 0.005004
124 0.004996
134 0.003998
141 0.003963
149 0.003991
156 0.00398
162 0.003976
170 0.004006
176 0.003983
185 0.004988
181 0.004975
136 0.00399
103 0.004006
88 0.004024
85 0.003997
89 0.003989
96 0.003969
104 0.003949
109 0.003988
109 0.003979
104 0.002947
102 0.003972
105 0.002953
111 0.003994
119 0.004004
127 0.004019
136 0.004017
143 0.004019
152 0.003974
158 0.003951
164 0.003957
174 0.003972
179 0.003923
125 0.004019
95 0.003991
82 0.003974
80 0.003996
83 0.00398
92 0.003987
102 0.003989
108 0.003997
107 0.003993
102 0.003948
98 0.003977
100 0.003984
110 0.003968
118 0.003962
125 0.003984
133 0.003991
141 0.004004
151 0.003987
157 0.003962
163 0.003956
170 0.003991
166 0.003953
112 0.003989
83 0.003991
76 0.00299
79 0.002956
86 0.002989
95 0.002965
103 0.003991
106 0.004016
101 0.003989
97 0.003955
98 0.00399
103 0.00399
111 0.00399
122 0.002992
132 0.002992
140 0.002999
149 0.002967
156 0.002956
163 0.002965
173 0.003989
168 0.003955
119 0.003976
87 0.003997
71 0.003997
68 0.00399
73 0.002995
84 0.002952
92 0.002959
94 0.002956
91 0.002955
87 0.002965
87 0.002956
91 0.003986
98 0.003979
106 0.002982
114 0.003954
126 0.002945
136 0.002987
148 0.002964
156 0.002983
164 0.002993
172 0.002955
176 0.004008
120 0.00298
86 0.002956
70 0.0
67 0.002993
78 0.002953
89 0.002989
95 0.003004
91 0.002965
87 0.00299
86 0.002966
89 0.002959
96 0.002959
107 0.003952
115 0.00399
124 0.002994
132 0.002951
142 0.003026
154 0.002957
163 0.002965
173 0.00295
168 0.002994
123 0.002948
92 0.002951
77 0.002972
75 0.002989
79 0.002997
89 0.003033
99 0.001992
106 0.002951
102 0.002994
98 0.002952
99 0.002942
104 0.002988
112 0.002946
120 0.002955
128 0.002
140 0.001995
148 0.002979
156 0.001981
165 0.001966
173 0.001982
165 0.002962
117 0.002965
85 0.003014
77 0.001967
77 0.002967
83 0.00202
92 0.001995
104 0.001996
110 0.001966
107 0.002934
102 0.002002
102 0.001984
109 0.002951
116 0.003005
128 0.00295
136 0.002991
144 0.002991
153 0.002996
161 0.002979
171 0.001988
179 0.001995
187 0.001993
190 0.002993
120 0.001997
92 0.002993
80 0.002984
79 0.002994
83 0.002964
91 0.002997
100 0.001988
105 0.001999
102 0.001996
98 0.001979
97 0.001991
100 0.001995
111 0.001996
120 0.002006
129 0.001991
140 0.001955
148 0.00299
157 0.001995
166 0.002964
173 0.002
183 0.002012
191 0.001995
193 0.001999
153 0.001999
94 0.001965
84 0.001957
83 0.001992
90 0.001952
99 0.001973
108 0.001997
114 0.001992
111 0.001996
102 0.002013
100 0.001962
103 0.001952
109 0.00201
122 0.001968
130 0.001991
138 0.001989
150 0.001991
158 0.001045
166 0.00099
173 0.001994
180 0.001991
190 0.002006
182 0.001998
128 0.001997
96 0.00195
80 0.001995
82 0.00195
88 0.00098
102 0.000996
110 0.000998
114 0.000996
110 0.000999
105 0.002019
104 0.002005
109 0.001993
117 0.002
125 0.001967
140 0.001966
148 0.001992
157 0.002
168 0.00195
175 0.000958
183 0.001003
191 0.000998
198 0.000998
189 0.002009
129 0.001954
94 0.001931
80 0.001948
78 0.001958
83 0.002014
90 0.001979
101 0.001005
104 0.000989
100 0.000999
96 0.000962
94 0.000996
98 0.001992
106 0.001994
113 0.00198
122 0.002043
137 0.000977
146 0.000996
156 0.001002
166 0.001008
174 0.000984
182 0.000991
189 0.000987
184 0.000971
111 0.00098
83 0.001995
73 0.001963
73 0.001995
84 0.001986
94 0.000953
104 0.000986
107 0.000985
100 0.001016
94 0.000994
94 0.000989
99 0.001011
109 0.001995
118 0.001002
127 0.001954
135 0.000997
140 0.0
144 0.003989
179 0.000998
176 0.000998
124 0.000998
87 0.000997
70 0.001002
67 0.000999
72 0.000997
82 0.000957
99 0.000984
105 0.001003
101 0.001022
95 0.001001
93 0.00098
98 0.000985
105 0.001013
114 0.000999
124 0.000957
134 0.000997
147 0.002024
157 0.0
173 0.0
181 0.000961
187 0.001008
153 0.001026
98 0.000967
65 0.000977
58 0.000975
61 0.0
67 0.00097
77 0.000997
90 0.000997
92 0.0
84 0.0
82 0.0
83 0.000998
88 0.000997
97 0.001032
109 0.000997
119 0.000996
130 0.000982
140 0.0
149 0.0
162 0.0
172 0.0
180 0.000676
125 0.000998
81 0.000993
59 0.000988
51 0.0
52 0.0
59 0.0
68 0.0
77 0.0
79 0.0
73 0.0
69 0.0
75 0.0
83 0.0
93 0.001026
104 0.0
114 0.0
129 0.0
139 0.0
149 0.0
159 0.0
170 0.0
161 0.0
106 0.000962
59 0.0
51 0.0
54 0.0
61 0.0
73 0.0
87 0.0
90 0.0
87 0.0
85 0.0
86 0.0
98 0.0
108 0.0
126 0.001017
140 0.0
152 0.0
164 0.0
175 0.0
190 0.0
195 0.0
152 0.0
105 0.0
87 0.0
84 0.0
90 0.0
106 0.0
117 0.0
126 0.0
129 0.0
125 0.0
124 0.0
129 0.000973
138 0.0
148 0.0
158 0.0
172 0.0
183 0.0
199 0.0
210 0.0
218 0.0
210 0.0
138 0.0
90 0.000956
79 0.001014
79 0.001011
86 0.0
92 0.0
104 0.0
109 0.0
105 0.001003
102 0.001007
105 0.0
113 0.0
122 0.0
132 0.000998
144 0.000968
154 0.000965
169 0.0
180 0.0
191 0.001027
208 0.0
209 0.00096
151 0.000969
95 0.0
81 0.0
81 0.0
85 0.001002
94 0.000968
109 0.0
114 0.000993
119 0.0
113 0.001023
110 0.0
116 0.000999
123 0.000974
137 0.0
147 0.0
154 0.000998
168 0.000998
178 0.001
191 0.000996
200 0.0
202 0.0
148 0.000998
91 0.0
84 0.000998
87 0.000998
97 0.0
107 0.0
114 0.0
118 0.000999
120 0.001991
123 0.0
125 0.0
129 0.00097
135 0.001014
146 0.0
153 0.000953
161 0.000962
168 0.0
171 0.001005
175 0.0
180 0.0
184 0.000998
97 0.0
58 0.0
46 0.00096
42 0.000997
52 0.000984
60 0.001179
72 0.000997
78 0.000993
85 0.0
90 0.0
95 0.0
103 0.000975
110 0.000996
121 0.00097
130 0.000962
139 0.0
154 0.0
162 0.0
169 0.001984
178 0.000984
188 0.0
195 0.0
198 0.000967
170 0.001021
87 0.001004
57 0.001029
57 0.0
61 0.0
78 0.0
89 0.000963
100 0.002044
109 0.002039
119 0.0
128 0.000997
137 0.0
148 0.001014
158 0.001029
172 0.0
183 0.000998
193 0.000968
208 0.000998
216 0.00095
225 0.001968
234 0.001968
243 0.000962
250 0.000958
254 0.000998
244 0.000987
165 0.001004
114 0.000987
112 0.001013
116 0.000968
129 0.000997
137 0.000965
145 0.001998
150 0.001996
157 0.000996
160 0.000971
165 0.000983
171 0.000997
179 0.002006
190 0.0
198 0.0
211 0.000997
219 0.000997
227 0.0
234 0.001996
239 0.002993
228 0.0
157 0.000997
125 0.000998
124 0.001996
130 0.001997
145 0.000998
156 0.000998
166 0.000998
170 0.000998
173 0.000968
174 0.002007
177 0.002019
183 0.000968
190 0.000976
196 0.000993
206 0.002041
216 0.001958
227 0.000993
234 0.000997
186 0.000965
174 0.001002
136 0.001
122 0.001994
120 0.001995
125 0.0
130 0.001
135 0.000996
139 0.001983
141 0.001989
141 0.000997
140 0.000974
140 0.000998
142 0.000993
144 0.001005
146 0.001987
149 0.002041
152 0.000963
154 0.000998
157 0.001007
157 0.001994
138 0.002021
112 0.000991
108 0.000957
112 0.001965
117 0.000961
122 0.001994
126 0.003038
129 0.001995
129 0.001997
127 0.001
126 0.001014
128 0.001995
130 0.00299
134 0.001959
137 0.001968
141 0.002055
143 0.001998
146 0.000975
145 0.003035
123 0.001996
103 0.000997
101 0.000991
103 0.000999
106 0.001989
112 0.002992
118 0.001994
121 0.001961
120 0.002023
119 0.001994
119 0.000955
121 0.001995
124 0.002992
128 0.000997
131 0.000997
134 0.000997
136 0.001995
139 0.002991
141 0.001993
129 0.000997
99 0.000998
96 0.000997
98 0.001993
71 0.002992
82 0.00299
96 0.001507
102 0.001995
101 0.001009
97 0.003001
94 0.001996
98 0.000986
105 0.001969
117 0.002036
125 0.002033
131 0.001993
138 0.003032
145 0.002987
146 0.002992
126 0.0
62 0.001994
76 0.002026
89 0.00099
104 0.002023
107 0.001967
102 0.001997
97 0.002992
99 0.002988
106 0.002049
113 0.00101
121 0.002033
129 0.001992
136 0.002998
143 0.003021
138 0.003006
93 0.002996
63 0.001025
60 0.001997
67 0.001034
79 0.002961
92 0.004122
105 0.000997
110 0.001989
106 0.000991
100 0.002991
100 0.002993
109 0.00298
117 0.00303
127 0.000993
133 0.001998
140 0.001042
145 0.002992
124 0.002988
68 0.001978
56 0.001988
57 0.001975
62 0.003037
72 0.002998
90 0.002983
96 0.002995
92 0.001008
87 0.002044
88 0.001993
94 0.003985
102 0.003977
109 0.001997
121 0.001982
133 0.002002
143 0.002999
151 0.003015
89 0.003001
46 0.002982
29 0.001999
34 0.002009
44 0.002031
58 0.003988
73 0.003996
83 0.001994
77 0.001951
70 0.001958
71 0.004026
77 0.003964
93 0.002988
104 0.003027
119 0.002024
131 0.002963
139 0.002034
149 0.004004
158 0.003994
125 0.001995
72 0.003036
48 0.002022
44 0.00402
51 0.004019
75 0.003044
91 0.003988
99 0.002026
90 0.002987
83 0.002032
83 0.004031
89 0.00398
102 0.002994
115 0.002028
125 0.003023
134 0.003994
143 0.004033
155 0.003991
163 0.003981
146 0.002991
90 0.002987
59 0.002991
52 0.003991
57 0.003959
72 0.002007
88 0.002028
103 0.002044
107 0.004
102 0.004009
96 0.004015
101 0.005015
112 0.002947
121 0.003001
132 0.002997
141 0.00398
149 0.004017
161 0.003002
168 0.003021
175 0.002994
181 0.003986
189 0.004019
144 0.005003
86 0.004995
60 0.002976
61 0.002981
69 0.002992
81 0.004015
93 0.003976
107 0.003013
107 0.002028
100 0.003001
98 0.00498
105 0.00396
115 0.004987
127 0.004985
140 0.002992
151 0.002991
160 0.002999
168 0.003982
176 0.004045
185 0.003001
192 0.002996
200 0.003009
206 0.004992
220 0.003974
223 0.00499
186 0.004957
110 0.003027
92 0.003045
92 0.002968
101 0.005029
112 0.004982
131 0.00395
141 0.003009
143 0.002993
136 0.004996
131 0.003991
137 0.004993
145 0.005007
158 0.003018
168 0.004021
176 0.002997
184 0.004973
193 0.005022
203 0.003014
210 0.003945
217 0.003989
224 0.005034
229 0.003997
189 0.004954
135 0.00499
114 0.002984
117 0.003038
127 0.003013
141 0.00499
155 0.004989
167 0.003984
171 0.004019
169 0.00495
162 0.005011
166 0.003989
173 0.004978
182 0.005016
190 0.004987
198 0.002994
204 0.002955
211 0.002999
217 0.004975
222 0.004996
170 0.003994
235 0.004011
228 0.003992
127 0.004003
108 0.003997
109 0.004968
117 0.004999
134 0.003038
148 0.002984
156 0.002992
161 0.004977
165 0.004958
163 0.003986
162 0.003989
167 0.003998
179 0.003972
186 0.003987
192 0.00498
198 0.00498
209 0.00302
215 0.004955
220 0.003989
227 0.005973
233 0.005985
223 0.003996
149 0.003985
105 0.003991
98 0.004
106 0.00399
118 0.004981
130 0.005947
142 0.003988
148 0.003962
153 0.003943
155 0.005975
157 0.005949
163 0.003939
170 0.00397
178 0.003962
189 0.003986
198 0.003979
206 0.005009
213 0.00601
221 0.003936
229 0.004027
234 0.003984
226 0.005996
147 0.005934
89 0.003963
85 0.00399
92 0.003963
114 0.003993
125 0.004
133 0.004969
138 0.005955
139 0.00499
140 0.004988
142 0.003985
146 0.005984
152 0.005979
162 0.005021
168 0.003998
180 0.003984
185 0.004933
194 0.003994
202 0.004986
201 0.005941
113 0.004939
67 0.004985
58 0.004988
63 0.005987
74 0.005982
92 0.00502
101 0.003988
112 0.003972
117 0.003989
121 0.004983
124 0.005988
129 0.006967
140 0.004974
148 0.004993
155 0.004978
164 0.005987
172 0.005993
184 0.005032
190 0.005032
197 0.004025
153 0.004984
66 0.004969
34 0.006982
33 0.006967
41 0.004987
56 0.004987
68 0.004983
79 0.006011
87 0.005993
90 0.005
85 0.005985
86 0.005955
94 0.00497
102 0.004001
110 0.006943
121 0.006948
129 0.020913
139 0.0
154 0.004985
164 0.005944
172 0.005984
144 0.004987
59 0.004984
18 0.005017
19 0.005972
28 0.005027
44 0.006984
58 0.006982
71 0.004958
77 0.004902
74 0.004991
68 0.00597
69 0.005963
78 0.004987
90 0.00399
105 0.004017
115 0.005956
126 0.004986
137 0.006974
148 0.006986
161 0.00496
159 0.004987
84 0.005007
31 0.005976
15 0.005997
20 0.004985
32 0.005981
58 0.005999
69 0.006004
77 0.005999
76 0.006968
68 0.006992
68 0.004955
76 0.004987
83 0.0
97 0.005988
106 0.006976
124 0.004988
133 0.004953
153 0.005987
162 0.005976
156 0.005996
71 0.006965
21 0.006978
2 0.004965
6 0.004972
14 0.004968
30 0.006015
43 0.007003
55 0.005983
55 0.005983
43 0.005975
45 0.005986
54 0.005943
64 0.006992
76 0.00702
93 0.005024
104 0.005029
119 0.004973
131 0.00798
143 0.007979
159 0.005955
168 0.007014
69 0.00598
15 0.005983
0 0.005954
0 0.006946
0 0.006985
7 0.00701
25 0.005985
35 0.00602
34 0.005984
28 0.00797
25 0.007972
33 0.007008
45 0.007007
62 0.006006
75 0.005974
89 0.006001
103 0.007007
116 0.006981
134 0.005985
145 0.006014
160 0.006014
176 0.007952
175 0.007998
64 0.007979
21 0.007007
8 0.005989
10 0.005985
21 0.005976
36 0.007042
49 0.007006
58 0.006949
53 0.006993
45 0.006022
47 0.007991
56 0.007965
72 0.007979
86 0.006979
103 0.005953
117 0.005951
131 0.005982
144 0.007013
157 0.006982
174 0.005985
184 0.006964
197 0.007017
210 0.007973
181 0.007982
60 0.007975
43 0.007984
43 0.005984
50 0.005955
65 0.005985
79 0.007007
90 0.007009
97 0.007024
90 0.006995
83 0.006944
88 0.007948
99 0.007978
115 0.007978
131 0.007978
143 0.006005
155 0.005976
167 0.005947
178 0.007008
193 0.007991
204 0.00698
214 0.006991
226 0.006983
236 0.007947
209 0.007971
89 0.007978
55 0.00798
55 0.005955
61 0.005982
71 0.005984
89 0.007973
98 0.007992
101 0.006984
97 0.006952
91 0.005975
92 0.007956
102 0.007978
116 0.007979
128 0.007978
144 0.005977
155 0.005983
166 0.006933
180 0.006941
192 0.007973
202 0.007021
211 0.006985
224 0.006976
234 0.007956
219 0.007975
95 0.007979
61 0.00797
55 0.006951
62 0.006944
79 0.006968
92 0.006986
103 0.007979
111 0.006981
111 0.006992
104 0.006979
103 0.007983
107 0.007977
123 0.007979
138 0.006982
153 0.006945
160 0.006974
175 0.006977
183 0.006981
199 0.006988
207 0.006983
218 0.00699
229 0.007025
233 0.007943
121 0.00704
74 0.007978
62 0.007976
68 0.006981
81 0.006947
100 0.006956
111 0.006987
119 0.006982
125 0.006966
126 0.00695
125 0.00695
131 0.007981
143 0.006979
154 0.00795
168 0.006982
183 0.00694
194 0.006992
202 0.006988
215 0.006958
227 0.006983
238 0.00697
238 0.006983
182 0.006982
72 0.007979
53 0.006993
59 0.007028
72 0.007006
90 0.007025
100 0.006979
109 0.006973
115 0.00698
117 0.007021
120 0.00698
127 0.005988
136 0.005988
146 0.00698
162 0.006981
177 0.007009
189 0.007021
203 0.006988
215 0.006975
225 0.006988
235 0.006973
244 0.007021
241 0.00696
193 0.006963
62 0.006983
38 0.005976
41 0.006957
53 0.006983
67 0.007018
81 0.006982
89 0.006974
96 0.006981
99 0.006971
97 0.006981
100 0.006977
109 0.00698
121 0.005991
133 0.005957
153 0.005982
165 0.006013
178 0.007021
190 0.007014
206 0.006945
217 0.006983
222 0.006991
200 0.006965
87 0.006983
29 0.006974
25 0.006975
33 0.005999
55 0.006024
68 0.006019
78 0.006025
85 0.006014
91 0.007014
89 0.006985
92 0.006946
99 0.006985
109 0.006978
126 0.005974
140 0.006013
154 0.005989
175 0.006024
188 0.005983
200 0.00602
207 0.007019
137 0.007011
50 0.00698
23 0.006022
21 0.006979
30 0.007009
49 0.005974
63 0.006015
74 0.006
84 0.006024
84 0.005983
83 0.006021
87 0.005973
100 0.006018
112 0.006966
124 0.005978
137 0.005956
150 0.00596
168 0.005977
181 0.005982
165 0.006018
59 0.006018
10 0.00597
62 0.005986
62 0.005984
69 0.006015
76 0.005984
83 0.00505
88 0.005993
89 0.005983
85 0.00598
83 0.006012
88 0.005983
94 0.005988
101 0.006014
109 0.006023
116 0.006012
125 0.00601
133 0.005974
139 0.004992
142 0.004975
106 0.00598
61 0.005976
49 0.006018
47 0.00602
52 0.006016
60 0.006014
67 0.005981
72 0.004987
71 0.00602
68 0.005996
68 0.004961
72 0.004987
78 0.004996
88 0.006015
96 0.005981
110 0.006012
119 0.006011
126 0.005929
134 0.005984
142 0.006014
125 0.005986
83 0.004933
62 0.004943
54 0.004982
54 0.004999
62 0.004987
70 0.004984
82 0.006012
82 0.006014
78 0.005985
76 0.006021
78 0.005988
85 0.004987
92 0.005024
100 0.004987
108 0.004987
115 0.004987
125 0.004987
133 0.005983
143 0.006032
117 0.006013
83 0.006027
66 0.005019
60 0.005014
63 0.00502
51 0.005017
64 0.00502
75 0.004991
81 0.004985
78 0.004986
76 0.004989
83 0.005981
91 0.005984
102 0.006018
113 0.005015
123 0.005017
137 0.004968
148 0.004971
157 0.005007
167 0.004991
172 0.004971
114 0.004983
74 0.004986
49 0.005014
50 0.005017
55 0.006022
65 0.005046
74 0.005015
82 0.00501
80 0.004977
78 0.004997
78 0.004978
83 0.004982
94 0.004987
105 0.004985
122 0.004979
133 0.004939
144 0.003995
154 0.004992
164 0.004985
176 0.004987
186 0.004987
194 0.004987
180 0.004986
118 0.004987
84 0.005025
68 0.004982
70 0.003978
80 0.003987
90 0.003988
99 0.003967
101 0.00402
96 0.00499
93 0.004989
95 0.004999
102 0.004987
111 0.004971
120 0.004976
136 0.003995
144 0.00399
158 0.00399
168 0.003988
177 0.004027
187 0.004017
195 0.003948
170 0.004982
115 0.00499
89 0.004993
80 0.00503
81 0.004987
95 0.004957
107 0.004018
119 0.00399
122 0.003978
118 0.003976
115 0.004017
117 0.004003
126 0.003988
136 0.003986
145 0.00499
154 0.004999
163 0.004969
179 0.003991
188 0.003987
199 0.003982
208 0.003952
210 0.003976
163 0.004021
112 0.00402
90 0.004013
89 0.003953
94 0.003961
103 0.004983
113 0.003989
127 0.004022
131 0.003987
126 0.004021
125 0.003988
129 0.004015
136 0.004028
144 0.00402
156 0.002992
164 0.003953
172 0.003975
181 0.003001
189 0.002991
203 0.004017
210 0.003987
221 0.004022
227 0.004019
224 0.004017
160 0.003965
113 0.004017
97 0.003992
99 0.003938
105 0.003959
115 0.002963
124 0.003002
136 0.004026
138 0.004032
135 0.004025
133 0.004038
136 0.003981
143 0.004048
151 0.003989
161 0.002993
169 0.00399
176 0.003999
185 0.003004
192 0.002959
205 0.002992
211 0.004023
201 0.003989
136 0.004037
104 0.004015
97 0.004028
101 0.002957
112 0.002991
122 0.003966
131 0.002925
137 0.002991
140 0.002992
142 0.003025
143 0.002991
149 0.004027
156 0.004019
162 0.003959
170 0.00398
177 0.004019
186 0.003964
194 0.002964
203 0.002954
205 0.002951
177 0.002993
92 0.002991
84 0.003022
87 0.003017
97 0.003991
107 0.003994
116 0.004019
123 0.003979
129 0.002962
131 0.002957
131 0.002955
134 0.002958
145 0.002993
151 0.002992
160 0.003989
170 0.003995
178 0.002994
187 0.002993
193 0.00402
192 0.002992
106 0.002993
72 0.002992
61 0.002964
64 0.003031
77 0.003027
88 0.002982
95 0.00303
103 0.002993
104 0.002996
100 0.003968
98 0.002991
102 0.002992
112 0.002957
120 0.002954
129 0.002988
138 0.002966
151 0.002995
160 0.00299
164 0.003989
108 0.00399
68 0.002021
54 0.001996
53 0.002992
59 0.002992
73 0.00295
84 0.002959
93 0.002993
96 0.003001
87 0.002993
86 0.002992
91 0.001993
99 0.00299
110 0.003032
119 0.001997
128 0.002022
136 0.002995
144 0.002025
149 0.002944
111 0.002981
74 0.003024
58 0.002991
61 0.002992
71 0.002993
83 0.003022
98 0.001986
104 0.001995
102 0.001995
97 0.001998
98 0.001968
106 0.002995
114 0.002992
122 0.002991
137 0.002993
144 0.002042
152 0.002995
160 0.001995
145 0.002029
101 0.002032
78 0.002022
71 0.001994
73 0.001945
84 0.001949
95 0.002988
104 0.002986
110 0.003023
107 0.002993
106 0.001996
108 0.001989
116 0.002002
124 0.001997
132 0.001995
141 0.001996
150 0.001965
160 0.001989
169 0.001989
175 0.002993
129 0.002989
102 0.001995
91 0.002031
91 0.002036
100 0.001996
110 0.001996
120 0.001994
126 0.001995
126 0.000997
120 0.001967
120 0.002024
124 0.000999
135 0.002041
143 0.001995
150 0.001955
156 0.002033
166 0.001997
171 0.002
177 0.002
183 0.001995
176 0.001965
129 0.001988
110 0.001996
105 0.001996
113 0.001953
123 0.001995
133 0.001995
141 0.001994
137 0.001984
130 0.001995
129 0.002024
131 0.001969
136 0.002006
145 0.001976
151 0.001959
162 0.000999
167 0.000998
172 0.000999
177 0.002033
181 0.001993
148 0.002024
120 0.002022
107 0.002024
106 0.001996
111 0.002002
122 0.001976
133 0.000996
141 0.000997
136 0.002034
131 0.001997
131 0.000992
135 0.000997
142 0.001995
149 0.002025
156 0.001994
162 0.000998
168 0.001949
176 0.000995
180 0.000957
208 0.00104
200 0.000999
148 0.000998
114 0.000998
99 0.001968
97 0.001995
101 0.001996
109 0.002023
119 0.002017
129 0.000954
129 0.000959
124 0.001001
126 0.000997
133 0.000997
142 0.00099
151 0.000998
161 0.000995
174 0.001997
182 0.001995
190 0.001995
197 0.001995
203 0.000999
212 0.000998
213 0.001008
138 0.000998
112 0.000998
105 0.000995
109 0.000998
117 0.000998
135 0.001997
148 0.001995
152 0.000998
147 0.000999
139 0.001013
137 0.000992
142 0.001004
156 0.000999
165 0.000998
172 0.000996
179 0.001005
186 0.000998
194 0.001995
199 0.002024
203 0.000969
177 0.000999
128 0.000972
100 0.000998
99 0.000998
115 0.000997
125 0.002992
145 0.000998
154 0.000998
153 0.000998
141 0.002055
139 0.002028
142 0.000998
150 0.000999
158 0.000971
171 0.000987
179 0.000998
192 0.000998
198 0.000997
203 0.000997
206 0.000998
171 0.0
119 0.000998
90 0.000998
90 0.0
97 0.0
108 0.0
120 0.0
135 0.001019
134 0.000989
123 0.000999
121 0.000961
124 0.000991
130 0.000982
139 0.0
151 0.0
159 0.0
166 0.0
174 0.0
181 0.0
189 0.000999
178 0.000988
105 0.000984
82 0.00101
76 0.001001
82 0.000999
92 0.0
110 0.0
122 0.0
127 0.0
121 0.0
114 0.000969
114 0.000997
120 0.0
131 0.000994
140 0.000999
149 0.0
157 0.001007
164 0.0
174 0.0
181 0.0
167 0.0
113 0.0
85 0.0
78 0.0
86 0.0
105 0.0
120 0.0
129 0.0
128 0.0
117 0.0
110 0.0
113 0.0
120 0.0
128 0.0
136 0.0
150 0.0
156 0.0
166 0.0
169 0.0
135 0.0
86 0.0
64 0.0
60 0.0
68 0.0
80 0.0
94 0.0
104 0.0
102 0.0
94 0.0
92 0.000967
96 0.0
107 0.000988
113 0.0
121 0.0
133 0.0
142 0.0
148 0.0
155 0.0
160 0.0
95 0.0
59 0.000997
42 0.000997
44 0.00199
54 0.0
65 0.0
74 0.000968
76 0.000996
71 0.001017
65 0.001003
66 0.0
70 0.0
83 0.0
91 0.0
101 0.002001
110 0.001961
121 0.0
128 0.0
137 0.0
145 0.00094
148 0.000995
94 0.000962
56 0.00099
36 0.0
34 0.0
40 0.0
50 0.002
60 0.001953
62 0.0
56 0.0
52 0.0
52 0.001021
56 0.000996
68 0.000997
78 0.000974
86 0.000978
106 0.0
116 0.0
126 0.002025
133 0.001978
145 0.0
152 0.001006
145 0.0
102 0.001989
69 0.001007
46 0.000969
48 0.000967
51 0.000968
69 0.000953
80 0.0
79 0.001995
70 0.002036
66 0.0
68 0.0
77 0.0
84 0.001999
95 0.002004
107 0.0
117 0.0
133 0.0
139 0.000993
149 0.000997
158 0.001974
166 0.001984
141 0.0
95 0.0
67 0.0
56 0.001984
57 0.001988
65 0.0
76 0.0
88 0.0
86 0.0
80 0.000964
77 0.0
81 0.00098
90 0.0
100 0.0
111 0.0
120 0.001958
129 0.001973
139 0.001999
151 0.0
162 0.000997
175 0.0
183 0.0
188 0.000997
199 0.000997
203 0.001974
140 0.0
99 0.0
78 0.0
74 0.001986
77 0.001973
88 0.0
101 0.00198
105 0.0
100 0.0
96 0.0
96 0.000993
100 0.000992
113 0.0
122 0.0
135 0.0
139 0.001987
154 0.001974
163 0.0
175 0.001982
184 0.0
193 0.0
197 0.0
208 0.000959
214 0.000985
193 0.000946
138 0.0
109 0.000992
100 0.001995
104 0.001989
113 0.0
130 0.001997
139 0.0
137 0.001024
128 0.0
123 0.000981
125 0.000987
133 0.0
142 0.0
150 0.0
158 0.001991
165 0.001993
177 0.0
187 0.001995
198 0.0
204 0.0
211 0.002
211 0.001981
163 0.001963
113 0.002025
103 0.0
105 0.0
112 0.001936
123 0.001993
137 0.000981
145 0.001997
139 0.00202
134 0.0
133 0.002015
139 0.002993
147 0.002981
158 0.002001
167 0.001995
175 0.002025
182 0.001954
189 0.001993
200 0.000998
207 0.002002
214 0.000996
219 0.0
223 0.001994
197 0.002993
139 0.002985
110 0.001981
109 0.001998
115 0.001998
124 0.001995
136 0.001957
150 0.001971
150 0.001995
140 0.001993
137 0.001999
141 0.001996
148 0.002959
156 0.002954
168 0.002037
175 0.002001
181 0.003018
187 0.002987
194 0.001952
204 0.001989
208 0.002962
214 0.001994
215 0.000988
173 0.001975
126 0.002955
109 0.002984
109 0.002
117 0.001974
128 0.002003
141 0.001957
150 0.001987
149 0.001959
139 0.002962
134 0.000953
138 0.000967
145 0.001001
152 0.002956
159 0.002954
168 0.002002
174 0.002007
180 0.001994
185 0.002992
190 0.002944
197 0.002968
167 0.002984
104 0.000941
89 0.001964
88 0.000993
95 0.002955
106 0.00299
121 0.002004
130 0.002004
134 0.001997
128 0.003026
120 0.002988
119 0.002945
126 0.002963
137 0.001951
144 0.00103
151 0.000993
158 0.002984
166 0.00296
172 0.001989
178 0.001994
183 0.002
179 0.003979
122 0.004012
71 0.003993
67 0.003992
75 0.001994
83 0.001998
95 0.001001
105 0.002991
108 0.002997
101 0.000987
94 0.001992
94 0.001996
99 0.003985
106 0.003972
119 0.001975
126 0.003989
134 0.00398
144 0.001987
149 0.004038
157 0.001989
164 0.002985
168 0.003027
128 0.000991
78 0.000999
55 0.001977
50 0.003971
60 0.00199
70 0.004015
81 0.003995
88 0.001979
81 0.001984
71 0.001997
68 0.003028
71 0.002985
81 0.000982
89 0.00098
97 0.001938
106 0.003992
119 0.002991
126 0.003986
134 0.004016
137 0.001992
95 0.001034
56 0.002005
37 0.002953
35 0.002994
44 0.001952
55 0.001968
69 0.001926
78 0.00397
74 0.00201
67 0.003979
67 0.003966
75 0.001949
83 0.002011
91 0.002019
101 0.004029
110 0.003028
122 0.001967
131 0.002036
140 0.001965
153 0.001966
134 0.001989
76 0.003989
42 0.003989
26 0.001993
29 0.00199
36 0.00199
46 0.00399
56 0.004986
69 0.002954
70 0.001995
68 0.002021
73 0.001954
79 0.001961
86 0.004025
93 0.004001
100 0.001989
106 0.002002
112 0.002953
120 0.004027
131 0.005021
145 0.002966
154 0.002999
164 0.002949
137 0.002023
85 0.001962
59 0.00399
54 0.004015
59 0.002021
67 0.002012
78 0.001998
88 0.005028
90 0.004986
84 0.002956
79 0.002965
80 0.001994
90 0.001994
98 0.001962
107 0.003989
114 0.003988
124 0.001958
133 0.002996
140 0.003008
146 0.004988
154 0.004987
161 0.002974
128 0.002966
86 0.00299
58 0.002961
59 0.002991
65 0.004041
77 0.004026
93 0.001984
97 0.002994
92 0.002962
85 0.005015
84 0.005014
90 0.00301
97 0.003007
107 0.003006
121 0.002995
130 0.002992
139 0.004989
146 0.004987
157 0.00202
161 0.003026
129 0.003014
84 0.004988
59 0.004986
51 0.002998
56 0.002997
63 0.002998
82 0.003029
88 0.002966
84 0.00403
79 0.004985
77 0.002965
81 0.003019
89 0.00302
98 0.004987
107 0.005014
118 0.002981
127 0.003005
135 0.002971
148 0.002997
155 0.002985
163 0.005044
166 0.005016
108 0.003995
71 0.00299
52 0.002932
49 0.004987
53 0.004986
65 0.002993
75 0.002965
81 0.00202
77 0.00299
72 0.002997
73 0.006023
78 0.006012
89 0.003997
97 0.003016
107 0.003024
115 0.005012
122 0.004988
133 0.002996
140 0.003012
147 0.002988
158 0.002961
162 0.003
132 0.006015
89 0.005976
60 0.003984
58 0.00399
64 0.002982
73 0.005021
86 0.005023
97 0.003007
94 0.002989
86 0.005024
86 0.002993
92 0.003998
99 0.003967
108 0.006022
116 0.00601
127 0.002984
133 0.003988
143 0.003024
150 0.004985
157 0.004986
164 0.002957
131 0.005985
81 0.004
66 0.003987
64 0.00399
70 0.005992
79 0.005993
95 0.004008
102 0.003995
102 0.003053
98 0.004991
96 0.004987
100 0.002988
111 0.006014
124 0.003991
134 0.00399
142 0.002993
150 0.005984
159 0.005987
168 0.003025
175 0.002987
182 0.003952
189 0.005983
195 0.004987
171 0.003999
107 0.006028
84 0.003999
84 0.003989
90 0.004002
98 0.006025
107 0.006026
116 0.004
115 0.004957
110 0.003997
107 0.005023
109 0.005983
117 0.003965
129 0.005984
141 0.003996
149 0.003989
157 0.003988
166 0.006028
172 0.006011
180 0.003991
188 0.004027
194 0.003988
198 0.005989
204 0.006987
211 0.004024
157 0.006012
105 0.003995
94 0.004009
96 0.003997
102 0.006012
111 0.005985
126 0.003981
131 0.003988
126 0.00398
118 0.006982
114 0.006956
117 0.004994
126 0.006028
138 0.004029
147 0.004007
155 0.003981
163 0.006025
169 0.005985
178 0.004989
183 0.003994
188 0.003986
194 0.007028
199 0.007017
179 0.004979
116 0.006012
93 0.003991
95 0.004034
102 0.00399
112 0.005989
125 0.005984
138 0.00399
137 0.00399
129 0.00499
124 0.006982
125 0.006982
133 0.004976
145 0.006014
158 0.003985
166 0.004001
174 0.004008
182 0.005984
188 0.005964
197 0.004987
202 0.004988
208 0.004983
212 0.007018
192 0.006983
108 0.007009
94 0.006984
97 0.005004
105 0.004019
116 0.004029
127 0.006014
136 0.006011
137 0.00501
129 0.004985
125 0.00496
127 0.006983
133 0.00698
147 0.007021
156 0.007019
167 0.004984
174 0.004015
180 0.004031
188 0.006982
194 0.006982
200 0.004984
206 0.004998
198 0.004976
136 0.006982
99 0.006968
87 0.007024
93 0.006982
106 0.004999
119 0.004999
131 0.004043
135 0.007973
130 0.007008
120 0.004997
119 0.004945
123 0.00501
130 0.007008
139 0.007016
154 0.007015
162 0.006983
172 0.00498
178 0.005002
184 0.005958
190 0.007984
193 0.006981
141 0.004989
96 0.004979
78 0.004993
78 0.007013
86 0.007019
107 0.00701
119 0.007012
128 0.004959
124 0.00398
113 0.005983
111 0.007976
116 0.007978
125 0.004987
133 0.005016
140 0.004984
145 0.006982
151 0.007015
162 0.006975
169 0.006982
178 0.004989
163 0.006009
101 0.006015
68 0.005976
58 0.007979
61 0.006982
70 0.006982
87 0.000999
100 0.005034
107 0.007012
98 0.005984
90 0.006989
90 0.007978
96 0.005984
103 0.005984
111 0.005987
120 0.00798
133 0.007965
141 0.004987
149 0.004964
155 0.005039
162 0.007016
140 0.004987
66 0.007979
48 0.00798
37 0.005984
43 0.005967
52 0.005982
69 0.007978
76 0.007978
82 0.00502
76 0.005026
70 0.005985
69 0.006981
80 0.00598
93 0.007945
103 0.00798
113 0.005976
124 0.005983
133 0.005975
143 0.007979
154 0.007973
161 0.005992
164 0.006034
119 0.005027
66 0.007019
33 0.005994
39 0.007979
45 0.007975
61 0.005963
72 0.005993
80 0.005999
74 0.007981
68 0.007979
66 0.005988
71 0.00599
80 0.004962
98 0.006025
108 0.005964
121 0.007954
127 0.007979
139 0.005978
148 0.005982
153 0.005977
96 0.006979
68 0.007986
41 0.005987
41 0.005016
47 0.00598
68 0.005983
82 0.005957
88 0.007937
83 0.007964
76 0.005994
76 0.005989
81 0.005972
94 0.00798
102 0.007977
115 0.005993
125 0.006981
140 0.006952
152 0.006952
161 0.005978
169 0.007972
147 0.007919
69 0.005984
41 0.005987
34 0.00599
40 0.007978
48 0.007966
60 0.004986
73 0.006969
74 0.006979
65 0.00698
62 0.006031
68 0.00697
73 0.007943
87 0.005984
97 0.006017
109 0.006004
125 0.007967
134 0.007947
153 0.006976
163 0.006945
170 0.006933
113 0.006969
70 0.00695
32 0.007004
27 0.006999
33 0.006027
42 0.005982
53 0.005985
67 0.007932
71 0.007018
66 0.006979
58 0.006951
57 0.005988
70 0.004936
84 0.006949
97 0.007028
108 0.006969
120 0.005959
134 0.005984
146 0.005992
160 0.007944
171 0.006979
184 0.006981
193 0.006981
136 0.006981
68 0.005989
48 0.006932
50 0.006942
58 0.006956
71 0.006016
84 0.005969
97 0.006979
103 0.006972
96 0.006961
96 0.006983
105 0.006937
112 0.006981
128 0.006987
132 0.006974
148 0.006982
159 0.007016
171 0.006986
176 0.006981
185 0.006977
184 0.006981
126 0.00698
86 0.006983
64 0.006943
64 0.006953
82 0.006975
93 0.006951
110 0.006979
116 0.006949
115 0.00894
103 0.005978
104 0.005981
112 0.006948
123 0.007018
135 0.006947
151 0.006932
169 0.006975
183 0.00696
188 0.006955
201 0.006964
209 0.006985
178 0.005987
103 0.005973
67 0.006014
53 0.005987
55 0.006993
64 0.00697
72 0.006983
91 0.006944
97 0.006981
94 0.005982
88 0.00698
87 0.005982
101 0.005988
111 0.005983
120 0.005978
133 0.005991
146 0.005951
157 0.006987
169 0.006975
187 0.006942
198 0.006943
213 0.005984
212 0.005984
141 0.005974
83 0.006011
55 0.005975
55 0.005979
63 0.005979
74 0.005961
87 0.005989
99 0.006975
103 0.005992
96 0.006975
92 0.006951
97 0.006011
107 0.005978
120 0.005988
136 0.00601
149 0.005974
161 0.005979
172 0.005984
182 0.00603
197 0.005981
207 0.006982
193 0.006981
99 0.005985
67 0.005983
57 0.005985
58 0.005983
70 0.005984
83 0.005984
95 0.005984
104 0.005984
108 0.005985
101 0.005984
102 0.005988
110 0.005983
120 0.005985
132 0.005985
144 0.005984
157 0.006011
174 0.005986
185 0.005984
195 0.005988
202 0.005992
171 0.005971
77 0.005987
44 0.005975
41 0.00598
48 0.004991
63 0.005984
77 0.005986
90 0.006006
100 0.005984
95 0.005996
90 0.005982
91 0.005979
100 0.005986
112 0.006001
125 0.005
137 0.004981
148 0.004991
159 0.00498
169 0.004995
181 0.005981
189 0.006003
132 0.005984
63 0.005982
31 0.005942
19 0.005983
23 0.004992
37 0.004991
55 0.004991
63 0.00501
62 0.004977
55 0.004981
49 0.004991
52 0.006007
61 0.005993
72 0.00596
85 0.00598
99 0.005977
118 0.004966
136 0.004987
154 0.00496
167 0.004987
176 0.005013
138 0.004991
68 0.00498
24 0.005017
15 0.005987
19 0.004976
29 0.005972
43 0.005966
69 0.004998
75 0.005
67 0.004952
63 0.00499
69 0.004987
81 0.005017
92 0.004974
108 0.004975
120 0.004974
131 0.006018
141 0.00499
155 0.004983
178 0.004971
144 0.004982
66 0.004983
42 0.004998
37 0.004963
44 0.004952
58 0.004971
83 0.004977
99 0.005017
105 0.004998
96 0.004981
84 0.005013
81 0.005011
87 0.004944
99 0.004988
110 0.004986
123 0.004971
136 0.004984
148 0.004987
166 0.004971
170 0.004972
113 0.003954
59 0.005003
31 0.004986
29 0.004991
43 0.004959
67 0.004945
88 0.004936
103 0.004987
109 0.005027
107 0.011969
104 0.000998
108 0.003982
123 0.003994
137 0.003994
151 0.003985
174 0.00499
187 0.004997
206 0.004987
218 0.003994
174 0.004944
235 0.004985
174 0.003973
90 0.004019
63 0.003995
56 0.004025
60 0.003991
71 0.003981
96 0.004992
105 0.004987
100 0.00501
90 0.00495
86 0.00499
90 0.005003
99 0.00498
110 0.00401
126 0.004009
140 0.00399
155 0.003955
168 0.003983
189 0.004983
203 0.004982
213 0.004989
161 0.004987
90 0.003989
55 0.003989
41 0.003988
42 0.00399
57 0.003989
74 0.003989
89 0.00399
98 0.003975
91 0.003935
86 0.003966
87 0.004987
98 0.004987
111 0.004995
124 0.004986
138 0.004023
151 0.004029
170 0.003936
184 0.003978
195 0.004025
199 0.003967
95 0.003962
60 0.003964
47 0.003981
54 0.00402
68 0.005003
85 0.004021
101 0.003978
115 0.00399
130 0.003978
138 0.003979
144 0.003987
151 0.003989
167 0.003988
179 0.003975
192 0.003954
209 0.005019
222 0.003989
233 0.003955
237 0.003989
185 0.00399
108 0.003974
92 0.00395
91 0.003978
111 0.003944
127 0.003934
140 0.003987
150 0.003962
158 0.003947
156 0.003952
158 0.003995
163 0.003989
173 0.003955
187 0.003967
198 0.003991
209 0.003986
225 0.003959
220 0.00399
149 0.003991
100 0.003986
79 0.002955
81 0.002989
91 0.002945
107 0.004018
122 0.00402
136 0.004013
144 0.004009
142 0.003969
141 0.003953
146 0.003954
154 0.00396
164 0.002986
175 0.002947
186 0.002991
197 0.003039
203 0.003989
161 0.003974
76 0.003979
49 0.003983
41 0.003964
52 0.003934
67 0.003989
83 0.004001
93 0.004
97 0.002986
89 0.002991
85 0.003989
87 0.003991
94 0.004032
108 0.003992
119 0.004024
130 0.003
149 0.003034
157 0.002986
144 0.003008
74 0.002988
20 0.002992
6 0.002948
6 0.00302
16 0.003018
31 0.002995
53 0.003997
65 0.00399
68 0.002993
61 0.002954
64 0.002963
71 0.002991
82 0.003002
100 0.002991
113 0.003002
126 0.002955
140 0.00393
153 0.003991
164 0.00399
118 0.002968
60 0.002964
24 0.002987
24 0.002997
35 0.00301
45 0.001037
74 0.002993
86 0.002981
89 0.00299
81 0.002992
77 0.002991
81 0.002028
90 0.002948
101 0.002991
121 0.002995
133 0.002992
146 0.002996
158 0.003021
157 0.003021
95 0.002988
54 0.002993
36 0.002993
33 0.003004
47 0.002993
64 0.002028
81 0.002992
103 0.002993
104 0.002993
99 0.003008
98 0.002979
105 0.003014
116 0.002964
128 0.002993
140 0.003033
152 0.003019
169 0.002992
181 0.002008
185 0.002959
111 0.001956
58 0.002994
32 0.002982
26 0.002997
35 0.002988
50 0.002991
68 0.00299
82 0.002994
90 0.002029
85 0.001995
79 0.001996
85 0.001966
96 0.001936
108 0.002953
122 0.002997
135 0.002992
153 0.002993
166 0.002998
178 0.00299
190 0.002038
194 0.001996
132 0.001996
56 0.001982
33 0.001986
35 0.001955
48 0.002993
65 0.000999
82 0.00305
95 0.003
99 0.001994
92 0.003004
90 0.001996
94 0.001995
105 0.002006
121 0.001995
140 0.00199
159 0.001995
174 0.001997
187 0.001991
200 0.001989
211 0.002981
164 0.001995
98 0.001994
69 0.001994
60 0.001996
64 0.001996
82 0.001996
104 0.002002
122 0.002007
129 0.001998
125 0.002991
119 0.002964
119 0.001995
127 0.001995
139 0.00199
152 0.001996
164 0.001994
176 0.001995
193 0.001985
207 0.001989
167 0.001999
101 0.001994
69 0.00199
59 0.002001
61 0.000959
78 0.001966
94 0.001996
107 0.001997
117 0.001995
122 0.001995
119 0.001989
119 0.001988
132 0.001993
143 0.002002
156 0.001994
170 0.000992
183 0.000987
199 0.001009
213 0.000998
221 0.002025
177 0.002027
97 0.001996
50 0.002021
40 0.002
49 0.001982
65 0.001009
81 0.002035
93 0.000953
98 0.001009
89 0.000996
83 0.002043
84 0.001995
92 0.001996
105 0.001997
121 0.000997
141 0.000956
160 0.001993
174 0.000975
187 0.000998
193 0.000993
140 0.001002
56 0.000997
30 0.002026
21 0.001995
24 0.000992
37 0.001996
59 0.002027
78 0.001998
77 0.001985
69 0.000993
66 0.001052
70 0.00101
80 0.001003
96 0.000992
110 0.000997
125 0.000998
140 0.00203
154 0.002023
177 0.002004
190 0.001974
172 0.000988
98 0.000991
57 0.000997
40 0.000999
38 0.001993
50 0.001034
68 0.002025
86 0.000998
97 0.002029
94 0.001994
80 0.001998
81 0.000986
91 0.000998
102 0.000988
114 0.000997
123 0.01496
132 0.000953
150 0.000991
173 0.002023
185 0.00204
183 0.0
123 0.000998
61 0.001997
52 0.000994
60 0.000997
74 0.000979
92 0.000972
108 0.00098
116 0.000994
111 0.002032
106 0.00201
107 0.002022
113 0.00204
124 0.001978
143 0.000999
156 0.001047
174 0.000998
185 0.000998
198 0.000997
208 0.000997
202 0.001006
114 0.001986
74 0.000997
55 0.000987
52 0.000997
60 0.0
83 0.0
97 0.0
102 0.000994
95 0.000996
89 0.001026
90 0.001009
95 0.000997
109 0.000973
120 0.000998
133 0.0
146 0.0
159 0.0
177 0.0
189 0.0
196 0.000995
144 0.001
90 0.000998
60 0.000995
49 0.0
53 0.000995
65 0.000998
81 0.000998
95 0.0
101 0.0
92 0.0
90 0.0
97 0.000997
107 0.001002
119 0.001006
132 0.000998
145 0.000971
157 0.0
174 0.000997
186 0.0
197 0.0
208 0.0
222 0.0
190 0.0
127 0.0
87 0.0
79 0.0
84 0.000998
95 0.000998
111 0.001001
131 0.0
137 0.0
130 0.0
121 0.0
122 0.0
129 0.0
140 0.0
155 0.0
167 0.0
178 0.0
189 0.000959
216 0.0
222 0.0
184 0.0
108 0.0
92 0.0
91 0.0
98 0.0
118 0.0
134 0.0
147 0.0
151 0.0
146 0.0
140 0.0
143 0.0
150 0.0
167 0.0
179 0.0
189 0.0
200 0.0
214 0.0
224 0.0
232 0.0
235 0.000994
182 0.0
108 0.0
85 0.0
77 0.0
87 0.0
100 0.0
115 0.0
125 0.0
128 0.0
120 0.0
115 0.000997
117 0.000971
124 0.001001
137 0.0
149 0.0
164 0.0
179 0.001998
193 0.0
204 0.0
214 0.0
222 0.001995
201 0.001996
113 0.000996
79 0.0
63 0.000998
62 0.002992
70 0.001995
87 0.0
104 0.001995
111 0.0
104 0.0
97 0.00097
98 0.001989
104 0.001998
118 0.001009
129 0.0
141 0.0
153 0.003025
165 0.002997
181 0.0
195 0.001995
204 0.000998
190 0.000998
143 0.0
105 0.0
58 0.001994
60 0.0
72 0.000995
88 0.0
103 0.002014
113 0.002023
113 0.0
103 0.002993
105 0.0
111 0.0
120 0.0
133 0.001976
146 0.002013
162 0.0
172 0.0
183 0.000985
194 0.002034
201 0.00203
130 0.0
64 0.002999
40 0.0
39 0.0
47 0.0
62 0.001998
77 0.001994
91 0.00095
89 0.0
80 0.000949
75 0.001985
78 0.001961
89 0.0
105 0.002989
122 0.0
135 0.0
148 0.0
159 0.001999
171 0.001984
187 0.0
183 0.0
111 0.000967
57 0.001991
29 0.001987
20 0.0
30 0.001998
51 0.0
66 0.0
78 0.0
76 0.001999
68 0.001995
67 0.0
74 0.00094
83 0.0
95 0.001984
109 0.001985
133 0.002958
147 0.001943
164 0.0
177 0.0
186 0.0
147 0.001992
83 0.001967
42 0.0
33 0.0
38 0.0
52 0.001995
69 0.001993
92 0.002996
93 0.001956
81 0.0
77 0.0
82 0.0
91 0.001989
104 0.001984
121 0.0
135 0.0
147 0.0
157 0.001962
169 0.001967
135 0.0
74 0.001994
38 0.002027
21 0.0
25 0.0
40 0.0
59 0.00202
78 0.001987
96 0.0
94 0.0
88 0.0
88 0.00196
101 0.0
114 0.001993
129 0.002022
150 0.001001
164 0.000991
177 0.0
190 0.002992
199 0.002986
135 0.0
71 0.000959
34 0.0
19 0.001988
23 0.0
37 0.001987
53 0.001996
66 0.0
61 0.000997
53 0.001002
49 0.003033
52 0.002038
64 0.0
78 0.0
92 0.0
108 0.001996
133 0.0
147 0.001994
161 0.002006
172 0.000996
115 0.001009
56 0.0
20 0.002033
7 0.001993
11 0.0
23 0.0
41 0.0
57 0.00198
58 0.001004
50 0.001996
47 0.001966
54 0.000998
62 0.0
74 0.000999
89 0.002013
104 0.002039
122 0.0
138 0.0
153 0.0
157 0.002023
75 0.0
36 0.001983
16 0.002037
17 0.000954
30 0.000985
48 0.000967
66 0.003027
76 0.003028
70 0.0
67 0.0
71 0.0
79 0.002991
99 0.0
113 0.001998
128 0.002031
149 0.000968
164 0.001001
179 0.0
173 0.003027
119 0.002994
63 0.0
43 0.0
39 0.0
58 0.0
74 0.0
90 0.001993
96 0.001994
95 0.01891
90 0.0
94 0.0
101 0.002989
112 0.002993
128 0.0
140 0.0
151 0.0
171 0.0
182 0.0
188 0.003026
150 0.003025
83 0.0
54 0.0
45 0.0
49 0.002992
61 0.002992
83 0.0
95 0.0
97 0.000951
92 0.000996
94 0.000959
101 0.003989
111 0.002988
126 0.000995
139 0.002991
151 0.0
164 0.002929
175 0.002962
192 0.0
204 0.002997
198 0.001994
117 0.0
86 0.000985
74 0.002993
75 0.003954
91 0.002984
109 0.002986
125 0.0
129 0.002981
124 0.002949
118 0.0
120 0.002025
128 0.003006
148 0.002034
161 0.00202
174 0.002992
185 0.003953
200 0.002996
211 0.002992
207 0.0
162 0.002964
123 0.002993
95 0.002999
95 0.0
104 0.002989
129 0.001986
144 0.002043
151 0.002962
148 0.003952
146 0.002999
149 0.002953
157 0.002982
166 0.004035
177 0.00399
193 0.002992
205 0.002996
216 0.002001
235 0.003003
241 0.002993
207 0.004019
156 0.003985
113 0.002033
103 0.002971
106 0.002975
116 0.001972
131 0.004018
146 0.003992
153 0.003007
148 0.001993
144 0.001995
148 0.002956
157 0.002001
170 0.00402
182 0.004027
198 0.002039
211 0.002988
224 0.001965
235 0.004
245 0.004016
255 0.002038
217 0.00195
143 0.003005
126 0.003006
126 0.002043
132 0.00399
144 0.004019
167 0.002021
176 0.00197
172 0.00095
165 0.004986
162 0.003961
167 0.002989
174 0.001967
188 0.002996
199 0.002029
209 0.002024
217 0.003964
227 0.003989
241 0.002022
182 0.003021
154 0.002015
134 0.003961
124 0.004015
123 0.002993
130 0.003994
141 0.002986
149 0.002005
151 0.002984
148 0.003989
144 0.003953
145 0.003025
147 0.003021
151 0.00204
157 0.003963
163 0.004016
171 0.002992
178 0.004988
184 0.003008
177 0.003028
144 0.0
124 0.004018
114 0.003994
112 0.002022
116 0.002995
123 0.002977
131 0.004988
136 0.00399
134 0.00203
130 0.005026
131 0.003001
134 0.002954
139 0.002002
145 0.003994
151 0.003957
158 0.002041
164 0.001993
169 0.002991
174 0.003989
174 0.004993
135 0.002988
111 0.004994
104 0.002977
105 0.002004
110 0.002044
118 0.003961
126 0.00498
129 0.002029
126 0.002039
123 0.001996
123 0.004987
126 0.005014
131 0.003017
139 0.005036
147 0.001982
152 0.002036
157 0.002023
163 0.003968
165 0.003984
144 0.003985
126 0.0
107 0.000964
92 0.004984
104 0.00198
120 0.003981
125 0.002974
118 0.002976
113 0.002981
112 0.004005
116 0.003989
125 0.0
133 0.001992
142 0.002993
152 0.005014
162 0.005015
172 0.003014
149 0.003993
97 0.00204
76 0.002995
70 0.002042
72 0.004008
81 0.003991
99 0.002022
109 0.002029
112 0.002028
108 0.005045
104 0.004993
107 0.00197
116 0.004005
126 0.002041
136 0.002027
145 0.002023
155 0.003987
165 0.003989
171 0.002999
132 0.002985
90 0.001997
65 0.005024
56 0.005022
60 0.001994
74 0.004987
90 0.001994
95 0.002992
93 0.002993
88 0.004978
88 0.005985
93 0.002035
101 0.00199
110 0.001986
119 0.005022
129 0.005018
148 0.004992
158 0.004989
157 0.002004
111 0.002034
75 0.002996
55 0.005987
49 0.005987
57 0.002048
69 0.001955
83 0.001984
90 0.005028
90 0.004955
82 0.005024
83 0.005986
88 0.003006
95 0.00298
105 0.002983
115 0.005985
125 0.005987
139 0.001993
148 0.001949
137 0.002002
97 0.004978
68 0.005985
49 0.004988
53 0.004938
63 0.004926
84 0.002993
94 0.001982
95 0.00303
89 0.005936
87 0.005981
91 0.002988
97 0.002997
106 0.002956
117 0.006923
135 0.002996
145 0.00494
154 0.006012
130 0.003037
90 0.003043
62 0.002991
48 0.005984
48 0.005957
58 0.00299
71 0.001987
83 0.003989
87 0.006953
82 0.002989
81 0.005949
86 0.005983
95 0.003963
104 0.003988
116 0.003033
126 0.005993
137 0.005975
149 0.002995
156 0.00299
139 0.003011
100 0.006937
59 0.00398
53 0.005935
57 0.005975
69 0.003988
82 0.002989
90 0.003961
91 0.005977
88 0.004959
89 0.003027
92 0.002977
100 0.003958
109 0.006981
125 0.003996
136 0.007979
146 0.005984
158 0.003958
166 0.003998
161 0.003007
125 0.006947
92 0.005942
69 0.00297
67 0.003959
73 0.003986
87 0.006975
107 0.00401
109 0.006928
104 0.006987
100 0.003937
102 0.003951
109 0.004019
117 0.005966
126 0.005958
140 0.003005
149 0.003953
158 0.003955
167 0.006956
172 0.003997
138 0.006953
105 0.006998
79 0.003952
75 0.003993
80 0.003994
92 0.006943
106 0.006956
117 0.00296
115 0.004033
111 0.003985
111 0.006948
119 0.004003
128 0.006982
136 0.006978
149 0.003962
159 0.004003
169 0.004033
178 0.006988
186 0.006989
194 0.0
198 0.0
146 0.003994
94 0.003942
82 0.003956
82 0.00698
89 0.006977
105 0.003937
116 0.00303
120 0.004979
118 0.005957
115 0.006979
117 0.004959
123 0.004953
133 0.003983
151 0.003963
161 0.00399
172 0.006944
181 0.006929
193 0.003999
201 0.004982
209 0.003997
216 0.00698
193 0.006978
137 0.004953
112 0.004955
103 0.00399
109 0.00398
120 0.003979
134 0.006968
144 0.006964
141 0.003978
135 0.003983
134 0.004987
136 0.006947
142 0.007991
153 0.004988
162 0.003968
170 0.004977
186 0.004998
194 0.003989
202 0.007003
209 0.006914
189 0.003985
146 0.004002
118 0.004945
105 0.007973
105 0.007947
115 0.004984
129 0.004978
143 0.005015
151 0.004987
145 0.005018
142 0.006946
144 0.00698
152 0.004986
160 0.004982
169 0.004957
178 0.007939
188 0.007966
200 0.004992
207 0.00499
215 0.004953
217 0.004995
164 0.005983
124 0.006969
103 0.006947
97 0.004991
102 0.004962
112 0.004984
125 0.007979
138 0.007978
138 0.00495
133 0.004976
129 0.005041
133 0.005004
141 0.004983
150 0.006944
160 0.006972
173 0.005959
183 0.004961
192 0.004964
204 0.007967
212 0.007952
212 0.004981
164 0.004995
121 0.004044
95 0.004986
96 0.003993
103 0.00594
116 0.006988
133 0.007983
141 0.004935
139 0.00494
133 0.004978
129 0.007979
131 0.007949
140 0.005009
149 0.004961
164 0.004993
173 0.005026
182 0.005958
191 0.007976
199 0.00798
199 0.004948
149 0.004948
112 0.00399
95 0.007978
93 0.007929
101 0.005941
114 0.004946
137 0.004979
145 0.005948
144 0.005983
137 0.00796
135 0.007963
141 0.004986
148 0.004982
156 0.005022
169 0.007971
179 0.007942
187 0.004981
200 0.00797
197 0.005988
141 0.006003
102 0.006009
81 0.00798
81 0.006991
87 0.005937
99 0.005947
112 0.004998
123 0.007966
125 0.007926
116 0.005991
113 0.007976
117 0.00496
124 0.005962
133 0.005947
145 0.00698
155 0.006981
164 0.005944
173 0.005982
181 0.005018
169 0.007931
110 0.007978
66 0.005959
52 0.006962
58 0.00598
68 0.005983
80 0.005996
91 0.006991
88 0.006984
79 0.004988
75 0.005932
77 0.004993
82 0.007974
90 0.007977
102 0.005957
120 0.006979
131 0.005998
141 0.00598
151 0.005989
127 0.006937
76 0.006987
46 0.005951
32 0.005987
32 0.005941
35 0.021913
47 0.000998
73 0.00701
64 0.005984
60 0.005989
62 0.005949
70 0.006981
79 0.006981
89 0.005978
100 0.005984
112 0.005957
122 0.007961
137 0.007958
123 0.006947
54 0.006987
31 0.005967
24 0.005974
29 0.005987
46 0.006981
63 0.006977
77 0.005997
80 0.005942
74 0.005938
70 0.006989
72 0.006956
80 0.006946
96 0.006971
108 0.006987
120 0.005955
133 0.005956
149 0.006979
144 0.006979
94 0.005957
57 0.005946
32 0.00602
31 0.005983
37 0.005985
52 0.006944
78 0.00699
82 0.006031
78 0.005975
74 0.005944
77 0.006964
84 0.007001
93 0.005998
103 0.005954
115 0.005956
132 0.005976
144 0.005975
155 0.006947
134 0.006982
70 0.006014
49 0.00697
32 0.005999
33 0.006989
44 0.006017
65 0.006012
79 0.005983
83 0.005996
80 0.005975
76 0.006005
79 0.005984
88 0.00699
102 0.006959
114 0.006956
122 0.005986
139 0.006981
151 0.006983
163 0.005981
170 0.005976
125 0.005984
78 0.005991
50 0.005986
40 0.005977
49 0.00597
69 0.006969
80 0.006983
93 0.006974
90 0.006972
83 0.006013
82 0.005989
88 0.005984
97 0.005988
108 0.005993
121 0.006009
140 0.005996
151 0.006
163 0.005969
174 0.005986
146 0.006006
97 0.005987
65 0.00598
50 0.005997
52 0.00598
65 0.005986
82 0.005955
99 0.005984
106 0.005999
98 0.005949
95 0.005985
100 0.005984
108 0.006934
118 0.005988
130 0.005954
142 0.005987
159 0.005938
171 0.005987
182 0.005988
176 0.005984
90 0.005988
61 0.005987
50 0.006006
55 0.005972
69 0.005993
86 0.005946
101 0.005983
107 0.005983
100 0.005984
96 0.006012
98 0.006007
104 0.005995
121 0.00596
133 0.005964
146 0.005961
162 0.005986
173 0.004973
185 0.004961
169 0.004985
112 0.005959
61 0.005962
45 0.005985
44 0.005976
55 0.005948
82 0.005972
97 0.005985
102 0.005952
95 0.004977
92 0.00498
95 0.004996
102 0.00501
112 0.004992
127 0.005984
139 0.006001
152 0.005989
165 0.005992
186 0.006006
191 0.006012
144 0.005017
81 0.004943
56 0.004998
50 0.005015
56 0.004995
71 0.004983
94 0.004958
107 0.005964
108 0.00595
100 0.005987
96 0.005984
100 0.005046
109 0.005019
124 0.004943
137 0.004961
148 0.004976
160 0.004982
173 0.004994
177 0.004982
132 0.00595
115 0.000997
51 0.0
60 0.005012
78 0.004976
101 0.005
109 0.004953
104 0.005042
98 0.004991
96 0.004966
103 0.004967
112 0.004978
123 0.004035
143 0.004018
155 0.004975
168 0.005016
178 0.005022
129 0.004979
79 0.004963
48 0.004984
37 0.004989
39 0.004945
55 0.004964
73 0.00402
87 0.00498
89 0.00399
83 0.004975
82 0.005022
86 0.004978
97 0.004964
108 0.004975
121 0.005015
134 0.004991
146 0.004985
164 0.004978
172 0.004981
134 0.003968
55 0.004021
34 0.004021
29 0.005016
35 0.005029
56 0.004992
74 0.005029
84 0.005024
83 0.004982
79 0.004968
78 0.004988
83 0.003988
92 0.003981
113 0.003974
126 0.003998
139 0.004017
152 0.003961
169 0.004978
181 0.005008
174 0.004987
119 0.004969
74 0.004998
42 0.00496
40 0.00398
48 0.003994
77 0.003989
93 0.003995
98 0.004027
92 0.003989
86 0.003989
88 0.004996
94 0.004953
104 0.004994
116 0.004982
132 0.004017
144 0.003987
157 0.004018
176 0.004012
170 0.003991
119 0.004022
77 0.003989
48 0.003942
47 0.004987
57 0.004986
74 0.003997
94 0.004024
107 0.003991
107 0.003995
100 0.00399
101 0.004018
108 0.003991
119 0.003997
131 0.003945
144 0.004021
161 0.004959
174 0.004985
186 0.004967
197 0.003969
178 0.003977
100 0.004001
63 0.00399
45 0.003971
51 0.003922
65 0.003968
83 0.00399
96 0.00399
98 0.002951
94 0.002993
91 0.003987
94 0.004
102 0.003959
117 0.003952
130 0.003954
152 0.003989
165 0.003986
177 0.003978
190 0.00399
197 0.002962
138 0.002964
89 0.003016
60 0.003014
50 0.003949
54 0.003988
72 0.003986
96 0.003989
110 0.003987
109 0.003964
103 0.003965
103 0.003986
107 0.003989
121 0.002989
134 0.002965
147 0.002988
160 0.003992
173 0.003985
188 0.003988
205 0.004025
211 0.004024
164 0.003963
113 0.003962
82 0.004017
72 0.003036
79 0.002993
93 0.00299
112 0.002988
126 0.003979
131 0.002991
121 0.003976
117 0.003936
125 0.003989
134 0.003988
145 0.002992
158 0.004004
170 0.002991
186 0.002988
199 0.003005
210 0.002992
201 0.00301
147 0.003959
96 0.003949
78 0.003986
84 0.003952
99 0.003962
116 0.002992
133 0.002992
140 0.002993
134 0.002962
130 0.002994
132 0.002992
139 0.002988
149 0.003024
164 0.003954
168 0.027923
176 0.0
203 0.002965
219 0.003023
225 0.002991
178 0.002992
110 0.003005
87 0.003001
81 0.003002
87 0.002988
101 0.002991
123 0.002994
141 0.00203
139 0.00399
133 0.002993
132 0.002997
137 0.002961
145 0.002991
159 0.002992
171 0.002996
182 0.002994
193 0.002991
204 0.00292
217 0.003005
214 0.002991
138 0.002027
103 0.002033
88 0.002022
87 0.001995
96 0.003029
118 0.002991
135 0.002967
145 0.003002
145 0.002978
137 0.001995
134 0.002963
140 0.001969
152 0.00203
163 0.002027
173 0.002023
183 0.001997
194 0.002993
209 0.002985
206 0.002994
157 0.00299
116 0.002988
95 0.00303
91 0.001993
104 0.001992
126 0.001991
141 0.002013
150 0.00204
149 0.002023
142 0.001995
142 0.002
148 0.002994
157 0.003001
168 0.002989
178 0.002992
193 0.001994
207 0.002021
216 0.001994
174 0.001997
125 0.002057
97 0.002054
86 0.001968
90 0.002001
101 0.001998
117 0.001984
130 0.002998
136 0.002997
128 0.001995
125 0.002025
128 0.001996
137 0.001999
147 0.001993
158 0.002033
169 0.001996
179 0.001978
193 0.002939
197 0.000996
156 0.001029
114 0.001967
77 0.002033
75 0.001995
81 0.002039
100 0.00202
115 0.00206
123 0.002021
121 0.002029
114 0.002029
114 0.00198
119 0.001997
126 0.001001
135 0.000987
153 0.001996
164 0.001996
175 0.001974
188 0.002005
182 0.001999
139 0.001999
102 0.002029
80 0.002004
75 0.000991
81 0.000993
95 0.001032
112 0.001995
122 0.002032
116 0.00203
110 0.002035
112 0.002026
117 0.002032
125 0.002046
134 0.002038
144 0.002005
156 0.002003
166 0.001
175 0.000969
178 0.000961
123 0.000998
90 0.002
72 0.001959
70 0.002047
78 0.002001
93 0.002028
109 0.001969
118 0.002001
113 0.001003
108 0.000999
107 0.000996
112 0.000963
126 0.000968
136 0.002028
147 0.001996
161 0.002034
170 0.002031
179 0.000998
180 0.000998
143 0.000997
88 0.001987
66 0.000997
58 0.000991
62 0.00198
83 0.001995
99 0.002023
107 0.001991
103 0.001976
99 0.002033
99 0.001996
103 0.000993
111 0.000964
125 0.000994
128 0.014959
136 0.000962
174 0.001995
183 0.002026
176 0.001997
117 0.000998
81 0.000998
60 0.001967
55 0.000997
61 0.001007
80 0.000993
96 0.001993
105 0.001014
105 0.00099
98 0.001015
99 0.002027
104 0.002025
116 0.001996
127 0.000995
138 0.000998
149 0.000999
159 0.001002
173 0.002021
183 0.002004
184 0.001986
117 0.002034
83 0.002026
66 0.000956
64 0.000997
77 0.001997
93 0.000999
109 0.000969
117 0.000997
113 0.00097
105 0.000998
105 0.000989
110 0.000995
125 0.000943
135 0.000971
146 0.000998
157 0.0
171 0.0
182 0.0
180 0.0
140 0.0
99 0.0
69 0.000976
65 0.001004
72 0.001008
98 0.0
115 0.000998
122 0.0
119 0.0
113 0.001025
114 0.0
119 0.0
128 0.0
139 0.0
153 0.001023
164 0.001001
175 0.000977
193 0.000998
197 0.0
157 0.0
108 0.0
68 0.0
59 0.0
63 0.0
74 0.0
90 0.0
109 0.0
111 0.0
106 0.000999
103 0.000997
108 0.0
116 0.0
127 0.0
139 0.0
154 0.0
165 0.0
177 0.0
188 0.0
196 0.0
148 0.0
102 0.001026
63 0.001005
61 0.0
70 0.0
85 0.0
102 0.0
116 0.0
114 0.0
108 0.0
