150 0.005984
155 0.006015
153 0.00598
97 0.005025
70 0.003988
76 0.003961
88 0.003999
97 0.002994
88 0.002984
87 0.003033
98 0.002992
105 0.003989
112 0.003003
118 0.003989
131 0.001995
111 0.002024
47 0.0
43 0.0
55 0.0
79 0.0
105 0.0
107 0.0
105 0.0
111 0.0
128 0.000989
133 0.003002
134 0.002991
145 0.005984
90 0.007982
78 0.007015
65 0.006981
83 0.005978
100 0.005969
99 0.005985
94 0.006022
97 0.005985
106 0.004993
109 0.003995
115 0.002959
123 0.001993
112 0.000995
44 0.00115
28 0.001954
42 0.003958
53 0.005021
60 0.004987
61 0.004987
61 0.005986
72 0.006982
79 0.007055
90 0.00603
98 0.005987
105 0.005987
71 0.005988
33 0.005981
21 0.00498
37 0.00396
47 0.004002
49 0.004033
48 0.003988
56 0.002991
66 0.004025
74 0.003046
84 0.002988
91 0.000967
69 0.000965
14 0.000962
20 0.0
33 0.0
46 0.0
48 0.000998
50 0.001045
56 0.000997
66 0.004011
75 0.003991
89 0.004959
93 0.004988
59 0.005984
24 0.006959
33 0.006973
53 0.006953
64 0.007016
60 0.006981
62 0.005978
79 0.005946
94 0.005993
118 0.005984
132 0.004987
152 0.003989
131 0.002997
102 0.003989
99 0.002991
121 0.001009
133 0.000996
136 0.001029
127 0.000997
131 0.000998
144 0.001001
148 0.001
154 0.0
169 0.000999
177 0.0
145 0.000965
109 0.000998
118 0.000997
142 0.002951
155 0.004986
152 0.005984
147 0.006041
154 0.006032
163 0.006017
171 0.005984
175 0.005984
185 0.005984
182 0.006982
159 0.007979
112 0.007028
110 0.007
127 0.007021
142 0.007007
138 0.006008
134 0.006023
145 0.005028
153 0.004012
160 0.004034
164 0.004117
166 0.003989
174 0.003978
155 0.003988
96 0.002992
104 0.001993
117 0.001998
129 0.001994
130 0.002002
126 0.002104
130 0.0
137 0.0
147 0.0
160 0.0
164 0.000997
168 0.001018
161 0.001991
125 0.001967
90 0.001995
100 0.001994
115 0.004021
120 0.003992
118 0.004987
114 0.006968
120 0.007017
129 0.006878
140 0.005996
146 0.006024
156 0.004987
167 0.004941
162 0.004986
121 0.00503
91 0.004952
103 0.004987
124 0.004982
135 0.004027
130 0.005027
127 0.004036
133 0.004987
145 0.00402
165 0.004032
173 0.003994
182 0.00399
203 0.002991
208 0.003956
100 0.000998
75 0.000989
110 0.001113
134 0.001995
147 0.001
138 0.001995
129 0.000983
141 0.001996
163 0.001001
173 0.000961
181 0.001011
190 0.0
197 0.0
181 0.000997
73 0.000991
50 0.001015
69 0.001005
86 0.000997
105 0.000997
94 0.00198
87 0.003998
101 0.003959
120 0.003992
130 0.004989
144 0.006274
152 0.006984
157 0.006035
160 0.005985
74 0.00602
18 0.004014
25 0.004986
34 0.003963
38 0.005027
38 0.004987
35 0.005021
41 0.004031
54 0.00299
67 0.002029
73 0.003038
86 0.002992
103 0.0
119 0.0
119 0.0
52 0.0
0 0.001025
0 0.000998
3 0.002992
10 0.002962
7 0.003993
8 0.004887
16 0.005018
28 0.005033
39 0.005018
53 0.006025
66 0.006025
82 0.007031
92 0.007038
112 0.006978
57 0.007023
2 0.007022
2 0.006983
19 0.006981
48 0.007047
56 0.007218
51 0.006088
56 0.005981
77 0.004987
90 0.003021
110 0.001991
124 0.002992
136 0.000997
145 0.0
167 0.0
145 0.0
59 0.0
58 0.000988
97 0.00095
115 0.001001
124 0.00184
112 0.002982
119 0.004987
137 0.004987
160 0.005037
172 0.005033
180 0.004987
191 0.005949
202 0.007016
210 0.006981
120 0.003989
67 0.001984
78 0.001005
100 0.0
119 0.000998
117 0.002027
109 0.002992
125 0.003023
134 0.003039
147 0.002993
157 0.006015
167 0.005983
174 0.006028
190 0.006014
141 0.006978
58 0.006981
43 0.006982
63 0.006026
74 0.004031
78 0.002028
76 0.002037
78 0.00203
86 0.002026
103 0.002038
118 0.002132
121 0.00199
135 0.002037
143 0.002045
154 0.001063
77 0.00199
20 0.001005
28 0.001996
46 0.000997
49 0.000998
48 0.0
44 0.0
48 0.0
60 0.0
78 0.0
93 0.001846
109 0.002993
115 0.002993
127 0.003024
140 0.002992
125 0.002991
19 0.003032
7 0.002993
30 0.003024
57 0.004994
62 0.005887
55 0.006984
55 0.007938
66 0.006942
89 0.006976
102 0.007014
115 0.007018
132 0.007998
144 0.007024
158 0.006981
159 0.007026
72 0.006187
48 0.006046
70 0.005943
102 0.004029
115 0.002992
106 0.002024
100 0.002032
122 0.0
135 0.0
154 0.0
163 0.0
168 0.0
175 0.0
189 0.002994
142 0.003987
54 0.004021
62 0.004994
80 0.005984
94 0.006981
94 0.006988
91 0.005978
93 0.005031
105 0.005021
117 0.004987
131 0.005969
137 0.004972
150 0.004031
166 0.003994
174 0.00398
98 0.004021
47 0.004021
48 0.003002
66 0.004019
74 0.003025
82 0.003033
78 0.002992
83 0.002981
94 0.003989
108 0.003023
123 0.003989
137 0.002989
148 0.002973
161 0.003032
172 0.003033
124 0.002983
45 0.002038
42 0.002993
66 0.002152
77 0.002998
85 0.002039
76 0.002036
79 0.002039
95 0.000998
113 0.001002
123 0.000988
139 0.001041
152 0.001008
167 0.0
186 0.000985
181 0.0
106 0.000997
66 0.0
80 0.0
109 0.000896
124 0.001036
121 0.000997
112 0.000998
121 0.002021
137 0.004065
155 0.00495
165 0.005988
177 0.006981
195 0.00603
203 0.007014
222 0.003033
170 0.002983
118 0.002993
107 0.003027
143 0.002032
165 0.001031
175 0.001006
161 0.000981
154 0.001031
169 0.001054
179 0.001
194 0.000997
207 0.001035
213 0.001044
226 0.00105
239 0.001052
171 0.000998
95 0.000998
91 0.002027
111 0.000962
133 0.001038
135 0.00395
126 0.003991
124 0.004024
139 0.003946
155 0.003991
161 0.003998
171 0.004951
180 0.007015
189 0.007014
190 0.006937
90 0.007009
45 0.007018
45 0.007022
59 0.00702
72 0.006975
73 0.007979
67 0.007014
66 0.006972
76 0.006973
91 0.006009
104 0.004986
113 0.004987
124 0.004983
138 0.004031
148 0.00517
99 0.004002
7 0.002036
3 0.001032
28 0.0
39 0.001002
39 0.000998
29 0.000997
28 0.001017
46 0.001008
63 0.00097
77 0.000967
90 0.000998
97 0.001001
106 0.001999
123 0.001997
131 0.001994
63 0.001995
0 0.001959
0 0.001995
16 0.001994
35 0.001995
42 0.002947
31 0.003978
36 0.005014
52 0.005027
78 0.004974
94 0.005967
104 0.007978
120 0.006978
131 0.006914
146 0.00702
163 0.00698
130 0.006026
49 0.005984
40 0.005102
66 0.006021
93 0.006015
101 0.005032
93 0.003989
98 0.002002
113 0.001032
139 0.000998
155 0.0
163 0.0
179 0.0
186 0.0
203 0.0
205 0.0
148 0.0
61 0.0
61 0.0
86 0.0
101 0.001995
99 0.001994
86 0.00399
96 0.006018
108 0.006016
131 0.007033
141 0.007979
154 0.007012
165 0.007982
178 0.007978
188 0.007013
153 0.006981
80 0.006982
17 0.007012
32 0.004986
38 0.006024
47 0.004973
41 0.004992
39 0.005017
48 0.005027
57 0.005167
73 0.005019
88 0.005028
98 0.005031
112 0.004972
123 0.00402
115 0.00402
28 0.004987
52 0.00402
56 0.004987
63 0.002992
68 0.002035
68 0.002028
68 0.0
73 0.0
81 0.001996
95 0.001993
103 0.001995
112 0.00195
118 0.001995
124 0.003989
134 0.003975
126 0.003996
71 0.004992
58 0.004988
65 0.004991
76 0.005043
82 0.004987
80 0.005029
79 0.005064
85 0.005945
98 0.005915
104 0.005986
114 0.005953
123 0.006011
129 0.005984
139 0.006024
148 0.007978
133 0.007982
91 0.007022
79 0.005029
86 0.005034
101 0.002036
107 0.003041
99 0.002026
96 0.001183
106 0.0
114 0.001039
124 0.00204
133 0.001978
141 0.002945
153 0.002905
159 0.002994
156 0.003955
101 0.003991
83 0.003991
90 0.003957
101 0.005028
108 0.005983
105 0.006981
99 0.006981
103 0.006992
112 0.007978
120 0.006939
129 0.007013
135 0.004035
139 0.005031
149 0.003034
153 0.001995
126 0.003027
71 0.002002
67 0.002005
74 0.001031
81 0.0
82 0.0
76 0.0
75 0.000998
81 0.001014
97 0.000995
110 0.002022
114 0.002028
122 0.001987
129 0.002995
137 0.002993
144 0.003029
110 0.003952
64 0.003986
57 0.004986
66 0.005957
73 0.007968
78 0.005968
76 0.006984
74 0.006017
83 0.006016
91 0.006016
104 0.006027
112 0.00598
123 0.006024
131 0.005984
137 0.005991
148 0.00502
117 0.003988
83 0.003988
72 0.004023
89 0.001033
100 0.002027
106 0.000954
99 0.000995
97 0.001024
108 0.001981
117 0.002008
132 0.003952
143 0.003035
151 0.005029
158 0.007978
172 0.006949
170 0.006967
117 0.007026
90 0.006983
98 0.00604
116 0.005036
125 0.005974
121 0.005021
113 0.00599
117 0.004952
129 0.005026
139 0.00497
143 0.00499
151 0.003031
160 0.002038
167 0.002993
146 0.002032
106 0.002992
73 0.002027
85 0.000996
91 0.0
99 0.000998
99 0.003001
99 0.002987
113 0.004032
136 0.005035
148 0.005013
160 0.006024
167 0.007948
170 0.007954
182 0.006996
163 0.006985
111 0.00502
84 0.006033
91 0.005979
96 0.005953
102 0.006021
100 0.003996
93 0.004023
97 0.000995
103 0.001975
114 0.0
122 0.0
125 0.0
129 0.0
139 0.0
132 0.0
73 0.0
51 0.0
55 0.000997
63 0.001014
71 0.001005
68 0.000882
65 0.000997
70 0.001002
85 0.001
94 0.000998
116 0.000998
126 0.002007
132 0.003018
141 0.002993
147 0.002992
124 0.002992
76 0.003038
73 0.004034
90 0.002993
102 0.00402
106 0.004022
96 0.006024
98 0.006973
105 0.006031
118 0.00599
126 0.006019
133 0.006033
141 0.005993
146 0.004032
137 0.00398
85 0.00399
58 0.002976
63 0.001989
79 0.001995
88 0.002205
85 0.00099
79 0.0
81 0.000997
92 0.002992
105 0.004025
106 0.003944
116 0.003983
125 0.003958
119 0.004022
39 0.004043
13 0.007018
12 0.007029
25 0.006026
34 0.006036
33 0.005986
31 0.006026
37 0.006018
55 0.004983
67 0.00498
78 0.005035
89 0.004984
103 0.00399
103 0.005043
33 0.004024
3 0.003025
5 0.002988
17 0.000998
27 0.002027
32 0.000995
31 0.001988
41 0.000998
55 0.001036
68 0.001995
90 0.000966
98 0.000973
112 0.0
128 0.000997
112 0.0
49 0.000998
11 0.000959
18 0.000967
34 0.000992
43 0.001985
45 0.002002
41 0.001834
48 0.004005
61 0.006015
82 0.006984
93 0.005979
102 0.006976
117 0.004032
132 0.003032
143 0.003026
114 0.002994
48 0.001995
32 0.001035
57 0.0
73 0.0
79 0.0
71 0.000986
74 0.00303
92 0.003988
114 0.004032
126 0.004033
140 0.004011
152 0.004035
163 0.004033
176 0.004972
164 0.005
100 0.00493
73 0.004987
86 0.004987
113 0.005025
125 0.005017
122 0.005082
117 0.004982
127 0.004982
149 0.005025
167 0.006998
173 0.006981
185 0.006983
192 0.006973
204 0.007013
149 0.006975
96 0.006982
69 0.005993
83 0.007018
99 0.004988
107 0.004989
97 0.003994
93 0.003991
107 0.00399
119 0.004028
137 0.003984
148 0.002026
155 0.002035
164 0.0
176 0.000855
157 0.001996
63 0.002992
31 0.002962
41 0.002997
51 0.002993
59 0.002992
56 0.003012
57 0.002992
62 0.003043
79 0.003002
98 0.002999
106 0.003961
119 0.003991
129 0.004032
143 0.003999
103 0.006027
31 0.005984
5 0.006017
14 0.007948
22 0.007938
36 0.007947
37 0.007948
32 0.007032
40 0.005
55 0.004961
77 0.002992
94 0.003012
103 0.003016
113 0.002035
131 0.000999
118 0.000998
29 0.000981
0 0.0
1 0.0
15 0.0
29 0.0
32 0.0
26 0.0
35 0.0
57 0.0
71 0.0
88 0.000997
102 0.001964
111 0.001995
125 0.001995
140 0.003998
114 0.004014
31 0.00503
21 0.00503
36 0.005029
66 0.006015
69 0.007006
64 0.005976
65 0.006028
84 0.00499
103 0.003996
120 0.00402
128 0.003987
142 0.003989
151 0.004977
161 0.004987
155 0.002991
66 0.001963
33 0.002987
42 0.001023
56 0.002036
75 0.001
66 0.0
59 0.0
70 0.0
87 0.000981
98 0.000997
112 0.000858
126 0.000999
135 0.001025
150 0.001996
156 0.001963
88 0.003012
7 0.004966
65 0.004942
75 0.005029
82 0.004861
84 0.004972
81 0.005031
82 0.004986
90 0.004974
102 0.005983
107 0.005988
116 0.005984
121 0.006021
128 0.005976
137 0.006013
140 0.007013
112 0.007023
71 0.006991
67 0.006974
76 0.006017
86 0.005071
89 0.004997
86 0.003988
88 0.003995
99 0.003989
108 0.004995
118 0.003989
126 0.005017
134 0.002991
136 0.002036
142 0.001966
147 0.001997
136 0.001996
95 0.0
76 0.0
80 0.0
92 0.0
100 0.0
99 0.0
98 0.0
102 0.000998
114 0.000995
121 0.000945
130 0.000998
137 0.000953
141 0.00096
146 0.000997
152 0.000998
156 0.000998
114 0.002008
92 0.001961
93 0.001962
102 0.001996
111 0.001887
111 0.002992
100 0.003031
102 0.003999
117 0.003999
127 0.003991
142 0.003989
149 0.00399
162 0.003987
174 0.004025
181 0.004031
180 0.004988
115 0.005021
87 0.005022
92 0.004868
106 0.006019
127 0.005979
122 0.006013
114 0.006013
118 0.006983
129 0.007978
142 0.006985
154 0.007979
160 0.007011
166 0.005984
173 0.004988
180 0.004978
156 0.005018
73 0.004022
55 0.004973
62 0.004007
69 0.005027
78 0.003976
70 0.004022
65 0.004022
69 0.002036
83 0.0
89 0.0
98 0.0
105 0.001009
115 0.000968
131 0.002952
113 0.003025
66 0.003024
18 0.003004
19 0.003
30 0.002994
39 0.002959
40 0.003963
36 0.002993
42 0.004984
51 0.004988
67 0.008004
73 0.00795
81 0.007941
87 0.007188
90 0.007947
86 0.006995
26 0.007017
0 0.007005
0 0.006962
0 0.006998
1 0.007015
10 0.00601
15 0.005955
25 0.003949
33 0.004987
46 0.004987
70 0.005019
83 0.004986
98 0.004986
114 0.004037
116 0.004987
56 0.004033
23 0.004021
24 0.003034
41 0.002998
51 0.003007
61 0.000998
57 0.001034
65 0.000955
82 0.00098
94 0.0
102 0.0
115 0.000965
125 0.000997
139 0.001995
87 0.001995
43 0.001989
123 0.002994
122 0.003013
122 0.004024
122 0.005986
122 0.007012
122 0.007014
122 0.007948
122 0.007981
122 0.007976
122 0.007015
122 0.007978
122 0.006024
63 0.00502
0 0.003986
0 0.005023
0 0.005032
0 0.004003
11 0.004029
15 0.001999
19 0.002011
36 0.002036
56 0.000997
75 0.000997
92 0.001964
101 0.001957
123 0.001043
122 0.00103
24 0.001989
46 0.000998
47 0.000946
52 0.0
61 0.001011
67 0.002001
69 0.002031
73 0.001995
86 0.002028
100 0.001995
108 0.001995
117 0.002043
126 0.001974
133 0.00296
129 0.002992
98 0.004897
58 0.005983
59 0.006984
62 0.006973
70 0.006981
79 0.006969
82 0.00698
84 0.007011
95 0.006981
103 0.004987
115 0.004986
126 0.003034
132 0.003032
137 0.000953
145 0.0
150 0.0
110 0.0
88 0.000962
68 0.000971
79 0.0
84 0.0
92 0.0
93 0.0
97 0.0
105 0.00098
115 0.0
124 0.000998
132 0.000997
137 0.002993
144 0.004005
152 0.004049
158 0.00399
132 0.004977
86 0.00607
83 0.006945
96 0.006948
104 0.007028
111 0.007136
107 0.004412
106 0.004973
117 0.001965
132 0.000985
140 0.00197
149 0.002041
158 0.00102
162 0.0
169 0.000991
160 0.001032
127 0.0
89 0.000998
95 0.001997
103 0.00203
115 0.001953
115 0.002002
110 0.002949
115 0.001995
125 0.001894
134 0.003006
144 0.002949
152 0.002992
160 0.002964
165 0.002992
162 0.003048
108 0.004052
86 0.004029
85 0.004002
93 0.004012
104 0.004039
108 0.00499
106 0.004986
107 0.006983
114 0.006995
121 0.006985
131 0.007974
137 0.006986
143 0.007948
157 0.006025
160 0.007017
118 0.004986
77 0.003987
78 0.004986
89 0.001947
104 0.001957
108 0.001961
95 0.002033
97 0.00199
114 0.001956
136 0.002019
146 0.002038
156 0.000995
162 0.00204
174 0.001056
155 0.001995
94 0.00096
63 0.002988
78 0.001995
89 0.001042
109 0.002009
109 0.000999
103 0.000997
114 0.0
128 0.001023
150 0.000985
169 0.001988
178 0.0
185 0.0
192 0.0
171 0.0
100 0.0
81 0.0
93 0.0
105 0.0
118 0.0
106 0.0
103 0.0
110 0.0
121 0.000999
135 0.000993
142 0.000997
147 0.000997
159 0.002994
152 0.00295
96 0.002991
48 0.002993
47 0.002992
68 0.002961
89 0.004007
88 0.004033
74 0.004013
80 0.006015
90 0.005988
105 0.005984
113 0.005984
122 0.00599
135 0.006945
140 0.006972
100 0.006965
28 0.006984
18 0.007014
35 0.006982
45 0.007163
55 0.006983
47 0.007986
46 0.005978
57 0.005984
74 0.005988
83 0.00599
96 0.005984
103 0.006027
118 0.00503
101 0.003998
55 0.004976
12 0.00299
26 0.003006
37 0.003
50 0.003032
49 0.003034
49 0.002022
63 0.003105
73 0.002996
89 0.003024
95 0.002029
108 0.002017
118 0.003031
129 0.002002
109 0.002992
37 0.002042
23 0.000998
38 0.000997
52 0.001996
67 0.000984
66 0.000998
62 0.002026
74 0.0
89 0.0
98 0.000998
111 0.002006
117 0.002032
128 0.00199
142 0.00402
143 0.003865
85 0.00399
46 0.003991
52 0.004032
77 0.003995
92 0.003993
93 0.004021
86 0.006088
91 0.006981
107 0.006981
123 0.006982
130 0.006982
140 0.007014
147 0.005993
155 0.006981
163 0.00403
108 0.003139
63 0.003022
49 0.002999
60 0.002994
78 0.003002
84 0.002988
79 0.002994
81 0.003037
91 0.003037
110 0.00295
122 0.003993
132 0.001999
139 0.004025
148 0.001995
161 0.000994
124 0.001043
76 0.001028
46 0.001096
62 0.0
73 0.002031
87 0.0
86 0.000961
86 0.000998
96 0.000997
105 0.000998
123 0.00302
137 0.00402
144 0.004023
155 0.006024
165 0.005987
145 0.005983
70 0.006982
51 0.006981
61 0.006984
75 0.005033
89 0.007023
90 0.004026
88 0.004966
96 0.003998
109 0.005151
123 0.005035
131 0.005022
142 0.004987
153 0.00403
162 0.005027
144 0.002979
99 0.004975
56 0.001995
72 0.0
86 0.0
102 0.0
99 0.0
95 0.0
104 0.001003
121 0.000998
130 0.000997
141 0.000957
150 0.001009
160 0.001011
167 0.000999
138 0.001955
71 0.001987
65 0.004028
83 0.003986
103 0.00403
111 0.004024
104 0.004023
99 0.004019
108 0.00403
126 0.003995
134 0.003989
146 0.005023
159 0.004986
166 0.005934
138 0.006974
65 0.007029
53 0.007016
73 0.006991
87 0.006978
101 0.006965
94 0.006954
92 0.006983
103 0.004987
117 0.005984
129 0.003001
138 0.004007
151 0.002948
158 0.000995
126 0.000998
49 0.000974
36 0.001994
47 0.000998
57 0.001994
73 0.0
74 0.0
73 0.0
83 0.000998
99 0.001987
109 0.001966
123 0.002043
131 0.003027
145 0.00303
108 0.003033
62 0.003032
34 0.003049
49 0.003045
57 0.003022
72 0.003012
72 0.003002
73 0.003025
85 0.00305
99 0.003028
112 0.002993
123 0.004029
131 0.002991
145 0.005996
148 0.006021
91 0.006002
45 0.006024
50 0.006016
68 0.00602
81 0.006019
90 0.005972
88 0.006021
92 0.006029
107 0.006004
118 0.005989
132 0.007018
141 0.006973
150 0.00702
160 0.006951
166 0.007979
141 0.006982
74 0.006965
65 0.006983
83 0.006985
107 0.005019
113 0.005027
109 0.001995
114 0.000999
123 0.0
137 0.0
148 0.0
153 0.0
163 0.0
175 0.0
181 0.001016
131 0.000998
91 0.000998
79 0.001996
100 0.004017
115 0.004018
123 0.003986
114 0.003959
116 0.00399
129 0.004023
143 0.004021
154 0.003914
165 0.003994
170 0.004008
182 0.00499
177 0.005984
133 0.00699
69 0.006984
71 0.00595
84 0.004991
104 0.002971
107 0.00303
103 0.003
108 0.002978
118 0.002963
134 0.002987
146 0.003989
156 0.003024
164 0.003984
174 0.001983
182 0.003989
135 0.003989
85 0.004021
63 0.002992
80 0.001028
88 0.001995
103 0.0
103 0.001
101 0.0
111 0.000991
122 0.001015
139 0.000999
155 0.004038
163 0.003992
171 0.004991
183 0.005037
184 0.005018
110 0.006
65 0.006977
67 0.006973
87 0.006024
101 0.007013
111 0.004979
106 0.007023
108 0.004984
119 0.005984
136 0.006018
146 0.006006
159 0.005954
165 0.005984
173 0.006049
187 0.005028
182 0.004987
106 0.002997
73 0.002991
84 0.003024
109 0.002995
122 0.00299
124 0.003034
119 0.003027
123 0.002944
140 0.002991
154 0.001033
163 0.0
173 0.001995
183 0.003902
189 0.003993
192 0.004023
139 0.004987
88 0.006986
85 0.005983
113 0.005985
125 0.007979
135 0.007984
120 0.004995
117 0.006963
131 0.006009
143 0.006982
157 0.002992
167 0.000997
174 0.001038
189 0.000992
168 0.001004
117 0.001003
75 0.0
90 0.000976
110 0.000955
138 0.001995
126 0.002993
118 0.00303
122 0.002955
132 0.002997
150 0.002992
158 0.002951
166 0.002959
176 0.002996
167 0.003948
116 0.004957
50 0.006998
55 0.006943
76 0.006972
95 0.006941
100 0.006974
88 0.00697
89 0.006992
99 0.006963
116 0.006091
124 0.006014
135 0.00698
148 0.007992
148 0.00595
75 0.007983
25 0.007013
23 0.007015
44 0.006991
55 0.00698
60 0.007013
54 0.00503
59 0.006975
75 0.004987
88 0.006014
104 0.003002
115 0.002011
127 0.0
129 0.0
82 0.000962
25 0.000987
15 0.000998
32 0.00103
47 0.0
54 0.0
49 0.000997
51 0.00204
65 0.003966
80 0.004033
92 0.004026
101 0.004004
112 0.004022
122 0.003947
88 0.004012
43 0.004936
19 0.004982
28 0.00497
52 0.005027
67 0.00699
65 0.007013
64 0.006028
76 0.006976
86 0.00698
103 0.004945
114 0.005009
121 0.004982
134 0.005973
140 0.004991
94 0.003004
45 0.004986
45 0.002984
61 0.003989
86 0.002025
89 0.002001
79 0.001023
82 0.0
98 0.0
113 0.0
123 0.0
132 0.000999
144 0.001945
155 0.002002
160 0.002995
93 0.002953
66 0.001977
75 0.002993
90 0.002995
115 0.002959
112 0.002866
106 0.002953
114 0.002994
133 0.003952
141 0.003989
153 0.004023
158 0.003993
170 0.00399
178 0.005026
155 0.006982
88 0.006982
58 0.007981
69 0.006018
89 0.006018
102 0.005029
99 0.005984
98 0.003985
106 0.00596
125 0.00398
142 0.003989
149 0.003984
160 0.00399
166 0.003989
166 0.003999
89 0.002991
56 0.002108
56 0.002991
70 0.003995
85 0.001964
91 0.004029
91 0.00199
94 0.002024
109 0.002033
119 0.001996
136 0.001995
146 0.0
153 0.002002
166 0.002031
161 0.002029
85 0.0
51 0.0
56 0.0
75 0.0
95 0.001008
97 0.000961
93 0.000989
97 0.000998
113 0.001007
133 0.000997
142 0.000995
152 0.000998
160 0.000998
172 0.00299
156 0.004024
93 0.005984
63 0.006011
75 0.007934
90 0.006995
113 0.007924
111 0.007021
106 0.007009
109 0.005986
128 0.005956
139 0.005987
151 0.005033
156 0.004028
168 0.005032
181 0.003977
173 0.00401
98 0.003994
71 0.005022
87 0.00201
107 0.003001
127 0.002969
123 0.002992
114 0.003008
120 0.002985
135 0.003029
153 0.0
160 0.001995
172 0.0
180 0.000984
189 0.000998
129 0.001021
83 0.001012
71 0.000997
100 0.002011
116 0.002993
123 0.002986
112 0.004982
114 0.004998
132 0.005017
150 0.00596
157 0.006949
167 0.006997
173 0.007002
182 0.006994
135 0.007014
66 0.006979
50 0.006907
69 0.006961
85 0.006993
100 0.00702
100 0.007979
95 0.006992
107 0.003006
117 0.003989
135 0.003005
148 0.001994
155 0.002011
169 0.002024
165 0.001036
85 0.001015
39 0.000997
47 0.001028
64 0.001001
80 0.002981
84 0.000987
80 0.00104
86 0.001
99 0.000985
116 0.001982
125 0.0
138 0.001013
146 0.001996
157 0.002027
148 0.004022
67 0.003991
39 0.00401
47 0.005021
67 0.006697
80 0.007015
85 0.004973
83 0.004987
87 0.004995
105 0.004987
116 0.004972
131 0.00495
139 0.005029
144 0.00398
156 0.003947
160 0.003982
104 0.004
53 0.005003
51 0.003956
69 0.004969
93 0.005036
97 0.005028
91 0.004961
92 0.004001
108 0.002992
128 0.001003
135 0.00298
145 0.000966
154 0.0
158 0.000962
172 0.0
160 0.0
82 0.0
60 0.0
74 0.0
101 0.0
111 0.001001
104 0.001962
100 0.001955
118 0.002993
131 0.003984
147 0.00499
153 0.005029
162 0.004993
172 0.005017
175 0.004949
123 0.004953
61 0.00582
62 0.006979
87 0.00701
103 0.007026
110 0.006974
100 0.005993
99 0.005983
114 0.004987
134 0.004983
145 0.004996
155 0.004997
161 0.005003
172 0.004958
132 0.003989
78 0.00403
46 0.005953
64 0.005017
78 0.003993
97 0.003
96 0.00299
94 0.002983
104 0.001976
114 0.001995
131 0.001969
142 0.001058
150 0.0
163 0.0
145 0.000993
97 0.002034
47 0.003036
59 0.004019
74 0.004028
97 0.003956
99 0.003991
92 0.003985
102 0.003987
113 0.003992
130 0.004032
138 0.003996
150 0.003984
162 0.004989
162 0.005981
108 0.007026
51 0.006989
53 0.00698
74 0.007979
98 0.005998
100 0.007973
92 0.005983
95 0.007978
108 0.005981
126 0.005981
135 0.004963
146 0.003985
157 0.003965
163 0.002993
116 0.001028
61 0.001981
56 0.001053
76 0.001976
98 0.0
104 0.001029
93 0.001006
92 0.000998
108 0.001028
119 0.001028
133 0.000964
138 0.000998
152 0.002994
158 0.003026
111 0.003018
65 0.00198
51 0.004025
77 0.003999
94 0.004021
104 0.003964
95 0.003997
95 0.004028
115 0.005038
126 0.004915
137 0.004977
150 0.006034
160 0.006982
152 0.006978
90 0.007979
46 0.004996
52 0.005982
75 0.00498
88 0.003987
94 0.002031
92 0.0
98 0.0
113 0.0
133 0.002027
141 0.003025
152 0.003971
164 0.005974
142 0.005985
76 0.005995
47 0.005982
56 0.005994
71 0.004158
88 0.003998
91 0.002994
94 0.001029
105 0.001994
122 0.0
138 0.0
149 0.002993
156 0.003995
173 0.00399
166 0.003982
105 0.003995
68 0.004031
70 0.004021
80 0.00396
99 0.003951
104 0.003992
104 0.00399
107 0.004046
121 0.003993
137 0.005018
146 0.004989
158 0.005998
168 0.006023
176 0.005887
178 0.006014
139 0.006014
82 0.005981
88 0.006029
97 0.005985
113 0.006974
119 0.006981
117 0.005994
121 0.006987
132 0.005996
144 0.005975
159 0.005017
166 0.00502
175 0.006039
186 0.002963
192 0.004031
151 0.000993
95 0.0
95 0.0
113 0.0
130 0.0
138 0.000999
132 0.001966
132 0.002005
144 0.002058
158 0.002028
166 0.002038
178 0.002031
186 0.002992
197 0.004033
197 0.003964
149 0.003992
104 0.004031
107 0.004989
121 0.005018
148 0.005986
148 0.005988
142 0.005988
145 0.005984
154 0.005986
170 0.005985
179 0.006979
185 0.005952
197 0.005983
210 0.005949
201 0.005994
135 0.005979
114 0.00598
124 0.006023
145 0.00697
164 0.004985
159 0.006123
148 0.005985
153 0.006014
170 0.005021
177 0.003989
185 0.003978
196 0.002992
207 0.003988
199 0.00202
122 0.000996
99 0.0
112 0.0
129 0.002038
143 0.0
141 0.000997
134 0.00205
137 0.002962
151 0.002993
160 0.002993
170 0.002994
181 0.001995
188 0.002994
168 0.002998
117 0.002966
75 0.003028
86 0.004037
100 0.003991
114 0.004006
113 0.005986
109 0.007012
116 0.007963
130 0.004974
141 0.00701
152 0.004972
156 0.006975
168 0.004999
162 0.004984
116 0.004982
65 0.005014
73 0.002994
83 0.002987
102 0.003
104 0.002997
98 0.001986
103 0.003034
113 0.000997
128 0.002993
141 0.002025
146 0.000997
158 0.002033
168 0.002991
141 0.00296
82 0.002994
60 0.003011
71 0.003035
91 0.002978
103 0.002962
101 0.00303
97 0.003
104 0.003948
121 0.005019
133 0.005984
138 0.006979
149 0.00701
153 0.00695
163 0.006948
131 0.006981
86 0.006926
59 0.005984
74 0.00797
92 0.004988
105 0.005018
96 0.004028
93 0.003992
102 0.00403
111 0.003035
125 0.003023
136 0.000964
142 0.001994
152 0.0
159 0.0
129 0.0
65 0.000991
59 0.00101
71 0.000996
96 0.00195
104 0.002046
97 0.002008
98 0.002024
105 0.001027
120 0.00197
130 0.001985
142 0.001981
149 0.004028
160 0.004036
166 0.003991
119 0.005021
79 0.004913
64 0.004977
87 0.005022
103 0.005021
110 0.005022
103 0.00601
100 0.006982
112 0.005985
123 0.004993
139 0.004988
150 0.004985
154 0.004992
167 0.005026
166 0.003993
103 0.004981
66 0.006017
72 0.004064
94 0.005989
115 0.004985
113 0.003993
103 0.003028
107 0.003037
123 0.003027
138 0.000987
144 0.002025
153 0.0
167 0.000955
168 0.000996
103 0.001002
71 0.000965
75 0.0
103 0.000987
113 0.0
116 0.000998
105 0.000994
107 0.000996
124 0.000938
135 0.000998
146 0.001017
155 0.001043
163 0.000999
149 0.002957
84 0.002957
46 0.003032
54 0.003034
70 0.002027
84 0.00297
85 0.003895
83 0.00503
88 0.006023
99 0.006975
108 0.006983
120 0.004985
131 0.004987
139 0.005016
121 0.004991
48 0.003032
32 0.003983
44 0.003992
52 0.004021
67 0.003038
68 0.002992
65 0.000994
75 0.002988
92 0.003025
101 0.003021
114 0.002992
120 0.003005
135 0.001993
138 0.0
87 0.0
39 0.0
39 0.0
46 0.0
61 0.0
70 0.0
69 0.002996
78 0.00199
88 0.002007
107 0.003022
119 0.003006
123 0.004044
131 0.005983
142 0.006034
148 0.006018
104 0.005982
62 0.005981
44 0.006015
56 0.005984
68 0.005893
78 0.006032
78 0.006018
79 0.007022
90 0.007974
101 0.007024
119 0.006982
130 0.004996
135 0.007014
144 0.004996
153 0.003986
160 0.002992
143 0.002993
72 0.002002
59 0.0
71 0.0
91 0.002012
100 0.002958
98 0.004017
97 0.005034
105 0.005028
122 0.00498
134 0.00601
143 0.005928
151 0.004986
161 0.005984
169 0.007017
179 0.00798
159 0.007987
88 0.007985
74 0.005999
87 0.004986
111 0.005104
122 0.003997
118 0.004984
115 0.002
123 0.001966
143 0.00199
154 0.002027
161 0.0
166 0.0
176 0.001992
182 0.001997
165 0.004056
96 0.003956
61 0.004989
70 0.006021
85 0.006961
104 0.003984
104 0.005984
100 0.003142
105 0.004984
121 0.000996
139 0.001998
148 0.002001
158 0.001998
167 0.001003
174 0.0
167 0.0
119 0.000963
59 0.000979
62 0.002008
76 0.0
92 0.002037
100 0.000993
97 0.00196
101 0.001996
115 0.001995
127 0.002027
140 0.001746
149 0.001978
158 0.001995
166 0.001966
176 0.002986
162 0.004031
78 0.004001
56 0.003954
68 0.004986
81 0.004708
100 0.005953
103 0.006015
99 0.005021
104 0.003987
121 0.003007
132 0.001973
148 0.002991
156 0.004034
163 0.002028
170 0.00399
179 0.001995
168 0.002992
86 0.001995
60 0.001984
75 0.001992
103 0.001015
114 0.002027
111 0.0
100 0.0
106 0.0
126 0.0
143 0.0
154 0.0
165 0.001006
171 0.001995
183 0.001947
160 0.001994
106 0.003855
60 0.004993
78 0.005008
98 0.004963
123 0.004989
121 0.004988
109 0.00498
116 0.006016
133 0.005968
148 0.005989
158 0.006976
166 0.007019
178 0.007014
184 0.00701
143 0.007946
59 0.005983
50 0.007973
72 0.005978
95 0.007979
107 0.005969
97 0.005985
95 0.005969
108 0.005984
120 0.005994
139 0.004983
150 0.002985
158 0.002
167 0.001003
118 0.003957
47 0.002001
28 0.002992
49 0.002989
60 0.001993
73 0.002027
70 0.001847
71 0.001995
83 0.001999
103 0.002992
113 0.003958
124 0.00399
132 0.003948
144 0.00402
90 0.003987
39 0.003996
15 0.005984
33 0.005987
46 0.005989
61 0.00599
59 0.006987
63 0.006983
77 0.006983
89 0.00695
103 0.005018
113 0.005972
120 0.004955
132 0.004986
127 0.003001
82 0.00398
20 0.002994
20 0.004012
42 0.001976
63 0.00201
67 0.001995
64 0.0
74 0.0
87 0.000957
106 0.0
115 0.0
121 0.0
130 0.0
139 0.000998
147 0.001006
83 0.000997
43 0.000998
43 0.001004
58 0.001017
86 0.00196
88 0.001009
81 0.000998
85 0.001001
105 0.001996
118 0.002992
131 0.005979
141 0.007007
144 0.00798
158 0.003946
156 0.003978
112 0.004002
45 0.004004
55 0.002998
71 0.001994
98 0.001993
100 0.000983
90 0.001995
95 0.002036
112 0.002008
129 0.002014
142 0.002027
148 0.0
158 0.000998
169 0.002992
155 0.002992
83 0.004989
35 0.004951
44 0.005954
65 0.005971
84 0.006992
86 0.007979
83 0.005979
85 0.007979
104 0.006008
123 0.005984
132 0.005994
142 0.004956
152 0.003998
160 0.004008
153 0.003992
102 0.004022
36 0.003985
40 0.004968
57 0.002998
76 0.005024
82 0.004979
80 0.004987
87 0.004989
96 0.004986
114 0.003025
127 0.00099
137 0.0
147 0.0
156 0.00103
165 0.000999
140 0.000998
55 0.000998
39 0.000998
58 0.002034
82 0.00399
90 0.00601
86 0.005986
84 0.005982
97 0.005986
117 0.00594
128 0.005985
138 0.005995
146 0.007946
152 0.005996
166 0.007974
169 0.007032
134 0.004973
57 0.005021
52 0.005021
82 0.002999
110 0.001989
115 0.002987
104 0.001991
111 0.0
123 0.0
144 0.000956
157 0.000963
163 0.0
172 0.000952
180 0.000987
190 0.000997
139 0.001029
89 0.001032
73 0.001005
100 0.001995
116 0.002991
129 0.002958
125 0.002961
125 0.001995
139 0.002994
156 0.001989
167 0.003945
177 0.00399
183 0.004003
193 0.004022
200 0.003991
159 0.003948
82 0.004024
70 0.00399
87 0.003853
97 0.003975
113 0.00399
113 0.00503
114 0.005031
125 0.004958
137 0.004981
155 0.005024
167 0.004994
172 0.004983
178 0.005022
190 0.004982
194 0.004975
131 0.006976
91 0.007955
79 0.007018
98 0.00501
108 0.006017
123 0.003022
120 0.002
123 0.00202
137 0.001988
153 0.001993
163 0.001996
173 0.001999
181 0.002004
186 0.002012
195 0.001996
201 0.0
162 0.000997
98 0.002033
96 0.003945
110 0.005019
125 0.005984
136 0.005984
131 0.006024
130 0.007943
138 0.007983
156 0.007978
169 0.00399
176 0.006013
185 0.003036
192 0.002993
198 0.001991
210 0.001217
161 0.000994
120 0.0
108 0.0
124 0.002027
142 0.0
151 0.0
146 0.0
142 0.002045
155 0.0
165 0.0
180 0.0
186 0.0
194 0.002022
200 0.003027
211 0.00502
214 0.005958
156 0.00695
108 0.005975
106 0.00801
121 0.004002
142 0.001993
145 0.001995
136 0.000996
140 0.001002
146 0.000998
160 0.001047
174 0.00089
178 0.00101
186 0.000998
189 0.001035
200 0.000998
158 0.001044
113 0.000962
86 0.002029
97 0.002992
112 0.002995
126 0.005994
125 0.007963
122 0.007987
125 0.007026
140 0.004974
150 0.007017
161 0.002986
172 0.002006
177 0.001994
187 0.001991
184 0.00201
118 0.001997
84 0.002024
91 0.001996
108 0.00296
122 0.002026
126 0.0
122 0.0
124 0.0
137 0.0
153 0.0
161 0.0
172 0.0
178 0.000997
185 0.000964
194 0.003032
171 0.002994
115 0.003001
90 0.002999
99 0.003951
117 0.005021
131 0.004977
127 0.006978
123 0.006984
132 0.005985
144 0.006943
154 0.006982
160 0.006982
171 0.006986
177 0.00695
184 0.005977
183 0.004973
133 0.006972
93 0.005012
94 0.006018
114 0.003995
127 0.003995
132 0.004022
125 0.004037
123 0.003
137 0.0
146 0.000987
155 0.0
164 0.0
169 0.000998
177 0.001956
187 0.00305
176 0.002951
108 0.001995
86 0.001995
97 0.005992
122 0.005033
130 0.00602
123 0.005976
115 0.006028
120 0.005982
130 0.006024
149 0.007988
155 0.007977
160 0.007978
165 0.007976
174 0.007981
168 0.003989
127 0.00502
77 0.001996
86 0.001
99 0.001993
122 0.0
116 0.001999
108 0.001998
113 0.000973
126 0.000998
137 0.000998
148 0.001999
157 0.003038
164 0.003991
176 0.003995
154 0.003989
75 0.004982
56 0.003989
71 0.003993
86 0.003962
99 0.00299
96 0.007028
90 0.006029
99 0.005035
110 0.007024
127 0.004171
134 0.005986
143 0.003822
153 0.002998
160 0.001985
120 0.001999
46 0.0
37 0.0
52 0.0
64 0.002029
76 0.0
73 0.002017
75 0.0
82 0.001958
98 0.001994
111 0.004004
121 0.005041
129 0.005995
138 0.007925
143 0.006982
139 0.005986
64 0.003975
37 0.006018
45 0.003989
56 0.00598
72 0.003006
76 0.003009
74 0.003029
81 0.002983
98 0.001995
108 0.002007
121 0.001996
128 0.001994
137 0.001994
146 0.001991
153 0.000996
121 0.001013
55 0.001028
47 0.000997
68 0.002962
84 0.004025
94 0.004021
91 0.003998
90 0.003995
99 0.003992
118 0.003994
127 0.004031
139 0.003978
147 0.00498
152 0.004986
164 0.004993
168 0.00499
117 0.005029
68 0.004992
72 0.004976
97 0.005017
117 0.006985
118 0.006984
109 0.00598
110 0.006978
126 0.004993
141 0.006016
153 0.00396
161 0.005992
169 0.006017
175 0.006029
186 0.004987
145 0.000952
98 0.002002
75 0.000949
99 0.000995
116 0.000996
128 0.0
122 0.000986
115 0.0
127 0.0
139 0.0
156 0.000997
166 0.002965
171 0.001982
180 0.002992
185 0.002992
152 0.003014
81 0.003029
56 0.004025
72 0.00399
92 0.003976
103 0.004031
101 0.006014
100 0.005986
107 0.006989
121 0.006949
136 0.007014
148 0.006981
160 0.006981
168 0.006958
170 0.006982
134 0.00699
66 0.005996
48 0.00499
60 0.002959
80 0.002999
91 0.004986
90 0.002997
90 0.004988
102 0.004016
114 0.003989
133 0.003984
141 0.002992
151 0.002021
162 0.0
168 0.003004
131 0.000967
64 0.0
43 0.0
58 0.0
78 0.001995
87 0.002992
87 0.002973
85 0.002988
94 0.004044
112 0.004959
123 0.00502
136 0.004987
145 0.004992
150 0.006981
161 0.00698
155 0.007015
110 0.005979
56 0.008009
58 0.005976
72 0.005984
97 0.006035
100 0.004982
91 0.003992
94 0.001009
105 0.001991
124 0.0
137 0.0
144 0.0
149 0.0
157 0.000992
164 0.000998
167 0.001005
130 0.00097
61 0.000998
67 0.000978
84 0.001956
113 0.002958
110 0.002957
101 0.002952
106 0.002992
117 0.003015
135 0.002984
147 0.003022
155 0.003001
162 0.005027
172 0.005951
179 0.005989
137 0.006021
84 0.006007
55 0.00798
75 0.004988
102 0.003024
113 0.003995
104 0.003963
100 0.002987
112 0.001992
131 0.002038
141 0.002008
152 0.0
160 0.001987
168 0.001001
175 0.002025
123 0.0
67 0.000998
38 0.000997
51 0.002022
72 0.002989
86 0.005034
82 0.005984
81 0.006983
92 0.007016
104 0.00699
123 0.007975
134 0.004969
140 0.007022
148 0.003996
159 0.004026
164 0.004756
98 0.003999
50 0.003993
38 0.003989
61 0.003982
72 0.003007
84 0.003982
80 0.005037
79 0.00503
94 0.004985
105 0.004973
123 0.004978
135 0.002968
143 0.002993
150 0.001995
163 0.0
164 0.0
99 0.0
40 0.000942
45 0.000998
69 0.000998
92 0.003996
94 0.005026
87 0.005016
95 0.005955
102 0.005998
120 0.005973
129 0.005982
140 0.005985
148 0.007974
153 0.004984
164 0.005992
154 0.005018
106 0.005019
46 0.004985
60 0.0
77 0.002992
103 0.0
100 0.0
96 0.0
105 0.0
115 0.0
135 0.0
147 0.0
154 0.000998
164 0.000988
176 0.000998
180 0.001995
129 0.003989
63 0.003959
63 0.004
94 0.005985
114 0.005984
125 0.006973
113 0.006982
109 0.006966
123 0.006981
144 0.006978
153 0.006982
164 0.006979
169 0.006969
181 0.00698
188 0.003991
164 0.005973
81 0.003986
69 0.003997
89 0.003988
126 0.004
135 0.003936
121 0.00399
116 0.004001
126 0.003993
146 0.003005
159 0.004022
165 0.002031
174 0.003989
185 0.001994
156 0.00298
72 0.002969
56 0.002001
79 0.002025
112 0.0
124 0.001994
114 0.0
104 0.002004
111 0.001004
130 0.002992
140 0.002992
150 0.003025
162 0.002984
168 0.00499
104 0.005019
29 0.005007
28 0.005989
54 0.00697
77 0.006971
81 0.006975
74 0.006979
71 0.006014
83 0.00598
102 0.00798
112 0.005992
119 0.007974
130 0.005953
128 0.007979
41 0.007966
16 0.007976
9 0.007975
27 0.004985
39 0.006981
51 0.004991
50 0.001995
55 0.001994
74 0.00201
92 0.0
100 0.0
108 0.0
123 0.001995
121 0.000998
43 0.002028
7 0.002036
9 0.002
25 0.001995
37 0.002036
50 0.002967
50 0.00399
57 0.004028
71 0.004026
87 0.004027
98 0.003992
110 0.005033
115 0.005026
128 0.006988
132 0.006975
102 0.006969
19 0.006981
18 0.006982
40 0.006944
58 0.00698
67 0.006946
67 0.005009
70 0.005017
84 0.001996
101 0.002033
117 0.0
125 0.0
136 0.0
145 0.0
155 0.001995
165 0.000997
128 0.001995
80 0.003008
58 0.005948
77 0.006978
92 0.007973
109 0.005952
101 0.004977
102 0.005016
119 0.004021
140 0.001995
148 0.002991
157 0.001979
164 0.002993
173 0.0
184 0.002028
186 0.0
124 0.0
76 0.000998
83 0.00099
108 0.001
127 0.001996
129 0.003039
122 0.002996
131 0.003945
144 0.003028
162 0.002993
168 0.005023
175 0.004987
183 0.004949
190 0.00499
196 0.004956
167 0.004984
101 0.005017
100 0.005018
112 0.004985
130 0.004955
132 0.005852
129 0.005984
130 0.005969
149 0.007967
161 0.003989
173 0.004987
184 0.005018
190 0.005018
201 0.004021
205 0.005014
151 0.00502
96 0.001999
100 0.004091
123 0.0
145 0.0
147 0.0
137 0.000998
140 0.002963
148 0.002992
167 0.002993
173 0.003986
177 0.004986
187 0.005988
191 0.003957
154 0.003988
80 0.002029
77 0.001995
98 0.0
114 0.002019
129 0.002025
128 0.002992
127 0.000967
137 0.001995
150 0.001995
163 0.001995
175 0.003639
186 0.004671
187 0.004988
112 0.005967
82 0.007016
83 0.00698
101 0.004977
114 0.00498
125 0.004987
123 0.003989
127 0.006035
143 0.004986
150 0.004987
164 0.003991
174 0.003979
186 0.004022
148 0.004992
91 0.002994
81 0.00403
104 0.003983
116 0.004098
129 0.003996
126 0.003991
123 0.00399
139 0.002942
152 0.002029
167 0.0
179 0.0
186 0.001004
179 0.0
110 0.001007
89 0.000998
103 0.001994
118 0.001993
144 0.00396
142 0.003994
142 0.004982
155 0.00399
175 0.004982
184 0.006972
195 0.004988
205 0.00702
216 0.004987
213 0.00798
145 0.00597
118 0.004981
127 0.001988
155 0.002045
169 0.0
165 0.0
158 0.0
165 0.0
182 0.0
192 0.0
203 0.0
211 0.002998
221 0.0
227 0.000998
172 0.003993
138 0.00399
138 0.006961
159 0.006989
177 0.006974
183 0.006983
168 0.006955
167 0.007978
179 0.006981
194 0.003007
199 0.00399
207 0.002037
224 0.002043
225 0.001999
159 0.001978
127 0.001993
129 0.0
152 0.0
171 0.0
173 0.0
158 0.0
159 0.0
172 0.0
180 0.0
190 0.0
201 0.0
207 0.001966
152 0.002956
92 0.003972
82 0.005017
100 0.005988
125 0.005982
131 0.005955
119 0.005998
116 0.005986
126 0.006016
141 0.005988
149 0.005981
161 0.005987
168 0.00604
162 0.006031
82 0.006002
54 0.004981
61 0.004996
80 0.004971
92 0.004951
91 0.004964
86 0.005028
92 0.002993
101 0.004031
114 0.002972
121 0.00404
134 0.002039
141 0.002028
98 0.001965
36 0.0
34 0.002029
50 0.000958
71 0.0
77 0.000993
69 0.0
69 0.0
81 0.0
97 0.0
106 0.0
115 0.001028
123 0.000843
138 0.002039
101 0.004037
39 0.004951
35 0.005985
54 0.005974
68 0.005966
82 0.00698
78 0.006987
77 0.00602
87 0.007015
99 0.007012
109 0.007013
121 0.006984
132 0.003978
138 0.006019
147 0.003004
132 0.004998
65 0.002985
49 0.002168
62 0.002036
83 0.003026
93 0.002991
89 0.002995
89 0.00199
97 0.003
114 0.001978
126 0.002968
135 0.002003
143 0.002029
154 0.0
158 0.000998
120 0.000995
68 0.003026
62 0.003956
79 0.005983
106 0.006948
111 0.007945
102 0.006981
102 0.003007
110 0.005984
127 0.002959
136 0.00599
145 0.003999
157 0.00399
165 0.002939
153 0.003996
84 0.001995
71 0.001993
90 0.001995
114 0.002028
128 0.0
120 0.002989
111 0.0
121 0.002025
140 0.001002
148 0.001988
158 0.0
164 0.002025
173 0.0
148 0.000963
96 0.001972
57 0.00399
76 0.003955
90 0.003956
108 0.003998
103 0.003953
99 0.004984
109 0.005988
121 0.005982
131 0.005983
143 0.005988
154 0.006985
161 0.002936
120 0.004032
53 0.003997
48 0.003992
67 0.002027
78 0.002029
94 0.002027
94 0.001986
95 0.002995
107 0.000961
125 0.0
131 0.0
142 0.000998
156 0.001996
162 0.005028
114 0.005954
54 0.005994
57 0.005983
78 0.005986
89 0.005977
104 0.00599
103 0.004993
107 0.00598
121 0.005981
133 0.007012
141 0.005126
149 0.006955
157 0.006013
164 0.005984
166 0.005984
129 0.006025
65 0.005967
74 0.002994
85 0.003988
107 0.00203
109 0.001954
106 0.000968
113 0.0
131 0.0
137 0.0
150 0.0
155 0.000997
162 0.000993
175 0.002027
181 0.001995
134 0.00199
79 0.001965
81 0.001995
104 0.001992
118 0.001994
126 0.001959
117 0.001995
119 0.003954
133 0.005023
150 0.004982
157 0.004985
166 0.00502
171 0.004987
183 0.004865
177 0.005
131 0.004979
71 0.005975
78 0.005982
92 0.004959
114 0.004999
118 0.005993
110 0.004996
115 0.003966
127 0.002992
140 0.001994
150 0.003005
156 0.00299
161 0.002993
171 0.003022
166 0.000998
91 0.000963
55 0.002981
65 0.002953
81 0.003858
100 0.004992
102 0.00499
96 0.005017
105 0.005985
115 0.007015
129 0.00599
142 0.004983
149 0.003994
158 0.002993
169 0.0
164 0.000963
89 0.0
57 0.002993
68 0.00099
86 0.002026
103 0.0
106 0.001012
102 0.000998
107 0.000997
121 0.001
137 0.000998
145 0.001014
155 0.00199
160 0.002036
171 0.001012
173 0.002992
137 0.003957
65 0.003987
71 0.005983
89 0.006974
110 0.005987
115 0.004036
108 0.003
107 0.001996
120 0.004025
136 0.001995
146 0.003991
155 0.002993
161 0.003025
178 0.004019
184 0.004018
136 0.002995
73 0.001992
73 0.003041
102 0.0
132 0.0
131 0.0
117 0.001034
119 0.001995
129 0.001959
149 0.002027
156 0.002
164 0.003036
174 0.003986
181 0.003989
145 0.003989
66 0.005982
55 0.006113
73 0.004975
97 0.00796
108 0.006013
103 0.007978
98 0.005021
105 0.005023
124 0.005129
141 0.001995
149 0.003037
161 0.002984
167 0.002993
134 0.001993
57 0.00299
47 0.0
67 0.001054
87 0.0
94 0.0
95 0.001966
96 0.002993
105 0.003991
122 0.004037
136 0.004955
143 0.005977
153 0.006109
161 0.007983
134 0.005983
70 0.007983
49 0.005064
66 0.00798
80 0.007979
94 0.007974
90 0.007978
90 0.006978
100 0.00602
118 0.003993
127 0.005955
136 0.00399
146 0.003987
153 0.003038
133 0.001985
86 0.001993
50 0.002011
66 0.002028
76 0.00199
93 0.001992
92 0.002994
89 0.002995
98 0.004038
111 0.002992
123 0.005021
133 0.00402
137 0.002977
150 0.002983
150 0.0
113 0.002
59 0.00204
62 0.002
75 0.00404
99 0.003947
100 0.004986
95 0.007015
98 0.004975
115 0.003021
126 0.002014
138 0.0
146 0.0
158 0.002028
166 0.002992
154 0.003989
95 0.006977
68 0.00594
80 0.003955
100 0.004025
120 0.002029
117 0.002028
111 0.003033
117 0.002025
135 0.002029
149 0.0
154 0.002989
162 0.0
171 0.000999
178 0.000998
134 0.001996
86 0.002042
64 0.002027
84 0.00298
96 0.003948
110 0.003991
103 0.003967
105 0.004029
121 0.003982
132 0.004995
146 0.006013
154 0.00602
160 0.005983
166 0.006015
173 0.007983
143 0.007976
77 0.006984
59 0.002991
70 0.005937
85 0.002999
102 0.002946
100 0.002993
101 0.002979
110 0.003026
128 0.00198
143 0.002988
149 0.003144
157 0.00299
161 0.002994
173 0.001994
164 0.002029
116 0.0
63 0.0
73 0.0
83 0.001871
102 0.0
107 0.0
105 0.0
112 0.0
126 0.0
141 0.00103
154 0.003024
160 0.003016
169 0.002961
178 0.003044
184 0.003027
154 0.004023
78 0.005979
69 0.00598
87 0.005962
99 0.005986
117 0.004973
116 0.004017
112 0.00399
120 0.00398
136 0.00698
150 0.003959
161 0.005947
170 0.002042
174 0.001996
184 0.002026
191 0.0
162 0.002026
85 0.000997
77 0.002007
102 0.001028
129 0.0
134 0.000992
123 0.0
120 0.000997
135 0.0
154 0.0
160 0.0
170 0.000966
179 0.0
188 0.001996
196 0.002
166 0.001963
89 0.003955
86 0.003989
103 0.004977
129 0.006977
141 0.006943
132 0.005019
125 0.007983
137 0.00797
150 0.007977
166 0.007011
173 0.004987
179 0.005986
190 0.003004
140 0.0
82 0.0
56 0.000964
82 0.001008
98 0.0
114 0.0
110 0.0
105 0.0
116 0.001987
133 0.000994
147 0.0
155 0.0
164 0.0
177 0.002014
163 0.002013
71 0.002994
40 0.001999
54 0.004957
70 0.004021
88 0.005018
89 0.005042
84 0.005017
90 0.004988
108 0.006983
124 0.005987
135 0.007015
143 0.005994
156 0.006976
163 0.004984
108 0.003932
39 0.004969
37 0.003976
58 0.003988
70 0.004953
82 0.00414
78 0.006015
79 0.006019
92 0.005984
103 0.004987
120 0.005984
132 0.000968
137 0.002995
151 0.00299
147 0.0
101 0.003007
39 0.001994
42 0.000957
66 0.0
89 0.0
90 0.000957
85 0.0
93 0.000998
105 0.001997
124 0.002991
138 0.002993
142 0.003992
153 0.005017
166 0.006982
170 0.004954
108 0.007985
54 0.007959
63 0.007947
87 0.006016
114 0.003958
114 0.005015
102 0.002023
103 0.005991
123 0.002989
143 0.002984
151 0.002993
160 0.002987
166 0.002999
180 0.001993
176 0.002992
131 0.001118
72 0.0
81 0.000991
107 0.000997
134 0.0
132 0.001996
122 0.001996
124 0.002011
140 0.001996
155 0.003023
166 0.004011
175 0.004987
183 0.005986
192 0.006036
169 0.005947
81 0.005987
65 0.004987
81 0.007996
114 0.003971
130 0.002947
122 0.002006
114 0.002985
131 0.002996
143 0.002991
157 0.001963
163 0.004
172 0.000985
183 0.0
151 0.002028
87 0.002028
40 0.003018
58 0.002992
82 0.002992
102 0.002963
97 0.004954
90 0.005027
100 0.00502
112 0.005019
130 0.005035
137 0.005972
141 0.00797
153 0.004988
149 0.003999
100 0.003958
28 0.002992
39 0.00201
55 0.004022
78 0.000965
78 0.0
74 0.001996
76 0.001997
95 0.002001
108 0.003003
122 0.002996
127 0.003006
139 0.003979
148 0.00502
114 0.005977
46 0.007022
28 0.006971
44 0.006982
68 0.006986
83 0.005983
80 0.005979
77 0.005984
83 0.007977
101 0.005953
118 0.005949
125 0.004986
136 0.003995
149 0.002999
154 0.002964
98 0.001993
43 0.004023
45 0.001994
66 0.002034
91 0.0
98 0.000997
90 0.001008
94 0.002028
108 0.002007
126 0.002007
138 0.002029
147 0.002006
154 0.002995
160 0.001999
171 0.004991
118 0.004988
70 0.006
58 0.005983
84 0.004986
102 0.003996
116 0.002008
108 0.004023
107 0.0
120 0.003032
138 0.003027
147 0.000998
158 0.001968
165 0.003959
173 0.003957
183 0.004021
158 0.004022
104 0.003979
67 0.004037
80 0.004992
113 0.005979
130 0.005009
126 0.007977
112 0.004989
124 0.00499
138 0.004968
158 0.004986
167 0.004985
172 0.004989
187 0.003987
193 0.003989
144 0.003992
77 0.006983
67 0.003949
90 0.007013
115 0.003995
128 0.006018
113 0.004986
108 0.003999
121 0.003024
142 0.0
150 0.002993
159 0.0
172 0.0
177 0.0
146 0.0
53 0.002035
37 0.003007
60 0.003972
85 0.00399
95 0.00399
90 0.005018
89 0.006084
97 0.004978
116 0.005005
127 0.004984
138 0.003956
147 0.00597
162 0.003023
146 0.002028
54 0.0
27 0.0
44 0.0
61 0.0
78 0.0
80 0.0
77 0.0
84 0.000998
103 0.001993
121 0.00299
129 0.003033
138 0.002982
146 0.00296
154 0.003023
78 0.002994
38 0.003
41 0.003956
56 0.003955
79 0.004002
87 0.00298
84 0.003967
90 0.003986
104 0.005025
120 0.004977
132 0.004985
141 0.004986
151 0.005993
165 0.005949
163 0.006977
89 0.005993
53 0.005986
59 0.006017
86 0.002998
107 0.002991
107 0.0
100 0.0
113 0.0
127 0.001009
144 0.0
153 0.002018
158 0.0
171 0.0
179 0.0
160 0.0
88 0.0
79 0.001021
101 0.001956
123 0.001995
136 0.001997
129 0.002036
123 0.002992
136 0.004025
156 0.004941
165 0.004943
174 0.005984
183 0.006981
191 0.00698
187 0.005971
107 0.004987
76 0.003994
85 0.003991
108 0.003004
122 0.002987
122 0.001991
117 0.002989
125 0.001989
138 0.004047
151 0.001995
159 0.002962
168 0.003026
177 0.0
178 0.003
117 0.003993
69 0.003997
71 0.003993
89 0.004985
101 0.006015
110 0.005955
104 0.004987
107 0.004986
122 0.005959
140 0.003987
148 0.00299
158 0.003154
163 0.002994
176 0.001994
157 0.005017
91 0.002995
66 0.004986
82 0.004021
92 0.002996
110 0.003043
111 0.0
110 0.0
119 0.001
136 0.001971
147 0.004026
160 0.005993
172 0.005983
180 0.007973
189 0.005003
160 0.002989
112 0.004983
81 0.00203
100 0.00301
111 0.002995
128 0.000998
125 0.003003
124 0.001
134 0.0
151 0.000998
160 0.003026
172 0.002989
178 0.002996
185 0.002994
195 0.003027
191 0.003894
133 0.003944
89 0.003995
95 0.005027
118 0.003975
134 0.005041
138 0.004985
130 0.004991
133 0.004997
149 0.004994
164 0.004992
171 0.005002
180 0.005011
184 0.006983
195 0.006099
200 0.005984
166 0.003975
99 0.004937
99 0.006022
117 0.00298
140 0.005984
145 0.005025
135 0.00499
132 0.004986
140 0.003002
160 0.003001
171 0.002036
179 0.0
183 0.002
197 0.002049
192 0.002954
144 0.005031
88 0.005985
92 0.005985
120 0.005982
144 0.005998
139 0.005978
126 0.004988
129 0.002991
139 0.002998
156 0.003002
165 0.005991
172 0.003075
182 0.005015
188 0.002993
144 0.005979
67 0.005019
59 0.00502
81 0.003978
103 0.0
107 0.002992
97 0.0
99 0.0
109 0.0
122 0.000952
137 0.000997
144 0.001994
157 0.002991
147 0.004984
97 0.005987
47 0.005951
51 0.004986
64 0.004983
85 0.003987
90 0.005987
85 0.003108
87 0.004022
98 0.002991
114 0.003959
130 0.004029
136 0.003991
149 0.003989
137 0.0
89 0.002987
42 0.0
56 0.0
71 0.000998
97 0.000997
98 0.000998
92 0.002034
99 0.00394
111 0.004004
129 0.004991
139 0.005989
148 0.006965
159 0.00303
168 0.004024
117 0.003188
77 0.001993
72 0.002024
98 0.0
116 0.002025
126 0.0
115 0.001994
117 0.002958
133 0.004989
152 0.004988
161 0.00598
172 0.005999
177 0.006015
189 0.00599
167 0.005973
119 0.005
79 0.002958
100 0.003005
113 0.003015
131 0.002992
126 0.002996
122 0.002986
132 0.002997
150 0.003024
160 0.003024
170 0.003024
175 0.002989
186 0.003024
189 0.0
151 0.001973
84 0.0
80 0.001992
97 0.001
114 0.0
120 0.0
115 0.0
118 0.002002
126 0.002068
143 0.002001
157 0.001981
162 0.00399
170 0.005982
178 0.00399
185 0.004985
147 0.004992
90 0.005987
76 0.002992
90 0.005984
105 0.004986
113 0.002993
113 0.002976
115 0.001012
123 0.002028
135 0.0
153 0.002005
160 0.001811
170 0.002036
175 0.002993
186 0.003994
160 0.003992
112 0.003996
81 0.004988
94 0.005987
107 0.005946
126 0.002992
123 0.002995
120 0.003005
128 0.003
142 0.005982
154 0.002993
164 0.004986
170 0.001995
179 0.004026
192 0.002993
187 0.003025
115 0.003044
89 0.0
99 0.002967
124 0.0
141 0.0
134 0.0
124 0.0
131 0.00099
150 0.001013
162 0.0
169 0.0
177 0.0
189 0.001006
188 0.00399
117 0.005981
75 0.004988
77 0.005965
100 0.005936
121 0.007986
121 0.004987
112 0.007971
110 0.00497
125 0.007975
139 0.00795
145 0.007872
152 0.007974
161 0.007973
160 0.007976
81 0.004977
50 0.006985
54 0.003
71 0.002002
82 0.0
84 0.0
81 0.000996
85 0.000968
101 0.0
111 0.0
124 0.000996
132 0.000995
140 0.000995
138 0.001981
66 0.00399
37 0.005984
45 0.006
56 0.006015
73 0.005965
81 0.005981
80 0.006951
86 0.006982
103 0.007017
117 0.004986
126 0.007002
137 0.003933
143 0.005946
156 0.002994
141 0.002976
98 0.003989
63 0.003046
76 0.003991
90 0.003019
107 0.003026
109 0.002984
109 0.003055
118 0.0
134 0.003022
147 0.003036
157 0.001995
165 0.002954
173 0.003031
185 0.002993
186 0.002993
130 0.002989
103 0.002848
112 0.004023
132 0.004023
145 0.003988
145 0.004025
142 0.003992
149 0.003985
164 0.004996
176 0.004986
182 0.004986
190 0.005974
197 0.006019
204 0.005989
172 0.006965
132 0.006013
110 0.007982
124 0.006983
133 0.005984
148 0.003959
141 0.002995
138 0.003986
150 0.0
163 0.001014
168 0.001003
178 0.0
186 0.001014
191 0.000999
200 0.001
184 0.000998
113 0.002032
96 0.002992
104 0.002993
113 0.005996
124 0.006001
121 0.00598
119 0.004991
126 0.006981
135 0.00399
147 0.007023
157 0.006976
162 0.006981
169 0.00599
174 0.006002
177 0.005971
118 0.003014
91 0.005991
93 0.003021
99 0.005008
116 0.002965
123 0.0
122 0.000951
127 0.0
138 0.00107
152 0.001991
158 0.004025
164 0.004989
169 0.005994
173 0.00602
183 0.003991
143 0.007982
104 0.002987
89 0.004953
102 0.005983
112 0.005985
125 0.00499
123 0.004977
119 0.005023
128 0.002005
138 0.004983
153 0.002952
162 0.0
167 0.0
178 0.0
185 0.000975
174 0.0
109 0.001011
98 0.0
105 0.001027
125 0.0
139 0.0
137 0.001029
131 0.0
135 0.0
149 0.0
158 0.002004
170 0.002
176 0.00303
185 0.004023
191 0.005019
149 0.005076
107 0.005039
88 0.004988
100 0.004889
117 0.004985
125 0.004991
118 0.004999
111 0.005999
115 0.006979
127 0.004973
141 0.004984
146 0.004985
155 0.003982
168 0.002989
164 0.003027
92 0.002993
58 0.004035
65 0.000963
77 0.002969
97 0.00403
100 0.003017
93 0.003001
95 0.002995
106 0.000997
124 0.002036
140 0.002992
147 0.003936
161 0.00396
166 0.004025
121 0.004743
64 0.004986
66 0.004987
85 0.004984
103 0.004998
106 0.004979
99 0.004985
98 0.005993
111 0.005996
125 0.006014
136 0.005979
144 0.005987
154 0.004968
164 0.006015
134 0.007003
87 0.006987
62 0.006946
79 0.004986
96 0.007979
115 0.004981
111 0.007022
102 0.001947
111 0.002991
121 0.001995
136 0.000997
146 0.0
154 0.0
169 0.0
145 0.002992
87 0.0
64 0.0
85 0.000966
101 0.001965
119 0.002047
111 0.004025
106 0.00499
116 0.004991
129 0.004977
141 0.00502
152 0.005804
157 0.006937
167 0.007976
127 0.002989
76 0.00599
52 0.002978
74 0.003173
87 0.002988
101 0.0
91 0.0
92 0.0
105 0.000956
119 0.003026
130 0.0
138 0.0
147 0.0
155 0.000879
89 0.001005
52 0.000965
49 0.000997
67 0.001001
85 0.001
93 0.001002
87 0.000999
88 0.000997
102 0.001994
113 0.001993
129 0.002028
142 0.002993
150 0.003012
147 0.005989
102 0.006025
51 0.005936
54 0.005995
67 0.005986
89 0.005977
93 0.004987
