136 0.025956
136 0.006959
141 0.006025
143 0.007035
148 0.006982
153 0.005984
158 0.005981
155 0.006016
114 0.007012
64 0.007031
33 0.005982
35 0.005984
52 0.006031
83 0.007025
99 0.006992
110 0.006981
103 0.006978
94 0.006035
91 0.006982
96 0.007015
112 0.006982
126 0.006982
137 0.005984
143 0.006015
147 0.006035
150 0.006981
151 0.006982
155 0.006038
157 0.006981
161 0.006981
168 0.006019
162 0.005985
114 0.00698
56 0.00799
44 0.006025
56 0.00698
78 0.006981
107 0.007974
118 0.006925
125 0.006981
107 0.006981
94 0.006982
91 0.007026
99 0.007979
119 0.007979
132 0.007991
139 0.007979
147 0.006981
150 0.006981
152 0.007978
153 0.007979
156 0.00695
161 0.007979
165 0.00695
147 0.006931
112 0.007017
63 0.006981
36 0.007944
44 0.00798
65 0.007979
84 0.007979
101 0.004995
107 0.007984
104 0.007979
92 0.007963
94 0.007974
105 0.007024
117 0.006982
129 0.007978
141 0.00798
146 0.007014
151 0.007026
155 0.007017
158 0.007018
160 0.007711
162 0.007978
170 0.007978
179 0.007024
168 0.007024
111 0.007022
63 0.007018
42 0.007024
46 0.007024
73 0.006982
84 0.007978
93 0.007977
105 0.007974
107 0.007979
97 0.007979
94 0.006982
103 0.00702
115 0.006985
128 0.006851
137 0.006972
144 0.007018
151 0.007015
153 0.006983
155 0.006983
156 0.007026
159 0.007025
166 0.005984
170 0.005984
142 0.006071
87 0.006992
50 0.00595
40 0.006986
51 0.006986
81 0.006954
96 0.006987
108 0.00692
113 0.006971
108 0.006981
96 0.006987
98 0.005982
113 0.005984
126 0.005991
137 0.005958
145 0.00595
151 0.005985
155 0.007017
158 0.005984
161 0.005984
163 0.006013
164 0.006024
169 0.006978
174 0.006952
164 0.006939
109 0.006983
59 0.006951
35 0.005985
38 0.005946
63 0.00595
80 0.00595
91 0.006941
99 0.006988
100 0.005027
93 0.007043
92 0.005984
96 0.005984
110 0.00608
123 0.005958
135 0.005954
143 0.005952
147 0.005944
153 0.005953
157 0.005983
159 0.005018
161 0.005982
166 0.00595
169 0.004955
174 0.005002
182 0.006003
170 0.005953
112 0.004954
62 0.004987
39 0.006015
49 0.00603
70 0.005984
91 0.005955
105 0.004986
115 0.004987
110 0.005985
102 0.00604
101 0.005975
109 0.005021
121 0.005041
134 0.006024
146 0.006017
155 0.005025
160 0.005021
164 0.005028
167 0.004981
172 0.005085
174 0.00502
176 0.005014
181 0.005028
185 0.004989
192 0.005018
192 0.004986
150 0.004976
72 0.004021
48 0.005018
51 0.004989
72 0.003973
114 0.004006
129 0.005004
134 0.004987
120 0.005011
105 0.004998
99 0.004986
106 0.005019
121 0.004986
139 0.00495
150 0.00502
156 0.004034
160 0.004034
164 0.00402
166 0.003991
167 0.005018
170 0.005021
174 0.004021
181 0.005019
180 0.005026
139 0.005019
65 0.004017
41 0.004021
43 0.003989
63 0.003989
102 0.003984
117 0.003991
123 0.00399
118 0.003978
111 0.0
128 0.002951
144 0.003951
150 0.004015
156 0.004021
160 0.00399
162 0.004021
164 0.003991
166 0.003991
171 0.003939
175 0.004021
168 0.004027
116 0.004076
61 0.004031
29 0.003035
36 0.003023
57 0.002993
91 0.003025
104 0.002993
108 0.002993
104 0.003991
94 0.002992
91 0.002994
97 0.002961
109 0.002993
123 0.002993
137 0.003991
145 0.002954
151 0.00295
158 0.003992
160 0.002993
162 0.002994
165 0.00298
172 0.003026
174 0.002994
144 0.002992
84 0.002993
46 0.002992
37 0.003037
54 0.003035
79 0.002992
110 0.002993
117 0.002994
114 0.002992
104 0.002992
93 0.002994
97 0.002993
109 0.002998
124 0.001995
135 0.002993
145 0.003004
149 0.001995
152 0.001995
155 0.002963
158 0.002957
162 0.00296
166 0.002953
127 0.002953
74 0.003039
44 0.002992
38 0.002994
53 0.001995
87 0.003004
107 0.001995
119 0.002026
110 0.001995
95 0.002026
89 0.001995
93 0.002
110 0.001996
125 0.001994
135 0.002002
142 0.001994
146 0.001995
149 0.001949
152 0.001995
156 0.001995
162 0.001995
143 0.001995
88 0.001985
47 0.000998
31 0.000999
46 0.000996
67 0.002016
82 0.000998
94 0.000997
100 0.000998
94 0.00097
87 0.000999
88 0.000992
98 0.001996
110 0.002028
122 0.001995
133 0.001988
142 0.001995
145 0.001995
148 0.001012
151 0.001951
155 0.001035
161 0.000998
158 0.000997
81 0.000999
42 0.000998
30 0.000997
41 0.000997
60 0.000995
77 0.0
87 0.000998
93 0.000998
94 0.000997
89 0.0
88 0.0
94 0.000998
113 0.001001
125 0.000979
135 0.00101
143 0.000997
149 0.000998
153 0.000997
156 0.000997
158 0.0
162 0.000963
167 0.0
172 0.001006
141 0.001
57 0.000997
39 0.000997
46 0.000998
66 0.000997
86 0.000988
103 0.000998
109 0.0
107 0.0
98 0.0
93 0.0
99 0.0
110 0.0
133 0.0
143 0.000997
150 0.0
154 0.0
157 0.000999
159 0.0
162 0.0
165 0.000997
170 0.0
175 0.0
158 0.0
85 0.0
46 0.0
53 0.0
68 0.000997
115 0.0
124 0.0
115 0.0
103 0.001006
99 0.0
106 0.0
120 0.0
135 0.000997
152 0.0
159 0.0
162 0.0
166 0.0
168 0.0
170 0.0
172 0.000998
177 0.001044
183 0.0
165 0.0
106 0.0
58 0.000999
38 0.0
54 0.000997
76 0.000998
96 0.0
104 0.0
106 0.0
103 0.000999
98 0.000997
98 0.0
106 0.000998
120 0.000998
133 0.001147
148 0.000988
157 0.001028
163 0.001047
167 0.001014
170 0.0
173 0.0
177 0.000966
184 0.001027
186 0.001007
139 0.0
81 0.0
49 0.001007
55 0.000985
78 0.002028
102 0.001993
122 0.001026
127 0.001061
123 0.001005
114 0.001998
107 0.00103
112 0.001045
126 0.001039
142 0.00099
154 0.00094
167 0.000969
173 0.001024
177 0.001995
178 0.002033
180 0.000997
185 0.000997
189 0.001992
193 0.00202
157 0.001032
95 0.00103
58 0.001042
50 0.000998
84 0.000998
113 0.001022
135 0.001995
148 0.002049
138 0.002031
119 0.002028
107 0.002039
108 0.002997
121 0.002992
139 0.002027
154 0.002031
164 0.002042
172 0.002036
176 0.000935
177 0.002026
180 0.002992
187 0.001049
189 0.00104
160 0.001347
95 0.001995
53 0.002992
39 0.001195
50 0.002001
74 0.002026
111 0.002038
126 0.001032
123 0.003028
113 0.00303
102 0.002021
103 0.002005
114 0.002027
129 0.00303
143 0.003032
157 0.002044
164 0.002045
168 0.002031
172 0.002042
174 0.002036
179 0.002987
183 0.002992
171 0.003023
91 0.002025
59 0.002983
33 0.002986
43 0.002992
77 0.00201
98 0.001986
112 0.001966
119 0.002043
111 0.003028
103 0.004023
103 0.003989
113 0.003023
123 0.003024
139 0.003024
156 0.002992
165 0.003044
171 0.003027
175 0.003031
178 0.003023
185 0.003038
190 0.002996
165 0.003024
101 0.004025
50 0.002994
46 0.002995
63 0.003025
92 0.004023
119 0.004026
141 0.002992
142 0.003039
130 0.003027
109 0.003036
112 0.003042
124 0.004026
140 0.004036
153 0.003989
164 0.004026
172 0.003039
174 0.004016
177 0.004034
181 0.003987
185 0.003997
176 0.003994
69 0.003024
46 0.003037
51 0.004006
73 0.003985
103 0.004035
135 0.00402
146 0.004028
139 0.004027
121 0.004993
108 0.00402
107 0.004031
124 0.003008
145 0.004038
160 0.003033
166 0.00298
170 0.004987
173 0.005032
179 0.003993
183 0.003981
177 0.003975
122 0.005018
66 0.005
34 0.003939
43 0.004028
84 0.004028
104 0.004029
119 0.004016
122 0.005975
115 0.005985
101 0.005023
98 0.00501
103 0.005022
121 0.004984
136 0.004981
151 0.003984
158 0.003981
165 0.00403
168 0.004032
173 0.004029
178 0.006016
168 0.005984
90 0.005024
48 0.005016
35 0.00502
47 0.005963
71 0.005983
101 0.00498
115 0.004984
121 0.005018
115 0.004988
105 0.00404
105 0.005984
114 0.005034
133 0.003992
147 0.005047
157 0.005023
164 0.005989
170 0.005992
173 0.00498
177 0.005006
186 0.005028
184 0.005018
140 0.005029
81 0.005985
49 0.006986
47 0.005984
67 0.006018
104 0.00496
125 0.004975
138 0.005981
136 0.005985
117 0.004996
104 0.006036
108 0.006015
121 0.006015
138 0.006015
153 0.006017
161 0.006016
165 0.00602
168 0.004971
172 0.00498
177 0.005982
181 0.005996
144 0.005985
70 0.007021
44 0.006014
54 0.006015
80 0.006008
106 0.00602
128 0.006012
138 0.005866
132 0.005985
113 0.005017
106 0.005986
109 0.005969
128 0.00599
147 0.006981
160 0.006014
166 0.006019
169 0.006025
173 0.006982
175 0.006981
181 0.006034
184 0.00503
174 0.00702
93 0.006981
49 0.006981
36 0.005965
62 0.007011
93 0.005981
109 0.006027
118 0.005974
117 0.007978
108 0.006934
101 0.007011
101 0.006976
113 0.005983
128 0.006984
146 0.007978
155 0.006982
164 0.007979
168 0.00698
173 0.006974
178 0.007008
183 0.006979
162 0.00797
100 0.007012
56 0.006994
41 0.007619
51 0.007969
78 0.007931
110 0.006966
130 0.007978
131 0.00697
120 0.007016
110 0.007012
111 0.00703
117 0.007978
138 0.007017
151 0.005973
159 0.007937
170 0.007977
174 0.007982
178 0.007974
185 0.007979
189 0.007979
179 0.007017
119 0.007013
59 0.00698
48 0.008029
55 0.007979
89 0.006986
120 0.006983
146 0.007011
150 0.00801
142 0.007975
113 0.007978
109 0.007978
122 0.007
138 0.006987
159 0.007031
167 0.007032
173 0.006982
178 0.007009
181 0.007028
186 0.006985
191 0.006989
171 0.006959
72 0.007022
44 0.007014
52 0.00697
79 0.007016
108 0.007019
133 0.006949
146 0.005982
137 0.007016
119 0.007024
109 0.006998
111 0.007006
123 0.005984
150 0.005948
161 0.007974
169 0.006017
176 0.006986
178 0.007001
180 0.007021
184 0.007026
190 0.006981
183 0.006981
125 0.006982
64 0.007012
33 0.007013
46 0.006019
75 0.005984
108 0.005984
123 0.005985
127 0.006019
119 0.006025
107 0.006025
100 0.006016
107 0.005985
121 0.006982
136 0.007022
150 0.005026
164 0.006014
168 0.005984
172 0.005986
176 0.005987
181 0.006037
187 0.005989
168 0.005971
82 0.00597
43 0.006009
33 0.00499
48 0.006015
77 0.00603
119 0.005985
134 0.006027
132 0.005995
115 0.005951
104 0.006028
104 0.005991
115 0.006025
132 0.006035
152 0.005027
162 0.006017
169 0.00503
173 0.005989
179 0.005984
183 0.00597
188 0.005995
171 0.006018
105 0.006032
56 0.005984
39 0.005983
50 0.005029
87 0.005034
118 0.005019
140 0.005
147 0.004989
123 0.005026
106 0.005021
101 0.005019
117 0.005026
133 0.004989
148 0.004025
159 0.006015
166 0.005966
170 0.005016
173 0.004952
178 0.004022
182 0.005024
119 0.004989
61 0.004987
36 0.004984
44 0.004991
71 0.005016
101 0.005029
124 0.004992
136 0.005032
126 0.005028
110 0.004952
99 0.004951
101 0.003957
125 0.003935
141 0.003955
152 0.00403
161 0.004029
165 0.004019
168 0.003999
171 0.003936
175 0.005026
177 0.005016
133 0.004976
71 0.004033
35 0.004022
38 0.004026
63 0.003992
89 0.003994
111 0.003988
117 0.004047
112 0.004016
100 0.004036
92 0.00399
99 0.004032
111 0.003991
126 0.004026
140 0.004075
153 0.004027
158 0.003948
161 0.004024
164 0.003999
172 0.003991
172 0.004032
135 0.004019
76 0.004026
43 0.004012
40 0.00404
61 0.003952
87 0.004025
119 0.004003
124 0.004015
116 0.00399
103 0.004015
96 0.004031
103 0.003035
117 0.002993
133 0.002993
146 0.002994
157 0.004026
162 0.002992
165 0.00303
170 0.003992
176 0.003027
179 0.00399
157 0.003999
80 0.003028
48 0.002996
45 0.003038
62 0.002992
89 0.002988
121 0.002993
136 0.002993
132 0.002985
104 0.002984
95 0.002991
100 0.004035
115 0.002994
137 0.003004
149 0.00298
157 0.003023
161 0.002992
163 0.001987
168 0.002994
173 0.003004
176 0.002994
120 0.002993
68 0.002992
41 0.002992
44 0.003012
72 0.002998
99 0.002992
119 0.002992
130 0.002029
125 0.001995
106 0.002993
98 0.001994
102 0.002993
124 0.001996
139 0.001995
151 0.002001
158 0.002993
164 0.00303
167 0.002951
168 0.002982
171 0.002997
176 0.002992
179 0.002995
140 0.002003
78 0.002007
33 0.001994
43 0.002027
65 0.001988
86 0.001993
106 0.002001
112 0.002025
109 0.001995
101 0.001996
96 0.002021
99 0.001011
114 0.000997
130 0.000998
152 0.002033
160 0.001999
165 0.001999
168 0.001995
171 0.002064
176 0.001995
182 0.002029
184 0.001999
153 0.002037
89 0.001008
45 0.000997
46 0.001006
83 0.001996
106 0.00203
122 0.001995
130 0.002047
124 0.001995
106 0.002035
102 0.000998
108 0.002004
122 0.000998
138 0.000997
156 0.000963
163 0.000997
170 0.000997
171 0.001003
173 0.000997
178 0.002037
183 0.000997
173 0.000998
115 0.000997
65 0.000967
45 0.001029
52 0.000996
87 0.000998
113 0.000998
141 0.000998
138 0.000999
123 0.000988
110 0.000998
108 0.001997
122 0.000999
140 0.0
155 0.0
166 0.0
173 0.000952
178 0.000997
180 0.001004
184 0.001001
190 0.000997
194 0.000998
171 0.000987
103 0.001002
46 0.0
38 0.0
55 0.0
83 0.0
106 0.0
125 0.0
128 0.0
112 0.0
105 0.0
107 0.0
118 0.0
133 0.0
153 0.0
163 0.0
170 0.0
175 0.0
178 0.0
183 0.000997
189 0.0
191 0.0
142 0.0
78 0.0
44 0.0
42 0.0
63 0.0
100 0.0
122 0.0
135 0.0
135 0.001009
124 0.0
110 0.000994
116 0.0
131 0.000998
146 0.000997
164 0.0
172 0.001021
176 0.0
179 0.0
184 0.0
189 0.0
195 0.0
175 0.0
109 0.000997
46 0.0
48 0.000988
72 0.000998
114 0.0
137 0.0
149 0.0
143 0.000997
124 0.000998
107 0.0
111 0.0
125 0.0
142 0.000999
164 0.0
171 0.000998
176 0.000998
178 0.000998
182 0.000998
188 0.001002
190 0.001021
153 0.001996
67 0.000999
36 0.000991
36 0.0
58 0.001029
106 0.000998
126 0.000998
135 0.001008
122 0.0
108 0.000968
101 0.000992
107 0.001027
120 0.002044
143 0.000952
156 0.000999
164 0.000999
169 0.001996
175 0.000997
177 0.002027
179 0.001996
186 0.0
190 0.0
165 0.000997
93 0.001999
42 0.002025
25 0.002035
42 0.0
72 0.000953
97 0.001995
119 0.000992
117 0.001994
106 0.001995
96 0.001996
98 0.000998
109 0.00104
124 0.001027
140 0.001995
153 0.002025
163 0.00103
168 0.002029
172 0.001995
177 0.002005
180 0.002023
186 0.003026
191 0.002029
146 0.000965
77 0.000995
38 0.001025
32 0.002034
50 0.002034
91 0.002003
115 0.001964
130 0.001998
125 0.002026
111 0.002032
102 0.002993
106 0.003043
124 0.001995
141 0.002025
155 0.002031
165 0.00299
172 0.003028
178 0.002039
180 0.001954
182 0.002003
188 0.002033
194 0.002033
199 0.003042
170 0.003022
77 0.002025
41 0.002046
38 0.001997
60 0.002991
92 0.003005
130 0.00203
146 0.002981
143 0.002008
113 0.002987
103 0.001984
108 0.002992
122 0.003022
146 0.003025
160 0.002989
169 0.001995
174 0.003026
178 0.002981
181 0.002001
183 0.001987
187 0.002025
194 0.002031
161 0.003033
87 0.003985
39 0.003989
28 0.003028
48 0.002985
80 0.003025
107 0.003992
126 0.004
129 0.002018
117 0.002993
104 0.001994
102 0.003028
115 0.002977
131 0.004022
146 0.004023
161 0.003027
168 0.002991
172 0.001994
175 0.005006
178 0.004987
181 0.003991
187 0.002991
192 0.002981
150 0.003978
57 0.003018
25 0.003021
26 0.003991
51 0.003988
91 0.002991
114 0.002997
127 0.002995
126 0.003995
114 0.004984
100 0.003012
99 0.004029
121 0.004045
137 0.003989
151 0.003987
163 0.004989
170 0.004987
175 0.003992
178 0.003989
181 0.004002
187 0.00399
192 0.00399
163 0.002988
91 0.00299
30 0.003992
37 0.003993
65 0.004024
99 0.004984
123 0.004983
142 0.003997
134 0.003994
116 0.004022
101 0.004971
100 0.00499
116 0.003986
133 0.003979
155 0.004016
162 0.005015
166 0.005001
169 0.005983
173 0.005989
182 0.004031
177 0.003976
124 0.003986
61 0.004993
30 0.004993
35 0.003992
65 0.003984
115 0.005022
135 0.003978
138 0.004979
125 0.005989
108 0.005988
99 0.003979
108 0.003983
125 0.003988
142 0.004987
155 0.004996
167 0.003982
172 0.003992
177 0.005043
181 0.004996
187 0.004981
182 0.00598
128 0.005979
42 0.004985
18 0.004946
24 0.004988
51 0.005983
79 0.005981
104 0.004983
114 0.005007
109 0.006989
96 0.004963
92 0.004976
98 0.00497
113 0.005986
128 0.006979
145 0.004997
155 0.005969
161 0.005982
165 0.006983
169 0.005974
177 0.004989
179 0.00605
115 0.004991
52 0.004975
24 0.004986
26 0.006949
49 0.006867
87 0.005994
106 0.005992
118 0.005973
118 0.006965
110 0.006984
100 0.005988
108 0.006982
126 0.006014
143 0.004992
157 0.005995
164 0.006972
167 0.006974
169 0.005994
170 0.005976
174 0.005977
182 0.006973
187 0.006981
136 0.005968
54 0.006981
30 0.005972
46 0.005971
77 0.006993
106 0.00794
128 0.007027
136 0.005985
121 0.005982
104 0.005984
97 0.006984
103 0.006992
124 0.005986
146 0.007014
161 0.006003
167 0.006975
169 0.006979
172 0.007943
178 0.007917
185 0.006962
172 0.005979
109 0.007006
38 0.007969
26 0.007985
39 0.005973
77 0.007012
108 0.00698
122 0.006983
121 0.007
112 0.00794
101 0.007943
99 0.006978
109 0.007002
124 0.006995
139 0.007945
151 0.007941
163 0.006974
168 0.007946
173 0.006903
177 0.00702
181 0.006985
185 0.00698
166 0.007947
96 0.007938
30 0.006974
21 0.006986
46 0.00698
75 0.006976
96 0.006975
116 0.007016
116 0.007946
105 0.006982
99 0.006988
100 0.006983
110 0.007944
125 0.007944
150 0.006968
162 0.007014
169 0.007018
174 0.007013
177 0.006979
183 0.007012
188 0.006977
194 0.00793
157 0.006976
108 0.006968
52 0.007964
33 0.007016
60 0.007016
93 0.00702
119 0.007017
138 0.007014
139 0.007009
117 0.007023
106 0.007016
108 0.007027
122 0.007021
138 0.006982
154 0.006023
164 0.00602
172 0.006026
175 0.006022
177 0.005989
181 0.007015
188 0.007013
168 0.007022
101 0.007031
39 0.006981
33 0.006024
53 0.006019
86 0.006029
117 0.00603
146 0.006024
147 0.006016
132 0.006014
113 0.006018
106 0.006015
123 0.006025
141 0.005986
162 0.007013
172 0.007015
179 0.006014
182 0.006025
184 0.005984
190 0.006081
195 0.005976
197 0.006017
152 0.006013
75 0.006016
22 0.005976
32 0.005979
71 0.006024
100 0.006016
121 0.005987
129 0.006024
125 0.005981
112 0.005987
100 0.005943
103 0.006018
117 0.006014
132 0.005979
155 0.005029
164 0.004987
171 0.005005
176 0.005027
179 0.005017
183 0.004986
189 0.005986
188 0.006021
115 0.006018
48 0.005986
19 0.005978
21 0.006025
66 0.005972
94 0.005019
114 0.005028
123 0.004989
116 0.004985
104 0.005027
98 0.005019
101 0.005013
120 0.004975
136 0.005017
150 0.004988
162 0.004986
173 0.005022
178 0.004023
182 0.003977
188 0.004025
195 0.004032
186 0.004036
123 0.005021
56 0.005031
26 0.005023
37 0.005021
68 0.00503
101 0.005024
140 0.005035
144 0.004987
130 0.004029
107 0.004032
104 0.004016
112 0.00399
127 0.004029
144 0.004035
161 0.004026
168 0.004045
172 0.004019
176 0.004025
185 0.004027
189 0.004041
169 0.005025
79 0.005017
37 0.004031
28 0.003962
47 0.00399
81 0.00399
123 0.003991
146 0.004086
149 0.004059
134 0.003991
106 0.004025
107 0.003975
119 0.00402
142 0.004021
158 0.004021
168 0.003933
175 0.004015
180 0.004041
182 0.004044
188 0.00399
194 0.004023
178 0.002989
60 0.002994
21 0.002998
16 0.002992
36 0.002992
79 0.004002
105 0.002998
122 0.004022
124 0.003991
113 0.002993
95 0.004042
93 0.002994
101 0.002996
127 0.003023
142 0.002982
153 0.002956
161 0.003027
166 0.003027
171 0.003025
177 0.003036
180 0.002993
151 0.00296
61 0.002995
24 0.002988
18 0.002992
58 0.002994
90 0.002993
116 0.002992
128 0.003021
121 0.003038
107 0.003009
95 0.00399
96 0.002992
109 0.00201
132 0.003
146 0.002031
158 0.002992
168 0.003024
172 0.002988
176 0.002992
182 0.002992
185 0.003055
141 0.003032
71 0.003026
30 0.003026
24 0.001995
54 0.00186
90 0.001996
119 0.001995
141 0.001995
129 0.001994
108 0.001996
95 0.001995
101 0.001995
116 0.001954
133 0.001969
148 0.001995
158 0.001995
165 0.002996
168 0.001996
172 0.001995
181 0.001995
182 0.000997
140 0.001995
71 0.001995
27 0.001996
30 0.001996
55 0.001013
91 0.001029
120 0.000997
143 0.001017
137 0.000998
117 0.001032
97 0.001028
103 0.000997
118 0.002003
136 0.00204
152 0.001995
165 0.001996
171 0.002027
174 0.002
177 0.001995
180 0.002002
187 0.000999
188 0.00203
96 0.000957
39 0.001995
18 0.001995
27 0.001964
54 0.000996
93 0.000967
114 0.000998
123 0.000995
118 0.000997
105 0.001026
93 0.00099
96 0.000997
119 0.001003
136 0.000998
150 0.001
159 0.000997
165 0.001995
171 0.000998
174 0.000998
178 0.000998
183 0.000998
188 0.000998
141 0.000998
69 0.000997
18 0.000998
28 0.000997
55 0.000991
84 0.000998
105 0.000997
121 0.000998
117 0.000997
106 0.0
96 0.0
98 0.0
113 0.0
130 0.0
154 0.000966
164 0.0
171 0.000986
174 0.000997
179 0.0
183 0.0
186 0.0
192 0.0
192 0.0
143 0.0
52 0.0
26 0.0
44 0.0
76 0.001001
104 0.0
126 0.0
134 0.0
121 0.0
107 0.0
101 0.0
106 0.0
120 0.0
142 0.001006
156 0.001043
170 0.000997
175 0.002037
179 0.00104
182 0.0
184 0.0
188 0.0
194 0.001042
201 0.00104
161 0.0
86 0.0
40 0.0
30 0.000997
68 0.0
102 0.002032
128 0.001005
145 0.000998
139 0.000998
113 0.0
99 0.001024
98 0.002043
116 0.0
135 0.0
151 0.0
161 0.001049
170 0.0
173 0.000981
176 0.000994
178 0.0
184 0.0
189 0.0
170 0.000961
101 0.000997
35 0.0
25 0.0
39 0.0
71 0.001029
119 0.0
135 0.000998
132 0.00103
111 0.0
99 0.0
97 0.0
109 0.002001
125 0.002002
147 0.0
158 0.0
166 0.0
170 0.001995
174 0.001005
177 0.001028
180 0.001033
187 0.001
190 0.001001
162 0.000994
87 0.001041
35 0.000957
18 0.000997
34 0.001004
62 0.000957
88 0.001997
112 0.001001
112 0.001995
103 0.002028
93 0.000997
94 0.00203
104 0.001009
120 0.002027
138 0.001995
155 0.001004
164 0.001031
170 0.002042
173 0.001995
176 0.000967
179 0.002025
184 0.002013
183 0.000981
136 0.001043
72 0.002037
38 0.002999
33 0.002985
50 0.002994
90 0.000989
115 0.001006
132 0.000996
124 0.000999
107 0.000996
95 0.003025
99 0.003026
117 0.000972
135 0.001007
151 0.001015
161 0.002032
166 0.003023
170 0.000992
173 0.001008
177 0.000997
185 0.001987
170 0.001994
106 0.003026
52 0.002987
26 0.002008
38 0.002027
64 0.001995
91 0.002988
112 0.003032
124 0.001996
115 0.002034
101 0.00204
93 0.001991
102 0.001991
117 0.004033
134 0.004024
152 0.001961
159 0.001989
163 0.001987
166 0.003034
169 0.003017
175 0.00204
181 0.001987
172 0.002997
72 0.003007
34 0.002003
23 0.004026
37 0.004024
73 0.001964
95 0.002026
110 0.001997
115 0.004021
108 0.004019
93 0.001993
91 0.001996
99 0.002003
123 0.002986
138 0.003033
150 0.003991
157 0.003995
164 0.002989
167 0.003025
171 0.002986
175 0.003984
180 0.003979
177 0.003025
124 0.003025
65 0.002015
29 0.002002
43 0.002993
70 0.004972
97 0.003981
121 0.002992
126 0.002992
116 0.002984
102 0.003052
94 0.003993
98 0.003989
118 0.002999
135 0.002992
156 0.003027
164 0.002964
170 0.004034
173 0.004986
175 0.004987
179 0.002987
184 0.00295
190 0.002992
185 0.005004
132 0.005035
58 0.003022
37 0.003011
60 0.00399
91 0.002993
120 0.004006
140 0.004946
141 0.004254
119 0.003021
100 0.003991
96 0.003012
105 0.003993
122 0.004951
146 0.002996
160 0.003992
171 0.003984
175 0.003989
177 0.002992
179 0.00499
183 0.005995
190 0.003992
178 0.004019
114 0.003991
59 0.00498
34 0.004987
43 0.003995
70 0.003981
117 0.004997
135 0.004993
135 0.003979
121 0.00599
105 0.005989
98 0.00498
107 0.003985
124 0.004024
143 0.005985
157 0.005985
170 0.003984
176 0.004037
180 0.003985
182 0.003991
185 0.003989
190 0.004988
195 0.005982
155 0.005035
84 0.004989
40 0.004981
27 0.005983
41 0.005997
79 0.005015
104 0.004988
128 0.004982
123 0.004978
110 0.004985
98 0.005986
97 0.005978
110 0.004987
127 0.004987
144 0.003993
157 0.005988
166 0.005984
172 0.006982
177 0.005024
180 0.00699
184 0.004984
191 0.004993
195 0.004983
163 0.005964
90 0.005984
36 0.004986
30 0.004986
49 0.004986
80 0.005989
109 0.005985
133 0.005985
131 0.00695
110 0.004983
99 0.004973
100 0.004977
113 0.006015
131 0.007009
154 0.004987
166 0.005009
174 0.004984
177 0.006012
180 0.006981
181 0.005995
187 0.006973
192 0.005985
165 0.005983
96 0.00501
49 0.006984
34 0.006984
54 0.005967
86 0.004993
118 0.004985
143 0.007979
149 0.007978
128 0.00598
102 0.007981
101 0.00594
115 0.005979
134 0.005971
152 0.006962
165 0.006987
172 0.005985
176 0.005975
179 0.005987
183 0.00794
187 0.007979
165 0.007031
75 0.007975
30 0.006987
31 0.005983
53 0.005985
85 0.007942
114 0.007978
137 0.006014
133 0.006013
114 0.006941
94 0.007002
92 0.006982
107 0.006982
131 0.00697
152 0.006941
161 0.006951
166 0.006987
170 0.007943
173 0.00794
181 0.006983
180 0.006979
132 0.006969
65 0.007978
24 0.007995
27 0.006981
70 0.007971
95 0.006999
114 0.007034
121 0.007003
113 0.006981
97 0.007949
89 0.008009
95 0.006963
108 0.007012
130 0.006962
143 0.007026
151 0.007017
162 0.007017
168 0.007012
172 0.00699
154 0.00697
91 0.006984
42 0.007948
23 0.007014
47 0.006985
74 0.00702
96 0.007024
112 0.007016
116 0.007015
98 0.007015
91 0.006982
94 0.006964
109 0.006976
125 0.006981
139 0.007014
150 0.006018
162 0.007035
169 0.007014
169 0.007012
129 0.007016
72 0.007018
33 0.007032
45 0.007019
78 0.006959
103 0.006968
123 0.006983
131 0.007031
121 0.006099
104 0.005985
101 0.005986
109 0.006016
124 0.006023
141 0.006569
161 0.007014
168 0.007014
179 0.005966
185 0.006985
173 0.00602
113 0.006019
64 0.006012
44 0.005972
58 0.00602
85 0.007016
113 0.006986
136 0.006953
136 0.00695
117 0.00702
101 0.007027
105 0.007017
118 0.006981
135 0.00602
151 0.006017
162 0.006019
169 0.006047
175 0.005984
182 0.006017
180 0.006021
93 0.006028
51 0.006045
43 0.006028
62 0.006015
90 0.005053
114 0.00502
134 0.005033
133 0.005068
118 0.004986
106 0.00498
105 0.005028
113 0.004981
141 0.005051
156 0.004994
166 0.005026
172 0.00502
176 0.005018
180 0.004987
184 0.005996
188 0.005006
151 0.006026
85 0.005024
43 0.005014
33 0.006018
65 0.006016
89 0.005025
106 0.005028
117 0.005028
114 0.005021
105 0.005018
99 0.005018
101 0.004987
116 0.005019
131 0.005024
146 0.005105
158 0.005018
169 0.004027
173 0.004025
176 0.003987
184 0.004
190 0.00405
182 0.004021
123 0.00399
68 0.003955
39 0.003948
49 0.003991
75 0.004938
101 0.003988
130 0.004977
132 0.005025
123 0.005034
109 0.005025
109 0.004995
118 0.004987
133 0.00502
152 0.004028
170 0.004053
180 0.004039
187 0.003991
190 0.003991
194 0.004022
197 0.004021
202 0.004003
207 0.003999
165 0.003986
96 0.003991
56 0.003991
49 0.005028
75 0.005029
109 0.003992
138 0.003991
158 0.003989
149 0.00399
126 0.004018
113 0.004016
118 0.004021
134 0.004051
154 0.003989
170 0.003035
181 0.002921
186 0.002994
190 0.002972
192 0.002964
196 0.003991
205 0.004032
199 0.00405
138 0.004039
76 0.004028
43 0.003953
53 0.003991
82 0.003022
116 0.002941
146 0.002994
167 0.002993
155 0.004008
132 0.00399
113 0.002992
122 0.003054
140 0.003024
159 0.003023
179 0.00405
188 0.003025
193 0.003992
196 0.004049
199 0.002026
204 0.003004
209 0.00299
202 0.00305
136 0.002994
39 0.003028
28 0.002993
42 0.003006
86 0.002993
116 0.002989
138 0.003025
146 0.002948
137 0.00299
112 0.002977
104 0.003045
110 0.002994
126 0.002992
156 0.003023
170 0.003023
181 0.002987
188 0.002028
190 0.002027
194 0.001996
199 0.001995
203 0.001996
154 0.001995
78 0.002028
36 0.001961
25 0.001952
63 0.001979
99 0.002026
129 0.001997
150 0.002046
143 0.002001
124 0.002992
109 0.002025
106 0.000998
123 0.002041
142 0.000998
159 0.002046
171 0.002031
183 0.001995
188 0.00203
192 0.002025
200 0.002026
202 0.002053
158 0.002004
82 0.002026
39 0.001016
32 0.001042
61 0.001995
99 0.001995
135 0.001001
167 0.001995
156 0.002
129 0.002029
109 0.000998
110 0.001032
125 0.000996
145 0.001008
163 0.001008
174 0.000989
182 0.001995
186 0.001962
190 0.000997
170 0.001003
98 0.000998
46 0.000998
27 0.001987
47 0.002
81 0.001047
119 0.000999
149 0.001047
160 0.000998
138 0.000995
112 0.000966
101 0.0
117 0.002026
136 0.000998
153 0.000963
166 0.000999
177 0.000998
181 0.0
187 0.000998
191 0.000994
157 0.000997
55 0.000997
17 0.000999
11 0.001001
55 0.0
88 0.0
115 0.0
129 0.0
119 0.000962
100 0.0
88 0.000998
90 0.000998
103 0.000997
128 0.0
145 0.0
156 0.0
167 0.0
172 0.0
177 0.0
158 0.0
60 0.0
16 0.0
7 0.0
23 0.000998
53 0.0
92 0.0
112 0.001001
117 0.0
97 0.001002
86 0.001036
87 0.000979
98 0.0
121 0.0
138 0.0
150 0.0
160 0.0
166 0.0
170 0.000965
177 0.00095
153 0.000998
43 0.002033
15 0.000998
24 0.0
54 0.0
86 0.0
111 0.001021
124 0.001031
116 0.0
99 0.0
89 0.0
92 0.001043
105 0.001046
136 0.000997
150 0.000998
161 0.0
166 0.0
170 0.000965
176 0.000998
182 0.001031
161 0.0
90 0.0
39 0.0
23 0.001028
37 0.000991
91 0.000989
120 0.000997
140 0.000997
135 0.000997
107 0.0
90 0.002026
91 0.00203
110 0.0
130 0.0
147 0.0
157 0.002028
163 0.00203
171 0.001031
177 0.001039
171 0.0
112 0.0
52 0.0
25 0.001037
30 0.00103
57 0.000961
99 0.000998
126 0.0
139 0.001998
130 0.001993
98 0.001984
94 0.001987
110 0.0
129 0.000998
147 0.00099
159 0.001916
167 0.002029
172 0.000999
174 0.000957
178 0.000975
183 0.001995
187 0.001995
116 0.002029
50 0.001995
15 0.0
26 0.000965
53 0.000956
80 0.00196
99 0.001995
112 0.000965
108 0.001031
96 0.001
89 0.002993
92 0.002992
116 0.002026
133 0.001995
152 0.002002
161 0.001
167 0.001995
172 0.000961
175 0.002004
179 0.001995
188 0.002
184 0.001004
133 0.001979
66 0.001995
26 0.002004
40 0.00303
68 0.003023
101 0.000997
119 0.001019
125 0.000994
118 0.002992
106 0.003006
100 0.000994
107 0.001002
123 0.001993
142 0.003029
165 0.000996
173 0.003051
177 0.003048
181 0.001978
184 0.000994
188 0.000991
195 0.003995
198 0.003985
136 0.001991
70 0.001998
38 0.00199
38 0.002994
83 0.002017
114 0.002996
137 0.003028
144 0.001964
129 0.000994
110 0.00198
103 0.003027
110 0.003037
132 0.002037
151 0.001993
165 0.003025
174 0.002992
181 0.002034
182 0.003999
184 0.00404
191 0.001994
199 0.001995
202 0.001988
168 0.00399
93 0.003993
40 0.001996
40 0.001994
62 0.002004
96 0.003025
144 0.002008
155 0.002978
144 0.003978
115 0.00298
105 0.002993
112 0.00298
128 0.003995
147 0.003992
169 0.003032
178 0.002033
183 0.001997
186 0.003989
190 0.002995
193 0.004993
198 0.004986
199 0.00299
149 0.00299
73 0.002983
31 0.002984
24 0.00416
43 0.003989
84 0.002986
111 0.002983
130 0.002986
126 0.00299
110 0.002994
98 0.003989
100 0.00497
118 0.003956
137 0.003995
153 0.002026
167 0.005021
175 0.004994
180 0.003017
183 0.002981
187 0.003022
196 0.002987
198 0.00295
162 0.004985
85 0.004952
29 0.003979
26 0.003984
47 0.00398
81 0.004987
112 0.005018
140 0.003032
142 0.002996
128 0.00402
104 0.003987
106 0.00299
119 0.004985
138 0.005982
161 0.004039
173 0.003987
182 0.003957
187 0.004994
190 0.005018
194 0.003981
199 0.003988
205 0.004
162 0.003987
83 0.002977
40 0.004984
31 0.005984
59 0.004985
97 0.003958
131 0.004149
155 0.006017
158 0.005984
132 0.003992
107 0.003988
99 0.004955
119 0.003975
140 0.004947
159 0.005979
170 0.006012
179 0.004987
183 0.003992
186 0.004982
191 0.005984
194 0.005984
140 0.004983
66 0.003983
29 0.003989
36 0.003972
69 0.003986
106 0.006982
136 0.007033
153 0.003985
139 0.00501
115 0.004988
100 0.007015
102 0.006974
116 0.006981
141 0.004988
159 0.004992
175 0.004982
180 0.004987
183 0.004992
186 0.005984
191 0.006981
183 0.005983
113 0.005999
44 0.005017
12 0.006977
13 0.00698
48 0.004987
82 0.004978
120 0.005984
124 0.004993
112 0.004995
96 0.005984
87 0.006994
95 0.005988
112 0.004982
131 0.006005
147 0.007012
159 0.007021
168 0.005009
172 0.00602
180 0.005991
185 0.005002
164 0.005005
91 0.007978
25 0.007983
15 0.005997
32 0.004105
65 0.005989
97 0.00802
122 0.007979
134 0.005971
120 0.005954
94 0.005984
94 0.005986
107 0.005982
127 0.006987
144 0.006981
162 0.006016
169 0.005985
173 0.00599
177 0.00697
184 0.006986
188 0.006009
149 0.005982
43 0.005958
24 0.005953
35 0.006024
76 0.00798
100 0.007979
138 0.005983
147 0.006977
132 0.006948
107 0.00798
92 0.007979
98 0.006015
116 0.005989
148 0.005952
160 0.006041
168 0.005979
173 0.007006
178 0.007027
184 0.006985
183 0.006981
133 0.00697
61 0.007979
19 0.007979
24 0.006965
51 0.006979
106 0.006969
130 0.007067
136 0.007032
123 0.006991
103 0.007978
92 0.007016
100 0.00601
118 0.005983
137 0.006968
157 0.006985
166 0.007029
171 0.006969
177 0.007013
183 0.006947
186 0.006009
177 0.006996
111 0.007979
32 0.006944
13 0.005984
24 0.006014
62 0.006982
89 0.007022
109 0.007016
116 0.006984
102 0.007012
89 0.006985
91 0.006982
98 0.006965
121 0.006948
138 0.005926
157 0.006949
165 0.006018
170 0.006978
173 0.006027
177 0.006026
183 0.006017
187 0.006011
128 0.006019
59 0.006943
24 0.006981
22 0.006982
45 0.006983
85 0.00695
110 0.006018
126 0.005954
126 0.006025
113 0.005996
96 0.005951
100 0.006016
120 0.005985
139 0.006947
154 0.005987
166 0.006023
173 0.005984
178 0.006952
180 0.006993
184 0.006032
188 0.006941
194 0.00599
187 0.006027
97 0.00604
37 0.005989
31 0.006036
52 0.005995
86 0.006026
117 0.006007
145 0.006033
144 0.006019
123 0.006044
103 0.005985
96 0.00603
110 0.005928
137 0.00503
159 0.005985
169 0.004985
176 0.006022
179 0.005021
181 0.005985
184 0.005954
188 0.006034
194 0.006025
193 0.006021
144 0.005982
52 0.005953
23 0.006172
35 0.005953
77 0.005981
107 0.006014
128 0.005006
135 0.005098
125 0.006018
104 0.005023
97 0.004988
104 0.004984
121 0.005017
140 0.005019
164 0.005019
173 0.004993
180 0.004986
183 0.004987
185 0.004028
187 0.004988
190 0.00402
198 0.005026
199 0.004987
155 0.005023
75 0.005
28 0.004952
27 0.005005
55 0.004957
95 0.004987
116 0.004997
127 0.005022
123 0.00499
111 0.00602
98 0.004032
102 0.004022
117 0.003989
135 0.005032
152 0.004037
173 0.004039
181 0.005034
187 0.005052
190 0.00503
192 0.004021
196 0.005019
201 0.004023
208 0.004038
184 0.003953
105 0.00399
45 0.004027
24 0.004036
54 0.004041
91 0.004
130 0.003971
147 0.003991
146 0.004034
129 0.00399
110 0.003985
106 0.004989
117 0.002992
136 0.004031
154 0.003991
169 0.004007
184 0.004007
189 0.00399
191 0.004027
194 0.004052
198 0.004003
203 0.003985
204 0.004987
134 0.003991
62 0.00399
30 0.004987
33 0.003991
59 0.004028
121 0.00303
149 0.002994
161 0.003965
145 0.004023
121 0.002864
106 0.00399
110 0.003998
126 0.004024
152 0.002991
169 0.004022
181 0.002985
188 0.002989
194 0.003002
197 0.003026
200 0.003025
207 0.004013
198 0.003028
131 0.002993
53 0.003027
18 0.004047
21 0.004018
51 0.002988
88 0.002997
117 0.002993
140 0.002985
130 0.001995
112 0.003043
97 0.002997
102 0.003005
118 0.003099
137 0.002994
154 0.003015
171 0.00297
179 0.004036
184 0.002994
188 0.002993
198 0.002992
201 0.002949
165 0.002952
60 0.003024
22 0.002993
19 0.002993
41 0.002
77 0.001995
123 0.001996
144 0.001995
148 0.002032
134 0.002026
104 0.001993
104 0.001996
117 0.002993
141 0.001996
159 0.002007
172 0.002993
179 0.002972
184 0.002033
191 0.001993
196 0.003042
190 0.002003
132 0.001989
31 0.001994
22 0.001995
39 0.001995
86 0.002046
121 0.001995
147 0.002002
153 0.001996
137 0.001996
105 0.001989
95 0.002041
104 0.002027
121 0.001989
151 0.001028
163 0.000998
171 0.000997
179 0.000997
185 0.000998
187 0.000997
147 0.000998
69 0.001979
23 0.002018
16 0.002032
40 0.000986
75 0.00103
126 0.000988
139 0.000991
131 0.001004
111 0.000997
93 0.000997
97 0.000998
111 0.000998
131 0.001028
147 0.000998
163 0.001999
169 0.001995
173 0.000997
182 0.000992
184 0.000998
150 0.001001
70 0.000965
10 0.000966
6 0.000998
28 0.000997
60 0.0
89 0.000998
115 0.000987
117 0.000981
105 0.001005
84 0.001026
87 0.0
100 0.000997
118 0.000998
140 0.0
153 0.0
161 0.0
165 0.0
168 0.0
176 0.0
180 0.0
168 0.0
54 0.000998
16 0.001
12 0.001001
32 0.0
74 0.0
100 0.0
118 0.0
119 0.0
109 0.0
91 0.0
90 0.0
100 0.0
129 0.0
145 0.0
157 0.0
164 0.0
171 0.0
175 0.0
177 0.000998
187 0.0
189 0.000998
145 0.0
72 0.002021
31 0.000997
35 0.001026
78 0.0
112 0.0
137 0.0
143 0.002037
128 0.002029
99 0.0
90 0.0
94 0.000988
115 0.0
136 0.002026
153 0.001036
167 0.001051
171 0.00203
174 0.0
178 0.0
183 0.0
181 0.002031
133 0.001995
46 0.0
22 0.0
28 0.0
55 0.002002
89 0.000998
133 0.001993
139 0.001045
121 0.0
101 0.000974
95 0.000996
103 0.002004
120 0.002041
145 0.0
159 0.0
169 0.0
174 0.002027
177 0.002008
181 0.00203
185 0.002029
193 0.0
180 0.0
111 0.0
45 0.00206
14 0.002021
22 0.0
51 0.0
81 0.0
103 0.001031
118 0.001029
109 0.001032
95 0.001029
87 0.000965
97 0.0
113 0.0
132 0.002027
148 0.002026
164 0.0
170 0.0
174 0.0
175 0.003021
179 0.002993
186 0.002993
191 0.002071
147 0.0
70 0.0
27 0.000964
16 0.002029
32 0.002031
73 0.001994
100 0.0
119 0.001996
125 0.002037
117 0.001996
96 0.001996
96 0.001995
112 0.0
132 0.002017
149 0.002013
161 0.002031
171 0.001994
178 0.001001
181 0.002002
184 0.002001
189 0.002999
194 0.003025
197 0.003024
145 0.002993
70 0.002993
27 0.001998
31 0.001992
57 0.002012
93 0.003047
125 0.002001
150 0.001995
143 0.001994
122 0.003023
101 0.002993
100 0.000997
113 0.002992
129 0.003024
149 0.002009
159 0.000992
165 0.00198
167 0.003036
169 0.00302
172 0.002003
175 0.002
159 0.002018
95 0.002992
21 0.001996
17 0.002962
37 0.003027
82 0.000987
115 0.000997
140 0.000997
144 0.002993
127 0.003026
102 0.000996
99 0.002006
110 0.002006
129 0.004025
162 0.001991
175 0.004019
182 0.003004
189 0.001996
193 0.002
199 0.001994
203 0.004023
168 0.002992
67 0.001964
32 0.001978
28 0.001997
51 0.003991
117 0.001992
150 0.003989
166 0.00399
148 0.002007
118 0.001996
97 0.001996
94 0.004009
107 0.00401
137 0.00299
156 0.002049
171 0.002043
180 0.003991
185 0.001995
188 0.004023
182 0.00399
99 0.001993
44 0.001982
21 0.001999
27 0.004987
53 0.004986
95 0.002992
123 0.00299
139 0.002991
137 0.003999
108 0.002992
100 0.00399
106 0.004018
130 0.002031
149 0.002032
164 0.002999
176 0.004982
183 0.005021
188 0.004987
197 0.002959
196 0.002993
141 0.003006
34 0.002991
15 0.003004
27 0.004987
54 0.004035
93 0.003015
117 0.002988
129 0.002981
125 0.004987
111 0.004986
99 0.002946
103 0.002987
117 0.003014
147 0.002947
162 0.002989
173 0.004986
182 0.005023
191 0.002995
197 0.003004
178 0.003993
101 0.005032
44 0.005983
21 0.003999
35 0.003994
64 0.003989
115 0.003985
136 0.002987
140 0.005007
129 0.005031
109 0.002974
107 0.003005
117 0.002986
134 0.005984
153 0.006043
173 0.003987
182 0.003971
190 0.003989
200 0.003996
205 0.004005
180 0.005019
101 0.005984
37 0.002999
29 0.004989
48 0.004992
81 0.006043
118 0.005983
154 0.00402
161 0.003988
148 0.004028
117 0.003985
115 0.003988
127 0.006015
145 0.00603
169 0.004996
182 0.003989
191 0.004968
197 0.006981
204 0.006988
213 0.00399
195 0.003989
119 0.003989
42 0.004985
42 0.003984
66 0.005984
104 0.005984
153 0.004024
176 0.003976
173 0.004034
148 0.006028
121 0.005984
114 0.00398
128 0.004985
147 0.00498
176 0.004974
186 0.004981
194 0.007015
201 0.006974
205 0.006981
160 0.004986
84 0.004979
42 0.004978
33 0.006984
50 0.005984
98 0.004986
136 0.004983
171 0.005001
160 0.005008
134 0.004991
116 0.006982
115 0.007014
135 0.004986
155 0.004954
172 0.004972
184 0.006982
192 0.006982
200 0.004986
205 0.004993
131 0.004968
57 0.005981
24 0.005978
21 0.006982
42 0.00697
89 0.005015
122 0.005956
143 0.005019
143 0.006984
124 0.007024
100 0.00498
99 0.004986
122 0.005001
142 0.005998
158 0.005984
173 0.007976
181 0.007992
187 0.00598
191 0.007978
147 0.00197
70 0.007023
26 0.00697
17 0.004986
39 0.005984
93 0.005984
122 0.005984
135 0.005985
123 0.00799
109 0.007938
93 0.005983
98 0.006953
114 0.005987
139 0.007984
155 0.007974
167 0.005986
177 0.005986
188 0.006926
185 0.006976
128 0.006988
43 0.007988
20 0.007976
25 0.006016
52 0.005977
87 0.005992
129 0.008016
142 0.007978
134 0.005983
111 0.005989
94 0.005988
103 0.005979
128 0.006978
146 0.006982
159 0.006978
170 0.006974
175 0.005943
181 0.006982
184 0.007019
141 0.007014
70 0.006944
32 0.006976
35 0.007023
77 0.006981
101 0.006992
144 0.00695
152 0.007002
133 0.006982
100 0.006949
94 0.006945
99 0.006955
123 0.006017
143 0.005983
159 0.006951
172 0.006983
179 0.006943
184 0.006984
186 0.005991
141 0.006025
69 0.007022
28 0.006933
24 0.00599
47 0.005995
80 0.006016
111 0.005984
138 0.005983
124 0.006982
98 0.006988
92 0.006946
95 0.006981
116 0.006981
134 0.006942
154 0.006936
164 0.006985
170 0.006049
175 0.007136
182 0.005985
189 0.005986
143 0.005986
52 0.006024
21 0.005986
23 0.005981
45 0.00602
76 0.007
114 0.006933
131 0.006982
127 0.005978
111 0.006011
97 0.00602
98 0.006002
117 0.005984
141 0.005941
157 0.00599
168 0.005979
174 0.006016
178 0.005021
183 0.005979
188 0.005019
194 0.005031
194 0.005025
146 0.00495
54 0.004958
23 0.005984
42 0.005943
73 0.005017
105 0.005001
129 0.005977
139 0.005973
122 0.006016
104 0.006025
98 0.005992
105 0.004964
120 0.005022
140 0.005019
166 0.005027
176 0.005023
184 0.004954
185 0.006025
189 0.005034
194 0.005021
199 0.004988
199 0.004936
147 0.005041
75 0.00499
36 0.005025
31 0.005036
73 0.004993
110 0.004988
149 0.005019
157 0.004988
143 0.004988
119 0.005023
105 0.005026
112 0.004987
130 0.004025
150 0.004025
168 0.004024
181 0.003996
191 0.004025
195 0.004038
197 0.005018
200 0.004949
207 0.00499
210 0.005042
174 0.004988
77 0.005032
42 0.004988
39 0.005026
61 0.004023
99 0.004988
160 0.005056
175 0.004039
156 0.003986
127 0.003992
110 0.004023
112 0.004036
128 0.003972
156 0.004034
173 0.004071
185 0.005057
192 0.00404
196 0.004953
201 0.004984
204 0.005039
211 0.004991
195 0.00399
118 0.003988
55 0.003991
30 0.007981
44 0.004024
76 0.003983
115 0.003956
149 0.004001
166 0.003989
143 0.003989
117 0.00503
106 0.004062
116 0.00399
135 0.003978
156 0.004032
172 0.00403
185 0.002992
191 0.002982
194 0.002992
197 0.002993
199 0.003959
206 0.004027
204 0.003986
116 0.004038
49 0.003001
22 0.004005
26 0.00394
52 0.003002
90 0.002992
134 0.003049
151 0.002993
147 0.002957
125 0.002992
98 0.003026
103 0.003027
119 0.003028
146 0.004013
164 0.002992
176 0.002993
183 0.003992
187 0.001995
192 0.003953
195 0.002994
200 0.002996
204 0.003032
120 0.003004
53 0.003008
24 0.002994
34 0.003027
65 0.003026
102 0.003026
134 0.002988
152 0.002992
142 0.003027
119 0.002034
102 0.001983
102 0.001995
128 0.001996
149 0.002
165 0.001995
179 0.002992
184 0.002991
187 0.002993
189 0.002993
193 0.001997
200 0.001994
196 0.002
135 0.001996
63 0.001995
26 0.001998
42 0.001996
76 0.001995
126 0.002026
153 0.00101
157 0.001997
139 0.001995
112 0.001043
95 0.00103
104 0.001031
123 0.001001
142 0.00199
166 0.000997
172 0.000998
175 0.000998
181 0.002002
185 0.001995
191 0.001991
182 0.001962
116 0.001996
38 0.002025
22 0.001992
34 0.00199
65 0.000998
126 0.000996
150 0.000999
151 0.000998
121 0.000996
100 0.000997
96 0.002035
106 0.000997
125 0.000998
145 0.002026
165 0.00099
173 0.000997
177 0.001968
181 0.000999
185 0.000998
191 0.002031
187 0.002026
100 0.002034
38 0.000999
11 0.000999
17 0.002021
43 0.000956
88 0.000998
114 0.000991
128 0.000984
110 0.000998
93 0.000997
85 0.002032
92 0.0
114 0.0
134 0.0
149 0.0
159 0.0
165 0.0
170 0.0
172 0.001034
178 0.000997
183 0.000997
148 0.000998
71 0.0
24 0.0
14 0.001003
34 0.0
66 0.0
96 0.0
118 0.0
121 0.0
107 0.0
92 0.0
90 0.0
104 0.0
123 0.0
141 0.0
158 0.0
165 0.000974
171 0.0
174 0.0
176 0.0
182 0.0
187 0.0
183 0.0
75 0.0
23 0.0
18 0.0
34 0.0
76 0.0
108 0.002031
134 0.0
131 0.0
121 0.0
96 0.001995
91 0.002044
105 0.0
131 0.00205
154 0.0
165 0.0
172 0.0
175 0.003071
179 0.002029
181 0.0
186 0.001014
193 0.0
187 0.000983
128 0.001044
58 0.001021
24 0.001976
42 0.001997
88 0.0
122 0.0
146 0.0
149 0.002026
129 0.002029
99 0.0
94 0.0
105 0.0
125 0.002029
146 0.002025
169 0.002031
176 0.002028
180 0.0
182 0.0
186 0.0
191 0.002033
194 0.003025
148 0.0
69 0.001026
26 0.0
17 0.002021
36 0.002024
91 0.002025
118 0.002031
135 0.0
125 0.0
106 0.0
92 0.002029
93 0.002027
113 0.000953
132 0.0
150 0.001003
162 0.003009
170 0.002994
176 0.003038
178 0.001022
183 0.0
189 0.001014
191 0.0
152 0.00204
73 0.002028
18 0.0
15 0.0
37 0.0
71 0.002026
100 0.002027
128 0.002031
122 0.001994
102 0.001036
92 0.0
95 0.0
110 0.001995
129 0.001997
151 0.000982
164 0.0
171 0.001994
175 0.001994
178 0.002025
180 0.002038
184 0.003018
193 0.0
187 0.0
128 0.001995
58 0.002992
26 0.002956
31 0.001995
59 0.0
95 0.001014
124 0.002992
141 0.003026
123 0.002992
100 0.002992
89 0.003058
99 0.001992
117 0.00205
138 0.001995
153 0.003033
162 0.003025
169 0.001995
171 0.001999
172 0.002
177 0.003994
186 0.001995
178 0.003002
114 0.002992
37 0.00199
20 0.001044
30 0.001983
58 0.003983
92 0.003024
127 0.001999
136 0.001999
125 0.001993
105 0.003022
90 0.001997
101 0.002992
120 0.002992
145 0.001998
160 0.001996
168 0.002001
172 0.003979
176 0.003991
179 0.001998
183 0.002001
188 0.001995
187 0.004005
81 0.002001
29 0.00299
11 0.003956
31 0.001994
61 0.001997
88 0.001978
111 0.004033
121 0.003989
109 0.001996
94 0.002008
87 0.001964
92 0.003977
118 0.00299
136 0.004025
152 0.004025
165 0.00104
171 0.001961
175 0.002013
179 0.004024
184 0.003992
191 0.001999
181 0.002001
113 0.002011
49 0.003996
19 0.001969
37 0.003989
69 0.004022
112 0.002993
135 0.003002
142 0.002988
131 0.004977
111 0.004012
99 0.00199
107 0.001997
122 0.001993
141 0.003976
164 0.002062
172 0.004987
178 0.005024
182 0.001993
188 0.002993
195 0.002996
195 0.004992
152 0.00498
76 0.004979
27 0.002995
27 0.003982
52 0.00199
112 0.001995
142 0.002988
153 0.004869
140 0.005035
106 0.003021
94 0.002964
99 0.002987
117 0.004979
139 0.004985
161 0.003003
171 0.00299
176 0.002991
183 0.002997
188 0.00298
191 0.004986
167 0.005017
66 0.003992
22 0.003995
13 0.002991
30 0.005987
63 0.005986
105 0.002992
128 0.003005
132 0.002998
102 0.002993
87 0.002992
87 0.004987
100 0.005984
126 0.003025
143 0.002985
156 0.00302
165 0.005983
169 0.005985
173 0.002989
178 0.003998
183 0.004006
154 0.003983
75 0.002993
24 0.00599
7 0.005972
27 0.00399
60 0.003988
91 0.003991
115 0.006015
125 0.00599
111 0.003993
95 0.004001
88 0.002989
103 0.004963
123 0.003984
142 0.006981
158 0.006982
171 0.003991
178 0.003989
181 0.003991
183 0.005962
187 0.005989
195 0.004013
198 0.00399
161 0.004916
44 0.005
20 0.00399
28 0.007033
57 0.006981
105 0.004981
134 0.005024
148 0.004949
137 0.006967
114 0.006979
95 0.003986
98 0.004018
114 0.003983
147 0.00402
162 0.004986
171 0.004996
175 0.006977
177 0.006978
180 0.00402
185 0.003993
191 0.004953
185 0.006983
124 0.007001
40 0.004989
21 0.004955
51 0.004949
89 0.004943
125 0.00498
151 0.007011
155 0.007014
127 0.004988
104 0.004993
98 0.004919
109 0.006982
129 0.005962
156 0.005016
171 0.004987
183 0.004986
186 0.005016
189 0.004983
191 0.006952
196 0.007008
200 0.004988
162 0.004972
76 0.005946
16 0.007702
11 0.007978
35 0.005984
71 0.005984
122 0.005986
138 0.005972
133 0.005985
114 0.007991
97 0.007979
94 0.004985
109 0.00498
130 0.004967
149 0.006987
163 0.00698
176 0.005996
181 0.005983
188 0.005987
193 0.005973
198 0.005981
160 0.007961
78 0.00797
27 0.005984
14 0.004979
28 0.004977
60 0.007977
97 0.007979
134 0.005985
143 0.005987
119 0.005983
101 0.00502
97 0.005987
111 0.007984
131 0.007983
151 0.005981
166 0.004985
176 0.005967
181 0.007979
188 0.007952
192 0.005016
197 0.006936
160 0.006979
104 0.006975
40 0.006974
16 0.007016
32 0.006978
66 0.00599
104 0.005985
134 0.005983
148 0.007971
141 0.007934
109 0.007936
95 0.005991
108 0.007109
128 0.006931
148 0.001994
164 0.006949
176 0.006996
181 0.007012
184 0.006953
189 0.006955
195 0.006949
182 0.007017
112 0.007019
48 0.006981
24 0.006018
57 0.005986
96 0.005965
131 0.006996
154 0.007021
150 0.007019
124 0.006937
94 0.00698
91 0.006977
107 0.007017
128 0.007017
147 0.006984
166 0.006992
171 0.006979
177 0.005981
181 0.005984
186 0.006016
170 0.006025
74 0.006017
28 0.005978
16 0.006008
32 0.006014
64 0.007014
97 0.00698
137 0.007031
128 0.006939
113 0.006979
91 0.005983
91 0.006017
103 0.006017
131 0.005978
149 0.005995
160 0.005968
167 0.006015
171 0.006018
177 0.005982
184 0.006017
169 0.005983
96 0.005972
37 0.004967
13 0.005991
19 0.005993
53 0.005984
81 0.005986
103 0.005981
115 0.005983
110 0.006012
94 0.006039
86 0.005984
99 0.005001
115 0.004986
134 0.00499
149 0.005017
160 0.00502
167 0.004988
173 0.00501
179 0.004991
185 0.005019
182 0.006022
104 0.005982
36 0.005025
22 0.005973
44 0.005979
75 0.006011
102 0.005025
125 0.005022
131 0.004982
117 0.004988
101 0.004986
97 0.004986
105 0.004979
122 0.005026
153 0.004984
166 0.005026
176 0.004979
180 0.00499
184 0.004986
190 0.00502
197 0.003941
174 0.004978
100 0.003951
50 0.004029
34 0.003959
44 0.00399
94 0.003993
124 0.004026
148 0.00396
139 0.003944
115 0.003967
97 0.005028
97 0.005076
115 0.003991
136 0.00499
156 0.005025
168 0.004945
174 0.00399
180 0.004023
186 0.004982
194 0.004042
175 0.00399
103 0.004053
49 0.004986
27 0.005035
42 0.004076
70 0.004021
100 0.003977
123 0.003991
133 0.003994
114 0.003991
99 0.004023
98 0.00405
110 0.002992
128 0.003961
148 0.003035
161 0.002991
173 0.003986
178 0.004029
181 0.003986
185 0.004028
190 0.003991
188 0.00403
127 0.00403
44 0.002963
22 0.004047
31 0.003956
56 0.00399
83 0.002994
113 0.004008
123 0.003962
118 0.003969
106 0.002952
97 0.002993
105 0.002992
121 0.004151
145 0.002992
162 0.003033
173 0.003979
180 0.003016
184 0.003023
190 0.002987
195 0.003989
201 0.003027
199 0.004047
144 0.003995
49 0.003991
35 0.002992
50 0.003004
94 0.002993
125 0.002992
149 0.002972
156 0.003025
142 0.002993
112 0.003
106 0.002992
114 0.003025
131 0.00304
163 0.00302
177 0.002988
184 0.002992
190 0.002993
192 0.002992
197 0.003988
202 0.002993
196 0.001996
110 0.002027
59 0.001996
40 0.002028
50 0.001995
101 0.001995
135 0.002992
162 0.002993
163 0.002994
139 0.003027
117 0.003022
111 0.001995
121 0.001991
148 0.002033
168 0.00204
183 0.002013
191 0.001957
198 0.001964
202 0.002028
207 0.002032
211 0.002031
180 0.002028
98 0.002008
47 0.002002
31 0.001995
51 0.001995
83 0.001957
115 0.002045
142 0.000994
148 0.002027
130 0.001979
111 0.002012
109 0.001963
122 0.002032
140 0.002029
159 0.002025
174 0.002027
186 0.002001
191 0.000998
196 0.000998
201 0.000997
193 0.000998
125 0.002041
62 0.001973
30 0.002004
39 0.002031
46 0.013962
67 0.002993
133 0.001015
154 0.000997
145 0.000998
124 0.000944
108 0.002007
115 0.000997
133 0.000997
152 0.000998
169 0.000997
184 0.002026
191 0.002002
198 0.001958
205 0.000999
200 0.001993
113 0.001041
56 0.001003
33 0.001039
55 0.000997
89 0.000999
125 0.000998
155 0.000997
162 0.001995
142 0.000997
120 0.001995
112 0.000998
118 0.000998
142 0.0
160 0.0
176 0.0
194 0.0
201 0.0
204 0.000997
166 0.000993
70 0.000966
39 0.00099
39 0.000997
62 0.000997
98 0.000997
149 0.0
171 0.0
166 0.0
121 0.001076
109 0.0
115 0.0
130 0.0
157 0.000969
174 0.0
186 0.0
195 0.0
197 0.0
121 0.000997
59 0.0
34 0.0
52 0.0
86 0.0
125 0.0
159 0.000998
166 0.0
142 0.0
117 0.0
108 0.0
116 0.0
139 0.0
159 0.0
174 0.0
191 0.0
195 0.0
146 0.0
90 0.0
28 0.0
19 0.000998
48 0.0
82 0.000965
117 0.000965
141 0.001996
143 0.003023
116 0.0
98 0.002027
104 0.0
120 0.0
140 0.0
157 0.002025
170 0.00304
184 0.0
190 0.0
173 0.0
97 0.0
41 0.002025
20 0.001996
45 0.002028
78 0.002027
123 0.0
143 0.0
140 0.0
122 0.001992
104 0.001996
103 0.0
117 0.0
137 0.001024
155 0.002981
170 0.00303
185 0.00299
193 0.002992
194 0.000989
134 0.0
64 0.0
31 0.002035
31 0.003024
66 0.0
103 0.0
138 0.0
157 0.002026
149 0.002026
107 0.002038
98 0.002004
111 0.001004
129 0.0
148 0.001015
161 0.002991
170 0.00299
179 0.0
187 0.0
180 0.0
116 0.002989
54 0.002062
25 0.002028
45 0.002048
90 0.0
125 0.000991
151 0.0
149 0.003038
125 0.002025
100 0.001
100 0.001012
113 0.000993
134 0.003033
153 0.003025
172 0.001995
178 0.001961
184 0.0
191 0.0
190 0.0
135 0.002032
60 0.001993
16 0.0
20 0.0
45 0.0
78 0.001995
107 0.002005
128 0.002027
117 0.001996
95 0.0
92 0.0
99 0.0
116 0.002993
135 0.002995
157 0.002998
167 0.000961
175 0.000949
182 0.003004
190 0.002994
185 0.002993
119 0.003029
54 0.002995
24 0.003
35 0.000994
66 0.001998
100 0.002992
131 0.002987
147 0.000997
135 0.001993
113 0.00199
102 0.003038
116 0.002029
136 0.003031
157 0.00398
176 0.001984
183 0.001986
189 0.001951
193 0.002994
199 0.004018
207 0.00199
184 0.002009
104 0.002007
50 0.002977
38 0.001998
65 0.003017
103 0.002993
149 0.002
167 0.001994
156 0.001995
127 0.003024
105 0.00303
107 0.002984
123 0.001998
145 0.002003
164 0.003026
182 0.002977
187 0.003995
191 0.003958
197 0.003
203 0.002992
192 0.00299
118 0.003992
51 0.003981
22 0.000948
36 0.002013
68 0.001998
104 0.003023
148 0.001991
149 0.003989
129 0.003962
103 0.002012
102 0.001998
114 0.002008
133 0.003989
154 0.004001
174 0.002994
184 0.003012
189 0.002992
193 0.004991
197 0.001957
203 0.004995
206 0.004987
162 0.001996
75 0.001989
25 0.00198
13 0.004981
31 0.004985
76 0.003014
109 0.002002
133 0.002004
140 0.004027
115 0.001995
100 0.003986
99 0.003992
117 0.001989
137 0.003023
156 0.001991
171 0.001996
182 0.003978
189 0.003965
194 0.002961
198 0.00199
201 0.002995
210 0.002991
213 0.003007
176 0.004988
86 0.004984
23 0.002003
20 0.002024
46 0.001973
85 0.004988
122 0.004981
156 0.002976
157 0.002998
137 0.002972
105 0.002989
107 0.00299
122 0.00598
144 0.004984
170 0.003957
185 0.001994
193 0.002025
198 0.005954
201 0.004985
205 0.003956
209 0.002957
215 0.003989
199 0.002991
115 0.002982
48 0.00598
25 0.005976
43 0.002997
83 0.00299
125 0.002995
160 0.004981
179 0.004987
162 0.003993
130 0.003989
110 0.004009
120 0.00398
141 0.003992
161 0.00599
173 0.0
192 0.003996
197 0.002959
200 0.003958
204 0.005984
210 0.005968
211 0.002957
159 0.002991
66 0.002993
9 0.00399
19 0.003988
53 0.006987
95 0.005977
141 0.003983
158 0.003991
151 0.003978
125 0.005981
103 0.005982
100 0.002985
116 0.005022
137 0.004987
167 0.004975
179 0.005953
185 0.006983
190 0.006981
196 0.003999
201 0.00399
197 0.003986
134 0.006988
47 0.006986
6 0.006988
6 0.003977
36 0.004983
102 0.004986
132 0.004988
145 0.003979
137 0.006978
113 0.006982
92 0.004011
96 0.00398
112 0.003978
132 0.006952
151 0.006941
168 0.004987
176 0.004995
186 0.004985
193 0.004997
198 0.004989
176 0.006982
92 0.006981
16 0.003989
5 0.005005
24 0.004983
61 0.006975
102 0.006994
144 0.004949
153 0.006002
120 0.005987
98 0.004985
95 0.004978
107 0.007974
126 0.007948
152 0.004985
167 0.004986
176 0.004981
184 0.006984
190 0.007946
198 0.004983
186 0.004987
59 0.004943
19 0.004987
14 0.005995
36 0.007973
76 0.007978
129 0.005972
157 0.004984
158 0.005984
123 0.00697
103 0.007959
92 0.005962
104 0.005991
137 0.005988
154 0.005984
165 0.005962
175 0.006999
183 0.006986
185 0.005985
152 0.005988
70 0.005986
19 0.007979
4 0.007979
41 0.006981
67 0.006001
136 0.006973
145 0.004963
128 0.006976
101 0.006974
87 0.00698
90 0.005984
106 0.006977
128 0.005953
150 0.006969
162 0.006989
169 0.005984
174 0.005006
182 0.007961
160 0.005975
77 0.005978
8 0.006949
62 0.007012
71 0.006955
88 0.00695
110 0.006976
119 0.006029
126 0.006991
119 0.00702
106 0.005985
105 0.006012
115 0.005983
125 0.006092
134 0.006026
141 0.005986
146 0.006017
150 0.005956
153 0.006012
155 0.006945
143 0.006975
104 0.006834
75 0.006982
67 0.007012
79 0.00698
101 0.006961
111 0.006976
124 0.006018
123 0.006024
112 0.005984
107 0.005995
107 0.005988
114 0.005984
124 0.005985
136 0.005953
144 0.005983
149 0.006967
151 0.006
154 0.005955
158 0.005998
156 0.006034
113 0.005992
83 0.005982
71 0.00598
75 0.006051
90 0.005954
113 0.005981
131 0.006014
132 0.005989
123 0.005966
114 0.005979
112 0.006094
117 0.005017
130 0.004985
140 0.00602
148 0.005086
153 0.005019
155 0.005028
158 0.005986
162 0.005017
165 0.005982
154 0.005981
114 0.005981
87 0.006015
78 0.004981
89 0.00599
102 0.004986
125 0.004997
143 0.005019
148 0.005021
130 0.005986
111 0.004989
109 0.005018
121 0.00506
135 0.00499
146 0.005019
154 0.005021
158 0.004999
162 0.004987
164 0.004986
168 0.004956
168 0.003985
142 0.003989
73 0.003984
60 0.004989
72 0.005
92 0.004982
114 0.004953
132 0.004993
139 0.004014
126 0.004953
112 0.003997
107 0.004985
111 0.005019
122 0.004988
143 0.004987
152 0.004983
158 0.004987
161 0.004976
163 0.004044
166 0.004018
169 0.004024
167 0.004026
129 0.00399
82 0.003957
58 0.004027
57 0.005025
83 0.003991
103 0.003991
123 0.003974
128 0.003004
122 0.003054
111 0.003001
105 0.003991
110 0.004008
120 0.004026
132 0.004023
144 0.004023
153 0.003975
160 0.003989
162 0.003958
165 0.004025
169 0.004035
171 0.003988
158 0.004004
109 0.003052
65 0.003039
58 0.00306
68 0.00301
88 0.004047
109 0.004039
133 0.003032
133 0.003033
120 0.00399
110 0.002992
109 0.004031
117 0.00399
129 0.003991
145 0.003959
154 0.002985
161 0.003025
165 0.004029
167 0.00399
169 0.003039
172 0.002986
175 0.002999
172 0.002987
130 0.003025
84 0.002991
64 0.003961
64 0.003023
87 0.003028
112 0.002992
133 0.003073
146 0.004022
135 0.002999
119 0.002993
111 0.003028
116 0.00298
129 0.002997
142 0.003012
154 0.003025
161 0.001996
166 0.001996
167 0.001995
168 0.001986
169 0.002029
174 0.001996
167 0.002025
121 0.002031
71 0.002007
62 0.002054
71 0.002029
92 0.003038
117 0.002992
145 0.002993
152 0.00201
142 0.001966
123 0.001996
111 0.002028
119 0.002001
131 0.001995
149 0.002032
158 0.002026
164 0.001993
167 0.002035
169 0.002033
171 0.000967
173 0.001988
176 0.002994
172 0.002026
93 0.00195
63 0.000974
55 0.001951
72 0.001993
94 0.001998
110 0.000992
133 0.002026
138 0.001996
125 0.001992
111 0.002028
105 0.001034
109 0.000999
128 0.000992
141 0.000998
151 0.001012
159 0.001996
161 0.000968
164 0.002001
165 0.00199
167 0.002018
170 0.001992
170 0.001995
141 0.001997
89 0.001994
53 0.001994
58 0.001028
76 0.000998
106 0.000962
123 0.000957
131 0.002001
127 0.000997
114 0.002008
103 0.002031
104 0.002025
114 0.001033
126 0.0
147 0.002
155 0.000961
162 0.000997
166 0.0
169 0.00098
169 0.000967
169 0.002023
171 0.000997
171 0.0
132 0.002027
87 0.0
65 0.001991
70 0.0
88 0.0
111 0.0
129 0.0
140 0.001016
130 0.001028
114 0.000986
104 0.000998
106 0.0
120 0.000997
133 0.0
145 0.0
155 0.0
158 0.0
159 0.0
160 0.0
165 0.000962
167 0.0
153 0.0
107 0.0
76 0.0
63 0.0
72 0.000999
91 0.0
123 0.0
137 0.0
135 0.0
121 0.0
106 0.0
106 0.0
113 0.0
124 0.0
138 0.0
150 0.0
155 0.0
158 0.0
161 0.000998
163 0.001
166 0.000997
168 0.000998
129 0.0
87 0.0
64 0.0
64 0.0
80 0.001018
98 0.0
115 0.002025
128 0.0
123 0.003031
109 0.001012
105 0.0
108 0.0
117 0.00399
128 0.003031
143 0.0
148 0.0
153 0.001996
158 0.002029
159 0.001995
161 0.000955
164 0.003082
168 0.0
152 0.0
107 0.0
77 0.002027
65 0.001999
70 0.00202
91 0.0
109 0.000998
124 0.0
131 0.002988
126 0.002028
109 0.002984
106 0.00303
114 0.0
124 0.0
136 0.0
147 0.003025
153 0.003024
159 0.0
160 0.000967
162 0.000961
163 0.002025
166 0.002036
172 0.002968
160 0.002002
102 0.001017
77 0.001051
70 0.0
78 0.002991
96 0.002948
124 0.0
139 0.0
142 0.0
131 0.003036
115 0.003002
107 0.002025
115 0.002989
131 0.0
143 0.0
151 0.0
156 0.002991
158 0.002991
160 0.0
162 0.0
165 0.000964
168 0.002051
164 0.002026
97 0.00198
72 0.001992
68 0.0
80 0.000987
101 0.0
120 0.003026
136 0.002997
137 0.000962
124 0.001001
111 0.0
108 0.003026
112 0.002991
132 0.002031
143 0.001996
155 0.0
160 0.0
162 0.0
164 0.002034
165 0.001965
167 0.0
170 0.0
172 0.0
146 0.00299
97 0.002992
60 0.002941
63 0.002993
84 0.0
103 0.0
118 0.001015
128 0.003032
126 0.002995
116 0.002993
105 0.0
105 0.003016
112 0.00199
123 0.00303
142 0.003007
150 0.003023
156 0.00299
161 0.001995
162 0.002992
164 0.003016
166 0.003019
168 0.003029
168 0.002993
133 0.003002
88 0.001998
66 0.002998
69 0.002002
87 0.00401
107 0.004018
128 0.002997
135 0.003008
130 0.003004
117 0.002992
109 0.003029
111 0.001992
121 0.0
133 0.002048
145 0.00399
158 0.002987
162 0.002993
165 0.002992
167 0.00299
169 0.002991
171 0.002998
175 0.004017
176 0.003989
133 0.002992
89 0.003021
69 0.00203
68 0.003978
97 0.001995
120 0.003993
139 0.003993
149 0.002976
138 0.002991
120 0.003006
109 0.004983
111 0.004986
124 0.002985
137 0.002991
148 0.002972
155 0.003989
161 0.001999
162 0.00399
164 0.004002
167 0.001987
169 0.002005
167 0.002019
130 0.00499
86 0.004987
63 0.001978
68 0.003003
85 0.002003
107 0.004019
139 0.002994
144 0.004029
135 0.004987
114 0.003008
108 0.002003
113 0.001993
123 0.003971
137 0.005019
151 0.002987
158 0.002031
162 0.002972
163 0.005019
166 0.001986
167 0.001995
171 0.004987
170 0.004987
121 0.001993
78 0.001995
58 0.002985
58 0.006012
72 0.005991
101 0.002995
118 0.002993
129 0.002988
122 0.002021
110 0.001995
103 0.004955
105 0.005004
118 0.00203
130 0.001987
141 0.001989
149 0.004987
154 0.006021
158 0.002957
160 0.002993
162 0.002989
167 0.002996
167 0.00298
138 0.00499
89 0.004977
59 0.002991
58 0.001999
72 0.001997
92 0.006032
112 0.005984
129 0.002999
130 0.002967
120 0.002963
106 0.003018
108 0.002999
116 0.005984
129 0.005994
144 0.002997
152 0.002971
158 0.003997
160 0.00798
163 0.005983
165 0.004014
169 0.00402
171 0.003998
138 0.004
90 0.002992
67 0.005985
63 0.006985
82 0.002997
105 0.002999
126 0.002993
141 0.006981
142 0.006982
125 0.003989
112 0.003954
108 0.004004
123 0.004951
136 0.004955
148 0.005998
156 0.005987
160 0.003983
162 0.003986
163 0.00399
165 0.006981
168 0.007017
159 0.003991
113 0.002994
76 0.003982
63 0.003978
77 0.004001
100 0.00599
121 0.00598
142 0.003987
141 0.005022
128 0.00399
112 0.004982
107 0.006981
113 0.007015
128 0.004954
142 0.004954
155 0.004986
159 0.004987
161 0.004992
163 0.006985
165 0.006981
169 0.003984
164 0.004975
122 0.004026
68 0.00797
57 0.00799
59 0.005983
77 0.00399
110 0.005984
124 0.004987
128 0.004994
120 0.006966
108 0.007995
100 0.004956
105 0.004994
116 0.004988
129 0.008021
140 0.006981
150 0.004978
154 0.005006
157 0.00599
160 0.004982
163 0.003961
164 0.007978
142 0.007981
80 0.005014
58 0.004985
56 0.005976
74 0.007985
88 0.007979
112 0.004997
123 0.005038
120 0.005988
110 0.005984
103 0.006025
105 0.007978
117 0.00794
129 0.006001
141 0.005022
149 0.004981
156 0.007931
158 0.006981
160 0.005987
162 0.004972
167 0.006021
163 0.005947
124 0.005965
73 0.006979
60 0.007016
66 0.005989
83 0.005981
105 0.005943
128 0.006981
136 0.006944
129 0.005984
115 0.004987
105 0.005966
111 0.004979
123 0.005987
139 0.007083
146 0.008015
155 0.007947
158 0.006971
158 0.005995
160 0.005978
162 0.006982
165 0.006985
167 0.006976
117 0.006982
79 0.005997
63 0.005958
66 0.005988
90 0.005982
112 0.006982
136 0.005945
140 0.005977
130 0.005963
114 0.005992
106 0.006016
111 0.006945
127 0.006015
140 0.00599
150 0.005025
156 0.006026
160 0.007014
162 0.006991
164 0.005984
166 0.005975
169 0.006944
170 0.006043
143 0.006948
80 0.00594
57 0.005982
67 0.005979
86 0.005974
106 0.006051
121 0.006055
129 0.005984
122 0.005952
111 0.004992
105 0.005983
107 0.005985
117 0.006029
133 0.005952
148 0.006048
156 0.005948
159 0.002993
162 0.004991
163 0.00499
165 0.006019
168 0.005978
171 0.005
167 0.004937
126 0.005036
81 0.005023
58 0.004995
68 0.00502
96 0.004981
114 0.005598
129 0.005943
133 0.006017
126 0.005006
112 0.004956
108 0.005003
113 0.004988
124 0.004977
137 0.004987
152 0.004957
160 0.005017
165 0.005987
166 0.00596
168 0.005949
170 0.004988
173 0.006036
177 0.004995
162 0.004988
112 0.004986
76 0.004994
64 0.004992
76 0.004973
106 0.005021
129 0.005117
147 0.004988
145 0.003957
130 0.004989
114 0.003991
108 0.003996
119 0.005012
132 0.004939
145 0.004998
155 0.005038
161 0.003956
165 0.004991
167 0.004969
170 0.004986
173 0.004986
173 0.004983
143 0.004955
92 0.004015
61 0.00405
62 0.005065
77 0.003965
101 0.004988
124 0.003986
144 0.004021
137 0.005041
117 0.004987
109 0.005007
111 0.004957
121 0.003992
134 0.003991
150 0.004007
157 0.00502
162 0.004072
164 0.005014
165 0.00403
169 0.003987
172 0.004023
163 0.00397
114 0.003992
71 0.003991
53 0.003034
55 0.004022
79 0.003025
101 0.002995
119 0.003993
131 0.002981
129 0.003994
111 0.002946
104 0.00399
110 0.003992
122 0.00399
136 0.002991
148 0.00399
156 0.003991
162 0.002991
165 0.003985
167 0.003989
171 0.004047
174 0.004022
146 0.003941
93 0.002992
59 0.003989
59 0.002943
74 0.002993
98 0.004046
121 0.004062
141 0.003026
140 0.004022
126 0.003971
110 0.002991
105 0.001995
118 0.003959
132 0.002993
146 0.003986
153 0.002994
157 0.002961
160 0.004014
163 0.002994
167 0.003024
160 0.003032
116 0.00303
75 0.003025
59 0.002993
72 0.002993
95 0.002006
118 0.002987
140 0.001987
141 0.001996
129 0.002993
114 0.001995
108 0.002028
115 0.002028
128 0.002038
141 0.002994
151 0.003112
160 0.002979
162 0.002999
163 0.002964
167 0.002989
169 0.003035
154 0.003027
103 0.002993
66 0.002993
51 0.003025
62 0.00203
83 0.002043
103 0.002028
127 0.00303
127 0.002029
117 0.001997
104 0.00199
103 0.001991
111 0.002031
123 0.002995
136 0.002031
149 0.00199
152 0.01496
158 0.004032
160 0.0
164 0.002043
168 0.002
162 0.002009
102 0.001993
68 0.002045
56 0.001996
63 0.003
82 0.002026
112 0.000998
130 0.000998
137 0.000963
130 0.001995
109 0.000993
106 0.00103
113 0.000998
129 0.00203
142 0.000962
152 0.002031
157 0.001041
161 0.001034
164 0.001991
167 0.000967
171 0.000998
170 0.001047
103 0.000998
71 0.002044
62 0.000966
76 0.001996
100 0.002033
123 0.002043
142 0.002027
147 0.000967
130 0.001026
113 0.000998
107 0.002027
113 0.000963
135 0.00104
147 0.001002
155 0.00105
159 0.001006
163 0.000998
166 0.000994
169 0.000999
172 0.001996
159 0.000997
92 0.000997
64 0.000998
58 0.001
83 0.000998
107 0.0
126 0.0
140 0.000997
135 0.0
121 0.0
110 0.0
109 0.0
118 0.0
135 0.0
147 0.000999
155 0.000997
163 0.000962
165 0.001
167 0.0
170 0.000998
173 0.0
156 0.0
103 0.0
66 0.0
53 0.0
64 0.0
84 0.0
105 0.0
129 0.0
129 0.0
119 0.0
109 0.0
106 0.0
114 0.0
127 0.0
139 0.0
150 0.0
160 0.0
163 0.0
166 0.0
169 0.0
173 0.0
173 0.000997
125 0.001992
79 0.000961
59 0.00303
63 0.000976
82 0.000967
105 0.0
124 0.002025
136 0.002031
133 0.001015
115 0.003035
108 0.0
113 0.0
126 0.0
139 0.003024
150 0.002993
159 0.000973
163 0.000998
165 0.000997
167 0.002992
170 0.002992
175 0.0
156 0.003025
90 0.000997
65 0.0
63 0.0
77 0.002993
100 0.002993
131 0.0
146 0.0
147 0.0
133 0.000999
116 0.003042
109 0.003022
122 0.002964
136 0.002992
152 0.001006
159 0.0
163 0.0
165 0.00303
167 0.00199
172 0.0
173 0.0
150 0.0
97 0.003024
65 0.003025
61 0.002991
79 0.002995
112 0.0
131 0.000997
143 0.0
139 0.003031
125 0.002031
110 0.0
111 0.0
121 0.0
134 0.003022
146 0.003024
160 0.002994
164 0.002988
167 0.0
169 0.0
173 0.0
172 0.003025
140 0.002999
74 0.001017
55 0.0
56 0.000997
72 0.003
94 0.003028
125 0.00299
134 0.002029
127 0.001005
115 0.0
108 0.000841
110 0.003028
120 0.002028
137 0.0
149 0.0
154 0.003044
161 0.002033
165 0.003005
171 0.002959
174 0.002981
157 0.0
105 0.000964
70 0.000942
58 0.003024
65 0.002937
93 0.000966
116 0.0
134 0.0
142 0.002992
136 0.002993
114 0.002036
110 0.001996
120 0.0
134 0.003002
146 0.0
155 0.002951
161 0.002992
165 0.002993
169 0.002028
172 0.001988
174 0.0
152 0.003023
77 0.0
63 0.003983
68 0.004049
94 0.002987
118 0.002991
139 0.002985
149 0.003006
143 0.003038
119 0.002991
110 0.003039
112 0.002995
123 0.002992
144 0.002992
153 0.003991
158 0.004024
163 0.002992
166 0.002989
170 0.003023
169 0.004022
135 0.00399
76 0.001033
59 0.002997
61 0.003002
79 0.005018
116 0.002992
134 0.003026
141 0.004042
128 0.002996
114 0.001996
108 0.001986
113 0.003989
125 0.003989
142 0.002034
152 0.003017
159 0.001992
162 0.00399
166 0.002961
170 0.005036
172 0.004989
133 0.001976
83 0.004988
58 0.002981
55 0.00402
68 0.004044
96 0.002992
114 0.002013
127 0.00203
130 0.003989
115 0.002992
107 0.004982
108 0.005
121 0.001993
134 0.002992
145 0.002994
153 0.004983
158 0.005019
162 0.002995
165 0.002992
169 0.003013
173 0.003973
141 0.002001
92 0.00399
66 0.004987
65 0.002988
81 0.00199
102 0.001982
121 0.004984
136 0.004944
135 0.002961
123 0.002992
112 0.003026
111 0.004986
125 0.003004
138 0.004022
148 0.005018
155 0.006019
161 0.002991
162 0.002992
165 0.002993
169 0.00603
172 0.006983
148 0.002988
98 0.001975
69 0.002994
