182 0.008695
171 0.007478
156 0.007774
165 0.00698
172 0.006216
176 0.007676
179 0.006974
184 0.007119
194 0.007948
193 0.007458
193 0.006357
199 0.00733
207 0.007529
212 0.007405
216 0.006797
221 0.007329
225 0.007118
229 0.006963
232 0.005982
236 0.007247
217 0.007033
181 0.006969
162 0.006846
172 0.007306
182 0.007715
182 0.007146
185 0.007124
192 0.006916
197 0.006977
195 0.006214
193 0.005984
194 0.00698
196 0.00702
198 0.006479
202 0.006954
205 0.006925
209 0.0078
211 0.007276
214 0.005995
211 0.005976
183 0.006019
148 0.006441
149 0.005984
159 0.006639
169 0.006055
173 0.006842
178 0.006635
186 0.004982
187 0.006488
186 0.007005
188 0.006496
194 0.006304
201 0.006276
211 0.005017
216 0.004981
219 0.005984
225 0.005986
231 0.004985
212 0.007019
168 0.004021
158 0.005981
166 0.007211
173 0.005602
175 0.005201
176 0.006576
181 0.005015
187 0.005099
186 0.006841
184 0.005425
187 0.005996
191 0.004374
198 0.004021
202 0.005659
208 0.004949
211 0.004951
213 0.004952
198 0.00502
161 0.004951
130 0.004621
131 0.004939
138 0.006606
140 0.005027
138 0.003988
146 0.006191
152 0.003986
151 0.00549
150 0.004615
153 0.005489
158 0.006337
163 0.004923
171 0.005205
176 0.005636
179 0.005026
183 0.00499
186 0.004856
152 0.004976
113 0.004991
100 0.00615
106 0.00395
113 0.004829
114 0.005988
114 0.005774
125 0.005526
130 0.004925
130 0.004079
129 0.003961
132 0.004028
142 0.003947
148 0.004962
154 0.003997
159 0.004017
165 0.005006
168 0.005478
160 0.004947
113 0.003954
89 0.00474
86 0.004367
93 0.004798
98 0.00589
101 0.00398
108 0.003954
114 0.003926
114 0.004389
112 0.003949
114 0.003994
120 0.003995
129 0.003983
133 0.005008
138 0.004985
142 0.003994
148 0.003829
144 0.002998
107 0.003313
73 0.00298
64 0.003951
67 0.003275
71 0.003962
72 0.003723
75 0.004651
84 0.003333
88 0.003063
89 0.003244
90 0.002962
98 0.003962
103 0.003993
111 0.003956
119 0.002945
123 0.003029
127 0.002956
133 0.002995
137 0.003218
137 0.004452
106 0.004508
65 0.003033
48 0.003213
53 0.001991
56 0.002467
56 0.003197
62 0.002991
71 0.001991
78 0.002992
78 0.003994
78 0.002962
83 0.002988
89 0.002993
96 0.002954
102 0.003023
112 0.002951
118 0.001961
124 0.003035
128 0.002964
132 0.002889
138 0.002988
143 0.002713
141 0.002761
91 0.002002
59 0.002959
53 0.002993
62 0.003991
68 0.001995
68 0.002071
73 0.002402
83 0.002079
85 0.002358
84 0.001969
85 0.002995
92 0.001962
100 0.002036
107 0.001988
114 0.002207
120 0.001996
129 0.001994
132 0.002992
136 0.002995
143 0.001955
133 0.001453
94 0.00197
60 0.00201
48 0.00176
53 0.002306
58 0.001417
59 0.002951
62 0.001781
76 0.002992
79 0.002998
78 0.001957
67 0.000956
77 0.001974
86 0.001992
96 0.002994
106 0.002471
113 0.000947
120 0.000994
130 0.002962
135 0.00196
144 0.000997
107 0.00126
53 0.00143
26 0.002536
25 0.001447
34 0.000999
40 0.000818
39 0.001705
47 0.001289
63 0.001002
66 0.001995
64 0.001633
71 0.001031
82 0.000958
91 0.000965
103 0.000956
115 0.000999
124 0.00193
133 0.001038
141 0.001
146 0.002009
137 0.000938
82 0.00103
37 0.000917
30 0.001158
40 0.0
45 0.001042
46 0.001001
55 0.000634
65 0.0
67 0.0
63 0.000956
67 0.001002
77 0.00103
84 0.001
95 0.001
109 0.0
119 0.0
128 0.000966
134 0.0
115 0.0
56 0.0
13 0.001004
4 0.00097
12 0.0
20 0.0
23 0.0
30 0.0
47 0.000998
48 0.0
49 0.0
52 0.0
65 0.0
76 0.0
88 0.0
97 0.0
106 0.000963
115 0.0
124 0.0
131 0.0
65 0.0
11 0.0
0 0.001041
0 0.000961
4 0.000997
3 0.001064
5 0.001
18 0.0
28 0.000851
31 0.0
35 0.0
41 0.0
59 0.000991
72 0.0
84 0.000962
99 0.0
105 0.0
116 0.001003
125 0.000999
110 0.0
55 0.0
8 0.0
0 0.001001
0 0.00204
8 0.002005
10 0.001036
23 0.0
34 0.0
38 0.0
38 0.000962
43 0.00096
53 0.0
63 0.000998
80 0.0
90 0.00104
99 0.001035
118 0.001036
122 0.001034
79 0.0
41 0.0
0 0.0
62 0.001002
65 0.001003
68 0.0
70 0.0
76 0.0
83 0.000192
87 0.001049
89 0.000998
93 0.0
99 0.001
108 0.0
114 0.0
119 0.000997
124 0.001963
130 0.001001
135 0.000999
122 0.001
92 0.001349
71 0.001657
69 0.00299
72 0.000999
73 0.001002
76 0.0
81 0.001001
88 0.00195
91 0.002044
92 0.000954
96 0.000958
102 0.000996
108 0.000976
115 0.001996
126 0.0
131 0.00205
135 0.000999
142 0.000997
146 0.001
138 0.000999
108 0.001394
85 0.00199
79 0.001043
84 0.001
87 0.0
87 0.002411
94 0.000999
99 0.001997
102 0.002036
102 0.001043
106 0.000998
112 0.000998
119 0.002404
124 0.003
133 0.001
137 0.000997
141 0.001
145 0.001992
150 0.002051
132 0.002597
102 0.002392
83 0.002035
84 0.001988
88 0.001972
90 0.001717
92 0.003441
85 0.001959
93 0.001579
97 0.001961
97 0.002998
104 0.001994
113 0.003991
125 0.003029
137 0.001029
143 0.001995
152 0.002863
157 0.002061
163 0.003181
169 0.002803
157 0.002003
107 0.001998
70 0.002881
62 0.001996
67 0.004332
67 0.003412
67 0.002995
77 0.001994
87 0.002034
90 0.003389
92 0.004035
97 0.001995
105 0.002056
115 0.002753
126 0.003993
142 0.001995
149 0.002993
155 0.003349
164 0.002913
170 0.002951
177 0.003568
168 0.003757
122 0.00381
68 0.002514
63 0.001996
68 0.002958
74 0.002995
76 0.002957
85 0.00304
93 0.00413
98 0.004378
100 0.002949
103 0.002999
109 0.00311
120 0.004134
131 0.004848
143 0.003106
148 0.004543
158 0.003221
167 0.002608
173 0.002459
178 0.004305
163 0.004198
98 0.002992
70 0.002997
69 0.003287
77 0.004032
84 0.004779
88 0.00325
95 0.003042
104 0.004024
107 0.002958
109 0.003473
114 0.004793
124 0.004586
136 0.004377
146 0.004394
154 0.003305
161 0.004308
167 0.004001
174 0.003978
183 0.004079
183 0.003467
107 0.00303
71 0.004031
65 0.004147
71 0.004991
78 0.003706
79 0.004763
84 0.003671
94 0.005293
102 0.00541
103 0.004735
105 0.004783
111 0.004319
127 0.003989
139 0.004047
148 0.005085
156 0.005566
165 0.004992
171 0.0041
177 0.004946
184 0.00499
177 0.005024
110 0.004022
71 0.00399
62 0.004002
76 0.004179
80 0.004731
82 0.005694
89 0.005892
102 0.005042
104 0.004986
103 0.005383
107 0.006179
114 0.004905
123 0.005967
138 0.004766
148 0.004987
163 0.004747
169 0.004587
176 0.004752
183 0.005196
177 0.006269
112 0.005114
74 0.00497
66 0.004993
71 0.00642
80 0.006018
87 0.005151
92 0.004989
104 0.005106
104 0.005484
105 0.005202
108 0.006215
115 0.005549
128 0.005738
139 0.004447
147 0.005034
154 0.006349
162 0.006296
171 0.004949
154 0.005523
68 0.004983
44 0.004987
44 0.005567
51 0.006772
55 0.007176
57 0.006384
66 0.005334
75 0.006053
77 0.006672
78 0.0073
82 0.005919
88 0.004077
106 0.005543
114 0.006069
125 0.005606
134 0.007071
142 0.006836
147 0.005997
121 0.005965
48 0.006352
21 0.007261
19 0.007132
25 0.005498
28 0.004985
35 0.005959
47 0.005901
53 0.006192
55 0.007339
55 0.007482
64 0.006034
74 0.006059
86 0.007105
97 0.007466
107 0.007018
118 0.006973
127 0.006742
131 0.005463
91 0.006512
38 0.006022
10 0.007009
9 0.006605
19 0.007326
21 0.006967
23 0.00596
34 0.007688
44 0.00735
48 0.0069
50 0.005988
58 0.00805
74 0.006016
81 0.006964
91 0.006859
106 0.007897
112 0.007829
124 0.007746
127 0.007718
105 0.007778
38 0.007935
15 0.0072
7 0.006802
15 0.007793
16 0.005865
22 0.006453
36 0.006983
46 0.007344
48 0.00798
52 0.006653
60 0.006994
76 0.006889
89 0.00708
99 0.007435
110 0.00602
124 0.00754
134 0.007498
143 0.006983
151 0.007269
146 0.00743
99 0.007348
31 0.007573
16 0.007338
17 0.007151
17 0.007911
15 0.006981
16 0.007506
40 0.007698
51 0.006369
54 0.006514
57 0.006932
69 0.006855
82 0.006998
100 0.006491
111 0.007033
123 0.007025
133 0.00598
142 0.006945
154 0.006764
165 0.005977
175 0.006685
184 0.007012
194 0.007114
203 0.007748
211 0.006956
175 0.007278
130 0.007079
64 0.006583
53 0.006559
57 0.006221
58 0.006531
57 0.006121
69 0.005944
80 0.005997
85 0.006256
87 0.006361
92 0.005947
106 0.006829
118 0.006024
130 0.006871
142 0.006314
152 0.004995
163 0.005049
174 0.005342
181 0.006106
191 0.006132
200 0.006542
209 0.005781
195 0.007013
140 0.00602
81 0.004911
71 0.005111
78 0.004984
84 0.004987
83 0.006014
96 0.006601
107 0.00492
112 0.005908
112 0.005834
117 0.006679
129 0.006135
142 0.006654
157 0.00569
168 0.004946
178 0.005548
186 0.005987
192 0.004945
203 0.004994
211 0.00503
217 0.005356
182 0.006247
118 0.006028
78 0.005009
70 0.004956
75 0.004572
77 0.005016
76 0.004998
82 0.004944
95 0.006172
106 0.006164
108 0.00516
114 0.005132
124 0.003983
138 0.005176
152 0.005989
164 0.004881
177 0.003989
186 0.004955
193 0.00566
199 0.004987
207 0.004023
220 0.004854
209 0.005044
126 0.005753
79 0.004707
66 0.005541
71 0.004744
75 0.004697
76 0.003929
80 0.004819
92 0.003934
102 0.003988
105 0.003989
110 0.005002
119 0.00502
135 0.005017
149 0.00399
160 0.003988
172 0.004035
179 0.003886
189 0.003758
196 0.004377
204 0.004028
209 0.005258
182 0.003955
84 0.003221
62 0.003981
64 0.004096
75 0.003259
76 0.00396
78 0.004985
90 0.003957
100 0.002993
99 0.003961
101 0.002992
107 0.001993
117 0.002992
138 0.003991
148 0.003885
159 0.003026
170 0.003857
178 0.003156
185 0.002953
175 0.003035
121 0.002952
52 0.004021
38 0.003991
39 0.002993
44 0.003
44 0.002946
53 0.003682
68 0.004093
75 0.002989
77 0.003001
82 0.002956
93 0.002989
106 0.003025
123 0.003123
135 0.002995
145 0.003204
153 0.00399
168 0.004021
173 0.003974
142 0.003024
58 0.003032
22 0.00204
14 0.002956
14 0.003984
12 0.002764
12 0.003179
21 0.001992
38 0.002991
49 0.002995
56 0.002714
65 0.002996
77 0.003595
98 0.004045
113 0.003025
126 0.002992
138 0.002792
146 0.001809
160 0.002926
170 0.001961
178 0.001988
159 0.001996
55 0.003025
23 0.001995
16 0.00098
17 0.001993
13 0.002994
15 0.00195
28 0.001817
45 0.00209
54 0.00176
55 0.002994
62 0.003026
75 0.002977
100 0.001002
113 0.001198
126 0.001995
138 0.00198
152 0.000999
162 0.001995
172 0.001026
159 0.001996
100 0.000998
31 0.000996
18 0.001
18 0.002026
19 0.001864
22 0.001963
35 0.00203
51 0.001994
60 0.001997
63 0.000923
70 0.001043
84 0.001507
99 0.000961
119 0.000963
132 0.000956
144 0.0
159 0.002023
168 0.001033
178 0.001003
186 0.001969
141 0.000995
69 0.001994
24 0.00156
10 0.001421
7 0.000958
4 0.001012
1 0.001
10 0.000927
39 0.000998
47 0.001054
51 0.000969
59 0.000958
75 0.000968
92 0.000996
108 0.0
122 0.000961
136 0.0
152 0.000955
162 0.001037
172 0.000984
192 0.000998
201 0.001447
177 0.000823
107 0.001022
35 0.0
20 0.000823
19 0.001588
18 0.000773
15 0.0
25 0.000996
44 0.0
56 0.0
64 0.0
71 0.0
83 0.000997
98 0.001001
120 0.0
136 0.000937
147 0.0
158 0.001003
169 0.001101
181 0.0
190 0.0
184 0.0
82 0.0
40 0.001001
30 0.0
35 0.0
37 0.0
37 0.0
51 0.001
69 0.0
76 0.0
79 0.0
88 0.0
100 0.0
126 0.0
142 0.0
156 0.0
168 0.000961
181 0.000994
193 0.0
203 0.001
182 0.000999
139 0.000939
70 0.001001
32 0.000999
30 0.0
32 0.0
31 0.001
41 0.001001
61 0.00096
77 0.000965
80 0.001999
86 0.002035
102 0.0
118 0.0
137 0.0
152 0.001
166 0.0
185 0.002036
195 0.001
209 0.0
220 0.0
226 0.0
175 0.001
97 0.002031
44 0.0
40 0.000998
44 0.0
44 0.000997
45 0.002023
68 0.002997
84 0.001
91 0.0
96 0.000966
105 0.0
119 0.001042
136 0.00104
159 0.0
173 0.0
185 0.0
196 0.001002
207 0.001972
224 0.001058
233 0.001038
179 0.0
104 0.0
60 0.0
53 0.001307
60 0.001996
67 0.0
69 0.0
80 0.0
96 0.002041
106 0.000996
110 0.001011
118 0.001001
136 0.0
154 0.0
170 0.0
183 0.002048
196 0.002043
208 0.001987
220 0.0
204 0.000997
220 0.0
154 0.001994
62 0.0
55 0.00125
63 0.00123
72 0.000998
76 0.001
88 0.000966
103 0.002396
110 0.000998
112 0.0
119 0.0
131 0.000997
147 0.002
174 0.0
187 0.001998
199 0.002999
214 0.001989
225 0.001961
220 0.00099
163 0.001961
88 0.001996
43 0.000988
42 0.000998
48 0.000966
50 0.002992
57 0.001958
74 0.00234
88 0.003035
94 0.001029
98 0.001993
108 0.000979
123 0.002369
140 0.003951
161 0.002028
175 0.001
187 0.000997
200 0.002995
215 0.001995
190 0.001995
116 0.002823
43 0.000962
32 0.001959
39 0.001996
45 0.002887
45 0.00399
56 0.001995
72 0.002032
83 0.000999
85 0.002997
93 0.002134
107 0.002991
121 0.003164
143 0.001816
157 0.000999
165 0.002998
182 0.002517
193 0.003976
180 0.000998
114 0.001001
51 0.00203
26 0.003995
35 0.001961
41 0.003241
44 0.00326
61 0.001965
75 0.001958
81 0.000995
83 0.003029
90 0.004995
100 0.003987
121 0.002033
137 0.001995
151 0.001048
174 0.001994
187 0.002005
189 0.003829
140 0.003351
44 0.002684
11 0.002377
9 0.00199
14 0.00399
17 0.004145
22 0.003025
38 0.002953
55 0.002939
66 0.001996
69 0.001994
79 0.003989
95 0.003863
115 0.002991
129 0.002357
145 0.002956
159 0.004299
171 0.00402
176 0.002994
123 0.002959
47 0.002671
0 0.001996
2 0.004093
7 0.004833
8 0.004313
19 0.001984
38 0.002998
52 0.003936
56 0.004991
60 0.004259
75 0.002992
91 0.001997
109 0.002033
136 0.003026
150 0.003031
162 0.004394
173 0.005052
186 0.001845
163 0.003306
89 0.003957
27 0.005362
7 0.005223
12 0.002994
18 0.003989
21 0.004018
43 0.003191
59 0.003998
64 0.005022
65 0.005037
76 0.002979
90 0.003436
105 0.003881
122 0.003988
137 0.005295
152 0.00299
165 0.003996
178 0.00395
144 0.00399
70 0.003977
18 0.005793
3 0.005985
9 0.005014
12 0.002994
16 0.003988
29 0.005
48 0.005934
60 0.005985
65 0.003975
71 0.004021
94 0.005591
112 0.004864
128 0.004613
142 0.005389
155 0.006271
170 0.003006
182 0.00399
192 0.004986
166 0.007031
88 0.006229
13 0.003951
2 0.00495
7 0.004214
6 0.003957
11 0.004019
29 0.006002
49 0.005581
62 0.004598
67 0.003986
74 0.003985
88 0.006395
107 0.00645
133 0.004945
149 0.00611
171 0.004989
183 0.004591
194 0.004793
203 0.00654
215 0.006715
214 0.00505
143 0.004984
64 0.004945
28 0.007143
25 0.006985
33 0.004972
35 0.004985
50 0.004241
70 0.004973
79 0.004728
82 0.006977
85 0.006998
101 0.005715
118 0.005013
134 0.005881
153 0.007028
169 0.006098
184 0.00495
194 0.005601
212 0.004951
224 0.004946
223 0.006278
163 0.007514
83 0.007017
35 0.004984
35 0.004985
44 0.004988
49 0.006986
51 0.006986
72 0.00598
88 0.004993
95 0.004586
100 0.00423
111 0.006316
128 0.007319
147 0.007684
169 0.006945
184 0.004945
198 0.00593
212 0.007541
221 0.007275
233 0.007395
197 0.004931
88 0.006982
36 0.005885
35 0.005163
42 0.006187
45 0.007763
48 0.007832
66 0.005722
86 0.005978
94 0.006934
97 0.006981
106 0.007867
120 0.006818
151 0.007929
169 0.007063
185 0.006798
199 0.006437
210 0.00798
222 0.008093
235 0.007015
199 0.007134
114 0.007287
44 0.007387
38 0.007101
51 0.007152
56 0.006334
68 0.007423
80 0.007014
96 0.007641
98 0.007073
100 0.007193
108 0.007364
123 0.007261
140 0.006951
164 0.007134
174 0.007744
196 0.007167
210 0.007302
221 0.006947
224 0.006641
143 0.006809
65 0.007037
30 0.00798
32 0.006938
42 0.006947
43 0.0069
47 0.006931
63 0.005984
81 0.005946
84 0.006981
91 0.007024
105 0.007724
122 0.006686
140 0.00762
157 0.006024
175 0.00653
187 0.006621
194 0.007085
206 0.006935
218 0.006016
196 0.006593
91 0.006588
31 0.005943
26 0.006673
32 0.005937
33 0.007154
33 0.006981
44 0.00598
71 0.006742
81 0.007184
86 0.007209
93 0.006062
105 0.006209
134 0.00661
152 0.0073
175 0.007107
189 0.006425
201 0.007037
212 0.006587
222 0.004996
235 0.005883
248 0.005945
255 0.006012
255 0.006203
255 0.006649
159 0.004992
114 0.006762
111 0.004964
118 0.004986
121 0.004988
122 0.003984
131 0.005984
152 0.005873
161 0.005699
165 0.004953
169 0.006509
179 0.006179
203 0.004629
218 0.006019
235 0.005986
243 0.004934
253 0.004989
255 0.004944
255 0.004984
255 0.004948
255 0.004858
222 0.004987
180 0.004949
172 0.004949
184 0.004021
187 0.004063
188 0.004701
200 0.004934
208 0.005176
210 0.00502
209 0.004951
213 0.004987
220 0.004029
203 0.005012
238 0.003991
187 0.004026
193 0.004204
197 0.003988
200 0.005138
191 0.005688
168 0.002989
150 0.003987
146 0.004596
152 0.004027
154 0.003992
154 0.003985
155 0.004019
161 0.003989
166 0.00399
166 0.004034
167 0.004021
171 0.003983
176 0.003989
180 0.003945
184 0.002993
187 0.004025
190 0.003954
194 0.004559
197 0.004012
192 0.004027
156 0.003079
148 0.00319
151 0.00399
155 0.004994
155 0.004985
155 0.00398
158 0.002947
164 0.003987
166 0.003949
165 0.002953
166 0.003959
169 0.004047
176 0.003024
179 0.004173
183 0.003258
186 0.004311
188 0.002992
191 0.004024
195 0.003986
191 0.003988
164 0.003953
152 0.003992
151 0.004029
155 0.003029
157 0.003025
157 0.002957
161 0.00298
166 0.003029
167 0.002981
166 0.003989
167 0.003978
170 0.002992
175 0.00399
179 0.003989
182 0.002991
184 0.003993
188 0.00404
255 0.002711
255 0.003682
255 0.002962
222 0.001996
192 0.00199
191 0.002976
196 0.002957
199 0.003986
198 0.002953
202 0.002996
212 0.001992
217 0.002952
218 0.003028
220 0.002958
229 0.002992
238 0.002997
187 0.001993
190 0.001995
194 0.002502
197 0.001992
199 0.002483
202 0.001992
206 0.001972
197 0.002038
172 0.001958
156 0.002336
155 0.000997
156 0.00299
156 0.001968
154 0.001954
156 0.003023
162 0.002995
166 0.001994
165 0.001992
165 0.001995
169 0.002061
174 0.001916
177 0.000995
181 0.001962
185 0.001961
188 0.001938
190 0.001994
193 0.000997
195 0.002034
199 0.001994
203 0.00196
206 0.001948
195 0.001652
167 0.00224
150 0.000757
147 0.002024
151 0.001995
151 0.002088
150 0.001006
150 0.001997
156 0.001954
160 0.002046
159 0.000963
159 0.000976
163 0.001005
168 0.001995
172 0.000997
175 0.001995
179 0.001433
182 0.000959
184 0.001951
187 0.000995
188 0.000996
193 0.002995
195 0.000984
186 0.000892
146 0.001491
136 0.000954
138 0.0
141 0.0
141 0.001002
141 0.0
145 0.0
148 0.000955
164 0.000997
162 0.001932
165 0.000961
171 0.000955
185 0.0
193 0.0
198 0.000997
203 0.001028
211 0.0
215 0.0
219 0.0
226 0.0
232 0.001994
214 0.0
163 0.0
123 0.0
113 0.001064
116 0.0
116 0.0
112 0.0
114 0.0
124 0.0
129 0.0
128 0.0
128 0.0
133 0.0
145 0.0
153 0.0
166 0.0
173 0.0
179 0.0
184 0.0
189 0.0
195 0.000904
201 0.000998
209 0.0
213 0.000961
176 0.000996
120 0.002996
85 0.001994
85 0.0
91 0.0
91 0.000669
89 0.000962
96 0.0
104 0.0
104 0.001982
103 0.0
105 0.000995
112 0.0
124 0.000998
133 0.0
148 0.001013
155 0.0
162 0.0
166 0.000996
171 0.0
180 0.001986
171 0.002004
105 0.000963
66 0.0
55 0.0
61 0.003033
69 0.001995
72 0.000997
77 0.001397
84 0.0
85 0.002
81 0.000998
85 0.003026
93 0.00199
101 0.000959
115 0.000956
125 0.001028
131 0.001993
138 0.001022
150 0.001995
150 0.001314
94 0.0
41 0.000998
20 0.000997
16 0.000966
22 0.002957
26 0.000996
25 0.000946
32 0.0
40 0.001995
43 0.002
42 0.001001
47 0.002356
57 0.002995
72 0.0
81 0.0
91 0.0
99 0.002037
107 0.002261
114 0.000999
87 0.000953
29 0.001052
0 0.001994
0 0.0
0 0.002995
0 0.003994
0 0.001021
0 0.0
3 0.0
6 0.001957
7 0.002055
13 0.0
23 0.0
36 0.0
46 0.003004
63 0.000962
71 0.001995
79 0.001922
84 0.000997
50 0.001001
0 0.000999
0 0.002985
0 0.002987
0 0.001034
0 0.0
0 0.001025
0 0.003031
0 0.00193
0 0.002327
0 0.003029
11 0.001996
23 0.000993
35 0.000958
46 0.002023
58 0.002994
72 0.000998
80 0.0
82 0.002906
52 0.002997
50 0.002946
44 0.002998
46 0.002995
48 0.002002
49 0.001
54 0.001049
63 0.003994
69 0.003962
73 0.000989
76 0.001944
82 0.001994
90 0.004021
101 0.001948
107 0.004038
112 0.00305
120 0.00299
125 0.002004
127 0.002042
111 0.004027
84 0.003995
64 0.000998
61 0.00198
62 0.002017
61 0.000998
66 0.001773
75 0.001969
84 0.004027
88 0.003994
93 0.002958
99 0.001998
106 0.001895
113 0.004993
121 0.003847
129 0.001959
135 0.001982
140 0.000954
147 0.001962
152 0.002976
156 0.003996
162 0.003829
168 0.002993
172 0.00399
176 0.002998
180 0.003991
184 0.003565
180 0.002987
151 0.002992
119 0.002948
103 0.002029
103 0.002031
102 0.004025
99 0.005574
102 0.002993
110 0.002991
115 0.003029
115 0.005018
116 0.005019
122 0.001995
128 0.002954
133 0.002994
142 0.003659
146 0.003023
151 0.005025
155 0.004338
159 0.002993
163 0.002044
167 0.002961
172 0.005316
176 0.004547
167 0.003073
140 0.002957
116 0.002995
109 0.003026
110 0.003027
111 0.004984
110 0.004986
117 0.002991
123 0.003991
126 0.003959
127 0.004255
129 0.004587
135 0.003996
141 0.003543
147 0.004438
155 0.003025
160 0.003957
163 0.006404
166 0.005317
170 0.004989
174 0.003956
178 0.002992
182 0.00399
187 0.004987
180 0.006017
141 0.00398
117 0.002991
111 0.003318
112 0.004001
111 0.003991
109 0.005319
111 0.005984
120 0.003989
124 0.002992
124 0.003992
126 0.005281
130 0.00621
138 0.003988
144 0.00499
152 0.004024
156 0.003987
160 0.002994
163 0.00608
166 0.007186
170 0.003921
174 0.004979
179 0.004016
183 0.006314
178 0.006687
138 0.00495
114 0.003992
111 0.004813
114 0.004897
115 0.004985
106 0.006304
111 0.006015
124 0.004941
128 0.003989
126 0.002991
129 0.006342
137 0.005981
150 0.003989
159 0.004947
172 0.003996
179 0.004952
185 0.00502
190 0.006822
193 0.006954
201 0.006057
207 0.00395
205 0.003989
166 0.006981
116 0.006032
89 0.004988
92 0.004335
99 0.00493
98 0.00399
102 0.003984
112 0.007287
120 0.007309
122 0.004989
124 0.005029
130 0.005013
140 0.007347
151 0.007294
164 0.005017
172 0.004958
182 0.006017
188 0.005025
193 0.004992
197 0.008423
203 0.008099
210 0.007943
216 0.00578
184 0.005316
126 0.004671
88 0.006984
80 0.007015
87 0.00476
89 0.007868
86 0.004985
95 0.005912
105 0.006478
111 0.007979
112 0.007438
116 0.00571
124 0.005992
136 0.006018
149 0.006942
155 0.00768
167 0.006621
173 0.007247
180 0.006995
186 0.00692
192 0.004932
196 0.0071
179 0.00797
107 0.004944
75 0.005988
72 0.006989
80 0.008141
86 0.008037
86 0.006021
98 0.006981
105 0.006953
107 0.007143
108 0.0073
113 0.007631
123 0.007041
135 0.006021
146 0.005986
154 0.004982
164 0.007725
171 0.00691
177 0.006438
174 0.007019
129 0.007328
77 0.007317
53 0.006489
54 0.006943
60 0.007818
60 0.007136
60 0.005954
68 0.005946
84 0.007226
87 0.007266
88 0.005983
99 0.006015
108 0.005981
123 0.00642
134 0.006661
143 0.006099
151 0.007536
160 0.00725
167 0.006001
159 0.005952
110 0.005969
56 0.00596
32 0.00605
36 0.005981
38 0.006349
35 0.006268
42 0.006282
56 0.00552
65 0.005936
67 0.006071
70 0.005946
80 0.006016
92 0.006024
104 0.006994
116 0.006052
132 0.006823
139 0.006885
150 0.005985
155 0.004951
135 0.005876
80 0.006532
36 0.004986
21 0.005743
24 0.005731
24 0.006536
21 0.006247
26 0.004947
49 0.005983
54 0.006017
57 0.006442
64 0.005386
76 0.004948
88 0.004669
101 0.004937
114 0.005948
123 0.004988
133 0.005283
142 0.005134
146 0.004897
82 0.005543
30 0.004983
7 0.005983
7 0.005022
6 0.004984
5 0.005046
9 0.004986
29 0.006019
41 0.00402
45 0.004986
49 0.004917
57 0.004978
79 0.005788
93 0.004984
108 0.004024
118 0.003944
128 0.005323
137 0.004988
147 0.003991
145 0.004953
97 0.004953
39 0.004947
9 0.004964
2 0.005646
0 0.004952
0 0.005104
7 0.004192
27 0.003984
40 0.003949
46 0.00399
51 0.005661
64 0.004477
78 0.003987
92 0.003987
105 0.00484
117 0.003992
132 0.003986
142 0.004933
152 0.003989
163 0.004182
162 0.003976
114 0.003954
53 0.003989
23 0.003988
19 0.003986
20 0.003998
18 0.003988
20 0.003841
48 0.003989
58 0.003083
62 0.003032
69 0.002967
80 0.003991
94 0.003953
107 0.004084
120 0.003975
136 0.004612
145 0.002956
152 0.002993
162 0.002991
178 0.002994
180 0.002991
139 0.001995
60 0.003986
35 0.00298
32 0.004028
34 0.003989
33 0.004231
35 0.00298
51 0.003991
68 0.004027
73 0.004237
80 0.002954
90 0.002985
103 0.003002
123 0.002991
136 0.002945
148 0.001995
158 0.002995
166 0.002991
175 0.003989
184 0.002999
194 0.002992
203 0.001992
154 0.002954
85 0.00199
45 0.002997
36 0.003377
37 0.003011
35 0.002994
34 0.002983
44 0.001956
68 0.00198
77 0.001943
81 0.00204
85 0.002102
104 0.002002
119 0.001992
134 0.00294
150 0.002995
160 0.003109
169 0.003152
178 0.001992
186 0.003252
199 0.001988
185 0.001951
124 0.003003
68 0.002382
45 0.001993
50 0.002993
52 0.001955
50 0.001995
66 0.000997
83 0.001993
91 0.003002
94 0.002992
98 0.002022
113 0.002885
128 0.001994
143 0.002993
164 0.001978
174 0.001972
184 0.001957
193 0.001994
204 0.001992
188 0.001992
126 0.001994
69 0.001332
48 0.000988
52 0.002959
56 0.001102
57 0.001891
73 0.002005
90 0.002955
97 0.000999
101 0.00115
109 0.002033
120 0.001993
136 0.000959
153 0.000997
167 0.000995
181 0.001042
191 0.000684
200 0.001873
216 0.000997
208 0.001071
146 0.002025
79 0.001996
46 0.0
49 0.000999
54 0.00096
53 0.001032
55 0.000989
75 0.001994
91 0.001279
98 0.0
105 0.000964
115 0.000999
130 0.0
148 0.0
167 0.000999
179 0.000956
191 0.0
200 0.0
211 0.0
221 0.000983
186 0.0
111 0.000999
49 0.0
54 0.000956
63 0.0
65 0.0
70 0.001334
86 0.0
101 0.0
106 0.0
109 0.00097
119 0.0
132 0.0
148 0.001068
174 0.0
187 0.0
198 0.0
209 0.0
218 0.001036
187 0.000965
112 0.000996
62 0.0
51 0.0
61 0.0
72 0.0
76 0.0
97 0.0
110 0.0
115 0.0
116 0.0
123 0.001002
142 0.000953
159 0.0
175 0.000947
189 0.0
201 0.0
217 0.000997
227 0.0
160 0.0
85 0.002036
45 0.0
43 0.0
52 0.001032
57 0.001
60 0.002037
78 0.0
94 0.000962
102 0.000967
105 0.003046
111 0.000997
134 0.0
150 0.0
167 0.001034
187 0.000958
200 0.000956
212 0.001069
219 0.001991
152 0.000962
76 0.00096
40 0.0
39 0.002034
48 0.002051
56 0.002036
63 0.003989
85 0.0
95 0.000951
99 0.001024
103 0.002042
111 0.001967
130 0.0
146 0.0
162 0.0
176 0.002035
188 0.002031
205 0.004031
176 0.001994
78 0.0
38 0.000963
36 0.000986
49 0.002015
57 0.002995
63 0.001002
79 0.000997
95 0.0
100 0.000997
103 0.002996
115 0.000985
130 0.001017
145 0.002992
166 0.000998
180 0.0
194 0.0
206 0.002989
208 0.00301
124 0.0
53 0.00095
25 0.0
28 0.001277
40 0.000965
41 0.001995
51 0.001993
75 0.0
85 0.000974
88 0.001956
92 0.003005
103 0.002956
123 0.000982
140 0.000983
155 0.0
170 0.002759
191 0.0
202 0.001994
190 0.002993
93 0.0
36 0.0
20 0.001033
27 0.002991
35 0.002989
38 0.0
48 0.000963
67 0.000963
80 0.002999
86 0.000969
93 0.002984
105 0.002957
128 0.0
144 0.0
160 0.001002
174 0.003036
185 0.002952
200 0.000998
211 0.0
197 0.000997
124 0.002232
33 0.001
31 0.002997
40 0.003996
47 0.0
52 0.001997
67 0.001
83 0.003027
89 0.004979
92 0.0
99 0.002008
112 0.0
128 0.002853
154 0.0
168 0.003906
181 0.002992
196 0.001994
203 0.00195
173 0.0
97 0.003997
43 0.004039
31 0.004031
42 0.002957
49 0.00199
52 0.001981
77 0.003005
90 0.001996
93 0.002831
94 0.002994
107 0.003023
120 0.001959
137 0.001995
154 0.00399
167 0.003995
184 0.001993
197 0.001993
203 0.00199
106 0.00299
45 0.001994
24 0.004411
26 0.002995
35 0.00296
36 0.001939
44 0.000967
63 0.004022
79 0.004129
88 0.001963
92 0.002027
102 0.003008
129 0.00296
146 0.003032
161 0.004024
176 0.004293
195 0.000997
206 0.002995
190 0.002996
117 0.004236
51 0.003883
26 0.000992
34 0.001989
40 0.002965
46 0.002006
61 0.001996
80 0.004336
90 0.004303
94 0.001993
101 0.002992
114 0.00196
131 0.004991
148 0.005158
169 0.004456
182 0.002029
195 0.003266
209 0.001981
164 0.001998
86 0.004958
41 0.00499
38 0.002963
48 0.00196
55 0.00199
59 0.004434
73 0.004994
95 0.002992
99 0.003
100 0.002942
115 0.003023
131 0.001947
148 0.005938
163 0.004987
182 0.004
197 0.003904
208 0.002956
193 0.005269
121 0.005468
41 0.002986
28 0.002264
34 0.004143
42 0.00399
48 0.004966
64 0.00299
82 0.005347
91 0.005989
96 0.002
103 0.002958
116 0.002992
133 0.005916
150 0.005133
170 0.002992
184 0.002659
205 0.003968
196 0.00299
128 0.003961
56 0.005662
26 0.006025
28 0.004984
34 0.004021
37 0.003037
44 0.005947
62 0.006186
84 0.0049
90 0.004337
98 0.004987
111 0.003986
127 0.003973
145 0.005992
162 0.00639
179 0.003943
191 0.003023
204 0.004946
216 0.006026
202 0.005984
100 0.004506
43 0.003947
34 0.00299
42 0.002969
47 0.003023
52 0.005652
69 0.00696
91 0.004949
96 0.004007
98 0.003981
105 0.006816
118 0.007111
140 0.004382
157 0.00417
180 0.00399
193 0.00602
205 0.004945
215 0.006767
195 0.007647
93 0.003953
45 0.004811
37 0.004242
47 0.007686
56 0.007248
63 0.006266
78 0.006212
102 0.004956
105 0.003976
108 0.002994
117 0.007353
131 0.00726
155 0.005021
170 0.00594
184 0.005279
198 0.005078
210 0.008377
222 0.007431
199 0.005755
90 0.007945
33 0.00398
30 0.00402
39 0.006429
46 0.007862
48 0.007167
67 0.004885
87 0.004953
95 0.005927
98 0.007977
103 0.008093
120 0.00494
143 0.00733
168 0.004938
182 0.003946
195 0.003956
211 0.007009
220 0.007346
202 0.00595
122 0.006022
53 0.006041
26 0.007341
34 0.007542
44 0.005143
49 0.007341
75 0.006836
87 0.00594
96 0.005947
99 0.007685
106 0.007787
120 0.004988
137 0.005579
155 0.006532
176 0.00757
190 0.007167
202 0.006139
221 0.007704
212 0.005978
140 0.007132
64 0.004759
30 0.007331
36 0.007978
54 0.007028
60 0.005902
68 0.005954
93 0.00716
102 0.007103
103 0.00507
110 0.007232
123 0.005947
140 0.004935
158 0.006578
178 0.006867
192 0.006969
205 0.006687
216 0.006712
186 0.006028
102 0.00802
42 0.007597
27 0.007212
41 0.006892
48 0.005992
55 0.006177
70 0.005945
91 0.006711
97 0.006893
100 0.006729
104 0.005808
123 0.006437
140 0.006014
156 0.006272
176 0.007272
195 0.006943
207 0.006817
187 0.007161
109 0.006318
58 0.006276
16 0.006519
19 0.006023
30 0.006093
33 0.006144
41 0.006308
61 0.006254
77 0.0055
84 0.006506
89 0.004962
105 0.006859
122 0.00583
137 0.00671
152 0.005985
165 0.005893
182 0.00608
193 0.005778
178 0.006653
104 0.006849
37 0.004853
14 0.004985
23 0.005951
31 0.006003
38 0.005929
56 0.005008
73 0.004942
80 0.005117
83 0.005891
89 0.004984
103 0.005986
119 0.005871
135 0.006387
159 0.005872
171 0.005543
186 0.004951
173 0.004986
105 0.004825
43 0.005984
20 0.005278
27 0.004943
36 0.00499
40 0.005048
52 0.00499
73 0.004986
91 0.003986
94 0.004024
105 0.005025
118 0.005537
135 0.005366
150 0.005998
165 0.004041
182 0.004888
195 0.004544
205 0.004896
181 0.003917
111 0.004366
40 0.004977
38 0.004986
43 0.004127
46 0.00399
54 0.00399
74 0.004987
92 0.00417
102 0.005265
108 0.003782
117 0.004833
132 0.003798
148 0.005261
173 0.004679
186 0.003988
198 0.00399
213 0.005085
222 0.005003
204 0.004986
138 0.004027
83 0.004988
64 0.004916
68 0.003992
72 0.004925
74 0.005037
97 0.00399
116 0.00395
123 0.003949
127 0.004689
135 0.002989
148 0.003025
163 0.003195
179 0.003993
198 0.003237
209 0.003025
219 0.004021
229 0.002894
243 0.003989
252 0.002989
255 0.003991
255 0.003969
255 0.004432
255 0.003986
255 0.002994
255 0.002992
198 0.004248
137 0.003991
120 0.004034
125 0.003063
135 0.003284
135 0.004033
145 0.002994
159 0.00299
159 0.002035
159 0.003953
163 0.003676
173 0.003098
190 0.002892
203 0.002991
214 0.001999
224 0.002282
236 0.002868
243 0.002548
250 0.003023
255 0.001995
255 0.002994
255 0.001994
255 0.002996
213 0.002821
184 0.003366
146 0.002782
126 0.002991
122 0.002965
127 0.002958
127 0.001994
127 0.001996
134 0.001993
139 0.003013
141 0.002989
141 0.002699
143 0.001912
148 0.002555
157 0.003049
164 0.001815
170 0.00195
179 0.001982
184 0.002027
188 0.002679
191 0.002327
197 0.001996
201 0.002223
207 0.002966
209 0.00196
185 0.000997
142 0.001974
131 0.001657
133 0.002062
140 0.001998
141 0.001992
142 0.00103
148 0.000955
154 0.002016
155 0.002152
155 0.002296
159 0.002005
164 0.002152
172 0.002014
178 0.001005
184 0.002036
191 0.002994
194 0.002949
198 0.001993
202 0.000955
192 0.0
166 0.00204
150 0.001199
149 0.00217
154 0.001614
160 0.000999
161 0.001987
163 0.001995
169 0.000997
170 0.001
170 0.000958
171 0.000995
176 0.001996
181 0.002034
186 0.001998
190 0.000965
194 0.000916
198 0.00083
234 0.000995
225 0.000997
177 0.000997
169 0.000997
174 0.000996
182 0.001041
185 0.001004
186 0.001036
192 0.000997
196 0.0
195 0.0
194 0.000992
197 0.000961
201 0.000693
210 0.000964
215 0.0
220 0.000998
224 0.000963
225 0.0
203 0.000996
172 0.0
159 0.0
161 0.000997
166 0.000599
167 0.0
167 0.001
175 0.0
179 0.000999
178 0.000996
177 0.0
178 0.0
185 0.001002
189 0.0
193 0.0
197 0.0
201 0.0
205 0.0
197 0.0
150 0.0
141 0.0
142 0.000997
145 0.0
146 0.0
145 0.003992
150 0.001003
156 0.0
157 0.002031
155 0.001002
156 0.0
160 0.0
168 0.001999
171 0.0
174 0.000996
177 0.0
182 0.000999
184 0.0
176 0.0
139 0.000964
124 0.000955
123 0.0
126 0.003012
125 0.002994
123 0.003044
130 0.000995
135 0.0
133 0.001003
132 0.000962
135 0.002061
139 0.002033
145 0.000959
149 0.0
153 0.0
156 0.001996
159 0.002268
163 0.002011
166 0.002042
170 0.000999
170 0.001994
136 0.000996
113 0.003034
106 0.002156
107 0.0
105 0.0
104 0.0
105 0.002229
112 0.002283
118 0.002033
117 0.001995
120 0.000997
124 0.000962
130 0.0
135 0.002254
140 0.003032
144 0.003036
149 0.0
152 0.000999
155 0.001636
159 0.002042
166 0.000967
171 0.001993
175 0.003034
180 0.0
175 0.0
145 0.000966
117 0.001995
107 0.001227
106 0.0
104 0.000999
101 0.001021
99 0.00113
110 0.000962
114 0.002991
114 0.003942
115 0.001964
120 0.0
125 0.0
130 0.001249
136 0.001251
142 0.0
146 0.0
150 0.0
155 0.001999
179 0.0
185 0.004027
192 0.002904
203 0.0
210 0.0
197 0.001024
151 0.002682
115 0.003695
106 0.00105
111 0.000998
112 0.0
110 0.00225
119 0.000962
129 0.002994
133 0.001999
134 0.000992
137 0.001993
145 0.000997
154 0.002338
163 0.002332
173 0.000987
181 0.0
187 0.0
193 0.001998
203 0.0
209 0.003998
217 0.003034
215 0.001019
177 0.0
136 0.000961
122 0.003431
125 0.003046
131 0.001966
130 0.0
130 0.0
139 0.002539
151 0.0
152 0.003994
153 0.004025
158 0.002997
170 0.0
179 0.001004
187 0.0
193 0.003279
200 0.002994
208 0.002998
212 0.002026
218 0.001992
229 0.000996
237 0.000998
245 0.003039
247 0.004069
195 0.003044
148 0.0
131 0.002918
133 0.002996
140 0.003017
138 0.002986
136 0.002006
142 0.002955
156 0.002993
158 0.000966
158 0.003801
160 0.003994
172 0.001997
180 0.002052
188 0.002232
196 0.003177
203 0.004118
209 0.003049
214 0.001971
219 0.002995
229 0.002962
235 0.002992
223 0.005022
176 0.004028
128 0.002992
123 0.001991
133 0.001958
138 0.004029
137 0.004988
139 0.001956
149 0.003404
153 0.002025
150 0.001992
152 0.002005
159 0.005027
167 0.004825
178 0.003102
185 0.002666
190 0.001987
196 0.00407
200 0.003959
208 0.001957
210 0.002954
181 0.002047
105 0.001001
93 0.002957
99 0.004989
106 0.00421
105 0.003053
107 0.002964
116 0.00376
122 0.005051
123 0.004266
124 0.001996
127 0.001992
134 0.001952
151 0.002958
159 0.003957
165 0.005405
171 0.004311
178 0.003098
185 0.00399
189 0.003985
174 0.002991
120 0.005448
74 0.005668
59 0.001995
66 0.002967
70 0.003958
68 0.003975
72 0.003027
83 0.006559
88 0.004869
89 0.00318
91 0.002035
97 0.002915
106 0.005726
117 0.005983
128 0.004001
136 0.003945
146 0.003987
154 0.003988
159 0.00399
143 0.005985
90 0.006009
36 0.003554
30 0.003008
37 0.002946
42 0.00602
39 0.006288
43 0.003043
55 0.003006
58 0.003989
57 0.003953
61 0.0048
70 0.005462
79 0.005669
93 0.004514
102 0.002471
110 0.004144
119 0.006275
125 0.005845
108 0.003992
54 0.002981
2 0.003023
5 0.004962
11 0.002998
14 0.005852
15 0.006981
29 0.00503
39 0.003989
43 0.004029
45 0.006112
49 0.006606
64 0.004802
77 0.00442
95 0.004987
104 0.004958
112 0.004175
121 0.006801
127 0.007473
84 0.003989
28 0.003937
0 0.003991
0 0.007132
0 0.006982
1 0.004955
1 0.004025
24 0.003953
38 0.004951
44 0.003946
48 0.007494
56 0.006961
67 0.006506
85 0.005308
98 0.005696
108 0.005953
117 0.006616
130 0.007951
140 0.005363
152 0.006954
121 0.006005
62 0.005483
25 0.005591
18 0.007962
23 0.006712
26 0.004987
25 0.005953
34 0.004949
51 0.007717
64 0.00796
67 0.004023
78 0.008231
90 0.003
104 0.004534
115 0.006026
130 0.007743
140 0.007948
149 0.005978
157 0.006004
164 0.005991
174 0.007895
185 0.007512
192 0.005279
119 0.006995
66 0.006991
51 0.006029
57 0.005986
64 0.007979
64 0.007979
68 0.005983
84 0.005984
94 0.005983
95 0.007012
100 0.006979
107 0.006448
124 0.007946
141 0.005951
151 0.00628
161 0.006458
169 0.007723
174 0.007785
186 0.007355
191 0.006031
199 0.006424
205 0.007827
161 0.005985
96 0.006981
52 0.006981
57 0.005962
57 0.006934
55 0.006072
57 0.006984
73 0.00693
86 0.00646
91 0.006907
94 0.006491
102 0.006747
114 0.006462
132 0.006607
147 0.005986
161 0.006948
167 0.005919
174 0.007092
181 0.005461
191 0.007266
199 0.005985
211 0.007423
217 0.006419
214 0.006656
154 0.007014
85 0.006993
50 0.00599
56 0.006546
58 0.006382
57 0.00627
60 0.006109
75 0.007198
86 0.005754
89 0.005699
92 0.005945
101 0.005971
112 0.005984
126 0.006731
146 0.005982
158 0.005956
168 0.006235
176 0.006101
184 0.006471
192 0.006755
201 0.005932
195 0.005002
159 0.006394
75 0.005877
54 0.006615
60 0.005979
75 0.005983
75 0.006947
86 0.006018
100 0.005987
105 0.00648
105 0.005988
109 0.00508
123 0.005027
138 0.005982
153 0.006108
165 0.004833
176 0.006364
189 0.005477
197 0.005983
208 0.004974
216 0.004962
206 0.00502
145 0.00522
77 0.004983
45 0.005987
51 0.004689
59 0.005523
61 0.004989
62 0.004131
83 0.004986
93 0.003968
98 0.005289
102 0.004987
112 0.005863
126 0.003858
143 0.003991
161 0.005677
171 0.003883
181 0.004865
189 0.00554
196 0.004688
212 0.003953
211 0.004732
155 0.004956
61 0.004038
37 0.005382
42 0.005264
52 0.004993
55 0.004013
57 0.005154
70 0.004957
84 0.004953
92 0.004955
96 0.005015
104 0.003005
119 0.003992
141 0.005031
156 0.004966
167 0.00399
178 0.003934
186 0.003852
197 0.003989
205 0.003928
195 0.0039
132 0.002934
41 0.003989
39 0.004785
52 0.00399
63 0.00394
66 0.003624
77 0.004023
91 0.004987
99 0.00399
100 0.004587
105 0.003702
117 0.00399
134 0.002981
160 0.002992
172 0.002995
183 0.003989
197 0.003981
205 0.004239
197 0.003964
133 0.002876
60 0.002745
22 0.003621
27 0.003992
37 0.0029
39 0.002866
49 0.002991
66 0.002881
74 0.003989
78 0.00296
83 0.003991
95 0.003957
111 0.002994
127 0.002996
144 0.00295
156 0.001994
168 0.002997
179 0.00302
173 0.002844
104 0.002993
30 0.003993
0 0.003011
0 0.002995
1 0.003381
1 0.001846
3 0.002532
26 0.002784
44 0.001883
50 0.002046
53 0.002511
69 0.002034
85 0.003033
102 0.00278
117 0.003018
134 0.002978
146 0.002992
156 0.002993
167 0.001705
167 0.002979
91 0.002988
18 0.001864
0 0.002996
0 0.002621
0 0.002016
0 0.003026
3 0.002
31 0.001919
41 0.002071
45 0.001747
49 0.003032
63 0.001996
84 0.002008
101 0.001998
116 0.001981
137 0.001995
149 0.001859
159 0.002939
170 0.002123
166 0.002578
100 0.00096
29 0.00199
0 0.002954
61 0.001978
64 0.001996
64 0.001872
67 0.001828
85 0.000999
90 0.001958
91 0.001964
94 0.001966
104 0.002002
112 0.002039
122 0.000997
130 0.001998
137 0.000779
144 0.001001
149 0.001998
153 0.000997
163 0.00185
167 0.001075
150 0.000998
104 0.001006
64 0.001872
60 0.000714
62 0.000561
62 0.000949
60 0.000907
68 0.001963
81 0.000998
89 0.001111
94 0.000998
98 0.000979
106 0.00104
115 0.001995
127 0.001998
135 0.000999
142 0.000997
147 0.000993
153 0.000998
161 0.0
166 0.0
171 0.0
181 0.0
187 0.000998
193 0.001025
199 0.0
182 0.0
114 0.0
81 0.000592
75 0.001001
78 0.0
80 0.0
77 0.0
82 0.001001
97 0.001001
100 0.0
101 0.001001
105 0.00097
112 0.00096
124 0.0
133 0.00096
140 0.0
147 0.0
153 0.0
159 0.0
164 0.000998
173 0.0
181 0.0
177 0.0
140 0.0
98 0.000966
77 0.0
80 0.0
85 0.0
86 0.001001
89 0.0
100 0.0
108 0.0
111 0.001002
114 0.0
121 0.0
133 0.000964
139 0.0
151 0.0
158 0.0
164 0.0
170 0.0
175 0.0
180 0.002035
187 0.002038
183 0.00202
138 0.001038
84 0.001005
74 0.0
77 0.0
80 0.001996
80 0.001001
82 0.0
92 0.0
102 0.0
107 0.002047
108 0.001212
116 0.002038
124 0.002041
138 0.0
148 0.0
155 0.0
161 0.002269
167 0.001961
174 0.000998
180 0.0
186 0.0
170 0.002714
122 0.001994
74 0.0
75 0.001035
82 0.001995
85 0.0
86 0.0
94 0.001002
105 0.001933
109 0.001994
110 0.0
113 0.0
121 0.001
130 0.001995
146 0.000924
154 0.003032
161 0.001997
168 0.000948
174 0.0
177 0.0
151 0.001248
103 0.001184
69 0.0
70 0.0
77 0.0
81 0.001205
84 0.0
95 0.002048
102 0.002352
104 0.0
106 0.0
111 0.0
120 0.003241
131 0.003026
143 0.0
150 0.0
157 0.0
165 0.001215
176 0.000964
169 0.003033
125 0.002823
70 0.0
58 0.0
61 0.0
65 0.002313
65 0.002181
67 0.001995
78 0.001997
88 0.0
92 0.002031
96 0.000997
103 0.002956
112 0.002958
125 0.0
133 0.0
141 0.0
147 0.002994
154 0.003036
161 0.0
154 0.0
111 0.001952
68 0.002729
52 0.001956
57 0.001997
60 0.003105
60 0.00296
68 0.0
81 0.0
88 0.003031
90 0.003991
92 0.002992
101 0.002011
111 0.0
120 0.0
134 0.0
141 0.0
147 0.003198
154 0.002729
160 0.003027
148 0.0
103 0.000985
67 0.003006
57 0.003035
64 0.001963
68 0.001951
69 0.002024
83 0.001994
94 0.00302
98 0.002987
98 0.004187
105 0.001985
114 0.002742
124 0.001945
134 0.004105
142 0.004062
151 0.001947
156 0.001994
162 0.001933
169 0.001962
144 0.001458
94 0.005056
63 0.003297
58 0.001952
61 0.002999
62 0.0
63 0.003992
69 0.004034
86 0.003007
93 0.002002
96 0.001989
103 0.001962
112 0.002959
122 0.004991
132 0.004987
143 0.002996
149 0.001986
156 0.00199
162 0.005004
169 0.004152
172 0.002574
137 0.002136
87 0.002994
59 0.002025
62 0.003026
65 0.004292
65 0.004016
71 0.001957
84 0.001994
95 0.002942
99 0.003989
100 0.004329
108 0.002995
118 0.001957
129 0.002995
144 0.003993
152 0.00303
159 0.004203
165 0.004412
170 0.005363
179 0.001993
183 0.002953
156 0.003287
104 0.004655
74 0.004979
72 0.002962
78 0.002962
81 0.003
86 0.002955
99 0.001992
108 0.005776
110 0.004703
112 0.002022
118 0.002953
128 0.00198
138 0.005523
148 0.005719
158 0.003487
165 0.003955
176 0.002659
182 0.002
179 0.002272
140 0.005177
91 0.005985
70 0.004071
73 0.003422
78 0.003076
80 0.005224
82 0.005485
96 0.002981
107 0.002026
111 0.004711
114 0.003187
121 0.002993
131 0.006081
142 0.005992
155 0.003989
163 0.003946
170 0.004815
175 0.006203
182 0.005984
191 0.004174
177 0.003993
93 0.004163
70 0.002961
69 0.002992
74 0.005807
76 0.005986
77 0.001992
87 0.003475
100 0.003903
108 0.006161
111 0.006611
115 0.003996
123 0.004996
141 0.003991
152 0.005021
161 0.004988
169 0.006521
176 0.006418
183 0.003517
190 0.004619
197 0.002997
188 0.007322
137 0.007383
81 0.002955
74 0.00405
85 0.004986
88 0.005039
89 0.003808
98 0.006314
111 0.00646
117 0.007533
118 0.005984
121 0.005169
129 0.003987
140 0.006447
151 0.007978
165 0.005953
176 0.007012
184 0.005015
189 0.004988
197 0.005713
202 0.006757
178 0.007412
109 0.005138
82 0.003904
81 0.003977
92 0.008152
96 0.007229
99 0.006045
116 0.00835
122 0.00582
124 0.004898
125 0.004918
131 0.007852
141 0.007005
156 0.004982
168 0.003988
177 0.003876
187 0.007994
193 0.007762
200 0.004952
205 0.008129
163 0.00499
107 0.006899
79 0.005947
76 0.008019
85 0.006981
88 0.006396
89 0.005461
96 0.005067
112 0.007252
118 0.007522
120 0.004988
124 0.007535
137 0.007057
148 0.00698
160 0.006952
173 0.006981
181 0.006954
188 0.005699
195 0.005926
200 0.006982
158 0.007523
119 0.007793
75 0.00594
79 0.00661
87 0.005768
90 0.006886
93 0.006614
107 0.007901
115 0.007756
116 0.006759
118 0.005877
125 0.007158
135 0.007465
146 0.005981
157 0.005984
171 0.007013
182 0.007024
186 0.006322
192 0.006185
167 0.007622
113 0.006495
79 0.006566
71 0.005909
82 0.006951
87 0.006977
91 0.006982
98 0.006013
113 0.00679
114 0.007109
114 0.00617
121 0.006191
131 0.00695
142 0.007109
151 0.006183
163 0.005988
170 0.004983
174 0.0054
182 0.007087
167 0.006085
83 0.00657
59 0.007015
58 0.005997
64 0.005788
66 0.006039
68 0.006708
78 0.005011
92 0.005922
95 0.005987
96 0.005981
100 0.006948
108 0.006678
124 0.005023
133 0.005991
144 0.006462
151 0.005982
158 0.005966
163 0.005983
145 0.006085
82 0.006772
54 0.005964
50 0.005929
54 0.006491
58 0.005017
62 0.005691
73 0.005983
87 0.005197
90 0.006231
92 0.006127
96 0.006147
105 0.004746
118 0.004658
128 0.005019
137 0.004955
144 0.004985
151 0.003986
162 0.004984
166 0.004945
130 0.005783
83 0.004991
60 0.005721
59 0.005027
66 0.004984
69 0.005168
72 0.005022
82 0.00399
94 0.004101
98 0.004988
101 0.00499
107 0.004624
120 0.003989
131 0.004989
140 0.004708
148 0.005135
156 0.005038
162 0.004014
169 0.003985
174 0.004658
158 0.004929
110 0.00405
65 0.004981
66 0.004682
72 0.004709
74 0.003991
78 0.005033
90 0.004362
100 0.003909
104 0.003842
106 0.003993
111 0.004989
120 0.003986
130 0.003989
148 0.003995
156 0.003876
163 0.003989
170 0.004986
174 0.003994
180 0.004994
188 0.004024
190 0.004686
137 0.003675
87 0.004153
66 0.00299
65 0.005033
69 0.004601
70 0.003046
73 0.004292
90 0.003992
99 0.003076
102 0.003543
104 0.004033
110 0.004111
123 0.003992
134 0.003964
144 0.003029
153 0.002909
167 0.00404
173 0.004034
179 0.003997
188 0.003951
194 0.003986
201 0.003983
208 0.002992
215 0.002995
223 0.003992
124 0.002943
237 0.00399
218 0.004004
107 0.003172
78 0.002507
76 0.003038
85 0.003035
86 0.003742
85 0.002669
91 0.002813
102 0.003666
106 0.002994
107 0.003173
110 0.003228
118 0.002949
136 0.003034
146 0.002992
156 0.001943
166 0.002986
171 0.003256
176 0.002992
181 0.001894
186 0.002994
195 0.003945
197 0.001951
153 0.003012
100 0.002991
73 0.002982
79 0.00318
86 0.002695
90 0.003022
97 0.002612
108 0.002712
115 0.00191
116 0.002011
117 0.003025
125 0.002992
137 0.002992
150 0.002993
172 0.002028
182 0.001993
190 0.001521
195 0.001998
202 0.002219
209 0.001591
217 0.001736
219 0.002138
174 0.001954
96 0.00199
72 0.001996
72 0.002994
81 0.001995
83 0.001718
84 0.001998
95 0.001996
108 0.002965
110 0.001965
111 0.001956
117 0.002032
126 0.001958
141 0.000997
153 0.002037
164 0.001997
177 0.000991
182 0.002559
187 0.002091
192 0.000997
201 0.001995
204 0.000569
162 0.00074
101 0.002031
68 0.000991
65 0.002203
73 0.001995
77 0.001961
80 0.000998
90 0.000997
98 0.000951
101 0.0
102 0.000855
107 0.001424
117 0.0
128 0.0
138 0.000951
150 0.001007
158 0.002031
163 0.0
173 0.000667
176 0.001214
148 0.000996
96 0.0
65 0.0
61 0.0
69 0.0
74 0.0
76 0.0
83 0.001
97 0.0
100 0.0
101 0.0
108 0.0
117 0.0
128 0.0
138 0.0
149 0.0
156 0.000997
162 0.000999
168 0.0
172 0.000992
133 0.0
80 0.0
49 0.0
51 0.0
55 0.001003
56 0.000906
58 0.0
73 0.0
85 0.0
88 0.000998
90 0.002032
95 0.000994
106 0.0
117 0.0
134 0.001
142 0.001066
148 0.0
155 0.0
162 0.000967
169 0.00097
170 0.0
135 0.0
82 0.000965
54 0.0
51 0.0
55 0.002999
57 0.002028
61 0.003029
78 0.0
87 0.0
89 0.0
91 0.003025
97 0.004037
110 0.000997
120 0.000909
127 0.00096
138 0.001993
146 0.002025
155 0.002985
160 0.001995
168 0.000958
175 0.0
175 0.001
135 0.003039
85 0.003015
61 0.000992
60 0.0
67 0.000998
69 0.002951
70 0.00238
89 0.001954
96 0.001966
97 0.0
100 0.000994
107 0.0
118 0.0
128 0.001189
138 0.002993
148 0.000999
154 0.000968
157 0.001995
162 0.0
172 0.000966
179 0.003028
176 0.003274
116 0.0
75 0.0
61 0.0
63 0.00241
67 0.002035
68 0.000997
70 0.000982
84 0.0
96 0.003036
101 0.0
104 0.002995
111 0.002996
124 0.001006
134 0.000996
145 0.000998
152 0.001957
159 0.002991
168 0.000997
173 0.000989
178 0.001003
184 0.001986
196 0.0
205 0.002994
204 0.001996
134 0.0
83 0.000958
64 0.000996
65 0.002279
70 0.003997
71 0.001038
72 0.00203
82 0.001962
96 0.003989
104 0.0
106 0.002451
111 0.002994
125 0.0
136 0.0
146 0.0
155 0.003317
163 0.002032
171 0.001005
177 0.0
182 0.0
188 0.002006
199 0.0
207 0.002994
213 0.002995
160 0.00297
101 0.001999
74 0.0
74 0.004028
83 0.003024
88 0.000965
89 0.0
98 0.001028
109 0.002987
113 0.000994
114 0.003306
119 0.004033
129 0.003256
144 0.000928
156 0.0
166 0.000963
174 0.003028
180 0.003991
186 0.000949
191 0.000988
197 0.0
206 0.0
169 0.0
108 0.003731
74 0.003991
70 0.002054
78 0.001991
84 0.000962
85 0.003991
90 0.002999
107 0.001995
113 0.001995
114 0.002029
121 0.001957
131 0.0
144 0.003993
156 0.002994
170 0.002001
179 0.001236
186 0.002992
191 0.004033
196 0.003992
204 0.001957
212 0.002992
220 0.00199
157 0.0
95 0.002006
67 0.004135
66 0.003654
76 0.001998
80 0.000998
80 0.001924
86 0.003992
99 0.004226
108 0.002989
109 0.002989
111 0.002153
126 0.002007
139 0.002003
151 0.004956
161 0.004987
173 0.001996
180 0.001709
184 0.000997
189 0.004986
195 0.004606
205 0.002998
192 0.0
130 0.002986
65 0.001997
64 0.002
74 0.004089
81 0.004023
85 0.001935
92 0.003063
103 0.002975
108 0.00602
108 0.005983
111 0.002993
120 0.000958
131 0.003037
151 0.003041
161 0.001991
169 0.005564
175 0.004459
181 0.005019
190 0.003009
183 0.002988
130 0.003025
77 0.005319
55 0.005984
59 0.002992
67 0.004006
72 0.002997
78 0.002957
90 0.002955
98 0.005454
100 0.005911
102 0.00299
110 0.002031
121 0.00303
133 0.005968
145 0.005388
157 0.001995
163 0.003998
173 0.002013
181 0.002992
185 0.002993
154 0.005985
93 0.00602
51 0.002992
49 0.00291
55 0.003027
60 0.00641
61 0.006641
69 0.002989
83 0.004023
92 0.003686
93 0.003668
98 0.003538
106 0.005564
117 0.007289
132 0.003991
141 0.002992
148 0.00395
154 0.005383
161 0.006258
169 0.003954
171 0.002992
98 0.003954
59 0.004018
49 0.00295
54 0.006371
61 0.005987
63 0.002958
68 0.002988
81 0.003989
90 0.005983
91 0.006982
93 0.004946
100 0.004005
118 0.002958
128 0.004986
136 0.005301
144 0.006666
150 0.006239
159 0.003948
164 0.004248
145 0.004024
94 0.006251
57 0.006984
49 0.002974
54 0.003989
58 0.00702
62 0.00399
74 0.005002
87 0.004633
92 0.007428
93 0.007451
99 0.003951
108 0.003021
120 0.00399
130 0.006891
139 0.007002
149 0.00317
157 0.007303
166 0.00451
172 0.004602
152 0.004955
98 0.007086
59 0.007022
49 0.005993
53 0.004985
55 0.003046
58 0.007715
62 0.006966
80 0.003977
93 0.007005
96 0.005284
101 0.004848
109 0.004886
124 0.007981
132 0.007597
145 0.00598
154 0.005951
161 0.004987
169 0.007977
172 0.00798
181 0.005954
191 0.007339
189 0.004984
135 0.004358
82 0.005811
60 0.007865
64 0.007601
69 0.004972
70 0.004284
72 0.003942
83 0.007763
99 0.008214
102 0.00496
106 0.007509
113 0.005947
124 0.006592
135 0.006054
146 0.007761
156 0.007797
164 0.004962
170 0.003027
176 0.00402
182 0.007833
190 0.007533
179 0.005915
92 0.007207
69 0.006491
69 0.006921
77 0.006777
82 0.006984
84 0.007833
96 0.005983
108 0.005937
113 0.005968
115 0.00772
120 0.00769
129 0.005943
149 0.006958
160 0.007365
171 0.006322
178 0.006209
185 0.005775
191 0.007483
198 0.007405
206 0.004946
202 0.004951
150 0.004987
81 0.005994
65 0.00618
71 0.007437
74 0.006161
76 0.005109
85 0.006341
95 0.00526
109 0.005952
112 0.006026
115 0.006017
121 0.005489
136 0.00602
149 0.006021
160 0.005985
177 0.006173
185 0.006927
193 0.005879
198 0.005957
205 0.005949
213 0.006651
221 0.006742
186 0.006309
116 0.006487
84 0.005482
67 0.006077
74 0.004951
84 0.006538
85 0.006768
97 0.006299
110 0.00643
115 0.005253
115 0.005989
119 0.005008
131 0.005972
143 0.006299
156 0.006378
168 0.005991
178 0.005762
189 0.006213
196 0.006028
204 0.005667
210 0.004956
186 0.004986
121 0.005955
79 0.00498
70 0.00601
81 0.005782
89 0.005785
93 0.004995
100 0.004986
119 0.005857
122 0.005972
123 0.005128
128 0.005675
138 0.005629
151 0.005676
165 0.00563
180 0.005002
189 0.005631
196 0.005021
202 0.00499
208 0.00499
199 0.005693
134 0.00403
79 0.00499
59 0.004947
64 0.004797
72 0.004985
77 0.003988
80 0.00399
96 0.00399
107 0.004569
111 0.003987
112 0.003989
122 0.005133
133 0.004547
146 0.004019
161 0.004258
170 0.004496
177 0.004947
184 0.003949
190 0.00402
196 0.004189
165 0.004396
100 0.002986
61 0.002991
57 0.004233
64 0.00425
68 0.004024
70 0.004174
82 0.002959
94 0.004035
98 0.003954
98 0.002949
105 0.002992
113 0.00298
124 0.003991
136 0.003997
151 0.004427
158 0.0043
164 0.003586
173 0.004325
174 0.004004
139 0.004019
84 0.002955
55 0.004033
55 0.00399
62 0.00399
67 0.004001
70 0.004508
90 0.002993
98 0.003993
100 0.003994
103 0.002992
110 0.002991
121 0.002955
132 0.002946
142 0.001993
153 0.003027
159 0.003309
165 0.002961
173 0.003112
171 0.00351
122 0.003003
72 0.003392
49 0.001993
51 0.002993
55 0.001993
57 0.002992
61 0.001996
72 0.00303
90 0.002998
95 0.001992
97 0.002992
106 0.003033
117 0.003
128 0.002948
138 0.002992
150 0.002992
156 0.00303
162 0.001994
169 0.002031
176 0.002007
179 0.002051
139 0.002993
84 0.002991
52 0.002992
56 0.003184
61 0.002051
63 0.003001
70 0.001965
84 0.001994
96 0.001993
99 0.001994
100 0.002991
108 0.002011
117 0.001998
128 0.001956
144 0.001998
154 0.002128
162 0.002031
167 0.001941
175 0.002092
182 0.00103
174 0.002259
125 0.001994
79 0.00101
63 0.001991
69 0.001996
75 0.001958
81 0.002576
92 0.001991
105 0.001937
110 0.001993
112 0.001936
116 0.000997
125 0.001219
136 0.000997
147 0.001996
160 0.001003
167 0.000997
173 0.000924
183 0.001877
190 0.001999
196 0.001773
178 0.000959
104 0.002002
71 0.001658
64 0.000997
70 0.001535
74 0.000998
76 0.0
84 0.0
107 0.002227
112 0.000572
113 0.001937
117 0.001181
126 0.001995
137 0.001
152 0.000988
162 0.000959
171 0.0
177 0.001013
182 0.0
190 0.000956
199 0.0
200 0.0
153 0.000997
96 0.000997
70 0.0
70 0.0
78 0.000952
81 0.000998
83 0.000998
93 0.0
108 0.0
116 0.0
118 0.0
125 0.001002
136 0.0
147 0.0
158 0.0
168 0.001
179 0.0
185 0.0
189 0.0
194 0.000999
199 0.0
209 0.0
220 0.0
181 0.000999
116 0.0
82 0.0
77 0.001003
86 0.000961
96 0.000991
98 0.0
110 0.000969
122 0.000997
124 0.0
125 0.000943
133 0.0
144 0.000961
156 0.000994
168 0.000992
179 0.000997
187 0.000994
195 0.002996
200 0.002992
206 0.000993
212 0.000994
220 0.0
218 0.003024
116 0.0
77 0.003026
69 0.003025
79 0.00094
85 0.000998
87 0.0
93 0.002955
106 0.001994
119 0.000953
121 0.001026
122 0.001
128 0.002991
147 0.0
161 0.002029
173 0.001997
185 0.0
193 0.000998
198 0.0
204 0.0
210 0.002997
218 0.002992
193 0.0
124 0.000997
80 0.001042
74 0.001011
86 0.0
94 0.001991
97 0.002991
110 0.000998
121 0.0
126 0.000965
126 0.003984
128 0.001994
138 0.0
150 0.0
163 0.001017
182 0.0
190 0.000989
196 0.002033
202 0.002992
209 0.000999
197 0.000969
135 0.0
84 0.002024
66 0.001967
76 0.001957
89 0.0
96 0.0
109 0.0
119 0.000963
122 0.002955
120 0.001994
123 0.000979
132 0.000998
145 0.0
157 0.001994
169 0.001995
182 0.0
190 0.001014
197 0.0
164 0.000997
99 0.000964
59 0.002307
51 0.004986
63 0.0
71 0.0
75 0.000971
80 0.001961
94 0.003
105 0.001032
107 0.001027
108 0.0
121 0.0
133 0.000968
146 0.002313
157 0.004956
168 0.000998
176 0.000963
184 0.000976
179 0.004005
129 0.004989
59 0.0
44 0.0
48 0.0
59 0.001
62 0.001
69 0.004953
83 0.005024
96 0.000999
97 0.0
99 0.002943
106 0.0
117 0.003028
129 0.003031
144 0.0
153 0.0
165 0.001989
171 0.001994
178 0.0
180 0.002994
139 0.002994
65 0.0
46 0.001996
49 0.0
57 0.00304
61 0.003966
65 0.002007
77 0.0
95 0.002023
97 0.001958
98 0.0
104 0.003999
115 0.003994
130 0.0
140 0.002986
149 0.000963
156 0.004117
163 0.003305
172 0.002024
177 0.0
123 0.002999
73 0.001995
54 0.000998
58 0.004234
67 0.00502
73 0.000997
78 0.002027
91 0.003006
102 0.003961
105 0.004266
107 0.000971
112 0.002993
129 0.00395
141 0.00202
152 0.002987
160 0.00429
167 0.003344
175 0.002993
181 0.001962
188 0.000957
177 0.00499
121 0.00426
62 0.002037
53 0.002958
62 0.002214
65 0.003974
69 0.0
77 0.004349
92 0.004034
102 0.002956
104 0.002996
107 0.002952
115 0.004156
127 0.00502
143 0.001995
154 0.002992
167 0.002004
174 0.00199
180 0.002987
186 0.004032
194 0.004989
166 0.003047
103 0.002994
65 0.002963
57 0.004008
63 0.005852
70 0.00499
73 0.002998
83 0.004433
102 0.003243
107 0.002017
108 0.001987
111 0.005032
119 0.005255
135 0.002999
147 0.002983
158 0.002966
166 0.005285
173 0.00525
181 0.002976
190 0.005269
195 0.002419
158 0.002994
98 0.002957
68 0.004989
65 0.005946
78 0.00299
85 0.001994
88 0.003005
98 0.005946
111 0.005981
117 0.003146
117 0.005438
126 0.001995
137 0.002964
150 0.002992
162 0.005987
172 0.005986
183 0.002987
189 0.00303
197 0.002992
201 0.00526
169 0.005311
89 0.003989
62 0.00601
69 0.003019
77 0.003021
81 0.004014
85 0.005252
98 0.005961
113 0.002959
116 0.002975
118 0.002958
123 0.006167
134 0.006155
151 0.00399
167 0.005949
180 0.00399
188 0.004994
195 0.004941
202 0.006955
197 0.006168
117 0.003037
71 0.003043
60 0.00299
66 0.005983
74 0.007014
81 0.003183
91 0.006682
110 0.002983
117 0.003151
118 0.00392
121 0.006126
128 0.006294
145 0.00395
158 0.002989
170 0.004038
181 0.003992
190 0.006983
198 0.007118
208 0.006125
173 0.007197
89 0.002982
65 0.003984
68 0.003025
80 0.006988
89 0.007979
96 0.004998
108 0.004962
120 0.004977
124 0.007776
124 0.007607
132 0.007979
143 0.006848
160 0.005107
173 0.004947
184 0.003949
193 0.007026
202 0.007234
208 0.004934
166 0.003951
101 0.003896
69 0.007656
66 0.007641
83 0.007191
92 0.007778
100 0.003034
114 0.004955
122 0.00499
124 0.007581
125 0.007395
133 0.005571
144 0.003945
158 0.004598
170 0.007251
184 0.006947
199 0.007019
207 0.007015
190 0.005991
123 0.005951
72 0.005985
57 0.00751
62 0.007972
74 0.004237
79 0.004977
85 0.005985
104 0.007011
115 0.007816
119 0.007754
121 0.007769
133 0.005154
146 0.003964
159 0.006113
171 0.007942
184 0.008021
193 0.003948
201 0.004986
208 0.005979
171 0.007572
101 0.007537
58 0.007111
65 0.007829
75 0.00495
81 0.005306
86 0.005952
102 0.007041
114 0.006984
118 0.007011
119 0.00602
123 0.005954
132 0.006016
150 0.00693
167 0.004976
181 0.007543
191 0.006732
202 0.006684
205 0.005961
193 0.006027
108 0.007249
69 0.005984
66 0.006015
80 0.006014
90 0.006012
95 0.006075
116 0.006022
124 0.006897
125 0.006622
125 0.005365
130 0.006209
140 0.004015
158 0.006981
171 0.005929
186 0.005986
192 0.006614
202 0.004421
209 0.006896
123 0.00528
72 0.006443
58 0.006914
68 0.006624
76 0.006852
84 0.00655
91 0.006767
105 0.006297
117 0.004785
118 0.004916
119 0.005933
126 0.006183
146 0.00503
160 0.004986
172 0.006407
185 0.004896
191 0.004947
203 0.005431
208 0.006166
171 0.005196
98 0.005243
54 0.006199
54 0.006207
64 0.005983
75 0.005973
81 0.005016
95 0.00502
110 0.004978
112 0.004987
114 0.005018
120 0.005983
131 0.005984
149 0.005682
162 0.005802
173 0.005226
183 0.004948
197 0.005044
205 0.005371
203 0.005073
120 0.005752
68 0.005522
53 0.005633
59 0.005501
72 0.004988
79 0.005609
87 0.004943
102 0.004036
112 0.004986
113 0.004735
115 0.004887
123 0.003993
135 0.004987
154 0.005019
166 0.005063
177 0.004946
185 0.00498
194 0.005003
199 0.004985
157 0.003989
91 0.004936
55 0.004955
65 0.003989
77 0.00477
85 0.003989
97 0.005012
111 0.004986
118 0.003635
119 0.004674
119 0.003952
128 0.004988
141 0.004617
155 0.003497
176 0.003959
186 0.004469
195 0.004008
204 0.00402
194 0.003991
125 0.004021
70 0.003989
52 0.004096
57 0.003988
72 0.004213
78 0.002981
84 0.003046
107 0.00399
114 0.00399
115 0.002992
118 0.003018
129 0.002992
142 0.002987
156 0.002999
169 0.004
180 0.00349
194 0.002994
203 0.003066
204 0.003549
103 0.00398
59 0.003021
51 0.003068
61 0.003989
76 0.003988
82 0.002943
91 0.003973
105 0.002959
115 0.002989
117 0.003948
119 0.002992
127 0.00401
148 0.002991
163 0.002004
175 0.002991
185 0.00399
197 0.002939
205 0.00298
203 0.002992
144 0.003028
81 0.001994
58 0.003943
67 0.001995
82 0.002001
95 0.002016
106 0.002993
120 0.001001
123 0.003035
123 0.002949
126 0.003989
135 0.003033
148 0.002456
162 0.00283
174 0.002968
188 0.001964
198 0.001807
209 0.002131
173 0.002992
101 0.002992
62 0.001996
57 0.0029
71 0.002036
82 0.002465
87 0.001954
97 0.002026
111 0.003034
120 0.001996
119 0.001997
127 0.001995
138 0.001953
152 0.001947
165 0.001956
176 0.001945
189 0.002
197 0.00201
205 0.001994
190 0.001944
119 0.00199
58 0.000996
52 0.002023
68 0.001974
76 0.001
80 0.001994
93 0.001994
107 0.002993
114 0.001996
115 0.001943
119 0.000998
128 0.000957
141 0.002032
159 0.00195
170 0.001807
185 0.001994
193 0.001053
201 0.000963
198 0.001993
140 0.001994
67 0.001994
53 0.000995
61 0.002031
74 0.000935
82 0.001995
91 0.001996
106 0.001994
117 0.001972
117 0.000997
119 0.000998
128 0.000998
140 0.000998
154 0.0
169 0.001958
179 0.00093
187 0.001032
194 0.000964
201 0.000998
184 0.000566
96 0.0
58 0.000997
62 0.000988
75 0.0
85 0.0
91 0.0
106 0.0
117 0.0
119 0.0
119 0.0
122 0.0
136 0.0
153 0.000999
169 0.0
179 0.0
189 0.0
197 0.0
203 0.0
150 0.00095
86 0.0
56 0.000998
55 0.0
65 0.0
77 0.000173
84 0.0
103 0.000998
113 0.0
116 0.0
118 0.001001
122 0.0
138 0.0
152 0.0
165 0.000998
179 0.000996
185 0.0
197 0.004018
206 0.0
148 0.002959
83 0.0
55 0.000961
59 0.0
67 0.0
80 0.0
84 0.004023
102 0.000997
114 0.001022
118 0.0
118 0.002993
127 0.0
139 0.0
153 0.001994
170 0.0
177 0.001948
187 0.0
197 0.003022
204 0.002989
179 0.0
131 0.0
66 0.0
59 0.003026
75 0.0
90 0.0
96 0.002997
109 0.004013
124 0.0
124 0.000953
123 0.0
128 0.002998
138 0.003034
156 0.0
170 0.0
182 0.0
194 0.001997
206 0.000968
213 0.002993
194 0.001996
99 0.0
61 0.0
56 0.001037
67 0.003034
79 0.002
88 0.0
98 0.0
113 0.0
121 0.0
121 0.000953
125 0.001999
135 0.001993
154 0.000998
167 0.000968
179 0.0
189 0.003001
197 0.004932
209 0.0
211 0.0
158 0.0
62 0.000943
52 0.0
62 0.003028
75 0.003991
85 0.001028
94 0.000955
109 0.000997
118 0.004087
121 0.003009
122 0.0
128 0.0
140 0.001016
164 0.0
177 0.0
187 0.00396
196 0.005002
206 0.002034
213 0.0
211 0.0
148 0.003162
81 0.003042
54 0.0
64 0.0
80 0.0
94 0.000997
105 0.001981
118 0.003991
122 0.002992
120 0.000995
122 0.0
130 0.001037
143 0.002996
157 0.003024
174 0.0
185 0.0
195 0.000992
207 0.0
193 0.001067
122 0.0
69 0.003028
53 0.002995
66 0.000949
81 0.0
90 0.001007
99 0.004041
113 0.002257
122 0.0
121 0.0
125 0.000997
135 0.000995
148 0.001008
162 0.003524
175 0.004022
189 0.0
198 0.0
206 0.001995
180 0.002992
104 0.002988
49 0.002992
47 0.002024
67 0.002992
75 0.002993
80 0.000997
93 0.004989
107 0.00503
111 0.002993
112 0.002987
117 0.0
126 0.003986
140 0.003946
157 0.002992
168 0.002002
186 0.001059
194 0.002992
188 0.002001
124 0.003963
65 0.003958
43 0.002995
52 0.002032
65 0.002996
73 0.003217
79 0.003997
97 0.001994
107 0.001995
108 0.003041
111 0.003025
119 0.003003
131 0.004291
144 0.004035
160 0.0
170 0.0
179 0.001035
187 0.004333
189 0.004452
118 0.002863
64 0.002951
49 0.002033
63 0.0
75 0.002931
82 0.004229
91 0.004942
108 0.001995
111 0.001997
110 0.002964
113 0.004958
121 0.004956
137 0.002037
150 0.002991
164 0.004996
178 0.002996
187 0.002994
189 0.001
143 0.005986
80 0.005171
48 0.002953
53 0.002953
65 0.001979
74 0.004987
80 0.00522
97 0.002256
110 0.005204
111 0.004087
113 0.003005
120 0.002061
132 0.006237
144 0.005225
159 0.002959
169 0.002989
178 0.002952
187 0.005516
179 0.005223
98 0.002004
49 0.005988
51 0.002999
61 0.00402
70 0.003116
75 0.004992
87 0.005024
105 0.00299
110 0.003989
111 0.002743
114 0.005716
122 0.005804
138 0.001994
154 0.006059
167 0.002992
176 0.003977
184 0.002992
188 0.005336
146 0.006017
69 0.002027
50 0.00399
55 0.00302
66 0.006014
75 0.006147
83 0.003024
102 0.005994
110 0.002991
110 0.004031
112 0.002993
118 0.006222
129 0.005331
145 0.00313
155 0.002961
164 0.003956
173 0.006992
180 0.006947
154 0.004481
77 0.005986
50 0.003991
56 0.003023
67 0.003961
74 0.006493
80 0.006368
99 0.003954
108 0.00396
109 0.003989
110 0.006326
115 0.006348
125 0.006839
144 0.006208
153 0.006978
165 0.003985
174 0.00504
181 0.003989
177 0.007625
125 0.006994
60 0.004653
48 0.00241
54 0.004409
62 0.007207
67 0.006575
81 0.007385
97 0.007799
107 0.004973
108 0.004957
112 0.002952
120 0.00795
135 0.007934
147 0.004965
157 0.003028
166 0.004013
174 0.007568
181 0.007825
183 0.008186
149 0.007003
72 0.004987
52 0.003899
56 0.004761
65 0.007196
71 0.007332
78 0.004951
93 0.003942
107 0.005026
112 0.007978
112 0.007329
119 0.0074
130 0.007228
146 0.003947
157 0.004945
166 0.004543
175 0.007323
182 0.007694
191 0.00516
184 0.005021
129 0.004988
68 0.007968
61 0.007623
74 0.007852
83 0.007818
90 0.004926
104 0.005853
117 0.004978
121 0.006956
122 0.007798
126 0.00603
135 0.003988
147 0.005221
164 0.007276
173 0.007501
188 0.007716
196 0.007594
203 0.005982
195 0.004988
135 0.005946
70 0.006856
60 0.007596
68 0.006863
77 0.006851
83 0.00467
90 0.005605
109 0.006756
121 0.004997
123 0.00733
126 0.006957
138 0.005991
151 0.005968
159 0.006945
174 0.006981
184 0.007473
194 0.006189
205 0.006905
209 0.005197
163 0.006167
81 0.006023
60 0.007136
69 0.007089
83 0.005415
88 0.006157
93 0.006249
113 0.006889
124 0.005988
126 0.006442
126 0.006917
133 0.006571
144 0.006106
161 0.005986
177 0.006886
187 0.006019
199 0.006291
207 0.006547
210 0.004945
150 0.006422
88 0.006441
61 0.006017
70 0.005985
84 0.005984
93 0.005952
108 0.004675
122 0.005639
126 0.006218
124 0.006368
126 0.005945
135 0.005879
146 0.005632
159 0.005984
173 0.006254
183 0.005714
191 0.005725
199 0.006572
159 0.005716
96 0.005589
64 0.004965
64 0.004986
76 0.00568
84 0.005988
90 0.005485
102 0.005744
117 0.005481
120 0.005493
120 0.004683
124 0.005022
140 0.004988
151 0.004987
162 0.00499
173 0.005636
181 0.005887
189 0.005515
193 0.004716
168 0.004889
112 0.005168
73 0.00567
72 0.004558
80 0.005048
88 0.005588
95 0.005592
109 0.005042
120 0.004948
125 0.004978
127 0.005064
133 0.004996
142 0.004024
153 0.004991
166 0.005016
175 0.00499
183 0.005027
195 0.004971
201 0.005084
187 0.004017
141 0.004485
103 0.003954
100 0.003944
106 0.003953
111 0.004956
115 0.00504
126 0.005034
138 0.003715
144 0.003602
147 0.00399
152 0.004562
160 0.003992
170 0.003983
181 0.002991
189 0.003959
196 0.004172
203 0.004844
209 0.003984
211 0.003727
182 0.003696
146 0.003979
128 0.00399
132 0.003987
137 0.00401
139 0.003952
149 0.003991
159 0.00399
162 0.004005
163 0.004035
165 0.003994
173 0.003989
181 0.002975
189 0.003988
200 0.002984
205 0.002998
211 0.002988
216 0.00302
220 0.003945
199 0.003949
162 0.002819
140 0.0028
135 0.002712
139 0.002653
141 0.003616
141 0.003038
153 0.002994
160 0.003034
162 0.001945
162 0.003044
167 0.00387
174 0.002992
181 0.002992
188 0.002993
194 0.00296
199 0.002995
205 0.002996
210 0.003029
217 0.002992
201 0.003003
163 0.0033
141 0.002991
135 0.002981
140 0.002034
142 0.002034
142 0.002729
146 0.00303
155 0.002881
160 0.003504
159 0.001762
163 0.002984
169 0.002098
176 0.002992
182 0.001994
188 0.001962
194 0.001955
198 0.002497
203 0.00163
207 0.002021
208 0.003038
173 0.002049
143 0.002997
135 0.00201
139 0.002025
142 0.00301
142 0.001994
147 0.002055
156 0.001996
157 0.001979
157 0.001677
158 0.001694
162 0.001791
170 0.002025
197 0.001566
211 0.001926
216 0.001992
221 0.002017
227 0.000998
234 0.001997
233 0.001945
188 0.003027
139 0.001998
117 0.001996
116 0.000998
124 0.002055
125 0.002027
131 0.001995
141 0.001959
146 0.001993
146 0.00198
145 0.001998
151 0.001992
160 0.002188
169 0.00193
178 0.001826
186 0.001799
193 0.001604
199 0.002024
208 0.001986
214 0.000999
195 0.002582
