57 0.027956
65 0.003957
78 0.003991
93 0.002992
99 0.003005
103 0.003024
110 0.004029
119 0.00399
128 0.002999
136 0.003041
145 0.003033
158 0.00399
156 0.004026
100 0.003948
83 0.003976
86 0.002992
95 0.002992
107 0.003036
118 0.003028
124 0.003989
127 0.004943
133 0.00399
140 0.002992
147 0.00399
154 0.005018
166 0.004022
175 0.00399
177 0.003989
150 0.003981
112 0.004031
95 0.00399
94 0.004029
100 0.003988
113 0.003993
123 0.003989
128 0.003991
130 0.005025
137 0.00402
145 0.005015
151 0.005025
157 0.003987
164 0.003989
175 0.003979
164 0.005007
127 0.004981
93 0.003989
85 0.00402
86 0.004031
91 0.004973
109 0.003992
117 0.004979
122 0.003976
125 0.004986
133 0.003989
137 0.004987
147 0.004973
154 0.004983
161 0.004987
168 0.004983
161 0.004987
114 0.004987
85 0.004969
79 0.00502
80 0.004944
91 0.00399
103 0.003957
113 0.003982
117 0.004972
122 0.005995
129 0.004977
138 0.004987
147 0.00501
154 0.004987
163 0.004954
172 0.005242
163 0.005985
127 0.004987
98 0.004986
88 0.004991
89 0.005004
94 0.004987
104 0.004987
117 0.005024
125 0.005038
131 0.005984
139 0.004987
147 0.005984
154 0.00599
164 0.004982
171 0.005038
179 0.004968
185 0.005985
183 0.005937
152 0.006028
112 0.005034
107 0.005999
107 0.00603
120 0.005976
131 0.005973
141 0.006
144 0.005973
145 0.005978
152 0.005024
157 0.004988
164 0.004987
170 0.005984
176 0.004987
182 0.005033
188 0.006
175 0.005956
136 0.005984
106 0.006989
99 0.006975
103 0.005987
110 0.006015
118 0.005978
128 0.005946
132 0.005984
134 0.005999
137 0.006011
141 0.007012
155 0.006014
158 0.00697
166 0.006938
172 0.007015
180 0.006005
172 0.005948
134 0.006
92 0.007984
84 0.006983
84 0.006982
89 0.006024
95 0.006059
114 0.006025
120 0.006982
123 0.006968
127 0.006948
134 0.006962
141 0.006949
149 0.007017
159 0.006981
165 0.006982
173 0.005962
177 0.006019
151 0.006032
92 0.00695
82 0.006018
85 0.00793
91 0.007939
105 0.006929
115 0.006946
122 0.007017
125 0.007979
129 0.007943
137 0.007014
142 0.007015
151 0.006981
163 0.006983
169 0.006953
179 0.007934
184 0.007979
166 0.007936
114 0.006932
96 0.00698
97 0.007978
105 0.007979
122 0.006995
132 0.006961
139 0.007018
138 0.026977
140 0.000964
152 0.007978
160 0.007931
167 0.007943
172 0.007949
176 0.007971
183 0.007979
188 0.007979
163 0.007974
122 0.007979
99 0.007979
104 0.007937
121 0.006949
132 0.006946
137 0.007979
138 0.007025
140 0.006982
146 0.007149
152 0.007122
159 0.007017
164 0.007048
172 0.006981
177 0.00703
176 0.006982
139 0.006982
99 0.006982
82 0.007544
83 0.006992
95 0.007026
106 0.006946
115 0.00694
119 0.006944
121 0.006948
125 0.005985
130 0.007013
142 0.007225
149 0.007013
156 0.006993
161 0.006977
168 0.006982
163 0.006982
124 0.006978
88 0.007015
75 0.007015
78 0.006982
88 0.005985
99 0.006025
114 0.006026
119 0.006025
121 0.005963
126 0.005991
132 0.005984
142 0.006047
149 0.006993
156 0.006993
165 0.007025
172 0.007017
152 0.006955
112 0.005995
80 0.006981
82 0.005966
91 0.005984
101 0.005984
113 0.005987
122 0.005984
124 0.006029
128 0.006019
134 0.006024
141 0.005916
150 0.007027
155 0.007014
162 0.005982
161 0.00602
135 0.006015
103 0.00603
89 0.006035
93 0.006011
110 0.005976
124 0.006043
136 0.007025
141 0.007019
141 0.006027
140 0.005033
142 0.005018
145 0.005083
148 0.005984
151 0.005985
155 0.005028
157 0.005984
121 0.005983
80 0.006026
57 0.006018
53 0.005037
57 0.004987
68 0.005017
82 0.005014
89 0.00504
92 0.004988
97 0.005033
103 0.005009
110 0.005037
119 0.0051
126 0.005943
132 0.006017
139 0.003957
138 0.00498
93 0.005984
53 0.005017
45 0.005015
47 0.00497
53 0.004997
64 0.004986
77 0.005035
87 0.004984
91 0.004986
95 0.004997
101 0.005019
110 0.005023
121 0.005017
130 0.004986
139 0.004996
145 0.005019
136 0.003977
98 0.003999
66 0.004988
53 0.003991
55 0.005027
60 0.005078
71 0.004949
84 0.005021
96 0.004987
101 0.004989
108 0.005027
115 0.005027
123 0.005027
132 0.004988
139 0.004031
147 0.003989
154 0.003992
160 0.003991
165 0.003993
152 0.003925
102 0.00499
75 0.00501
78 0.004987
85 0.00403
95 0.00399
107 0.00403
114 0.00404
117 0.003973
120 0.003997
125 0.004024
132 0.003991
139 0.003983
145 0.003948
156 0.003998
163 0.00399
169 0.00399
175 0.002994
179 0.002987
159 0.002993
119 0.002995
90 0.003991
89 0.004022
96 0.00399
106 0.003991
117 0.004022
122 0.027926
127 0.0
144 0.004032
150 0.00399
157 0.002995
164 0.002995
169 0.003045
174 0.003035
181 0.002992
180 0.002993
121 0.002994
92 0.002994
84 0.004001
88 0.003002
95 0.002992
104 0.003978
114 0.003993
121 0.003004
123 0.00298
127 0.002983
134 0.002993
140 0.002995
152 0.003024
157 0.002992
166 0.003026
172 0.002993
176 0.002994
177 0.002993
147 0.004067
97 0.003004
84 0.002992
87 0.001995
94 0.001995
103 0.001995
119 0.002992
124 0.001988
127 0.002963
130 0.002993
136 0.002993
143 0.003003
150 0.002981
159 0.002992
165 0.001995
170 0.001995
175 0.001995
181 0.001994
150 0.001995
111 0.001995
89 0.003025
93 0.002959
104 0.001947
116 0.001995
125 0.001995
131 0.001996
134 0.001995
143 0.001995
154 0.001995
163 0.001995
171 0.001038
175 0.002024
180 0.000998
187 0.001996
192 0.001995
194 0.001995
168 0.00204
125 0.001995
94 0.001996
93 0.001996
102 0.001994
112 0.000978
127 0.001995
130 0.00101
131 0.002051
137 0.001995
144 0.000989
151 0.000926
159 0.001966
165 0.000998
170 0.001001
176 0.001
181 0.000998
176 0.000997
108 0.000997
80 0.000997
73 0.000998
80 0.000993
88 0.000997
99 0.000998
107 0.000997
112 0.001045
114 0.001004
117 0.000997
124 0.000998
131 0.000997
142 0.000997
148 0.000997
155 0.001028
164 0.000998
162 0.000997
130 0.000997
88 0.000996
66 0.000997
67 0.001001
77 0.000998
87 0.000983
99 0.000997
107 0.000997
110 0.000997
113 0.000997
121 0.0
129 0.0
137 0.0
144 0.0
150 0.0
159 0.0
166 0.0
162 0.0
126 0.000998
73 0.000998
71 0.000997
82 0.000978
99 0.000998
110 0.00099
115 0.0
116 0.0
116 0.0
121 0.0
128 0.0
135 0.0
141 0.0
151 0.0
157 0.0
162 0.0
148 0.0
94 0.0
67 0.0
63 0.0
75 0.0
85 0.0
95 0.000998
103 0.001039
105 0.0
108 0.001038
115 0.0
123 0.0
128 0.0
136 0.0
141 0.0
150 0.0
154 0.0
152 0.0
101 0.000998
86 0.016954
64 0.0
61 0.0
78 0.0
87 0.0
91 0.000998
94 0.001001
100 0.0
106 0.0
114 0.0
122 0.000997
130 0.000994
136 0.001002
147 0.001062
126 0.0
83 0.0
55 0.0
47 0.001031
51 0.000997
61 0.0
73 0.0
84 0.0
92 0.002027
95 0.001008
100 0.000985
109 0.001995
121 0.000999
128 0.000999
134 0.001046
143 0.001037
150 0.000971
155 0.0
130 0.000991
88 0.000943
62 0.001995
58 0.000997
69 0.000999
83 0.001995
97 0.000998
102 0.001002
105 0.000998
108 0.002028
114 0.001998
124 0.001036
132 0.001021
139 0.000998
145 0.001008
152 0.00101
161 0.000997
161 0.000997
129 0.000998
76 0.001037
64 0.0
70 0.001995
79 0.002027
95 0.000966
104 0.000999
108 0.001001
108 0.002038
111 0.001995
116 0.001995
127 0.002992
135 0.003026
142 0.002029
148 0.001032
152 0.002028
159 0.001979
151 0.002027
95 0.00103
70 0.002029
54 0.000998
57 0.001987
65 0.001995
81 0.003006
91 0.002998
96 0.002027
97 0.001992
101 0.001928
108 0.002992
115 0.002992
126 0.002019
133 0.001987
139 0.001997
146 0.002991
151 0.003042
107 0.00205
65 0.002989
44 0.001997
44 0.002027
48 0.003029
58 0.002986
69 0.00299
82 0.002022
86 0.00203
89 0.002026
93 0.002992
100 0.002993
114 0.003027
122 0.002992
132 0.002048
138 0.00204
145 0.003026
149 0.004023
123 0.004026
78 0.003025
48 0.003026
43 0.00196
49 0.003021
55 0.003055
74 0.003029
84 0.003024
89 0.001992
93 0.003041
99 0.003031
108 0.003989
116 0.00399
128 0.003024
133 0.00304
141 0.002019
148 0.004003
154 0.004022
152 0.004032
113 0.003987
63 0.002954
55 0.003027
62 0.003018
70 0.003988
81 0.004051
95 0.004011
100 0.003032
102 0.002998
106 0.004012
111 0.00402
124 0.00297
133 0.003995
140 0.004027
150 0.003028
155 0.003022
161 0.002992
168 0.00399
170 0.004022
126 0.003021
83 0.004026
65 0.003036
69 0.004987
88 0.00398
100 0.004987
106 0.00499
110 0.004024
110 0.004028
112 0.00402
119 0.004022
122 0.019902
130 0.001009
138 0.001996
142 0.002029
166 0.004021
170 0.00498
146 0.004993
83 0.004022
57 0.003978
56 0.003976
65 0.005034
74 0.00504
88 0.004023
97 0.004034
101 0.00502
106 0.004986
112 0.004986
121 0.004987
129 0.004968
141 0.003992
147 0.003984
154 0.004033
160 0.005031
166 0.00502
157 0.004026
111 0.005029
68 0.005031
50 0.005984
57 0.004985
64 0.00599
74 0.004982
84 0.005019
91 0.00503
98 0.00402
102 0.006019
107 0.004987
119 0.004029
129 0.005023
136 0.00498
144 0.005985
155 0.004953
163 0.005976
166 0.005985
120 0.005013
75 0.005022
54 0.005015
55 0.005984
64 0.005984
78 0.004037
85 0.006018
95 0.004977
99 0.006016
104 0.004961
109 0.005965
117 0.006015
125 0.006016
133 0.006017
141 0.006016
149 0.004989
156 0.00602
164 0.006016
155 0.005023
113 0.005024
73 0.004986
60 0.004984
71 0.004987
84 0.006982
96 0.006029
102 0.006017
102 0.006026
103 0.006017
107 0.006981
113 0.006982
123 0.006023
128 0.006056
135 0.00603
144 0.006989
152 0.005014
159 0.006015
143 0.006983
82 0.006018
52 0.006016
48 0.006021
56 0.007014
66 0.007026
80 0.006016
87 0.006018
89 0.006012
93 0.006969
98 0.004968
105 0.007015
114 0.006982
122 0.007011
130 0.005984
137 0.006016
144 0.006981
148 0.006981
113 0.006007
67 0.006017
42 0.006018
43 0.007015
49 0.006977
58 0.007979
69 0.007012
78 0.005983
83 0.007019
86 0.007006
91 0.006982
99 0.006943
108 0.007017
118 0.005963
125 0.006027
137 0.006013
145 0.005981
133 0.007946
91 0.007979
48 0.006993
43 0.006996
47 0.007006
54 0.007979
63 0.007979
77 0.007029
84 0.007012
88 0.007015
93 0.007003
104 0.007953
111 0.007979
118 0.007979
128 0.006983
135 0.006994
143 0.007026
150 0.007985
142 0.007979
89 0.006993
55 0.00703
54 0.007026
69 0.007025
80 0.007137
90 0.007028
95 0.007977
97 0.007457
102 0.007014
107 0.007022
112 0.007018
122 0.006977
129 0.007016
137 0.007033
142 0.00701
152 0.006983
133 0.007001
105 0.007979
68 0.007979
54 0.007979
59 0.006967
68 0.00702
77 0.006985
88 0.007038
93 0.007025
94 0.007017
98 0.007024
110 0.007022
118 0.007012
124 0.007016
131 0.007012
138 0.007019
147 0.006583
142 0.007013
142 0.024902
106 0.0
77 0.001995
52 0.000999
69 0.007012
79 0.007012
86 0.005986
89 0.005986
92 0.007016
101 0.007017
109 0.006943
118 0.006981
125 0.006982
132 0.006981
141 0.007014
146 0.005976
100 0.00698
65 0.006982
51 0.007036
50 0.006984
54 0.007017
62 0.006948
74 0.006982
85 0.007016
91 0.007013
93 0.006953
101 0.005976
109 0.005991
125 0.005985
132 0.006004
139 0.006025
147 0.005987
154 0.005986
151 0.00602
115 0.006003
79 0.004994
64 0.007019
65 0.006019
71 0.006023
79 0.006984
95 0.005037
105 0.005986
109 0.005988
113 0.005987
121 0.005986
129 0.00602
141 0.006028
149 0.006059
156 0.006034
163 0.006019
170 0.006017
175 0.006015
138 0.005039
87 0.005036
76 0.005036
78 0.005018
83 0.00596
91 0.005019
105 0.005986
110 0.005023
114 0.004986
116 0.005986
121 0.006036
131 0.006032
142 0.005984
152 0.005021
158 0.005999
163 0.005973
170 0.004987
176 0.005025
148 0.004986
104 0.004974
77 0.005017
71 0.005026
74 0.004988
81 0.005023
94 0.005009
107 0.00498
111 0.004989
114 0.005025
119 0.005016
127 0.005043
138 0.00399
146 0.004024
153 0.003989
159 0.005028
165 0.005027
175 0.005036
157 0.005018
100 0.005021
76 0.003992
73 0.00399
76 0.005012
79 0.005018
91 0.004033
104 0.003977
112 0.003994
116 0.003992
120 0.003993
129 0.004001
140 0.004026
151 0.003985
158 0.004954
166 0.005021
172 0.005023
179 0.004984
182 0.004999
149 0.003992
104 0.004056
83 0.004047
82 0.003991
88 0.003991
99 0.004019
115 0.003991
122 0.003991
126 0.004012
130 0.004024
134 0.00399
142 0.00399
153 0.002993
161 0.002993
169 0.002993
176 0.002994
181 0.002992
192 0.00399
185 0.003991
131 0.00399
97 0.00399
89 0.00399
96 0.003029
105 0.003004
119 0.004052
127 0.004018
130 0.004024
132 0.00399
134 0.002993
143 0.003
151 0.002993
161 0.003013
167 0.002968
173 0.002991
179 0.002992
185 0.003028
183 0.003006
146 0.002992
101 0.003988
81 0.004043
82 0.00399
96 0.003995
106 0.004039
117 0.002994
122 0.002989
124 0.0
128 0.002994
133 0.002993
143 0.002998
151 0.002978
159 0.002993
165 0.003991
171 0.001995
182 0.004088
171 0.003023
111 0.004028
79 0.001996
74 0.001995
79 0.002993
85 0.002996
98 0.003001
108 0.002992
115 0.002981
119 0.002993
122 0.002015
132 0.001995
141 0.001998
152 0.001994
160 0.001995
167 0.001994
174 0.001976
181 0.001996
167 0.002029
121 0.000984
86 0.001995
76 0.002993
82 0.002025
96 0.002992
106 0.002993
118 0.002985
123 0.001992
125 0.002005
128 0.001996
135 0.001987
146 0.001982
153 0.002026
160 0.002014
167 0.002007
173 0.001978
184 0.002005
163 0.000998
118 0.000998
84 0.000997
85 0.000997
95 0.001998
107 0.002027
118 0.002039
126 0.001995
128 0.002041
129 0.002002
132 0.001995
142 0.001995
149 0.00201
155 0.000991
163 0.000997
169 0.000998
176 0.000997
175 0.000997
141 0.000993
86 0.000989
73 0.002051
78 0.002034
86 0.001995
104 0.001006
112 0.000998
115 0.000965
116 0.000998
120 0.001005
126 0.000997
133 0.001031
140 0.001011
149 0.000997
156 0.000998
162 0.001001
166 0.001994
112 0.000995
73 0.001009
61 0.000999
65 0.000941
71 0.000997
80 0.000997
90 0.000998
99 0.000986
104 0.000997
107 0.000998
112 0.000997
120 0.0
134 0.000997
140 0.0
147 0.0
156 0.000995
153 0.000997
120 0.000998
78 0.000989
59 0.000991
60 0.000998
65 0.000998
73 0.000998
86 0.000998
101 0.0
105 0.0
108 0.0
117 0.0
125 0.0
133 0.0
141 0.0
148 0.0
157 0.0
164 0.0
153 0.000993
113 0.000997
69 0.0
71 0.0
78 0.0
90 0.0
101 0.0
109 0.0
113 0.0
115 0.0
121 0.0
129 0.0
136 0.000998
144 0.0
155 0.000966
164 0.0
170 0.0
159 0.0
119 0.000997
84 0.000998
74 0.000997
78 0.000997
85 0.0
98 0.001031
107 0.001029
113 0.0
115 0.001014
121 0.0
128 0.0
135 0.0
142 0.001031
149 0.001028
157 0.0
163 0.0
164 0.0
134 0.000999
90 0.000997
67 0.000997
68 0.000998
74 0.0
83 0.0
94 0.0
102 0.000998
105 0.001996
109 0.0
115 0.001006
123 0.0
130 0.001033
138 0.001006
147 0.0
156 0.001007
146 0.0
107 0.000998
73 0.000986
63 0.000999
65 0.00101
71 0.000997
79 0.001027
91 0.001029
100 0.000998
105 0.002027
109 0.000999
117 0.001995
128 0.000998
136 0.001053
143 0.001007
149 0.001995
155 0.00102
160 0.001009
134 0.000997
91 0.000963
70 0.001996
69 0.001995
74 0.00104
84 0.002028
100 0.001032
108 0.000998
111 0.000997
114 0.002
119 0.001962
129 0.000993
137 0.001011
144 0.000998
151 0.001995
157 0.002024
166 0.001003
164 0.001987
116 0.001038
90 0.00205
75 0.000985
80 0.000987
87 0.002027
98 0.001963
112 0.001035
118 0.000988
121 0.002026
123 0.002033
128 0.002053
141 0.002992
149 0.002992
158 0.001949
164 0.001997
170 0.002036
177 0.002992
179 0.00299
138 0.000991
109 0.00206
83 0.001013
87 0.001995
96 0.002026
114 0.002992
122 0.002992
124 0.002029
126 0.002027
129 0.00202
135 0.002993
141 0.002992
151 0.001961
157 0.001999
161 0.002995
168 0.004024
174 0.003029
172 0.002063
119 0.00399
79 0.003027
78 0.002027
86 0.002009
95 0.003023
105 0.002992
117 0.001984
121 0.002992
123 0.002023
126 0.003027
132 0.003023
142 0.002034
152 0.003995
161 0.003025
168 0.003024
174 0.003024
179 0.004028
158 0.004046
97 0.003025
75 0.002029
75 0.001988
82 0.003027
88 0.004032
102 0.003039
114 0.004022
120 0.002986
122 0.00199
127 0.001994
134 0.004034
142 0.003961
151 0.003042
158 0.002994
165 0.002986
171 0.00402
177 0.003989
145 0.003001
87 0.00399
72 0.002992
77 0.002993
85 0.002986
93 0.003989
105 0.00399
115 0.002992
118 0.003025
121 0.003029
126 0.003049
132 0.004962
141 0.00499
152 0.004987
159 0.005018
167 0.004026
173 0.003025
174 0.002971
141 0.003989
96 0.00403
75 0.002982
80 0.003028
90 0.002993
101 0.004986
112 0.004984
121 0.005003
122 0.004986
126 0.004023
132 0.004024
139 0.004051
146 0.005015
153 0.005021
161 0.004071
167 0.003975
175 0.002993
173 0.005007
138 0.004988
79 0.004973
76 0.005984
89 0.004045
100 0.004023
111 0.003987
117 0.004979
119 0.004987
121 0.003987
124 0.004
130 0.00401
139 0.004989
145 0.00499
155 0.005022
161 0.005984
170 0.00498
162 0.004985
121 0.005023
80 0.004987
65 0.004987
70 0.004025
79 0.003952
88 0.004007
98 0.004987
105 0.004984
109 0.005985
113 0.006023
121 0.005018
128 0.005023
136 0.005014
144 0.00602
150 0.006026
159 0.004012
160 0.003995
129 0.003984
84 0.004971
60 0.004973
61 0.006018
65 0.005984
75 0.004981
88 0.004975
97 0.005019
101 0.005984
104 0.005984
110 0.00502
119 0.005004
127 0.004989
134 0.006991
141 0.007003
152 0.006019
157 0.006018
136 0.006016
79 0.005039
60 0.004981
57 0.005002
61 0.006981
64 0.006981
78 0.006031
90 0.005982
97 0.005997
101 0.006981
108 0.005983
115 0.006034
123 0.005984
134 0.004982
140 0.004994
146 0.00499
153 0.006982
160 0.006949
141 0.005983
97 0.006017
68 0.00611
62 0.006986
69 0.006018
75 0.006981
86 0.006975
100 0.007
105 0.006983
107 0.006018
112 0.007021
119 0.00798
129 0.007022
138 0.005992
146 0.005987
152 0.006975
163 0.005985
169 0.007022
174 0.00702
143 0.005987
98 0.006027
76 0.006017
77 0.007018
84 0.007979
95 0.006982
106 0.00702
114 0.005961
118 0.007942
121 0.006018
129 0.007977
134 0.006981
145 0.005973
152 0.005985
158 0.006981
164 0.007979
170 0.007943
177 0.006985
181 0.006953
157 0.006988
111 0.007948
77 0.006988
83 0.007979
94 0.00794
103 0.007013
112 0.007023
117 0.006982
118 0.007949
120 0.00798
127 0.006996
134 0.006974
141 0.007012
151 0.007975
158 0.007015
166 0.007989
171 0.007979
176 0.007979
164 0.007001
118 0.006982
80 0.006982
68 0.007979
74 0.007011
78 0.006985
89 0.007012
100 0.007011
109 0.006989
112 0.007024
116 0.006948
123 0.006975
132 0.00698
142 0.006992
150 0.006985
159 0.007977
165 0.007026
173 0.007022
176 0.00702
150 0.00698
79 0.007018
67 0.006977
70 0.007018
73 0.007016
81 0.007019
94 0.006973
103 0.005993
109 0.007031
112 0.007019
117 0.005979
124 0.006029
133 0.007019
148 0.007066
155 0.006982
161 0.006053
168 0.005994
177 0.006019
178 0.005993
147 0.005986
99 0.007031
74 0.00698
74 0.007013
80 0.007002
86 0.007013
104 0.006984
114 0.006983
117 0.006954
120 0.005987
126 0.006015
134 0.005986
142 0.005948
151 0.006028
159 0.00602
167 0.006019
174 0.005986
181 0.007013
188 0.006937
158 0.006982
111 0.005986
86 0.006013
88 0.006016
98 0.006026
108 0.006983
119 0.00602
127 0.005942
131 0.006019
133 0.006023
137 0.005951
147 0.005987
156 0.00602
163 0.005021
169 0.004987
178 0.005985
184 0.004988
190 0.006003
187 0.005981
150 0.006031
103 0.005024
81 0.005018
86 0.005027
101 0.005028
111 0.005952
119 0.005981
123 0.006013
124 0.005986
127 0.005953
133 0.004568
139 0.00503
147 0.00502
154 0.004974
162 0.005952
168 0.006022
178 0.005984
165 0.006028
120 0.006015
81 0.005016
68 0.005027
72 0.00499
76 0.005079
83 0.005071
94 0.004946
103 0.005028
108 0.005023
111 0.005022
119 0.005022
128 0.005024
136 0.004986
143 0.005025
149 0.004993
158 0.004989
165 0.004948
159 0.004987
119 0.004022
79 0.004024
127 0.003974
128 0.004029
127 0.005019
127 0.005037
127 0.005024
127 0.004943
127 0.005027
127 0.00496
127 0.005028
127 0.005018
127 0.00403
127 0.003969
127 0.004024
127 0.004028
127 0.004044
110 0.004047
58 0.004
14 0.004007
2 0.004034
13 0.003988
24 0.004024
38 0.003988
53 0.00399
64 0.00402
71 0.005021
74 0.004984
89 0.004016
101 0.004031
111 0.00399
122 0.003991
131 0.004044
143 0.004002
152 0.004024
137 0.004023
84 0.00404
41 0.004024
30 0.003998
37 0.004038
54 0.003991
68 0.003989
81 0.002992
87 0.004036
91 0.003991
96 0.003985
108 0.004004
119 0.004021
129 0.003986
140 0.004031
149 0.004023
161 0.003019
165 0.003018
106 0.002993
62 0.002993
46 0.002993
46 0.004024
49 0.002992
61 0.002994
78 0.00303
90 0.003002
98 0.004041
103 0.00299
110 0.003025
125 0.003035
140 0.002992
151 0.003019
159 0.004013
168 0.004044
179 0.004037
178 0.003026
135 0.002992
88 0.002025
68 0.002993
66 0.001997
71 0.003025
82 0.003031
104 0.002992
114 0.003001
118 0.003028
122 0.003025
129 0.002994
142 0.003032
153 0.003029
164 0.00303
173 0.001995
181 0.001995
193 0.002026
200 0.002025
160 0.001995
112 0.002022
87 0.001995
86 0.002992
92 0.002027
101 0.001997
114 0.002994
125 0.003023
130 0.002992
131 0.001982
138 0.002012
147 0.001954
162 0.002051
171 0.002029
179 0.002029
187 0.001989
194 0.00203
203 0.002027
207 0.001995
175 0.001995
122 0.001994
91 0.001995
84 0.001995
88 0.000999
98 0.001995
112 0.002009
124 0.002031
129 0.002027
131 0.002036
136 0.002001
148 0.001997
158 0.002027
168 0.001956
177 0.002017
187 0.001993
200 0.002007
208 0.000997
206 0.000997
164 0.001009
116 0.000999
93 0.000999
92 0.000998
96 0.000997
102 0.000997
116 0.002026
130 0.002049
138 0.001996
143 0.000993
149 0.000997
161 0.000998
172 0.001005
182 0.001999
191 0.001001
200 0.000999
211 0.000998
219 0.000977
227 0.00099
215 0.000998
167 0.001996
109 0.002028
109 0.0
120 0.000995
129 0.000999
143 0.000998
153 0.00101
159 0.000941
161 0.000998
165 0.000997
172 0.000997
182 0.000993
191 0.000997
206 0.001
214 0.0
224 0.0
231 0.0
144 0.0
193 0.0
141 0.000998
110 0.0
115 0.0
125 0.000998
136 0.000997
149 0.0
159 0.0
161 0.0
162 0.0
169 0.0
177 0.0
185 0.0
193 0.0
204 0.0
211 0.0
219 0.0
223 0.0
195 0.0
109 0.0
91 0.000999
97 0.001035
104 0.0
113 0.000998
124 0.000999
134 0.000998
140 0.0
142 0.0
151 0.0
159 0.0
167 0.0
182 0.0
190 0.0
199 0.0
207 0.000966
190 0.001042
120 0.0
85 0.0
78 0.0
82 0.000998
88 0.00097
101 0.0
115 0.0
129 0.0
131 0.0
136 0.0
144 0.000998
152 0.000997
166 0.000995
171 0.000997
182 0.0
191 0.002028
198 0.002029
166 0.0
112 0.0
78 0.0
83 0.0
89 0.0
98 0.000998
112 0.001029
128 0.0
132 0.0
136 0.0
141 0.001999
148 0.000955
161 0.0
172 0.0
186 0.0
194 0.0
203 0.0
198 0.002028
157 0.002029
102 0.0
92 0.0
99 0.0
110 0.001031
121 0.001028
140 0.0
147 0.0
151 0.0
155 0.000994
162 0.001013
171 0.001995
181 0.002052
191 0.000961
199 0.000995
207 0.000974
214 0.001995
202 0.002002
140 0.000997
106 0.002016
103 0.002034
113 0.001027
124 0.000998
137 0.002041
145 0.002039
147 0.000953
150 0.000995
154 0.000992
161 0.001996
169 0.00203
180 0.000966
187 0.000971
199 0.001033
206 0.001004
190 0.000998
142 0.002036
100 0.00199
85 0.002112
90 0.001965
96 0.001968
106 0.001002
120 0.002028
130 0.003048
132 0.002013
137 0.003024
145 0.002024
154 0.002029
163 0.00102
171 0.003002
179 0.002034
190 0.001001
191 0.000997
163 0.000953
112 0.002017
81 0.001995
75 0.002004
81 0.002992
94 0.001995
109 0.001961
120 0.001959
125 0.002995
128 0.003027
134 0.001989
143 0.00201
153 0.002027
162 0.003956
170 0.003986
182 0.002009
191 0.003991
178 0.001995
130 0.001996
90 0.001991
78 0.002986
83 0.002989
93 0.001996
104 0.002046
118 0.001998
127 0.002992
130 0.003025
135 0.003029
142 0.004024
154 0.002028
163 0.001997
172 0.00199
179 0.003033
186 0.003023
195 0.00197
188 0.002011
143 0.002995
97 0.004024
81 0.00398
87 0.003029
102 0.003989
118 0.002023
128 0.002031
132 0.003026
134 0.003998
137 0.004023
145 0.001995
153 0.001994
162 0.001996
170 0.004008
177 0.003987
187 0.002989
197 0.003989
169 0.00299
117 0.002986
81 0.002994
73 0.003996
79 0.003989
89 0.003986
101 0.001969
113 0.001999
120 0.004982
123 0.004986
126 0.00499
136 0.004987
145 0.00399
157 0.003013
164 0.002994
172 0.002996
179 0.003988
187 0.003997
174 0.003963
125 0.00399
81 0.00403
66 0.004956
70 0.004948
84 0.004989
96 0.004987
113 0.003022
118 0.003028
121 0.002989
124 0.004952
130 0.004986
143 0.002986
152 0.00299
161 0.003025
169 0.005024
176 0.005038
188 0.004987
186 0.005022
128 0.003992
83 0.003988
71 0.003987
78 0.004987
89 0.004993
105 0.003981
118 0.00299
125 0.003999
129 0.005984
131 0.005987
140 0.005975
150 0.005981
163 0.003985
172 0.004004
180 0.003982
187 0.004988
194 0.005992
199 0.003991
166 0.003997
113 0.004987
81 0.005942
80 0.005954
101 0.005985
115 0.005984
129 0.004035
134 0.004024
135 0.004961
136 0.005986
140 0.004982
152 0.004989
160 0.004962
168 0.004957
176 0.005987
184 0.005983
196 0.006025
196 0.005984
141 0.003997
90 0.005002
69 0.004979
72 0.00598
85 0.005986
100 0.004978
111 0.004982
119 0.004997
123 0.007161
124 0.005972
131 0.004975
139 0.005985
149 0.005984
160 0.004998
167 0.004981
175 0.005953
183 0.006984
188 0.006985
138 0.004992
86 0.00499
60 0.004985
62 0.006984
79 0.005006
90 0.006995
103 0.006017
113 0.005019
116 0.004987
119 0.004988
125 0.006975
133 0.006983
147 0.00597
156 0.00595
165 0.005997
172 0.007011
184 0.004954
174 0.006975
126 0.006982
67 0.004988
60 0.004983
70 0.004987
85 0.00796
94 0.007982
109 0.005986
115 0.006002
116 0.006
119 0.00698
131 0.006983
140 0.006981
150 0.007013
160 0.005954
168 0.006993
176 0.007005
184 0.007976
164 0.007971
111 0.005985
69 0.005987
61 0.005984
72 0.006987
95 0.005997
109 0.006981
115 0.007015
117 0.005984
119 0.004981
123 0.006982
133 0.007978
139 0.007976
150 0.00597
157 0.005982
165 0.005985
173 0.00704
176 0.00602
135 0.007978
80 0.007979
51 0.005987
56 0.006065
71 0.006981
83 0.007034
94 0.00802
101 0.006992
105 0.006983
108 0.006984
111 0.00794
124 0.006978
133 0.007979
145 0.007021
151 0.007011
159 0.006983
169 0.006961
146 0.006974
92 0.007014
52 0.007019
44 0.006971
52 0.006975
59 0.007016
78 0.006983
89 0.006982
98 0.006983
100 0.007946
107 0.006979
115 0.006978
124 0.006981
134 0.007011
143 0.007014
154 0.006973
160 0.006959
168 0.006979
130 0.007021
76 0.006982
47 0.007015
53 0.007017
68 0.006982
79 0.007016
93 0.006983
102 0.007026
106 0.007015
109 0.006973
115 0.006985
125 0.006975
141 0.006945
149 0.006946
157 0.007029
167 0.007013
178 0.006016
171 0.007012
127 0.00602
79 0.00602
58 0.006015
68 0.00602
81 0.005984
96 0.00602
112 0.006983
113 0.006953
114 0.007012
117 0.007018
125 0.006976
135 0.006976
143 0.006016
150 0.006017
158 0.006017
169 0.005987
172 0.006022
145 0.006019
61 0.005986
46 0.006015
51 0.005973
62 0.005201
75 0.006031
88 0.006015
95 0.006015
97 0.006028
98 0.006022
106 0.006017
114 0.006017
123 0.00598
138 0.005986
146 0.006012
155 0.006015
160 0.006018
116 0.006014
63 0.005018
35 0.004987
32 0.004988
38 0.005045
44 0.005027
60 0.006037
74 0.006019
86 0.006025
90 0.006018
95 0.006019
104 0.006022
115 0.006014
129 0.005018
137 0.005026
145 0.005017
154 0.00502
160 0.004979
114 0.004986
62 0.004987
36 0.005021
40 0.005019
45 0.004994
53 0.00602
70 0.006019
86 0.005032
90 0.004992
94 0.005027
100 0.005021
109 0.005127
124 0.004984
135 0.00498
150 0.005022
157 0.004036
165 0.00502
173 0.004989
161 0.004025
91 0.004032
55 0.004037
49 0.003991
56 0.004021
64 0.005024
80 0.005039
95 0.00502
106 0.005026
107 0.005025
113 0.005026
122 0.005018
133 0.003992
148 0.00402
158 0.003991
165 0.00399
172 0.003991
179 0.004023
188 0.004027
180 0.00402
95 0.004035
62 0.003964
60 0.003962
71 0.004021
81 0.004022
99 0.003983
109 0.003984
114 0.004026
115 0.004042
118 0.003946
128 0.003992
138 0.004003
156 0.003953
164 0.004022
171 0.004024
178 0.003992
183 0.003992
192 0.003991
174 0.003022
118 0.002994
68 0.003032
52 0.004024
59 0.003001
67 0.003047
81 0.004028
98 0.004031
105 0.003999
108 0.003991
111 0.003991
117 0.004023
131 0.003951
142 0.002995
151 0.003028
160 0.002993
167 0.002994
177 0.002995
187 0.003028
156 0.002994
97 0.003991
58 0.002992
52 0.003024
60 0.002044
71 0.003014
83 0.003991
96 0.002991
106 0.002994
110 0.002049
116 0.002993
125 0.003027
140 0.002993
151 0.002995
161 0.002047
170 0.003031
177 0.002992
187 0.003064
196 0.001997
189 0.001996
138 0.003025
83 0.001995
60 0.003962
73 0.002992
88 0.002997
103 0.002001
115 0.001988
121 0.001995
124 0.001997
129 0.001992
136 0.001995
146 0.002992
156 0.003021
166 0.002965
176 0.003036
187 0.003023
196 0.003023
202 0.002027
177 0.002028
118 0.001995
76 0.001997
72 0.002043
89 0.002037
105 0.001982
121 0.001993
131 0.002034
132 0.002025
133 0.001995
138 0.002029
147 0.002014
156 0.000984
164 0.001031
172 0.002023
182 0.001002
188 0.001995
196 0.001995
180 0.002027
124 0.002029
64 0.002029
61 0.001995
75 0.001995
96 0.002041
108 0.001035
115 0.001033
115 0.000999
116 0.000998
121 0.000999
129 0.000998
139 0.001043
147 0.000997
155 0.000998
169 0.000998
177 0.000998
161 0.000997
104 0.0
55 0.002006
41 0.000997
47 0.000998
61 0.001963
73 0.001983
86 0.001996
95 0.000998
99 0.001037
105 0.000998
112 0.001038
126 0.001022
136 0.001013
146 0.000998
155 0.001005
164 0.001001
170 0.000997
136 0.000998
81 0.000998
48 0.001016
44 0.000997
60 0.000999
71 0.0
89 0.0
100 0.0
105 0.0
108 0.0
113 0.0
126 0.0
137 0.000997
146 0.000997
157 0.000998
166 0.000998
180 0.0
159 0.0
93 0.0
65 0.0
63 0.0
72 0.0
83 0.0
101 0.0
112 0.0
118 0.0
121 0.0
124 0.001008
138 0.0
148 0.0
161 0.0
169 0.0
177 0.0
187 0.0
189 0.0
138 0.0
94 0.0
77 0.0
81 0.0
92 0.000999
116 0.0
125 0.0
129 0.002027
129 0.000964
132 0.0
142 0.0
150 0.0
160 0.0
167 0.000997
175 0.00103
186 0.0
190 0.0
128 0.0
88 0.0
75 0.0
78 0.002028
87 0.002027
100 0.0
112 0.0
120 0.0
123 0.001044
125 0.001001
131 0.0
141 0.0
155 0.0
163 0.0
170 0.0
179 0.002028
186 0.001997
155 0.0
107 0.0
78 0.0
72 0.002029
75 0.00203
82 0.0
93 0.0
113 0.0
117 0.0
120 0.000966
125 0.001032
134 0.001031
146 0.0
156 0.0
164 0.0
171 0.001995
178 0.002029
189 0.0
176 0.0
101 0.0
78 0.001013
76 0.0
82 0.002041
86 0.001969
101 0.000997
115 0.000976
120 0.001
123 0.003046
127 0.001992
137 0.001004
146 0.001026
163 0.001984
171 0.001994
178 0.002001
185 0.001994
192 0.002052
202 0.001027
185 0.001029
139 0.00103
100 0.002026
89 0.003041
95 0.001015
104 0.00101
121 0.000993
131 0.001002
135 0.000998
137 0.002009
139 0.001995
146 0.001991
158 0.001995
167 0.001993
176 0.001995
184 0.003008
190 0.002991
199 0.000995
206 0.002992
209 0.000982
172 0.001032
122 0.000998
96 0.002992
94 0.003026
102 0.000994
110 0.000999
122 0.001991
131 0.002027
136 0.003049
140 0.002
145 0.003022
156 0.002018
165 0.001996
175 0.001998
184 0.003024
190 0.003025
199 0.000995
205 0.001952
211 0.000957
215 0.003972
197 0.004028
129 0.001993
90 0.003988
92 0.001995
99 0.001994
105 0.002026
116 0.002947
127 0.002951
135 0.002
137 0.001996
141 0.001991
146 0.002996
156 0.004027
169 0.00203
181 0.00402
190 0.001966
197 0.001997
204 0.001978
209 0.004029
214 0.004024
188 0.002009
134 0.002025
94 0.001994
86 0.003985
94 0.004023
104 0.002
118 0.003022
131 0.00201
137 0.002993
138 0.002991
141 0.00399
148 0.003993
159 0.002013
169 0.001982
179 0.002002
186 0.003989
194 0.004026
202 0.002036
210 0.004987
217 0.002998
199 0.002991
147 0.002987
101 0.004985
87 0.00402
98 0.002993
111 0.00301
123 0.00299
134 0.002991
138 0.00399
140 0.004987
142 0.00499
148 0.004989
160 0.002991
167 0.003002
176 0.002996
184 0.004986
190 0.005004
198 0.002993
203 0.002989
209 0.002992
200 0.003979
153 0.004985
83 0.005003
81 0.00499
98 0.004023
111 0.002997
123 0.003
131 0.004994
133 0.004998
135 0.003008
138 0.002989
144 0.002991
151 0.006011
160 0.005984
173 0.005985
181 0.004982
189 0.003987
195 0.002984
202 0.00399
195 0.004992
149 0.004982
81 0.002975
66 0.002992
73 0.003992
87 0.004987
98 0.005018
114 0.005991
118 0.005982
121 0.00399
124 0.003989
130 0.003988
138 0.005985
147 0.006138
159 0.005
166 0.003991
172 0.002973
180 0.005962
186 0.005985
184 0.005954
137 0.005997
71 0.003987
56 0.003996
65 0.003989
78 0.006003
89 0.005984
102 0.00399
109 0.004004
112 0.003989
114 0.005984
118 0.007032
131 0.005982
140 0.005974
153 0.004987
160 0.004989
166 0.003987
173 0.005986
181 0.005982
180 0.003987
140 0.003988
85 0.003978
57 0.007014
56 0.006982
79 0.006983
92 0.006986
103 0.006982
108 0.004986
110 0.004985
113 0.004989
118 0.006
126 0.005993
138 0.004986
147 0.004988
153 0.005989
160 0.006981
171 0.004991
179 0.007
180 0.007021
124 0.004027
73 0.004991
52 0.004986
56 0.006982
71 0.00698
90 0.004986
100 0.005985
105 0.005953
106 0.006989
109 0.005983
116 0.006988
124 0.006977
136 0.00499
144 0.004984
151 0.004988
157 0.006953
164 0.00699
173 0.004971
169 0.00595
125 0.005979
72 0.007978
42 0.006026
54 0.006941
65 0.007015
80 0.00499
90 0.005033
93 0.005983
96 0.006982
100 0.007971
106 0.005977
115 0.005988
126 0.006017
136 0.007983
147 0.005984
155 0.007975
163 0.007965
168 0.005976
142 0.005999
86 0.005993
44 0.006981
35 0.006975
48 0.005018
58 0.006988
70 0.006981
83 0.007966
90 0.005984
92 0.007949
99 0.007977
107 0.005996
117 0.005984
128 0.005981
139 0.007976
144 0.00798
154 0.005985
162 0.005995
169 0.006978
147 0.007034
59 0.006953
38 0.007016
43 0.007014
56 0.007014
67 0.006937
79 0.00695
89 0.00694
94 0.007972
96 0.007021
99 0.006985
107 0.006943
121 0.006974
133 0.006974
141 0.006922
150 0.006975
157 0.006981
164 0.006969
168 0.006971
136 0.006981
81 0.006981
44 0.007013
44 0.006947
58 0.00595
70 0.006978
88 0.006975
92 0.006984
94 0.007033
96 0.006986
103 0.006971
109 0.006956
119 0.006974
133 0.007013
141 0.007015
148 0.006971
158 0.005992
165 0.005938
165 0.005994
120 0.005969
62 0.006024
33 0.006019
35 0.005978
47 0.006989
51 0.00694
64 0.007055
76 0.005984
84 0.006983
86 0.006941
90 0.006979
105 0.005973
116 0.005941
128 0.006001
136 0.006018
146 0.006015
154 0.005982
161 0.006388
166 0.006015
148 0.006016
72 0.005951
35 0.006016
31 0.00602
48 0.00599
56 0.006023
68 0.006032
79 0.006022
89 0.005018
92 0.005023
96 0.005022
104 0.00499
115 0.005017
130 0.006012
140 0.00602
149 0.005989
162 0.006035
170 0.005962
178 0.006016
166 0.006023
115 0.005018
52 0.004978
42 0.005023
55 0.00502
68 0.004986
79 0.005018
94 0.004993
100 0.005007
105 0.006017
108 0.006023
115 0.005976
125 0.005033
137 0.005026
149 0.004989
157 0.00502
164 0.005021
171 0.005023
179 0.004987
166 0.004988
112 0.005068
46 0.004986
48 0.004031
62 0.00399
74 0.00399
87 0.004022
96 0.005039
99 0.005017
100 0.004991
103 0.005021
109 0.004987
123 0.00502
132 0.004021
146 0.003991
153 0.004024
160 0.004029
167 0.004021
168 0.003991
109 0.004987
53 0.004955
27 0.005016
30 0.005018
41 0.004997
50 0.004026
60 0.004034
77 0.004019
81 0.004022
85 0.004023
91 0.003955
99 0.004022
114 0.003991
124 0.00399
132 0.004009
140 0.003992
148 0.00503
157 0.004987
148 0.004948
59 0.004025
29 0.004012
27 0.004023
36 0.003991
42 0.004031
54 0.003958
67 0.004025
75 0.004029
81 0.00403
85 0.004035
93 0.003952
104 0.005049
122 0.00399
132 0.003043
140 0.00299
147 0.002992
156 0.004021
161 0.004031
127 0.003991
72 0.004007
40 0.002965
37 0.004031
51 0.004023
59 0.004
74 0.002988
88 0.002993
92 0.003001
96 0.00399
101 0.002992
110 0.002992
124 0.002992
135 0.00305
144 0.003005
152 0.002995
160 0.003036
171 0.003095
172 0.003025
114 0.00202
64 0.003024
46 0.003023
53 0.003023
63 0.002997
77 0.004077
88 0.004031
95 0.002994
97 0.002004
99 0.002992
105 0.003043
117 0.003024
130 0.003026
139 0.002991
148 0.002988
155 0.002992
162 0.002992
172 0.002994
148 0.002983
92 0.001994
48 0.001995
37 0.001996
46 0.001998
56 0.001994
70 0.001995
82 0.003039
88 0.001996
92 0.002994
95 0.00301
107 0.002963
117 0.00304
129 0.003028
139 0.001991
148 0.002017
157 0.002033
167 0.001994
150 0.002036
95 0.001997
52 0.001996
38 0.001963
43 0.002002
52 0.001995
58 0.000998
72 0.001031
85 0.000991
93 0.001997
97 0.001996
105 0.002027
120 0.002038
131 0.002029
141 0.002039
150 0.00203
159 0.002039
169 0.002008
177 0.002056
169 0.001995
120 0.000998
69 0.000867
50 0.002053
59 0.000998
66 0.00202
79 0.001997
93 0.001997
103 0.002011
108 0.002063
111 0.001056
121 0.002033
131 0.00103
143 0.000997
153 0.000998
161 0.000997
175 0.000998
183 0.000997
190 0.000997
162 0.000997
106 0.000998
69 0.001995
63 0.002031
78 0.002024
88 0.00103
99 0.001006
110 0.001002
117 0.000997
121 0.000997
125 0.000997
136 0.000963
146 0.000998
155 0.000997
163 0.0
170 0.000998
181 0.001969
187 0.0
181 0.0
135 0.0
83 0.000999
62 0.000998
73 0.001006
88 0.000998
99 0.000997
109 0.000964
112 0.0
115 0.000998
119 0.0
126 0.0
136 0.0
146 0.0
155 0.0
168 0.0
176 0.0
182 0.0
151 0.0
92 0.0
57 0.0
52 0.0
62 0.0
68 0.0
78 0.0
92 0.0
101 0.0
107 0.0
112 0.0
123 0.0
134 0.0
144 0.0
154 0.000999
162 0.000999
174 0.002045
179 0.00204
134 0.0
81 0.000966
56 0.0
59 0.0
63 0.0
69 0.000999
84 0.00104
101 0.0
106 0.0
110 0.0
117 0.00199
126 0.001964
140 0.0
152 0.0
161 0.0
174 0.0
182 0.0
182 0.0
144 0.002041
92 0.002027
62 0.0
66 0.0
74 0.0
79 0.001045
91 0.001007
105 0.001
116 0.000967
121 0.0
127 0.0
137 0.0
149 0.001994
158 0.002008
170 0.0
180 0.0
188 0.0
196 0.002025
183 0.002027
116 0.0
80 0.0
82 0.0
89 0.00103
103 0.0
116 0.002035
126 0.002032
131 0.0
132 0.0
135 0.0
142 0.002029
152 0.002021
164 0.0
172 0.0
185 0.001012
190 0.000996
192 0.000982
153 0.001037
99 0.000991
70 0.000994
75 0.000962
83 0.00101
91 0.001995
103 0.002024
117 0.001028
121 0.0
126 0.0
133 0.0
141 0.0
151 0.00199
160 0.00203
172 0.002001
179 0.001987
187 0.00102
183 0.002993
139 0.002992
76 0.001994
63 0.0
70 0.000998
74 0.000983
84 0.001017
98 0.002019
109 0.002028
114 0.001999
118 0.001001
126 0.001992
135 0.002031
146 0.002026
159 0.001009
167 0.001997
180 0.001985
186 0.001995
165 0.001994
113 0.002006
76 0.002993
66 0.002993
71 0.001984
76 0.001998
84 0.001982
99 0.001996
112 0.002992
119 0.001988
124 0.002025
134 0.002006
145 0.000984
156 0.000976
165 0.003025
173 0.003029
184 0.000993
192 0.001983
193 0.000999
160 0.002992
109 0.002988
78 0.001995
83 0.00399
92 0.001962
103 0.001997
116 0.00199
126 0.002981
130 0.002991
134 0.002002
141 0.001035
150 0.001997
160 0.002989
171 0.002992
180 0.001001
191 0.003993
201 0.001986
208 0.001987
190 0.001992
139 0.004023
98 0.004022
89 0.001996
97 0.003001
106 0.001996
117 0.002994
129 0.003024
137 0.001995
139 0.002986
145 0.002005
152 0.001996
162 0.001994
171 0.003998
180 0.003991
189 0.002979
196 0.001996
204 0.001998
210 0.003989
199 0.004996
133 0.002959
86 0.004012
88 0.002996
96 0.001977
103 0.001983
114 0.003993
127 0.00403
134 0.002044
136 0.002044
141 0.002987
147 0.005019
156 0.004022
171 0.002974
181 0.005
191 0.002995
197 0.001934
205 0.002
210 0.004999
181 0.004987
109 0.002987
84 0.001988
85 0.002989
93 0.002984
102 0.004012
112 0.004022
131 0.005015
137 0.004984
140 0.003007
145 0.002993
153 0.002992
164 0.004982
173 0.004987
185 0.002989
193 0.003001
200 0.003009
208 0.004986
215 0.004987
171 0.004989
116 0.004987
88 0.002993
95 0.003991
107 0.003022
118 0.004987
130 0.004979
141 0.002986
144 0.002993
146 0.002999
150 0.004987
156 0.004986
171 0.004986
179 0.005999
189 0.004018
196 0.002989
202 0.003988
209 0.006015
208 0.006018
146 0.003997
99 0.003027
85 0.00401
92 0.005038
105 0.004987
125 0.004984
135 0.004986
139 0.003991
140 0.004012
143 0.003987
149 0.006015
158 0.005984
170 0.003991
177 0.004009
185 0.003986
191 0.005984
198 0.005963
199 0.005984
154 0.006018
85 0.003957
70 0.003957
76 0.003996
89 0.00596
98 0.006016
112 0.004958
121 0.003985
126 0.003984
127 0.00605
130 0.006022
144 0.005983
155 0.005986
166 0.004999
174 0.004989
182 0.004988
189 0.007017
195 0.006981
161 0.004986
102 0.004025
67 0.00403
64 0.00602
75 0.005989
91 0.005986
102 0.005983
115 0.004991
121 0.004024
123 0.004988
127 0.004989
135 0.006981
144 0.006983
158 0.005002
167 0.004993
175 0.00499
183 0.006954
196 0.00499
185 0.006979
135 0.006967
75 0.004989
67 0.004986
77 0.004989
90 0.006982
102 0.006988
116 0.004978
122 0.005005
126 0.004984
129 0.008011
138 0.005987
147 0.006996
157 0.007945
169 0.005985
176 0.004986
184 0.005026
191 0.006981
198 0.007019
176 0.004954
121 0.004987
78 0.004992
69 0.006982
89 0.005983
102 0.006979
114 0.007979
123 0.005958
125 0.005984
127 0.005985
131 0.007014
138 0.007979
151 0.005999
160 0.005983
168 0.006979
174 0.007979
185 0.004986
195 0.007959
190 0.007977
143 0.005984
86 0.005985
61 0.005983
67 0.007896
75 0.007978
93 0.006975
102 0.006982
110 0.005987
116 0.007019
121 0.006978
128 0.007033
136 0.007971
147 0.006972
157 0.005984
164 0.005985
174 0.007947
181 0.007976
189 0.005984
189 0.006008
150 0.005977
77 0.007948
57 0.006945
68 0.007982
78 0.00704
93 0.006978
100 0.006969
110 0.006967
116 0.008023
118 0.007014
123 0.007018
137 0.006974
144 0.006982
154 0.006964
171 0.006985
176 0.006982
182 0.007966
193 0.007011
189 0.006976
123 0.006952
74 0.006982
59 0.007018
67 0.006978
86 0.006976
97 0.006976
108 0.006948
116 0.005999
118 0.00698
122 0.005997
127 0.006016
140 0.006997
150 0.006999
158 0.00697
165 0.006983
172 0.006982
182 0.00698
188 0.006981
184 0.006949
98 0.006979
69 0.00697
58 0.006015
70 0.00598
89 0.006932
100 0.00599
107 0.006984
113 0.005996
115 0.005986
117 0.005977
124 0.006993
135 0.00599
150 0.00599
159 0.006015
165 0.005997
172 0.007015
181 0.005983
185 0.006949
157 0.005976
96 0.005944
54 0.005984
47 0.005945
59 0.005987
68 0.005972
85 0.00598
96 0.005983
100 0.006009
103 0.006027
109 0.006944
116 0.005954
126 0.004943
138 0.006
147 0.005986
156 0.005984
164 0.005955
172 0.005984
169 0.005988
119 0.005972
66 0.006017
43 0.005984
49 0.00598
60 0.005956
69 0.005985
80 0.005988
91 0.004988
100 0.006019
103 0.005984
106 0.004988
121 0.004994
133 0.005005
144 0.00504
152 0.005986
160 0.00603
171 0.004987
179 0.005986
183 0.004992
153 0.005023
96 0.004989
52 0.004988
53 0.004989
75 0.00502
86 0.00502
98 0.004973
106 0.004983
109 0.004984
113 0.003984
118 0.00499
126 0.004032
138 0.005033
148 0.003952
160 0.005024
167 0.004987
179 0.00502
187 0.00502
182 0.004987
136 0.005063
81 0.004984
55 0.00502
65 0.004987
81 0.005022
95 0.003973
107 0.004038
114 0.00399
115 0.003978
120 0.004008
126 0.004003
135 0.004008
145 0.00502
154 0.005001
164 0.004954
171 0.004992
178 0.005017
186 0.00505
182 0.003986
115 0.003997
63 0.004024
50 0.00399
62 0.00399
72 0.004045
83 0.004023
94 0.002997
103 0.00502
106 0.00402
109 0.005022
115 0.002948
125 0.004024
140 0.00399
150 0.004025
164 0.004045
171 0.004025
180 0.003983
184 0.003989
152 0.00402
72 0.004025
44 0.003953
45 0.002961
58 0.002993
67 0.004028
82 0.002989
93 0.004036
103 0.002965
108 0.003983
113 0.004025
121 0.004024
132 0.003987
148 0.003948
157 0.003991
165 0.003991
172 0.003949
181 0.002993
188 0.002995
149 0.004021
73 0.002993
48 0.003029
59 0.00299
72 0.003933
83 0.004028
95 0.00403
107 0.003955
109 0.004958
112 0.002993
117 0.002994
125 0.003042
140 0.002959
153 0.003042
165 0.002995
173 0.002992
180 0.003027
188 0.002993
183 0.00303
113 0.002993
66 0.00302
54 0.002992
65 0.002993
81 0.003024
102 0.003029
111 0.001998
112 0.002033
113 0.001995
116 0.001953
124 0.001995
134 0.002992
147 0.002982
155 0.003032
164 0.002956
171 0.002992
178 0.003029
183 0.001996
122 0.002993
54 0.002038
41 0.002029
50 0.001994
64 0.002029
75 0.001995
89 0.00204
97 0.001996
100 0.002028
102 0.002042
108 0.001996
119 0.001995
134 0.001996
147 0.001994
155 0.001996
164 0.001013
172 0.001995
177 0.00199
130 0.001995
69 0.001995
38 0.001991
38 0.002023
49 0.001031
60 0.000998
76 0.002039
90 0.000997
96 0.000997
99 0.001008
104 0.000998
112 0.000997
128 0.001988
139 0.002003
148 0.001004
157 0.002026
165 0.00101
173 0.000998
164 0.000999
107 0.000978
49 0.000987
43 0.000997
53 0.000997
64 0.000997
75 0.001044
90 0.000997
99 0.000997
103 0.000998
106 0.001991
111 0.002031
128 0.001981
139 0.002004
153 0.002031
160 0.0
168 0.0
177 0.0
185 0.0
164 0.000998
106 0.0
63 0.0
54 0.000997
64 0.000998
89 0.000998
101 0.000997
110 0.000998
111 0.000998
112 0.000997
117 0.0
124 0.0
136 0.0
147 0.0
156 0.0
163 0.0
171 0.001043
184 0.0
178 0.0
107 0.0
60 0.0
48 0.0
58 0.000999
72 0.000998
89 0.0
100 0.0
105 0.0
108 0.0
111 0.0
121 0.0
132 0.0
147 0.0
156 0.0
167 0.0
173 0.0
180 0.0
183 0.0
142 0.002046
80 0.0
47 0.0
46 0.001034
65 0.00104
76 0.0
89 0.002997
99 0.001044
105 0.000973
109 0.0
115 0.0
124 0.002055
135 0.002036
150 0.0
159 0.0
167 0.0
181 0.0
183 0.0
147 0.0
86 0.00203
51 0.002028
53 0.0
65 0.0
73 0.0
85 0.002028
97 0.00204
106 0.0
110 0.001012
118 0.001001
128 0.0
138 0.000997
149 0.002027
159 0.002029
170 0.0
177 0.0
186 0.0
187 0.002021
151 0.002026
77 0.0
57 0.000987
73 0.0
86 0.0
98 0.0
107 0.00203
114 0.001993
116 0.000999
119 0.0
125 0.000964
137 0.002027
147 0.001996
159 0.0
167 0.0
180 0.0
187 0.0
187 0.0
150 0.001995
93 0.002028
58 0.0
65 0.0
80 0.001007
93 0.002993
104 0.00203
113 0.0
114 0.0
118 0.0
125 0.0
135 0.0
145 0.002026
154 0.002028
165 0.0
173 0.0
180 0.001995
186 0.002025
160 0.002027
82 0.001995
51 0.0
58 0.0
68 0.002011
77 0.001033
90 0.00299
100 0.002031
105 0.001044
108 0.0
113 0.002004
120 0.00304
132 0.003006
147 0.001994
156 0.001993
169 0.00201
178 0.002008
174 0.001998
128 0.002992
72 0.003025
48 0.002993
53 0.0
60 0.000998
68 0.003005
80 0.002992
93 0.001989
102 0.001979
106 0.002996
115 0.001988
125 0.001984
136 0.001984
147 0.003005
156 0.004033
167 0.002985
176 0.001987
183 0.00199
158 0.004023
101 0.003998
56 0.002012
58 0.004005
71 0.001994
80 0.002034
92 0.001991
103 0.003016
110 0.002993
113 0.002959
118 0.00199
127 0.001994
137 0.002991
148 0.003989
161 0.002003
171 0.003985
183 0.001995
189 0.001983
167 0.001993
113 0.003989
71 0.003995
66 0.002023
78 0.001046
88 0.001993
99 0.004024
111 0.003989
117 0.001984
118 0.00399
124 0.003016
133 0.001985
144 0.001029
153 0.004022
161 0.004021
172 0.002025
180 0.001995
187 0.001993
179 0.003989
133 0.00399
70 0.002003
62 0.003993
76 0.00195
86 0.002989
99 0.002029
108 0.004025
111 0.004987
115 0.002021
119 0.002025
126 0.001969
137 0.00402
147 0.004021
158 0.002008
170 0.00396
179 0.001962
185 0.001994
159 0.002983
100 0.004991
61 0.005012
55 0.002996
62 0.002973
68 0.003006
77 0.005014
91 0.004987
101 0.004986
107 0.004986
111 0.004987
122 0.001984
132 0.001978
143 0.001993
152 0.004987
162 0.005018
172 0.002992
179 0.002982
168 0.002991
116 0.004987
69 0.004995
54 0.004987
61 0.004983
68 0.002983
79 0.003997
94 0.003995
104 0.006023
108 0.006017
113 0.003017
121 0.003026
131 0.002999
142 0.005026
152 0.005033
167 0.005017
175 0.004987
186 0.003992
175 0.002994
127 0.003969
80 0.005984
64 0.006018
71 0.003026
79 0.003012
87 0.002981
100 0.005984
111 0.006041
119 0.005019
123 0.004987
131 0.003007
143 0.00398
155 0.003945
163 0.005967
172 0.005982
183 0.003987
192 0.003968
197 0.003975
172 0.005981
118 0.006029
74 0.005997
81 0.006958
95 0.003979
107 0.003985
118 0.003993
125 0.007051
128 0.006982
131 0.004007
136 0.003978
145 0.004022
156 0.006021
165 0.006018
178 0.006033
186 0.005984
197 0.003977
192 0.003972
147 0.004021
93 0.006947
70 0.006981
75 0.003979
86 0.003989
94 0.003989
108 0.005984
118 0.005984
125 0.006019
127 0.005987
136 0.00499
146 0.004986
157 0.004956
167 0.004986
178 0.007978
184 0.006982
194 0.004987
194 0.004992
152 0.003973
94 0.007018
64 0.004927
73 0.006982
80 0.007021
92 0.005019
105 0.004984
116 0.00497
121 0.006981
124 0.006981
132 0.004985
142 0.004968
153 0.004941
164 0.006982
180 0.004998
188 0.007024
199 0.007973
189 0.004971
138 0.004972
87 0.004992
69 0.006956
74 0.006996
88 0.004983
96 0.004994
108 0.00499
120 0.007979
128 0.004986
132 0.007978
137 0.007979
150 0.005985
162 0.005981
172 0.005985
180 0.007979
193 0.007972
202 0.004977
205 0.004956
175 0.006022
117 0.007979
76 0.005971
85 0.007968
103 0.007977
116 0.006016
126 0.006015
131 0.00597
132 0.007975
135 0.007978
140 0.00598
149 0.005982
160 0.00603
171 0.007978
183 0.005979
194 0.007009
202 0.006978
173 0.006978
115 0.006978
83 0.005976
67 0.006981
78 0.007032
90 0.005985
103 0.006016
115 0.006018
123 0.007016
125 0.006012
131 0.007946
138 0.007998
147 0.005987
157 0.005972
167 0.005977
177 0.007015
186 0.007017
193 0.006988
179 0.006967
124 0.006978
72 0.006982
59 0.005989
71 0.006017
83 0.00699
94 0.007979
109 0.006972
115 0.005982
118 0.006982
122 0.007025
131 0.006982
141 0.006967
155 0.006949
166 0.006968
181 0.006983
190 0.006953
189 0.007039
148 0.006949
77 0.005984
60 0.00595
68 0.005981
80 0.006021
89 0.006024
105 0.005994
116 0.006985
121 0.006977
124 0.006983
129 0.006976
141 0.006036
152 0.00695
165 0.005986
174 0.00596
183 0.005983
191 0.005978
193 0.006027
136 0.006961
86 0.005978
68 0.005965
84 0.005955
93 0.006981
110 0.006982
119 0.006031
123 0.005967
123 0.005987
127 0.005981
133 0.005984
141 0.006018
154 0.005986
163 0.00498
171 0.005983
184 0.005983
185 0.005982
147 0.006025
91 0.004988
60 0.006009
67 0.005971
79 0.005953
89 0.005026
102 0.005995
113 0.006018
115 0.005984
117 0.005994
126 0.005989
136 0.005985
146 0.004993
155 0.004952
167 0.005027
174 0.004987
180 0.005007
160 0.004988
105 0.004988
56 0.004988
54 0.004986
62 0.004972
75 0.004985
88 0.00594
100 0.005963
106 0.006032
109 0.004991
115 0.004988
122 0.005022
134 0.005021
144 0.005019
154 0.003989
165 0.003973
174 0.00499
156 0.004981
101 0.004966
63 0.004024
56 0.004935
63 0.003957
72 0.003985
82 0.004025
97 0.005011
107 0.004968
111 0.004984
116 0.005023
122 0.00498
139 0.005034
150 0.004989
159 0.004987
168 0.00502
177 0.004028
185 0.003995
159 0.003991
105 0.004021
71 0.004046
66 0.00398
80 0.004002
88 0.00399
108 0.004989
117 0.005024
122 0.004038
124 0.004993
127 0.004044
139 0.004024
150 0.004059
160 0.00402
168 0.004026
177 0.003026
189 0.003991
191 0.00399
122 0.004026
80 0.004022
71 0.003973
79 0.004015
90 0.003996
107 0.003953
116 0.00399
122 0.00398
124 0.004047
125 0.005021
132 0.003983
142 0.003987
158 0.003956
167 0.002993
174 0.004032
182 0.003035
188 0.00305
156 0.005026
99 0.003991
66 0.004025
63 0.002041
72 0.003991
82 0.004044
93 0.004024
112 0.004987
116 0.003036
118 0.005049
122 0.004021
131 0.002995
144 0.004
154 0.004019
163 0.003998
172 0.002991
180 0.002992
185 0.003021
143 0.003957
75 0.003042
58 0.002954
64 0.003974
71 0.00399
78 0.003031
92 0.003007
108 0.002999
114 0.003025
115 0.002992
120 0.00298
129 0.002984
144 0.003031
157 0.002994
168 0.001992
177 0.002978
186 0.002001
182 0.002027
137 0.001995
74 0.002035
62 0.002011
67 0.001955
75 0.002992
82 0.003032
100 0.003026
115 0.002993
119 0.002993
122 0.002996
130 0.001995
140 0.001995
151 0.001996
165 0.001995
173 0.001952
181 0.002005
189 0.001995
198 0.001916
166 0.000987
95 0.002029
70 0.001997
79 0.003043
89 0.002005
98 0.001995
111 0.001965
123 0.001996
126 0.002002
129 0.00203
133 0.001997
141 0.002028
154 0.001994
168 0.001994
178 0.001994
185 0.002026
193 0.001028
200 0.001037
184 0.000998
110 0.000999
75 0.000998
72 0.001995
84 0.001013
96 0.001033
113 0.001031
124 0.000998
130 0.00199
131 0.001996
136 0.002039
144 0.001995
155 0.002006
168 0.001993
177 0.001031
185 0.001032
193 0.000998
200 0.000989
194 0.000998
118 0.000997
67 0.000997
66 0.001958
78 0.001988
88 0.002006
97 0.002033
110 0.002042
122 0.001996
125 0.001989
128 0.001995
134 0.002026
143 0.001996
161 0.000993
171 0.000998
182 0.000997
190 0.000997
199 0.000998
198 0.000997
155 0.000997
80 0.000998
61 0.000997
68 0.0
80 0.000999
90 0.0
110 0.0
119 0.0
124 0.0
128 0.0
134 0.0
143 0.0
154 0.000989
168 0.001004
177 0.000985
185 0.000997
194 0.0
203 0.000997
161 0.000985
99 0.000997
65 0.000998
72 0.001004
86 0.0
99 0.0
113 0.0
123 0.0
127 0.0
129 0.0
134 0.0
141 0.0
158 0.0
168 0.0
181 0.0
189 0.002014
198 0.0
205 0.0
189 0.0
109 0.002042
72 0.000998
70 0.000954
84 0.000997
101 0.000997
127 0.0
130 0.001014
128 0.002015
129 0.002025
137 0.000943
144 0.000997
153 0.0
162 0.002993
170 0.002044
181 0.000968
189 0.000964
188 0.00095
103 0.0
60 0.0
53 0.003012
65 0.002044
84 0.0
97 0.0
107 0.0
112 0.002998
113 0.003037
115 0.003022
123 0.0
133 0.0
149 0.0
158 0.0
166 0.0
176 0.002027
176 0.001995
113 0.0
61 0.0
43 0.0
48 0.001991
58 0.002994
70 0.000968
82 0.0
98 0.000996
101 0.0
105 0.0
112 0.001995
121 0.001995
135 0.0
146 0.0
154 0.0
163 0.002029
172 0.002029
146 0.0
88 0.0
43 0.0
50 0.000993
60 0.0
67 0.00203
79 0.002029
95 0.000982
100 0.001014
103 0.0
108 0.002026
116 0.003021
131 0.0
141 0.0
156 0.0
166 0.0
175 0.0
173 0.001995
130 0.002023
65 0.0
52 0.0
59 0.0
70 0.002028
80 0.002049
96 0.000992
105 0.001008
110 0.0
113 0.000953
120 0.0
131 0.003025
141 0.002996
154 0.0
162 0.000963
171 0.000999
180 0.002028
182 0.002023
128 0.000988
78 0.000976
61 0.001006
73 0.000979
84 0.00095
97 0.002993
107 0.003004
112 0.0
114 0.002021
117 0.002981
124 0.003025
134 0.002993
147 0.0
156 0.001995
166 0.00303
177 0.0
183 0.003007
162 0.001998
106 0.002992
64 0.002992
58 0.002001
68 0.002998
76 0.002992
86 0.003024
99 0.003027
108 0.001994
112 0.003014
118 0.001989
127 0.002026
139 0.001994
148 0.003028
157 0.004023
168 0.002032
176 0.001998
183 0.001999
165 0.002989
109 0.004022
56 0.001998
56 0.00402
66 0.001999
72 0.001998
84 0.002986
97 0.00399
105 0.00399
109 0.002
113 0.001995
122 0.001989
133 0.003989
145 0.004019
157 0.001995
167 0.00399
179 0.00199
186 0.002
167 0.001998
111 0.00399
68 0.003989
58 0.002999
66 0.001982
73 0.001986
83 0.004031
96 0.003989
108 0.002991
112 0.003957
119 0.002034
127 0.002043
138 0.001978
149 0.004989
159 0.004987
169 0.001984
177 0.001985
186 0.0028
191 0.00399
164 0.003989
91 0.002997
64 0.005005
76 0.002994
85 0.00199
96 0.00199
108 0.004953
117 0.004988
120 0.001994
123 0.00198
128 0.001968
138 0.003987
148 0.003995
162 0.002992
172 0.00402
182 0.003004
191 0.002992
194 0.002982
163 0.004987
102 0.005021
66 0.004987
68 0.003011
78 0.001994
85 0.002004
97 0.004988
110 0.004988
120 0.005984
123 0.006022
129 0.002991
139 0.00299
150 0.00299
160 0.004987
169 0.004986
181 0.002994
188 0.001993
197 0.002989
188 0.005982
136 0.004996
65 0.005985
64 0.006021
77 0.00296
84 0.002993
96 0.002979
109 0.005882
118 0.004986
124 0.003006
127 0.002999
135 0.002994
146 0.004994
157 0.005945
174 0.005018
182 0.006024
194 0.004003
203 0.003022
199 0.00399
152 0.005985
94 0.005984
67 0.002999
75 0.002995
88 0.00301
98 0.005969
111 0.005989
126 0.005984
129 0.006043
133 0.003957
139 0.004034
150 0.003989
162 0.005983
172 0.005988
183 0.003993
192 0.003996
199 0.003991
207 0.005984
191 0.00601
95 0.005994
69 0.005981
78 0.004019
94 0.004025
108 0.003998
120 0.007029
128 0.006983
131 0.003991
132 0.003994
138 0.003992
145 0.006975
156 0.006983
173 0.006983
182 0.006982
192 0.004957
200 0.004988
206 0.004954
176 0.006981
111 0.007015
62 0.003951
63 0.003988
77 0.004003
89 0.003992
103 0.006978
119 0.003997
124 0.007978
126 0.007014
133 0.004983
142 0.004988
152 0.004954
163 0.00701
172 0.006967
184 0.004986
192 0.003989
201 0.003999
183 0.006977
82 0.004988
57 0.007016
60 0.007979
78 0.005988
88 0.004992
101 0.005025
112 0.007978
120 0.00797
122 0.004992
127 0.004952
136 0.005009
146 0.006961
164 0.004992
173 0.006979
182 0.00698
194 0.005955
195 0.004991
156 0.005974
79 0.007978
57 0.00796
64 0.00499
80 0.004986
93 0.004986
110 0.007978
119 0.004985
122 0.00798
125 0.007978
131 0.005983
141 0.005984
152 0.005975
164 0.007977
170 0.007981
182 0.005981
191 0.004988
193 0.004999
154 0.007982
69 0.005984
63 0.006983
73 0.007979
94 0.005981
109 0.006005
117 0.005983
118 0.007016
119 0.007997
121 0.005942
129 0.005987
138 0.005979
151 0.007957
161 0.00598
172 0.007985
181 0.006982
164 0.006958
128 0.005984
73 0.005988
50 0.006977
60 0.00698
74 0.005976
87 0.005982
99 0.004996
107 0.007942
110 0.003972
113 0.006982
122 0.006975
134 0.00698
141 0.006012
150 0.006016
162 0.006981
171 0.006979
171 0.006946
132 0.005988
75 0.005974
44 0.005983
54 0.005943
63 0.006013
74 0.007029
87 0.006983
99 0.005963
100 0.006001
103 0.005977
111 0.006982
120 0.005979
135 0.005983
145 0.005986
154 0.005982
169 0.005953
168 0.006983
115 0.007002
67 0.007015
49 0.006948
52 0.005985
63 0.006973
72 0.006944
85 0.006038
99 0.005988
103 0.005979
106 0.005985
117 0.005953
129 0.005982
139 0.006017
147 0.007013
160 0.006949
169 0.005981
175 0.00698
156 0.006985
105 0.006007
62 0.005964
61 0.005985
71 0.005983
87 0.005996
98 0.005984
108 0.006015
112 0.006032
115 0.005995
120 0.006064
130 0.006014
140 0.00598
149 0.006013
160 0.006012
168 0.004987
177 0.005015
159 0.004989
106 0.004973
70 0.005943
63 0.005981
72 0.005958
79 0.005984
90 0.006051
104 0.006015
111 0.005982
114 0.00597
119 0.005988
126 0.00598
143 0.005956
152 0.00599
161 0.004988
170 0.005046
180 0.004957
185 0.004973
159 0.004989
103 0.004989
67 0.003987
62 0.004973
68 0.004984
73 0.004987
92 0.004951
106 0.004984
113 0.005983
115 0.004992
119 0.005026
130 0.004987
141 0.004984
152 0.004972
161 0.005019
169 0.004986
180 0.004989
188 0.004992
154 0.004952
98 0.003992
68 0.003991
64 0.003961
70 0.003995
77 0.003989
88 0.004819
102 0.004987
113 0.004987
118 0.005023
122 0.004986
129 0.004975
147 0.004017
159 0.003989
168 0.003996
175 0.004046
184 0.004038
195 0.003956
197 0.003952
163 0.003986
107 0.00399
77 0.00399
76 0.004985
86 0.005022
101 0.00504
114 0.004989
123 0.003999
128 0.004001
130 0.004025
137 0.00399
147 0.004023
158 0.003946
169 0.003983
177 0.003948
188 0.003994
196 0.003951
208 0.004066
187 0.00399
130 0.003991
88 0.004016
79 0.003991
91 0.004022
103 0.003989
116 0.004017
126 0.00399
131 0.004025
135 0.004002
137 0.003958
150 0.004987
160 0.003004
170 0.002972
180 0.003028
187 0.003005
198 0.003021
206 0.002993
207 0.003026
166 0.003025
106 0.002994
70 0.003955
74 0.004023
92 0.003991
102 0.005037
115 0.004022
124 0.002993
129 0.003011
131 0.002992
139 0.003023
147 0.002992
158 0.002987
169 0.003023
179 0.003028
189 0.002984
200 0.004038
201 0.003027
155 0.003023
95 0.004026
67 0.001996
70 0.002032
85 0.001986
94 0.002042
107 0.001995
120 0.002011
127 0.00203
132 0.00298
138 0.003025
150 0.002963
161 0.002992
171 0.002993
181 0.003024
190 0.001999
200 0.002029
209 0.002027
188 0.002044
128 0.001969
81 0.002034
71 0.002028
89 0.002005
106 0.001998
117 0.00204
125 0.002995
127 0.002027
129 0.001996
134 0.001995
143 0.001962
152 0.001998
163 0.002046
177 0.001995
213 0.002005
247 0.002028
254 0.001996
220 0.002025
143 0.000998
98 0.001001
90 0.000977
105 0.002039
120 0.001991
131 0.002027
136 0.002024
136 0.00103
135 0.001029
141 0.001033
152 0.001031
163 0.001
173 0.000997
182 0.002027
190 0.001981
203 0.000998
198 0.002022
142 0.0
79 0.001998
50 0.001998
58 0.001998
78 0.002039
98 0.001962
113 0.001994
121 0.000999
125 0.000997
130 0.000998
144 0.000955
157 0.000996
169 0.002011
181 0.001995
191 0.000998
201 0.00205
205 0.002027
155 0.0
70 0.001996
46 0.001997
51 0.000965
62 0.0
70 0.0
86 0.0
98 0.0
105 0.001022
107 0.0
111 0.000997
125 0.001005
137 0.0
152 0.000998
162 0.001041
172 0.000966
182 0.000998
164 0.000997
83 0.001025
43 0.0
40 0.0
51 0.0
61 0.0
82 0.0
94 0.0
101 0.0
103 0.0
109 0.0
118 0.0
129 0.000995
143 0.0
154 0.0
164 0.0
173 0.000994
174 0.000999
91 0.000998
50 0.0
47 0.0
60 0.001962
72 0.0
85 0.0
96 0.0
103 0.0
102 0.003037
108 0.0
118 0.000967
125 0.000997
146 0.0
155 0.0
166 0.003002
174 0.003042
134 0.0
76 0.0
44 0.0
43 0.003022
54 0.002994
67 0.0
80 0.0
91 0.0
100 0.0
102 0.0
109 0.002935
118 0.003026
133 0.001011
144 0.000965
153 0.0
163 0.002029
171 0.003025
152 0.001
77 0.0
42 0.0
43 0.00095
51 0.0
58 0.000951
71 0.00203
86 0.002035
96 0.0
99 0.0
104 0.000969
114 0.001984
126 0.002992
140 0.0
151 0.000965
168 0.0
174 0.000997
144 0.000998
86 0.003028
52 0.00202
49 0.001015
56 0.0
62 0.000965
74 0.001992
90 0.002027
102 0.0
105 0.0
114 0.0
124 0.001013
135 0.0
146 0.002036
155 0.001991
169 0.001002
178 0.0
178 0.0
140 0.002994
85 0.003026
60 0.0
66 0.0
78 0.0
90 0.0
103 0.0
113 0.002025
116 0.001986
119 0.0
127 0.000998
139 0.0
150 0.002029
159 0.002028
172 0.0
181 0.0
193 0.0
162 0.0
104 0.0
70 0.003
64 0.002976
72 0.00095
78 0.0
89 0.0
103 0.002031
114 0.002033
119 0.000959
122 0.000999
137 0.000999
149 0.0
160 0.000965
170 0.001993
179 0.003038
192 0.0
198 0.0
173 0.0
115 0.002991
75 0.003025
68 0.0
74 0.0
84 0.002002
98 0.0
115 0.001997
121 0.00203
124 0.002994
131 0.0
141 0.0
152 0.0
164 0.002993
176 0.002997
184 0.003007
195 0.002003
206 0.00304
174 0.003005
116 0.002981
81 0.002999
77 0.003024
85 0.003985
96 0.002001
109 0.002985
123 0.0
132 0.002992
135 0.002991
139 0.002028
148 0.002992
163 0.002
172 0.001046
182 0.0
189 0.003025
198 0.003981
209 0.0
193 0.002997
137 0.002004
90 0.003981
77 0.003935
89 0.002989
103 0.002992
120 0.002993
132 0.002032
136 0.003016
138 0.003967
141 0.003987
152 0.001998
164 0.001999
174 0.001994
184 0.003993
193 0.003989
205 0.002991
216 0.00399
181 0.001997
117 0.002991
78 0.002991
71 0.004001
79 0.003989
91 0.002995
102 0.001994
116 0.002997
127 0.003989
132 0.003994
135 0.001996
146 0.004021
160 0.002999
172 0.003021
183 0.001997
192 0.004985
201 0.003957
214 0.002982
206 0.002992
150 0.002992
96 0.00401
76 0.003999
84 0.00299
99 0.004019
116 0.002986
129 0.001997
136 0.001993
138 0.004991
142 0.004992
151 0.001998
161 0.002993
174 0.002993
185 0.004983
195 0.004964
209 0.002993
222 0.005037
213 0.00504
140 0.001988
97 0.002994
88 0.002993
98 0.004993
113 0.004991
132 0.002003
143 0.002001
149 0.002957
150 0.004977
151 0.005984
161 0.006019
172 0.006025
186 0.002984
196 0.002991
205 0.00299
215 0.005951
223 0.00595
200 0.002992
141 0.002992
96 0.00294
85 0.004995
94 0.005953
115 0.004986
129 0.005984
141 0.003002
144 0.002963
147 0.002996
150 0.006014
157 0.005968
172 0.002979
181 0.002987
191 0.002991
201 0.005981
210 0.005981
218 0.006014
176 0.005985
100 0.002988
79 0.002964
81 0.00299
91 0.005988
100 0.005977
117 0.003015
128 0.002999
134 0.002992
136 0.00598
140 0.006999
153 0.007025
164 0.006981
179 0.00303
188 0.003996
197 0.004905
207 0.005966
208 0.005994
143 0.003006
90 0.00396
70 0.003961
74 0.005983
82 0.006985
98 0.007016
111 0.007014
124 0.00303
128 0.003989
130 0.003983
136 0.006995
146 0.005989
160 0.003028
171 0.003993
182 0.003996
192 0.006987
202 0.007
183 0.006978
124 0.006981
74 0.003991
70 0.003992
80 0.003991
91 0.004002
103 0.007949
116 0.007007
126 0.004021
129 0.005019
132 0.004989
137 0.006982
153 0.00497
165 0.007016
175 0.006964
187 0.004957
197 0.00399
205 0.003988
180 0.006981
124 0.006982
77 0.003989
76 0.003985
88 0.003984
102 0.006972
124 0.004989
130 0.007972
130 0.00798
131 0.004984
137 0.004983
145 0.003977
154 0.006962
164 0.006977
177 0.00397
185 0.00299
195 0.004012
190 0.007975
102 0.005018
68 0.006984
63 0.006981
79 0.005028
92 0.005012
105 0.005009
115 0.007978
120 0.00798
121 0.004987
124 0.004978
131 0.004992
144 0.007973
159 0.004999
171 0.007971
181 0.007978
187 0.004986
159 0.004986
100 0.005985
55 0.006956
55 0.006987
63 0.005017
72 0.005984
85 0.005987
97 0.00796
109 0.004987
112 0.007981
118 0.007975
126 0.004984
136 0.005987
146 0.005953
160 0.006969
170 0.00698
178 0.005975
164 0.005979
112 0.004992
57 0.006981
55 0.005986
67 0.006979
76 0.005984
90 0.004992
103 0.006022
109 0.005979
113 0.006989
118 0.006977
126 0.005977
137 0.005976
148 0.00599
157 0.005985
173 0.005981
183 0.00598
161 0.007017
107 0.006016
66 0.005989
67 0.006017
74 0.006864
89 0.00702
104 0.006995
115 0.005997
120 0.005971
123 0.005973
132 0.006983
137 0.005983
150 0.006014
159 0.006018
172 0.005996
181 0.005983
191 0.005976
184 0.006016
139 0.004989
80 0.005981
73 0.005976
77 0.005987
97 0.005991
115 0.005968
126 0.005989
130 0.00602
131 0.005986
136 0.005984
144 0.005984
153 0.007015
163 0.006033
175 0.005987
183 0.00598
192 0.005947
182 0.005989
129 0.006
83 0.006054
69 0.006017
78 0.005991
88 0.005988
98 0.005976
112 0.006016
121 0.005991
126 0.005986
128 0.005999
133 0.005986
149 0.004989
159 0.005981
170 0.004988
178 0.005028
189 0.004992
197 0.005076
176 0.004988
120 0.005019
79 0.003944
71 0.005985
80 0.005986
90 0.005978
111 0.005985
123 0.005971
126 0.004968
127 0.005017
134 0.004988
142 0.004981
151 0.004945
162 0.005023
173 0.005019
183 0.004987
194 0.00499
199 0.005984
139 0.004955
91 0.004946
76 0.005033
82 0.005029
96 0.003937
114 0.003999
125 0.004983
131 0.004979
133 0.004981
134 0.00499
140 0.004984
149 0.004984
164 0.003992
174 0.003997
182 0.003965
190 0.003991
199 0.004029
170 0.003989
113 0.00399
76 0.004977
69 0.005023
78 0.005042
95 0.004992
107 0.004998
122 0.003998
124 0.004007
126 0.004015
131 0.004032
139 0.003945
151 0.00401
162 0.003993
170 0.003946
179 0.00396
186 0.003986
184 0.004953
136 0.004993
63 0.003952
58 0.003991
67 0.003992
76 0.004
85 0.00399
103 0.003985
111 0.003986
114 0.003975
116 0.003033
122 0.00399
134 0.00399
144 0.002987
160 0.003031
170 0.002977
179 0.003001
184 0.003024
156 0.003031
84 0.003988
58 0.003988
58 0.003982
68 0.004023
77 0.004
94 0.004029
106 0.004047
114 0.00399
116 0.004004
121 0.003027
130 0.002994
141 0.002991
154 0.002994
163 0.00399
172 0.002993
181 0.003997
187 0.002972
146 0.003958
92 0.003985
64 0.002994
74 0.002964
85 0.001999
96 0.003031
109 0.003025
117 0.002991
119 0.002989
121 0.003022
127 0.002958
136 0.002955
145 0.003026
159 0.003025
170 0.002992
183 0.001994
188 0.002036
168 0.002032
115 0.001997
72 0.002006
63 0.003001
73 0.002996
82 0.00299
93 0.002985
108 0.003019
117 0.003032
120 0.001995
125 0.001988
134 0.001999
145 0.001963
154 0.001995
164 0.002028
175 0.001996
183 0.001995
187 0.000997
156 0.002026
99 0.002025
58 0.002026
62 0.002026
71 0.001995
79 0.001995
94 0.002025
106 0.002027
110 0.002003
113 0.002045
119 0.002005
127 0.002002
139 0.002026
149 0.001993
160 0.002029
172 0.001995
181 0.000998
169 0.000997
117 0.001964
70 0.001983
55 0.002029
64 0.001993
70 0.001952
78 0.00201
93 0.001995
105 0.001988
111 0.001995
115 0.000998
124 0.001983
135 0.001936
146 0.000965
155 0.001004
164 0.000998
174 0.001997
184 0.002015
181 0.00202
142 0.002028
88 0.002028
63 0.002023
75 0.001994
88 0.002009
100 0.001997
113 0.001994
119 0.001949
121 0.001991
124 0.001996
131 0.001955
141 0.001995
152 0.001041
160 0.000998
172 0.000997
183 0.000997
192 0.000998
172 0.000998
116 0.000965
75 0.000998
65 0.001001
74 0.00101
88 0.001998
99 0.0
110 0.000998
117 0.0
118 0.0
123 0.0
131 0.0
143 0.001007
154 0.0
163 0.000999
171 0.000996
179 0.000997
188 0.000962
165 0.000962
108 0.000999
65 0.0
56 0.000997
69 0.0
74 0.0
91 0.0
104 0.0
111 0.0
112 0.0
115 0.0
127 0.0
137 0.0
149 0.0
159 0.0
167 0.0
181 0.0
181 0.0
123 0.0
71 0.000997
51 0.0
55 0.0
62 0.0
70 0.0
84 0.003025
103 0.0
107 0.0
111 0.000987
118 0.0
133 0.0
144 0.00299
154 0.003023
166 0.0
172 0.000998
183 0.0
185 0.003024
150 0.002992
93 0.0
60 0.0
61 0.000972
73 0.000955
82 0.001014
97 0.003013
108 0.001992
115 0.001018
118 0.0
123 0.0
134 0.002992
146 0.002993
160 0.0
168 0.0
177 0.0
192 0.000997
198 0.0
177 0.0
121 0.002994
78 0.003024
70 0.0
82 0.0
93 0.0
105 0.002036
