170 0.013911
172 0.002034
176 0.00201
180 0.001999
154 0.002026
69 0.000997
59 0.000997
52 0.000997
52 0.000998
59 0.0
77 0.0
83 0.0
86 0.0
92 0.0
97 0.0
107 0.0
114 0.0
124 0.0
133 0.000999
138 0.002036
146 0.002987
151 0.002994
156 0.002991
161 0.002963
165 0.003003
169 0.003954
175 0.004953
174 0.004987
103 0.004941
66 0.004955
59 0.005945
56 0.004984
58 0.004983
73 0.004958
88 0.004959
92 0.004987
96 0.005984
104 0.005956
111 0.005985
121 0.006018
127 0.005984
136 0.005969
142 0.00602
148 0.006019
153 0.005899
158 0.005984
163 0.006093
167 0.005959
170 0.005984
175 0.006017
158 0.007027
106 0.007933
72 0.007016
67 0.007947
62 0.006964
68 0.006939
79 0.006937
95 0.006981
98 0.006998
101 0.006938
107 0.006981
112 0.007021
123 0.007027
129 0.006927
138 0.006948
147 0.00702
151 0.007025
158 0.006947
164 0.006015
167 0.007044
173 0.005033
176 0.005934
179 0.004979
185 0.005023
185 0.005028
114 0.004985
74 0.004022
65 0.003988
61 0.002999
64 0.003017
80 0.003025
93 0.004013
97 0.003025
101 0.002995
108 0.000997
114 0.000991
124 0.000997
131 0.000999
141 0.001024
148 0.0
154 0.0
160 0.000998
167 0.001995
171 0.002028
177 0.001996
181 0.002041
187 0.002992
193 0.003826
192 0.004949
110 0.004833
73 0.00595
69 0.006994
69 0.00794
76 0.007012
88 0.006016
105 0.006023
107 0.007022
110 0.005983
115 0.006977
123 0.004967
131 0.004985
140 0.004986
146 0.004986
154 0.004987
160 0.004113
165 0.004032
171 0.003025
174 0.00399
180 0.003036
185 0.003038
188 0.003027
191 0.002994
158 0.002992
80 0.001998
69 0.003017
68 0.003028
72 0.00299
88 0.002037
100 0.001995
106 0.001026
108 0.001007
113 0.001003
122 0.0
128 0.000998
136 0.000998
148 0.0
152 0.0
158 0.000999
162 0.001997
169 0.001995
175 0.001995
179 0.001995
186 0.001834
191 0.003002
193 0.002958
199 0.003991
188 0.003949
91 0.00499
66 0.004958
65 0.004988
67 0.004987
78 0.004955
95 0.004983
104 0.00598
107 0.006976
110 0.007948
115 0.007917
123 0.007942
134 0.008003
139 0.007028
146 0.006991
153 0.00702
161 0.005024
165 0.005005
171 0.005019
174 0.004987
179 0.004992
184 0.004987
186 0.004987
189 0.004976
182 0.005025
90 0.00403
62 0.003989
60 0.003022
63 0.004034
77 0.00399
90 0.003989
100 0.004063
101 0.003989
105 0.003989
115 0.002991
121 0.003989
130 0.002988
138 0.002979
148 0.001989
155 0.002023
158 0.002018
165 0.001995
172 0.002046
176 0.001995
182 0.000995
184 0.000995
187 0.001037
190 0.001995
187 0.000975
117 0.001995
62 0.000998
53 0.000998
52 0.000855
56 0.0
68 0.0
87 0.000998
91 0.000999
94 0.000998
98 0.001995
108 0.001995
120 0.001945
127 0.002011
137 0.001995
146 0.001995
151 0.001948
158 0.002025
162 0.003043
170 0.001952
176 0.003029
179 0.001994
183 0.002993
185 0.003031
189 0.002959
179 0.002993
97 0.003024
59 0.003951
53 0.004987
53 0.004895
62 0.006027
75 0.005984
91 0.005988
93 0.006027
96 0.006972
102 0.007024
113 0.005021
117 0.005011
128 0.003991
139 0.003027
143 0.002977
151 0.002992
155 0.003041
161 0.002035
166 0.004022
171 0.002033
175 0.002992
179 0.002033
181 0.002032
150 0.002036
73 0.001037
53 0.001002
48 0.0
48 0.001028
59 0.0
75 0.001
84 0.0
86 0.001041
89 0.0
98 0.0
109 0.001035
116 0.000959
127 0.001995
136 0.002014
141 0.001995
148 0.001996
152 0.002992
159 0.002985
166 0.002975
170 0.003954
175 0.004023
179 0.003988
182 0.00399
181 0.004029
117 0.00402
61 0.005014
48 0.00502
46 0.005027
48 0.004986
64 0.006035
75 0.005972
81 0.006976
84 0.007024
88 0.007012
98 0.00599
105 0.005021
119 0.003999
127 0.005038
134 0.00399
142 0.00499
149 0.004987
153 0.004986
160 0.00397
165 0.003992
172 0.003031
177 0.001011
180 0.000964
183 0.0
184 0.0
151 0.0
66 0.0
51 0.000998
49 0.000997
52 0.001016
61 0.001948
80 0.003043
86 0.002985
88 0.002992
94 0.002953
105 0.002992
112 0.003023
122 0.002959
129 0.003982
137 0.003988
143 0.003998
148 0.003985
153 0.005034
159 0.004982
165 0.00502
171 0.004894
174 0.005032
179 0.004983
179 0.005988
137 0.006016
62 0.005975
51 0.005981
44 0.007011
45 0.008009
54 0.007841
66 0.006985
79 0.007028
82 0.005985
88 0.005979
94 0.005986
106 0.006024
115 0.007009
123 0.006019
131 0.006977
138 0.005991
144 0.00598
151 0.003954
155 0.003989
161 0.003035
168 0.001985
172 0.002992
177 0.001999
183 0.002033
184 0.002036
118 0.002037
72 0.002038
53 0.002034
46 0.002
45 0.001958
53 0.002037
65 0.00198
78 0.001995
83 0.0
86 0.0
97 0.0
106 0.0
116 0.0
124 0.0
133 0.0
139 0.0
147 0.001988
151 0.001999
158 0.001995
165 0.002945
169 0.00296
175 0.002992
178 0.002993
183 0.002948
187 0.00295
179 0.002992
88 0.003028
56 0.003033
52 0.003987
50 0.003989
54 0.003995
73 0.004021
83 0.003984
85 0.003981
90 0.004035
96 0.003989
105 0.003956
116 0.00399
122 0.004038
131 0.00502
139 0.005989
144 0.006975
148 0.006984
156 0.005954
160 0.005986
166 0.00598
170 0.005978
174 0.006028
180 0.006022
183 0.005976
149 0.006028
108 0.006018
62 0.006023
51 0.005031
47 0.004001
51 0.004987
69 0.003975
77 0.002985
82 0.003034
89 0.002032
94 0.002996
106 0.002035
113 0.003026
121 0.002036
130 0.001982
135 0.001989
143 0.002038
149 0.0
155 0.0
162 0.0
167 0.0
171 0.0
176 0.000998
180 0.000985
186 0.000998
187 0.001003
117 0.002993
65 0.004986
53 0.00603
48 0.006917
49 0.006966
60 0.00794
72 0.007943
83 0.007962
84 0.007979
92 0.006981
100 0.006024
107 0.006018
118 0.005993
124 0.00597
135 0.004973
142 0.004961
146 0.005017
153 0.00399
159 0.004987
164 0.00403
168 0.003977
172 0.003011
175 0.004019
180 0.003988
181 0.004021
119 0.002002
73 0.002036
61 0.001995
57 0.001074
58 0.002031
74 0.00104
89 0.001006
90 0.0
94 0.0
102 0.0
107 0.0
118 0.0
124 0.000997
133 0.002025
141 0.002027
145 0.00199
152 0.001953
158 0.002994
163 0.002995
169 0.002995
172 0.002964
177 0.003036
180 0.002957
184 0.003991
185 0.005999
112 0.007018
74 0.007016
57 0.006972
47 0.006024
45 0.006982
53 0.006015
72 0.004987
77 0.004982
82 0.005021
87 0.005021
97 0.005027
106 0.00503
113 0.005018
124 0.005028
129 0.005028
140 0.003979
146 0.004987
152 0.003998
159 0.004977
166 0.00397
170 0.00399
176 0.003993
179 0.003995
183 0.002988
188 0.003039
186 0.002992
104 0.001989
72 0.003023
54 0.001067
49 0.00104
50 0.00099
67 0.001026
82 0.000999
85 0.000998
89 0.001006
95 0.000966
104 0.0
115 0.0
122 0.0
132 0.0
138 0.0
144 0.0
149 0.0
155 0.0
161 0.001
167 0.001954
170 0.001008
175 0.003005
181 0.00404
183 0.004028
134 0.003986
86 0.003979
61 0.004029
53 0.003979
53 0.004002
64 0.005027
83 0.005033
88 0.006984
92 0.007012
96 0.007943
102 0.007945
113 0.007979
120 0.007979
131 0.006997
139 0.005984
144 0.005984
151 0.005972
158 0.001994
162 0.004987
169 0.003987
173 0.00502
178 0.004014
182 0.004034
185 0.004028
189 0.002987
169 0.003004
95 0.002989
59 0.002114
52 0.000997
49 0.000989
55 0.000998
67 0.000998
82 0.000969
87 0.000998
91 0.000998
101 0.000995
108 0.000999
120 0.000996
128 0.000999
135 0.001996
142 0.002003
149 0.003024
154 0.003035
162 0.002949
166 0.002994
172 0.002993
178 0.00396
181 0.003992
186 0.004024
189 0.004029
159 0.00403
79 0.004988
64 0.005891
56 0.007021
56 0.007028
65 0.007015
82 0.007982
90 0.007936
91 0.007947
97 0.007979
102 0.007979
116 0.007968
125 0.007021
131 0.007979
140 0.005993
148 0.005981
152 0.005029
158 0.006027
163 0.005019
169 0.004994
174 0.004992
177 0.005027
182 0.00497
186 0.005028
166 0.003984
93 0.00503
64 0.002995
52 0.003987
47 0.002992
49 0.003029
66 0.003004
77 0.002997
83 0.002992
90 0.001993
95 0.002962
107 0.001045
119 0.001031
124 0.001029
134 0.001065
139 0.001993
145 0.000997
153 0.0
156 0.000997
165 0.0
169 0.000997
173 0.000997
177 0.000956
180 0.000995
185 0.000999
154 0.001008
98 0.00099
62 0.001995
51 0.003035
46 0.003024
49 0.003994
63 0.003978
78 0.003991
83 0.004019
87 0.00504
97 0.005026
109 0.005026
116 0.005024
127 0.005018
133 0.004989
141 0.005035
148 0.005026
152 0.005021
159 0.004986
164 0.00605
170 0.006035
175 0.006966
178 0.006988
184 0.007023
185 0.007985
165 0.007025
83 0.007983
63 0.006106
57 0.004987
54 0.003991
58 0.004977
79 0.004029
88 0.004034
88 0.004013
95 0.001998
103 0.002039
112 0.001
123 0.00097
128 0.000993
136 0.001043
142 0.002021
147 0.0
153 0.001014
159 0.0
163 0.000998
169 0.002006
172 0.000997
176 0.000998
180 0.001995
174 0.002007
109 0.002992
64 0.003026
54 0.003027
45 0.002994
44 0.003019
56 0.003038
75 0.003028
79 0.002995
84 0.003024
94 0.002996
101 0.004032
113 0.00397
120 0.004926
129 0.005019
138 0.004988
143 0.005021
151 0.004987
155 0.004979
163 0.005022
169 0.005001
174 0.00485
178 0.005019
182 0.004977
186 0.005017
179 0.004998
129 0.004987
70 0.005986
53 0.004978
49 0.005992
49 0.005984
58 0.007009
78 0.006972
84 0.007028
87 0.00697
96 0.006981
106 0.007016
112 0.006993
123 0.007021
129 0.006983
137 0.00702
143 0.007928
149 0.007018
154 0.007023
161 0.004996
166 0.004987
171 0.005984
174 0.005984
179 0.005019
181 0.005028
153 0.005027
80 0.004021
62 0.003006
53 0.00198
51 0.002035
58 0.00202
79 0.00203
85 0.002993
88 0.002035
94 0.003027
103 0.002023
112 0.003002
123 0.003032
129 0.002995
138 0.002993
143 0.001028
149 0.001039
156 0.0
160 0.001024
166 0.0
172 0.0
175 0.0
179 0.0
181 0.001005
185 0.000997
147 0.00095
110 0.0
67 0.000998
51 0.000997
47 0.000997
48 0.001022
58 0.00103
77 0.000998
83 0.0
87 0.000999
98 0.000997
105 0.001004
117 0.001995
126 0.001996
133 0.00201
141 0.001968
148 0.002993
152 0.002987
160 0.004987
167 0.005985
171 0.005998
177 0.005975
180 0.005989
184 0.00606
189 0.005969
192 0.005976
163 0.005986
107 0.005956
67 0.006014
55 0.005984
52 0.00684
55 0.007979
76 0.006978
86 0.007977
90 0.007962
93 0.005995
101 0.006981
113 0.007012
120 0.007015
130 0.007026
139 0.004975
144 0.005041
151 0.003014
155 0.005026
162 0.00403
169 0.003006
173 0.002994
179 0.003004
181 0.004032
185 0.002963
189 0.003033
185 0.002026
122 0.002992
72 0.003991
62 0.00399
53 0.003041
53 0.003022
66 0.002031
85 0.000983
89 0.002035
95 0.001
104 0.000996
112 0.001032
123 0.000998
130 0.001035
139 0.001012
147 0.001031
151 0.001035
158 0.0
162 0.0
169 0.001002
175 0.001028
179 0.000978
183 0.001023
186 0.0
189 0.000998
193 0.000998
195 0.001112
133 0.0
81 0.000999
64 0.000998
55 0.000997
53 0.000997
59 0.000997
79 0.001997
86 0.00203
91 0.003948
99 0.004021
106 0.003992
118 0.003989
129 0.003956
135 0.004035
143 0.005027
148 0.005018
155 0.004995
162 0.006014
167 0.006015
174 0.006026
177 0.005981
182 0.005984
186 0.006021
189 0.006011
192 0.006014
190 0.007946
149 0.007012
80 0.007015
68 0.007021
60 0.007019
62 0.006947
72 0.007026
90 0.006018
94 0.005027
97 0.00502
106 0.005009
112 0.005036
123 0.005024
133 0.005033
138 0.00502
145 0.003999
149 0.003958
155 0.004986
161 0.00504
165 0.004989
171 0.004977
176 0.00399
179 0.004987
183 0.004021
185 0.004984
189 0.003112
152 0.002985
97 0.003029
63 0.001981
54 0.001998
47 0.002004
51 0.002035
62 0.000999
78 0.0
82 0.000999
88 0.0
96 0.001013
107 0.0
114 0.000998
124 0.0
130 0.001007
138 0.000998
143 0.001008
149 0.001004
155 0.003023
162 0.002987
166 0.002992
173 0.00294
176 0.002947
180 0.003045
185 0.00296
188 0.002961
175 0.004022
120 0.00399
69 0.00398
53 0.003997
49 0.003988
49 0.004021
67 0.004956
77 0.004987
83 0.004986
87 0.00603
97 0.006989
107 0.007018
116 0.005029
122 0.004986
132 0.004985
136 0.005031
143 0.004992
150 0.00399
154 0.005017
161 0.00399
166 0.004986
171 0.004024
176 0.003989
178 0.003031
183 0.003004
182 0.001994
143 0.002014
78 0.001988
66 0.002001
56 0.000999
56 0.001981
66 0.001
82 0.001996
89 0.001001
91 0.001034
99 0.000997
106 0.001003
117 0.0
125 0.0
130 0.0
139 0.000999
145 0.000961
150 0.000998
157 0.000987
161 0.001009
167 0.000998
173 0.001996
176 0.001999
180 0.002055
182 0.002054
186 0.001992
178 0.002031
129 0.001994
72 0.001996
56 0.003016
48 0.002993
46 0.003039
53 0.003027
70 0.003987
80 0.004029
83 0.003986
92 0.005022
99 0.005028
111 0.004992
122 0.005027
128 0.005027
137 0.004987
144 0.005032
149 0.005017
156 0.005021
160 0.005021
167 0.004985
173 0.005016
177 0.006011
181 0.005989
184 0.005994
189 0.006022
190 0.005992
146 0.005986
84 0.005996
63 0.007948
55 0.007949
51 0.007983
55 0.007994
71 0.007978
82 0.007025
86 0.007014
93 0.005993
100 0.006979
112 0.005984
123 0.006009
128 0.006015
137 0.006013
144 0.006017
148 0.006018
155 0.005973
159 0.004952
165 0.004034
171 0.003971
175 0.003003
179 0.003988
183 0.004029
186 0.00399
172 0.003989
120 0.004184
71 0.004034
56 0.002991
52 0.003988
54 0.002026
64 0.003002
82 0.002003
88 0.002002
92 0.001994
101 0.001996
111 0.001977
120 0.001001
128 0.001995
135 0.000999
142 0.002027
149 0.001995
152 0.001004
159 0.0
166 0.0
171 0.0
175 0.000998
179 0.000997
182 0.000974
186 0.000968
189 0.001022
188 0.000997
148 0.000998
78 0.001993
57 0.002026
51 0.003007
48 0.002959
62 0.002992
74 0.002992
83 0.003025
87 0.004037
96 0.00386
107 0.005024
115 0.005034
126 0.00498
133 0.00503
140 0.005035
146 0.004838
151 0.004989
157 0.005978
165 0.006025
168 0.006014
175 0.005997
178 0.005984
182 0.007012
186 0.006996
189 0.007016
192 0.006979
156 0.006994
101 0.005982
66 0.00701
59 0.005981
54 0.005982
63 0.00599
76 0.005981
88 0.005978
90 0.006982
95 0.006024
104 0.007024
113 0.006023
122 0.005991
132 0.005984
137 0.006068
144 0.004979
150 0.002997
155 0.004032
162 0.002001
168 0.0
172 0.0
176 0.0
179 0.0
182 0.0
186 0.0
189 0.0
166 0.0
83 0.001006
65 0.000998
50 0.000998
45 0.000998
47 0.002012
62 0.000997
76 0.001996
81 0.001989
86 0.001997
94 0.002029
106 0.001985
114 0.003001
124 0.001998
133 0.003026
138 0.001995
145 0.002957
149 0.002971
157 0.003031
164 0.002973
168 0.003979
174 0.004023
178 0.004012
183 0.004032
187 0.003954
189 0.003986
194 0.004036
180 0.003969
105 0.003966
69 0.004039
55 0.004024
49 0.005021
50 0.004984
59 0.005022
78 0.00503
83 0.005034
88 0.00601
98 0.006028
106 0.006014
117 0.005985
128 0.005986
133 0.005986
141 0.006027
144 0.006958
152 0.006981
159 0.006972
163 0.006985
169 0.006988
173 0.007022
178 0.006991
181 0.007979
184 0.005023
188 0.006989
191 0.006985
170 0.005981
87 0.005984
69 0.005971
58 0.004962
56 0.003994
62 0.004031
82 0.002998
89 0.002996
91 0.002997
99 0.003016
106 0.003035
118 0.0
128 0.00103
134 0.0
142 0.0
147 0.000986
151 0.0
157 0.0
164 0.000998
168 0.001014
174 0.000997
177 0.000998
182 0.001003
185 0.000847
187 0.000998
190 0.000998
191 0.001988
155 0.002956
78 0.002993
62 0.002999
49 0.002976
45 0.004092
49 0.005122
68 0.005892
79 0.005987
82 0.006019
91 0.006971
97 0.006977
107 0.007012
116 0.007976
124 0.005017
132 0.006027
139 0.005028
144 0.004983
152 0.005029
160 0.004002
164 0.004987
171 0.004009
175 0.004991
181 0.003996
185 0.003982
188 0.002998
193 0.00403
196 0.001029
176 0.001018
88 0.001001
72 0.00099
54 0.0
50 0.001998
54 0.0
69 0.000998
83 0.0
86 0.0
92 0.0
98 0.001031
110 0.001995
119 0.002988
127 0.002961
134 0.002992
141 0.003991
145 0.003996
152 0.005033
159 0.005022
164 0.005
170 0.005023
173 0.005016
178 0.005847
182 0.005986
184 0.006019
187 0.005984
167 0.005951
86 0.005984
62 0.006945
57 0.00595
54 0.005982
63 0.007028
80 0.006988
86 0.006991
88 0.006988
93 0.007979
106 0.007973
112 0.007977
123 0.007978
127 0.00796
136 0.007978
143 0.005006
147 0.005965
153 0.004985
160 0.003971
164 0.003983
170 0.004084
173 0.003997
177 0.00299
180 0.003973
183 0.002013
186 0.00403
184 0.002996
142 0.003023
75 0.002029
54 0.0
48 0.0
44 0.0
48 0.000957
64 0.001003
76 0.000997
79 0.000994
87 0.000997
99 0.000987
106 0.001029
117 0.001001
123 0.000998
132 0.000997
139 0.002035
143 0.001992
151 0.002027
155 0.001996
162 0.002038
169 0.002992
172 0.002992
177 0.002992
180 0.002994
183 0.003992
187 0.003901
187 0.003984
136 0.004027
74 0.003942
61 0.004984
51 0.005985
51 0.005974
59 0.006025
78 0.006012
83 0.006986
88 0.006985
98 0.006971
104 0.006969
116 0.006986
124 0.006997
129 0.006969
136 0.007021
141 0.00703
147 0.004995
153 0.006027
159 0.004988
164 0.005984
170 0.004988
173 0.00598
177 0.005984
179 0.005984
184 0.005028
180 0.004022
137 0.005025
76 0.004035
64 0.004986
53 0.003001
52 0.002003
59 0.00201
79 0.001
86 0.002006
90 0.002
99 0.000999
108 0.002031
117 0.0
125 0.000998
133 0.0
139 0.0
146 0.002053
150 0.002051
156 0.000999
161 0.0
167 0.001981
173 0.00399
179 0.005022
182 0.006019
185 0.00596
187 0.005942
191 0.006019
193 0.005977
163 0.006032
85 0.005995
62 0.006964
55 0.006975
51 0.005969
53 0.005985
70 0.005995
82 0.007011
86 0.005986
92 0.006985
103 0.007013
110 0.007015
121 0.006947
127 0.007023
137 0.006981
145 0.005027
149 0.006982
156 0.004958
160 0.006015
167 0.004987
174 0.004987
178 0.003957
183 0.00304
188 0.002031
190 0.002026
195 0.003032
197 0.002032
179 0.002032
105 0.002992
76 0.001988
67 0.002992
64 0.001964
68 0.002038
88 0.002038
95 0.002026
97 0.001993
102 0.001012
110 0.0
119 0.000997
130 0.000997
136 0.002027
143 0.00295
151 0.004046
155 0.003978
161 0.003978
165 0.00498
171 0.00602
176 0.006026
179 0.006018
183 0.005984
186 0.006017
189 0.006014
192 0.005984
177 0.005972
91 0.006983
67 0.007014
58 0.006952
51 0.007979
51 0.007013
59 0.007011
78 0.005004
83 0.006019
89 0.004998
99 0.005053
105 0.004039
117 0.005022
127 0.003982
132 0.002017
140 0.000994
146 0.00203
152 0.000997
159 0.001023
165 0.000953
171 0.001028
178 0.001045
181 0.001004
186 0.000998
189 0.000997
192 0.000969
196 0.003028
170 0.00395
112 0.00399
69 0.004944
56 0.005034
54 0.005033
58 0.005026
69 0.005992
85 0.006022
89 0.005983
93 0.007014
104 0.007015
113 0.007015
120 0.006995
130 0.006024
135 0.005984
142 0.005004
147 0.005984
152 0.004025
158 0.005029
165 0.005004
169 0.00399
175 0.004025
177 0.004021
181 0.00399
185 0.001992
186 0.002992
127 0.001999
74 0.002027
66 0.001068
61 0.002029
61 0.000998
76 0.002044
91 0.000999
93 0.0
98 0.0
105 0.0
112 0.000998
123 0.000959
129 0.000959
138 0.001995
145 0.002988
149 0.002992
155 0.002993
161 0.004023
166 0.004024
171 0.003986
176 0.003992
179 0.005022
184 0.004977
186 0.006014
190 0.006017
192 0.006978
171 0.007031
86 0.00602
62 0.006978
55 0.006979
50 0.006987
53 0.006984
66 0.006976
82 0.006982
86 0.006985
91 0.006947
97 0.007005
109 0.00698
118 0.007979
126 0.007964
133 0.005993
141 0.004985
146 0.006018
153 0.004985
157 0.005985
165 0.005029
172 0.004035
175 0.003977
180 0.003992
184 0.002991
186 0.002994
191 0.002992
194 0.002984
154 0.002992
88 0.004006
68 0.002991
60 0.003989
58 0.001013
62 0.000998
81 0.0
90 0.000998
94 0.001995
99 0.001954
107 0.001994
116 0.001996
127 0.003033
133 0.002867
142 0.002988
149 0.002992
153 0.004024
160 0.003989
164 0.003996
171 0.004035
176 0.004989
179 0.005984
183 0.005992
187 0.005983
190 0.005987
191 0.005986
162 0.005984
85 0.006015
70 0.005993
65 0.006983
66 0.007021
76 0.006972
91 0.007981
96 0.007979
97 0.007869
102 0.006978
112 0.005986
119 0.00702
129 0.005988
134 0.006979
142 0.004987
148 0.005027
152 0.004989
159 0.003987
165 0.003988
169 0.003991
174 0.004003
177 0.003986
181 0.00399
184 0.005008
187 0.00404
189 0.004986
179 0.005005
93 0.004987
63 0.002994
56 0.004988
52 0.00396
53 0.005023
69 0.00299
82 0.003003
85 0.002003
91 0.001993
101 0.000996
108 0.001012
119 0.000996
127 0.001999
132 0.001002
140 0.002031
145 0.0
151 0.00103
157 0.0
162 0.0
169 0.0
172 0.0
177 0.0
181 0.0
183 0.0
187 0.0
188 0.000914
153 0.000997
79 0.000997
65 0.000998
56 0.001021
56 0.002051
62 0.002027
81 0.002001
87 0.001987
91 0.00302
99 0.002985
105 0.002975
116 0.002992
127 0.002993
132 0.003023
139 0.003991
143 0.003985
150 0.004021
155 0.004979
161 0.004025
166 0.005014
172 0.004985
175 0.004987
179 0.005024
181 0.004996
185 0.005017
183 0.004997
141 0.004989
78 0.005016
68 0.005019
63 0.005985
67 0.006019
77 0.006028
93 0.005911
95 0.006018
98 0.005985
106 0.006015
112 0.006015
123 0.005982
131 0.00602
136 0.006016
142 0.007987
145 0.006985
151 0.007955
156 0.006977
160 0.006983
167 0.007019
172 0.004969
174 0.007012
178 0.004994
180 0.003985
183 0.003991
183 0.004023
147 0.003994
77 0.003991
64 0.003991
54 0.003987
52 0.005022
57 0.00397
72 0.005017
82 0.004986
84 0.003989
91 0.003989
97 0.003989
108 0.003993
118 0.001996
123 0.002992
131 0.000994
138 0.001978
142 0.000998
149 0.002017
154 0.001981
160 0.001997
167 0.002027
170 0.001995
175 0.0
177 0.0
181 0.0
185 0.0
180 0.0
102 0.000892
66 0.003058
59 0.002039
54 0.001996
57 0.002026
71 0.003024
83 0.00296
86 0.003009
91 0.00304
101 0.002961
107 0.002999
118 0.00399
124 0.002991
132 0.004033
139 0.003992
143 0.004006
149 0.004059
156 0.003988
161 0.003992
167 0.004992
170 0.004989
175 0.00602
178 0.006001
181 0.006025
184 0.006017
174 0.006015
95 0.005021
71 0.006018
63 0.006017
60 0.00582
68 0.00701
81 0.006951
92 0.006016
93 0.006014
99 0.006992
108 0.007032
115 0.007016
124 0.004969
133 0.005985
138 0.006014
145 0.005969
148 0.004986
155 0.00602
160 0.005985
165 0.003979
170 0.006018
175 0.00399
178 0.005965
181 0.003991
183 0.002989
187 0.002992
181 0.00103
133 0.001994
72 0.0
57 0.000997
52 0.0
52 0.0
59 0.0
78 0.0
84 0.0
86 0.0
96 0.0
106 0.001021
112 0.000997
123 0.002026
128 0.002038
136 0.001995
144 0.003023
148 0.003023
156 0.002992
161 0.005003
167 0.006016
172 0.007013
178 0.005983
180 0.007017
184 0.007014
188 0.005018
191 0.005031
160 0.003027
80 0.002976
65 0.002968
55 0.00298
53 0.002994
59 0.002993
79 0.002989
85 0.002981
88 0.001995
93 0.001995
103 0.002028
112 0.002992
120 0.002025
128 0.003006
135 0.002992
139 0.002969
146 0.002984
150 0.002988
157 0.001033
163 0.0
167 0.001046
171 0.000832
173 0.001034
177 0.000994
182 0.0
175 0.0
98 0.000961
67 0.0
60 0.0
57 0.000999
58 0.001019
74 0.001995
87 0.001966
88 0.002003
93 0.001996
103 0.001961
110 0.001994
121 0.002033
126 0.004037
134 0.002992
139 0.003032
144 0.002998
149 0.002987
153 0.004036
160 0.001975
166 0.002992
169 0.003822
173 0.004964
177 0.00502
179 0.004999
183 0.004954
181 0.004981
109 0.005016
68 0.006022
60 0.006032
53 0.005975
54 0.006013
65 0.005956
79 0.005947
84 0.006021
88 0.005985
98 0.005974
104 0.006016
115 0.006971
121 0.00697
129 0.007926
136 0.007015
142 0.007976
147 0.006995
154 0.004988
158 0.004989
165 0.004169
169 0.003985
174 0.002996
178 0.002963
180 0.002968
184 0.002998
187 0.003984
169 0.001996
101 0.002992
73 0.001998
64 0.002972
59 0.00303
61 0.00303
78 0.003012
89 0.00078
91 0.002028
98 0.0
106 0.000997
112 0.000999
122 0.000998
128 0.000998
136 0.002024
142 0.001995
147 0.001995
153 0.002002
160 0.003028
164 0.004034
170 0.003971
173 0.004026
178 0.003954
181 0.003991
183 0.003989
188 0.004974
175 0.005983
107 0.006056
75 0.006971
63 0.006985
58 0.007015
60 0.007013
69 0.007011
86 0.007977
90 0.004991
93 0.006992
101 0.003995
113 0.003982
119 0.003993
129 0.003975
134 0.003972
141 0.003977
147 0.005
152 0.003024
157 0.004995
163 0.003991
168 0.005006
174 0.004963
177 0.005071
181 0.004029
184 0.000991
187 0.004022
190 0.001997
175 0.003028
92 0.001987
67 0.0
63 0.000999
58 0.0
63 0.0
75 0.0
88 0.000997
92 0.001026
97 0.002022
107 0.003025
114 0.002994
125 0.002995
134 0.002994
139 0.002953
146 0.003029
150 0.002994
157 0.003034
163 0.002993
168 0.002992
173 0.003992
178 0.004024
181 0.005018
184 0.005981
189 0.006975
191 0.007014
186 0.006978
140 0.006973
84 0.005986
67 0.005023
64 0.005982
64 0.004982
81 0.005024
90 0.004025
94 0.003993
96 0.003995
104 0.004017
113 0.005992
121 0.004067
129 0.005984
135 0.003999
141 0.005019
148 0.005021
152 0.004019
158 0.004022
165 0.001969
169 0.003986
175 0.002028
177 0.004026
181 0.001998
184 0.001994
187 0.002992
185 0.000997
106 0.002007
75 0.0
59 0.0
55 0.0
54 0.0
64 0.001031
79 0.0
85 0.002002
88 0.001997
95 0.0
103 0.000998
113 0.000997
121 0.001067
130 0.000997
135 0.001012
142 0.00103
146 0.002044
153 0.000998
160 0.001795
164 0.00103
171 0.001996
176 0.001995
180 0.002025
183 0.001995
186 0.002041
191 0.001995
166 0.001998
108 0.002966
67 0.002993
59 0.002993
54 0.003005
57 0.00399
71 0.004003
83 0.005022
87 0.00599
91 0.005945
100 0.006014
107 0.006037
118 0.006015
127 0.006976
132 0.006986
139 0.006976
145 0.006979
149 0.006974
155 0.006955
158 0.006976
164 0.006984
169 0.006984
172 0.006978
176 0.004987
180 0.005001
184 0.003996
170 0.005019
103 0.002984
72 0.005037
62 0.005019
60 0.004987
66 0.005023
85 0.00299
91 0.004986
94 0.002177
97 0.005027
107 0.002974
118 0.001985
124 0.002991
133 0.002976
138 0.001999
145 0.002995
151 0.001986
156 0.001991
162 0.002026
166 0.001978
172 0.002057
176 0.003989
179 0.001993
182 0.003987
186 0.002993
189 0.002041
175 0.001028
120 0.001044
70 0.001996
58 0.000951
54 0.002043
56 0.0
74 0.0
82 0.000981
87 0.0
91 0.0
100 0.0
110 0.002028
118 0.0
127 0.001003
132 0.000997
140 0.001995
147 0.001993
151 0.001978
158 0.001995
164 0.003033
169 0.003007
174 0.004985
178 0.005983
181 0.006
184 0.007013
188 0.006878
181 0.007013
116 0.005979
75 0.007968
64 0.006968
59 0.005991
61 0.005985
77 0.00598
87 0.005952
91 0.004946
96 0.004984
101 0.004993
112 0.004984
120 0.007096
128 0.005079
134 0.007989
140 0.004985
145 0.006015
152 0.007008
156 0.005984
163 0.006014
167 0.005989
172 0.006017
177 0.004016
179 0.005983
183 0.003953
187 0.005988
178 0.00399
95 0.002997
71 0.003014
56 0.001991
50 0.001994
52 0.001994
68 0.0
79 0.001027
83 0.0
89 0.001997
96 0.0
105 0.002028
116 0.001998
122 0.001999
131 0.002038
137 0.000998
142 0.00101
148 0.003007
155 0.003026
159 0.002893
167 0.003989
170 0.003995
176 0.003991
180 0.00399
183 0.00399
187 0.003989
181 0.004987
134 0.004994
73 0.006016
62 0.005984
53 0.005983
52 0.006019
62 0.005984
78 0.005984
85 0.005951
88 0.00699
96 0.006971
103 0.00698
114 0.006982
124 0.006887
129 0.006983
135 0.005985
139 0.00699
146 0.004991
153 0.004972
157 0.00402
163 0.003957
169 0.003997
171 0.001998
175 0.001996
179 0.004022
182 0.001997
176 0.002992
116 0.00199
76 0.003951
62 0.002992
58 0.003025
61 0.001996
80 0.0
88 0.001996
91 0.0
95 0.001991
102 0.0
113 0.001995
119 0.002028
129 0.001994
136 0.003
141 0.003028
147 0.002989
152 0.002986
158 0.003022
165 0.003989
169 0.004969
175 0.004987
179 0.005974
181 0.005984
185 0.00598
187 0.007962
190 0.006984
143 0.007982
83 0.006977
64 0.007997
55 0.007977
52 0.007979
56 0.007979
75 0.004954
83 0.006948
88 0.004986
92 0.00599
103 0.003984
114 0.003993
121 0.003998
131 0.00299
137 0.003025
144 0.002997
151 0.002988
155 0.001993
162 0.001992
168 0.003023
173 0.0
178 0.001038
183 0.0
184 0.000999
188 0.001031
192 0.002001
194 0.004023
146 0.003961
78 0.003981
67 0.003992
59 0.004024
58 0.004959
70 0.004994
88 0.00698
91 0.006984
94 0.00598
102 0.006984
108 0.005967
119 0.005953
127 0.005985
135 0.003987
141 0.004987
147 0.003986
152 0.003989
158 0.004021
162 0.003021
169 0.002987
174 0.000984
177 0.003024
181 0.000991
184 0.0
187 0.0
190 0.0
174 0.0
101 0.0
64 0.0
56 0.000998
51 0.002007
57 0.00399
69 0.003985
83 0.004011
88 0.005021
92 0.005026
102 0.00499
108 0.004975
119 0.005036
127 0.005983
134 0.005985
140 0.00598
147 0.007012
151 0.007015
158 0.006991
163 0.006978
169 0.007017
173 0.006948
177 0.006979
181 0.006001
183 0.007974
186 0.005985
190 0.00597
192 0.005991
164 0.005989
80 0.005983
64 0.003027
52 0.002989
50 0.003025
54 0.00097
69 0.003028
80 0.000999
84 0.003021
91 0.002993
97 0.001992
109 0.001994
120 0.0
126 0.002001
135 0.000964
140 0.002057
147 0.000998
153 0.0
157 0.0
164 0.0
171 0.001
174 0.001001
180 0.000991
182 0.001002
186 0.001998
188 0.002993
191 0.002991
182 0.002987
115 0.002958
73 0.00296
63 0.003008
60 0.002994
62 0.003023
80 0.002993
88 0.003022
91 0.002959
94 0.004032
102 0.005018
113 0.005979
120 0.006991
129 0.006984
136 0.006955
142 0.006994
148 0.006976
151 0.00698
157 0.006976
164 0.005997
168 0.004988
173 0.004992
177 0.006966
181 0.005074
183 0.00499
187 0.004984
189 0.003992
176 0.003985
122 0.003993
66 0.003971
52 0.001004
48 0.00299
49 0.001996
64 0.002008
74 0.000992
81 0.001964
83 0.000984
93 0.0
102 0.0
109 0.000998
118 0.00085
127 0.000998
132 0.000997
139 0.001
143 0.001008
150 0.002001
157 0.004014
163 0.004989
168 0.005024
172 0.007022
176 0.007979
179 0.007976
182 0.007977
185 0.006984
188 0.006978
129 0.004986
82 0.007019
58 0.004977
50 0.00399
49 0.002991
60 0.003989
72 0.002986
81 0.002992
85 0.004987
92 0.002992
100 0.004986
109 0.00313
117 0.004987
127 0.004987
132 0.004987
139 0.004987
146 0.001995
150 0.003989
157 0.001999
161 0.001995
167 0.0
172 0.0
174 0.0
178 0.000998
182 0.000996
185 0.0
164 0.000966
111 0.000998
69 0.000956
62 0.002029
60 0.000977
65 0.001017
76 0.0
89 0.001007
92 0.001032
96 0.000996
105 0.0
111 0.001007
122 0.0
129 0.0
135 0.0
141 0.0
147 0.0
151 0.0
158 0.0
162 0.0
168 0.0
173 0.000962
176 0.001955
180 0.001995
182 0.001995
185 0.002033
189 0.002994
175 0.002989
89 0.003031
59 0.003028
52 0.003027
47 0.003063
49 0.004021
65 0.005047
76 0.005023
81 0.00502
86 0.005932
96 0.004993
103 0.004986
114 0.005983
120 0.005989
129 0.005986
137 0.005984
141 0.006017
147 0.006981
154 0.005997
159 0.006009
166 0.00597
169 0.005985
175 0.004997
180 0.003993
183 0.003978
187 0.003989
190 0.005988
170 0.00401
97 0.005981
66 0.003992
56 0.00602
52 0.006167
54 0.004994
72 0.00303
84 0.0
86 0.000997
93 0.000951
98 0.0
107 0.000998
117 0.000966
123 0.001013
131 0.002038
139 0.002025
143 0.004032
149 0.003985
156 0.005
161 0.004871
167 0.003958
171 0.00502
175 0.00502
178 0.004987
180 0.004987
184 0.005042
166 0.00502
113 0.005024
70 0.00498
62 0.004817
58 0.006009
65 0.005984
77 0.005981
89 0.006998
91 0.005984
94 0.006982
105 0.006955
109 0.005978
120 0.00698
130 0.005984
135 0.004978
142 0.005985
147 0.007022
152 0.004958
157 0.005986
162 0.004015
167 0.005985
172 0.006019
175 0.006019
179 0.005972
181 0.005983
185 0.00602
188 0.003993
182 0.005976
99 0.003973
63 0.002044
55 0.001989
49 0.002957
50 0.002994
65 0.002073
78 0.001961
82 0.0
88 0.000999
97 0.002004
106 0.0
115 0.002139
123 0.000953
131 0.002028
139 0.002029
143 0.002034
151 0.002028
156 0.0
162 0.000967
168 0.002994
174 0.00396
177 0.004
182 0.005012
185 0.00598
188 0.006015
191 0.00599
193 0.004991
165 0.003988
82 0.003995
67 0.003992
57 0.003989
55 0.004988
62 0.002995
78 0.004022
87 0.00402
89 0.003982
96 0.004026
102 0.004019
113 0.004025
123 0.001993
129 0.003981
137 0.001996
141 0.003007
148 0.000997
155 0.0
159 0.0
165 0.0
171 0.0
175 0.0
179 0.0
182 0.000994
184 0.000997
188 0.00297
191 0.00399
171 0.003988
86 0.002992
67 0.003911
57 0.003991
54 0.003991
59 0.004988
74 0.005985
85 0.00798
87 0.007981
92 0.007972
101 0.005978
108 0.008011
119 0.003
125 0.005981
133 0.003024
140 0.002961
144 0.001984
151 0.001996
158 0.002011
162 0.00198
168 0.001995
171 0.001994
176 0.001994
180 0.002963
182 0.001989
185 0.00399
189 0.001995
191 0.001995
156 0.002031
98 0.002003
62 0.001027
52 0.00099
50 0.001994
54 0.0
71 0.000998
79 0.001996
85 0.001998
92 0.002993
98 0.002992
110 0.00495
120 0.005986
124 0.006022
133 0.006003
140 0.005956
145 0.003985
152 0.003989
156 0.003985
161 0.006166
168 0.005987
171 0.004988
177 0.005024
181 0.00296
183 0.005021
188 0.002023
190 0.003989
174 0.001996
88 0.003007
69 0.001993
60 0.002011
58 0.00199
65 0.002995
83 0.001995
87 0.002991
89 0.001995
95 0.003975
102 0.001996
111 0.003002
118 0.001945
126 0.003029
134 0.002991
137 0.002995
143 0.001994
149 0.000965
152 0.001985
159 0.0
163 0.002002
166 0.0
170 0.0
173 0.0
176 0.0
179 0.000999
173 0.000987
94 0.001001
68 0.000998
54 0.001996
49 0.000998
50 0.002042
65 0.003013
76 0.004987
79 0.004982
85 0.006052
91 0.006056
102 0.005986
110 0.005943
117 0.005984
123 0.006971
130 0.006976
134 0.00698
140 0.007013
144 0.007033
150 0.007009
155 0.004983
158 0.007975
163 0.004989
167 0.003989
169 0.00399
174 0.004044
176 0.003972
135 0.003993
75 0.002992
65 0.002961
56 0.003993
54 0.004133
60 0.0
73 0.002993
81 0.001029
84 0.002019
92 0.002025
98 0.0
108 0.0
116 0.0
123 0.0
130 0.0
134 0.0
140 0.000967
146 0.000998
150 0.002032
157 0.001994
163 0.002053
166 0.002017
170 0.003042
174 0.003992
176 0.004003
180 0.003987
169 0.003985
97 0.00499
76 0.005983
68 0.005975
65 0.006017
71 0.005988
81 0.005999
91 0.007008
92 0.006983
97 0.007982
104 0.004987
110 0.007165
119 0.004986
127 0.004009
132 0.003988
137 0.003989
143 0.002992
147 0.002993
153 0.002022
158 0.001027
162 0.0
166 0.002034
168 0.0
172 0.0
176 0.0
176 0.0
117 0.0
81 0.000998
69 0.000997
63 0.000994
62 0.002014
70 0.001964
85 0.002993
89 0.001995
93 0.001998
101 0.004
107 0.004027
117 0.00498
123 0.005017
131 0.004977
137 0.005022
140 0.005017
146 0.004987
152 0.005021
156 0.004987
162 0.005978
166 0.005982
169 0.00695
173 0.006984
176 0.006981
179 0.006977
182 0.006956
150 0.006919
87 0.007022
76 0.007014
66 0.006975
64 0.006978
70 0.007011
84 0.005985
91 0.007978
94 0.005977
101 0.005989
107 0.005996
117 0.004998
123 0.005018
132 0.003987
139 0.003983
143 0.001972
147 0.005022
154 0.005022
158 0.004023
164 0.004002
170 0.0
173 0.002028
176 0.0
178 0.001998
183 0.0
185 0.0
179 0.0
107 0.0
80 0.0
75 0.0
72 0.0
76 0.0
93 0.000846
100 0.000995
101 0.000996
108 0.001032
117 0.000997
123 0.001996
132 0.003003
136 0.002987
143 0.003994
148 0.003989
152 0.003992
157 0.00399
164 0.005034
168 0.005023
174 0.004986
177 0.004988
181 0.00502
184 0.004989
186 0.005025
190 0.00595
155 0.004991
105 0.004994
75 0.004003
64 0.003988
62 0.002992
67 0.00215
81 0.003988
89 0.001995
93 0.00399
98 0.001997
106 0.003024
116 0.002028
122 0.002029
131 0.002028
139 0.001013
143 0.001995
149 0.0
153 0.002033
160 0.0
167 0.0
170 0.0
176 0.0
179 0.0
183 0.0
188 0.0
190 0.0
167 0.0
100 0.000998
79 0.000997
67 0.001971
64 0.001977
66 0.003016
83 0.003005
91 0.003025
95 0.005004
100 0.005022
105 0.005984
116 0.006015
126 0.006982
131 0.006985
137 0.005976
143 0.004974
147 0.004968
153 0.004986
157 0.004986
163 0.00499
168 0.003986
171 0.003991
175 0.003988
177 0.003983
181 0.003987
182 0.005955
140 0.003993
89 0.006014
73 0.005164
70 0.004986
71 0.005019
79 0.005014
94 0.003992
97 0.002014
99 0.004021
107 0.002001
113 0.003989
122 0.001997
131 0.001986
135 0.001995
141 0.001994
147 0.001993
151 0.002989
156 0.001991
160 0.000999
165 0.001
170 0.000997
173 0.000997
176 0.001007
180 0.000997
182 0.000967
166 0.000998
116 0.001004
75 0.001964
64 0.002025
59 0.002994
59 0.002995
74 0.002894
83 0.002994
88 0.004021
94 0.004988
99 0.004988
110 0.005019
116 0.005022
126 0.005954
134 0.005984
137 0.005983
143 0.006984
149 0.006151
153 0.005986
159 0.005983
163 0.00599
168 0.005988
172 0.007975
175 0.004984
178 0.006982
183 0.006951
182 0.006026
118 0.005975
87 0.005981
71 0.005982
65 0.002979
65 0.002989
79 0.003028
88 0.002986
93 0.002993
98 0.002992
103 0.002999
113 0.00199
121 0.003987
128 0.001994
134 0.00399
139 0.001995
143 0.00399
149 0.002038
153 0.002011
159 0.001974
164 0.0
167 0.001994
171 0.0
173 0.001997
178 0.001006
170 0.0
127 0.000971
81 0.0
72 0.0
68 0.001953
69 0.002027
83 0.003018
92 0.00298
95 0.00393
98 0.005032
105 0.00499
115 0.005028
121 0.005023
129 0.005028
135 0.005985
139 0.005989
144 0.007013
148 0.005983
153 0.007013
157 0.007975
161 0.00796
166 0.007979
170 0.005963
173 0.007981
176 0.005979
179 0.007979
171 0.005022
100 0.004951
80 0.003976
66 0.003993
60 0.002993
62 0.002991
78 0.003025
85 0.002991
90 0.002993
95 0.004992
102 0.002997
110 0.004986
118 0.002996
125 0.003025
133 0.003989
137 0.003991
143 0.003025
149 0.001993
153 0.002974
159 0.002001
162 0.002007
168 0.0
172 0.0
173 0.0
177 0.000956
182 0.002992
178 0.00399
110 0.003991
77 0.003987
70 0.00502
65 0.005035
68 0.005988
82 0.005985
90 0.006015
93 0.00598
96 0.006017
104 0.006981
111 0.007975
118 0.006982
126 0.004986
130 0.006982
136 0.00399
142 0.002978
145 0.002962
151 0.002963
154 0.002998
160 0.001979
164 0.001994
167 0.001996
170 0.001993
174 0.002998
172 0.0
123 0.002988
80 0.000998
70 0.00103
63 0.0
62 0.0
73 0.001001
85 0.000997
90 0.000998
93 0.0
99 0.000996
107 0.000998
117 0.002951
123 0.003026
131 0.003957
137 0.00399
140 0.004051
146 0.003963
152 0.005985
156 0.005986
162 0.004989
165 0.005001
169 0.006017
172 0.006973
175 0.00698
179 0.006014
181 0.006975
155 0.004973
98 0.007018
77 0.004972
68 0.006961
64 0.006981
66 0.006982
83 0.006984
93 0.003982
94 0.004984
101 0.002979
107 0.005024
117 0.002011
126 0.002043
132 0.002058
139 0.002994
145 0.002
148 0.001992
154 0.001994
158 0.002997
163 0.001997
168 0.002036
171 0.0
174 0.002992
178 0.002044
181 0.002021
181 0.002026
152 0.002042
91 0.001019
76 0.0
73 0.0
72 0.0
79 0.0
98 0.000951
100 0.0
102 0.0
110 0.0
116 0.0
126 0.0
133 0.001007
138 0.00098
144 0.000997
149 0.000997
153 0.000991
158 0.002008
162 0.000978
168 0.000808
171 0.000961
175 0.000998
178 0.002006
181 0.000966
183 0.001
183 0.001995
153 0.002056
86 0.003003
67 0.002992
62 0.002997
59 0.003045
64 0.003028
82 0.003026
89 0.003002
91 0.00397
99 0.003992
109 0.00499
115 0.005003
125 0.004898
130 0.004986
138 0.004987
143 0.005001
149 0.005981
154 0.006984
161 0.006984
164 0.007968
171 0.007978
173 0.00797
179 0.007982
181 0.00597
184 0.007981
188 0.005988
169 0.007996
104 0.005023
73 0.004025
67 0.003983
62 0.003031
71 0.001992
82 0.001992
91 0.001989
94 0.004126
99 0.001987
106 0.004025
115 0.001999
123 0.003988
131 0.002025
136 0.002982
142 0.001034
148 0.0
151 0.0
157 0.0
161 0.0
166 0.000973
171 0.001996
173 0.002035
177 0.003025
181 0.002992
180 0.001967
116 0.003035
76 0.00303
68 0.001947
62 0.002998
64 0.002993
78 0.003991
89 0.00499
92 0.005981
96 0.006014
104 0.006997
110 0.007013
121 0.007968
125 0.007978
133 0.007017
140 0.003995
143 0.005988
149 0.003996
155 0.00395
159 0.002983
165 0.003001
170 0.002993
173 0.0
177 0.0
179 0.000963
183 0.001995
182 0.001993
134 0.0
83 0.0
65 0.0
59 0.001994
57 0.000997
66 0.000998
80 0.000997
86 0.001002
90 0.000997
96 0.002997
106 0.002992
113 0.00399
123 0.004987
131 0.00598
136 0.006981
142 0.006009
148 0.002979
152 0.003995
158 0.003976
164 0.003977
168 0.004083
173 0.004084
176 0.002981
181 0.003983
184 0.006017
187 0.004055
169 0.005971
103 0.003996
76 0.006008
65 0.004987
63 0.005979
69 0.005042
86 0.003006
91 0.005022
94 0.001996
98 0.004019
107 0.002981
117 0.001993
124 0.001993
132 0.002947
136 0.00204
142 0.001021
147 0.003025
151 0.00199
156 0.00303
162 0.002993
166 0.002993
171 0.002969
173 0.002041
176 0.002988
181 0.000945
180 0.002988
133 0.003031
76 0.001031
66 0.001041
56 0.000998
55 0.001044
65 0.000998
81 0.00103
85 0.000998
90 0.000998
99 0.002008
105 0.001998
115 0.002993
121 0.003992
130 0.00399
136 0.005021
140 0.004988
146 0.005984
151 0.005029
156 0.005065
161 0.006016
167 0.007005
170 0.006975
173 0.007974
175 0.007011
179 0.007014
183 0.004026
176 0.00601
100 0.003982
67 0.002991
58 0.001993
51 0.003007
52 0.003001
68 0.003005
81 0.002988
84 0.003021
90 0.002026
98 0.004987
107 0.002985
116 0.003031
123 0.001965
130 0.00302
137 0.001992
141 0.002003
147 0.002028
154 0.000965
158 0.003023
164 0.0
167 0.002984
173 0.001002
176 0.0
179 0.0
182 0.000998
185 0.001027
167 0.001004
91 0.002026
74 0.001995
63 0.001999
60 0.002954
65 0.002992
83 0.002992
90 0.004008
92 0.003858
98 0.00403
105 0.004985
113 0.004985
123 0.004988
128 0.005987
135 0.007015
140 0.006963
145 0.007024
149 0.006979
156 0.004986
159 0.003944
165 0.003977
170 0.002993
172 0.001997
176 0.001979
178 0.002039
182 0.002993
158 0.003026
96 0.002006
72 0.002992
61 0.002
57 0.003025
62 0.004022
73 0.002027
85 0.002992
89 0.000964
94 0.002025
103 0.0
110 0.003002
118 0.000997
127 0.000999
132 0.000998
138 0.000998
144 0.000997
148 0.000997
154 0.001004
157 0.000963
163 0.000998
169 0.001001
172 0.001
176 0.001996
179 0.00399
182 0.002998
185 0.003955
164 0.002994
90 0.003004
70 0.003955
60 0.004987
56 0.006019
64 0.006019
75 0.005981
87 0.005992
89 0.005978
95 0.006017
105 0.00598
112 0.006019
122 0.005981
129 0.005939
133 0.005951
140 0.004956
144 0.005001
150 0.004984
156 0.004985
160 0.00499
166 0.004986
171 0.005047
174 0.00302
177 0.002986
180 0.002956
183 0.003031
180 0.003005
143 0.00405
83 0.002938
68 0.003
65 0.002992
67 0.001986
76 0.0
92 0.002009
95 0.0
98 0.0
106 0.0
112 0.0
122 0.0
129 0.002005
135 0.0
140 0.002027
146 0.003019
149 0.001989
155 0.0
159 0.0
165 0.0
169 0.001008
173 0.001016
176 0.001996
179 0.001971
181 0.001998
185 0.001996
182 0.002028
110 0.001918
71 0.001994
61 0.002992
53 0.00403
57 0.003995
67 0.004991
82 0.004985
87 0.006978
91 0.005952
98 0.005937
105 0.005983
116 0.004962
125 0.007954
132 0.006958
138 0.007971
145 0.007945
149 0.007977
154 0.006963
159 0.005984
165 0.005019
171 0.002987
175 0.005026
179 0.003042
183 0.002998
186 0.002991
189 0.002993
183 0.002997
106 0.0
72 0.0
65 0.0
60 0.0
65 0.0
76 0.0
90 0.0
93 0.001004
97 0.001013
106 0.002043
113 0.002027
123 0.003956
130 0.004044
136 0.004034
142 0.005007
148 0.005017
151 0.00502
157 0.006983
163 0.006962
167 0.006982
172 0.005979
176 0.006981
178 0.004991
182 0.004986
185 0.003968
163 0.002987
88 0.003
73 0.002989
62 0.004987
58 0.004987
61 0.006018
79 0.004977
87 0.004994
91 0.004987
97 0.00199
103 0.002987
113 0.0
123 0.0
128 0.0
136 0.0
138 0.0
144 0.0
150 0.0
154 0.0
160 0.000998
166 0.000994
170 0.000998
174 0.000851
176 0.000997
179 0.00204
184 0.002993
185 0.002995
133 0.003025
82 0.00397
64 0.003992
56 0.003992
54 0.003988
60 0.004003
78 0.005984
85 0.004941
88 0.005989
95 0.004973
101 0.005984
112 0.003968
122 0.004105
128 0.003028
136 0.002987
142 0.002009
145 0.001994
152 0.001992
156 0.001991
162 0.001994
167 0.003986
171 0.002003
175 0.003992
177 0.001991
180 0.003989
184 0.004001
185 0.004042
130 0.003984
78 0.002984
69 0.003044
63 0.0
63 0.00295
78 0.002031
91 0.0
92 0.0
97 0.0
102 0.0
112 0.0
123 0.0
129 0.0
136 0.0
141 0.002991
146 0.0
151 0.002025
156 0.0
160 0.002045
166 0.00199
169 0.002008
174 0.002025
176 0.002046
180 0.001992
183 0.000951
186 0.003023
165 0.0
112 0.0
74 0.00107
57 0.0
52 0.000998
53 0.001
69 0.000997
79 0.000998
85 0.000957
88 0.000998
96 0.000865
108 0.000998
114 0.000998
123 0.002005
128 0.0
136 0.000997
141 0.002015
147 0.001976
152 0.000998
158 0.000998
163 0.002007
170 0.002996
173 0.001982
178 0.003989
182 0.00383
184 0.003992
189 0.00502
182 0.004951
135 0.004988
77 0.004987
66 0.004958
57 0.005984
59 0.005976
68 0.005984
85 0.006079
89 0.007003
92 0.00603
100 0.007974
106 0.00499
115 0.00795
125 0.006981
130 0.006982
137 0.005993
144 0.002988
147 0.004987
154 0.002991
157 0.004031
164 0.001995
170 0.002039
173 0.003006
176 0.002949
181 0.002009
183 0.001991
187 0.001995
177 0.001994
100 0.00201
73 0.002991
63 0.0
60 0.002995
68 0.003043
79 0.003012
90 0.002988
92 0.002995
97 0.003032
107 0.0
113 0.002993
123 0.0
129 0.0
136 0.0
143 0.000955
145 0.0
151 0.0
157 0.000944
161 0.000796
167 0.000997
170 0.000998
175 0.0
179 0.000997
181 0.0
184 0.001996
188 0.002999
174 0.002015
106 0.001995
72 0.003039
59 0.003028
51 0.002992
52 0.003036
67 0.002959
77 0.004024
84 0.003952
90 0.004023
95 0.004022
106 0.004985
117 0.004986
123 0.004895
132 0.004977
136 0.004942
144 0.004988
150 0.004983
154 0.005009
161 0.006015
165 0.005984
171 0.005984
175 0.006948
178 0.00598
181 0.007964
185 0.00798
187 0.007974
187 0.007978
139 0.007976
84 0.007971
64 0.004984
60 0.008009
59 0.004986
73 0.003998
84 0.003989
89 0.003987
92 0.00399
100 0.00203
110 0.003014
116 0.002045
125 0.002982
132 0.00399
137 0.001969
142 0.002952
147 0.002006
152 0.002949
158 0.003045
162 0.002025
168 0.002005
172 0.0
175 0.0
177 0.000937
181 0.0
183 0.001996
133 0.001961
91 0.001996
67 0.002994
58 0.002981
57 0.003023
69 0.002994
85 0.002989
88 0.003955
92 0.003959
98 0.003966
107 0.004987
116 0.005026
124 0.004983
130 0.004989
136 0.00498
141 0.00589
148 0.005985
151 0.006983
157 0.006981
162 0.005993
167 0.006977
171 0.005985
175 0.003992
177 0.005023
181 0.003995
185 0.003014
184 0.003022
122 0.002962
85 0.002008
64 0.001998
57 0.003952
56 0.000996
65 0.003025
82 0.002989
87 0.003014
92 0.00203
97 0.002029
107 0.001995
117 0.001018
123 0.002027
132 0.001008
139 0.0
142 0.0
148 0.0
152 0.0
158 0.001995
165 0.002992
169 0.003958
174 0.004988
179 0.004986
181 0.005985
185 0.005984
189 0.005989
189 0.005987
128 0.005982
90 0.005985
73 0.005982
66 0.006979
65 0.005986
78 0.006979
92 0.007976
94 0.007984
97 0.007964
102 0.007976
110 0.00602
120 0.003993
126 0.005986
134 0.001998
140 0.00203
144 0.001999
150 0.0
156 0.0
159 0.0
163 0.0
169 0.000997
173 0.000997
176 0.000995
178 0.000981
182 0.001
185 0.000997
178 0.000992
119 0.002038
76 0.001023
63 0.001996
55 0.001983
55 0.003031
68 0.003034
83 0.004991
86 0.005064
91 0.004981
100 0.004985
106 0.004992
117 0.004946
122 0.004987
130 0.004963
137 0.005007
141 0.006978
147 0.006946
151 0.006951
156 0.00498
161 0.007984
165 0.005985
170 0.007976
175 0.007983
177 0.007954
181 0.007976
182 0.007977
186 0.007015
150 0.005001
100 0.006977
69 0.003028
58 0.002991
56 0.002998
64 0.001994
75 0.001986
86 0.002043
90 0.002006
94 0.002038
104 0.000958
113 0.004031
121 0.001997
128 0.005021
134 0.000996
140 0.002027
145 0.001978
149 0.001986
156 0.002025
162 0.0
165 0.002984
170 0.000968
173 0.002992
176 0.0
179 0.0
181 0.0
184 0.0
165 0.002
116 0.000998
76 0.001994
70 0.001033
66 0.001999
76 0.0
87 0.0
95 0.001996
96 0.000998
102 0.001971
110 0.00203
116 0.001995
126 0.002002
131 0.002008
137 0.00204
142 0.002007
147 0.001984
151 0.002993
157 0.001996
161 0.001995
167 0.003004
170 0.001968
175 0.00296
178 0.003004
180 0.002994
183 0.003027
186 0.002993
183 0.003023
107 0.003007
77 0.002993
59 0.005021
52 0.003989
53 0.005028
63 0.006999
78 0.006981
83 0.006983
88 0.007977
93 0.007983
103 0.006975
111 0.005971
119 0.007971
127 0.004986
131 0.006969
138 0.004994
144 0.003998
147 0.00397
154 0.003971
160 0.003979
164 0.005009
170 0.003988
173 0.002992
178 0.002983
180 0.005984
184 0.002947
187 0.005984
188 0.001996
144 0.005039
78 0.004
67 0.003022
58 0.00303
57 0.0
70 0.001996
81 0.001996
88 0.002994
93 0.003952
98 0.005
108 0.003977
115 0.003987
124 0.004986
133 0.005992
138 0.005983
144 0.006012
147 0.005983
154 0.006021
160 0.005981
163 0.005978
168 0.006205
173 0.007966
176 0.004967
179 0.007987
181 0.00399
185 0.007976
187 0.007022
161 0.007974
97 0.007017
72 0.00499
68 0.005985
68 0.002994
81 0.003966
91 0.0
96 0.0
98 0.003031
104 0.0
111 0.0
117 0.0
127 0.0
135 0.001995
139 0.002003
145 0.002042
149 0.00199
153 0.002992
158 0.005019
164 0.005019
167 0.005984
172 0.00698
176 0.005984
178 0.007945
181 0.004987
184 0.007977
186 0.005018
183 0.003998
142 0.003987
76 0.003989
60 0.00399
56 0.003999
55 0.002992
62 0.002992
78 0.002993
83 0.004988
86 0.00399
92 0.002992
103 0.001995
109 0.001996
119 0.001995
127 0.0
131 0.0
137 0.000998
143 0.002002
147 0.002997
154 0.004026
160 0.00399
164 0.00396
169 0.00396
172 0.003958
177 0.003989
181 0.006007
182 0.005988
186 0.005985
178 0.005973
133 0.005977
76 0.00597
67 0.005991
60 0.004928
63 0.007974
72 0.004988
85 0.007977
89 0.003993
93 0.008008
101 0.007972
105 0.007974
115 0.007018
125 0.003986
130 0.006017
136 0.003023
140 0.005148
146 0.002026
152 0.001996
156 0.002972
162 0.000997
166 0.0
169 0.0
174 0.001997
177 0.002022
179 0.001988
183 0.001997
182 0.001964
132 0.002958
81 0.001848
66 0.002992
60 0.003006
60 0.003993
67 0.004016
83 0.003986
89 0.004004
91 0.004028
99 0.004024
105 0.004041
115 0.004019
125 0.004013
129 0.003976
136 0.004
140 0.00499
146 0.004993
152 0.00498
156 0.005972
163 0.006957
167 0.006978
170 0.006979
175 0.007976
178 0.006981
180 0.00648
184 0.00602
186 0.005985
186 0.00598
118 0.004131
82 0.006018
65 0.00298
60 0.005986
60 0.004989
73 0.003028
83 0.002976
89 0.003987
94 0.001988
99 0.001995
109 0.002971
115 0.002964
126 0.002978
132 0.005142
138 0.002993
143 0.005989
149 0.002026
152 0.002023
159 0.003001
163 0.002997
168 0.002026
174 0.0
177 0.002994
180 0.0
182 0.0
184 0.0
188 0.0
190 0.001026
142 0.002038
79 0.002006
70 0.002023
66 0.002992
69 0.003017
79 0.003997
92 0.003992
93 0.003957
97 0.004007
105 0.003949
111 0.003994
120 0.005992
128 0.004989
134 0.006042
139 0.007013
144 0.007976
148 0.007979
155 0.00798
159 0.007978
163 0.004991
169 0.004961
172 0.005103
177 0.004987
179 0.004987
182 0.004989
185 0.003994
188 0.001982
170 0.001967
100 0.004022
68 0.002992
60 0.003966
56 0.003989
58 0.003989
72 0.003026
81 0.00318
86 0.002993
91 0.0
98 0.003006
108 0.0
118 0.0
123 0.0
130 0.000997
135 0.000998
141 0.000997
148 0.000883
151 0.001006
158 0.000995
165 0.000992
169 0.000997
174 0.001001
177 0.001969
182 0.00205
186 0.002005
188 0.001988
191 0.003007
193 0.002962
151 0.003012
86 0.003023
65 0.002844
60 0.002993
58 0.003939
64 0.002998
80 0.00396
86 0.004006
89 0.00399
96 0.003989
102 0.004024
112 0.004985
121 0.005923
126 0.005825
134 0.005985
137 0.005952
143 0.005976
148 0.006985
152 0.00499
158 0.005954
163 0.004987
167 0.002982
171 0.003996
175 0.003019
177 0.002992
181 0.002987
184 0.0
170 0.003047
92 0.0
72 0.00299
64 0.0
64 0.0
69 0.0
86 0.0
91 0.000981
93 0.000967
98 0.002026
103 0.0
113 0.001
123 0.002011
128 0.003038
135 0.003956
141 0.003991
145 0.003954
150 0.004959
156 0.004954
160 0.006982
165 0.006955
171 0.003935
173 0.005984
178 0.002955
181 0.002995
183 0.002993
187 0.002036
190 0.00205
168 0.0
85 0.0
67 0.0
57 0.0
55 0.003033
57 0.0
73 0.002
83 0.002039
85 0.002992
92 0.004998
100 0.006982
106 0.004986
116 0.006949
124 0.006981
130 0.006982
137 0.005984
143 0.002992
147 0.005984
153 0.002992
157 0.00507
163 0.002992
170 0.002992
172 0.002992
177 0.001995
181 0.002993
184 0.002993
188 0.002992
189 0.000998
175 0.0
105 0.002969
70 0.0
63 0.001995
60 0.001966
63 0.000997
79 0.001938
88 0.000998
89 0.001963
94 0.001992
100 0.002999
108 0.002994
118 0.003989
123 0.00399
132 0.004021
139 0.003992
143 0.003991
149 0.004026
153 0.003958
159 0.003965
165 0.003988
168 0.003992
173 0.00602
176 0.005986
178 0.005017
181 0.007979
184 0.004951
183 0.006974
114 0.005972
76 0.005984
59 0.005978
54 0.002991
56 0.004969
69 0.002988
82 0.002024
84 0.002995
89 0.002988
95 0.002034
105 0.0
115 0.0
121 0.001008
129 0.0
135 0.002993
140 0.000947
145 0.003041
150 0.0
155 0.0
162 0.001042
165 0.001061
171 0.000998
175 0.0
178 0.0
180 0.002007
183 0.001996
186 0.004021
165 0.003034
112 0.004021
66 0.002996
56 0.003985
54 0.004026
59 0.00493
68 0.004988
81 0.004986
85 0.005953
89 0.005975
96 0.005988
106 0.00499
112 0.003983
122 0.003958
128 0.005984
134 0.004002
139 0.004985
145 0.003989
149 0.003951
155 0.003032
161 0.0
165 0.002025
169 0.0
172 0.0
175 0.002004
178 0.002044
181 0.002029
178 0.002034
109 0.003961
78 0.002992
66 0.002971
64 0.004866
67 0.004987
83 0.004998
89 0.004987
91 0.006981
95 0.004982
99 0.004988
109 0.005978
116 0.007978
123 0.004986
129 0.006978
135 0.004021
140 0.007979
145 0.003983
150 0.007943
155 0.002993
161 0.000963
164 0.000998
169 0.0
173 0.0
175 0.0
178 0.000999
182 0.002991
177 0.0
120 0.00403
73 0.0
59 0.003039
52 0.002982
51 0.003002
62 0.003027
72 0.0
80 0.001995
83 0.000998
90 0.000998
98 0.000998
109 0.002012
115 0.002026
124 0.002992
132 0.002964
136 0.002979
142 0.004976
149 0.005971
151 0.00596
158 0.004019
164 0.003984
167 0.003969
172 0.003956
175 0.003968
179 0.003988
182 0.006029
185 0.003016
157 0.004988
92 0.001981
69 0.00502
61 0.004941
60 0.005024
68 0.004985
84 0.002994
88 0.005023
91 0.002985
95 0.004025
104 0.003026
115 0.002994
121 0.002992
129 0.0
136 0.0
139 0.0
145 0.0
151 0.00101
155 0.000997
161 0.001009
165 0.001013
171 0.000997
175 0.001996
177 0.000959
180 0.001995
183 0.001975
186 0.002027
154 0.002005
89 0.001942
67 0.002041
58 0.002003
56 0.003008
62 0.002993
73 0.003027
84 0.004027
88 0.00395
92 0.003946
101 0.004996
112 0.005991
118 0.005993
126 0.005989
130 0.005981
137 0.005974
143 0.006992
148 0.004991
153 0.006082
159 0.00594
163 0.005941
168 0.004033
174 0.002042
177 0.00402
180 0.002993
183 0.004023
188 0.002993
171 0.003037
120 0.003039
72 0.00399
61 0.001943
58 0.0
62 0.0
72 0.0
86 0.001004
89 0.002953
92 0.0
100 0.0
110 0.0
117 0.0
126 0.0
131 0.000997
139 0.001963
143 0.003009
148 0.002998
153 0.002969
159 0.002991
163 0.003908
168 0.005021
173 0.004954
175 0.004988
178 0.004957
180 0.005991
183 0.005984
161 0.006016
111 0.004
74 0.004987
68 0.003957
67 0.003996
76 0.003991
90 0.006001
96 0.00397
97 0.00595
102 0.003024
108 0.003044
117 0.001984
123 0.002983
131 0.00203
139 0.0
142 0.002981
146 0.000998
152 0.000998
156 0.002041
161 0.003026
167 0.002998
170 0.003023
175 0.002994
177 0.003978
180 0.002866
183 0.004007
184 0.003997
138 0.00402
90 0.002994
65 0.002958
58 0.004962
56 0.004991
61 0.005933
78 0.005987
83 0.006987
88 0.006981
93 0.005972
101 0.006981
110 0.005971
117 0.007978
125 0.004981
133 0.005988
137 0.004988
143 0.002988
147 0.003022
154 0.004004
160 0.004054
164 0.002999
170 0.002972
174 0.006015
178 0.002993
181 0.004976
184 0.003003
188 0.006017
153 0.005979
102 0.006017
71 0.003989
65 0.003002
