68 0.017977
69 0.000999
70 0.000958
71 0.000998
73 0.000997
71 0.001998
57 0.001961
53 0.001995
55 0.001995
58 0.001969
60 0.001995
62 0.001982
65 0.002033
66 0.001998
68 0.001963
69 0.002018
69 0.001995
71 0.001995
74 0.001993
76 0.000999
77 0.000997
79 0.000996
80 0.000988
81 0.000966
82 0.000963
82 0.000961
72 0.000996
57 0.000998
52 0.000997
54 0.001994
57 0.001961
60 0.00199
62 0.000991
65 0.000996
66 0.001006
68 0.000998
71 0.000964
73 0.000998
76 0.001006
78 0.000993
81 0.00101
84 0.001002
87 0.000993
90 0.0
91 0.0
84 0.0
73 0.0
70 0.0
0 0.000967
7 0.001001
12 0.000971
18 0.000955
24 0.001019
27 0.000957
32 0.001037
34 0.000999
37 0.0
40 0.0
44 0.0
49 0.0
53 0.0
57 0.0
61 0.0
64 0.0
64 0.000963
67 0.0
52 0.0
19 0.0
11 0.0
17 0.0
25 0.0
30 0.0
35 0.0
40 0.0
44 0.0
47 0.0
48 0.0
48 0.0
51 0.0
55 0.0
60 0.0
62 0.000978
64 0.0
66 0.0
68 0.0
69 0.0
71 0.0
73 0.0
66 0.0
34 0.0
22 0.0
30 0.0
37 0.00102
44 0.001
48 0.0
53 0.0
55 0.0
55 0.000958
54 0.0
55 0.000962
58 0.0
64 0.001005
69 0.000998
73 0.0
77 0.000997
77 0.000996
79 0.0
79 0.0
57 0.0
29 0.000994
24 0.000989
0 0.000952
0 0.000998
0 0.000998
52 0.000952
55 0.001001
59 0.000993
58 0.000968
58 0.001017
58 0.000971
61 0.001006
65 0.001014
69 0.000935
73 0.001018
77 0.000997
78 0.001032
80 0.001003
82 0.000996
84 0.00095
84 0.001995
82 0.001988
42 0.001036
24 0.000998
25 0.000997
32 0.001995
37 0.002005
40 0.001009
42 0.001008
45 0.000998
49 0.000997
51 0.001009
50 0.001984
53 0.002043
57 0.00099
64 0.000991
59 0.001994
56 0.001996
55 0.001996
59 0.002003
60 0.001995
62 0.001995
64 0.001996
66 0.001991
70 0.001982
72 0.001988
78 0.002004
78 0.001031
50 0.001037
37 0.002026
36 0.003031
47 0.002028
55 0.002992
58 0.001994
63 0.001993
65 0.002031
66 0.001988
67 0.001976
66 0.001994
67 0.003022
72 0.001041
74 0.002991
78 0.002987
82 0.002025
85 0.002963
88 0.001989
89 0.001971
59 0.002008
59 0.002984
22 0.003005
49 0.001993
49 0.001996
54 0.002949
61 0.002958
65 0.003022
68 0.003028
76 0.003022
79 0.003021
81 0.002006
81 0.002992
84 0.002993
87 0.003034
90 0.002992
93 0.002966
95 0.003039
97 0.003023
98 0.003984
100 0.004022
103 0.00399
102 0.004015
71 0.002993
57 0.002975
50 0.002964
53 0.003033
59 0.002992
63 0.002992
65 0.002985
69 0.002989
74 0.003984
73 0.004021
71 0.004021
70 0.004003
73 0.00299
73 0.002988
76 0.002984
78 0.003022
81 0.002977
84 0.003991
87 0.00399
91 0.004021
96 0.00399
100 0.00399
102 0.003987
104 0.003988
106 0.003004
107 0.003036
108 0.002992
108 0.003989
98 0.004003
58 0.003001
51 0.003992
56 0.003985
58 0.005017
60 0.00502
60 0.005018
64 0.004975
68 0.003986
70 0.003984
70 0.003979
73 0.003969
77 0.003983
80 0.005022
84 0.004987
48 0.00398
53 0.004989
54 0.003993
56 0.00499
57 0.004986
41 0.004026
22 0.003941
3 0.003984
46 0.005035
37 0.004951
21 0.003986
58 0.00502
52 0.00502
49 0.004976
56 0.003972
61 0.00498
68 0.004979
71 0.003992
70 0.003994
79 0.004031
81 0.005027
85 0.006012
94 0.005021
102 0.004985
105 0.005021
101 0.005017
111 0.003967
114 0.005017
105 0.004983
100 0.004996
105 0.004029
106 0.003989
113 0.003956
115 0.006014
107 0.00497
92 0.004973
85 0.004985
81 0.004973
76 0.005023
78 0.004952
80 0.005994
80 0.006015
80 0.004989
79 0.005017
76 0.005034
69 0.006024
65 0.005027
64 0.006026
68 0.004972
72 0.006021
83 0.005987
86 0.004986
87 0.005984
88 0.005983
90 0.005
92 0.005031
95 0.004994
97 0.006023
99 0.005977
102 0.005998
103 0.005982
104 0.006015
109 0.00602
107 0.006022
90 0.005975
83 0.005982
82 0.004974
86 0.004987
89 0.005029
91 0.006982
92 0.007015
96 0.004951
96 0.004979
97 0.00498
66 0.005029
68 0.005994
73 0.005993
76 0.006036
80 0.00499
84 0.006032
86 0.005043
88 0.006985
90 0.007024
94 0.006016
97 0.006019
99 0.006001
103 0.006017
105 0.005945
91 0.007014
67 0.007026
47 0.006
49 0.006017
60 0.006025
72 0.007986
75 0.007933
75 0.006016
72 0.007014
73 0.005984
73 0.007019
72 0.006977
74 0.007026
75 0.007016
77 0.007014
79 0.007025
84 0.006029
88 0.007019
88 0.007032
87 0.006993
86 0.005973
87 0.007015
77 0.00696
53 0.007005
36 0.007016
34 0.007996
39 0.007964
45 0.006981
49 0.007013
52 0.006982
55 0.007013
44 0.007988
32 0.007979
36 0.007992
45 0.007987
56 0.007968
68 0.007967
73 0.007991
75 0.007948
81 0.00698
85 0.006959
89 0.007017
95 0.007967
98 0.007979
103 0.00702
110 0.007008
111 0.007974
101 0.007991
46 0.007982
23 0.008001
22 0.008011
38 0.007995
49 0.007987
52 0.007016
59 0.007983
66 0.007978
70 0.007023
73 0.007927
77 0.006987
81 0.007008
87 0.006986
91 0.006987
97 0.007036
102 0.006997
106 0.006988
110 0.006983
115 0.006978
118 0.006981
122 0.007953
121 0.007978
73 0.006989
49 0.006981
48 0.006991
58 0.00698
67 0.006976
78 0.006978
83 0.006988
89 0.00695
93 0.006964
92 0.007004
93 0.00698
97 0.006981
102 0.006997
106 0.006948
110 0.005947
116 0.005984
121 0.006987
121 0.006989
125 0.006982
128 0.00697
129 0.00701
103 0.006977
60 0.006893
47 0.007013
56 0.006995
66 0.006984
73 0.006978
75 0.005974
79 0.006993
83 0.006969
86 0.007018
87 0.005982
87 0.005983
92 0.005982
96 0.005984
107 0.005984
113 0.006
117 0.005986
120 0.005984
123 0.005975
126 0.005982
126 0.005986
132 0.005983
136 0.005979
139 0.005985
142 0.006017
140 0.005994
59 0.006023
25 0.005991
27 0.00599
41 0.005979
51 0.00599
57 0.005984
63 0.005982
68 0.005983
68 0.005018
73 0.004995
77 0.005352
76 0.00598
85 0.005035
92 0.005028
102 0.004997
104 0.004974
111 0.004991
116 0.005002
119 0.005018
121 0.005986
127 0.005996
131 0.005933
133 0.00595
139 0.006039
131 0.005031
85 0.005999
29 0.005976
22 0.005951
37 0.004949
53 0.005026
65 0.005028
73 0.005
80 0.004956
83 0.004839
85 0.004035
80 0.004987
80 0.005021
90 0.004989
98 0.004986
104 0.005005
109 0.004984
115 0.004986
116 0.004987
122 0.004987
126 0.004987
127 0.004986
126 0.004988
59 0.005043
25 0.00502
20 0.004991
34 0.004022
46 0.004033
57 0.004035
59 0.004022
64 0.003998
68 0.004996
71 0.004946
69 0.004949
73 0.004986
80 0.005034
87 0.004984
96 0.004988
100 0.004945
109 0.00403
111 0.004004
115 0.003997
118 0.003991
123 0.004
125 0.003991
128 0.003988
133 0.004051
90 0.00403
36 0.004028
10 0.003987
11 0.003955
28 0.004021
39 0.00398
42 0.003989
46 0.004027
53 0.003984
58 0.003998
59 0.003984
62 0.004023
67 0.004037
72 0.00399
77 0.003959
85 0.003992
92 0.00399
97 0.003988
102 0.003983
106 0.002993
111 0.002992
117 0.002963
120 0.002956
122 0.002958
126 0.003036
128 0.002993
126 0.003959
125 0.004021
62 0.002988
17 0.002957
6 0.002982
20 0.002961
36 0.002993
52 0.00299
56 0.002984
60 0.002955
64 0.002994
58 0.00399
56 0.003021
60 0.002991
68 0.003003
75 0.002994
82 0.00303
87 0.002961
91 0.002986
97 0.002964
99 0.002958
101 0.002981
106 0.002984
110 0.002959
104 0.002979
59 0.001994
2 0.002027
0 0.002984
14 0.002955
27 0.00295
35 0.002999
43 0.001996
46 0.001998
52 0.001995
45 0.001995
47 0.003029
52 0.002963
58 0.002966
62 0.001928
73 0.00297
81 0.002948
84 0.002994
89 0.002959
93 0.001997
95 0.002032
101 0.002035
103 0.001995
98 0.002027
45 0.001994
0 0.001952
0 0.001958
0 0.002002
0 0.001995
4 0.001952
10 0.002013
11 0.001996
17 0.001959
20 0.001995
20 0.001994
22 0.001997
26 0.001996
34 0.001991
42 0.001951
51 0.001997
56 0.001995
62 0.001982
68 0.000999
71 0.000999
76 0.000962
78 0.000962
88 0.00104
90 0.000998
94 0.001983
100 0.001993
104 0.001991
104 0.001994
105 0.00194
85 0.001003
24 0.000998
55 0.000997
49 0.000966
59 0.000998
63 0.000998
65 0.000994
68 0.000999
72 0.000961
72 0.000957
71 0.000992
71 0.000997
71 0.00096
73 0.001964
76 0.000998
80 0.001013
83 0.001003
86 0.000994
91 0.000997
93 0.000967
94 0.000997
95 0.001003
98 0.000967
99 0.000964
100 0.0
102 0.000988
100 0.0
66 0.000965
47 0.0
51 0.000997
58 0.000998
63 0.0
66 0.000963
68 0.000959
70 0.0
71 0.000993
70 0.000986
75 0.0
81 0.0
84 0.0
90 0.0
91 0.0
93 0.0
93 0.0
95 0.0
99 0.0
103 0.000964
105 0.001015
106 0.0
106 0.0
100 0.0
77 0.0
44 0.0
44 0.0
50 0.0
54 0.0
53 0.0
54 0.0
58 0.0
61 0.000953
62 0.000969
63 0.00096
65 0.0
67 0.0
73 0.0
27 0.0
34 0.0
38 0.000964
43 0.0
46 0.0
52 0.0
54 0.000996
60 0.000966
65 0.0
70 0.0
80 0.0
84 0.0
89 0.0
91 0.000998
96 0.000978
87 0.0
29 0.0
52 0.0
46 0.001026
51 0.000998
59 0.0
64 0.0
64 0.0
66 0.0
70 0.001044
72 0.000997
71 0.001954
73 0.000989
78 0.001002
78 0.000962
84 0.001001
86 0.001003
91 0.0
93 0.0
97 0.0
101 0.0
104 0.000992
105 0.000998
107 0.001995
110 0.000985
111 0.001001
113 0.001017
115 0.000999
96 0.002005
73 0.002014
64 0.001013
71 0.000997
76 0.001049
80 0.000998
85 0.001036
87 0.00196
87 0.002006
89 0.001038
88 0.000978
90 0.000966
93 0.001983
98 0.002059
105 0.001009
112 0.002035
117 0.000949
121 0.001018
122 0.000977
121 0.001012
120 0.001995
119 0.000966
119 0.001032
122 0.00094
115 0.001995
93 0.001982
73 0.001044
76 0.002039
88 0.000997
93 0.001981
93 0.002026
93 0.002984
97 0.002994
101 0.001996
101 0.001976
99 0.001999
101 0.001994
82 0.001994
89 0.000968
95 0.002027
106 0.001038
112 0.002027
116 0.002032
118 0.00296
121 0.002984
123 0.001999
128 0.001997
128 0.001975
129 0.002981
132 0.003984
119 0.001991
36 0.002984
15 0.003027
20 0.002024
39 0.001993
47 0.002981
53 0.002995
68 0.002
81 0.002009
82 0.001994
78 0.002991
73 0.002991
71 0.001999
76 0.004034
81 0.00302
86 0.003023
90 0.003022
100 0.002981
101 0.003001
101 0.003002
110 0.002
114 0.001994
111 0.002993
89 0.003986
46 0.004019
23 0.00399
31 0.00399
46 0.003048
55 0.003025
57 0.003027
60 0.003979
68 0.003979
69 0.002975
67 0.002992
69 0.003
77 0.003996
90 0.001995
96 0.003989
101 0.002992
107 0.003015
107 0.00402
112 0.002981
117 0.003977
110 0.003987
53 0.00295
24 0.003046
17 0.002977
29 0.003966
41 0.003031
38 0.004031
39 0.004987
52 0.00402
57 0.004022
56 0.002969
58 0.005017
63 0.004985
68 0.002993
73 0.002999
79 0.003038
85 0.003991
93 0.002954
95 0.004987
100 0.005026
105 0.00397
105 0.004022
111 0.004022
115 0.00498
93 0.005014
30 0.003986
13 0.003993
14 0.003998
23 0.004967
37 0.004035
39 0.004023
44 0.004023
57 0.00496
62 0.004022
62 0.004987
68 0.004987
68 0.004977
75 0.003992
80 0.00399
84 0.004011
89 0.004992
96 0.003989
105 0.004993
114 0.004987
129 0.003985
131 0.004023
136 0.004995
140 0.005981
145 0.005981
144 0.004978
105 0.004988
59 0.003979
38 0.004987
52 0.004031
65 0.005052
71 0.004987
74 0.004998
82 0.005019
81 0.005018
79 0.004977
77 0.005949
76 0.005937
80 0.004986
87 0.005043
96 0.005029
104 0.003984
108 0.004028
113 0.005029
114 0.005984
118 0.004983
121 0.005012
119 0.005022
81 0.006011
41 0.005979
23 0.004979
33 0.003994
51 0.004982
63 0.005034
66 0.005027
68 0.005984
74 0.006973
77 0.006023
74 0.004986
76 0.004979
80 0.005972
83 0.005986
89 0.003973
91 0.005036
93 0.005012
107 0.00501
109 0.004983
109 0.006993
116 0.006981
119 0.006015
124 0.004985
118 0.004979
74 0.006019
30 0.007015
12 0.005976
21 0.005986
33 0.00602
40 0.006015
41 0.006014
45 0.006982
53 0.006985
56 0.006016
58 0.00595
61 0.004988
66 0.005985
70 0.00702
79 0.005975
85 0.005988
91 0.005973
95 0.006018
99 0.005981
106 0.007015
109 0.007954
111 0.005974
117 0.005971
117 0.005986
123 0.007036
128 0.007014
132 0.006018
132 0.005984
79 0.006017
33 0.007014
17 0.006983
30 0.007985
39 0.007979
51 0.005988
52 0.006016
53 0.005988
59 0.006981
62 0.006982
61 0.004981
63 0.005985
71 0.005993
79 0.007016
85 0.007013
91 0.007979
95 0.007979
100 0.00799
101 0.006017
104 0.007025
107 0.006025
112 0.006982
117 0.007015
118 0.00798
117 0.007979
62 0.00703
28 0.005948
20 0.007006
33 0.007979
46 0.007979
50 0.006981
52 0.006031
56 0.006979
57 0.00798
56 0.007963
55 0.005989
57 0.007979
66 0.006953
72 0.007011
76 0.006967
80 0.007979
86 0.007979
91 0.006985
94 0.006967
93 0.007002
96 0.007978
103 0.007979
106 0.006981
55 0.007024
7 0.007017
1 0.007015
8 0.007018
18 0.007017
21 0.006983
23 0.006987
27 0.006988
32 0.006973
38 0.007978
38 0.007947
41 0.006975
48 0.007022
60 0.006938
64 0.007019
71 0.00701
78 0.007007
75 0.006981
79 0.006978
84 0.005993
88 0.006984
95 0.006975
101 0.006981
108 0.005981
113 0.007029
122 0.006974
123 0.007011
125 0.007031
122 0.007013
91 0.007015
20 0.006996
0 0.00698
9 0.006977
18 0.005995
25 0.006015
29 0.006978
35 0.006005
44 0.006008
45 0.006019
51 0.006005
53 0.006014
54 0.005984
61 0.005982
70 0.006981
71 0.006985
78 0.007003
84 0.006987
88 0.007018
93 0.007018
100 0.006946
104 0.006948
110 0.005952
114 0.006075
118 0.005974
118 0.005973
125 0.00598
122 0.006978
81 0.006964
34 0.005976
8 0.005988
22 0.006018
41 0.006017
51 0.006033
53 0.006016
60 0.006017
62 0.006039
59 0.005974
55 0.004986
61 0.005979
67 0.005974
74 0.005026
83 0.005984
89 0.005028
93 0.005019
103 0.005817
103 0.005986
107 0.006017
109 0.005983
111 0.005003
111 0.006013
93 0.00499
45 0.004966
10 0.005024
10 0.005032
23 0.005017
28 0.004995
31 0.005027
34 0.005031
42 0.006021
44 0.005985
45 0.005972
46 0.005984
50 0.004986
58 0.004986
66 0.004983
82 0.005014
85 0.005028
91 0.005019
98 0.004996
100 0.004944
104 0.004986
108 0.005023
111 0.004981
114 0.00498
117 0.003989
119 0.00403
121 0.00499
121 0.004998
88 0.005029
33 0.005006
0 0.00502
5 0.005022
23 0.004025
31 0.005035
34 0.005029
35 0.00498
40 0.004986
45 0.004991
51 0.004951
53 0.005035
57 0.005027
65 0.005022
74 0.004029
80 0.004021
87 0.004025
90 0.004024
90 0.011969
95 0.003957
98 0.00403
101 0.004004
103 0.003953
110 0.00402
117 0.00399
120 0.004037
124 0.002994
133 0.004046
134 0.004023
129 0.004029
82 0.004003
34 0.004004
14 0.003987
26 0.00399
42 0.003987
56 0.00403
58 0.003992
62 0.004032
67 0.004024
65 0.003036
61 0.002958
63 0.002995
65 0.002942
72 0.003988
78 0.00403
84 0.00399
90 0.003983
97 0.003998
104 0.004033
104 0.004027
109 0.002994
112 0.002994
116 0.002994
120 0.002995
129 0.002996
126 0.003
71 0.003003
36 0.002964
32 0.002994
48 0.002992
58 0.004022
65 0.004024
68 0.002992
70 0.00303
72 0.002993
67 0.003024
64 0.002955
63 0.002948
72 0.002962
79 0.002948
92 0.002994
96 0.002996
104 0.004018
108 0.002993
111 0.001995
118 0.002993
123 0.002993
127 0.003028
129 0.002961
133 0.002992
141 0.002968
139 0.002963
73 0.00296
32 0.003022
21 0.002992
30 0.002992
42 0.003029
49 0.001993
49 0.00303
50 0.001994
56 0.00202
63 0.002026
63 0.002029
65 0.00304
71 0.002032
80 0.003031
88 0.001993
95 0.002955
99 0.003009
106 0.001994
111 0.002967
113 0.002982
117 0.002031
122 0.002051
124 0.002021
128 0.001993
132 0.00201
135 0.001994
136 0.002029
141 0.001995
140 0.001995
102 0.001996
41 0.002027
30 0.001995
39 0.001955
53 0.000999
63 0.000997
70 0.002041
74 0.000997
82 0.002024
83 0.002035
81 0.001995
82 0.001996
86 0.002001
88 0.001996
92 0.001996
99 0.00196
102 0.000998
105 0.000999
112 0.000958
116 0.000997
122 0.000998
125 0.001995
130 0.000997
135 0.001996
138 0.001997
139 0.000998
109 0.00202
65 0.000998
45 0.000998
52 0.000996
69 0.001037
79 0.001036
80 0.000997
85 0.000998
86 0.000998
83 0.001032
81 0.000996
84 0.000998
85 0.000997
91 0.000999
97 0.001989
106 0.000994
113 0.000997
119 0.000998
125 0.000998
129 0.000959
135 0.000991
136 0.000997
140 0.000998
148 0.000997
150 0.000994
150 0.000999
142 0.000964
98 0.000968
42 0.0
45 0.0
58 0.0
66 0.0
69 0.000998
69 0.0
73 0.001033
79 0.000998
79 0.000998
82 0.0
86 0.000995
92 0.0
102 0.0
108 0.0
113 0.0
118 0.0
120 0.0
122 0.0
122 0.0
126 0.0
124 0.001004
127 0.000965
132 0.0
137 0.0
144 0.0
147 0.0
153 0.0
160 0.0
157 0.0
116 0.0
72 0.0
56 0.0
62 0.000998
77 0.000961
84 0.0
85 0.0
84 0.0
86 0.0
84 0.0
82 0.00201
82 0.001031
90 0.0
95 0.0
104 0.0
111 0.000999
114 0.000998
119 0.0
126 0.0
132 0.0
137 0.0
138 0.000997
142 0.00098
144 0.001011
148 0.0
149 0.0
151 0.0
145 0.001006
105 0.001056
59 0.0
51 0.0
73 0.0
82 0.0
90 0.0
93 0.000998
99 0.000998
96 0.0
92 0.0
92 0.0
95 0.001997
100 0.002016
109 0.0
115 0.0
120 0.0
123 0.0
126 0.0
130 0.001027
132 0.001028
133 0.000968
139 0.000998
140 0.000998
140 0.001995
112 0.001995
57 0.000997
44 0.001001
58 0.0
70 0.001009
75 0.001027
75 0.001029
79 0.001034
82 0.001029
83 0.000973
82 0.000977
83 0.001006
89 0.001986
95 0.001997
100 0.000984
107 0.001995
111 0.000998
113 0.000998
116 0.000997
117 0.001995
118 0.002992
123 0.001001
125 0.001029
127 0.000989
134 0.002009
133 0.001964
137 0.000997
138 0.001996
134 0.001054
87 0.000997
42 0.002023
28 0.002993
37 0.002992
48 0.002024
56 0.002028
60 0.000986
59 0.001988
60 0.001997
63 0.001995
62 0.002031
64 0.000996
66 0.001001
73 0.002038
79 0.002992
85 0.002992
90 0.001999
94 0.002027
99 0.002023
100 0.002982
101 0.002987
105 0.002986
108 0.002994
113 0.001001
115 0.000998
116 0.002014
120 0.001993
120 0.002992
112 0.001995
66 0.002004
26 0.002027
16 0.002991
26 0.002998
45 0.002992
51 0.003034
50 0.002038
56 0.002038
58 0.00302
55 0.003989
50 0.003989
56 0.00199
59 0.002029
67 0.001982
71 0.002982
76 0.002992
83 0.001
87 0.002992
91 0.002996
95 0.003019
95 0.001995
100 0.003022
101 0.003993
104 0.004031
106 0.001971
109 0.002024
110 0.001996
107 0.003995
30 0.002026
135 0.003989
107 0.002992
105 0.002
104 0.003021
104 0.002992
104 0.003989
104 0.00399
104 0.002978
104 0.002976
104 0.003008
104 0.003994
104 0.003035
104 0.003989
104 0.003987
104 0.004027
106 0.003015
114 0.003023
118 0.004981
123 0.003978
128 0.002994
135 0.002991
138 0.003025
143 0.003991
148 0.002996
153 0.00399
153 0.004987
156 0.004018
135 0.004019
69 0.00402
19 0.005018
2 0.005018
20 0.003027
31 0.004025
37 0.003942
34 0.004998
39 0.003982
44 0.003988
45 0.004987
42 0.004002
46 0.003958
51 0.00402
53 0.004986
59 0.004987
74 0.003021
75 0.004043
77 0.00399
83 0.004992
88 0.004032
88 0.005024
89 0.006016
91 0.005047
91 0.005017
90 0.003986
96 0.004996
102 0.004986
107 0.003984
106 0.003983
61 0.004041
0 0.003988
0 0.003953
0 0.00503
0 0.005031
0 0.005022
0 0.005
0 0.005017
0 0.006017
4 0.006015
8 0.005988
17 0.004983
29 0.005026
48 0.004031
61 0.005021
67 0.004016
72 0.005991
81 0.005034
85 0.005019
84 0.004036
89 0.004993
91 0.005978
87 0.005984
87 0.004983
63 0.00502
0 0.00498
0 0.005019
0 0.004984
0 0.005996
0 0.005998
0 0.005021
52 0.005013
55 0.004986
55 0.006985
55 0.00698
56 0.006016
59 0.004982
69 0.004985
73 0.004995
76 0.005029
80 0.006982
82 0.006981
84 0.006022
84 0.006018
87 0.006021
92 0.006992
96 0.007028
103 0.005014
106 0.004998
112 0.005014
114 0.005985
118 0.004991
116 0.007019
84 0.006982
43 0.005985
35 0.005983
39 0.005955
42 0.006981
45 0.007024
44 0.006026
45 0.005948
51 0.006017
52 0.005988
51 0.006031
52 0.007975
56 0.00798
60 0.00601
65 0.005985
71 0.005996
75 0.006982
79 0.007028
81 0.005983
86 0.00598
88 0.007015
90 0.007038
90 0.007027
97 0.008004
100 0.007969
107 0.007032
110 0.007013
108 0.005975
111 0.023893
112 0.0
115 0.007023
89 0.006005
50 0.007979
46 0.007037
54 0.006976
62 0.006977
68 0.007979
71 0.007978
69 0.005958
71 0.006981
70 0.006983
39 0.007978
37 0.007948
43 0.00699
60 0.007956
68 0.007021
76 0.006984
81 0.006961
87 0.008012
91 0.007978
96 0.006979
99 0.006976
103 0.006977
107 0.007979
107 0.007979
91 0.007013
32 0.007978
7 0.006969
14 0.007016
21 0.006949
23 0.007023
24 0.007016
31 0.006995
35 0.006982
41 0.006956
41 0.006997
46 0.007016
58 0.007025
66 0.007027
73 0.006956
77 0.006955
84 0.006978
82 0.007036
84 0.006974
88 0.006981
92 0.007013
95 0.007017
98 0.006987
102 0.006965
109 0.006995
115 0.006982
123 0.007023
122 0.006983
84 0.006981
41 0.006964
24 0.007018
27 0.006017
39 0.005989
48 0.006026
47 0.005985
46 0.006025
54 0.006024
58 0.006028
55 0.005989
55 0.006972
61 0.007014
69 0.007024
74 0.007023
81 0.006983
88 0.007026
92 0.005986
97 0.006019
102 0.006034
111 0.006028
115 0.005984
125 0.005984
129 0.00603
133 0.006017
139 0.007014
140 0.007027
140 0.007013
148 0.006025
150 0.006021
149 0.006024
125 0.006024
52 0.006027
45 0.006035
51 0.006028
66 0.006016
77 0.006028
77 0.006015
80 0.006012
85 0.006011
93 0.005018
89 0.005023
93 0.00508
97 0.00503
105 0.00503
109 0.005034
111 0.004995
115 0.006025
117 0.006032
117 0.006027
121 0.005997
123 0.006022
128 0.006024
133 0.005019
137 0.005025
143 0.005035
106 0.004993
70 0.005059
58 0.005032
72 0.00502
84 0.004987
90 0.004988
93 0.005018
96 0.005078
101 0.005019
100 0.004984
97 0.005032
93 0.005032
98 0.00503
104 0.005034
114 0.005032
124 0.00502
131 0.005026
138 0.004032
143 0.004985
142 0.003952
143 0.003977
148 0.004034
145 0.00402
117 0.004996
50 0.005022
43 0.00499
54 0.005027
65 0.005018
67 0.005021
71 0.004972
72 0.004983
78 0.004026
88 0.004086
86 0.003962
88 0.003957
96 0.004004
101 0.003991
106 0.003989
111 0.004034
112 0.003995
111 0.00993
115 0.0
68 0.005036
36 0.005032
32 0.004033
43 0.004023
56 0.003989
60 0.004029
67 0.004001
74 0.00402
78 0.004076
84 0.004023
82 0.004059
81 0.004032
85 0.004018
89 0.003991
91 0.004041
96 0.003024
107 0.002993
113 0.003046
116 0.002986
120 0.002993
123 0.002993
128 0.003029
106 0.003031
66 0.004026
42 0.002997
44 0.002993
57 0.00399
62 0.004
63 0.003993
66 0.004025
70 0.004021
70 0.004021
69 0.002993
69 0.002993
72 0.002992
79 0.00296
87 0.002992
93 0.001994
100 0.003041
107 0.00298
117 0.002992
120 0.002992
124 0.00399
131 0.003956
136 0.00399
138 0.004032
142 0.00299
145 0.002992
145 0.003046
148 0.001997
142 0.002991
87 0.002963
6 0.002955
12 0.002957
36 0.002993
51 0.002993
61 0.002993
67 0.00296
76 0.002992
76 0.002993
71 0.002026
68 0.001985
76 0.003007
83 0.002992
90 0.002985
93 0.003005
96 0.002992
102 0.002942
102 0.002994
110 0.002993
115 0.002992
119 0.002991
126 0.001995
136 0.001995
117 0.001995
61 0.002024
25 0.001995
31 0.002032
46 0.00203
54 0.001996
48 0.001995
50 0.002028
52 0.002992
53 0.001995
52 0.001995
51 0.001995
58 0.00203
66 0.002026
80 0.001995
92 0.002026
99 0.001995
109 0.00203
113 0.002049
121 0.002054
127 0.001995
111 0.002026
85 0.001999
77 0.002028
73 0.001039
95 0.001028
118 0.000999
146 0.000994
162 0.000998
162 0.001997
114 0.001995
54 0.001996
18 0.002034
32 0.001001
51 0.001995
62 0.002007
65 0.002011
68 0.002026
79 0.001997
84 0.002004
80 0.000998
81 0.001011
84 0.000989
86 0.000966
93 0.000994
103 0.000964
110 0.001006
115 0.001
121 0.000989
135 0.000992
142 0.001995
147 0.000997
158 0.000998
166 0.001001
173 0.001013
173 0.001
181 0.000999
189 0.000997
192 0.000998
190 0.0
160 0.0
57 0.0
42 0.0
56 0.0
72 0.0
84 0.0
88 0.0
90 0.0
100 0.0
97 0.000998
91 0.000997
96 0.0
103 0.0
118 0.0
126 0.0
130 0.0
133 0.0
133 0.0
132 0.0
138 0.0
141 0.0
147 0.0
153 0.0
155 0.0
121 0.0
42 0.0
38 0.0
52 0.001011
76 0.000999
85 0.000998
85 0.000998
89 0.013963
89 0.0
85 0.000996
82 0.001038
85 0.0
93 0.0
106 0.0
114 0.0
122 0.0
130 0.000999
136 0.000998
145 0.0
150 0.001001
154 0.000998
160 0.001995
166 0.002026
123 0.0
60 0.000966
22 0.000994
25 0.000989
37 0.000998
47 0.001996
49 0.001893
55 0.0
60 0.0
69 0.0
72 0.002038
75 0.001034
83 0.0
96 0.0
111 0.0
119 0.0
125 0.0
130 0.000956
131 0.000965
131 0.0
131 0.0
134 0.0
136 0.000998
140 0.000998
144 0.000998
151 0.0
155 0.0
105 0.0
47 0.0
24 0.001029
36 0.001029
57 0.0
67 0.0
70 0.0
70 0.001031
69 0.001028
75 0.000968
69 0.001987
65 0.0
69 0.001059
77 0.0
90 0.002026
97 0.002027
107 0.001001
118 0.000989
125 0.000994
129 0.002025
137 0.001031
145 0.000966
151 0.001957
153 0.001958
158 0.002043
150 0.000997
92 0.002026
35 0.001995
17 0.001996
36 0.000996
49 0.001995
60 0.00101
64 0.002027
76 0.002041
83 0.001993
78 0.003006
79 0.001009
89 0.000999
94 0.000999
102 0.001978
112 0.002025
124 0.000964
122 0.000997
127 0.000997
129 0.002001
126 0.001995
128 0.001954
129 0.002986
103 0.002029
45 0.000998
11 0.001004
10 0.002992
28 0.002992
47 0.001004
54 0.000998
59 0.000998
65 0.002029
69 0.001996
66 0.002992
62 0.002991
67 0.002022
69 0.001964
76 0.002032
81 0.003
91 0.002995
95 0.00203
102 0.001037
111 0.000998
117 0.003024
120 0.00399
133 0.003991
142 0.002984
151 0.001992
152 0.001992
156 0.002012
138 0.004021
69 0.003006
3 0.002026
3 0.00204
14 0.002977
25 0.003033
35 0.003031
38 0.003983
47 0.003999
52 0.002009
55 0.001951
59 0.002041
64 0.004
69 0.004014
83 0.002029
89 0.00203
94 0.002003
99 0.002007
103 0.004023
112 0.002004
120 0.002997
126 0.003989
137 0.002995
142 0.002994
146 0.002026
149 0.003989
156 0.00399
159 0.003008
160 0.001999
141 0.002996
77 0.003989
15 0.001974
23 0.004993
39 0.004993
58 0.002994
64 0.00299
65 0.002992
74 0.004021
76 0.004028
71 0.003024
77 0.003009
86 0.002994
95 0.003989
110 0.002996
119 0.005002
125 0.004985
124 0.004026
126 0.003023
128 0.003976
129 0.004976
133 0.004986
135 0.00402
137 0.00402
103 0.002996
25 0.002988
21 0.002994
34 0.004993
53 0.005028
67 0.002991
73 0.004006
82 0.003989
90 0.005017
88 0.004982
86 0.003988
87 0.003988
85 0.004017
98 0.002999
107 0.003011
113 0.004987
119 0.005984
124 0.003989
128 0.004015
134 0.003985
138 0.005984
142 0.005027
153 0.00399
161 0.004
169 0.003988
113 0.004007
56 0.003992
32 0.004967
34 0.005984
47 0.004989
54 0.004022
50 0.005037
52 0.00602
52 0.005983
60 0.003989
62 0.004022
65 0.004
74 0.003026
83 0.003982
96 0.00397
103 0.004987
110 0.005018
116 0.005017
121 0.004985
121 0.004987
125 0.00602
127 0.006015
123 0.005003
128 0.005026
132 0.003986
139 0.00399
145 0.003972
146 0.006014
152 0.007013
151 0.004983
87 0.004988
32 0.005005
16 0.005976
26 0.005984
43 0.004987
54 0.00498
64 0.004036
62 0.004982
62 0.003984
62 0.006981
58 0.006985
52 0.004983
58 0.005003
64 0.004971
74 0.006986
79 0.006978
90 0.004996
96 0.004982
107 0.004998
112 0.004986
117 0.004975
123 0.007022
126 0.006983
127 0.005983
126 0.005984
133 0.005985
125 0.006982
78 0.007018
11 0.005988
0 0.006015
19 0.004983
38 0.004986
47 0.005957
56 0.007943
64 0.007979
67 0.005978
66 0.005972
64 0.00598
64 0.006981
74 0.006994
82 0.005974
85 0.005981
91 0.005034
94 0.006025
98 0.00503
103 0.007988
107 0.007987
111 0.007012
116 0.00598
120 0.005971
126 0.00801
111 0.007979
57 0.008026
7 0.005976
13 0.007017
33 0.005996
47 0.006982
42 0.006967
42 0.007979
48 0.007976
49 0.006982
44 0.006982
44 0.006989
49 0.007983
55 0.007947
70 0.007976
82 0.007977
92 0.006974
101 0.00698
106 0.006987
120 0.007012
121 0.00698
123 0.00694
127 0.006967
133 0.006981
130 0.007985
134 0.007962
135 0.007973
138 0.007978
139 0.005993
83 0.006964
36 0.006991
57 0.006986
59 0.007014
71 0.00698
80 0.006973
84 0.007009
84 0.007013
88 0.007012
93 0.006981
92 0.006981
91 0.006972
91 0.006982
92 0.004955
94 0.00504
99 0.006967
106 0.006985
107 0.006981
112 0.006986
115 0.007013
120 0.007034
128 0.006972
133 0.006974
137 0.006973
137 0.005976
139 0.006962
140 0.006027
142 0.006025
144 0.00602
137 0.006028
104 0.005985
74 0.006981
63 0.007023
77 0.006964
85 0.006981
96 0.006982
100 0.00697
105 0.006982
108 0.006984
109 0.006017
107 0.006033
110 0.006014
115 0.006025
116 0.006028
116 0.005944
120 0.005984
125 0.005966
128 0.005951
128 0.006978
131 0.007013
133 0.006021
138 0.006075
139 0.006019
121 0.005023
92 0.005984
79 0.006032
79 0.006039
92 0.005978
100 0.005969
100 0.005989
103 0.005981
103 0.006016
104 0.00501
100 0.006026
101 0.005024
94 0.005027
99 0.005018
105 0.005018
113 0.00502
121 0.004984
128 0.005989
130 0.005997
136 0.005984
145 0.006026
149 0.006018
149 0.006027
153 0.004964
156 0.004994
124 0.005021
70 0.005026
39 0.004993
43 0.004983
52 0.004996
57 0.004982
60 0.00499
62 0.005021
68 0.005984
75 0.004985
79 0.005018
83 0.005037
90 0.004985
100 0.004989
108 0.004997
114 0.004991
117 0.004982
116 0.004951
116 0.004986
116 0.004952
115 0.005031
120 0.004034
124 0.004034
127 0.004001
133 0.004023
141 0.00399
149 0.004001
143 0.003993
96 0.004981
51 0.004985
39 0.005004
49 0.005031
64 0.005019
72 0.004983
69 0.004026
67 0.00402
73 0.004021
72 0.003995
70 0.003997
70 0.003995
75 0.003966
83 0.003953
94 0.003992
103 0.00399
112 0.005041
119 0.004016
124 0.004017
126 0.004042
133 0.00403
134 0.00402
133 0.003989
135 0.003986
138 0.003992
139 0.003982
109 0.003973
46 0.002995
32 0.003026
38 0.002985
58 0.004017
74 0.004025
82 0.004023
87 0.003991
95 0.003944
95 0.00399
96 0.004002
97 0.002987
102 0.002957
108 0.00294
111 0.002869
111 0.003026
113 0.002992
115 0.002995
119 0.002992
123 0.003028
128 0.002995
135 0.002964
137 0.003949
138 0.003955
101 0.003959
51 0.003026
45 0.003004
56 0.003054
70 0.00296
77 0.003029
75 0.003022
76 0.002992
80 0.002962
80 0.002962
79 0.002999
77 0.002889
84 0.002991
93 0.003036
98 0.002993
105 0.001982
113 0.001987
120 0.002993
127 0.002994
136 0.002991
142 0.002992
144 0.002954
146 0.002997
147 0.003
149 0.002024
148 0.002031
150 0.001995
153 0.001996
146 0.001996
99 0.002037
41 0.002005
32 0.001995
57 0.001991
69 0.002941
77 0.002981
77 0.002042
84 0.002993
90 0.00205
95 0.002028
96 0.001995
96 0.001992
95 0.001996
100 0.001995
104 0.001996
112 0.001992
115 0.001991
117 0.00199
123 0.001954
128 0.001961
130 0.000986
141 0.000953
146 0.001008
150 0.001997
157 0.002032
160 0.00203
167 0.002003
168 0.001985
174 0.001994
167 0.001995
116 0.001993
66 0.000997
46 0.000997
58 0.000997
72 0.000997
83 0.000997
87 0.000997
92 0.000996
99 0.001
100 0.001993
102 0.001996
105 0.001992
113 0.001998
119 0.000966
125 0.000998
128 0.000999
129 0.000998
132 0.000997
134 0.001086
131 0.00099
132 0.001007
133 0.000996
141 0.00196
145 0.001962
149 0.001957
148 0.002
111 0.000997
60 0.0
59 0.0
75 0.000999
87 0.0
95 0.000997
97 0.000965
97 0.001002
97 0.000979
94 0.000944
91 0.000961
94 0.001008
99 0.000998
107 0.0
118 0.000995
124 0.0
132 0.0
135 0.0
145 0.0
151 0.0
153 0.0
156 0.0
159 0.0
162 0.0
160 0.0
159 0.0
163 0.000991
147 0.000998
92 0.0
50 0.0
44 0.0
60 0.0
73 0.0
83 0.0
87 0.0
91 0.0
95 0.0
100 0.0
100 0.000998
99 0.001007
106 0.000952
109 0.0
116 0.000994
118 0.000997
122 0.0
128 0.0
131 0.000984
137 0.000965
143 0.0
148 0.000992
152 0.00204
158 0.002026
166 0.0
168 0.0
174 0.0
172 0.0
139 0.0
81 0.001996
49 0.001992
50 0.000997
63 0.0
72 0.000966
77 0.001029
81 0.001024
88 0.0
92 0.0
94 0.0
97 0.0
101 0.000957
112 0.001001
120 0.001993
130 0.0
132 0.000998
132 0.0
133 0.002028
135 0.001993
132 0.0
134 0.001997
136 0.0
143 0.0
143 0.0
132 0.001014
89 0.000997
47 0.0
50 0.001022
60 0.001
84 0.001995
95 0.001995
101 0.0
104 0.001998
101 0.0
91 0.0
87 0.0
87 0.001995
91 0.001988
97 0.0
108 0.001005
115 0.000959
122 0.001984
128 0.001963
132 0.001951
139 0.001996
147 0.001995
153 0.000993
152 0.000982
138 0.000997
89 0.002002
43 0.002001
30 0.002008
33 0.018952
48 0.000996
54 0.002984
54 0.002992
60 0.001962
67 0.001996
67 0.000997
71 0.00103
78 0.001012
84 0.002013
92 0.001965
104 0.001041
109 0.001051
112 0.000997
115 0.002992
116 0.003034
115 0.002992
119 0.00299
118 0.000999
120 0.002
124 0.00205
128 0.001994
128 0.002023
77 0.001997
31 0.001
16 0.001988
28 0.003088
43 0.002992
59 0.002992
58 0.002985
62 0.001995
64 0.001997
60 0.001002
53 0.002963
55 0.003002
60 0.001028
63 0.000998
68 0.000992
77 0.003989
83 0.004023
91 0.003991
99 0.002991
107 0.001996
109 0.001996
114 0.001999
121 0.002979
123 0.002991
125 0.002003
128 0.002027
95 0.002962
40 0.004019
10 0.00399
20 0.00399
30 0.003979
43 0.001965
44 0.002024
50 0.002017
54 0.002013
55 0.005
50 0.003989
58 0.002987
66 0.003003
72 0.003007
80 0.003989
89 0.003013
94 0.003976
98 0.004
95 0.002957
95 0.00199
95 0.001978
95 0.003991
97 0.00402
92 0.001949
49 0.002978
7 0.003043
0 0.005018
22 0.00299
35 0.005017
44 0.004983
47 0.002992
54 0.002987
56 0.001998
53 0.004037
46 0.003989
46 0.00299
49 0.00298
53 0.003984
63 0.002987
67 0.003017
76 0.004967
81 0.004979
88 0.002994
95 0.002978
100 0.002993
103 0.004982
111 0.005021
117 0.00299
120 0.002989
126 0.002987
128 0.003
127 0.003984
87 0.005033
27 0.004973
0 0.003993
0 0.003982
11 0.004001
22 0.004986
26 0.004986
27 0.003998
35 0.002982
46 0.00299
51 0.002996
51 0.004005
56 0.006018
62 0.006015
69 0.003991
70 0.004028
74 0.003992
74 0.005017
79 0.00503
82 0.004
84 0.003987
86 0.003992
95 0.004956
100 0.003973
104 0.006029
110 0.005988
124 0.003995
129 0.004016
136 0.003991
142 0.00399
142 0.006029
110 0.006017
40 0.004
12 0.003989
25 0.003986
34 0.00404
39 0.004004
41 0.006016
44 0.00601
45 0.003986
52 0.003959
54 0.003955
56 0.006037
63 0.005993
73 0.003942
82 0.004001
95 0.003957
99 0.002969
102 0.004982
103 0.007014
104 0.005981
106 0.003983
105 0.004016
108 0.003994
109 0.006023
117 0.005985
123 0.004997
115 0.005022
50 0.00402
34 0.004033
45 0.00499
62 0.006021
74 0.005984
86 0.004986
89 0.005016
91 0.00499
87 0.007019
81 0.020895
78 0.0
75 0.0
95 0.004984
100 0.00403
106 0.007023
112 0.007007
120 0.005975
123 0.005016
131 0.005023
136 0.006981
144 0.006986
143 0.005989
106 0.005038
49 0.005948
46 0.005973
52 0.005
63 0.007979
65 0.007985
64 0.005998
66 0.005941
69 0.005991
72 0.006985
75 0.007979
77 0.006002
87 0.006985
101 0.005017
111 0.006015
115 0.005014
121 0.007979
124 0.007971
126 0.005962
126 0.005986
127 0.005004
128 0.007978
127 0.007968
129 0.007976
107 0.007978
73 0.006984
30 0.005985
32 0.006008
44 0.006976
59 0.007979
64 0.007979
67 0.007029
73 0.005975
78 0.006052
85 0.007988
80 0.007972
82 0.007986
83 0.00797
88 0.00502
93 0.006014
95 0.005963
99 0.007074
102 0.006982
104 0.005969
110 0.006019
111 0.007021
119 0.007978
124 0.007978
134 0.007962
140 0.007975
146 0.006933
150 0.005959
144 0.006981
92 0.006983
50 0.006979
39 0.005979
47 0.006981
61 0.006978
66 0.007027
62 0.007014
66 0.006968
73 0.006983
72 0.006992
73 0.006966
81 0.006972
93 0.006978
99 0.006955
108 0.006984
115 0.00698
115 0.00698
116 0.007015
114 0.007035
114 0.006982
114 0.006984
117 0.006981
120 0.006975
123 0.006014
101 0.005976
59 0.005984
34 0.005983
41 0.005984
52 0.00599
62 0.007028
65 0.007018
71 0.007
76 0.006981
76 0.00599
70 0.00598
62 0.006981
62 0.005959
65 0.005981
76 0.006008
85 0.005982
92 0.005985
101 0.006018
109 0.005988
119 0.005966
120 0.005981
125 0.005974
135 0.006981
138 0.005998
139 0.00603
144 0.00598
147 0.005986
147 0.005978
148 0.00597
154 0.006028
153 0.006025
97 0.005965
52 0.004987
35 0.004986
50 0.004989
62 0.00499
71 0.005985
76 0.005984
80 0.004978
86 0.005958
92 0.006026
92 0.005992
94 0.006011
94 0.005974
99 0.005969
102 0.004966
105 0.00499
109 0.005023
111 0.004986
116 0.004987
116 0.004984
125 0.00499
132 0.005017
138 0.005019
148 0.004976
151 0.005992
157 0.004976
162 0.004983
163 0.005009
164 0.005968
153 0.004972
101 0.004997
60 0.004996
56 0.004971
67 0.005022
79 0.004987
89 0.004971
93 0.004985
102 0.004981
102 0.004016
100 0.004024
105 0.004975
109 0.004987
117 0.004021
125 0.00402
133 0.003984
134 0.004021
135 0.005026
136 0.004987
135 0.004992
136 0.004978
138 0.004945
141 0.005013
146 0.003972
149 0.00398
151 0.003997
152 0.003988
98 0.003986
64 0.003986
63 0.00402
84 0.003987
98 0.003996
98 0.00399
96 0.003981
102 0.004981
102 0.004004
97 0.00399
94 0.003988
97 0.003996
100 0.00397
107 0.004036
115 0.004033
125 0.003988
128 0.003982
133 0.003983
139 0.003992
141 0.00398
147 0.002994
151 0.002988
158 0.002962
160 0.003992
164 0.003999
164 0.003992
163 0.004023
166 0.004024
134 0.004031
80 0.003991
51 0.003986
52 0.003955
66 0.003984
81 0.003945
91 0.003995
93 0.002968
95 0.002991
106 0.002926
108 0.002996
110 0.002958
106 0.002958
111 0.002989
114 0.002971
118 0.003997
124 0.004007
127 0.003957
130 0.002959
131 0.003024
137 0.002995
143 0.002992
146 0.002998
154 0.002958
162 0.003003
166 0.002981
171 0.002981
176 0.002992
150 0.002989
97 0.003016
66 0.002955
60 0.002962
73 0.002962
89 0.002976
93 0.003001
95 0.002999
97 0.002991
100 0.002995
96 0.002988
95 0.003007
103 0.002984
111 0.002995
118 0.002983
129 0.001998
138 0.001984
140 0.001995
146 0.001994
146 0.001997
149 0.002026
145 0.001993
145 0.001986
141 0.001952
89 0.00299
49 0.001999
44 0.001993
57 0.002035
70 0.001956
84 0.002043
88 0.002003
91 0.000955
98 0.002995
97 0.002001
96 0.002037
99 0.002015
106 0.001965
110 0.001966
115 0.001961
118 0.001964
122 0.001003
125 0.000989
128 0.001036
132 0.001995
135 0.000993
135 0.001034
141 0.000997
123 0.000957
74 0.000964
39 0.000964
44 0.001991
56 0.002
67 0.001952
75 0.000993
73 0.001989
78 0.001997
79 0.00104
82 0.000959
81 0.001998
81 0.00097
83 0.000972
92 0.001029
98 0.000963
101 0.000964
107 0.00097
111 0.000982
121 0.002001
126 0.000988
131 0.000947
139 0.000995
148 0.002027
148 0.002015
100 0.002017
43 0.0
32 0.000996
36 0.000965
46 0.000967
52 0.0
55 0.00098
72 0.00097
81 0.00102
80 0.001012
77 0.001018
79 0.001
84 0.00102
88 0.000997
91 0.000989
100 0.000997
105 0.0
105 0.0
103 0.0
104 0.0
107 0.0
104 0.0
105 0.0
88 0.0
41 0.0
4 0.001001
13 0.000974
30 0.001027
41 0.0
49 0.0
55 0.0
58 0.0
60 0.0
52 0.0
53 0.0
54 0.0
59 0.0
62 0.0
67 0.0
72 0.0
77 0.0
76 0.000997
84 0.001014
91 0.0
95 0.000965
74 0.0
33 0.000972
0 0.000998
0 0.00099
11 0.000963
25 0.001993
27 0.000995
24 0.0
28 0.001029
32 0.0
29 0.0
26 0.0
31 0.001971
39 0.001994
43 0.0
51 0.0
60 0.0
66 0.001998
71 0.001995
83 0.0
86 0.001988
90 0.0
92 0.0
97 0.0
99 0.002028
99 0.00201
101 0.0
103 0.0
101 0.0
66 0.002003
13 0.002006
0 0.000971
0 0.000989
69 0.0
72 0.0
72 0.0
74 0.002007
77 0.002002
82 0.0
82 0.0
82 0.0
81 0.002019
84 0.002016
88 0.000999
90 0.001987
92 0.0
94 0.0
98 0.000934
100 0.000977
102 0.00099
105 0.000964
107 0.000996
110 0.0
114 0.002004
118 0.002157
119 0.0
122 0.001991
124 0.0
126 0.0
124 0.000966
117 0.00299
89 0.001995
61 0.001006
61 0.0
70 0.0
77 0.002003
84 0.001991
84 0.002037
88 0.001989
89 0.001994
91 0.0
92 0.002035
91 0.00199
93 0.001999
95 0.001992
99 0.002005
102 0.001997
106 0.001996
106 0.002993
107 0.002991
112 0.002993
114 0.002963
120 0.001998
122 0.001995
125 0.0
129 0.001961
132 0.002993
134 0.000997
122 0.001989
96 0.00099
79 0.002989
78 0.003
88 0.002991
92 0.002994
94 0.002002
79 0.001993
82 0.001993
82 0.002998
80 0.002991
83 0.001989
90 0.001998
98 0.001993
105 0.002978
111 0.002989
116 0.002981
123 0.003011
122 0.000993
122 0.001004
126 0.002012
129 0.002989
130 0.002994
135 0.001994
139 0.001993
130 0.001982
94 0.003982
63 0.004003
62 0.00398
65 0.019909
77 0.001965
90 0.001
90 0.000986
92 0.002989
94 0.002992
94 0.000998
92 0.000997
94 0.001991
98 0.00299
102 0.002992
109 0.002946
115 0.002977
121 0.002949
126 0.001951
129 0.002011
131 0.003988
137 0.003987
141 0.002003
145 0.001996
150 0.001988
153 0.003991
156 0.001989
153 0.003984
121 0.00399
85 0.004987
65 0.002993
67 0.00299
79 0.002993
91 0.003985
92 0.003984
89 0.002001
96 0.002003
98 0.002003
102 0.003002
103 0.002975
105 0.003989
112 0.004953
118 0.003016
125 0.00298
125 0.002998
126 0.004979
128 0.005012
130 0.002993
131 0.002003
131 0.00199
136 0.001976
141 0.003002
145 0.004955
149 0.004992
153 0.002996
158 0.003007
164 0.003003
153 0.004987
110 0.005026
75 0.003002
74 0.001978
80 0.003021
94 0.003001
95 0.003988
96 0.004995
98 0.005014
101 0.003005
98 0.003998
98 0.002984
101 0.004983
108 0.005022
117 0.002998
122 0.00301
130 0.002992
136 0.002941
140 0.002997
141 0.005023
140 0.005
144 0.00299
141 0.003993
141 0.002982
142 0.006018
123 0.005987
73 0.002985
62 0.002998
68 0.003005
89 0.004009
94 0.003
99 0.004988
105 0.005026
107 0.003996
106 0.003984
106 0.003996
105 0.005988
109 0.005987
110 0.003985
116 0.004
121 0.003033
125 0.003996
125 0.003998
127 0.00595
129 0.005987
134 0.005985
135 0.003991
140 0.003996
147 0.00399
146 0.005935
111 0.006015
73 0.003997
66 0.003026
77 0.003992
82 0.002974
84 0.003992
82 0.006978
85 0.006981
86 0.003994
88 0.003984
88 0.004984
90 0.005992
93 0.005981
102 0.004001
109 0.004007
119 0.004978
122 0.004982
128 0.003992
131 0.006996
133 0.007014
135 0.004984
137 0.00499
135 0.004991
135 0.006977
135 0.00703
140 0.004032
132 0.006981
75 0.003972
51 0.004984
52 0.00402
62 0.006029
74 0.007012
83 0.004959
84 0.004972
86 0.005014
93 0.006966
98 0.006982
94 0.004972
96 0.006982
95 0.004947
100 0.005
100 0.004986
104 0.006982
108 0.007013
111 0.006001
113 0.00501
120 0.005015
125 0.00798
129 0.006966
134 0.005015
140 0.007981
148 0.005001
150 0.005974
137 0.004986
93 0.007978
61 0.007976
58 0.005986
64 0.005016
76 0.005985
79 0.007944
81 0.007984
83 0.004961
84 0.007979
86 0.005984
85 0.004956
90 0.002029
99 0.007982
109 0.007972
113 0.005985
117 0.005991
120 0.005986
115 0.007978
115 0.007979
117 0.007969
114 0.008012
118 0.007012
104 0.005987
72 0.00598
47 0.005978
46 0.007011
58 0.007013
68 0.005975
73 0.005987
76 0.00594
83 0.007971
87 0.007952
87 0.00797
85 0.007027
84 0.004989
85 0.00599
92 0.005965
94 0.00698
97 0.006946
100 0.005022
102 0.004972
101 0.005991
104 0.006971
107 0.007006
115 0.007965
118 0.007986
123 0.005972
125 0.005984
90 0.006974
52 0.006983
35 0.006985
34 0.006981
41 0.006981
51 0.006981
50 0.006943
47 0.006971
55 0.006976
63 0.006983
65 0.006967
66 0.006019
71 0.005982
83 0.005967
88 0.005987
93 0.006961
90 0.006954
95 0.006956
97 0.006987
102 0.006982
104 0.007023
107 0.007017
102 0.006948
112 0.006981
117 0.005986
118 0.005983
122 0.005983
131 0.005989
102 0.005989
49 0.005984
25 0.005945
30 0.005983
55 0.006016
69 0.006021
68 0.005999
75 0.005977
76 0.006988
72 0.00701
65 0.005991
65 0.005952
69 0.005981
72 0.005989
81 0.005975
92 0.004986
100 0.00598
100 0.006012
104 0.00599
115 0.004986
120 0.00499
121 0.004991
131 0.004986
140 0.004986
138 0.004987
142 0.004995
110 0.005977
37 0.005984
28 0.00599
36 0.005986
51 0.005969
59 0.00597
60 0.005982
67 0.005971
71 0.004993
77 0.004985
77 0.004967
83 0.005315
90 0.005968
103 0.005974
105 0.004986
108 0.005017
114 0.004997
118 0.004989
118 0.004991
121 0.004999
125 0.004995
125 0.004976
126 0.004978
133 0.004975
135 0.004958
137 0.004986
97 0.004035
51 0.004023
40 0.005002
50 0.005018
67 0.005001
79 0.004983
75 0.004986
70 0.004986
76 0.004988
79 0.004988
74 0.004987
72 0.003984
80 0.003951
86 0.004029
93 0.003996
104 0.004012
110 0.00399
116 0.004016
123 0.003998
125 0.004981
136 0.004587
140 0.003992
144 0.003995
146 0.004076
147 0.004063
149 0.00399
150 0.00399
135 0.003989
78 0.003988
36 0.00399
28 0.004022
43 0.003984
63 0.003948
73 0.003965
76 0.003962
86 0.00502
94 0.004024
93 0.003969
93 0.003983
97 0.004001
101 0.003961
104 0.00396
112 0.003961
116 0.003992
117 0.003951
123 0.003982
125 0.003954
131 0.003989
135 0.003959
136 0.002996
140 0.002948
144 0.002997
149 0.002966
148 0.002963
115 0.003957
70 0.004
51 0.003938
77 0.003988
92 0.004026
100 0.003992
102 0.003992
101 0.002992
102 0.002947
98 0.002952
89 0.002959
95 0.002961
103 0.00299
110 0.002983
119 0.002957
133 0.003032
138 0.003028
146 0.003035
144 0.003023
146 0.002992
149 0.002952
146 0.00399
146 0.003992
138 0.003966
90 0.002991
42 0.002972
28 0.002963
44 0.003
61 0.002992
69 0.003058
73 0.003064
84 0.003026
89 0.002982
92 0.002992
94 0.002006
93 0.002985
99 0.001995
100 0.001995
104 0.002027
110 0.001994
115 0.00204
117 0.001995
121 0.001995
126 0.002992
132 0.002001
134 0.001998
146 0.001992
150 0.002982
155 0.001982
157 0.002016
116 0.001995
50 0.001995
41 0.002027
56 0.002021
67 0.00204
68 0.001994
63 0.002037
66 0.002
70 0.001983
71 0.001995
71 0.001994
78 0.000963
83 0.002034
90 0.001012
103 0.001005
111 0.000998
121 0.001995
125 0.002033
130 0.002018
134 0.001995
138 0.001995
133 0.001993
135 0.002005
136 0.001993
139 0.002
139 0.001991
120 0.002028
68 0.000999
25 0.001032
29 0.000998
46 0.000999
64 0.000967
74 0.000965
79 0.001003
87 0.000962
90 0.000963
84 0.000997
79 0.000999
81 0.000998
84 0.002025
91 0.002024
94 0.000998
100 0.000949
105 0.000997
109 0.000967
115 0.000999
118 0.0
120 0.000956
123 0.000967
130 0.000967
90 0.0
49 0.000999
33 0.000997
44 0.0
55 0.001004
59 0.000952
58 0.000989
63 0.000996
63 0.0
58 0.000997
55 0.001005
59 0.0
70 0.0
79 0.0
92 0.0
101 0.0
105 0.0
110 0.0
115 0.0
116 0.001003
116 0.0
115 0.001005
119 0.0
111 0.0
29 0.0
0 0.0
4 0.0
14 0.0
19 0.0
23 0.0
26 0.0
33 0.0
40 0.0
44 0.0
46 0.000994
52 0.000997
60 0.000969
63 0.000974
67 0.0
67 0.002025
69 0.001991
72 0.0
75 0.0
77 0.0
84 0.001997
92 0.001999
96 0.0
106 0.002039
108 0.016955
109 0.0
106 0.001993
0 0.001988
1 0.000979
12 0.0
15 0.0
11 0.0
8 0.001998
9 0.001994
12 0.0
13 0.002039
18 0.0
22 0.0
25 0.0
38 0.002029
47 0.00198
57 0.000958
63 0.0
67 0.0
74 0.001997
74 0.001968
80 0.0
79 0.00204
80 0.0
79 0.0
85 0.000953
89 0.002994
93 0.002002
83 0.0
36 0.001968
0 0.000997
49 0.001995
57 0.001995
69 0.0
74 0.001964
74 0.000953
77 0.0
77 0.0
75 0.002026
71 0.00199
73 0.000959
77 0.0
80 0.0
82 0.001992
86 0.001976
90 0.000967
94 0.002032
97 0.000941
102 0.001002
104 0.001012
106 0.002028
108 0.002025
116 0.0
116 0.0
99 0.0
70 0.00199
52 0.001994
50 0.001965
58 0.002033
60 0.002042
60 0.0
63 0.0
67 0.0
71 0.001994
72 0.002961
72 0.0
76 0.0
82 0.000957
90 0.002986
94 0.001986
99 0.001994
99 0.001995
99 0.001998
100 0.001997
100 0.001973
103 0.001993
105 0.001995
107 0.001995
112 0.001995
118 0.001997
121 0.003008
125 0.002993
116 0.003028
88 0.002992
68 0.002005
67 0.001996
73 0.001984
78 0.003015
78 0.002951
76 0.001993
78 0.003023
79 0.001999
80 0.002957
51 0.001042
61 0.003027
69 0.002996
79 0.002025
88 0.001989
98 0.001989
104 0.002996
110 0.003013
111 0.001998
115 0.001994
114 0.001995
114 0.003958
119 0.002995
125 0.003987
131 0.00399
133 0.001995
140 0.002038
146 0.001993
128 0.003989
78 0.003941
48 0.001952
47 0.001985
59 0.00203
71 0.002993
74 0.001998
76 0.002993
79 0.003989
80 0.001979
80 0.001978
78 0.001979
81 0.00399
85 0.003965
92 0.001998
96 0.001996
104 0.001996
108 0.004085
118 0.001989
123 0.003987
124 0.003989
128 0.00399
136 0.002029
142 0.001992
143 0.001996
148 0.003979
154 0.003996
147 0.001998
105 0.001996
73 0.002012
72 0.001999
85 0.001997
98 0.004987
105 0.005012
108 0.002963
110 0.002961
114 0.002962
117 0.003985
117 0.003989
124 0.001995
132 0.001995
137 0.016991
149 0.002985
150 0.002997
156 0.005018
160 0.005018
163 0.002983
166 0.00296
171 0.002956
174 0.005044
177 0.005092
152 0.001961
108 0.001981
89 0.003028
98 0.003985
109 0.003967
117 0.005984
123 0.005019
125 0.002994
129 0.003014
130 0.002993
131 0.004977
129 0.004975
135 0.002985
143 0.002961
146 0.003003
154 0.00301
160 0.002025
164 0.004987
165 0.005023
167 0.003992
172 0.003992
173 0.003011
174 0.005017
178 0.005973
176 0.003039
141 0.002989
100 0.002988
89 0.003983
102 0.00399
108 0.006027
114 0.005984
114 0.003
117 0.002987
119 0.003988
124 0.00598
121 0.006016
121 0.003022
126 0.003032
131 0.003989
144 0.003031
151 0.00402
152 0.003985
153 0.005979
157 0.005984
160 0.003975
160 0.00398
164 0.003053
168 0.005981
171 0.006017
172 0.003002
177 0.005984
185 0.004986
181 0.004987
141 0.00399
96 0.007016
81 0.006982
90 0.004015
105 0.003951
114 0.003942
116 0.006032
118 0.00701
126 0.003987
125 0.006022
125 0.004967
128 0.00497
133 0.003982
140 0.007017
147 0.007013
153 0.004955
163 0.004986
168 0.004021
166 0.006943
169 0.00702
173 0.004991
176 0.007024
178 0.004995
182 0.004967
169 0.004983
120 0.007017
82 0.008016
83 0.004988
99 0.00497
110 0.00402
115 0.007057
117 0.006982
126 0.003985
125 0.006981
117 0.004951
120 0.004951
129 0.005945
135 0.007961
139 0.007976
149 0.005976
151 0.004974
153 0.005015
156 0.007213
161 0.007965
160 0.004978
167 0.007978
161 0.005989
119 0.005988
72 0.005975
57 0.00797
65 0.00798
82 0.004985
88 0.004989
88 0.004992
92 0.007965
101 0.007981
101 0.005019
105 0.007983
108 0.006992
113 0.005989
118 0.005979
123 0.006017
129 0.007978
138 0.007987
140 0.005984
145 0.004987
149 0.004987
148 0.007993
152 0.007968
156 0.008012
163 0.007969
170 0.006979
170 0.00698
147 0.00698
95 0.006977
55 0.006977
51 0.005977
68 0.005034
80 0.005023
84 0.006955
84 0.00798
88 0.007963
94 0.007979
95 0.006969
98 0.006984
98 0.00698
103 0.006983
113 0.007024
121 0.006975
126 0.006971
132 0.006951
135 0.006973
136 0.005963
140 0.006017
142 0.006017
140 0.006979
85 0.006036
47 0.00695
35 0.006977
46 0.006975
56 0.006983
61 0.006969
63 0.00697
66 0.006975
76 0.00297
81 0.007011
79 0.006024
85 0.005984
91 0.005981
97 0.005983
104 0.006009
113 0.006025
118 0.005979
124 0.005989
124 0.006985
95 0.006993
36 0.006989
25 0.006015
42 0.006015
57 0.005986
57 0.005984
60 0.005988
67 0.006018
73 0.006016
71 0.005986
75 0.005966
80 0.005991
81 0.005984
94 0.005984
102 0.006012
106 0.005968
112 0.005013
118 0.004989
121 0.00598
124 0.005987
125 0.006033
93 0.005982
33 0.005965
21 0.005983
33 0.005986
57 0.005978
65 0.005017
71 0.006026
76 0.005033
76 0.005019
71 0.004979
69 0.004987
74 0.005021
81 0.004996
93 0.00497
99 0.004981
104 0.005013
114 0.004962
118 0.005995
122 0.00603
122 0.005017
125 0.004997
94 0.005032
42 0.005016
15 0.004996
19 0.004981
39 0.004983
51 0.004943
55 0.004989
64 0.005021
68 0.00499
69 0.004986
68 0.004036
71 0.004028
76 0.004068
86 0.004988
94 0.005035
103 0.004985
109 0.004987
112 0.00498
119 0.004979
121 0.004968
125 0.005029
129 0.004987
137 0.003982
142 0.004023
144 0.00402
148 0.00402
156 0.00399
153 0.003986
155 0.004988
112 0.004069
43 0.003977
15 0.00399
26 0.004021
46 0.004987
56 0.005031
52 0.005027
54 0.004016
62 0.004043
64 0.003989
63 0.003991
70 0.00399
73 0.003986
78 0.004026
89 0.004022
103 0.003945
109 0.004025
115 0.004032
118 0.004026
125 0.002959
125 0.002992
129 0.002993
131 0.003957
135 0.003993
140 0.003963
142 0.003986
147 0.00399
152 0.00399
132 0.004023
69 0.003978
27 0.00399
32 0.004023
49 0.00399
67 0.003954
80 0.002939
84 0.002957
87 0.002962
85 0.002992
75 0.002992
71 0.003005
75 0.003037
78 0.002992
86 0.002989
93 0.00399
99 0.002996
110 0.003996
119 0.003027
130 0.003942
137 0.003951
145 0.002996
159 0.002952
130 0.002992
82 0.002995
41 0.002992
32 0.003024
48 0.003038
60 0.003026
67 0.003022
74 0.00301
76 0.002958
78 0.003012
72 0.003022
75 0.003991
91 0.002032
101 0.000997
119 0.003023
129 0.002028
137 0.002027
138 0.002028
141 0.002028
137 0.002047
133 0.002999
112 0.003013
35 0.003031
7 0.002992
10 0.002039
25 0.002035
41 0.001995
49 0.001995
57 0.001005
68 0.001997
76 0.001995
77 0.001992
76 0.002975
84 0.00296
91 0.002042
89 0.002993
93 0.002959
94 0.002001
98 0.001998
98 0.001981
103 0.001995
103 0.001987
104 0.002007
105 0.001979
81 0.002011
30 0.001998
0 0.002027
5 0.002029
24 0.001964
34 0.000991
35 0.001045
38 0.000998
41 0.001974
42 0.002005
40 0.002008
39 0.001986
42 0.001986
46 0.001995
55 0.001982
67 0.000989
80 0.000998
87 0.000997
91 0.000998
97 0.000967
106 0.000997
112 0.000998
118 0.00203
124 0.001988
129 0.002002
96 0.002004
6 0.001044
0 0.000999
9 0.000999
24 0.000979
27 0.000999
33 0.000998
41 0.002026
43 0.001984
48 0.002052
50 0.000998
54 0.0
60 0.00204
82 0.000997
92 0.000997
99 0.001997
99 0.000991
100 0.000997
102 0.000997
99 0.000997
101 0.0
85 0.0
35 0.0
0 0.0
58 0.0
73 0.0
81 0.0
90 0.000992
96 0.001032
100 0.001005
103 0.000997
101 0.000997
102 0.0
103 0.0
104 0.0
106 0.0
109 0.0
112 0.0
116 0.0
116 0.0
120 0.0
124 0.0
127 0.0
130 0.0
129 0.001025
100 0.000961
76 0.001001
73 0.001012
84 0.003026
90 0.0
89 0.0
87 0.0
90 0.002041
92 0.00204
91 0.0
93 0.0
94 0.0
98 0.00204
104 0.002004
111 0.0
120 0.001997
126 0.0
129 0.0
133 0.000952
135 0.001998
136 0.00203
139 0.000959
139 0.0
138 0.000959
138 0.001966
135 0.001994
98 0.0
76 0.002027
82 0.000967
92 0.0
101 0.0
105 0.001986
109 0.002992
115 0.0
116 0.0
115 0.0
115 0.002027
118 0.001996
120 0.0
123 0.002027
127 0.0
129 0.0
134 0.0
137 0.002027
143 0.002025
154 0.000961
156 0.0
166 0.0
171 0.002031
142 0.002995
78 0.0
64 0.003027
88 0.0
101 0.0
102 0.0
102 0.003014
107 0.002028
107 0.001995
107 0.0
105 0.00095
101 0.001995
107 0.001988
120 0.000987
134 0.00203
146 0.0
156 0.00096
163 0.0
168 0.003026
175 0.003025
179 0.000929
183 0.000964
184 0.001995
183 0.001996
181 0.001987
176 0.000998
100 0.001971
48 0.000967
44 0.0
59 0.0
79 0.003021
89 0.002024
91 0.002992
106 0.0
114 0.0
113 0.0
116 0.003023
118 0.002993
123 0.00294
126 0.00294
133 0.0
139 0.0
142 0.0
143 0.001994
148 0.00201
151 0.0
157 0.001998
163 0.001994
170 0.00299
185 0.002007
193 0.002996
195 0.003006
196 0.003009
145 0.002008
89 0.001991
62 0.002992
65 0.003036
80 0.001997
90 0.001995
95 0.002002
94 0.002989
99 0.001993
96 0.003022
97 0.003024
103 0.001992
116 0.001992
126 0.002993
136 0.002993
148 0.002992
156 0.002993
160 0.002029
166 0.002044
162 0.003991
160 0.002013
158 0.003029
156 0.004042
95 0.003007
48 0.002992
43 0.002948
55 0.003023
78 0.004022
97 0.002971
109 0.002993
115 0.002041
122 0.003989
116 0.00299
115 0.004034
117 0.004023
126 0.002991
130 0.002043
133 0.002041
136 0.004036
138 0.003988
140 0.001986
144 0.001992
117 0.002991
62 0.003993
25 0.001992
43 0.005018
63 0.004987
74 0.003984
84 0.001996
94 0.001998
97 0.001996
98 0.004001
93 0.003958
91 0.001992
94 0.002998
95 0.002992
107 0.003011
111 0.002001
112 0.004979
113 0.004987
119 0.002027
113 0.002004
67 0.001997
24 0.004987
15 0.004987
31 0.001995
47 0.001991
49 0.002959
56 0.001994
59 0.002953
58 0.004987
56 0.004993
54 0.002014
52 0.00302
55 0.003023
62 0.004987
71 0.005019
80 0.002993
85 0.002987
96 0.001992
69 0.002994
21 0.002996
0 0.005012
0 0.005984
18 0.003012
19 0.003024
16 0.003001
19 0.005028
25 0.006023
26 0.003992
26 0.003003
24 0.002992
32 0.003991
38 0.00399
49 0.005985
61 0.005984
73 0.002989
84 0.002992
90 0.003988
96 0.006029
98 0.006045
107 0.002988
91 0.003985
36 0.003006
0 0.003956
0 0.003992
0 0.006015
5 0.006016
9 0.00399
13 0.00399
17 0.003992
20 0.006022
23 0.00602
28 0.003987
33 0.003036
50 0.004018
59 0.003028
68 0.003991
76 0.003967
80 0.00704
82 0.006982
80 0.00399
88 0.003006
90 0.003991
94 0.005983
100 0.006018
103 0.002964
113 0.006015
120 0.004025
122 0.003974
130 0.003049
128 0.007018
76 0.007019
14 0.003975
6 0.003979
26 0.004004
43 0.007015
56 0.006984
55 0.023912
57 0.004986
56 0.004958
53 0.004993
50 0.00397
51 0.007012
60 0.007011
72 0.004991
79 0.003976
90 0.00398
100 0.006981
105 0.006994
121 0.004019
122 0.006981
128 0.004983
129 0.003993
126 0.005
105 0.007979
49 0.007965
10 0.004976
18 0.004988
37 0.004959
47 0.006981
50 0.006985
58 0.004997
69 0.006977
74 0.005023
72 0.004986
79 0.005995
86 0.007974
100 0.007978
110 0.00504
113 0.004977
116 0.005112
115 0.00798
113 0.007979
118 0.004986
121 0.006981
124 0.005982
129 0.005998
140 0.005983
150 0.007863
146 0.007979
102 0.005981
57 0.004989
42 0.005021
53 0.008016
77 0.007979
83 0.005979
84 0.007983
84 0.005985
89 0.005972
90 0.005986
90 0.005987
94 0.007984
106 0.007953
111 0.005985
116 0.005976
127 0.004998
139 0.007978
147 0.007052
162 0.00705
168 0.006953
177 0.005964
185 0.005975
191 0.005985
197 0.006996
196 0.006995
198 0.005989
198 0.005986
197 0.005988
156 0.007015
98 0.007014
73 0.007013
85 0.006977
104 0.005982
113 0.006985
120 0.006982
132 0.006982
138 0.006983
140 0.006014
144 0.005996
146 0.006339
148 0.006871
154 0.006968
155 0.00595
160 0.007024
162 0.005991
166 0.005984
170 0.005984
172 0.006018
175 0.005859
185 0.005985
193 0.005983
196 0.005962
205 0.006003
209 0.006984
153 0.007026
114 0.007016
108 0.006982
128 0.006012
141 0.005986
140 0.006015
145 0.006014
150 0.00598
146 0.005981
137 0.005975
133 0.006013
143 0.005984
150 0.005017
161 0.005993
174 0.006982
179 0.005989
185 0.005985
189 0.005978
193 0.005985
195 0.00597
199 0.005983
198 0.005988
167 0.005976
87 0.005971
76 0.005989
84 0.005026
106 0.004995
113 0.004987
114 0.004984
123 0.004984
130 0.006023
130 0.006018
133 0.005993
140 0.005981
135 0.005972
122 0.005971
128 0.005981
135 0.004983
147 0.004988
146 0.004985
152 0.004981
155 0.004993
154 0.004992
159 0.005011
162 0.004951
129 0.004986
72 0.004994
7 0.005992
0 0.004983
8 0.005024
25 0.005027
35 0.004987
43 0.004986
50 0.005003
54 0.00502
48 0.00503
47 0.004986
48 0.004974
48 0.004986
56 0.005009
64 0.004996
73 0.004034
76 0.004039
79 0.004031
91 0.00495
93 0.003957
95 0.003951
94 0.004021
92 0.004989
94 0.004997
100 0.004989
89 0.0
2 0.004982
0 0.005019
0 0.005047
2 0.004988
10 0.004021
4 0.004024
57 0.004029
49 0.003949
51 0.003996
57 0.00399
63 0.003989
76 0.004017
81 0.003989
87 0.003989
91 0.004029
101 0.003901
108 0.002996
108 0.002955
108 0.004027
108 0.004038
106 0.003992
109 0.00399
113 0.00399
115 0.004024
104 0.004031
77 0.004022
65 0.004033
73 0.00399
82 0.003969
93 0.004029
99 0.003057
101 0.003028
107 0.003041
108 0.003026
99 0.003008
99 0.004017
100 0.002974
105 0.003989
109 0.004022
114 0.004024
116 0.003985
122 0.003988
126 0.003011
129 0.002992
130 0.002993
136 0.002993
127 0.002991
95 0.002988
84 0.002992
87 0.00302
94 0.002991
97 0.003952
101 0.004022
102 0.002982
105 0.002996
105 0.003032
104 0.003028
105 0.00303
110 0.002997
115 0.004017
120 0.003014
126 0.003009
132 0.00303
133 0.002022
141 0.002027
143 0.002025
145 0.001999
148 0.001996
149 0.002992
124 0.003033
77 0.003007
61 0.003027
71 0.003017
80 0.003027
84 0.001995
85 0.001994
93 0.002011
99 0.002034
103 0.001998
104 0.001995
109 0.001994
112 0.001966
119 0.001998
125 0.002032
129 0.002028
129 0.003025
126 0.001997
127 0.002002
130 0.002002
128 0.001995
131 0.002012
136 0.002003
139 0.001995
143 0.002027
135 0.001995
92 0.002028
71 0.001993
72 0.000998
85 0.000999
96 0.000999
97 0.000969
98 0.001961
98 0.002004
97 0.001995
96 0.001982
94 0.00203
94 0.001983
100 0.001994
108 0.001996
117 0.001996
122 0.000961
129 0.000997
133 0.000997
140 0.000998
141 0.002029
143 0.002043
143 0.00203
145 0.002035
145 0.002012
147 0.000996
142 0.001996
131 0.000999
96 0.000997
66 0.000997
70 0.002027
92 0.002025
105 0.000997
106 0.002027
110 0.001996
118 0.001997
115 0.001994
109 0.000998
100 0.001027
108 0.000997
110 0.000997
111 0.000998
117 0.001003
117 0.000998
115 0.000997
119 0.000999
123 0.000998
128 0.000996
133 0.000968
138 0.000989
130 0.000997
82 0.000997
48 0.0
46 0.0
60 0.0
81 0.0
87 0.0
89 0.0
92 0.0
91 0.0
83 0.0
82 0.000997
87 0.000968
94 0.000998
101 0.0
110 0.0
119 0.0
122 0.0
132 0.0
142 0.0
145 0.0
149 0.0
154 0.0
157 0.000997
158 0.000997
155 0.000998
153 0.000997
109 0.0
51 0.0
27 0.001995
40 0.0
54 0.0
67 0.0
72 0.0
93 0.0
94 0.000982
94 0.001029
103 0.002026
103 0.002025
111 0.00096
118 0.0
125 0.0
128 0.003023
130 0.003024
135 0.0
134 0.002992
142 0.0
145 0.000964
146 0.0
154 0.002027
157 0.002028
161 0.001006
169 0.0
168 0.0
122 0.002049
70 0.003028
55 0.000997
70 0.003191
87 0.0
84 0.000966
85 0.0
90 0.003028
91 0.002994
93 0.000963
93 0.0
93 0.0
97 0.002026
108 0.002025
122 0.0
138 0.001993
144 0.000958
154 0.000983
159 0.000972
158 0.002028
161 0.002029
158 0.0
159 0.0
164 0.0
165 0.002006
157 0.001997
91 0.0
52 0.003027
58 0.0
81 0.0
96 0.0
105 0.002048
113 0.002023
121 0.000965
120 0.000998
115 0.0
114 0.002056
112 0.002987
115 0.001017
124 0.003021
129 0.0
135 0.0
137 0.0
136 0.002994
141 0.003023
149 0.0
155 0.0
164 0.0
140 0.002029
86 0.002031
54 0.0
69 0.001993
86 0.001021
87 0.001
84 0.0
88 0.002028
91 0.003029
91 0.001992
85 0.0
87 0.0
90 0.0
102 0.002998
119 0.0
127 0.003
137 0.003007
144 0.0
150 0.0
153 0.001009
160 0.002993
160 0.002993
159 0.003004
161 0.0
159 0.0
145 0.002993
54 0.0
25 0.003961
32 0.002991
51 0.0
68 0.003008
73 0.002985
76 0.00399
84 0.004028
94 0.001009
95 0.0
98 0.001997
102 0.00399
108 0.002992
115 0.002995
118 0.003
122 0.001008
125 0.001994
126 0.002022
129 0.003035
134 0.002996
147 0.002047
152 0.002004
162 0.001991
164 0.003989
166 0.002992
175 0.003989
167 0.004035
94 0.002989
63 0.003949
44 0.002996
53 0.002993
66 0.002993
76 0.002045
73 0.001995
76 0.002993
82 0.004025
83 0.001993
84 0.003987
86 0.003986
100 0.002001
114 0.002008
119 0.002003
129 0.004031
137 0.003994
141 0.002
144 0.002977
145 0.001978
143 0.004022
144 0.002042
143 0.00396
144 0.003995
145 0.003984
85 0.002043
39 0.003189
30 0.002033
48 0.004991
68 0.003989
92 0.001996
98 0.001982
103 0.002994
110 0.003974
100 0.001983
99 0.004954
98 0.005003
100 0.001991
102 0.002992
111 0.002992
115 0.003989
119 0.004022
125 0.003034
131 0.002029
133 0.003005
143 0.00198
149 0.002989
148 0.004987
105 0.004987
43 0.003052
39 0.002006
53 0.001994
68 0.00603
72 0.004988
72 0.00203
71 0.001993
76 0.002992
73 0.002991
73 0.002078
76 0.00502
81 0.005989
95 0.002994
107 0.003024
117 0.002979
125 0.004986
130 0.004988
138 0.001994
143 0.00203
143 0.002987
145 0.002981
145 0.003024
145 0.005984
143 0.006005
101 0.002994
38 0.003007
6 0.00301
12 0.005981
32 0.006016
51 0.002993
60 0.00399
69 0.00297
77 0.00297
79 0.003101
80 0.005982
81 0.005981
87 0.003027
86 0.002992
91 0.003049
95 0.007007
100 0.006026
104 0.00296
108 0.003014
108 0.005986
118 0.003998
123 0.003943
131 0.00396
138 0.006988
148 0.007
153 0.003971
158 0.003969
147 0.003974
86 0.007018
31 0.007018
23 0.003994
38 0.006979
51 0.003046
49 0.003945
53 0.002044
59 0.005928
60 0.006981
58 0.003967
67 0.004022
72 0.003944
79 0.006981
90 0.007016
99 0.00399
110 0.00698
111 0.003024
117 0.003995
117 0.003974
112 0.007986
118 0.007979
118 0.003988
122 0.004988
114 0.00497
69 0.007014
22 0.006982
8 0.00501
35 0.007013
57 0.004026
66 0.004028
75 0.004012
83 0.006933
84 0.006943
79 0.00499
75 0.004033
73 0.005004
79 0.00789
84 0.007981
85 0.00497
93 0.006982
98 0.003961
105 0.003997
105 0.004941
112 0.00798
118 0.008015
122 0.005979
84 0.005963
36 0.005995
15 0.007993
21 0.007991
49 0.005986
62 0.006992
56 0.004987
55 0.00502
54 0.00399
52 0.006985
46 0.006986
47 0.005949
51 0.005985
63 0.005992
73 0.005957
83 0.007977
95 0.007985
101 0.00801
109 0.007984
113 0.004963
116 0.00496
118 0.004953
121 0.008976
120 0.006976
110 0.005939
67 0.005988
12 0.00597
0 0.006984
5 0.006981
26 0.006983
35 0.006951
35 0.003954
43 0.005988
52 0.005025
45 0.00698
47 0.005974
51 0.006955
58 0.006977
61 0.005935
74 0.006947
77 0.004985
82 0.00698
87 0.006974
90 0.006079
95 0.004978
97 0.004986
105 0.006943
114 0.007025
119 0.005977
123 0.005983
137 0.005991
140 0.006026
92 0.005983
41 0.005983
22 0.006961
31 0.005966
51 0.006937
58 0.005984
62 0.007036
62 0.006977
66 0.006985
67 0.005946
65 0.005984
67 0.006017
77 0.005981
85 0.005985
94 0.005986
106 0.006024
112 0.005982
121 0.00605
128 0.006018
129 0.005984
134 0.005985
136 0.006031
135 0.006016
134 0.006022
111 0.00602
61 0.005984
30 0.00598
29 0.005983
45 0.004973
62 0.00498
69 0.004987
71 0.005031
87 0.004983
91 0.004987
85 0.004974
89 0.005977
100 0.004986
108 0.005984
115 0.005948
118 0.004993
121 0.004983
121 0.004997
122 0.004984
124 0.005021
127 0.00502
129 0.004986
134 0.004984
143 0.004975
143 0.004993
102 0.004984
59 0.004991
41 0.005984
61 0.005013
75 0.005052
82 0.004987
82 0.005032
83 0.00502
82 0.004982
81 0.004959
82 0.004991
82 0.005033
84 0.004988
88 0.00497
98 0.004998
111 0.004983
116 0.004979
127 0.004983
139 0.004022
142 0.003998
146 0.003989
152 0.004
154 0.003996
155 0.004994
152 0.005002
153 0.004966
154 0.004987
151 0.004987
107 0.003993
52 0.003985
32 0.004023
38 0.004016
63 0.00396
76 0.003993
83 0.003995
89 0.003991
97 0.003959
99 0.003983
100 0.003971
98 0.00396
98 0.003991
104 0.004028
107 0.004017
108 0.004049
115 0.003952
115 0.00399
117 0.00402
126 0.003955
133 0.003955
140 0.004006
147 0.004956
152 0.003997
159 0.002986
154 0.004049
108 0.003033
69 0.001996
58 0.003024
70 0.004032
89 0.00399
89 0.003988
94 0.003969
93 0.004001
92 0.003018
84 0.002989
87 0.002994
93 0.002996
100 0.003024
112 0.003023
124 0.002998
134 0.003957
140 0.00298
147 0.00395
149 0.011013
152 0.003958
149 0.002987
148 0.002997
114 0.002988
58 0.002992
33 0.003024
35 0.002982
50 0.002993
68 0.003025
75 0.002992
84 0.002994
88 0.00299
91 0.001969
94 0.001974
98 0.001992
101 0.001982
110 0.002018
117 0.002988
122 0.002992
122 0.002992
124 0.002991
122 0.002993
127 0.002993
127 0.002985
133 0.001994
138 0.001964
145 0.002001
149 0.002008
143 0.002057
95 0.002029
54 0.002024
39 0.002027
57 0.002994
76 0.002995
76 0.001953
71 0.001961
72 0.002
78 0.001964
75 0.002003
72 0.001996
77 0.002029
82 0.001996
87 0.002029
99 0.002028
112 0.001996
123 0.000972
128 0.001028
137 0.000962
143 0.002
145 0.002
146 0.002024
146 0.000998
147 0.001976
146 0.000998
147 0.00196
144 0.001962
107 0.002005
28 0.001993
24 0.002009
46 0.001001
66 0.001004
77 0.001027
81 0.00104
89 0.001998
94 0.002028
95 0.002026
96 0.001999
97 0.001996
97 0.002027
104 0.001994
111 0.001961
118 0.000957
118 0.001018
117 0.001001
120 0.000993
125 0.001001
131 0.001995
138 0.000997
143 0.000997
148 0.000998
121 0.001
51 0.0
46 0.0
62 0.0
69 0.0
79 0.000961
84 0.0
86 0.001005
80 0.000998
76 0.000998
73 0.000997
73 0.0
88 0.0
97 0.0
108 0.0
117 0.0
124 0.0
131 0.0
139 0.0
141 0.0
145 0.0
127 0.0
69 0.000997
23 0.0
15 0.0
32 0.0
43 0.0
47 0.0
51 0.002993
59 0.0
65 0.0
65 0.0
72 0.0
76 0.0
84 0.0
95 0.0
106 0.0
111 0.0
110 0.0
109 0.000982
112 0.001007
110 0.000994
113 0.0
113 0.0
