149 0.031914
149 0.0
152 0.0
153 0.0
156 0.0
163 0.000996
166 0.000949
175 0.000974
181 0.0
178 0.0
108 0.0
95 0.0
106 0.0
123 0.0
136 0.0
147 0.0
158 0.0
163 0.0
162 0.0
162 0.0
165 0.0
167 0.0
172 0.0
175 0.0
167 0.0
120 0.0
91 0.0
89 0.0
100 0.0
119 0.000953
132 0.000947
143 0.0
150 0.0
153 0.0
151 0.0
153 0.0
158 0.0
161 0.0
167 0.0
175 0.0
166 0.0
111 0.0
94 0.000956
101 0.0
113 0.0
129 0.0
157 0.0
166 0.0
167 0.0
163 0.0
161 0.0
162 0.0
166 0.0
169 0.000964
170 0.000946
169 0.0
117 0.0
92 0.0
76 0.0
85 0.0
98 0.0
108 0.000969
116 0.0
120 0.0
118 0.0
115 0.001
114 0.000959
118 0.0
123 0.0
126 0.0
126 0.0
99 0.0
52 0.0
45 0.001006
57 0.0
72 0.0
82 0.0
92 0.000965
100 0.0
104 0.0
102 0.0
104 0.0
112 0.0
114 0.0
119 0.0
129 0.0
131 0.000928
85 0.0
50 0.0
43 0.0
51 0.000996
65 0.000998
78 0.0
87 0.0
98 0.0
98 0.0
96 0.0
97 0.001
101 0.0
108 0.0
111 0.0
117 0.0
124 0.00103
128 0.000952
80 0.0
45 0.0
39 0.0
53 0.0
65 0.0
73 0.001995
83 0.000999
92 0.0
91 0.0
91 0.0
95 0.000998
102 0.000998
111 0.0
122 0.000997
131 0.0
138 0.0
145 0.0
141 0.001958
99 0.001995
66 0.000967
61 0.0
69 0.000954
91 0.000965
105 0.00096
116 0.000998
126 0.000997
126 0.0
125 0.0
129 0.0
135 0.001994
142 0.001994
149 0.000953
153 0.000997
158 0.000956
155 0.000965
114 0.000958
74 0.000969
63 0.000942
71 0.000959
84 0.0
92 0.0
97 0.001996
99 0.001953
92 0.000962
92 0.00099
94 0.0
99 0.000996
102 0.000997
107 0.000963
115 0.000995
99 0.0
53 0.0
21 0.001005
17 0.00197
25 0.001956
37 0.001031
46 0.000998
54 0.000998
59 0.001994
61 0.00199
59 0.000945
63 0.001005
67 0.001015
73 0.001976
77 0.001995
84 0.001962
90 0.001953
78 0.001
31 0.000998
0 0.000995
0 0.001961
3 0.001941
15 0.001985
27 0.001032
37 0.00099
43 0.002007
44 0.006981
44 0.001955
48 0.001942
56 0.000953
62 0.000994
69 0.000997
75 0.00294
80 0.001953
87 0.002
83 0.000983
37 0.001959
0 0.001962
0 0.001999
1 0.00196
14 0.001996
24 0.001973
37 0.001042
45 0.00199
49 0.001949
48 0.003021
52 0.001994
63 0.002991
73 0.001961
83 0.001997
94 0.001974
104 0.00196
113 0.002005
120 0.002952
126 0.000997
90 0.000997
48 0.001994
33 0.002974
46 0.002023
64 0.003016
77 0.001994
92 0.001039
101 0.000989
103 0.001993
100 0.002047
104 0.000955
110 0.000997
116 0.001011
123 0.001999
126 0.002994
135 0.003014
139 0.002996
131 0.001986
85 0.002032
46 0.00198
35 0.001982
38 0.002008
46 0.002992
55 0.00295
63 0.002006
72 0.003028
72 0.002989
67 0.002986
70 0.002975
77 0.001987
85 0.002003
92 0.002011
97 0.003008
103 0.001992
112 0.002993
115 0.001992
98 0.001989
49 0.002983
12 0.00299
23 0.002001
35 0.002985
44 0.002992
57 0.001958
65 0.001995
68 0.002986
67 0.003001
68 0.002951
73 0.002965
79 0.002935
86 0.002936
98 0.002995
107 0.003023
115 0.002953
121 0.002986
127 0.001997
94 0.001996
60 0.001999
19 0.003976
20 0.003003
32 0.002951
42 0.002977
50 0.003001
65 0.002986
76 0.003001
75 0.002993
77 0.002992
87 0.002023
95 0.002032
106 0.002954
117 0.003925
125 0.003982
135 0.002925
139 0.002931
147 0.002954
155 0.002949
123 0.002969
66 0.002993
53 0.002974
65 0.002047
79 0.00201
92 0.002991
103 0.003957
112 0.00399
120 0.002939
116 0.002965
117 0.003946
123 0.002984
133 0.002999
142 0.003009
151 0.002995
159 0.002003
165 0.002966
170 0.002999
175 0.003994
171 0.003913
112 0.002978
74 0.002952
62 0.002962
70 0.002992
84 0.003
96 0.002988
106 0.002944
109 0.001998
104 0.002017
99 0.002938
98 0.003963
103 0.003997
112 0.002942
117 0.002954
121 0.002957
129 0.002957
135 0.003
144 0.00299
121 0.002998
58 0.001995
35 0.00296
36 0.002959
47 0.004002
58 0.003943
69 0.002988
78 0.002949
85 0.002958
87 0.003952
85 0.00299
90 0.002985
95 0.003005
104 0.00396
114 0.003046
121 0.00299
127 0.003956
134 0.003952
141 0.002993
143 0.002992
107 0.002923
35 0.003005
28 0.003002
38 0.002977
49 0.002988
57 0.003982
71 0.003028
76 0.019944
85 0.0
139 0.002995
147 0.00402
152 0.003956
142 0.00395
89 0.003987
41 0.002957
36 0.00396
44 0.003944
62 0.003956
71 0.002967
80 0.004985
87 0.003972
89 0.003949
86 0.004022
87 0.003991
98 0.003939
103 0.004956
116 0.002952
124 0.004025
132 0.00399
143 0.00299
148 0.004009
155 0.004997
159 0.003974
136 0.00398
85 0.003933
46 0.002991
46 0.003949
59 0.003941
75 0.002949
86 0.003987
98 0.003948
113 0.002992
113 0.003983
113 0.004999
119 0.003991
133 0.003988
139 0.003982
150 0.003956
161 0.00395
170 0.003933
180 0.002946
186 0.002947
192 0.002964
186 0.004038
135 0.00399
93 0.004986
81 0.005024
92 0.003971
100 0.003972
112 0.003949
124 0.003942
131 0.004952
132 0.002992
127 0.003993
126 0.003964
132 0.003997
138 0.003963
145 0.004958
152 0.004987
157 0.003981
162 0.00405
165 0.003992
170 0.003989
140 0.004987
86 0.004988
53 0.003986
56 0.004001
74 0.004036
83 0.004035
92 0.004986
101 0.003986
106 0.005012
101 0.004029
100 0.003988
103 0.003945
111 0.004949
118 0.004989
128 0.004986
137 0.004008
146 0.003979
150 0.004026
155 0.003998
161 0.005013
146 0.004986
79 0.003028
50 0.003988
47 0.004025
57 0.004987
69 0.004989
79 0.004947
89 0.005019
103 0.004025
103 0.004045
101 0.003987
104 0.004987
111 0.00501
121 0.004039
128 0.004028
135 0.004986
143 0.00594
151 0.004988
157 0.005034
166 0.005017
170 0.004988
145 0.004014
91 0.004001
59 0.005031
55 0.004986
68 0.004033
79 0.004987
87 0.005022
97 0.006007
107 0.006011
110 0.004939
109 0.004986
111 0.004989
121 0.004024
128 0.004023
137 0.005015
148 0.004951
159 0.003992
166 0.005013
174 0.004987
182 0.005968
189 0.006011
181 0.005022
114 0.005012
84 0.005026
83 0.005016
100 0.004021
114 0.005984
126 0.005986
140 0.004042
147 0.004986
147 0.004987
145 0.005984
145 0.005984
150 0.004987
158 0.005018
166 0.005021
172 0.005044
176 0.003989
181 0.004987
186 0.005951
172 0.005003
124 0.004986
81 0.004987
64 0.005984
66 0.00601
81 0.004954
90 0.006011
102 0.004987
105 0.005018
104 0.005026
100 0.004981
100 0.00596
106 0.005014
114 0.005017
121 0.004988
127 0.005984
134 0.006035
144 0.004985
151 0.005984
104 0.005018
72 0.005985
39 0.000962
56 0.002992
63 0.004974
73 0.005028
79 0.005983
79 0.005984
75 0.004985
79 0.005986
87 0.005032
95 0.00595
103 0.005985
111 0.005985
116 0.005981
122 0.006017
129 0.005984
134 0.004964
104 0.006018
54 0.007022
16 0.004998
18 0.006016
30 0.005015
37 0.005014
45 0.00602
53 0.005983
59 0.006017
59 0.005987
56 0.004986
61 0.004985
67 0.005981
75 0.005983
87 0.004986
98 0.006021
108 0.006017
112 0.005984
118 0.00601
124 0.006981
131 0.005981
111 0.005985
60 0.005982
20 0.005983
8 0.006983
16 0.005949
30 0.005984
39 0.005993
56 0.005991
62 0.006031
62 0.006013
60 0.007028
66 0.007009
74 0.005988
85 0.006033
98 0.005983
113 0.005984
124 0.006983
141 0.005986
149 0.007019
161 0.006011
168 0.006018
176 0.006014
154 0.007008
102 0.006982
58 0.006013
57 0.004986
66 0.004986
76 0.00703
87 0.006015
100 0.007016
103 0.006985
94 0.005983
90 0.006011
91 0.006011
95 0.00601
101 0.006942
112 0.005974
118 0.006003
123 0.006983
128 0.007016
135 0.006952
143 0.006022
142 0.006938
100 0.006982
39 0.006011
21 0.006011
25 0.006016
33 0.007014
44 0.006982
55 0.005949
63 0.007025
69 0.00702
68 0.006992
66 0.007009
72 0.006981
80 0.007031
95 0.005983
103 0.00604
112 0.006013
121 0.00701
130 0.007019
137 0.005984
144 0.007019
150 0.006984
155 0.007019
111 0.007023
45 0.007008
23 0.007021
25 0.006018
34 0.005963
42 0.005973
50 0.00702
59 0.007012
66 0.007034
65 0.007021
62 0.007025
65 0.007979
76 0.006985
88 0.006982
100 0.006981
112 0.006051
115 0.006036
122 0.006024
133 0.006982
141 0.006981
151 0.00698
158 0.006982
165 0.006982
155 0.007979
66 0.007008
35 0.006948
32 0.00694
41 0.007023
55 0.006944
64 0.006025
76 0.006965
87 0.00798
95 0.006981
96 0.006982
101 0.007019
111 0.00798
133 0.006983
146 0.00702
159 0.006915
172 0.007026
187 0.006015
197 0.00598
203 0.007021
209 0.007979
218 0.006982
225 0.007012
205 0.006948
133 0.007991
92 0.007014
90 0.023909
92 0.0
122 0.006981
122 0.007979
119 0.007951
111 0.006913
109 0.006982
113 0.006981
124 0.007012
134 0.007015
141 0.007941
146 0.007941
156 0.007011
159 0.00702
165 0.00794
147 0.007978
94 0.00798
41 0.006959
33 0.006982
40 0.006998
57 0.007021
65 0.007021
78 0.007979
83 0.007978
82 0.00703
81 0.007036
83 0.007007
89 0.007978
102 0.007977
112 0.006993
123 0.006946
134 0.006983
147 0.007014
154 0.007017
158 0.007979
166 0.007973
151 0.00596
94 0.007978
60 0.007979
29 0.007979
31 0.007947
41 0.007979
55 0.006983
64 0.006981
79 0.007013
81 0.007016
78 0.007948
79 0.007963
89 0.006949
99 0.007013
106 0.007976
119 0.007974
129 0.007943
143 0.007963
149 0.006944
156 0.00698
167 0.006982
173 0.006946
176 0.007955
115 0.006978
50 0.006978
35 0.00697
37 0.006979
50 0.006974
62 0.007951
75 0.007967
86 0.007043
95 0.006995
94 0.006982
94 0.006979
100 0.007965
111 0.006978
128 0.006961
143 0.006974
159 0.006968
173 0.006973
181 0.007976
199 0.007974
208 0.006994
213 0.006931
228 0.006993
221 0.006974
167 0.007022
112 0.007018
84 0.006983
89 0.006972
102 0.006977
116 0.00698
126 0.006989
139 0.007009
143 0.007004
140 0.007022
138 0.00702
142 0.006976
150 0.00698
160 0.006968
167 0.007003
177 0.006967
182 0.006982
185 0.007014
191 0.006996
197 0.005962
195 0.006983
148 0.006968
61 0.006971
44 0.006966
47 0.006998
57 0.006979
68 0.00698
83 0.006971
92 0.00698
95 0.006942
93 0.006946
91 0.005989
96 0.005987
108 0.00601
122 0.00694
133 0.006972
142 0.006977
151 0.006979
158 0.006961
169 0.006972
176 0.006974
139 0.006954
80 0.006994
39 0.006024
24 0.005987
35 0.005935
51 0.006968
67 0.006961
83 0.007014
96 0.007025
101 0.007027
100 0.006993
103 0.006972
113 0.006972
126 0.006965
139 0.006013
155 0.006026
171 0.005988
184 0.00697
195 0.006977
202 0.006965
192 0.006978
136 0.006973
71 0.006988
57 0.007015
64 0.007013
77 0.006973
92 0.005983
108 0.006018
113 0.005983
109 0.005979
103 0.005976
101 0.006967
107 0.006981
118 0.006975
129 0.006977
135 0.00697
144 0.006972
152 0.006985
159 0.00602
127 0.005977
51 0.005985
15 0.005976
13 0.005986
13 0.025897
24 0.000999
38 0.0
68 0.006978
68 0.006914
68 0.005988
72 0.005957
84 0.00602
100 0.005963
116 0.005994
126 0.005975
136 0.005987
145 0.006018
151 0.007002
131 0.006942
69 0.006971
16 0.005982
0 0.005973
0 0.005968
9 0.006013
23 0.00599
39 0.005954
51 0.005983
57 0.005992
57 0.005948
57 0.00595
69 0.006959
81 0.005982
96 0.00596
111 0.005983
126 0.006017
140 0.006012
156 0.005987
173 0.005964
163 0.005992
104 0.004984
48 0.006024
22 0.005977
27 0.005978
40 0.005983
54 0.005987
67 0.005986
79 0.006012
91 0.005967
93 0.00597
95 0.005988
101 0.005982
112 0.005981
125 0.00598
138 0.005948
153 0.004991
164 0.00498
175 0.00598
184 0.005994
189 0.006008
132 0.006013
54 0.005979
28 0.005977
31 0.005971
41 0.006018
51 0.005993
62 0.005018
76 0.004987
79 0.005013
77 0.004976
76 0.005961
82 0.006022
101 0.006003
113 0.005936
127 0.005973
138 0.005968
149 0.005974
161 0.004994
165 0.004993
100 0.004979
44 0.005024
16 0.004984
15 0.006019
27 0.005993
48 0.005983
62 0.005953
79 0.004982
84 0.005013
85 0.004978
85 0.00499
89 0.004956
103 0.004975
114 0.004967
126 0.004984
140 0.003994
149 0.005005
165 0.005976
174 0.005976
171 0.006014
116 0.004986
57 0.004938
26 0.004979
24 0.004971
42 0.005014
54 0.004986
66 0.004983
81 0.004988
94 0.005033
100 0.005984
100 0.005991
106 0.005005
122 0.004998
136 0.00498
149 0.004964
163 0.004989
174 0.005024
188 0.00499
198 0.004988
206 0.004966
215 0.003978
196 0.004943
131 0.004985
83 0.004962
68 0.004982
78 0.004989
93 0.004982
106 0.004978
119 0.004927
132 0.004968
133 0.004942
128 0.004982
125 0.003987
129 0.004971
136 0.003992
146 0.004978
158 0.004982
163 0.004983
169 0.004964
176 0.004974
183 0.004989
179 0.004963
127 0.004976
68 0.004982
39 0.003989
45 0.004001
59 0.004003
71 0.003989
87 0.004023
97 0.004984
100 0.005035
96 0.004977
95 0.004968
101 0.004976
110 0.004989
120 0.004975
131 0.004038
148 0.003991
157 0.003973
164 0.003969
175 0.003994
176 0.003996
128 0.003969
64 0.004975
27 0.004987
24 0.004987
37 0.004938
51 0.004986
61 0.003982
81 0.003977
88 0.003987
88 0.003979
88 0.003941
88 0.027926
91 0.0
99 0.0
136 0.004977
146 0.004978
155 0.003984
170 0.004017
178 0.003989
152 0.003976
85 0.003995
24 0.003986
14 0.00399
25 0.003969
39 0.003969
52 0.00398
66 0.004981
76 0.003984
80 0.003984
76 0.003963
78 0.003935
86 0.003993
95 0.003956
111 0.004018
124 0.004039
137 0.004017
149 0.004031
161 0.004021
172 0.003018
183 0.004025
160 0.003991
57 0.004028
28 0.004016
28 0.004017
41 0.004026
61 0.003991
74 0.004016
86 0.004018
96 0.003032
96 0.003019
91 0.002992
94 0.003016
100 0.003989
117 0.003989
127 0.004044
137 0.004025
144 0.00404
151 0.00399
157 0.00399
155 0.004017
100 0.003017
38 0.002996
1 0.003028
4 0.003018
16 0.003021
40 0.004054
53 0.003987
64 0.00403
66 0.003951
61 0.004019
62 0.004019
66 0.004016
74 0.003016
84 0.003021
99 0.003026
108 0.00303
118 0.002991
136 0.002953
129 0.002952
72 0.004036
13 0.004026
0 0.003989
0 0.002992
0 0.002991
11 0.00302
23 0.003022
40 0.002992
46 0.003019
47 0.002992
46 0.002993
54 0.002993
65 0.004017
77 0.004037
95 0.00402
106 0.002991
117 0.003024
127 0.003027
138 0.00299
121 0.003019
57 0.002991
1 0.002992
53 0.002992
59 0.002993
66 0.003016
72 0.004034
79 0.003021
87 0.00302
89 0.002981
88 0.002992
89 0.002991
92 0.002992
98 0.002948
104 0.002991
114 0.002947
120 0.003027
124 0.002992
129 0.00299
134 0.002997
138 0.003015
120 0.003019
86 0.00303
62 0.002963
55 0.002993
62 0.002992
69 0.002991
80 0.002992
85 0.002992
89 0.00203
89 0.00202
88 0.001995
90 0.003017
95 0.002991
101 0.002992
108 0.002988
115 0.002992
124 0.002989
129 0.002992
134 0.002991
139 0.002992
141 0.002031
123 0.001995
88 0.002992
60 0.003024
58 0.003018
64 0.002992
71 0.002993
79 0.002992
88 0.003021
95 0.002039
95 0.001999
96 0.001995
99 0.00204
105 0.001991
112 0.001968
123 0.002993
130 0.002992
137 0.002993
142 0.002992
148 0.002992
154 0.002991
161 0.002993
147 0.001994
112 0.001995
86 0.001995
77 0.001999
82 0.002991
93 0.002965
101 0.00295
110 0.002991
116 0.002992
118 0.002991
114 0.002991
115 0.002025
119 0.001995
124 0.001996
130 0.001995
135 0.001996
140 0.001994
146 0.001992
150 0.002031
154 0.002992
148 0.003044
115 0.002992
77 0.00199
69 0.001995
77 0.001995
85 0.001997
92 0.002021
99 0.002031
104 0.001996
103 0.002024
101 0.001997
103 0.001996
106 0.000997
112 0.001994
121 0.001994
129 0.002029
135 0.001995
141 0.001997
146 0.002023
149 0.002036
127 0.001995
80 0.001998
63 0.001029
62 0.002046
68 0.002992
76 0.000997
86 0.002028
95 0.001997
101 0.001996
101 0.002023
100 0.001996
103 0.002029
108 0.001995
117 0.001995
123 0.001996
130 0.001998
135 0.002018
141 0.000999
147 0.001995
153 0.001995
126 0.001995
90 0.001969
43 0.001956
37 0.001995
45 0.002026
62 0.00196
74 0.001995
84 0.002017
95 0.000998
102 0.000997
102 0.000999
106 0.001996
116 0.002028
127 0.001994
138 0.001996
147 0.002037
157 0.001996
170 0.001996
176 0.000999
183 0.000997
191 0.000997
197 0.000999
134 0.000999
88 0.001035
67 0.001991
73 0.001996
87 0.001994
100 0.001965
110 0.001995
123 0.001994
125 0.000998
121 0.000994
117 0.000997
118 0.000999
128 0.000998
136 0.000999
147 0.000991
153 0.001997
159 0.001995
165 0.001996
172 0.001956
156 0.000998
106 0.001017
65 0.000999
47 0.000998
50 0.000997
71 0.000999
83 0.000998
98 0.000998
104 0.000998
105 0.001996
103 0.001996
102 0.000998
109 0.000998
118 0.001
129 0.000997
137 0.000998
146 0.000998
158 0.0
166 0.000997
174 0.000998
165 0.000997
113 0.000965
66 0.001995
44 0.000998
44 0.000997
60 0.000998
72 0.000997
83 0.000998
93 0.000998
101 0.000999
102 0.000991
101 0.000996
108 0.000998
118 0.000998
128 0.0
138 0.000971
148 0.000997
157 0.000997
164 0.000997
173 0.000989
171 0.001002
90 0.001001
52 0.000998
41 0.000998
51 0.000998
62 0.000998
74 0.000998
86 0.0
97 0.000997
101 0.000993
100 0.000992
100 0.000998
106 0.000999
118 0.0
128 0.000998
137 0.00097
150 0.0
159 0.0
144 0.0
93 0.0
52 0.0
36 0.000998
45 0.000999
59 0.000997
72 0.000997
94 0.0
100 0.0
102 0.000969
102 0.00903
111 0.0
121 0.0
131 0.0
145 0.000999
156 0.000997
159 0.000998
120 0.000998
50 0.0
41 0.0
50 0.0
70 0.0
84 0.0
97 0.0
106 0.0
107 0.0
104 0.0
105 0.000999
111 0.000998
121 0.000998
139 0.0
150 0.0
161 0.0
175 0.0
148 0.0
95 0.0
59 0.0
51 0.0
66 0.0
82 0.000997
96 0.0
116 0.0
119 0.0
117 0.0
115 0.0
121 0.0
130 0.0
138 0.0
148 0.0
157 0.0
171 0.0
170 0.0
126 0.0
50 0.0
40 0.0
49 0.0
62 0.0
81 0.0
92 0.0
96 0.0
95 0.0
92 0.0
94 0.0
102 0.0
109 0.000959
126 0.0
136 0.0
146 0.0
142 0.0
77 0.0
34 0.0
19 0.0
24 0.0
38 0.0
53 0.0
66 0.0
77 0.000988
79 0.0
79 0.000963
84 0.000971
90 0.0
102 0.0
113 0.000932
126 0.0
135 0.0
145 0.0
147 0.000998
108 0.001995
52 0.000966
15 0.0
21 0.0
33 0.000999
48 0.0
58 0.000947
69 0.000989
75 0.0
75 0.0
77 0.0
83 0.000955
93 0.000942
108 0.000971
124 0.000969
138 0.0
143 0.0
153 0.0
163 0.000992
168 0.000983
114 0.0
59 0.0
33 0.0
33 0.000946
46 0.000984
64 0.0
80 0.000964
93 0.0
97 0.000978
97 0.001002
98 0.000987
103 0.000998
116 0.0
127 0.0
140 0.0
151 0.000963
161 0.000985
172 0.0
181 0.001988
187 0.000959
193 0.000974
172 0.000987
91 0.001005
50 0.000963
41 0.0
53 0.0
66 0.0
76 0.000992
87 0.000998
95 0.0
92 0.000954
90 0.000996
96 0.0
106 0.000955
117 0.000999
128 0.001001
138 0.000949
149 0.0
157 0.0
165 0.0
174 0.000985
153 0.000989
60 0.000953
32 0.000965
35 0.0
48 0.0
56 0.00094
71 0.00196
83 0.002022
92 0.0
92 0.0
91 0.0
95 0.000993
109 0.0
119 0.000969
132 0.000951
147 0.0
158 0.0
165 0.0
174 0.001953
182 0.001961
191 0.0
170 0.0
107 0.0
56 0.000997
35 0.000958
49 0.001989
63 0.002032
77 0.0
84 0.002991
95 0.000953
97 0.001998
96 0.001944
97 0.0
105 0.0
115 0.000986
126 0.001038
147 0.000997
157 0.001996
167 0.001996
177 0.000964
184 0.000969
191 0.000955
200 0.001955
200 0.002
130 0.00102
74 0.000981
48 0.000995
48 0.000993
72 0.000967
85 0.001007
97 0.001995
109 0.000978
112 0.000998
113 0.000965
113 0.001944
119 0.00196
132 0.001008
144 0.001
156 0.000994
169 0.000956
187 0.0
196 0.001947
205 0.001962
215 0.000963
223 0.000971
174 0.000971
197 0.001991
131 0.001967
78 0.0
71 0.0
81 0.000992
98 0.002001
120 0.000996
132 0.001995
135 0.001958
129 0.001002
125 0.000972
126 0.000999
132 0.001969
141 0.001957
155 0.001003
165 0.0
174 0.000992
182 0.002936
194 0.000998
201 0.001997
195 0.00196
118 0.000962
66 0.000958
45 0.00196
47 0.001993
61 0.001957
80 0.000958
94 0.002039
106 0.001002
112 0.00197
108 0.000974
106 0.001964
110 0.001941
123 0.000977
135 0.000991
146 0.000971
158 0.00196
169 0.001981
181 0.001
189 0.000969
198 0.001955
181 0.00197
76 0.00098
41 0.002965
35 0.001957
50 0.000985
64 0.000994
77 0.001001
91 0.001999
100 0.001981
104 0.001001
102 0.000997
102 0.001957
115 0.002036
125 0.000998
139 0.002942
152 0.003035
165 0.001022
176 0.001016
186 0.001023
195 0.001981
202 0.001982
147 0.001961
80 0.001962
42 0.002008
39 0.001051
52 0.000999
68 0.002959
82 0.002956
98 0.000993
104 0.000987
104 0.000997
102 0.001991
104 0.001972
115 0.001
129 0.002005
142 0.001994
164 0.000973
176 0.000953
189 0.002948
199 0.002986
212 0.000992
218 0.001001
168 0.001
98 0.001996
58 0.002036
50 0.001003
62 0.00201
80 0.001964
105 0.001969
118 0.001959
122 0.002981
119 0.002983
114 0.002003
114 0.000934
120 0.000998
128 0.002973
138 0.003022
148 0.00302
160 0.002007
170 0.001995
185 0.001995
165 0.001961
99 0.001039
47 0.002997
26 0.002995
32 0.001944
47 0.001002
63 0.00098
79 0.004006
93 0.002983
99 0.001985
97 0.002008
96 0.002034
102 0.001995
112 0.003007
124 0.003984
138 0.003004
152 0.00201
163 0.001013
174 0.002033
183 0.004005
168 0.00399
78 0.002005
30 0.001992
18 0.002003
30 0.001963
46 0.002028
61 0.002987
74 0.002986
77 0.019947
84 0.0
87 0.0
84 0.003989
90 0.003978
104 0.001968
116 0.001993
135 0.001997
147 0.002004
156 0.001964
168 0.003952
167 0.002998
89 0.001994
33 0.002956
8 0.003035
9 0.004048
23 0.00399
42 0.001995
55 0.001961
72 0.002021
75 0.001978
73 0.002963
72 0.003988
77 0.002997
91 0.003027
102 0.003029
114 0.003025
124 0.00399
135 0.00399
149 0.002013
158 0.001991
88 0.001988
31 0.002956
3 0.002984
1 0.003991
14 0.00399
34 0.002986
47 0.003024
59 0.002991
67 0.004023
70 0.003989
70 0.003009
77 0.005029
92 0.001947
105 0.003022
118 0.003001
130 0.00399
141 0.003991
155 0.00299
166 0.002998
167 0.00302
119 0.004026
57 0.004027
16 0.003018
22 0.004986
43 0.002989
57 0.003019
69 0.00301
79 0.003989
84 0.00399
80 0.003004
79 0.00299
84 0.002993
93 0.004016
103 0.00399
116 0.002991
127 0.005014
139 0.002994
147 0.00299
150 0.002991
111 0.004986
48 0.004032
2 0.002992
65 0.002965
70 0.002989
78 0.003988
83 0.003989
92 0.00203
96 0.004021
95 0.003024
96 0.003989
99 0.002995
104 0.004986
111 0.005014
119 0.002992
125 0.002999
129 0.002961
134 0.003994
139 0.00403
144 0.003002
118 0.005022
79 0.003988
67 0.00399
67 0.002988
72 0.004986
77 0.004986
84 0.00299
90 0.002999
94 0.003005
96 0.00399
97 0.004047
99 0.002991
105 0.00496
113 0.003996
120 0.004031
126 0.004036
131 0.004986
135 0.005018
140 0.00402
144 0.003987
148 0.002995
149 0.004036
131 0.004987
89 0.003993
72 0.004987
76 0.003997
83 0.003997
89 0.00399
95 0.00396
101 0.005024
107 0.003
108 0.002986
109 0.002993
112 0.003987
116 0.004031
125 0.003974
134 0.004989
143 0.00401
149 0.003962
153 0.00299
157 0.004985
161 0.004987
165 0.004991
170 0.003041
158 0.003988
126 0.002996
100 0.005023
89 0.005013
93 0.004989
99 0.004986
105 0.003963
110 0.003992
113 0.003991
113 0.004988
111 0.005984
112 0.002993
115 0.002997
120 0.003957
126 0.005951
135 0.003945
140 0.00499
145 0.004982
150 0.003957
154 0.002983
147 0.00395
117 0.00498
89 0.00498
76 0.002996
79 0.002986
85 0.004984
91 0.006002
100 0.003956
106 0.004946
108 0.004988
108 0.003948
109 0.003991
113 0.00399
118 0.005005
125 0.001996
134 0.003995
140 0.004021
146 0.004984
150 0.00601
158 0.003952
163 0.005955
168 0.005964
147 0.00396
113 0.003987
90 0.004995
84 0.004981
88 0.004966
98 0.004992
104 0.005022
110 0.004993
116 0.005977
120 0.004945
120 0.005981
120 0.00598
126 0.00396
132 0.003981
139 0.004939
145 0.004979
152 0.006014
159 0.004983
164 0.004977
168 0.004971
189 0.006019
192 0.004949
155 0.006983
108 0.005984
75 0.003946
73 0.004949
81 0.00495
91 0.005976
98 0.005949
109 0.004994
114 0.004974
113 0.004935
110 0.005968
112 0.004021
118 0.00601
127 0.006942
138 0.003992
146 0.004958
153 0.004993
161 0.006018
167 0.006005
175 0.004987
159 0.004979
112 0.005003
73 0.005969
56 0.004961
64 0.007018
75 0.006953
85 0.005935
93 0.004938
101 0.004996
103 0.006985
103 0.006948
104 0.004953
109 0.004976
117 0.004986
126 0.006983
143 0.00595
152 0.005989
158 0.006968
166 0.005977
173 0.004996
180 0.00494
177 0.006949
134 0.006009
74 0.004979
57 0.004934
58 0.004951
68 0.005954
84 0.004995
93 0.006947
101 0.006983
108 0.004987
109 0.004957
110 0.004949
114 0.006977
122 0.007018
135 0.004983
145 0.004985
156 0.004979
166 0.00598
179 0.00599
186 0.006973
191 0.006918
202 0.006014
195 0.004982
144 0.004951
98 0.006999
76 0.006979
76 0.004998
88 0.004988
99 0.005016
114 0.00593
121 0.005946
123 0.021916
122 0.000957
121 0.001995
130 0.000998
138 0.006987
147 0.006982
158 0.004973
165 0.004931
172 0.00497
184 0.004951
184 0.005982
144 0.006945
94 0.006993
62 0.004986
61 0.005943
71 0.005985
82 0.006974
92 0.006992
105 0.004965
111 0.004967
110 0.005013
109 0.005985
112 0.005999
119 0.006978
128 0.006941
140 0.005986
149 0.005984
158 0.005984
165 0.006984
173 0.006977
182 0.00494
152 0.005028
98 0.004993
54 0.005949
54 0.005958
64 0.005957
74 0.006948
83 0.00693
95 0.005956
101 0.00594
103 0.005995
103 0.006985
103 0.007008
109 0.004977
118 0.004975
134 0.00598
144 0.005948
153 0.005947
161 0.006946
168 0.006943
180 0.006009
165 0.005956
112 0.005988
71 0.006983
54 0.006967
58 0.005973
70 0.005978
88 0.006001
99 0.00596
108 0.006955
111 0.006946
111 0.006919
113 0.005944
117 0.005961
126 0.005983
137 0.00691
147 0.006951
159 0.005979
168 0.005981
183 0.005921
192 0.005943
175 0.005956
122 0.00794
82 0.006982
66 0.005992
72 0.006981
85 0.005991
97 0.007014
107 0.007979
119 0.006976
120 0.007007
115 0.006981
115 0.005957
120 0.005985
127 0.007979
135 0.00798
146 0.005977
154 0.006952
162 0.005977
168 0.007979
142 0.007947
83 0.006977
59 0.006982
61 0.006984
72 0.005984
84 0.005992
100 0.007951
108 0.007017
110 0.005943
108 0.006997
107 0.005968
112 0.00796
121 0.007973
128 0.006991
140 0.007981
152 0.006955
161 0.005961
165 0.005935
110 0.007008
66 0.007008
43 0.006981
40 0.006989
48 0.006957
58 0.007979
66 0.007978
78 0.006995
89 0.007981
92 0.006948
93 0.005984
97 0.005984
106 0.007031
112 0.008007
129 0.006943
135 0.006945
144 0.006981
154 0.007955
163 0.007974
125 0.006987
62 0.007954
37 0.006994
43 0.006953
53 0.006956
61 0.006977
71 0.007007
81 0.006955
88 0.006975
92 0.006986
93 0.00798
96 0.00798
104 0.007014
122 0.007995
137 0.006977
144 0.007014
153 0.007017
165 0.006988
173 0.006972
182 0.006937
164 0.006972
108 0.006984
69 0.007009
57 0.007978
58 0.006953
76 0.007975
88 0.006986
98 0.006985
107 0.00697
110 0.007009
110 0.006979
111 0.006981
116 0.006955
124 0.00698
137 0.007014
148 0.006982
158 0.006983
172 0.007949
181 0.007008
189 0.007007
195 0.007022
169 0.007012
117 0.006988
76 0.006984
71 0.006944
78 0.006951
89 0.007015
100 0.007032
109 0.006987
122 0.006955
120 0.006942
119 0.006984
121 0.007007
127 0.006988
135 0.007007
148 0.006984
156 0.006985
164 0.007004
171 0.007012
179 0.006981
189 0.006947
157 0.007977
109 0.006962
76 0.00698
75 0.006985
84 0.007007
95 0.007009
108 0.00698
117 0.006997
124 0.006979
126 0.006971
125 0.00701
126 0.006978
133 0.005999
145 0.006983
153 0.006985
162 0.006982
170 0.007036
177 0.006959
183 0.007009
191 0.007008
197 0.006984
197 0.006957
155 0.007012
109 0.006984
81 0.005984
87 0.006022
101 0.005959
110 0.007023
118 0.006985
126 0.007016
131 0.007006
131 0.007029
130 0.007014
132 0.006983
138 0.007008
152 0.005987
161 0.005985
169 0.005952
180 0.005977
187 0.006985
193 0.007007
199 0.007008
206 0.007017
195 0.007014
144 0.006997
129 0.009974
107 0.000958
104 0.00599
116 0.005993
126 0.005987
138 0.006022
145 0.005988
147 0.006984
145 0.007026
143 0.007023
147 0.005958
153 0.006978
161 0.006984
169 0.006986
181 0.006007
188 0.005989
194 0.005988
203 0.006011
207 0.005985
190 0.005985
141 0.007023
105 0.005946
91 0.00599
98 0.007003
108 0.006005
118 0.005987
134 0.006033
139 0.006012
140 0.00601
135 0.005988
133 0.006011
137 0.006019
143 0.005984
150 0.006956
159 0.006985
166 0.006029
173 0.006022
179 0.006025
188 0.005985
157 0.005983
108 0.006024
77 0.005987
77 0.006004
86 0.004977
97 0.005982
107 0.004989
119 0.005968
126 0.00702
128 0.005981
126 0.005958
125 0.005961
130 0.005985
137 0.006016
147 0.005957
155 0.005991
162 0.004964
168 0.004976
175 0.004987
184 0.004968
167 0.004991
115 0.00601
79 0.006024
69 0.005944
79 0.005987
89 0.006011
102 0.006001
110 0.004995
117 0.004991
120 0.004981
118 0.004963
117 0.005984
121 0.005984
127 0.006022
134 0.006019
147 0.005985
155 0.00597
161 0.005983
171 0.005956
177 0.004959
151 0.00499
99 0.004945
70 0.004957
63 0.004994
73 0.005012
86 0.005983
97 0.005985
113 0.005964
119 0.005984
120 0.00496
117 0.004992
118 0.00601
123 0.005026
130 0.005014
138 0.004963
149 0.004988
157 0.004987
164 0.005014
179 0.005995
172 0.006002
122 0.004993
83 0.005936
69 0.004989
75 0.005022
87 0.005001
99 0.005014
110 0.005019
122 0.005013
126 0.005015
123 0.005009
120 0.004987
123 0.004987
129 0.005974
136 0.006
145 0.004996
152 0.004991
159 0.004993
167 0.004979
160 0.005039
101 0.00499
71 0.005984
62 0.005022
76 0.005011
86 0.004959
96 0.00499
106 0.004997
112 0.00496
109 0.004991
106 0.00499
105 0.005014
109 0.004016
117 0.00499
123 0.004986
130 0.005009
142 0.003988
149 0.004961
136 0.005018
89 0.005035
48 0.00502
43 0.004994
50 0.004987
60 0.00499
70 0.004979
81 0.004985
88 0.005024
92 0.004981
89 0.003989
90 0.004991
95 0.004015
101 0.004988
112 0.004988
119 0.00503
126 0.005018
134 0.00496
142 0.005015
128 0.004989
67 0.005021
39 0.005018
37 0.003975
47 0.003993
57 0.003993
65 0.003994
74 0.004024
84 0.005015
86 0.005014
85 0.003984
87 0.004985
92 0.003989
103 0.004987
111 0.004986
125 0.00399
134 0.003993
142 0.003963
151 0.004022
134 0.004031
72 0.004992
47 0.004987
43 0.004984
51 0.004989
64 0.00398
78 0.004018
87 0.003985
97 0.004017
96 0.004017
95 0.00399
96 0.004016
102 0.003967
110 0.003996
118 0.004991
126 0.00499
133 0.004985
141 0.004987
150 0.00498
130 0.003986
59 0.003989
43 0.003993
45 0.003989
56 0.004022
66 0.004007
79 0.004024
89 0.004017
93 0.004987
92 0.004017
90 0.003994
92 0.004981
98 0.004953
112 0.003994
120 0.004025
127 0.003987
135 0.004023
142 0.003963
147 0.002993
114 0.002992
67 0.002957
40 0.003989
36 0.003995
46 0.004937
59 0.00399
70 0.003988
78 0.004018
83 0.003989
83 0.003988
82 0.002991
86 0.002997
93 0.002959
100 0.002962
109 0.003995
117 0.003997
125 0.003994
135 0.004014
145 0.003993
132 0.003994
86 0.00399
49 0.003954
35 0.003929
40 0.00394
51 0.002989
60 0.002993
68 0.002969
77 0.002995
86 0.003965
86 0.003996
90 0.004015
95 0.003963
103 0.003964
113 0.003994
122 0.002963
134 0.002952
142 0.002991
148 0.003019
154 0.002943
161 0.002961
170 0.003005
146 0.003993
87 0.004016
64 0.002957
63 0.003953
73 0.003946
84 0.002992
95 0.002998
103 0.002993
111 0.002946
113 0.002992
111 0.003017
112 0.002993
120 0.003989
132 0.003988
141 0.00299
150 0.002957
157 0.002991
164 0.002997
172 0.003
178 0.002992
184 0.00299
176 0.002999
137 0.002992
91 0.00399
81 0.003958
93 0.003997
103 0.002941
111 0.00299
120 0.003948
126 0.002954
124 0.002958
122 0.002957
122 0.003015
126 0.002992
134 0.00299
145 0.002951
155 0.003021
163 0.003974
169 0.002991
176 0.002983
174 0.002994
141 0.002992
92 0.002959
79 0.002992
81 0.002992
91 0.002991
101 0.002996
109 0.002982
120 0.00299
126 0.00399
125 0.002024
124 0.003045
128 0.002953
134 0.002967
145 0.002941
152 0.002996
160 0.003019
167 0.00302
172 0.002995
178 0.002953
185 0.003991
180 0.002992
140 0.003987
102 0.001994
86 0.002992
87 0.00299
98 0.003021
106 0.002994
106 0.028919
109 0.0
124 0.002959
128 0.002945
127 0.002039
131 0.00295
137 0.001994
144 0.002024
151 0.002029
159 0.003028
168 0.003029
173 0.002992
179 0.00302
183 0.002985
186 0.002986
195 0.001987
198 0.00195
174 0.001992
119 0.002035
99 0.001991
98 0.001996
105 0.001995
114 0.002992
122 0.002998
128 0.003002
134 0.002992
138 0.002978
137 0.001993
139 0.002033
144 0.001994
152 0.001995
160 0.001996
167 0.001994
174 0.001993
180 0.00201
188 0.003031
192 0.003009
196 0.001997
200 0.002031
208 0.00199
211 0.002996
188 0.001994
137 0.001976
117 0.001986
115 0.00202
122 0.002022
130 0.002003
139 0.001953
144 0.003026
150 0.002
153 0.002008
151 0.001994
151 0.001994
155 0.001995
164 0.001994
170 0.001995
176 0.002031
183 0.002024
189 0.001963
196 0.002006
200 0.001962
204 0.001994
208 0.002038
216 0.002005
207 0.001997
170 0.001995
130 0.001993
121 0.001993
125 0.002021
133 0.00202
141 0.001987
149 0.002014
154 0.002025
158 0.001959
158 0.001998
155 0.001994
157 0.002
163 0.001994
171 0.000993
177 0.002037
184 0.001995
190 0.001995
195 0.001028
200 0.000997
205 0.001031
209 0.001994
213 0.002022
177 0.001994
141 0.001994
122 0.001996
121 0.001995
128 0.001991
137 0.001937
144 0.00095
151 0.001025
158 0.001031
158 0.001028
154 0.000998
154 0.000996
159 0.002029
164 0.002024
171 0.001997
179 0.002001
186 0.001983
191 0.001002
196 0.000995
200 0.000996
207 0.000997
209 0.000998
181 0.000996
143 0.002015
114 0.001994
119 0.00201
128 0.001987
140 0.001967
147 0.00098
154 0.000995
158 0.000966
158 0.00097
155 0.000996
156 0.000999
160 0.001024
169 0.000962
176 0.000997
182 0.000995
187 0.000997
195 0.002029
200 0.00196
204 0.001988
186 0.001039
149 0.001023
115 0.000998
111 0.000995
117 0.001024
131 0.00099
139 0.000975
146 0.002
151 0.000996
148 0.000998
145 0.000996
144 0.000991
147 0.000979
153 0.001028
160 0.000996
165 0.000997
171 0.000995
181 0.000987
178 0.001999
145 0.0
109 0.000998
89 0.000997
91 0.001037
99 0.001036
108 0.001026
115 0.000996
125 0.000998
130 0.000998
129 0.002025
127 0.000993
129 0.00202
134 0.0
141 0.000998
149 0.001993
155 0.000951
160 0.001007
167 0.000997
169 0.000996
127 0.00099
90 0.000999
72 0.001031
77 0.00097
85 0.0
93 0.000974
100 0.0
108 0.0
112 0.0
111 0.000978
110 0.000998
112 0.001
119 0.000996
126 0.000998
132 0.000996
143 0.000998
150 0.0
158 0.0
155 0.0
107 0.000945
75 0.0
61 0.0
63 0.000999
72 0.000994
80 0.000995
89 0.000998
96 0.00097
101 0.000973
101 0.0
101 0.000971
104 0.0
110 0.0
120 0.0
127 0.000984
134 0.000968
140 0.000997
148 0.00098
156 0.000999
156 0.00099
96 0.000998
67 0.0
58 0.0
63 0.0
74 0.0
86 0.0
94 0.0
102 0.0
106 0.0
106 0.001004
107 0.000997
110 0.00096
121 0.000997
129 0.0
136 0.0
144 0.0
151 0.0
159 0.0
166 0.0
150 0.0
111 0.0
80 0.0
69 0.0
77 0.0
95 0.000997
104 0.0
112 0.0
117 0.0
118 0.0
116 0.0
118 0.001012
123 0.0
131 0.000967
138 0.0
148 0.001004
158 0.000998
167 0.0
173 0.0
154 0.0
116 0.0
88 0.0
79 0.0
88 0.0
99 0.0
108 0.0
120 0.0
129 0.000999
128 0.0
126 0.000997
127 0.0
133 0.0
139 0.0
146 0.001
156 0.001014
163 0.0
169 0.0
166 0.0
137 0.0
96 0.001
85 0.0
93 0.001024
103 0.0
113 0.0
123 0.001001
130 0.0
128 0.000994
124 0.0
124 0.0
126 0.000995
133 0.000961
143 0.000997
153 0.000998
159 0.000998
139 0.0
105 0.0
81 0.0
74 0.000958
78 0.001033
81 0.000948
85 0.000988
95 0.000957
104 0.000962
106 0.000968
106 0.0
110 0.002029
115 0.000998
122 0.0
131 0.000996
140 0.000955
131 0.00199
96 0.001054
65 0.001032
49 0.0
52 0.000966
64 0.000999
78 0.000997
87 0.0
94 0.002032
97 0.0
96 0.0
100 0.0
105 0.002024
113 0.002026
123 0.0
132 0.0
141 0.0
143 0.002022
86 0.0
52 0.002029
38 0.002
42 0.0
49 0.000965
56 0.000984
63 0.00097
74 0.000992
82 0.000969
87 0.000971
87 0.0
91 0.001966
102 0.0
111 0.002023
120 0.002026
131 0.0
139 0.00099
146 0.000998
139 0.000954
99 0.001033
51 0.000965
39 0.000965
42 0.0
50 0.000971
55 0.000963
67 0.0
80 0.002027
88 0.0
89 0.000994
92 0.000969
97 0.002031
104 0.000998
113 0.000963
125 0.0
134 0.000996
148 0.0
155 0.0
160 0.001995
166 0.003
174 0.0
164 0.0
123 0.0
86 0.00197
72 0.001995
79 0.000961
88 0.000997
94 0.000997
104 0.000999
114 0.0
120 0.002032
121 0.00204
121 0.002021
126 0.0
133 0.0
141 0.000997
150 0.001993
157 0.001966
164 0.000963
172 0.000969
180 0.000961
185 0.0
189 0.000964
195 0.002002
191 0.00199
146 0.000997
117 0.000997
109 0.000999
114 0.001996
124 0.001998
134 0.000963
139 0.0
147 0.000998
152 0.000993
152 0.000968
150 0.001995
153 0.001003
160 0.0
167 0.0
173 0.0
179 0.00202
184 0.002024
190 0.000965
194 0.000994
201 0.0
205 0.0
207 0.000968
184 0.001952
153 0.001997
135 0.0
139 0.001005
148 0.001032
157 0.002008
163 0.00195
169 0.000971
173 0.000962
175 0.0
174 0.0
174 0.000992
178 0.001997
183 0.001995
189 0.0
194 0.000953
199 0.000964
203 0.002027
207 0.002038
210 0.000996
215 0.000962
207 0.0
177 0.0
158 0.000956
155 0.002051
161 0.00203
172 0.0
179 0.000969
184 0.0
189 0.002021
191 0.002034
188 0.000958
185 0.0
187 0.0
191 0.001981
195 0.000971
197 0.001994
200 0.001994
205 0.0
208 0.0
207 0.0
184 0.001995
160 0.002029
151 0.0
153 0.000973
168 0.001987
174 0.001968
178 0.002042
182 0.002019
183 0.002026
180 0.000997
179 0.0
180 0.000962
183 0.002024
186 0.003026
223 0.001993
227 0.001014
236 0.000972
239 0.0
222 0.001993
179 0.003019
150 0.002021
149 0.0
160 0.000986
172 0.0
181 0.002005
186 0.002991
192 0.001982
194 0.002032
192 0.002024
191 0.001982
192 0.002004
196 0.003019
202 0.003037
208 0.001994
211 0.000992
217 0.001967
222 0.003028
226 0.002991
204 0.000998
148 0.002993
130 0.001993
138 0.001988
151 0.002006
163 0.003021
169 0.003014
177 0.001955
182 0.002018
181 0.002991
179 0.001994
177 0.003027
180 0.002028
186 0.003027
193 0.000995
199 0.000968
203 0.001996
208 0.002992
213 0.003019
217 0.002959
190 0.002986
146 0.002991
122 0.002991
123 0.00303
139 0.001941
158 0.002991
166 0.002994
170 0.0
177 0.002003
174 0.003018
170 0.003019
170 0.002006
174 0.001961
177 0.001954
183 0.004021
188 0.003044
193 0.002
200 0.002987
203 0.000931
170 0.000999
130 0.000997
111 0.00302
112 0.002981
129 0.001994
141 0.001965
151 0.002
160 0.004017
164 0.003999
161 0.002964
154 0.003023
155 0.001994
158 0.001024
162 0.001
165 0.000955
171 0.002992
176 0.00399
180 0.002006
157 0.001994
115 0.001998
90 0.003988
88 0.003988
107 0.002991
120 0.002991
131 0.000996
137 0.002001
141 0.000994
140 0.002992
134 0.003966
135 0.001995
139 0.002014
142 0.001985
147 0.003985
152 0.003988
162 0.002992
164 0.002992
119 0.001034
80 0.001031
65 0.000993
69 0.003963
80 0.003991
96 0.001966
104 0.001975
111 0.002002
116 0.004022
117 0.003991
113 0.004024
113 0.004029
120 0.001002
125 0.001026
131 0.000998
136 0.003983
142 0.003956
149 0.001987
129 0.001995
82 0.001974
52 0.003934
52 0.002003
65 0.003995
75 0.00493
86 0.001994
95 0.000999
100 0.001995
100 0.003981
96 0.003955
97 0.002009
101 0.002001
108 0.002005
114 0.003989
125 0.002
132 0.003993
139 0.003967
140 0.001971
97 0.001995
55 0.001973
38 0.003975
40 0.003961
56 0.00199
70 0.00199
80 0.001995
89 0.003971
95 0.002013
92 0.003982
89 0.003982
93 0.001995
99 0.002972
105 0.002961
112 0.003957
119 0.003956
129 0.001966
136 0.003009
131 0.002995
88 0.003983
37 0.001993
35 0.003965
45 0.003985
63 0.00298
72 0.002991
83 0.002968
89 0.003998
88 0.003956
80 0.002962
80 0.00196
84 0.002963
90 0.003981
100 0.001996
107 0.00399
115 0.004985
122 0.002997
100 0.002994
54 0.002984
23 0.00502
15 0.004957
26 0.001994
39 0.001988
50 0.001958
60 0.004951
70 0.001989
68 0.003985
64 0.004988
66 0.002984
71 0.002987
79 0.002947
86 0.004978
92 0.005975
103 0.002955
110 0.003992
111 0.002997
72 0.003991
3 0.002016
0 0.004982
1 0.004986
18 0.002997
30 0.002985
39 0.002965
47 0.004948
52 0.004962
50 0.001993
49 0.001967
51 0.020942
56 0.000964
72 0.0
85 0.005007
93 0.004983
104 0.002958
112 0.002984
116 0.002966
81 0.004987
29 0.005994
0 0.003962
0 0.00399
6 0.003953
19 0.004953
38 0.002974
48 0.005008
54 0.004957
54 0.002989
53 0.002993
57 0.002981
66 0.004934
77 0.004981
91 0.003965
101 0.003995
111 0.003961
120 0.005947
135 0.002952
143 0.004954
133 0.005012
61 0.002992
23 0.002955
13 0.003991
22 0.005937
37 0.005982
55 0.003029
68 0.002958
78 0.003953
83 0.003989
80 0.002998
80 0.00502
86 0.005024
98 0.002995
109 0.002948
119 0.002965
128 0.004965
138 0.005979
146 0.005928
157 0.003999
161 0.003989
85 0.003995
42 0.003964
27 0.002997
33 0.00495
47 0.004978
66 0.003002
79 0.003942
91 0.003962
95 0.004978
92 0.005986
88 0.00399
91 0.003989
105 0.002
115 0.003017
124 0.002974
134 0.004989
143 0.005026
154 0.002981
163 0.003962
161 0.003962
111 0.005984
54 0.005949
19 0.003991
23 0.003965
48 0.00398
61 0.003996
73 0.003978
86 0.006
91 0.004995
87 0.002978
86 0.003995
90 0.003936
98 0.005946
109 0.005934
123 0.003996
134 0.003962
149 0.003981
159 0.004001
169 0.004
176 0.005985
154 0.006982
70 0.003991
29 0.003992
21 0.00399
31 0.005969
46 0.006953
64 0.003999
77 0.003931
93 0.003969
94 0.003996
91 0.003971
92 0.006013
98 0.005988
110 0.003985
122 0.003979
135 0.003963
146 0.005945
156 0.00593
171 0.00399
181 0.003968
191 0.003983
140 0.003989
77 0.003992
43 0.005981
39 0.005995
55 0.003966
73 0.004982
87 0.004988
101 0.00595
112 0.00596
117 0.003975
114 0.003948
115 0.003992
123 0.004021
134 0.003989
146 0.005973
157 0.007007
171 0.005
182 0.004955
192 0.004987
202 0.005995
209 0.00595
147 0.003997
87 0.003977
54 0.004001
62 0.00399
79 0.003992
96 0.005985
111 0.006982
129 0.004987
133 0.004961
127 0.004987
122 0.007975
123 0.006979
131 0.003951
146 0.005968
159 0.003962
169 0.004997
178 0.003987
188 0.006966
197 0.007007
147 0.004941
83 0.004954
49 0.004988
42 0.006982
52 0.006969
73 0.004034
93 0.005959
112 0.003984
119 0.003986
117 0.004987
112 0.006975
113 0.006983
122 0.004974
131 0.004988
144 0.003992
155 0.006986
166 0.00698
179 0.005951
195 0.006981
173 0.004991
125 0.013963
49 0.004988
30 0.006972
34 0.006975
53 0.005007
69 0.006028
82 0.004959
95 0.007937
104 0.007953
104 0.004989
102 0.006984
107 0.005017
117 0.00499
128 0.004979
140 0.006982
153 0.006983
167 0.004989
178 0.004986
189 0.005974
175 0.006967
107 0.006944
41 0.004981
27 0.006978
45 0.005987
61 0.00401
77 0.003991
93 0.007014
104 0.006988
107 0.004991
105 0.004947
106 0.004968
110 0.007978
120 0.007979
136 0.004986
152 0.007942
167 0.00798
180 0.005989
193 0.005027
186 0.005979
122 0.007003
65 0.006973
37 0.00594
44 0.005942
60 0.005945
78 0.007974
94 0.007921
118 0.007949
118 0.007977
112 0.006016
111 0.005984
116 0.005013
124 0.006977
135 0.006984
150 0.005983
162 0.005978
174 0.005931
187 0.00798
166 0.007968
66 0.00798
33 0.007979
37 0.005955
51 0.005948
67 0.005984
87 0.007974
97 0.007024
104 0.004982
99 0.004942
95 0.005954
96 0.007947
102 0.007948
119 0.007936
129 0.007974
144 0.005978
156 0.005969
164 0.005989
124 0.007966
41 0.007947
10 0.006983
6 0.00594
16 0.005955
31 0.007978
43 0.007979
67 0.007979
72 0.007979
69 0.005984
69 0.005988
73 0.005973
82 0.007964
92 0.007973
106 0.006953
117 0.006945
133 0.006982
141 0.007934
117 0.005989
52 0.007954
6 0.007974
0 0.005983
0 0.005984
13 0.00598
26 0.00798
42 0.007015
54 0.006948
59 0.006958
58 0.005943
59 0.007921
70 0.005989
86 0.007962
98 0.007963
111 0.006001
123 0.005976
134 0.005024
149 0.007982
141 0.007973
79 0.00698
19 0.005974
0 0.005984
0 0.006978
12 0.005988
29 0.007982
43 0.007952
55 0.005987
60 0.006011
60 0.00598
62 0.007017
68 0.006999
80 0.006957
91 0.006946
104 0.005958
120 0.005987
135 0.005987
149 0.007972
160 0.007974
152 0.005979
91 0.005978
31 0.005975
1 0.006984
66 0.006978
74 0.006947
82 0.006955
90 0.00594
99 0.006957
104 0.005987
104 0.007979
105 0.007978
108 0.005983
113 0.005984
120 0.005979
129 0.006981
134 0.007009
141 0.006946
148 0.00601
153 0.00598
155 0.0
88 0.001992
73 0.007956
76 0.006937
85 0.005976
96 0.00698
104 0.007024
111 0.006982
113 0.006944
111 0.006978
111 0.006947
114 0.006981
121 0.006017
130 0.006998
136 0.00696
141 0.005984
149 0.006955
155 0.006981
160 0.006985
150 0.006984
116 0.006955
87 0.006952
75 0.006954
80 0.006022
95 0.006975
103 0.006987
111 0.006983
117 0.006967
118 0.005984
116 0.00697
117 0.007008
122 0.006977
129 0.006954
136 0.005981
143 0.005989
149 0.005981
158 0.006975
164 0.007012
170 0.006012
156 0.006953
131 0.006968
100 0.006943
83 0.007016
86 0.007026
98 0.006015
107 0.005986
111 0.005959
119 0.006983
123 0.006975
120 0.006028
119 0.006012
123 0.005995
129 0.006977
139 0.006973
146 0.006987
153 0.007009
159 0.005987
169 0.005989
164 0.005977
94 0.00698
68 0.00599
61 0.00596
69 0.005984
80 0.005988
94 0.00598
105 0.005958
111 0.006979
113 0.007018
111 0.00599
110 0.005987
113 0.005987
126 0.006014
134 0.005942
143 0.005983
150 0.00603
158 0.006016
162 0.005972
121 0.005949
77 0.005981
53 0.006013
51 0.005019
63 0.005942
74 0.005983
89 0.005997
98 0.00603
102 0.005983
102 0.006013
101 0.005961
105 0.005982
112 0.005984
120 0.005984
129 0.00603
138 0.005984
149 0.005987
158 0.005992
158 0.005977
112 0.005985
70 0.005984
50 0.006017
51 0.005985
65 0.005964
76 0.005984
86 0.005984
96 0.006037
103 0.005017
106 0.004989
106 0.005984
110 0.005983
117 0.005943
126 0.00595
136 0.006012
146 0.006012
157 0.005995
166 0.005951
175 0.005996
183 0.006014
154 0.005016
87 0.005022
63 0.005014
67 0.005984
79 0.005981
92 0.005953
101 0.005949
111 0.005981
117 0.005987
116 0.005983
113 0.00598
113 0.005977
119 0.005038
130 0.005013
140 0.005025
155 0.004998
163 0.006
172 0.005987
180 0.006027
158 0.006024
91 0.005942
64 0.005982
58 0.005949
67 0.00499
80 0.004993
96 0.005012
107 0.004998
118 0.005994
116 0.004992
113 0.005934
114 0.006024
120 0.005986
131 0.005996
141 0.005031
150 0.005018
159 0.004979
167 0.005033
180 0.00499
167 0.004947
81 0.00499
56 0.004987
53 0.004979
62 0.005015
75 0.005027
89 0.005012
99 0.005012
108 0.005011
110 0.004958
109 0.005007
109 0.005024
116 0.005014
127 0.005023
137 0.004985
143 0.0
149 0.003989
166 0.005985
177 0.005014
146 0.004949
92 0.005015
61 0.005027
53 0.004954
64 0.004953
81 0.004981
97 0.005021
106 0.005023
112 0.004985
112 0.005014
110 0.005938
111 0.005025
117 0.004989
125 0.004986
134 0.004986
143 0.004986
155 0.003992
168 0.005021
151 0.005013
99 0.005022
64 0.004979
51 0.005027
55 0.004029
70 0.004018
80 0.005012
91 0.004991
101 0.005012
102 0.00399
98 0.004019
96 0.005015
103 0.003993
111 0.004994
119 0.004974
128 0.004015
136 0.003991
148 0.003995
134 0.004987
87 0.00499
51 0.004987
37 0.003994
42 0.003989
57 0.004947
66 0.005019
79 0.005014
86 0.004018
87 0.003979
85 0.004025
86 0.004015
94 0.004017
102 0.003957
110 0.005023
119 0.003975
127 0.003999
143 0.00502
145 0.005014
95 0.004039
52 0.004028
32 0.004024
31 0.004017
40 0.004032
52 0.003988
60 0.003991
69 0.00399
77 0.003989
79 0.004988
80 0.005015
83 0.003975
94 0.003984
103 0.004021
112 0.003986
121 0.003986
129 0.004019
140 0.004018
148 0.004022
141 0.003989
96 0.002966
54 0.003999
32 0.005012
39 0.004016
52 0.003994
61 0.00399
70 0.004016
79 0.004024
83 0.00402
83 0.003982
85 0.004018
90 0.004014
98 0.00396
108 0.003991
125 0.003987
134 0.003994
144 0.003989
150 0.003989
158 0.003988
165 0.004028
168 0.00399
117 0.003988
73 0.004015
51 0.004014
50 0.003953
60 0.002992
76 0.003019
84 0.004028
94 0.004024
98 0.004031
98 0.003994
96 0.004029
99 0.004016
109 0.00404
119 0.003989
128 0.004018
137 0.002991
149 0.002991
156 0.002992
164 0.002989
173 0.003946
154 0.00403
108 0.004022
71 0.00406
57 0.004015
64 0.003989
74 0.004989
84 0.002991
94 0.002992
107 0.002993
105 0.002991
102 0.002989
103 0.003986
109 0.004025
118 0.00398
126 0.003999
135 0.00399
144 0.004041
152 0.003993
160 0.003989
167 0.003019
125 0.002993
77 0.002991
51 0.002993
49 0.003019
58 0.002999
68 0.004017
76 0.004019
86 0.004053
96 0.003986
99 0.002989
98 0.002992
99 0.003018
109 0.002993
119 0.002994
129 0.002994
142 0.002992
150 0.002992
157 0.00396
164 0.004018
172 0.002957
176 0.003952
141 0.002988
87 0.002957
54 0.002957
48 0.002991
57 0.002975
67 0.002985
75 0.004006
84 0.002991
91 0.000996
95 0.01396
97 0.0
108 0.002961
117 0.002968
127 0.002998
145 0.002981
155 0.002992
163 0.002992
173 0.002958
181 0.002993
189 0.002991
171 0.002977
115 0.002954
63 0.002993
53 0.002957
60 0.00299
72 0.001998
86 0.00298
96 0.002962
106 0.002954
110 0.003006
109 0.002969
109 0.002978
114 0.001983
123 0.002938
138 0.002992
148 0.002984
159 0.00301
168 0.002997
181 0.003021
190 0.002944
199 0.002966
180 0.002985
122 0.003018
79 0.002989
63 0.00198
67 0.002016
79 0.001999
95 0.002954
105 0.001989
116 0.001964
125 0.002992
122 0.002977
121 0.002953
124 0.002994
135 0.002992
145 0.001981
157 0.00199
168 0.001988
177 0.001961
189 0.001953
198 0.001983
211 0.001985
180 0.001995
119 0.002997
80 0.002984
67 0.002995
77 0.002037
90 0.001989
102 0.001995
114 0.001985
125 0.001961
129 0.001965
125 0.001995
122 0.001988
128 0.001985
136 0.001968
147 0.002975
157 0.001987
170 0.001996
180 0.001994
192 0.001948
193 0.001964
143 0.00204
76 0.001983
56 0.002023
64 0.001976
77 0.001983
89 0.001986
102 0.002982
112 0.001992
118 0.001962
115 0.001962
114 0.002005
116 0.001953
124 0.001968
138 0.001988
149 0.002947
167 0.001959
178 0.001996
189 0.000987
198 0.000979
166 0.001999
143 0.021981
120 0.0
99 0.027922
69 0.000949
69 0.000992
83 0.00201
94 0.001987
109 0.001989
111 0.002009
110 0.001001
111 0.000993
116 0.001959
130 0.001994
142 0.001996
154 0.001969
166 0.002018
178 0.002008
193 0.002
205 0.001994
148 0.001989
87 0.001019
59 0.000974
54 0.000999
65 0.000987
85 0.001963
97 0.001986
110 0.00203
121 0.001988
125 0.001962
123 0.001991
122 0.001959
131 0.001963
142 0.000961
153 0.000987
166 0.000997
178 0.001999
194 0.001986
207 0.001945
212 0.002021
160 0.001999
97 0.001995
63 0.00199
65 0.000998
89 0.001035
103 0.000998
118 0.000997
131 0.000997
136 0.001017
130 0.001969
126 0.001968
129 0.001995
136 0.002001
145 0.001986
160 0.001975
172 0.00095
194 0.000959
202 0.000995
158 0.001
94 0.00101
61 0.001009
55 0.00197
67 0.002038
83 0.001996
97 0.00199
112 0.001966
126 0.001946
125 0.000994
120 0.000998
123 0.001012
130 0.00095
140 0.000972
152 0.002026
167 0.002056
179 0.001953
193 0.001967
191 0.0
128 0.001974
57 0.001028
40 0.000998
53 0.000996
67 0.000994
81 0.000998
93 0.001027
105 0.002
112 0.002019
110 0.002025
109 0.001994
114 0.001987
122 0.000993
137 0.000987
153 0.00097
170 0.001005
184 0.000989
194 0.000996
153 0.000998
85 0.000997
42 0.001989
39 0.000961
50 0.000997
66 0.0
79 0.0
96 0.0
110 0.0
112 0.0
110 0.000994
112 0.00097
118 0.000979
129 0.00096
144 0.000989
156 0.000997
169 0.0
183 0.0
195 0.0
169 0.0
65 0.0
43 0.0
48 0.00099
63 0.000998
80 0.001018
94 0.001002
108 0.001
119 0.0
120 0.0
118 0.0
119 0.0
126 0.0
144 0.0
157 0.0
174 0.0
187 0.000957
200 0.001041
213 0.000998
187 0.000998
92 0.0
58 0.0
51 0.0
61 0.0
78 0.0
103 0.0
117 0.0
125 0.0
122 0.0
117 0.0
117 0.000999
122 0.0
135 0.0
145 0.0
155 0.0
167 0.0
180 0.0
172 0.0
106 0.0
53 0.0
47 0.000998
57 0.0
74 0.000995
91 0.000997
112 0.0
125 0.0
129 0.0
125 0.0
122 0.0
130 0.0
143 0.000958
154 0.0
167 0.0
179 0.0
196 0.0
207 0.0
172 0.0
101 0.0
60 0.0
48 0.0
54 0.0
78 0.0
92 0.0
110 0.0
118 0.002031
120 0.000969
118 0.000998
120 0.0
125 0.00303
136 0.001995
152 0.0
165 0.000998
185 0.000949
197 0.000971
204 0.000953
160 0.002032
98 0.002048
59 0.000998
54 0.000975
61 0.000969
71 0.003021
84 0.002004
102 0.0
113 0.0
112 0.00096
109 0.0
110 0.0
115 0.002015
125 0.001998
144 0.0
155 0.00096
168 0.000997
179 0.002983
190 0.002022
201 0.0
189 0.0
77 0.0
44 0.0
39 0.0
49 0.00203
64 0.002023
82 0.0
96 0.00097
105 0.000971
107 0.002024
104 0.003019
103 0.0
108 0.0
126 0.000969
139 0.0
152 0.0
163 0.002025
174 0.002023
187 0.001007
199 0.000983
206 0.0
164 0.002025
95 0.002022
52 0.0
49 0.0
71 0.0
86 0.0
101 0.0
115 0.002029
120 0.002002
113 0.000968
110 0.000997
110 0.001995
120 0.002035
131 0.002023
147 0.000968
159 0.0
178 0.000956
189 0.0
200 0.0
208 0.00203
167 0.002034
83 0.0
57 0.0
56 0.0
69 0.002021
88 0.002034
110 0.000983
126 0.001032
137 0.0
132 0.0
128 0.0
130 0.002031
137 0.002023
151 0.0
163 0.0
175 0.0
187 0.002021
199 0.002022
216 0.000968
206 0.0
98 0.0
68 0.0
64 0.0
74 0.002032
91 0.002031
114 0.0
131 0.0
141 0.0
137 0.001992
128 0.001965
126 0.0
132 0.000999
147 0.00096
159 0.0
172 0.0
186 0.0
200 0.001984
166 0.0
100 0.0
62 0.0
53 0.0
61 0.002009
78 0.001996
102 0.000997
125 0.002989
138 0.0
134 0.000999
128 0.001019
128 0.002995
135 0.002998
148 0.0
160 0.0
172 0.0
185 0.001951
201 0.001992
153 0.003029
87 0.001991
51 0.0
52 0.001016
67 0.001001
84 0.002994
101 0.002988
123 0.0
132 0.0
131 0.0
126 0.001984
125 0.001994
136 0.003028
146 0.003003
163 0.000941
176 0.0
191 0.000997
205 0.003997
178 0.003028
86 0.0
53 0.0
48 0.0
59 0.001975
78 0.001979
105 0.002982
120 0.002979
129 0.0
125 0.00096
122 0.001005
123 0.001999
129 0.002006
143 0.0
154 0.0
167 0.0
180 0.001992
195 0.002039
146 0.002964
81 0.00299
47 0.0
49 0.0
63 0.0
81 0.002998
98 0.002986
119 0.0
125 0.0
122 0.0
117 0.002002
116 0.001991
127 0.003001
138 0.003055
153 0.0
165 0.0
178 0.0
192 0.002947
176 0.002987
85 0.0
48 0.0
40 0.0
49 0.002995
66 0.002006
94 0.002986
110 0.003007
118 0.0
113 0.000967
109 0.0
110 0.002933
116 0.002986
129 0.0
141 0.0
152 0.0
163 0.002976
176 0.00298
185 0.001994
124 0.003003
52 0.0
36 0.002011
42 0.002008
58 0.002952
76 0.002951
98 0.002044
112 0.001997
117 0.001982
114 0.003002
111 0.002992
116 0.003988
124 0.00399
139 0.001013
151 0.001996
163 0.001998
176 0.002946
189 0.002961
190 0.002032
125 0.001997
70 0.001989
47 0.003001
49 0.002992
75 0.003954
92 0.003984
115 0.000973
125 0.001973
124 0.0
116 0.002951
113 0.00295
118 0.002978
126 0.002979
136 0.002001
147 0.002998
169 0.001006
181 0.003998
177 0.004004
97 0.000961
54 0.00197
40 0.002019
46 0.002995
62 0.002987
83 0.00303
99 0.002031
112 0.003007
115 0.003001
107 0.002023
107 0.003989
113 0.004009
125 0.0
136 0.002004
148 0.001989
160 0.002991
174 0.002992
176 0.001994
113 0.00301
57 0.002988
33 0.002948
40 0.001994
55 0.003985
71 0.003954
89 0.001995
100 0.001992
105 0.002005
104 0.00399
102 0.003002
107 0.001998
116 0.003025
128 0.002984
139 0.00295
160 0.002004
174 0.003968
185 0.003943
150 0.003958
64 0.00198
35 0.002003
31 0.002015
42 0.002995
58 0.002985
76 0.001994
90 0.002012
101 0.001985
103 0.001994
101 0.002975
104 0.004013
111 0.003961
127 0.00202
140 0.002968
153 0.001987
166 0.00398
179 0.003985
197 0.003009
191 0.002966
121 0.001955
47 0.003023
41 0.0
51 0.003997
68 0.003984
89 0.002976
104 0.001985
115 0.001986
119 0.003959
116 0.003993
114 0.002989
119 0.001993
128 0.001988
147 0.002995
158 0.003011
170 0.003988
182 0.003997
199 0.002008
179 0.001993
111 0.0
64 0.003991
46 0.00495
54 0.001996
69 0.003001
85 0.003016
111 0.002975
119 0.002997
117 0.004977
111 0.00399
111 0.00299
118 0.001968
128 0.001995
141 0.00399
152 0.004985
168 0.001998
181 0.002989
194 0.001995
146 0.002032
77 0.00201
43 0.003985
37 0.003938
51 0.002006
67 0.002024
82 0.001978
96 0.003982
109 0.005033
114 0.001995
111 0.001995
110 0.001996
120 0.00295
132 0.003021
145 0.004983
157 0.004982
173 0.002993
186 0.002033
199 0.003001
205 0.004978
149 0.004985
63 0.001971
39 0.001996
47 0.003009
64 0.002007
79 0.001985
94 0.004022
107 0.004986
116 0.002983
113 0.00299
112 0.002981
115 0.004976
123 0.005004
139 0.002008
152 0.001975
173 0.002974
186 0.002025
199 0.002016
212 0.004989
197 0.004947
97 0.002952
54 0.002989
42 0.001993
50 0.004984
67 0.005948
88 0.001967
104 0.002001
124 0.001983
124 0.002001
120 0.002057
118 0.003995
124 0.005982
139 0.002958
152 0.003002
166 0.002991
180 0.004981
193 0.004981
211 0.00299
225 0.002049
160 0.001993
87 0.002966
55 0.002013
51 0.005979
64 0.005992
88 0.002956
106 0.002987
123 0.002987
137 0.004981
139 0.004975
132 0.003028
130 0.002011
140 0.002991
152 0.002965
165 0.002994
179 0.005983
193 0.005977
211 0.002967
225 0.002027
233 0.002968
176 0.005001
99 0.004981
58 0.002949
58 0.001987
84 0.003016
102 0.003015
121 0.002991
138 0.005982
143 0.00595
132 0.00296
126 0.00296
127 0.002965
135 0.004989
146 0.004985
163 0.00396
176 0.001993
199 0.002962
211 0.002994
168 0.002987
92 0.005968
52 0.006021
43 0.002994
55 0.002958
72 0.00297
90 0.004992
108 0.00501
123 0.005001
125 0.00299
117 0.005984
118 0.003041
126 0.003046
138 0.003021
150 0.005965
164 0.005988
183 0.00296
198 0.003015
204 0.003006
140 0.005978
68 0.006014
32 0.002998
37 0.005955
58 0.003984
74 0.003952
90 0.004042
104 0.005985
111 0.006017
108 0.002997
106 0.002989
109 0.002984
118 0.005985
129 0.005961
147 0.002997
165 0.00595
186 0.003995
192 0.003994
134 0.003961
65 0.005962
33 0.005975
30 0.002999
43 0.002957
59 0.003961
74 0.006001
90 0.006009
106 0.006927
104 0.005934
101 0.003993
104 0.004009
113 0.003941
125 0.005984
137 0.005969
155 0.002993
170 0.003002
185 0.002991
182 0.005984
113 0.005987
35 0.006984
28 0.006027
42 0.00398
58 0.004994
74 0.00294
89 0.00701
101 0.005954
103 0.002994
100 0.002987
100 0.002992
105 0.006011
114 0.006981
135 0.006982
148 0.007019
165 0.003993
179 0.003994
190 0.003953
148 0.006012
78 0.006023
32 0.003946
29 0.004036
40 0.004016
56 0.006996
71 0.006955
95 0.007016
102 0.007029
99 0.003999
97 0.004
100 0.003989
108 0.00603
120 0.005985
136 0.004985
148 0.004978
160 0.003987
172 0.006993
185 0.006983
146 0.007014
76 0.007012
33 0.003991
31 0.00399
43 0.003972
59 0.006982
75 0.006014
94 0.004007
105 0.003998
107 0.004026
105 0.007014
105 0.00701
115 0.007011
126 0.006997
144 0.00396
156 0.003984
168 0.004995
181 0.006983
195 0.006016
198 0.004987
136 0.004959
75 0.004017
46 0.006991
43 0.007014
65 0.00702
82 0.006981
104 0.003987
115 0.004007
118 0.004995
113 0.006983
108 0.007948
112 0.00494
122 0.004984
133 0.003989
144 0.007024
157 0.007025
184 0.007965
191 0.007016
144 0.003976
81 0.003962
47 0.005002
40 0.007979
53 0.007971
69 0.005005
85 0.004978
101 0.004992
112 0.007024
112 0.006943
105 0.006982
108 0.006951
118 0.004988
129 0.005001
142 0.004986
154 0.007979
171 0.00797
184 0.004996
196 0.004977
160 0.004988
87 0.006994
33 0.004947
33 0.007016
50 0.007967
65 0.004989
79 0.004987
92 0.004946
104 0.007974
105 0.007975
102 0.005003
104 0.004998
112 0.004998
123 0.007043
145 0.005983
158 0.007009
170 0.00798
187 0.004028
199 0.004989
193 0.004988
99 0.007982
50 0.007981
33 0.004956
38 0.004952
51 0.004992
67 0.006978
90 0.005958
103 0.006982
109 0.007021
109 0.007981
108 0.004965
113 0.004989
123 0.004961
136 0.007979
149 0.007984
167 0.004999
179 0.004979
191 0.004983
211 0.004992
202 0.00593
128 0.007976
67 0.007979
39 0.004986
44 0.005943
60 0.005022
76 0.007974
90 0.007979
111 0.004957
119 0.004985
119 0.004987
118 0.005951
124 0.005984
134 0.007981
153 0.007969
168 0.006001
182 0.004988
196 0.002992
212 0.007977
226 0.007975
236 0.004994
201 0.004988
117 0.004998
57 0.005958
57 0.005958
76 0.00798
95 0.007988
112 0.004993
131 0.006022
141 0.006004
139 0.00799
134 0.007976
133 0.004987
139 0.004976
150 0.004995
172 0.00594
185 0.005993
204 0.007009
218 0.006984
219 0.005956
156 0.005974
89 0.006008
60 0.007958
59 0.007971
73 0.004995
90 0.005012
109 0.004987
137 0.00602
139 0.005994
131 0.006981
129 0.006981
132 0.005958
141 0.005971
153 0.00592
168 0.007974
182 0.00797
196 0.004982
210 0.005955
183 0.00597
67 0.00595
41 0.005946
43 0.006986
58 0.006985
75 0.005945
97 0.005966
107 0.005957
119 0.007981
118 0.007931
115 0.005023
117 0.005983
123 0.006025
141 0.005994
154 0.005987
175 0.006995
190 0.006965
196 0.006001
129 0.005986
82 0.005976
36 0.007011
34 0.007009
46 0.005987
63 0.00599
89 0.00602
104 0.005997
113 0.005985
113 0.005982
110 0.006982
113 0.005988
125 0.005972
132 0.005991
149 0.007962
163 0.007008
177 0.005999
192 0.006003
139 0.005956
71 0.006026
38 0.005994
36 0.006932
50 0.006974
68 0.005988
90 0.005985
102 0.005989
116 0.006999
117 0.00698
114 0.006931
116 0.006984
127 0.006952
138 0.006011
151 0.005956
168 0.006986
182 0.007018
201 0.006046
192 0.005982
103 0.006012
57 0.005986
42 0.005989
47 0.006955
62 0.006973
96 0.006946
107 0.006952
118 0.00698
117 0.006986
112 0.006996
111 0.006008
115 0.005943
127 0.006029
137 0.006011
149 0.005994
166 0.005969
177 0.005973
110 0.005984
74 0.006981
37 0.006954
38 0.006981
50 0.007032
71 0.005983
87 0.006024
101 0.006012
108 0.006013
106 0.006029
102 0.005948
105 0.006004
119 0.006979
126 0.006975
140 0.006979
153 0.007014
168 0.006012
165 0.005986
104 0.005984
53 0.005987
30 0.006014
30 0.006023
48 0.006
63 0.005973
87 0.005988
95 0.006982
104 0.006027
102 0.006011
102 0.006994
105 0.005987
117 0.005988
127 0.006015
139 0.006006
152 0.005993
164 0.006024
172 0.00599
103 0.005983
47 0.00598
36 0.00695
44 0.006019
60 0.006
76 0.005956
94 0.005952
107 0.005976
114 0.005989
114 0.006012
113 0.006035
118 0.005972
129 0.00598
145 0.00595
156 0.004986
168 0.005983
181 0.00596
192 0.006015
135 0.006006
80 0.005999
55 0.005992
55 0.006022
68 0.005983
95 0.005034
110 0.005997
128 0.005977
131 0.004986
128 0.004991
125 0.005984
127 0.00599
137 0.005982
147 0.005988
157 0.005977
167 0.006014
180 0.006013
193 0.005045
150 0.00499
78 0.004987
58 0.005004
60 0.004993
74 0.004989
90 0.005987
111 0.005988
125 0.005947
131 0.005986
128 0.006012
123 0.006002
125 0.004986
133 0.004986
144 0.004955
154 0.004985
166 0.005028
178 0.004965
185 0.005983
124 0.005981
70 0.00598
46 0.005959
46 0.006009
60 0.006019
85 0.00503
99 0.005033
114 0.00499
119 0.005013
116 0.00499
115 0.004986
117 0.005958
128 0.005987
138 0.005973
150 0.005995
160 0.006031
171 0.006023
189 0.005021
168 0.004989
81 0.004949
46 0.004951
39 0.003988
50 0.004989
66 0.00495
86 0.00496
99 0.005013
112 0.005984
119 0.005983
117 0.005983
117 0.004984
122 0.004991
136 0.005017
148 0.004992
159 0.004977
172 0.004951
184 0.004987
201 0.00499
202 0.004023
141 0.00495
80 0.005983
52 0.005026
60 0.005025
78 0.00499
100 0.004985
114 0.005015
127 0.004948
134 0.004993
131 0.003993
126 0.004994
129 0.004029
137 0.005015
148 0.004019
160 0.004982
181 0.004986
194 0.004984
212 0.004981
208 0.004983
140 0.004999
82 0.00498
60 0.00496
65 0.003967
81 0.005019
98 0.004988
114 0.003995
129 0.004042
138 0.005013
132 0.004983
127 0.005002
131 0.004957
140 0.004948
150 0.004971
161 0.00499
176 0.004965
190 0.003989
203 0.003949
190 0.004027
118 0.003951
51 0.004987
49 0.004986
69 0.004946
87 0.004961
104 0.004936
120 0.004982
132 0.00399
133 0.005007
128 0.004025
126 0.003996
131 0.003983
148 0.003949
160 0.004987
172 0.005014
190 0.004988
203 0.004987
211 0.003987
156 0.004993
84 0.004017
45 0.003954
47 0.003963
61 0.003931
80 0.003986
108 0.00394
122 0.004947
130 0.00498
127 0.004989
124 0.004994
125 0.004026
133 0.00495
145 0.00399
162 0.004018
178 0.003952
196 0.003953
212 0.003986
142 0.00399
79 0.00395
54 0.003959
56 0.003988
78 0.003982
98 0.003988
118 0.003989
136 0.003988
147 0.003953
145 0.003988
140 0.003961
138 0.003952
149 0.003946
160 0.002992
174 0.003956
191 0.003029
204 0.00303
151 0.003977
89 0.004018
61 0.00394
60 0.003952
80 0.002951
100 0.00399
119 0.003938
141 0.003951
137 0.003978
129 0.003018
126 0.003961
131 0.002992
142 0.003991
155 0.003989
170 0.003989
187 0.003989
166 0.003961
94 0.004001
54 0.003949
50 0.003963
67 0.003953
88 0.003934
107 0.002998
130 0.003989
137 0.003988
131 0.003936
124 0.003999
124 0.003951
132 0.002992
143 0.003995
157 0.003982
181 0.002945
148 0.002993
81 0.004025
43 0.002957
38 0.00299
52 0.003025
70 0.003954
88 0.003955
105 0.003924
118 0.003988
115 0.003972
109 0.003985
111 0.003989
119 0.002992
130 0.002993
145 0.002994
162 0.002992
134 0.002952
73 0.003004
36 0.001992
27 0.004
43 0.003974
61 0.00397
78 0.003955
103 0.002998
106 0.002952
100 0.003027
98 0.002993
101 0.003027
109 0.002998
121 0.002991
133 0.003001
147 0.003004
139 0.002998
80 0.003989
21 0.003019
22 0.002991
37 0.002955
54 0.002987
70 0.002986
91 0.003032
97 0.002996
94 0.002988
90 0.002988
92 0.002993
101 0.001994
111 0.003992
131 0.002992
144 0.002991
147 0.002962
101 0.002953
48 0.002989
22 0.002976
29 0.002952
45 0.002956
62 0.002959
78 0.003002
95 0.00203
98 0.003031
94 0.003048
96 0.00296
104 0.002992
114 0.002035
123 0.003
138 0.002993
149 0.002003
160 0.002949
155 0.002958
102 0.002021
45 0.002966
37 0.002961
59 0.002991
76 0.002983
90 0.002966
103 0.002991
110 0.002954
108 0.002033
106 0.002969
109 0.002993
117 0.002038
126 0.002957
139 0.001994
148 0.001982
163 0.002021
173 0.002992
180 0.002997
155 0.002028
98 0.002998
55 0.002985
55 0.001995
70 0.002026
86 0.00202
99 0.00202
115 0.002024
122 0.001993
118 0.002039
116 0.000991
120 0.002005
128 0.002953
138 0.002949
149 0.002983
157 0.00199
165 0.001994
173 0.001998
180 0.001993
179 0.001999
131 0.001982
71 0.001976
70 0.001994
84 0.002995
100 0.002992
113 0.002044
129 0.002984
137 0.002993
138 0.002975
134 0.002032
132 0.002031
139 0.002021
148 0.001967
163 0.001968
171 0.001966
178 0.002001
185 0.001967
192 0.001993
200 0.001997
200 0.001995
152 0.00199
106 0.002015
89 0.002
94 0.002
114 0.001993
132 0.000999
147 0.001986
154 0.002992
153 0.001957
147 0.002989
144 0.002025
149 0.002031
155 0.001991
164 0.001996
170 0.001988
176 0.002004
185 0.002014
195 0.001957
190 0.001994
145 0.002001
103 0.002036
89 0.001025
95 0.001976
114 0.002009
126 0.001979
138 0.001987
149 0.001999
152 0.001958
145 0.001993
143 0.000999
148 0.001954
156 0.002006
163 0.002
170 0.001996
177 0.001963
185 0.001995
193 0.001991
200 0.001994
179 0.00096
124 0.001959
80 0.002972
85 0.000997
103 0.00202
114 0.002989
124 0.001997
133 0.002033
140 0.001962
139 0.002034
136 0.002036
136 0.002016
141 0.00196
148 0.002051
162 0.001962
169 0.001997
177 0.001929
185 0.001995
193 0.001986
189 0.002029
141 0.001998
87 0.001997
79 0.002024
87 0.001946
101 0.001994
113 0.0
129 0.00195
137 0.001998
139 0.001995
136 0.001994
135 0.001996
138 0.002035
144 0.000994
156 0.0
163 0.001979
171 0.001953
178 0.0
183 0.000965
193 0.000948
197 0.001021
149 0.002028
101 0.002024
79 0.000954
80 0.000952
92 0.000959
109 0.002026
118 0.000997
128 0.0
135 0.001956
137 0.000954
133 0.0
135 0.000998
143 0.002001
151 0.001968
160 0.000996
169 0.000998
177 0.0
186 0.001994
193 0.000997
201 0.0
209 0.0
195 0.001036
112 0.0
90 0.0
95 0.000999
108 0.000963
121 0.000997
133 0.000954
143 0.00093
151 0.000932
150 0.001015
147 0.0
146 0.0
150 0.0
162 0.0
170 0.001027
182 0.002037
189 0.000997
197 0.000962
205 0.000999
213 0.000996
192 0.00096
141 0.001003
107 0.0
98 0.000938
104 0.0
126 0.0
137 0.000997
150 0.000996
155 0.000995
153 0.000955
148 0.000953
146 0.0
150 0.001987
157 0.0
163 0.000961
171 0.0
183 0.0
192 0.000935
201 0.0
167 0.000971
118 0.000996
89 0.00097
84 0.000964
92 0.001041
110 0.000956
120 0.0
130 0.0
139 0.0
140 0.0
137 0.0
137 0.000998
143 0.0
151 0.000958
159 0.0
167 0.0
175 0.0
187 0.000953
194 0.0
175 0.0
121 0.0
74 0.0
75 0.0
86 0.0
103 0.0
113 0.0
123 0.0
131 0.0
133 0.0
130 0.0
131 0.0
136 0.0
143 0.0
157 0.0
165 0.0
174 0.0
183 0.0
191 0.0
154 0.000997
102 0.000999
73 0.0
70 0.000997
84 0.0
98 0.0
109 0.0
127 0.0
132 0.0
131 0.0
128 0.0
130 0.0
136 0.0
145 0.0
154 0.000971
