155 0.030938
158 0.00096
163 0.000957
150 0.002958
53 0.002955
37 0.002978
50 0.00296
55 0.00296
50 0.002959
55 0.002989
66 0.002964
71 0.003958
71 0.004997
75 0.005946
85 0.00598
97 0.007957
104 0.007395
110 0.007975
115 0.005994
120 0.006012
129 0.00499
140 0.003105
147 0.002995
157 0.002963
162 0.002955
96 0.000998
55 0.0
62 0.000998
77 0.000998
76 0.002015
83 0.005032
93 0.004987
94 0.005011
93 0.004976
101 0.005022
116 0.005943
123 0.006953
133 0.007015
141 0.007024
146 0.006977
153 0.006985
159 0.007968
165 0.007023
175 0.007027
153 0.006969
76 0.007015
62 0.005984
71 0.00603
78 0.005984
75 0.005984
85 0.005028
91 0.004987
85 0.004009
89 0.005029
105 0.004988
116 0.004987
128 0.003984
135 0.004949
141 0.004024
147 0.003959
154 0.002956
160 0.002002
161 0.002994
88 0.002028
61 0.001996
68 0.001996
74 0.001989
71 0.002027
74 0.001994
92 0.000998
94 0.0
89 0.001004
91 0.000999
99 0.000965
115 0.000967
124 0.0
131 0.000942
139 0.001009
142 0.000984
145 0.000999
146 0.000998
149 0.000998
155 0.002007
155 0.002951
110 0.003994
23 0.004954
21 0.006981
25 0.006981
18 0.00702
16 0.006968
24 0.006976
39 0.007011
41 0.006974
44 0.006977
49 0.007979
60 0.00698
70 0.006977
75 0.006964
85 0.006932
94 0.00798
100 0.005021
110 0.005044
122 0.003993
128 0.00399
136 0.00204
142 0.001043
146 0.0
153 0.001988
161 0.001958
149 0.002972
39 0.001952
19 0.002968
30 0.003039
39 0.002023
36 0.003487
39 0.003862
57 0.003991
63 0.003988
66 0.004953
71 0.004987
81 0.004849
95 0.006065
105 0.005986
114 0.005966
123 0.005987
129 0.005984
137 0.007014
145 0.006981
152 0.0
160 0.007021
165 0.007021
171 0.006018
177 0.00405
181 0.004021
184 0.004212
84 0.003982
41 0.004033
44 0.005028
56 0.003027
60 0.003032
57 0.003959
61 0.003031
78 0.002992
83 0.001997
84 0.001995
94 0.001996
107 0.0
118 0.0
128 0.0
136 0.0
142 0.0
149 0.0
154 0.0
162 0.000955
167 0.000958
174 0.000998
179 0.000949
182 0.000997
188 0.001008
176 0.001996
107 0.001995
40 0.001994
46 0.002999
65 0.003816
66 0.005019
63 0.006026
71 0.007978
83 0.007979
85 0.007979
89 0.008023
99 0.007979
111 0.007979
127 0.007861
133 0.007979
138 0.006035
148 0.005027
151 0.004975
158 0.004988
165 0.004986
168 0.004987
174 0.00495
178 0.004978
182 0.004985
187 0.004015
190 0.003038
139 0.002044
40 0.001995
37 0.002041
57 0.002036
64 0.0
61 0.0
64 0.001982
77 0.003366
79 0.002982
82 0.003012
92 0.005093
102 0.005018
115 0.006973
121 0.007979
129 0.007012
135 0.007991
140 0.007977
143 0.007938
151 0.007979
155 0.007979
162 0.006981
165 0.00703
170 0.006981
177 0.007984
172 0.006984
88 0.007949
34 0.006955
40 0.00503
65 0.004976
73 0.004983
73 0.00503
79 0.004987
82 0.004987
84 0.004037
96 0.003121
106 0.00204
122 0.002006
132 0.0
135 0.0
142 0.0
146 0.0
151 0.0
158 0.000982
162 0.003023
169 0.002964
172 0.001995
177 0.003549
181 0.004007
178 0.004987
119 0.004993
30 0.004983
30 0.005038
51 0.005034
58 0.005028
53 0.005042
61 0.005994
70 0.004984
75 0.006979
78 0.00698
84 0.007101
101 0.006947
115 0.006981
121 0.007014
130 0.006982
135 0.005021
139 0.006976
146 0.006981
150 0.007017
157 0.004983
163 0.005016
167 0.004987
170 0.004955
176 0.004023
177 0.004981
86 0.004032
33 0.004986
30 0.002007
51 0.0
54 0.0
49 0.0
57 0.0
66 0.0
71 0.0
76 0.001992
83 0.001981
99 0.001998
106 0.001959
117 0.001986
124 0.002959
127 0.002966
134 0.002957
139 0.004024
144 0.004992
148 0.006018
153 0.007978
156 0.006981
160 0.005957
165 0.005019
154 0.004987
47 0.002037
22 0.002029
33 0.000994
51 0.000997
51 0.000992
50 0.000987
60 0.000995
63 0.000963
65 0.000998
76 0.000866
87 0.000959
103 0.000997
111 0.002994
118 0.002966
123 0.002993
131 0.005018
134 0.006017
142 0.005812
146 0.006956
151 0.007952
158 0.006954
164 0.007985
141 0.006952
38 0.005983
22 0.005027
36 0.004987
44 0.005019
43 0.005021
42 0.00502
51 0.00502
62 0.004987
64 0.004986
71 0.003987
83 0.004989
96 0.003979
107 0.004985
117 0.00518
121 0.003983
129 0.001987
135 0.002034
140 0.002037
147 0.001996
154 0.000998
156 0.0
163 0.0
167 0.0
105 0.0
26 0.001017
27 0.002025
43 0.004061
41 0.00399
37 0.006019
47 0.006008
59 0.005989
59 0.005975
63 0.006024
70 0.007938
83 0.007013
94 0.005975
105 0.006028
110 0.005984
117 0.004983
122 0.005038
130 0.004983
136 0.003999
142 0.003964
146 0.003984
154 0.002975
156 0.004035
142 0.002988
79 0.003006
27 0.003031
42 0.002999
51 0.003004
48 0.002985
48 0.001015
62 0.001997
66 0.001995
66 0.0
73 0.0
87 0.0
99 0.0
109 0.0
119 0.000852
123 0.001996
131 0.001987
135 0.0
145 0.002994
152 0.002954
156 0.002963
164 0.002996
170 0.004019
147 0.004899
47 0.003982
33 0.004994
46 0.005021
49 0.00503
45 0.005021
49 0.005989
63 0.006012
68 0.005984
68 0.006021
75 0.006013
87 0.006028
102 0.006023
109 0.007031
117 0.006945
124 0.007023
131 0.006982
140 0.004993
149 0.004196
154 0.00403
161 0.002996
163 0.003023
171 0.003001
172 0.003173
128 0.003033
43 0.001998
39 0.002003
51 0.003031
51 0.002035
45 0.00106
51 0.002001
66 0.002005
68 0.002028
69 0.001995
74 0.001991
87 0.001995
98 0.0
106 0.001002
113 0.000998
120 0.000998
125 0.002031
133 0.001984
142 0.003024
147 0.003975
153 0.003988
158 0.004027
165 0.004022
159 0.00502
102 0.007018
43 0.007025
48 0.006999
58 0.006043
58 0.006027
55 0.005984
67 0.004021
74 0.005029
75 0.005058
80 0.004986
94 0.003953
104 0.004034
115 0.002019
126 0.002037
130 0.001993
139 0.0
148 0.0
154 0.0
162 0.000986
168 0.001011
171 0.0
177 0.000956
181 0.001987
187 0.001996
173 0.002028
104 0.001983
44 0.001995
50 0.002
57 0.002994
50 0.003027
45 0.003025
54 0.003002
67 0.003008
67 0.00502
70 0.005032
83 0.005029
92 0.006028
105 0.007987
111 0.007979
116 0.007937
124 0.007047
130 0.006023
140 0.006085
150 0.006024
156 0.006016
164 0.006031
168 0.005036
172 0.004045
178 0.004024
180 0.004023
139 0.00397
48 0.004174
41 0.003989
54 0.003992
52 0.002036
48 0.001995
56 0.001041
64 0.001048
67 0.000999
72 0.0
80 0.0
91 0.00101
105 0.001001
112 0.000998
121 0.001953
131 0.002993
137 0.004026
143 0.004987
154 0.003991
163 0.006019
169 0.006973
175 0.007978
182 0.007013
172 0.007969
88 0.00603
48 0.005984
55 0.006026
59 0.006026
50 0.005991
51 0.005051
60 0.003035
70 0.0
71 0.0
76 0.0
89 0.0
98 0.000966
107 0.0
117 0.000997
122 0.000998
130 0.000997
140 0.00096
146 0.000998
156 0.000962
161 0.001004
168 0.002992
173 0.002993
178 0.003023
184 0.00399
159 0.003055
89 0.003022
47 0.00399
52 0.003989
63 0.00396
55 0.004024
56 0.004987
69 0.00502
72 0.004812
73 0.004984
80 0.00497
87 0.005027
100 0.005046
111 0.005022
116 0.005078
124 0.005981
130 0.007077
140 0.00703
148 0.006774
156 0.006982
165 0.007006
172 0.007983
174 0.007979
97 0.00503
50 0.001994
55 0.003032
64 0.0
56 0.0
55 0.000998
70 0.0
77 0.0
78 0.0
81 0.000997
88 0.000998
102 0.001031
114 0.002033
120 0.001008
129 0.002009
138 0.002011
143 0.001965
154 0.001995
160 0.00296
169 0.004145
175 0.005973
181 0.006982
185 0.006982
179 0.00598
77 0.003026
53 0.00399
60 0.002992
66 0.003989
58 0.001982
58 0.00103
66 0.000954
76 0.000999
75 0.0
78 0.001
87 0.000998
99 0.000997
106 0.000998
114 0.001996
121 0.002992
128 0.003026
135 0.003044
144 0.002962
150 0.003007
160 0.003029
166 0.003001
175 0.002993
178 0.003981
99 0.003991
57 0.003964
61 0.003943
74 0.00402
70 0.004031
70 0.00396
83 0.003991
85 0.003919
86 0.004012
96 0.004969
104 0.005972
117 0.006015
123 0.006015
132 0.005979
138 0.006072
144 0.006041
153 0.005975
163 0.005987
169 0.006952
176 0.007979
181 0.007979
187 0.006983
192 0.007013
197 0.005031
193 0.004025
88 0.003112
58 0.001998
62 0.002024
65 0.001996
57 0.002037
54 0.002037
62 0.002024
73 0.002043
73 0.003024
77 0.002028
86 0.001995
99 0.002157
105 0.000998
115 0.001024
119 0.0
127 0.001995
137 0.003974
147 0.00399
154 0.005072
164 0.005923
168 0.005977
176 0.005993
182 0.007015
185 0.007978
191 0.007018
172 0.007016
100 0.005019
50 0.004988
58 0.005027
64 0.003972
55 0.003999
52 0.003998
65 0.003992
70 0.005029
69 0.004986
73 0.004988
79 0.005009
89 0.005033
100 0.004018
106 0.003992
114 0.002967
122 0.001987
129 0.002042
141 0.002062
152 0.0
159 0.000994
165 0.000994
175 0.000952
180 0.002968
171 0.004023
70 0.005033
49 0.005027
57 0.004993
62 0.004996
52 0.006017
51 0.006009
62 0.005979
69 0.005989
69 0.005988
73 0.006017
87 0.007972
95 0.007983
106 0.006018
116 0.005002
121 0.006025
131 0.003989
141 0.003029
148 0.003032
159 0.003017
169 0.001997
175 0.002001
182 0.002119
186 0.00197
192 0.002026
198 0.002993
193 0.002029
110 0.002005
50 0.000998
51 0.001992
59 0.000998
53 0.000997
41 0.000956
50 0.002027
61 0.002995
62 0.00398
67 0.005972
78 0.006978
86 0.007012
99 0.006948
109 0.004035
115 0.004025
124 0.003992
130 0.00401
141 0.00403
153 0.004032
157 0.004022
169 0.003968
173 0.003023
179 0.003032
184 0.004023
188 0.003026
194 0.003976
165 0.001996
89 0.002027
47 0.000998
59 0.000999
69 0.0
68 0.0
66 0.000997
76 0.001002
79 0.001003
80 0.000998
90 0.001005
106 0.002029
116 0.002026
127 0.001995
132 0.001995
141 0.001957
149 0.002994
155 0.004028
165 0.003948
175 0.00403
181 0.003904
188 0.003989
192 0.004021
194 0.00398
199 0.00399
203 0.004196
181 0.005985
63 0.00687
44 0.006996
45 0.006015
51 0.005026
44 0.002997
37 0.003035
49 0.003025
53 0.003025
55 0.002954
58 0.001972
68 0.003025
82 0.002983
92 0.001994
101 0.002992
108 0.002029
116 0.002993
125 0.003118
134 0.002979
145 0.003074
155 0.0
161 0.0
166 0.000998
172 0.001987
176 0.001981
182 0.002033
171 0.001991
63 0.001995
38 0.00298
48 0.002951
61 0.002942
54 0.002993
57 0.002997
65 0.002994
65 0.002993
70 0.004011
83 0.005981
93 0.005987
106 0.006018
114 0.005992
122 0.00598
129 0.006021
137 0.00594
146 0.006017
156 0.005989
163 0.005992
172 0.007034
175 0.007022
181 0.005985
187 0.005994
189 0.005985
152 0.006989
48 0.005991
36 0.005987
46 0.006018
48 0.005976
35 0.004019
33 0.005968
45 0.004995
51 0.005017
52 0.005039
57 0.005038
69 0.004025
76 0.004
86 0.003989
95 0.003004
99 0.00398
108 0.003029
118 0.001993
125 0.001995
136 0.002028
143 0.001998
153 0.002031
161 0.001995
164 0.0
173 0.0
179 0.00098
137 0.000967
60 0.0
43 0.0
53 0.001021
53 0.000998
45 0.000997
47 0.001858
59 0.003992
61 0.004985
61 0.004986
68 0.004989
74 0.004989
85 0.005023
91 0.00502
99 0.005028
108 0.005002
113 0.006984
120 0.006958
131 0.006977
138 0.006979
148 0.00698
154 0.006991
165 0.007021
147 0.007011
87 0.006979
49 0.007015
53 0.007119
57 0.007032
47 0.006991
46 0.005984
55 0.006996
64 0.006984
64 0.006984
69 0.006018
80 0.002991
86 0.002037
96 0.001011
105 0.0
109 0.0
116 0.0
121 0.0
132 0.0
142 0.001964
148 0.000989
158 0.000986
166 0.002035
171 0.001995
180 0.002014
186 0.002987
168 0.002993
85 0.002992
58 0.002961
64 0.002993
66 0.002992
59 0.003042
57 0.004952
65 0.004998
74 0.005024
74 0.004988
77 0.004981
85 0.005029
92 0.005045
100 0.004988
108 0.004976
112 0.00495
119 0.005017
127 0.006028
132 0.006024
141 0.006016
146 0.007027
155 0.006985
161 0.00701
166 0.006984
172 0.007016
180 0.006982
181 0.007015
100 0.006981
66 0.006988
66 0.006981
77 0.004982
73 0.005016
70 0.005018
81 0.005029
86 0.003971
87 0.002006
94 0.001029
100 0.0
108 0.001
117 0.003023
122 0.003027
129 0.002979
137 0.003041
142 0.004008
151 0.005021
159 0.007013
167 0.006984
172 0.006993
180 0.005984
185 0.005028
191 0.004986
199 0.004023
203 0.003979
133 0.0
70 0.0
63 0.0
74 0.000998
68 0.001964
61 0.00197
66 0.001995
75 0.001995
80 0.001964
81 0.001995
86 0.001991
98 0.003036
105 0.004986
113 0.005019
118 0.005022
124 0.005017
132 0.004995
141 0.005023
147 0.004996
158 0.00702
167 0.007012
171 0.007979
179 0.005985
185 0.006015
189 0.006015
197 0.004993
200 0.004987
149 0.005019
65 0.006024
61 0.00601
78 0.004994
82 0.004986
75 0.005008
80 0.005987
87 0.005018
88 0.00503
92 0.004113
97 0.00399
111 0.001994
121 0.001
125 0.002033
132 0.0
136 0.00201
145 0.001046
154 0.002001
162 0.000999
172 0.000997
177 0.0
186 0.002026
192 0.0
195 0.0
201 0.0
208 0.001002
198 0.001023
82 0.001013
56 0.000998
61 0.000867
67 0.000963
60 0.001954
54 0.004035
64 0.006022
70 0.006981
72 0.006997
74 0.006016
79 0.006097
90 0.005996
100 0.004996
105 0.00498
113 0.00399
120 0.002996
126 0.002182
137 0.001995
144 0.002033
155 0.00199
162 0.002991
167 0.000997
172 0.002031
178 0.001016
182 0.000952
171 0.0
102 0.0
44 0.001007
51 0.002995
62 0.002993
60 0.004041
55 0.004988
60 0.004909
63 0.005049
63 0.004942
65 0.005937
71 0.005021
77 0.005023
83 0.004989
88 0.005025
90 0.006024
95 0.006016
102 0.006043
108 0.005996
117 0.007014
125 0.006981
131 0.005021
138 0.005
147 0.003027
144 0.001996
52 0.000998
22 0.000957
24 0.001016
31 0.000997
24 0.0
18 0.000953
28 0.0
34 0.0
35 0.0
36 0.0
45 0.000998
54 0.001995
59 0.003004
66 0.00399
76 0.005987
84 0.00702
88 0.007022
97 0.006011
104 0.005984
111 0.004025
118 0.003986
128 0.001995
136 0.001994
105 0.0
49 0.000998
37 0.001006
46 0.001
44 0.002993
37 0.00203
39 0.004026
47 0.003029
49 0.004837
50 0.006984
57 0.005997
62 0.004984
70 0.004989
74 0.004023
79 0.004973
85 0.006033
89 0.004987
95 0.005984
101 0.004993
107 0.005996
117 0.004024
118 0.004031
70 0.002935
43 0.000997
47 0.002034
50 0.0
40 0.0
40 0.000998
55 0.000903
57 0.0
56 0.000967
63 0.0
66 0.000997
74 0.000988
81 0.000997
88 0.0
94 0.0
98 0.000998
107 0.001993
117 0.002028
123 0.00204
133 0.002016
142 0.002994
150 0.004022
158 0.005986
112 0.00602
81 0.006023
77 0.007046
85 0.006981
79 0.007978
73 0.005988
76 0.005977
90 0.005018
91 0.003993
91 0.003983
99 0.003984
107 0.002993
112 0.003002
122 0.002994
127 0.00198
134 0.003039
140 0.002992
146 0.0
151 0.002034
157 0.003952
163 0.003978
170 0.005023
177 0.005977
169 0.007015
141 0.007978
92 0.006241
98 0.003998
103 0.005028
95 0.003997
96 0.002991
103 0.002043
103 0.002035
103 0.0
106 0.001005
113 0.0
117 0.001006
123 0.00303
127 0.002855
130 0.002993
135 0.004985
141 0.007016
149 0.007977
152 0.00703
160 0.007023
163 0.007013
172 0.007019
182 0.006098
170 0.007037
101 0.006031
88 0.004994
95 0.00398
92 0.004025
86 0.00403
88 0.002944
101 0.003026
102 0.004027
102 0.002994
105 0.004026
113 0.002974
120 0.003045
125 0.00198
130 0.003025
135 0.003023
139 0.003024
146 0.003147
151 0.00306
159 0.002046
166 0.001068
172 0.002
179 0.000965
187 0.000998
196 0.0
192 0.000997
144 0.000997
96 0.001042
104 0.0019
108 0.002
98 0.001996
97 0.002029
106 0.002049
110 0.001995
108 0.003982
111 0.00396
119 0.00399
123 0.005017
129 0.005022
133 0.005984
137 0.005991
141 0.006011
148 0.006011
152 0.006028
158 0.006024
161 0.006014
169 0.005973
179 0.005989
181 0.005955
117 0.006015
89 0.006028
88 0.005982
93 0.007026
86 0.007015
81 0.00699
92 0.006983
98 0.006981
96 0.007035
98 0.007016
106 0.004985
114 0.004023
119 0.004001
126 0.000997
131 0.000964
137 0.002994
141 0.002993
149 0.002994
154 0.003009
163 0.002995
171 0.002993
174 0.002993
183 0.002954
192 0.003027
192 0.003027
107 0.002884
80 0.002993
83 0.002957
88 0.002992
80 0.00399
77 0.004988
84 0.005008
93 0.004987
92 0.004986
95 0.004821
102 0.005019
112 0.005018
117 0.005031
126 0.004989
131 0.004988
139 0.00603
149 0.005922
156 0.007014
166 0.007011
175 0.006977
179 0.006977
186 0.006971
190 0.006979
200 0.00498
203 0.005988
150 0.004968
84 0.005019
88 0.006015
98 0.004988
98 0.00599
92 0.00502
100 0.004023
104 0.003023
104 0.003142
108 0.00301
119 0.002043
125 0.001995
133 0.0
140 0.0
142 0.000998
149 0.001872
158 0.003989
164 0.003963
176 0.006019
185 0.00704
189 0.00695
197 0.005987
206 0.004999
209 0.005017
171 0.004987
88 0.004992
69 0.001991
81 0.001995
83 0.001992
75 0.001989
75 0.002063
83 0.000998
89 0.0
89 0.0
93 0.0
101 0.0
111 0.001
115 0.001964
122 0.001983
128 0.003996
133 0.005989
143 0.006018
154 0.005983
160 0.005985
171 0.005982
176 0.005984
185 0.006017
194 0.006987
201 0.006993
161 0.00703
81 0.007013
67 0.006981
81 0.007013
83 0.007978
72 0.007785
76 0.007012
85 0.007978
87 0.00599
86 0.007977
91 0.007015
101 0.005979
107 0.005988
116 0.00598
119 0.005985
124 0.005987
131 0.003988
135 0.003984
144 0.004043
152 0.004973
162 0.00298
170 0.004987
146 0.003025
80 0.00502
64 0.003989
70 0.003987
71 0.002992
64 0.001961
68 0.002999
79 0.002026
79 0.003024
81 0.000999
88 0.001007
95 0.0
104 0.0
111 0.0
115 0.0
121 0.0
127 0.0
136 0.0
145 0.000997
154 0.0
161 0.0
172 0.002016
179 0.002827
159 0.003026
100 0.002994
65 0.002958
74 0.002993
76 0.003005
67 0.004012
66 0.004988
73 0.006016
80 0.005981
80 0.007016
83 0.006952
93 0.004986
101 0.00402
107 0.00402
113 0.002996
117 0.002981
125 0.00299
132 0.004023
141 0.002994
148 0.00199
156 0.001995
162 0.001031
172 0.001
180 0.0
154 0.000999
77 0.0
66 0.000997
76 0.0
71 0.0
67 0.0
69 0.0
77 0.0
80 0.0
82 0.0
87 0.0
98 0.000966
109 0.00196
114 0.002992
122 0.004987
129 0.005019
134 0.004992
143 0.007012
151 0.007021
157 0.006986
167 0.006979
174 0.006941
178 0.007996
101 0.00798
78 0.00794
69 0.006981
71 0.007989
65 0.007941
58 0.006977
62 0.007979
74 0.005984
74 0.005982
77 0.003964
88 0.00403
96 0.003989
106 0.003991
114 0.001999
118 0.001999
125 0.00199
134 0.002998
142 0.001993
151 0.002028
161 0.001965
166 0.002005
176 0.001995
183 0.001995
192 0.001995
115 0.0
74 0.001991
68 0.0
74 0.001028
67 0.0
60 0.0
65 0.0
77 0.000998
77 0.000967
78 0.0
87 0.0
94 0.0
104 0.0
112 0.001003
116 0.00099
123 0.002959
130 0.005018
139 0.006015
147 0.006015
156 0.007012
158 0.007973
168 0.007981
179 0.005983
184 0.006981
114 0.005982
75 0.006982
69 0.005984
79 0.00599
74 0.005976
69 0.006017
76 0.005018
84 0.002986
84 0.002994
88 0.002997
100 0.00299
108 0.003956
115 0.002993
120 0.004027
125 0.002998
131 0.003989
139 0.003983
145 0.003993
155 0.002012
162 0.0
166 0.002004
172 0.0
176 0.001996
187 0.0
191 0.000199
152 0.000997
63 0.001004
57 0.00103
64 0.000998
60 0.000998
53 0.001008
59 0.001016
70 0.000998
70 0.001963
72 0.003009
82 0.003989
89 0.004037
99 0.003965
105 0.003999
114 0.003991
121 0.004023
130 0.004028
138 0.003978
151 0.004034
158 0.00399
169 0.003971
176 0.003999
186 0.004049
194 0.003998
201 0.003906
206 0.003955
154 0.005045
70 0.00502
69 0.004984
78 0.004986
75 0.006017
69 0.007024
79 0.006841
83 0.007012
84 0.006967
88 0.007016
98 0.007016
104 0.007012
112 0.007942
121 0.005982
126 0.006028
134 0.003997
143 0.003009
148 0.001985
160 0.002028
166 0.002028
176 0.000997
186 0.00103
191 0.002007
200 0.000991
209 0.000994
212 0.0
123 0.0
56 0.000996
56 0.001993
67 0.001995
64 0.001995
53 0.001994
60 0.002994
70 0.004
73 0.005019
76 0.007007
80 0.007926
91 0.00797
102 0.00698
109 0.007978
117 0.00602
125 0.005984
131 0.006013
142 0.005986
149 0.004972
162 0.005022
173 0.003988
181 0.002999
190 0.002991
198 0.003989
208 0.002994
214 0.003984
165 0.002999
75 0.003026
59 0.002985
68 0.00299
72 0.00297
62 0.001153
66 0.002992
80 0.001983
83 0.003015
85 0.000984
95 0.000994
103 0.0
116 0.000963
124 0.001004
130 0.000998
138 0.001009
144 0.001024
153 0.000998
164 0.002994
170 0.003007
179 0.003864
186 0.00402
193 0.004029
202 0.004988
206 0.004046
145 0.004078
64 0.003023
60 0.003992
75 0.005028
76 0.006982
72 0.006949
80 0.006979
84 0.005981
84 0.005003
90 0.003003
103 0.001008
111 0.001003
121 0.0
128 0.001949
136 0.001976
142 0.002024
151 0.000998
162 0.001995
174 0.002991
182 0.002024
193 0.002036
199 0.00203
207 0.002038
217 0.00095
223 0.002028
179 0.000968
79 0.0
57 0.001026
68 0.002992
73 0.002994
66 0.003026
65 0.003991
75 0.002992
83 0.004053
85 0.004028
89 0.003991
103 0.00399
110 0.003953
121 0.003993
130 0.004021
136 0.004042
146 0.003955
155 0.003956
165 0.004987
172 0.005985
182 0.005947
189 0.006523
198 0.006988
204 0.006979
211 0.006982
203 0.005986
130 0.007017
58 0.004945
65 0.004012
73 0.004985
69 0.004988
65 0.003977
74 0.004029
78 0.003019
79 0.002003
83 0.004028
95 0.001995
100 0.002037
110 0.002026
118 0.000975
123 0.0
129 0.000968
139 0.0
147 0.0
160 0.001813
167 0.002959
177 0.002992
186 0.003033
193 0.002992
193 0.002994
128 0.00303
48 0.004001
49 0.00502
56 0.00502
50 0.006959
44 0.005988
49 0.005968
62 0.003987
65 0.005984
66 0.003989
75 0.006117
87 0.004047
92 0.002971
103 0.003027
112 0.002051
118 0.003003
125 0.001022
135 0.002017
146 0.0
157 0.000982
163 0.0
175 0.0
188 0.000977
182 0.0
82 0.0
56 0.0
58 0.000964
67 0.002036
62 0.0
55 0.0
69 0.001995
74 0.003032
74 0.002996
76 0.003033
84 0.00299
91 0.002992
97 0.002994
101 0.003007
104 0.002995
108 0.003045
115 0.004982
122 0.005979
138 0.007986
149 0.005015
152 0.004021
155 0.004023
164 0.003989
169 0.003991
95 0.003986
57 0.004001
65 0.003985
79 0.00399
78 0.003025
76 0.005024
99 0.00499
114 0.005023
123 0.00502
133 0.001994
141 0.00399
153 0.002001
157 0.004024
162 0.002006
167 0.001993
169 0.002034
177 0.001045
183 0.000961
195 0.0
204 0.001019
209 0.0
181 0.0
109 0.002027
92 0.002002
102 0.00399
106 0.003941
99 0.00395
105 0.004051
111 0.00398
109 0.004983
112 0.006619
122 0.006018
130 0.006979
144 0.006987
149 0.00695
158 0.006982
166 0.006981
171 0.006979
182 0.006981
190 0.007022
200 0.005998
188 0.003991
97 0.001995
84 0.002022
96 0.002015
101 0.001998
95 0.00199
100 0.002992
108 0.000956
109 0.000998
110 0.00201
115 0.002048
128 0.0
138 0.000963
144 0.001034
152 0.000998
158 0.000969
165 0.000997
176 0.000997
183 0.000997
197 0.001995
207 0.001874
216 0.002026
122 0.002035
76 0.002992
73 0.00399
84 0.003988
79 0.004032
73 0.003983
80 0.003949
94 0.004992
95 0.006994
96 0.006979
107 0.006976
119 0.006808
127 0.006973
137 0.007018
142 0.006983
151 0.00698
159 0.006625
168 0.007981
178 0.006947
189 0.005985
198 0.005982
211 0.006027
219 0.006014
150 0.005983
73 0.005059
74 0.004985
90 0.004953
88 0.005986
80 0.002998
88 0.004987
101 0.002996
100 0.003024
102 0.001996
108 0.003025
121 0.001969
134 0.001005
141 0.002033
147 0.0
157 0.000963
164 0.001998
175 0.001995
185 0.002989
193 0.003989
207 0.003959
208 0.003958
109 0.003953
68 0.003983
76 0.004006
85 0.005006
76 0.006003
78 0.006983
93 0.006982
97 0.006983
96 0.006978
103 0.006998
113 0.006987
121 0.007975
135 0.007981
138 0.00798
147 0.007975
153 0.007972
162 0.007979
173 0.005986
180 0.006975
191 0.003996
203 0.003988
210 0.002028
211 0.001997
96 0.001993
65 0.002025
74 0.00098
84 0.00099
78 0.002026
75 0.002034
87 0.0
95 0.0
97 0.000997
101 0.000998
115 0.000998
124 0.000964
134 0.000998
146 0.000993
152 0.001003
161 0.002003
173 0.002908
182 0.00301
196 0.002991
202 0.002984
214 0.003995
226 0.004987
232 0.00599
147 0.005986
76 0.005985
80 0.005986
101 0.005992
102 0.005989
98 0.006977
105 0.007978
108 0.005985
108 0.007982
117 0.007974
127 0.006974
139 0.008011
145 0.006982
154 0.007017
164 0.005987
169 0.007148
180 0.005985
193 0.006015
201 0.004969
212 0.003986
222 0.001965
227 0.002
203 0.0
87 0.001995
53 0.0
64 0.00106
74 0.0
67 0.001991
66 0.001036
76 0.0
86 0.000997
86 0.002011
91 0.002986
100 0.003029
113 0.002994
122 0.00296
132 0.004006
138 0.004018
148 0.005981
160 0.005977
167 0.005985
181 0.00598
190 0.006952
197 0.005974
205 0.003989
215 0.003988
219 0.003992
163 0.001995
55 0.001995
38 0.001995
54 0.001995
61 0.001963
51 0.001999
55 0.001995
65 0.002025
71 0.000994
73 0.0
77 0.0
91 0.000998
101 0.001032
115 0.002993
126 0.004985
137 0.004961
144 0.004993
159 0.00598
168 0.005991
177 0.004996
188 0.003981
195 0.004987
202 0.002989
209 0.003022
217 0.00199
193 0.0
57 0.001001
40 0.000995
58 0.000998
72 0.00085
70 0.000997
73 0.001996
79 0.002037
79 0.001993
82 0.001997
89 0.001999
107 0.001994
121 0.001988
129 0.001996
140 0.002031
149 0.001988
156 0.001963
169 0.002009
177 0.002995
189 0.003021
197 0.002995
201 0.002953
210 0.00302
214 0.002995
123 0.002992
33 0.004986
25 0.004987
39 0.004027
41 0.004985
34 0.00498
41 0.006024
52 0.006046
57 0.006022
59 0.006982
66 0.00798
82 0.004991
99 0.003967
107 0.001985
119 0.0
129 0.0
137 0.0
151 0.0
163 0.001977
174 0.000955
184 0.002024
193 0.001995
198 0.001995
208 0.00101
205 0.002978
95 0.003961
28 0.002994
29 0.003855
43 0.00401
43 0.00396
37 0.003981
48 0.004035
58 0.004023
61 0.003958
67 0.004031
74 0.004029
92 0.003992
106 0.004988
113 0.00598
124 0.006924
133 0.006968
140 0.00598
152 0.006976
161 0.005986
171 0.006975
183 0.00598
190 0.004979
202 0.00499
173 0.002994
82 0.002991
33 0.001992
48 0.001997
57 0.001996
53 0.002001
53 0.002007
63 0.000996
67 0.0
69 0.0
81 0.0
100 0.0
111 0.0
124 0.0
130 0.0
141 0.001998
151 0.003941
159 0.003962
172 0.004999
183 0.007016
193 0.007951
198 0.006983
207 0.006138
216 0.001995
217 0.003013
97 0.0
25 0.0
29 0.0
44 0.0
42 0.0
32 0.000989
43 0.0
53 0.001001
55 0.001011
62 0.000999
71 0.001012
88 0.000999
97 0.001
110 0.001988
121 0.002994
128 0.003037
140 0.003994
152 0.003039
163 0.003997
175 0.003865
186 0.003977
194 0.004024
204 0.005019
212 0.00502
219 0.00499
101 0.004988
43 0.005028
36 0.004986
47 0.005994
50 0.006034
41 0.005995
48 0.006014
59 0.006982
60 0.007958
62 0.003991
74 0.006037
91 0.005002
99 0.00399
112 0.002999
123 0.0
130 0.000968
139 0.0
153 0.002958
161 0.003991
172 0.004041
184 0.004944
192 0.006016
185 0.006983
76 0.005982
28 0.005994
23 0.005025
34 0.003028
30 0.002992
25 0.002981
38 0.004043
50 0.002038
50 0.002994
57 0.00199
71 0.001996
90 0.000994
99 0.000993
113 0.001998
124 0.000968
130 0.002044
145 0.0
154 0.0
167 0.0
180 0.0
187 0.0
197 0.0
204 0.0
215 0.002026
186 0.002972
48 0.004018
29 0.005026
42 0.005028
48 0.004988
39 0.006016
41 0.006983
52 0.00601
63 0.006987
62 0.006983
69 0.004984
83 0.007129
101 0.006978
111 0.005984
122 0.00502
132 0.001995
138 0.002988
151 0.001998
160 0.001988
174 0.0
183 0.0
189 0.0
202 0.001996
210 0.003008
102 0.005033
48 0.006016
41 0.005955
55 0.006029
62 0.005981
56 0.00602
66 0.005952
72 0.007709
70 0.006986
75 0.004989
90 0.004022
111 0.002983
120 0.003993
132 0.002009
138 0.0
144 0.0
153 0.0
167 0.001052
175 0.0
188 0.0
198 0.003027
204 0.003961
212 0.005017
219 0.005989
193 0.006976
66 0.006969
24 0.006937
23 0.006981
34 0.006982
27 0.005985
20 0.005967
35 0.005964
42 0.00603
41 0.006978
45 0.005952
59 0.006017
77 0.002985
86 0.004989
100 0.002955
111 0.003001
118 0.002996
132 0.002995
141 0.002992
157 0.002972
171 0.002991
179 0.002992
190 0.003011
198 0.002131
209 0.002992
190 0.004026
72 0.002995
27 0.004031
33 0.001995
49 0.002991
43 0.003024
40 0.003002
53 0.001994
57 0.001012
56 0.002041
66 0.0
80 0.0
89 0.000967
103 0.000998
114 0.003
120 0.003027
131 0.004019
146 0.00594
154 0.006983
167 0.006969
176 0.006984
189 0.00698
167 0.005982
84 0.005022
22 0.003984
26 0.005023
34 0.002979
27 0.003019
24 0.001982
35 0.003991
47 0.002001
49 0.002996
56 0.001994
72 0.001997
81 0.002012
95 0.0
105 0.000997
113 0.0
121 0.0
134 0.0
144 0.0
158 0.00203
170 0.002961
179 0.003938
192 0.00399
199 0.004025
143 0.003984
53 0.003992
34 0.004021
46 0.003992
48 0.004983
39 0.005984
43 0.006016
53 0.006035
57 0.006944
60 0.005016
64 0.006982
78 0.004022
90 0.002994
96 0.002976
103 0.002999
112 0.002993
118 0.003011
129 0.002007
135 0.001994
144 0.002013
154 0.002955
165 0.001036
169 0.003033
80 0.002993
43 0.00302
39 0.002036
48 0.0
43 0.000997
39 0.00203
51 0.002992
54 0.00399
54 0.004038
59 0.005029
73 0.00595
84 0.005013
95 0.006159
100 0.005968
107 0.006039
113 0.005963
123 0.005988
136 0.004989
144 0.002958
156 0.001999
164 0.00399
175 0.001996
184 0.003029
181 0.002032
97 0.003028
43 0.00304
46 0.00304
53 0.002992
40 0.000965
37 0.0
48 0.0
57 0.002022
55 0.002031
60 0.002042
67 0.002039
81 0.002987
94 0.00395
100 0.003992
111 0.00398
122 0.00402
130 0.004027
144 0.004955
155 0.006017
167 0.005732
175 0.005951
185 0.006857
197 0.005987
206 0.006021
166 0.006026
70 0.005981
56 0.005981
68 0.006026
65 0.006847
58 0.007979
60 0.004985
67 0.005934
65 0.005991
65 0.004987
71 0.004983
82 0.003991
93 0.002028
100 0.002993
107 0.001997
113 0.002993
118 0.001993
127 0.003023
141 0.00296
147 0.002984
157 0.0
168 0.001003
176 0.001996
139 0.002007
51 0.002995
36 0.00399
43 0.004024
33 0.006023
24 0.006035
31 0.005982
41 0.005982
45 0.005979
48 0.005983
54 0.00597
69 0.005952
76 0.006014
86 0.005984
94 0.00595
100 0.005981
110 0.00499
120 0.006018
130 0.003022
143 0.004987
158 0.004987
166 0.005023
178 0.005985
187 0.004999
197 0.004977
119 0.001033
66 0.003022
49 0.002039
62 0.00096
58 0.000966
47 0.000997
58 0.000998
68 0.000967
69 0.000997
71 0.001013
82 0.00102
98 0.001028
105 0.000998
116 0.002987
124 0.002992
130 0.002954
139 0.002985
150 0.002851
159 0.002955
171 0.004035
179 0.004032
194 0.00399
208 0.00596
189 0.005978
84 0.006441
59 0.00694
67 0.00697
71 0.006662
64 0.00698
63 0.006967
77 0.006791
77 0.00698
81 0.006981
87 0.006949
102 0.005023
114 0.005985
124 0.004986
131 0.006023
140 0.005982
147 0.005979
159 0.005984
168 0.004987
179 0.003995
190 0.0
195 0.002025
203 0.000969
212 0.0
218 0.0
232 0.0
152 0.002994
76 0.003985
43 0.004957
57 0.004987
55 0.004985
38 0.004994
49 0.005021
59 0.005019
62 0.004988
65 0.005038
79 0.007018
90 0.007979
103 0.003977
113 0.005984
124 0.006014
132 0.005984
145 0.005988
159 0.003987
170 0.004968
187 0.001989
196 0.003989
210 0.002002
221 0.001996
228 0.0
242 0.0
244 0.000999
110 0.002995
63 0.00442
63 0.004952
78 0.005989
77 0.006979
67 0.007014
77 0.006979
84 0.006954
82 0.007015
87 0.007005
103 0.00699
114 0.004984
123 0.006004
135 0.003966
141 0.006018
151 0.004063
163 0.003991
172 0.002992
187 0.002992
202 0.002011
210 0.002005
225 0.002013
231 0.001994
166 0.001979
73 0.002993
53 0.001997
64 0.002994
63 0.001995
51 0.002043
53 0.002103
63 0.001995
68 0.002004
69 0.0
75 0.001997
88 0.000995
105 0.000998
113 0.000998
123 0.00201
132 0.003004
138 0.002991
151 0.003027
159 0.00296
173 0.003972
186 0.005995
193 0.005985
204 0.005983
218 0.005979
223 0.005983
117 0.005985
59 0.005986
46 0.00598
58 0.006975
56 0.006975
46 0.007019
51 0.007942
61 0.005983
65 0.005984
68 0.003008
75 0.004033
91 0.000998
105 0.001996
111 0.001994
123 0.001992
129 0.001993
141 0.002006
155 0.002002
164 0.001999
176 0.001995
183 0.00097
194 0.001994
203 0.00214
212 0.001997
225 0.002028
207 0.002028
76 0.002
50 0.0
62 0.001994
73 0.0
65 0.001001
66 0.001005
74 0.002001
72 0.002004
75 0.001997
87 0.002006
97 0.002002
110 0.00403
121 0.003988
128 0.003993
137 0.004037
148 0.00399
155 0.003989
169 0.00399
177 0.004981
190 0.004985
199 0.004987
208 0.004984
219 0.005023
195 0.007092
102 0.007965
38 0.005985
40 0.003037
49 0.005022
42 0.003008
35 0.0
46 0.00101
58 0.0
57 0.001992
61 0.002973
76 0.003007
93 0.003987
101 0.005022
112 0.004994
122 0.003955
129 0.005018
142 0.004998
151 0.004984
167 0.005019
180 0.004858
191 0.005986
201 0.007974
216 0.00798
223 0.007977
234 0.007972
242 0.006982
193 0.006977
58 0.002994
40 0.004986
57 0.002993
60 0.002001
52 0.001997
56 0.001995
72 0.002961
73 0.0
74 0.0
88 0.0
100 0.0
116 0.002041
128 0.002996
133 0.004021
139 0.003991
149 0.003992
161 0.00402
174 0.003957
182 0.003955
194 0.005033
206 0.006983
214 0.007012
226 0.00698
191 0.005947
78 0.004983
42 0.004989
51 0.005948
62 0.004998
50 0.004986
54 0.004002
68 0.004991
70 0.004987
72 0.003992
81 0.005993
97 0.00399
109 0.005986
121 0.006023
127 0.005019
136 0.003987
148 0.001998
156 0.002057
171 0.000985
181 0.001995
193 0.000998
205 0.001963
215 0.002997
222 0.003989
234 0.004033
233 0.003992
92 0.003974
37 0.003988
43 0.003989
57 0.004987
44 0.005983
40 0.005981
52 0.006955
61 0.00698
62 0.005033
65 0.004021
82 0.002993
92 0.002995
106 0.003023
118 0.0
124 0.001996
136 0.0
143 0.002072
159 0.0
176 0.001022
184 0.001012
198 0.0
211 0.001003
217 0.002019
229 0.002002
243 0.003988
245 0.003974
109 0.004014
59 0.004038
57 0.002986
76 0.00402
73 0.003996
65 0.004988
76 0.004984
77 0.006949
76 0.007964
82 0.005022
90 0.006977
105 0.002999
115 0.002017
119 0.001978
127 0.000955
133 0.0
139 0.00101
151 0.002031
165 0.001999
173 0.002046
184 0.00303
197 0.005014
206 0.005032
190 0.006016
102 0.004991
35 0.005949
34 0.007979
43 0.005972
41 0.007981
28 0.007979
34 0.007978
50 0.004971
50 0.003027
53 0.005008
67 0.002977
79 0.005023
93 0.002989
104 0.002993
110 0.002989
120 0.00206
132 0.002075
141 0.001997
156 0.002023
165 0.001032
179 0.001008
188 0.003045
199 0.001985
210 0.001997
181 0.002034
92 0.002026
32 0.001995
36 0.002009
50 0.001999
40 0.0
33 0.0
45 0.000989
56 0.002029
56 0.003024
65 0.002999
74 0.002994
91 0.00305
106 0.002994
115 0.004068
126 0.003
139 0.00505
148 0.005016
163 0.00499
180 0.006941
185 0.006168
199 0.004991
210 0.005963
224 0.002778
235 0.004984
212 0.002992
94 0.005038
50 0.004985
60 0.003997
78 0.002052
67 0.0
68 0.001999
78 0.0
75 0.0
77 0.0
88 0.001002
105 0.001995
113 0.002
125 0.002008
131 0.001008
140 0.002027
151 0.002972
159 0.002995
172 0.00299
181 0.005037
191 0.004988
203 0.004988
213 0.006949
166 0.006924
46 0.006984
28 0.007019
37 0.007026
43 0.005061
32 0.006983
30 0.003996
49 0.004945
52 0.003955
53 0.001993
67 0.00197
79 0.00197
95 0.001995
103 0.002024
115 0.001011
123 0.001994
131 0.0
145 0.000991
161 0.001962
172 0.005021
187 0.005985
197 0.005986
211 0.005946
225 0.00612
168 0.007979
84 0.007975
41 0.007949
56 0.002955
63 0.004988
52 0.002997
54 0.001955
67 0.001948
74 0.0
74 0.000998
82 0.001962
98 0.002994
113 0.005007
121 0.004945
130 0.004989
137 0.00611
145 0.007017
156 0.004981
166 0.005977
175 0.003987
185 0.005017
200 0.005046
207 0.005015
152 0.003025
54 0.0
45 0.002034
61 0.000988
58 0.0
52 0.0
64 0.0
72 0.0
71 0.0
75 0.000998
83 0.00198
100 0.001995
114 0.002015
121 0.002002
130 0.004038
138 0.004995
148 0.004949
159 0.004987
170 0.005033
182 0.004984
195 0.004988
202 0.00499
213 0.004987
226 0.005984
228 0.007979
128 0.005986
62 0.007979
43 0.005984
58 0.002992
55 0.002992
42 0.00399
56 0.0
65 0.0
65 0.0
70 0.002999
81 0.000964
94 0.0
108 0.0
116 0.0
127 0.0
134 0.001008
147 0.001996
160 0.003991
176 0.004996
185 0.004987
201 0.006047
208 0.005988
222 0.006023
235 0.006013
243 0.007975
200 0.005017
70 0.005023
53 0.00502
72 0.00502
80 0.00502
69 0.005024
75 0.005021
84 0.004959
83 0.00498
85 0.005962
96 0.004006
109 0.005025
119 0.002995
129 0.005024
138 0.005034
142 0.005017
151 0.005018
165 0.00203
173 0.002993
187 0.002024
195 0.002216
207 0.0
220 0.000998
139 0.002997
65 0.003029
35 0.003033
50 0.004977
50 0.004988
36 0.006024
39 0.00502
57 0.004987
59 0.00502
62 0.004984
73 0.006015
91 0.007971
100 0.007969
113 0.008
119 0.007979
128 0.00798
140 0.004003
147 0.005983
162 0.003995
179 0.003002
188 0.002969
201 0.003988
210 0.00399
226 0.002009
213 0.002005
117 0.00201
39 0.002015
44 0.003021
57 0.000983
52 0.002029
45 0.002034
56 0.002032
69 0.001995
70 0.002992
76 0.002993
90 0.00396
107 0.004026
116 0.004025
127 0.004988
135 0.00597
141 0.00702
153 0.00499
169 0.002958
176 0.00302
188 0.001982
196 0.001998
211 0.002974
222 0.003001
179 0.001995
56 0.001994
38 0.004035
55 0.0
61 0.002025
51 0.002045
59 0.0
71 0.00198
70 0.002992
75 0.004
89 0.004986
107 0.005976
116 0.00698
129 0.007397
135 0.007013
145 0.007979
155 0.005996
162 0.007983
178 0.004999
195 0.00399
203 0.003956
215 0.002946
229 0.004016
238 0.002961
236 0.002954
87 0.002026
39 0.002994
39 0.002997
53 0.0
48 0.0
39 0.0
52 0.002993
64 0.001951
64 0.0028
70 0.004026
86 0.004987
104 0.005018
113 0.005021
127 0.004987
134 0.004994
148 0.005974
163 0.005988
173 0.005966
191 0.005983
204 0.005996
213 0.005986
227 0.005959
239 0.006983
193 0.003983
192 0.005984
129 0.002987
88 0.005987
87 0.004986
95 0.00399
96 0.003026
93 0.001994
97 0.001989
101 0.000967
101 0.000997
104 0.0
114 0.0
121 0.000998
126 0.001995
132 0.001994
135 0.002002
141 0.002995
148 0.003004
153 0.002994
162 0.002994
169 0.002992
174 0.002993
183 0.002993
185 0.002999
123 0.003028
80 0.003972
75 0.005016
83 0.004988
83 0.005969
78 0.007955
83 0.007972
90 0.005982
91 0.007978
94 0.004989
98 0.007102
109 0.003973
118 0.003993
122 0.004014
129 0.003983
133 0.003985
140 0.003987
149 0.003958
154 0.003989
161 0.004986
169 0.004987
174 0.002004
182 0.002013
185 0.0
129 0.0
83 0.0
81 0.0
88 0.0
89 0.000998
84 0.000997
90 0.001964
98 0.001994
97 0.002981
101 0.004991
111 0.005814
117 0.005989
123 0.006983
130 0.006983
133 0.006983
138 0.006979
142 0.006977
149 0.006979
154 0.007976
160 0.005992
166 0.005997
174 0.006017
176 0.006982
118 0.005941
84 0.001989
87 0.003027
97 0.0
94 0.0
94 0.0
100 0.000998
101 0.001028
101 0.000995
107 0.002992
112 0.003009
120 0.002956
126 0.002851
129 0.002992
134 0.004008
139 0.004987
141 0.00697
151 0.00698
156 0.006965
160 0.00698
164 0.007977
172 0.005986
175 0.006029
137 0.003975
86 0.002015
84 0.003986
83 0.001993
83 0.003989
74 0.001984
83 0.000982
89 0.0
88 0.000947
91 0.000966
97 0.001017
107 0.001013
112 0.0
119 0.0
123 0.002031
127 0.0
134 0.0
143 0.000997
148 0.000997
157 0.001996
162 0.002997
169 0.002994
180 0.003948
186 0.005019
136 0.00494
80 0.004986
78 0.005019
88 0.006954
87 0.005987
81 0.004966
88 0.003984
94 0.003986
93 0.005014
95 0.002992
102 0.004026
110 0.001993
116 0.001961
121 0.0
125 0.0
131 0.001012
136 0.0
144 0.001017
148 0.000997
155 0.001995
163 0.004007
173 0.003943
171 0.004043
99 0.003989
73 0.003975
79 0.003968
87 0.003991
83 0.004911
83 0.004952
91 0.005974
90 0.005846
92 0.006014
97 0.006019
105 0.005984
114 0.005985
119 0.005987
126 0.004001
131 0.005978
136 0.002957
142 0.006099
152 0.005014
157 0.003981
167 0.004029
175 0.0
180 0.002026
189 0.0
127 0.0
93 0.000998
66 0.002993
75 0.003004
76 0.003028
66 0.003981
71 0.005987
76 0.00698
80 0.006992
81 0.005989
86 0.004009
97 0.003974
104 0.005003
113 0.003026
119 0.004988
124 0.001994
130 0.003989
140 0.003989
146 0.004023
156 0.00395
162 0.003989
171 0.004027
181 0.001976
186 0.004025
163 0.001995
78 0.0
65 0.0
73 0.0
79 0.0
73 0.000998
74 0.002993
84 0.003005
85 0.002993
84 0.002996
90 0.002956
102 0.002993
111 0.003025
118 0.003864
122 0.005975
127 0.006019
131 0.006014
140 0.005954
145 0.006017
154 0.006016
163 0.005984
170 0.007978
173 0.005984
100 0.004003
74 0.005024
76 0.005982
83 0.005022
79 0.003977
78 0.002002
88 0.003006
90 0.0
90 0.001995
95 0.000999
102 0.00203
111 0.002989
116 0.001997
123 0.002027
127 0.003031
134 0.000969
139 0.000998
146 0.000997
152 0.000997
160 0.000964
165 0.001988
176 0.003006
161 0.00299
111 0.003021
75 0.003025
79 0.002992
87 0.002991
79 0.003014
78 0.003958
90 0.003955
93 0.004982
93 0.00695
98 0.004989
105 0.006982
112 0.002988
118 0.004987
126 0.004987
130 0.004987
137 0.004986
142 0.004986
151 0.004986
159 0.002035
164 0.00399
173 0.00198
184 0.001987
189 0.0
127 0.0
94 0.0
90 0.000961
99 0.000997
99 0.000998
92 0.0
99 0.001001
100 0.001001
97 0.00198
99 0.001002
107 0.002001
114 0.005021
120 0.005019
124 0.004992
129 0.006979
133 0.00599
137 0.007975
144 0.003002
153 0.000972
158 0.003015
167 0.0
124 0.000688
87 0.000948
74 0.000827
83 0.001048
83 0.002033
75 0.002034
77 0.002039
88 0.002998
88 0.003986
89 0.002019
96 0.004093
104 0.004948
111 0.004988
118 0.005981
124 0.006981
128 0.008015
136 0.006973
145 0.003988
150 0.005017
159 0.002992
164 0.004987
175 0.002035
186 0.001978
182 0.002999
101 0.002
77 0.003003
83 0.001993
89 0.001995
82 0.002002
80 0.0
92 0.00202
96 0.0
95 0.0
101 0.002027
107 0.0
118 0.002024
124 0.00399
129 0.004928
132 0.005988
139 0.006973
142 0.007978
150 0.005347
158 0.003987
163 0.005984
174 0.002994
171 0.003988
124 0.001968
77 0.002041
80 0.003042
89 0.000961
89 0.003025
87 0.000973
95 0.0
96 0.000998
96 0.000998
102 0.002978
112 0.004987
123 0.005019
128 0.004987
135 0.004952
139 0.00495
146 0.005984
153 0.003987
158 0.006948
169 0.003998
178 0.003057
185 0.002995
196 0.002017
160 0.002973
100 0.00096
69 0.0
76 0.001032
81 0.0
75 0.002
76 0.001996
84 0.003689
90 0.003905
90 0.003966
97 0.005013
106 0.006031
119 0.005951
126 0.006991
135 0.007985
141 0.003021
146 0.005984
156 0.003005
163 0.006105
174 0.002989
185 0.000998
192 0.002964
205 0.001995
174 0.0
112 0.000958
82 0.0
88 0.0
101 0.0
96 0.00204
97 0.000991
104 0.0
104 0.0
105 0.000965
112 0.0
121 0.001981
129 0.003049
135 0.002998
140 0.003034
145 0.003026
151 0.003051
155 0.003035
163 0.005975
170 0.006014
178 0.007946
187 0.002993
155 0.002961
103 0.001994
80 0.000964
93 0.0
97 0.0
92 0.002025
95 0.0
101 0.001011
104 0.002026
105 0.001995
110 0.001992
118 0.004988
127 0.006982
133 0.004992
136 0.006981
142 0.00203
148 0.002006
152 0.002993
161 0.0
166 0.0
175 0.001989
184 0.0
195 0.000998
187 0.000999
102 0.003997
87 0.004982
92 0.005988
104 0.005016
98 0.007983
98 0.006023
109 0.007981
111 0.00602
111 0.006018
115 0.00602
121 0.006014
130 0.005973
136 0.002981
140 0.006158
145 0.003021
147 0.006018
153 0.004036
160 0.002947
163 0.001994
172 0.000967
180 0.002992
161 0.003002
94 0.001001
88 0.002027
100 0.000961
104 0.0
101 0.000999
105 0.002026
108 0.002066
108 0.001997
110 0.002993
116 0.002991
124 0.004012
130 0.003987
135 0.005013
138 0.006033
144 0.005979
147 0.005986
154 0.006018
161 0.006013
166 0.005981
174 0.006982
185 0.005978
168 0.00598
101 0.005984
80 0.004004
87 0.00299
95 0.003988
90 0.003039
89 0.002988
96 0.005044
99 0.00399
99 0.002992
105 0.003034
111 0.002989
120 0.000967
126 0.0
130 0.0
135 0.000999
138 0.002005
147 0.0
154 0.000994
159 0.00103
167 0.002011
178 0.001966
184 0.002001
152 0.001997
106 0.002048
86 0.001962
99 0.002031
102 0.003989
96 0.003988
101 0.005016
104 0.004987
103 0.004042
104 0.004905
110 0.004739
119 0.00602
123 0.007015
129 0.006977
133 0.005977
136 0.006985
141 0.005987
147 0.006985
152 0.004955
161 0.005985
168 0.005985
176 0.005942
119 0.004994
88 0.00404
85 0.002991
91 0.003956
91 0.004987
86 0.002995
94 0.003031
98 0.002993
97 0.0
99 0.000999
104 0.001996
112 0.002991
117 0.002971
122 0.002994
127 0.002995
130 0.003031
136 0.002998
144 0.004037
150 0.005018
158 0.005967
165 0.00498
171 0.005025
170 0.005008
106 0.003974
89 0.00397
96 0.002011
101 0.002999
95 0.003991
80 0.004986
90 0.002001
95 0.002994
93 0.003038
96 0.003028
105 0.002994
115 0.0
118 0.0
124 0.0
128 0.000955
134 0.0
143 0.000992
147 0.001997
155 0.001971
165 0.001995
171 0.001996
123 0.003963
71 0.004018
72 0.00395
84 0.003984
82 0.00499
76 0.005984
86 0.006988
90 0.006961
88 0.007979
93 0.006975
99 0.005988
110 0.005024
119 0.001969
123 0.005008
131 0.002949
133 0.005018
141 0.001997
151 0.001994
157 0.001998
167 0.001993
177 0.002995
184 0.001995
190 0.002993
146 0.00299
72 0.001997
69 0.004987
79 0.0
77 0.003002
69 0.002977
76 0.003009
87 0.003031
86 0.003038
89 0.002987
99 0.000997
108 0.001999
115 0.002008
124 0.001967
129 0.001994
137 0.001959
142 0.001995
152 0.003993
162 0.003949
170 0.00698
174 0.005046
188 0.006962
190 0.002953
148 0.003993
75 0.003018
69 0.003007
85 0.003003
85 0.003052
79 0.000997
87 0.000991
89 0.001969
88 0.002961
94 0.003972
105 0.003959
114 0.003957
121 0.004023
128 0.003991
132 0.004024
139 0.004023
148 0.004997
152 0.005982
164 0.005992
173 0.005991
180 0.005989
192 0.005999
181 0.003958
88 0.003986
63 0.006031
72 0.003989
77 0.006019
66 0.003984
67 0.003972
82 0.002992
85 0.0
85 0.002992
92 0.0
104 0.0
112 0.000982
123 0.000998
129 0.001
137 0.000998
146 0.002017
151 0.001986
163 0.001009
173 0.002001
181 0.002008
194 0.001995
202 0.001995
167 0.001959
82 0.003006
73 0.003003
88 0.002992
90 0.003043
80 0.002995
87 0.002994
94 0.002993
92 0.002993
95 0.00498
100 0.004987
112 0.004987
119 0.004989
127 0.004987
134 0.00599
139 0.006015
147 0.005977
153 0.005972
163 0.005984
174 0.005984
182 0.00595
193 0.005988
120 0.005973
74 0.005984
61 0.006003
72 0.006975
73 0.002997
64 0.005018
69 0.002959
80 0.00502
81 0.003992
82 0.003992
92 0.003997
104 0.00099
111 0.002992
119 0.0
128 0.0
134 0.0
142 0.0
150 0.0
161 0.0
172 0.000968
179 0.002961
195 0.002992
200 0.003959
148 0.00499
69 0.004986
67 0.00499
79 0.005986
77 0.00602
69 0.00599
76 0.007939
86 0.007977
86 0.00798
89 0.007978
97 0.004945
107 0.007962
115 0.004974
123 0.002963
129 0.002997
136 0.002997
141 0.002987
149 0.003038
159 0.002991
166 0.002992
180 0.0
182 0.002032
111 0.001036
63 0.001999
65 0.002993
73 0.003048
70 0.0
69 0.00105
79 0.001997
83 0.002001
84 0.001995
90 0.002013
102 0.00203
111 0.001995
122 0.002977
131 0.00399
135 0.004009
144 0.004983
152 0.005989
160 0.005996
171 0.004987
177 0.004987
188 0.005977
202 0.004988
209 0.004988
143 0.00498
71 0.006017
59 0.002999
71 0.004987
75 0.001991
66 0.004986
73 0.004984
82 0.004984
85 0.004989
89 0.001995
96 0.00399
110 0.00295
117 0.004021
127 0.001993
136 0.000963
142 0.0
150 0.000997
162 0.001988
168 0.002966
177 0.002025
187 0.003024
195 0.003032
206 0.002787
128 0.004039
78 0.005954
63 0.004998
77 0.005021
85 0.00795
78 0.006973
82 0.006983
90 0.006988
89 0.004989
93 0.007016
106 0.004991
120 0.00299
127 0.001995
136 0.001996
141 0.002991
150 0.002002
159 0.003
166 0.001994
179 0.002994
188 0.004024
198 0.002991
209 0.003026
216 0.002989
156 0.002952
65 0.002953
59 0.002993
75 0.003027
76 0.001962
66 0.002962
72 0.004027
85 0.003942
87 0.004021
90 0.003989
102 0.003978
111 0.005035
124 0.005986
134 0.004985
139 0.004987
149 0.00498
156 0.004985
168 0.004986
181 0.004992
188 0.003989
203 0.00499
216 0.006001
216 0.002012
119 0.004987
66 0.003008
67 0.003991
83 0.003992
82 0.003991
80 0.00296
90 0.000974
89 0.001995
88 0.000997
97 0.000966
106 0.001997
120 0.001995
129 0.001825
134 0.00202
142 0.001015
147 0.002011
157 0.001998
167 0.001961
175 0.001965
190 0.004051
199 0.002992
145 0.003007
55 0.003973
48 0.004002
61 0.003989
62 0.00399
52 0.004986
61 0.006016
72 0.006981
73 0.007028
76 0.006022
86 0.006973
97 0.006009
111 0.005967
117 0.004972
127 0.005101
137 0.004102
143 0.003023
153 0.002993
160 0.002998
171 0.0
181 0.001988
198 0.00198
197 0.002028
95 0.001995
60 0.001998
63 0.002983
73 0.0
67 0.002035
62 0.003945
77 0.005993
81 0.005984
79 0.007966
84 0.003991
97 0.002028
104 0.002987
115 0.002992
124 0.000999
130 0.00101
139 0.0
148 0.0
154 0.000995
164 0.002024
173 0.003954
181 0.004953
193 0.005995
178 0.007041
110 0.003987
60 0.006982
66 0.005027
76 0.003991
73 0.003997
77 0.001952
82 0.002992
80 0.000997
83 0.0
91 0.0
102 0.001037
114 0.002054
118 0.004036
126 0.00296
134 0.005982
138 0.006985
149 0.00591
153 0.005878
164 0.005989
178 0.003986
187 0.003981
167 0.002997
80 0.003988
48 0.003028
55 0.003031
62 0.001989
55 0.002007
53 0.001036
65 0.00205
70 0.000991
69 0.002987
78 0.001987
87 0.003985
101 0.001994
112 0.003975
118 0.003991
125 0.005971
135 0.006982
143 0.00695
153 0.005985
160 0.006154
173 0.004961
189 0.00698
195 0.005981
112 0.00697
53 0.007974
53 0.007011
68 0.006982
67 0.005951
57 0.004024
71 0.0
79 0.0
79 0.0
85 0.0
96 0.002027
104 0.002026
117 0.001995
126 0.004022
131 0.003959
139 0.003957
144 0.004988
155 0.005982
165 0.006971
170 0.004986
184 0.004023
192 0.007025
143 0.003986
72 0.005028
61 0.002992
72 0.002954
78 0.001993
75 0.000991
82 0.003042
87 0.001018
87 0.0
90 0.001995
103 0.004003
116 0.003992
123 0.003992
133 0.003955
141 0.004955
145 0.00598
155 0.005984
162 0.005952
171 0.005995
182 0.004986
190 0.004988
204 0.003958
207 0.008012
123 0.004001
64 0.005991
66 0.005019
77 0.003038
74 0.002992
70 0.002035
79 0.000999
87 0.00204
88 0.000995
91 0.000967
103 0.002028
112 0.001996
124 0.001995
134 0.001884
140 0.002033
150 0.001995
157 0.000995
170 0.0
184 0.001862
192 0.00204
205 0.001009
219 0.001997
227 0.002031
146 0.004029
73 0.005011
73 0.006041
92 0.007977
91 0.003026
86 0.005027
94 0.001145
97 0.0
95 0.0
99 0.003026
112 0.002032
119 0.003032
131 0.002989
140 0.004943
144 0.004957
152 0.003959
162 0.004989
169 0.004978
181 0.004983
189 0.004992
204 0.004993
215 0.006044
171 0.005983
77 0.004989
56 0.00599
67 0.007948
76 0.006991
66 0.003998
68 0.004043
81 0.003027
82 0.004021
83 0.003034
93 0.00298
100 0.0
113 0.000949
124 0.0
130 0.0
138 0.000954
146 0.002995
155 0.0
164 0.0
177 0.002057
184 0.002031
200 0.00204
211 0.002054
181 0.002999
77 0.00403
48 0.003991
59 0.003991
72 0.004021
66 0.004036
67 0.004009
75 0.003964
81 0.004951
82 0.003957
88 0.006975
101 0.003026
116 0.002944
124 0.001996
133 0.000973
141 0.002008
147 0.000997
157 0.004036
168 0.002024
175 0.003036
190 0.004012
205 0.0
188 0.0
88 0.002028
48 0.003991
56 0.004025
75 0.003968
73 0.004986
77 0.004991
82 0.005981
79 0.00502
82 0.004031
96 0.004
113 0.002969
123 0.002983
135 0.002988
140 0.00301
149 0.003993
157 0.007016
167 0.00299
180 0.005025
191 0.002976
202 0.005029
218 0.004947
226 0.004985
222 0.004026
75 0.0
39 0.003028
44 0.0
56 0.004
55 0.001012
49 0.0
57 0.0
68 0.001995
70 0.004999
81 0.004987
91 0.00499
108 0.004989
117 0.004945
130 0.004809
142 0.005837
149 0.005989
163 0.006031
173 0.006002
191 0.00596
202 0.005987
215 0.005982
229 0.005994
242 0.006013
197 0.005981
63 0.007015
46 0.007988
63 0.007964
74 0.004986
69 0.007013
71 0.004023
79 0.003994
77 0.003
79 0.0
93 0.0
103 0.0
118 0.000966
128 0.0
134 0.002033
143 0.004
152 0.003022
162 0.002954
173 0.002992
184 0.003788
197 0.004982
215 0.004986
209 0.005027
77 0.006031
39 0.005982
48 0.005991
60 0.006984
53 0.006953
50 0.00598
66 0.006
71 0.00602
71 0.003986
82 0.003966
92 0.003986
107 0.002991
117 0.005989
123 0.002992
132 0.002989
142 0.001994
149 0.001984
161 0.002025
169 0.002045
182 0.002999
198 0.0
208 0.002989
181 0.0
64 0.000999
47 0.001998
53 0.000998
63 0.002026
57 0.001962
57 0.002058
67 0.002993
72 0.003987
75 0.003814
80 0.004987
93 0.005979
108 0.004981
116 0.004979
125 0.004953
134 0.007331
139 0.003996
149 0.007025
159 0.006049
166 0.004975
180 0.003991
193 0.000965
180 0.002986
74 0.000968
45 0.001004
52 0.001998
66 0.002012
62 0.002
65 0.002048
75 0.001997
74 0.002014
78 0.001946
91 0.002993
101 0.003995
114 0.006003
123 0.006973
128 0.003977
137 0.004956
143 0.006979
151 0.003986
161 0.00703
167 0.007035
181 0.006962
197 0.00399
202 0.007979
114 0.002978
41 0.002989
40 0.002993
54 0.0
44 0.0
40 0.0
52 0.00201
62 0.002001
62 0.001997
70 0.002026
80 0.001995
96 0.002001
109 0.001998
116 0.002003
126 0.002012
132 0.002003
143 0.001988
154 0.002
163 0.002995
173 0.003003
189 0.002953
198 0.003034
179 0.003959
72 0.005984
50 0.00598
57 0.006009
66 0.004985
59 0.004988
61 0.00399
70 0.004007
71 0.002998
73 0.002997
80 0.002001
97 0.002971
107 0.004022
116 0.0
124 0.002992
133 0.002025
139 0.0
151 0.0
158 0.0
171 0.0
183 0.000997
195 0.002014
186 0.003989
81 0.005991
50 0.005988
55 0.007947
63 0.004988
54 0.007977
53 0.004028
70 0.003991
73 0.003985
73 0.004073
83 0.003973
94 0.00399
107 0.003989
114 0.003981
125 0.003991
134 0.007018
142 0.003996
153 0.006981
163 0.004981
173 0.006011
186 0.003997
197 0.003985
208 0.003989
119 0.002993
74 0.0
72 0.0
84 0.000967
77 0.0
73 0.0
83 0.0
91 0.000981
89 0.0
92 0.0
105 0.0
118 0.001993
124 0.00202
132 0.002028
137 0.001996
144 0.001851
150 0.002027
157 0.001982
166 0.001996
180 0.003995
181 0.004987
102 0.003991
63 0.005036
60 0.004989
70 0.003977
65 0.006988
63 0.004989
79 0.003987
80 0.003998
79 0.003996
91 0.003973
99 0.003994
113 0.002025
123 0.003986
130 0.002992
138 0.002997
148 0.002995
154 0.00299
167 0.003021
175 0.002989
188 0.001955
199 0.002035
210 0.002003
153 0.002993
63 0.003986
54 0.005032
68 0.00453
61 0.004986
54 0.005003
68 0.005981
79 0.005983
79 0.00499
84 0.004992
92 0.004977
108 0.004987
122 0.004048
129 0.004978
140 0.003985
149 0.006983
157 0.004956
168 0.006991
179 0.004125
189 0.006985
204 0.006991
215 0.006983
212 0.006973
142 0.006978
71 0.005979
79 0.003005
89 0.005986
81 0.002992
81 0.005983
95 0.003002
95 0.0
100 0.002999
112 0.0
126 0.002992
139 0.0
148 0.0
158 0.00011
163 0.000966
174 0.002005
181 0.002015
192 0.002005
205 0.001993
219 0.002993
214 0.001991
98 0.002008
64 0.002991
67 0.004022
71 0.00398
61 0.004941
64 0.006009
83 0.002992
87 0.003993
87 0.002034
101 0.0
112 0.0
128 0.001012
140 0.002982
145 0.0
155 0.001995
167 0.001994
177 0.001
193 0.002046
208 0.002032
224 0.001996
240 0.004019
239 0.003994
165 0.004027
84 0.004992
83 0.005978
95 0.00798
86 0.002986
86 0.002993
104 0.003002
125 0.001007
131 0.000963
140 0.000961
163 0.002989
182 0.002992
192 0.003017
202 0.00302
210 0.005005
215 0.004972
223 0.005984
233 0.006975
240 0.004984
252 0.007969
255 0.004982
255 0.00698
162 0.004982
104 0.0
112 0.002996
126 0.000992
117 0.0
121 0.0
139 0.001038
138 0.001028
137 0.0
152 0.00098
162 0.001996
177 0.002991
186 0.003978
191 0.004983
197 0.005944
204 0.00698
212 0.003981
223 0.004989
235 0.004981
185 0.004981
192 0.003985
199 0.00299
192 0.002982
123 0.000996
110 0.0
117 0.001013
118 0.0
111 0.0
114 0.001011
