155 0.030938
155 0.000975
161 0.000954
164 0.001227
150 0.001
87 0.000966
44 0.000946
40 0.00097
50 0.000997
56 0.00196
51 0.000999
49 0.000996
62 0.00099
70 0.001014
71 0.00205
71 0.001999
73 0.000986
80 0.000967
88 0.000959
94 0.001966
101 0.002994
107 0.001025
111 0.000998
115 0.000969
123 0.000996
129 0.000996
135 0.002005
142 0.001999
149 0.001994
157 0.002007
162 0.00199
136 0.001966
67 0.002
55 0.001961
62 0.001994
72 0.001979
77 0.001994
76 0.002026
83 0.001983
93 0.002007
94 0.001995
92 0.002035
94 0.002036
103 0.001007
113 0.002992
121 0.002953
130 0.001996
136 0.003025
143 0.001976
147 0.001995
152 0.001995
156 0.003036
163 0.001992
170 0.002007
175 0.001995
153 0.001995
92 0.001995
63 0.001987
62 0.002992
77 0.00305
78 0.002993
75 0.002992
81 0.002004
90 0.003023
91 0.002992
85 0.001987
87 0.001995
94 0.001994
105 0.002993
116 0.002992
128 0.002993
135 0.00396
140 0.002993
143 0.002959
147 0.002962
154 0.002956
157 0.003001
162 0.002958
145 0.002992
88 0.003044
61 0.003989
62 0.004023
72 0.003026
73 0.002993
71 0.002996
74 0.002992
82 0.003033
94 0.00399
93 0.003045
89 0.003948
89 0.002998
96 0.002023
106 0.003957
115 0.004005
124 0.002993
131 0.003934
137 0.002992
141 0.002992
144 0.002992
145 0.004027
145 0.003989
149 0.002987
151 0.003991
155 0.002992
157 0.003962
133 0.003961
44 0.002991
18 0.004333
23 0.002992
25 0.004025
22 0.003989
15 0.003023
17 0.00402
24 0.003986
37 0.002983
40 0.004024
42 0.004033
44 0.004954
49 0.005023
62 0.003957
70 0.003997
75 0.003928
82 0.004023
87 0.003991
94 0.004024
100 0.004031
106 0.00399
115 0.003024
122 0.003993
128 0.004988
132 0.004987
140 0.005049
144 0.004007
149 0.003989
153 0.004028
157 0.00399
159 0.003987
108 0.004988
27 0.002992
17 0.004
23 0.003988
36 0.004982
39 0.005019
34 0.005023
39 0.005037
50 0.00502
60 0.005018
65 0.003948
66 0.004987
68 0.004952
79 0.003955
88 0.003949
96 0.003978
105 0.004941
112 0.005018
121 0.005984
128 0.006018
135 0.005019
139 0.004952
145 0.004986
152 0.000999
157 0.004987
164 0.004037
168 0.003989
171 0.004032
175 0.005984
181 0.005021
185 0.006016
176 0.005984
84 0.00498
41 0.005021
38 0.005027
48 0.005984
59 0.006019
60 0.005015
56 0.004987
57 0.004996
69 0.004987
80 0.005024
83 0.005986
84 0.005985
89 0.005984
101 0.004987
109 0.004987
118 0.005982
126 0.005986
133 0.004986
139 0.005033
144 0.004033
148 0.006031
156 0.005974
161 0.005984
165 0.006017
169 0.006013
174 0.006016
178 0.005009
179 0.006023
184 0.00602
188 0.006008
186 0.004987
136 0.005032
64 0.004986
42 0.004986
54 0.006003
65 0.007016
68 0.006023
62 0.005984
63 0.005984
71 0.005998
83 0.006023
85 0.006023
87 0.005984
91 0.005988
99 0.006014
114 0.00598
122 0.00698
131 0.006079
137 0.005991
141 0.006016
148 0.006025
151 0.005973
155 0.006981
159 0.006996
165 0.005984
168 0.005984
172 0.005984
178 0.006972
181 0.006016
184 0.007014
187 0.007017
190 0.007024
178 0.006982
112 0.007016
40 0.007015
37 0.007014
49 0.006981
63 0.005984
64 0.00603
59 0.006937
64 0.006986
76 0.006982
78 0.00798
80 0.006981
83 0.007008
89 0.007016
98 0.007979
107 0.007978
117 0.006963
121 0.007015
126 0.007014
133 0.007031
137 0.006983
142 0.007014
146 0.006981
151 0.007979
155 0.007979
160 0.006982
164 0.007945
166 0.007929
170 0.006981
175 0.006981
178 0.006974
115 0.007014
50 0.00698
32 0.00798
40 0.007982
56 0.007013
69 0.007979
72 0.007979
73 0.007981
78 0.007979
82 0.00698
82 0.00698
87 0.007012
99 0.006982
106 0.007017
120 0.007984
125 0.007979
132 0.007018
137 0.007013
142 0.007014
145 0.007015
148 0.007979
151 0.007978
158 0.007005
163 0.007014
169 0.007948
172 0.007024
175 0.007977
177 0.007028
181 0.007032
183 0.00702
144 0.007018
66 0.006981
30 0.007022
30 0.007033
47 0.006981
57 0.006989
55 0.007974
54 0.007951
61 0.007975
70 0.007013
75 0.006979
76 0.007026
80 0.007018
89 0.006978
98 0.007015
107 0.007018
118 0.00702
125 0.007022
131 0.006947
135 0.001022
137 0.00793
143 0.007014
147 0.007023
153 0.007024
157 0.007026
161 0.00702
164 0.006986
167 0.006984
170 0.007013
175 0.006981
177 0.007015
138 0.005989
62 0.005992
27 0.005984
28 0.006027
44 0.007012
54 0.006981
54 0.006994
49 0.007014
52 0.007022
64 0.006972
71 0.006993
71 0.006007
76 0.006023
83 0.005982
92 0.006026
101 0.006014
112 0.006017
117 0.005985
121 0.006024
125 0.005984
130 0.006015
134 0.006982
139 0.007007
144 0.006988
148 0.005995
151 0.006018
154 0.006027
156 0.005986
160 0.006011
162 0.006025
165 0.005963
139 0.005984
68 0.006018
20 0.006024
29 0.004994
48 0.007011
53 0.005975
51 0.005986
50 0.006018
56 0.006025
63 0.006014
63 0.006014
65 0.006017
71 0.005984
80 0.005984
89 0.00601
104 0.005992
111 0.004987
118 0.00494
122 0.00502
126 0.006034
131 0.00602
134 0.006017
140 0.006021
145 0.006024
148 0.005989
151 0.005018
156 0.006025
164 0.005023
155 0.004985
70 0.005001
28 0.005033
23 0.005027
33 0.005025
43 0.005027
44 0.005985
40 0.005991
42 0.005984
51 0.005984
62 0.005973
63 0.004993
66 0.005023
73 0.004989
83 0.004978
94 0.005019
102 0.005013
108 0.004978
117 0.004987
121 0.005028
124 0.004986
130 0.004974
137 0.004969
143 0.004998
147 0.004995
152 0.004995
156 0.004987
160 0.005023
163 0.004986
167 0.005028
130 0.005034
57 0.005028
26 0.005042
27 0.00402
43 0.004061
44 0.004017
39 0.004035
39 0.004987
47 0.005009
56 0.005027
59 0.005021
59 0.005028
63 0.005027
70 0.005027
80 0.00399
89 0.004034
102 0.004006
107 0.003983
111 0.003988
117 0.003971
122 0.003981
126 0.004021
131 0.005018
136 0.004021
142 0.005043
145 0.00502
149 0.003976
152 0.00399
159 0.004001
153 0.004004
102 0.003986
34 0.00402
27 0.004027
37 0.003992
49 0.003991
52 0.003024
47 0.002957
51 0.002994
60 0.002994
65 0.004026
66 0.004025
69 0.003991
76 0.003991
87 0.003983
99 0.003972
107 0.003993
113 0.00399
119 0.002992
123 0.002993
130 0.002994
131 0.01293
140 0.003017
148 0.003012
152 0.003936
156 0.00394
161 0.004008
167 0.003985
170 0.00302
147 0.003045
79 0.002993
39 0.002997
37 0.003026
46 0.003026
52 0.003991
45 0.003026
45 0.004018
52 0.004004
63 0.004016
68 0.003944
68 0.00399
71 0.002992
78 0.002999
87 0.003026
98 0.003991
106 0.003991
113 0.003049
122 0.003029
127 0.003044
133 0.00299
137 0.002993
145 0.00302
150 0.002968
155 0.002945
159 0.002992
163 0.002992
168 0.00399
173 0.002992
164 0.001992
104 0.002967
50 0.002991
38 0.003026
44 0.002995
54 0.002994
51 0.002992
45 0.002992
46 0.003022
54 0.002993
66 0.003022
68 0.002992
69 0.001995
74 0.001996
81 0.001995
90 0.001996
98 0.001999
106 0.002985
111 0.002993
116 0.002993
120 0.002993
125 0.003029
132 0.0019
137 0.001995
146 0.001996
150 0.001994
153 0.001996
158 0.002004
163 0.001996
168 0.002003
159 0.001994
102 0.001988
51 0.001996
39 0.001995
52 0.002993
60 0.001993
56 0.001996
55 0.001995
64 0.001997
73 0.001995
75 0.001996
75 0.002021
80 0.002031
88 0.001996
97 0.001994
106 0.001994
114 0.001995
121 0.001995
129 0.001982
136 0.001001
141 0.001
146 0.000985
152 0.00101
157 0.001997
164 0.001995
168 0.001995
171 0.001989
175 0.001995
179 0.001996
183 0.000998
188 0.001007
173 0.001031
104 0.001024
54 0.001023
43 0.000966
50 0.001
57 0.001996
52 0.000998
46 0.000998
47 0.000997
54 0.001007
66 0.000998
67 0.000991
70 0.001001
75 0.000985
83 0.000999
92 0.001014
100 0.001008
108 0.000997
114 0.001008
119 0.001004
124 0.000997
128 0.000998
137 0.000997
145 0.00099
152 0.000972
157 0.000973
161 0.000983
165 0.000977
169 0.000999
173 0.00106
178 0.000997
181 0.0
173 0.000968
114 0.000998
48 0.000986
43 0.0
54 0.0
56 0.0
51 0.0
48 0.0
53 0.0
64 0.000997
67 0.000998
67 0.000997
69 0.000997
76 0.000998
89 0.0
100 0.0
109 0.0
115 0.0
121 0.000947
127 0.0
132 0.0
142 0.000998
148 0.001011
154 0.0
159 0.0
165 0.0
172 0.0
177 0.0
182 0.0
172 0.0
111 0.0
60 0.0
46 0.0
55 0.000997
59 0.001006
53 0.0
48 0.0
51 0.0
64 0.0
70 0.0
70 0.0
72 0.0
78 0.000999
85 0.0
98 0.0
105 0.0
111 0.0
117 0.001063
123 0.0
128 0.0
137 0.0
144 0.0
150 0.0
156 0.000998
161 0.000991
168 0.0
170 0.0
173 0.0
178 0.000997
182 0.000997
184 0.0
137 0.0
52 0.000972
47 0.0
56 0.0
63 0.001
61 0.0
54 0.000969
57 0.0
63 0.001006
72 0.000999
72 0.001007
73 0.0
78 0.0
91 0.0
99 0.0
105 0.0
111 0.000963
116 0.000951
122 0.0
127 0.0
133 0.0
140 0.00099
146 0.000999
155 0.001037
161 0.0
171 0.0
175 0.0
159 0.0
97 0.000998
59 0.001034
52 0.0
59 0.0
64 0.000975
59 0.002037
54 0.002049
61 0.001045
70 0.001048
77 0.0
76 0.0
80 0.001073
86 0.000988
94 0.001995
105 0.000997
113 0.0
116 0.000998
123 0.000982
129 0.001949
136 0.000965
141 0.000962
151 0.000998
157 0.000997
164 0.0
169 0.001994
174 0.001995
180 0.000999
185 0.000994
189 0.000989
179 0.001993
117 0.00199
58 0.001029
52 0.001029
65 0.001004
64 0.000997
58 0.001982
54 0.001997
59 0.002024
73 0.000997
76 0.000999
74 0.000997
76 0.001987
81 0.002023
87 0.001994
97 0.000998
106 0.003036
114 0.000995
117 0.000975
122 0.001007
128 0.002959
133 0.003035
141 0.001994
147 0.00203
153 0.002023
159 0.002992
164 0.003027
174 0.003027
178 0.002028
143 0.001041
82 0.002029
61 0.001995
58 0.002036
69 0.001995
73 0.001995
69 0.001991
69 0.001999
76 0.002961
83 0.003023
85 0.002993
86 0.002971
94 0.001995
101 0.001964
109 0.00203
117 0.002999
123 0.003014
129 0.002033
136 0.00204
140 0.001993
144 0.00297
150 0.002992
161 0.002994
167 0.003074
172 0.002994
179 0.00195
184 0.001996
187 0.002995
191 0.002994
196 0.001995
198 0.003024
193 0.002037
133 0.003023
74 0.003035
58 0.003037
64 0.003991
65 0.002992
57 0.002992
53 0.003027
56 0.003976
65 0.004026
73 0.00303
73 0.003032
73 0.003023
79 0.003989
86 0.004029
99 0.003978
105 0.00399
112 0.00303
119 0.001954
121 0.002993
127 0.00399
134 0.004028
143 0.002953
149 0.003023
156 0.003022
162 0.004026
167 0.003989
175 0.004029
179 0.004
184 0.003957
188 0.004023
191 0.004021
192 0.004986
151 0.004023
67 0.003025
50 0.003989
55 0.003027
63 0.004023
64 0.004013
53 0.004031
53 0.003991
65 0.002995
69 0.004012
68 0.003995
68 0.003993
73 0.004988
79 0.005009
87 0.003982
94 0.004019
100 0.004018
106 0.004955
114 0.003966
119 0.004021
125 0.005022
133 0.003992
141 0.00399
148 0.003992
154 0.004987
160 0.005032
168 0.002993
174 0.003027
178 0.00402
183 0.00402
131 0.003031
70 0.003986
49 0.005051
54 0.004927
61 0.004023
60 0.003991
52 0.003959
49 0.005031
59 0.004031
67 0.004001
69 0.003997
70 0.003998
75 0.003991
85 0.005021
93 0.00502
103 0.004031
111 0.003987
116 0.005002
121 0.006025
128 0.005985
135 0.004033
141 0.005024
148 0.005019
159 0.005017
163 0.004988
171 0.005018
176 0.005017
182 0.004025
186 0.003997
189 0.003958
193 0.005037
198 0.006041
193 0.005026
137 0.00502
71 0.004026
50 0.003951
57 0.005022
59 0.004988
53 0.004989
44 0.005032
44 0.00396
54 0.00502
61 0.005025
63 0.006019
64 0.005019
70 0.005004
78 0.004992
92 0.004951
99 0.004953
104 0.006009
111 0.006015
118 0.004989
124 0.004988
130 0.00499
138 0.006033
144 0.007024
153 0.006032
157 0.006019
164 0.00502
173 0.004988
177 0.005023
180 0.006016
184 0.005985
188 0.005015
193 0.005017
196 0.004987
165 0.00602
89 0.007014
52 0.006981
51 0.006017
63 0.004987
71 0.005984
66 0.005984
67 0.004972
74 0.005994
79 0.006021
80 0.005036
82 0.006037
88 0.005987
96 0.006982
106 0.006983
118 0.006014
124 0.006019
133 0.005981
139 0.00602
145 0.006018
149 0.005984
155 0.005992
161 0.007021
170 0.005955
175 0.006973
181 0.006973
186 0.006982
190 0.005981
193 0.006019
197 0.006018
201 0.005993
204 0.005987
196 0.007015
130 0.006983
52 0.005965
40 0.005982
45 0.006015
51 0.006982
50 0.006981
38 0.005969
37 0.006982
49 0.007015
53 0.007018
54 0.006983
55 0.006984
60 0.007024
68 0.006984
79 0.006026
86 0.005988
95 0.006991
101 0.007979
108 0.007016
115 0.007009
124 0.006982
129 0.007014
138 0.007022
147 0.008
152 0.007936
158 0.007032
163 0.006014
168 0.006002
171 0.006982
174 0.006981
180 0.006994
171 0.007987
103 0.007013
50 0.005982
37 0.00701
48 0.007927
57 0.007965
60 0.006983
55 0.00704
56 0.006983
63 0.007993
66 0.006982
66 0.007946
73 0.007947
79 0.00696
89 0.00699
98 0.007006
106 0.007969
114 0.007978
120 0.007014
125 0.007024
133 0.006968
139 0.007971
146 0.007016
152 0.007014
163 0.006989
168 0.006985
173 0.006984
178 0.007133
181 0.006982
183 0.00798
189 0.007966
189 0.007035
127 0.006982
61 0.006987
38 0.007021
38 0.007014
47 0.00698
42 0.00698
35 0.006982
33 0.00698
42 0.006972
50 0.007976
52 0.006991
52 0.006958
57 0.006941
63 0.00699
70 0.006762
78 0.007013
88 0.006013
94 0.006964
99 0.006982
105 0.005978
111 0.006972
116 0.006014
123 0.007022
132 0.006961
138 0.006954
145 0.006981
150 0.006981
156 0.007017
163 0.006948
168 0.006977
175 0.006982
179 0.006
158 0.005989
90 0.005995
50 0.006015
46 0.005987
53 0.006995
56 0.006973
50 0.007021
44 0.006953
51 0.006984
59 0.006996
61 0.005988
61 0.005968
64 0.005984
68 0.005993
74 0.005985
84 0.005982
89 0.005977
94 0.005978
99 0.006025
104 0.006027
113 0.005991
118 0.007018
127 0.005983
133 0.006016
140 0.005979
145 0.005986
152 0.005976
160 0.00597
167 0.005978
160 0.005984
106 0.006019
64 0.006018
51 0.005965
56 0.004983
55 0.005979
47 0.005977
45 0.00598
49 0.005984
58 0.005975
64 0.006015
64 0.005968
66 0.005984
71 0.005988
82 0.00498
87 0.005021
94 0.005013
100 0.004993
105 0.004988
111 0.004995
116 0.005986
121 0.005936
127 0.005984
136 0.006033
142 0.005064
148 0.005028
158 0.005978
163 0.00599
168 0.005967
173 0.005982
180 0.005954
186 0.004977
188 0.004981
147 0.004988
85 0.004986
58 0.004957
61 0.004971
68 0.004987
61 0.00499
55 0.004996
57 0.00595
65 0.004998
74 0.004996
74 0.004961
74 0.004988
77 0.004981
82 0.004993
90 0.004986
95 0.004986
100 0.003991
108 0.004976
112 0.003957
115 0.004004
120 0.004978
127 0.004032
132 0.004028
137 0.003989
143 0.004989
149 0.004992
155 0.004976
159 0.004986
163 0.005019
171 0.004993
177 0.003956
181 0.004025
174 0.00402
100 0.003991
66 0.003964
62 0.003971
70 0.003993
78 0.00399
73 0.004981
69 0.003983
73 0.004989
84 0.004989
85 0.003958
85 0.005032
88 0.003994
95 0.004007
102 0.003984
108 0.003987
114 0.004006
118 0.004005
124 0.003982
129 0.003998
133 0.004029
142 0.004008
147 0.003998
153 0.00399
159 0.003994
167 0.003944
172 0.003987
178 0.003942
181 0.002968
185 0.002989
191 0.002988
195 0.003989
200 0.004004
180 0.003989
109 0.003982
70 0.003981
63 0.003978
70 0.003989
74 0.003983
68 0.003954
61 0.003975
60 0.003997
69 0.003946
78 0.003
80 0.002994
81 0.00295
86 0.002988
93 0.003954
99 0.003992
105 0.003989
113 0.004047
117 0.003986
121 0.004024
126 0.003946
132 0.003976
138 0.00399
144 0.003027
155 0.003004
162 0.003005
167 0.002984
171 0.002984
177 0.003007
182 0.002988
185 0.002989
190 0.002983
195 0.003982
199 0.002995
191 0.003023
101 0.003957
62 0.00298
64 0.003002
74 0.00299
81 0.003008
78 0.002991
73 0.002975
80 0.002985
86 0.002993
88 0.002969
87 0.002992
92 0.003025
99 0.002005
111 0.001994
117 0.001994
122 0.001995
127 0.002031
132 0.002004
136 0.001993
141 0.001961
147 0.001993
153 0.001991
159 0.002006
168 0.002966
176 0.002013
183 0.001988
187 0.001977
191 0.00299
194 0.002
197 0.002981
204 0.001973
208 0.001998
198 0.002013
125 0.001999
69 0.001997
55 0.001991
65 0.001947
67 0.001996
60 0.001954
55 0.001988
56 0.001981
64 0.001003
72 0.002028
72 0.001021
72 0.001014
75 0.000995
81 0.000993
90 0.00098
99 0.000996
105 0.002
110 0.001999
115 0.001993
119 0.001983
124 0.001995
130 0.001993
139 0.002001
146 0.000988
153 0.000998
159 0.001
164 0.001
169 0.001023
172 0.000997
178 0.002022
182 0.002042
183 0.001993
153 0.002013
82 0.001983
44 0.001007
47 0.001994
59 0.001989
63 0.001991
60 0.001041
55 0.000998
60 0.001031
64 0.001002
62 0.000998
63 0.000999
65 0.001987
69 0.000984
75 0.000992
79 0.001003
83 0.0
85 0.001027
87 0.000983
92 0.000996
96 0.001003
102 0.001053
108 0.001008
115 0.000996
122 0.000988
127 0.000984
133 0.000998
138 0.000987
142 0.001031
148 0.0
132 0.0
40 0.0
22 0.0
24 0.0
30 0.0
29 0.001011
22 0.000997
18 0.001008
26 0.001022
33 0.001113
35 0.001032
35 0.000994
40 0.000997
45 0.0
51 0.0
57 0.0
62 0.0
66 0.0
72 0.0
77 0.0
84 0.0
88 0.0
95 0.0
101 0.0
109 0.0
115 0.000988
120 0.0
128 0.0
136 0.0
132 0.0
88 0.0
49 0.0
37 0.0
43 0.0
48 0.0
44 0.0
35 0.0
39 0.0
47 0.000987
50 0.001026
48 0.001029
50 0.0
55 0.0
60 0.0
67 0.0
71 0.001038
77 0.0
79 0.0
85 0.001043
89 0.0
95 0.0
98 0.0
102 0.001026
107 0.001022
115 0.0
119 0.000961
106 0.0
70 0.000998
46 0.001054
44 0.0
51 0.000998
47 0.000997
40 0.0
40 0.000998
48 0.001012
57 0.000998
57 0.0
56 0.000967
60 0.0
65 0.001036
70 0.000969
76 0.0
81 0.001996
88 0.0
91 0.000976
96 0.0
101 0.00103
107 0.00103
114 0.0
121 0.0
127 0.0
133 0.000965
139 0.000999
149 0.0
156 0.001046
140 0.000955
99 0.0
76 0.0
75 0.001996
83 0.001003
81 0.0
75 0.0
73 0.0
76 0.000957
85 0.002009
92 0.0
91 0.002037
93 0.000998
99 0.0
103 0.0
110 0.001027
114 0.001033
122 0.0
125 0.000961
131 0.001031
135 0.000997
140 0.001994
145 0.000985
151 0.001991
155 0.001
159 0.000998
165 0.002033
170 0.001994
175 0.002003
180 0.000998
156 0.0
113 0.001015
92 0.002252
93 0.001991
102 0.001001
99 0.001996
93 0.001041
96 0.001038
103 0.002043
104 0.002993
102 0.002992
103 0.002025
106 0.001005
110 0.001961
116 0.002023
120 0.002025
125 0.001995
127 0.002047
130 0.002036
135 0.002013
138 0.002157
142 0.000997
147 0.002014
152 0.00201
157 0.002007
161 0.002017
167 0.002005
172 0.002994
182 0.001994
170 0.003029
125 0.002992
89 0.000998
88 0.002992
95 0.001986
96 0.003007
90 0.003023
83 0.001998
88 0.000989
96 0.001994
102 0.003027
100 0.001004
103 0.003025
107 0.002991
113 0.001938
118 0.001962
123 0.001965
127 0.003009
130 0.003025
134 0.001996
138 0.001992
142 0.001962
146 0.004037
153 0.002035
159 0.004024
164 0.002992
169 0.001958
174 0.002005
179 0.001054
185 0.003991
192 0.004069
199 0.001959
179 0.001995
127 0.002032
99 0.002993
102 0.001994
108 0.002992
105 0.003003
96 0.001038
96 0.001982
103 0.003025
109 0.004003
110 0.003998
108 0.002956
109 0.001996
114 0.00299
119 0.003994
126 0.002058
129 0.003992
132 0.002992
136 0.002949
138 0.002948
142 0.002957
146 0.004026
150 0.003991
155 0.002984
159 0.002977
163 0.002962
168 0.00399
178 0.003022
181 0.003991
164 0.00401
105 0.002936
85 0.002967
86 0.002992
92 0.005024
93 0.003946
83 0.003017
81 0.003992
88 0.003002
95 0.003941
96 0.002994
96 0.003993
99 0.003992
106 0.00395
111 0.003991
117 0.003991
122 0.002992
126 0.004987
130 0.004988
134 0.002962
138 0.002996
142 0.003992
150 0.002989
155 0.002999
161 0.003989
167 0.004988
172 0.003985
176 0.003987
182 0.003954
187 0.005022
192 0.004952
183 0.002938
124 0.003985
77 0.002994
79 0.003025
87 0.003029
88 0.00502
80 0.005022
76 0.003957
82 0.003949
90 0.003953
93 0.005022
92 0.005018
95 0.003945
98 0.004002
108 0.004009
114 0.00399
120 0.004028
125 0.005028
129 0.006017
137 0.005011
141 0.003957
147 0.003996
153 0.005478
159 0.004956
167 0.005009
173 0.004956
180 0.004994
184 0.005018
189 0.005026
196 0.006015
201 0.005985
203 0.004989
150 0.003979
98 0.003953
82 0.005022
88 0.005025
98 0.004988
99 0.004956
92 0.00502
98 0.00502
103 0.005018
104 0.005986
104 0.005986
107 0.004987
112 0.004956
119 0.005043
125 0.006981
131 0.005946
136 0.005002
140 0.00498
146 0.003988
150 0.005029
155 0.004986
162 0.005983
168 0.005939
177 0.004955
183 0.004985
189 0.004956
193 0.006014
198 0.005988
206 0.004999
209 0.005017
171 0.005954
101 0.005019
72 0.005032
71 0.00602
81 0.007018
84 0.006018
77 0.006016
73 0.005024
75 0.007093
83 0.006983
89 0.007012
90 0.004985
91 0.006981
96 0.004991
103 0.004991
110 0.004991
114 0.006022
118 0.005982
124 0.004997
127 0.005989
131 0.006001
137 0.007016
143 0.006988
151 0.006022
160 0.00698
169 0.006018
175 0.006031
180 0.005019
185 0.006989
191 0.007981
200 0.005021
195 0.005988
135 0.005979
81 0.006987
67 0.006981
75 0.005988
83 0.006981
76 0.006019
72 0.005983
76 0.006016
85 0.007978
87 0.00798
86 0.006969
87 0.006981
91 0.007015
99 0.007984
103 0.00697
110 0.005987
116 0.007948
121 0.005953
124 0.006985
127 0.005988
133 0.007022
140 0.007964
144 0.006981
149 0.007013
158 0.007004
166 0.007977
171 0.00796
108 0.007981
80 0.007998
63 0.005987
67 0.006986
73 0.006987
71 0.00798
63 0.007737
66 0.007016
74 0.007021
79 0.007018
79 0.007979
80 0.007975
87 0.007036
93 0.008013
99 0.006981
104 0.00702
108 0.006998
113 0.007979
117 0.00798
121 0.007016
127 0.006985
133 0.006977
141 0.007981
145 0.007978
155 0.007979
163 0.007968
169 0.007013
176 0.007013
181 0.007013
139 0.007976
87 0.006981
65 0.006947
71 0.006983
77 0.006964
75 0.006981
67 0.007988
64 0.006986
71 0.007979
79 0.007979
81 0.006958
80 0.006976
85 0.006988
92 0.006987
97 0.006994
103 0.007016
108 0.006978
112 0.00696
116 0.006973
122 0.00698
129 0.007016
135 0.006977
141 0.006985
148 0.007016
154 0.006979
158 0.007019
163 0.00702
172 0.006977
178 0.006978
178 0.006979
135 0.006977
70 0.006977
67 0.005973
75 0.007014
77 0.006017
69 0.006983
66 0.006983
69 0.00698
77 0.006982
81 0.006998
80 0.00697
82 0.006981
87 0.006983
98 0.00695
106 0.006978
110 0.006928
116 0.007012
122 0.007012
126 0.006965
130 0.007027
136 0.005979
143 0.006015
149 0.005984
154 0.005982
160 0.006014
172 0.006005
179 0.006018
178 0.006985
119 0.005989
78 0.00702
65 0.006982
69 0.005984
72 0.005991
65 0.006985
57 0.005976
58 0.005986
65 0.006024
75 0.005984
74 0.006017
75 0.006017
83 0.006021
90 0.005978
97 0.005982
104 0.005995
110 0.005045
116 0.00602
119 0.00599
124 0.005999
134 0.006015
139 0.006014
146 0.006027
153 0.005978
161 0.00601
166 0.006014
172 0.005986
179 0.005931
186 0.005975
192 0.004967
160 0.004988
98 0.004952
64 0.005982
69 0.005988
75 0.005973
70 0.006017
59 0.006029
61 0.006002
70 0.005989
77 0.006024
78 0.004976
76 0.005978
82 0.004974
87 0.004991
98 0.005018
104 0.005023
109 0.005004
114 0.004987
118 0.005019
123 0.004988
129 0.004989
135 0.004986
140 0.005019
147 0.004984
154 0.004992
158 0.004983
168 0.005017
175 0.006024
182 0.005015
182 0.005014
135 0.005022
75 0.005021
65 0.004985
71 0.005002
78 0.00502
76 0.004993
68 0.004992
71 0.004034
83 0.005027
85 0.003972
85 0.004025
87 0.004029
93 0.005027
102 0.004992
108 0.00502
113 0.00499
117 0.004979
122 0.004974
127 0.004982
131 0.004964
139 0.004036
145 0.004023
151 0.004016
155 0.004022
161 0.004022
166 0.004015
170 0.00499
174 0.003989
179 0.004003
185 0.003959
191 0.004991
174 0.004984
74 0.004049
55 0.003991
57 0.004022
64 0.00399
65 0.004024
54 0.003989
52 0.00399
59 0.004001
67 0.003995
70 0.003989
70 0.003999
72 0.004006
82 0.004987
89 0.005035
96 0.002992
102 0.002992
107 0.004023
114 0.003991
120 0.004001
125 0.004007
132 0.00397
138 0.003004
149 0.003982
155 0.002995
166 0.004026
173 0.00303
180 0.003026
186 0.003051
190 0.003046
196 0.004048
205 0.003989
206 0.003955
154 0.004007
90 0.003993
66 0.00398
69 0.002983
80 0.003024
75 0.003023
70 0.002992
73 0.002993
80 0.003052
83 0.002961
84 0.001991
86 0.003959
92 0.003976
98 0.002001
104 0.002023
114 0.004006
119 0.003048
126 0.002992
130 0.003028
135 0.002992
140 0.002992
146 0.003024
155 0.002979
162 0.003002
169 0.002997
175 0.002976
181 0.003961
190 0.002028
195 0.001995
203 0.002992
209 0.003027
212 0.002992
180 0.003025
101 0.002992
56 0.002959
56 0.002984
64 0.001992
67 0.002996
61 0.001981
53 0.001996
60 0.001981
70 0.002005
72 0.002026
72 0.001994
76 0.001981
82 0.003007
91 0.002982
99 0.002968
105 0.002028
110 0.00203
114 0.001985
123 0.001995
129 0.001995
138 0.001994
144 0.001965
152 0.001991
160 0.001995
167 0.001995
176 0.001992
183 0.000987
189 0.001989
194 0.002012
200 0.001989
212 0.002025
215 0.002021
135 0.002029
75 0.001995
58 0.001996
62 0.002027
70 0.001995
72 0.001986
65 0.002
62 0.000987
69 0.000996
79 0.00101
83 0.001006
85 0.000996
90 0.000998
98 0.000998
106 0.000997
113 0.001995
120 0.002019
126 0.000995
133 0.001996
138 0.002004
144 0.001024
150 0.000979
159 0.001047
166 0.000997
172 0.001
179 0.002031
184 0.000998
189 0.000997
195 0.000998
202 0.001994
206 0.0
171 0.000997
98 0.001006
64 0.001026
67 0.000997
75 0.002036
79 0.001995
73 0.001014
73 0.000999
80 0.000966
84 0.001012
84 0.001016
87 0.002033
93 0.001995
100 0.000999
108 0.001031
119 0.0
125 0.000992
130 0.0
137 0.0
142 0.001
149 0.0
157 0.0
164 0.0
174 0.0
182 0.0
188 0.0
199 0.0
204 0.000995
209 0.0
216 0.0
223 0.0
218 0.0
148 0.0
79 0.0
57 0.0
66 0.0
74 0.0
73 0.000997
62 0.0
65 0.000997
75 0.0
81 0.000998
82 0.001005
85 0.0
89 0.0
96 0.0
105 0.0
115 0.0
121 0.0
127 0.0
136 0.0
142 0.0
148 0.0
155 0.0
165 0.0
171 0.0
177 0.000971
187 0.0
189 0.0
196 0.0
202 0.0
209 0.0
214 0.000999
158 0.0
104 0.000997
58 0.0
58 0.001005
68 0.000998
74 0.0
69 0.0
65 0.000967
69 0.0
75 0.002029
79 0.000999
80 0.000998
83 0.000998
92 0.0
99 0.0
106 0.0
110 0.002026
116 0.00203
122 0.0
126 0.0
129 0.000968
139 0.001986
145 0.000968
157 0.000999
164 0.00099
173 0.0
177 0.000998
183 0.0
191 0.000999
197 0.000959
179 0.0
102 0.0
55 0.0
44 0.000997
49 0.002006
57 0.000998
50 0.001002
44 0.0
49 0.0
58 0.0
63 0.001997
65 0.002006
66 0.0
72 0.0
79 0.001021
87 0.002034
92 0.00098
103 0.00103
108 0.000996
116 0.0
121 0.0
125 0.001022
135 0.002017
140 0.001033
150 0.0
157 0.000982
163 0.0
169 0.002008
178 0.001989
188 0.00201
168 0.001995
82 0.0
56 0.0
57 0.0
64 0.002025
67 0.002036
60 0.000952
55 0.000994
59 0.000953
69 0.001997
74 0.001966
74 0.002034
76 0.001955
83 0.0
88 0.002044
93 0.002033
97 0.002034
99 0.001996
103 0.00204
106 0.001027
108 0.000963
113 0.003001
125 0.002023
135 0.001999
145 0.001996
150 0.001995
152 0.001028
155 0.001047
159 0.002992
166 0.003025
154 0.000994
95 0.002029
62 0.000999
59 0.002024
76 0.000965
79 0.002051
76 0.001996
76 0.001995
93 0.002031
109 0.00099
119 0.000964
123 0.002992
128 0.002993
138 0.000944
147 0.002
153 0.002001
159 0.001995
162 0.002006
164 0.002992
167 0.003025
172 0.001003
177 0.001045
183 0.002016
190 0.003026
197 0.003027
204 0.000959
209 0.002051
208 0.001012
123 0.002008
94 0.001988
93 0.002992
102 0.003038
106 0.002003
101 0.002095
99 0.001975
105 0.002973
110 0.003023
110 0.000992
109 0.002008
112 0.00204
124 0.001996
133 0.002004
141 0.003023
148 0.002992
156 0.001994
161 0.001993
166 0.001995
169 0.003024
174 0.004028
184 0.002958
192 0.00201
200 0.00196
188 0.001995
127 0.001996
90 0.00402
84 0.004023
96 0.002963
101 0.002963
98 0.002995
94 0.003031
100 0.003995
108 0.002051
109 0.002947
108 0.002958
113 0.002987
120 0.003023
128 0.003998
135 0.003998
144 0.002035
148 0.002019
153 0.001997
158 0.003988
163 0.003989
170 0.002986
178 0.00299
187 0.003025
201 0.002983
209 0.002964
216 0.004019
198 0.004021
101 0.001933
69 0.003007
69 0.003041
80 0.004979
84 0.004986
76 0.003005
73 0.00299
77 0.002994
93 0.002986
95 0.002992
95 0.003977
96 0.003995
104 0.002019
113 0.003032
122 0.002989
130 0.004983
136 0.004989
140 0.004941
147 0.002918
153 0.002996
164 0.00298
170 0.002984
178 0.002992
185 0.004029
191 0.004988
202 0.003988
211 0.004044
219 0.004019
202 0.005024
124 0.004959
73 0.003021
78 0.004995
90 0.002989
90 0.00299
83 0.002995
81 0.005019
88 0.005984
101 0.003985
101 0.00399
100 0.004
102 0.004988
108 0.004987
118 0.004948
130 0.005021
138 0.003064
144 0.003004
149 0.002955
155 0.004987
161 0.006018
171 0.003996
177 0.002988
182 0.00398
190 0.005984
199 0.005953
209 0.003959
184 0.005937
92 0.003981
70 0.003995
73 0.004008
82 0.005984
85 0.004966
78 0.003997
76 0.003994
83 0.003995
93 0.006
97 0.005987
95 0.004991
100 0.006014
111 0.005025
119 0.005021
126 0.003981
133 0.005984
138 0.006017
146 0.003971
150 0.004006
156 0.003994
162 0.005984
168 0.007018
178 0.004953
186 0.00611
195 0.004024
203 0.004956
210 0.004036
216 0.005985
198 0.006014
96 0.005007
65 0.004987
68 0.003991
78 0.006021
84 0.007026
78 0.006017
75 0.007022
87 0.004949
93 0.004987
95 0.004984
97 0.006017
101 0.006019
112 0.004981
121 0.005947
130 0.004023
136 0.003996
142 0.007016
149 0.007018
159 0.007014
165 0.006981
176 0.004991
186 0.005001
194 0.00499
201 0.006982
206 0.006981
216 0.004989
223 0.004986
152 0.005985
222 0.006984
147 0.007012
76 0.006982
80 0.006984
98 0.006005
104 0.006017
99 0.00496
98 0.006977
105 0.006981
108 0.004987
106 0.00599
109 0.005976
117 0.007974
127 0.007977
139 0.008011
145 0.006982
153 0.005981
158 0.005988
164 0.006953
172 0.007981
176 0.006981
185 0.006018
193 0.006981
201 0.005983
209 0.007986
217 0.005985
223 0.007963
229 0.007977
203 0.006035
110 0.006005
61 0.005984
54 0.007015
64 0.007013
74 0.006981
70 0.007013
64 0.007015
69 0.00797
83 0.005975
87 0.007996
86 0.007978
89 0.005977
95 0.005986
104 0.006975
115 0.007979
120 0.007979
128 0.006981
135 0.006981
140 0.00698
148 0.007959
157 0.00698
167 0.007963
175 0.007976
182 0.005974
190 0.005958
197 0.006939
202 0.007985
208 0.007026
216 0.006955
219 0.006986
192 0.00698
96 0.007978
39 0.006982
41 0.007978
54 0.007979
61 0.006981
51 0.00698
49 0.006981
58 0.006952
69 0.006978
72 0.007012
72 0.006978
76 0.00698
80 0.006984
98 0.006978
104 0.006975
115 0.006983
122 0.007016
129 0.00698
137 0.006967
144 0.006974
153 0.007013
161 0.007015
172 0.00698
180 0.007015
186 0.006962
195 0.00698
199 0.006973
205 0.007027
211 0.006985
217 0.006971
209 0.00698
132 0.006961
47 0.006972
40 0.007013
52 0.006981
71 0.00602
72 0.005981
70 0.006984
76 0.006986
79 0.007058
79 0.007013
80 0.00696
88 0.006975
97 0.006979
107 0.007014
117 0.007013
127 0.006979
133 0.005984
140 0.00602
149 0.006016
156 0.005953
164 0.006025
171 0.006996
182 0.006983
189 0.006995
194 0.006978
199 0.00602
203 0.006021
210 0.006013
214 0.006031
188 0.005982
45 0.006019
24 0.006001
28 0.006018
39 0.006023
44 0.006019
36 0.005987
32 0.005954
41 0.007022
52 0.006046
57 0.006021
57 0.006026
62 0.005965
76 0.005984
86 0.006014
95 0.006017
104 0.006018
114 0.006014
120 0.005987
127 0.005052
135 0.005022
143 0.005017
154 0.004987
163 0.005037
177 0.005983
184 0.005453
190 0.004986
195 0.005022
200 0.004987
208 0.005031
210 0.005038
165 0.005016
68 0.005024
28 0.004989
29 0.006014
41 0.005018
46 0.006011
38 0.00602
38 0.006014
48 0.006029
58 0.006018
61 0.005022
62 0.004987
67 0.005029
74 0.005026
84 0.00502
95 0.00502
106 0.004988
116 0.005022
124 0.004988
131 0.005021
138 0.004027
146 0.006018
154 0.004983
165 0.004987
171 0.005024
177 0.005023
185 0.005001
193 0.005001
202 0.005019
194 0.005019
82 0.005018
38 0.004022
34 0.003986
44 0.004024
55 0.004022
56 0.005017
51 0.004984
55 0.00499
63 0.00502
68 0.005049
68 0.004972
74 0.005023
88 0.004986
100 0.004024
111 0.00402
119 0.004027
127 0.004022
135 0.004022
141 0.005022
147 0.003991
155 0.005034
161 0.005025
172 0.004999
183 0.004023
193 0.004017
198 0.004021
204 0.004023
209 0.003985
215 0.004021
217 0.004003
169 0.004024
71 0.003936
30 0.003991
27 0.004029
41 0.003989
44 0.00402
34 0.003991
33 0.00399
43 0.004026
53 0.003997
56 0.004039
56 0.004024
62 0.003991
71 0.004004
81 0.00399
90 0.00404
102 0.004036
112 0.003989
121 0.002994
128 0.003037
135 0.004025
144 0.003991
152 0.004039
163 0.003997
173 0.002991
180 0.003989
188 0.00399
194 0.003026
202 0.003031
212 0.003024
219 0.002992
196 0.004022
101 0.002992
43 0.003042
31 0.003979
44 0.00399
52 0.003047
50 0.003998
42 0.00399
43 0.004031
57 0.002992
60 0.003024
60 0.002992
65 0.00299
74 0.002992
85 0.002992
93 0.002003
102 0.002978
112 0.003025
118 0.002992
124 0.003041
132 0.002999
145 0.003963
153 0.002958
161 0.002992
171 0.00306
177 0.002992
184 0.00299
192 0.003023
197 0.002992
136 0.002992
55 0.002972
23 0.002994
21 0.002992
34 0.003023
32 0.002992
25 0.001995
27 0.002007
38 0.001995
48 0.001995
50 0.001995
51 0.001995
59 0.003049
71 0.002992
83 0.002992
94 0.002992
108 0.003023
114 0.003013
121 0.002992
130 0.001995
139 0.002027
148 0.003007
158 0.002994
167 0.002988
178 0.002002
185 0.002038
192 0.00203
197 0.002032
208 0.001995
215 0.002026
217 0.001995
118 0.001995
48 0.002022
29 0.001997
33 0.00201
44 0.000997
48 0.001995
39 0.002025
38 0.002011
47 0.001995
62 0.001995
62 0.001996
64 0.001983
72 0.002012
83 0.001995
93 0.002033
103 0.00201
113 0.00199
122 0.000999
127 0.001028
134 0.001004
141 0.001029
155 0.002041
164 0.000998
172 0.001996
181 0.001954
188 0.001994
195 0.002007
202 0.001996
209 0.000998
190 0.002011
102 0.00101
48 0.000998
37 0.000998
55 0.001002
62 0.000998
59 0.000997
56 0.001001
66 0.000994
71 0.000998
70 0.001023
72 0.000997
77 0.002026
90 0.001995
103 0.002054
114 0.002049
127 0.001051
133 0.000997
138 0.001
144 0.000997
150 0.000998
158 0.000997
167 0.002049
175 0.002039
182 0.000997
193 0.000997
198 0.0
204 0.001013
212 0.00097
217 0.001
217 0.000997
164 0.000998
46 0.001998
19 0.000954
21 0.0
31 0.0
34 0.0
24 0.000997
20 0.001013
35 0.001016
42 0.000997
43 0.0
43 0.001007
47 0.000997
59 0.000998
70 0.000997
80 0.000997
88 0.001
97 0.000998
106 0.0
112 0.0
125 0.0
135 0.0
145 0.0
155 0.0
164 0.0
175 0.0
181 0.0
187 0.000998
194 0.0
202 0.0
210 0.0
190 0.0
53 0.0
27 0.0
30 0.0
43 0.0
50 0.0
43 0.0
40 0.0
51 0.0
55 0.0
57 0.0
56 0.0
61 0.0
76 0.0
87 0.001004
95 0.000991
103 0.000998
110 0.000997
118 0.000998
124 0.0
135 0.000962
140 0.0
151 0.0
159 0.001042
167 0.001034
182 0.002041
189 0.001
183 0.000966
110 0.000963
45 0.000951
20 0.002028
26 0.001995
34 0.0
29 0.0
23 0.0
24 0.0
35 0.002032
47 0.0
48 0.001996
50 0.002036
61 0.0
72 0.0
81 0.0
91 0.00196
99 0.002024
105 0.000997
113 0.00097
120 0.000967
126 0.001029
142 0.0
149 0.000999
158 0.000993
166 0.000966
175 0.0
183 0.0
192 0.001996
199 0.002006
171 0.0
88 0.0
43 0.0
34 0.001999
47 0.000989
50 0.001933
42 0.001998
37 0.0
46 0.0
56 0.0
58 0.002028
58 0.002029
63 0.0
70 0.000965
78 0.0
85 0.00201
96 0.0
101 0.002006
106 0.002031
112 0.0
118 0.0
124 0.0
131 0.002046
136 0.002028
144 0.0
152 0.000964
159 0.000958
170 0.0
144 0.0
80 0.001995
43 0.002029
37 0.0
45 0.0
48 0.0
43 0.002032
38 0.002032
46 0.0
52 0.0
54 0.001004
55 0.0
62 0.0
70 0.001995
78 0.001994
89 0.001944
95 0.001998
100 0.001987
104 0.002992
109 0.002049
116 0.001983
123 0.002011
131 0.001982
144 0.001977
151 0.001984
158 0.002992
164 0.002993
175 0.001996
182 0.001996
188 0.00104
166 0.001995
97 0.001995
46 0.000994
43 0.002031
51 0.001977
49 0.001994
40 0.0
37 0.001992
45 0.002992
53 0.002993
56 0.0
55 0.00299
59 0.002006
65 0.002992
73 0.002993
85 0.001996
92 0.001997
103 0.001982
108 0.001984
114 0.001991
122 0.002994
130 0.002985
141 0.001992
149 0.001993
158 0.001993
167 0.002993
172 0.002993
183 0.002015
191 0.001961
204 0.001998
201 0.002041
141 0.001973
82 0.003989
58 0.00399
63 0.001989
70 0.001983
68 0.001985
58 0.004024
56 0.004025
66 0.001996
67 0.001978
63 0.001995
65 0.001996
71 0.001003
77 0.002992
84 0.002988
93 0.002028
98 0.001991
102 0.00202
108 0.004027
113 0.00399
118 0.001993
125 0.001978
138 0.001993
145 0.002962
152 0.002013
157 0.00399
165 0.003989
176 0.00296
171 0.001997
115 0.002946
62 0.003985
39 0.003989
40 0.001953
43 0.001986
30 0.001986
23 0.002986
28 0.001996
37 0.004025
45 0.00399
44 0.001996
45 0.001997
52 0.002979
60 0.00499
69 0.004987
78 0.002961
86 0.002992
94 0.002959
100 0.002957
105 0.003027
113 0.003957
120 0.004039
130 0.002034
140 0.002028
150 0.001993
158 0.00399
166 0.005023
177 0.002999
187 0.004999
196 0.003009
186 0.003175
119 0.001995
66 0.004028
48 0.004026
55 0.00299
62 0.003028
58 0.003044
49 0.002985
47 0.00403
58 0.005004
70 0.005031
69 0.004989
73 0.002047
79 0.002991
88 0.002991
98 0.00499
105 0.005021
115 0.003003
120 0.002999
124 0.002996
130 0.005034
138 0.005021
150 0.00502
158 0.006016
167 0.004011
175 0.003986
182 0.003996
190 0.005022
200 0.004987
208 0.003004
166 0.002975
99 0.002995
64 0.004979
58 0.004987
73 0.00495
71 0.004958
60 0.003984
63 0.003991
72 0.003996
77 0.005991
77 0.005987
79 0.003989
87 0.003997
96 0.004013
107 0.004963
114 0.004987
126 0.004986
131 0.006023
139 0.003991
145 0.003991
151 0.003991
159 0.005984
168 0.005985
176 0.003987
183 0.00303
190 0.005004
195 0.007025
199 0.00502
207 0.00586
214 0.006008
226 0.004025
232 0.003956
185 0.003989
96 0.006023
52 0.005985
45 0.004045
56 0.003991
57 0.003995
47 0.005984
38 0.005981
49 0.005982
59 0.006986
62 0.004956
63 0.004985
68 0.004988
79 0.005958
90 0.005983
103 0.004971
111 0.003987
118 0.003986
124 0.007013
132 0.006981
145 0.006983
154 0.006983
166 0.005974
175 0.00501
187 0.003998
196 0.006016
204 0.007013
215 0.003989
221 0.005003
228 0.004906
236 0.006982
246 0.007014
206 0.00702
110 0.007012
63 0.006985
60 0.004997
71 0.004987
79 0.004979
74 0.00698
67 0.006981
73 0.00499
82 0.004993
84 0.004987
84 0.004987
90 0.005953
103 0.007988
112 0.007981
121 0.005984
129 0.004984
135 0.004984
141 0.007021
147 0.006988
155 0.004975
163 0.006007
172 0.005962
187 0.005953
196 0.006657
203 0.007033
213 0.007014
225 0.005002
231 0.004993
220 0.00499
109 0.007977
61 0.007977
53 0.005986
62 0.005983
69 0.005985
54 0.005965
47 0.005983
53 0.006983
63 0.007037
67 0.005991
66 0.004993
69 0.005028
75 0.007019
85 0.006982
99 0.005975
107 0.005003
115 0.005982
124 0.005972
130 0.005952
138 0.007973
145 0.007966
153 0.005975
162 0.005988
170 0.005998
179 0.007015
186 0.007972
195 0.006983
201 0.005976
209 0.006016
221 0.006017
205 0.005983
92 0.007976
49 0.007973
43 0.005986
53 0.005983
60 0.005981
53 0.006966
46 0.007019
51 0.006989
57 0.006989
64 0.005989
65 0.005992
68 0.006986
77 0.007974
88 0.007977
97 0.005998
105 0.005986
111 0.006981
121 0.007027
127 0.007011
135 0.00698
144 0.00698
149 0.006983
166 0.005996
173 0.006966
181 0.007993
188 0.007978
195 0.006958
200 0.005987
212 0.006977
217 0.006978
225 0.006979
180 0.006973
94 0.004982
49 0.006975
62 0.006978
72 0.006965
72 0.006979
65 0.007013
66 0.006017
73 0.006992
74 0.006981
72 0.006993
75 0.007014
82 0.007014
91 0.006967
100 0.006979
113 0.006981
119 0.006976
125 0.006947
133 0.006984
138 0.006016
148 0.005984
155 0.005971
163 0.005976
171 0.007012
180 0.007015
188 0.006975
197 0.006961
208 0.006978
213 0.006979
222 0.005975
195 0.006092
102 0.006013
38 0.005942
33 0.00602
43 0.005987
51 0.005977
46 0.006016
34 0.005984
42 0.006016
56 0.00693
58 0.005983
57 0.005985
61 0.006991
69 0.006018
83 0.005983
93 0.005983
101 0.005988
109 0.006015
114 0.006015
120 0.005008
130 0.004984
142 0.00599
151 0.004984
160 0.004982
170 0.004961
180 0.004952
191 0.005986
201 0.006002
210 0.005984
216 0.005984
223 0.006016
234 0.005995
244 0.005981
193 0.005989
93 0.005973
48 0.005028
42 0.00502
53 0.005022
64 0.005016
59 0.00499
50 0.004981
52 0.005021
64 0.006019
73 0.005982
72 0.005993
79 0.005987
88 0.005986
100 0.004993
111 0.005018
119 0.005023
128 0.005023
133 0.00503
138 0.005017
143 0.00502
151 0.005019
161 0.005018
174 0.004934
182 0.004953
191 0.005
199 0.004984
206 0.004983
214 0.005016
223 0.005017
214 0.005023
126 0.005019
61 0.004985
42 0.00502
48 0.005016
63 0.005021
58 0.003989
51 0.003989
57 0.003993
66 0.003989
69 0.004022
69 0.005021
73 0.004989
81 0.005016
93 0.005
103 0.005018
112 0.004988
123 0.003986
129 0.00399
136 0.00402
143 0.003985
150 0.003984
159 0.004019
169 0.004019
181 0.004019
190 0.003989
198 0.005027
205 0.004986
211 0.00502
222 0.003989
229 0.003978
237 0.003942
191 0.003993
92 0.003974
45 0.00403
37 0.004987
50 0.004022
57 0.00295
50 0.003988
41 0.003989
41 0.004033
58 0.004006
62 0.003983
61 0.00399
65 0.003987
76 0.00399
86 0.003961
95 0.003951
106 0.003989
114 0.004053
119 0.003983
126 0.004023
138 0.002989
146 0.003
157 0.002993
170 0.002972
179 0.002992
188 0.003022
198 0.003989
205 0.003981
215 0.004006
222 0.00399
229 0.003997
238 0.003989
245 0.003024
176 0.003005
86 0.003034
49 0.003033
57 0.002986
70 0.002989
76 0.002991
70 0.003991
65 0.002945
72 0.00404
79 0.002987
77 0.003935
79 0.003989
84 0.003025
93 0.002999
101 0.003031
111 0.003027
115 0.003023
121 0.002973
125 0.003024
131 0.002988
136 0.003025
144 0.00303
151 0.003028
165 0.002992
173 0.003025
179 0.002022
186 0.002039
197 0.002031
206 0.002011
210 0.002028
164 0.002977
78 0.003026
30 0.002993
32 0.002993
41 0.001995
41 0.00199
30 0.001994
28 0.001992
38 0.002023
50 0.003036
51 0.002998
51 0.002946
56 0.002999
64 0.002992
79 0.002993
87 0.002993
95 0.002024
106 0.001992
111 0.001994
118 0.001992
125 0.002
135 0.002001
144 0.001979
153 0.002036
163 0.002997
170 0.002993
182 0.002992
188 0.002992
195 0.001995
210 0.002027
212 0.001996
152 0.002021
71 0.001995
32 0.001993
36 0.00198
46 0.000999
48 0.002026
40 0.001996
33 0.001031
41 0.001995
52 0.00199
56 0.00198
58 0.001994
65 0.002
74 0.000998
89 0.001995
98 0.001
106 0.000999
115 0.002072
122 0.000997
130 0.000997
139 0.001022
148 0.001029
163 0.0
173 0.000985
182 0.001994
191 0.001026
202 0.00204
210 0.001052
219 0.002011
229 0.002016
237 0.001961
182 0.001995
94 0.000998
55 0.000998
60 0.001026
74 0.001028
76 0.001048
69 0.001044
68 0.001992
75 0.000996
77 0.002046
76 0.002043
77 0.001002
82 0.001995
95 0.001007
108 0.001013
118 0.001026
125 0.001011
131 0.001008
137 0.001023
143 0.001017
151 0.000991
159 0.000969
167 0.001953
174 0.002042
181 0.002043
191 0.001993
203 0.000951
214 0.001029
192 0.001034
104 0.002041
46 0.0
28 0.0
37 0.000997
45 0.000997
40 0.001003
28 0.0
27 0.0
42 0.0
52 0.0
51 0.000998
55 0.0
64 0.0
76 0.0
86 0.0
98 0.0
106 0.0
112 0.0
119 0.00101
126 0.000998
135 0.000998
149 0.0
161 0.0
172 0.001029
181 0.0
189 0.0
197 0.0
211 0.0
221 0.0
226 0.0
168 0.0
84 0.0
42 0.0
52 0.000997
63 0.0
58 0.0
49 0.0
49 0.0
67 0.0
73 0.001
74 0.0
74 0.000999
82 0.0
91 0.0
104 0.0
115 0.001003
126 0.002041
130 0.001038
137 0.0
144 0.0
149 0.000967
158 0.0
166 0.001953
175 0.0
181 0.0
190 0.0
200 0.001039
207 0.0
152 0.002024
80 0.002005
45 0.0
50 0.0
61 0.000988
64 0.001993
56 0.002036
53 0.0
64 0.0
72 0.0
72 0.001995
73 0.0
78 0.001009
90 0.002011
100 0.002052
111 0.0
118 0.0
125 0.0
130 0.002001
136 0.002016
146 0.0
153 0.0
161 0.0
176 0.000998
184 0.0
193 0.001993
200 0.001994
208 0.000995
216 0.0
226 0.000994
231 0.001995
192 0.001995
100 0.000997
45 0.0
50 0.0
58 0.000997
55 0.000997
46 0.001995
43 0.001995
56 0.001001
65 0.0
65 0.000997
65 0.001996
70 0.002027
81 0.0
90 0.0
105 0.000998
113 0.000965
120 0.000962
127 0.003004
134 0.002008
145 0.0
154 0.00099
163 0.0
172 0.002029
183 0.001996
194 0.0
203 0.0
216 0.001008
225 0.00096
235 0.000966
243 0.00296
242 0.001978
132 0.0
70 0.0
53 0.0
63 0.002993
77 0.002987
78 0.0
69 0.0
75 0.0
84 0.000979
84 0.001996
82 0.002965
85 0.002975
96 0.001994
105 0.000997
115 0.000995
123 0.002027
129 0.002027
136 0.001996
141 0.0
150 0.0
156 0.0
165 0.0
173 0.002993
182 0.003003
192 0.0
201 0.0
211 0.001008
220 0.002021
215 0.003028
110 0.0
51 0.002001
37 0.00097
47 0.0
51 0.003008
43 0.002993
36 0.001988
43 0.0
54 0.000932
59 0.000936
59 0.001991
62 0.003006
69 0.003014
83 0.002021
98 0.003029
108 0.000948
115 0.0
122 0.0
128 0.002993
134 0.003025
145 0.001972
153 0.0
162 0.001994
172 0.002993
182 0.003025
193 0.001993
204 0.004027
217 0.0
226 0.003005
232 0.002999
185 0.003035
90 0.003019
39 0.002986
40 0.000826
52 0.002002
58 0.003025
52 0.003992
43 0.001993
56 0.00399
67 0.002001
70 0.002987
72 0.003003
76 0.004026
86 0.004039
100 0.002031
109 0.002033
119 0.000989
125 0.003028
131 0.003999
138 0.001997
147 0.004021
160 0.002989
169 0.001992
176 0.00302
184 0.004036
191 0.005028
201 0.002989
211 0.002974
220 0.001994
218 0.004032
146 0.004026
46 0.004988
38 0.004989
55 0.002973
62 0.003002
57 0.003023
51 0.00502
59 0.004988
69 0.001996
72 0.002993
71 0.002006
75 0.003991
84 0.003974
103 0.005021
113 0.004019
124 0.002961
130 0.002994
137 0.002993
143 0.005019
150 0.00499
159 0.002998
169 0.003031
178 0.001961
188 0.004988
198 0.004991
211 0.004872
219 0.005026
229 0.002994
238 0.00399
243 0.002962
188 0.003994
87 0.005018
39 0.005052
36 0.003005
47 0.00303
54 0.002961
48 0.004942
41 0.002948
52 0.004986
62 0.004988
65 0.002957
66 0.00295
71 0.002995
81 0.004989
93 0.004987
107 0.003987
116 0.002987
125 0.00299
133 0.004986
146 0.002955
154 0.004996
163 0.004997
177 0.002986
187 0.003993
196 0.003995
208 0.005988
217 0.00595
227 0.003965
236 0.003991
190 0.002981
194 0.00598
169 0.002951
113 0.005987
88 0.005028
85 0.003956
92 0.003956
97 0.003996
96 0.005986
92 0.006019
95 0.004
100 0.003991
101 0.002993
101 0.006038
104 0.004026
110 0.006054
116 0.006009
123 0.002986
127 0.003023
131 0.005031
135 0.006016
137 0.005985
142 0.003988
146 0.003992
152 0.003992
156 0.005984
165 0.003978
169 0.006983
174 0.00698
180 0.003988
185 0.004988
176 0.004952
123 0.006946
86 0.007032
74 0.004022
79 0.003985
84 0.003983
84 0.005985
77 0.004958
81 0.007019
87 0.007018
91 0.004974
91 0.004988
94 0.004989
98 0.007102
104 0.007021
113 0.004984
118 0.003993
122 0.004973
127 0.006021
133 0.004953
137 0.006983
142 0.006995
149 0.004956
154 0.004988
159 0.004943
164 0.004988
169 0.006982
174 0.006949
180 0.004985
185 0.004987
148 0.005949
100 0.005983
79 0.005011
81 0.007965
88 0.007978
91 0.004988
87 0.00399
84 0.003991
88 0.006662
94 0.00699
98 0.004986
98 0.004993
103 0.005983
109 0.00599
115 0.004957
122 0.007983
125 0.006981
130 0.004961
133 0.004956
135 0.004987
139 0.006949
143 0.006961
149 0.004989
153 0.005985
161 0.006943
164 0.005992
169 0.004948
175 0.007973
172 0.007975
132 0.00602
96 0.005983
84 0.005971
87 0.00798
94 0.00798
97 0.004992
94 0.005945
98 0.005958
101 0.005026
101 0.005948
101 0.007987
103 0.008024
109 0.005985
115 0.005958
119 0.005986
123 0.007981
128 0.007967
131 0.004969
133 0.005978
138 0.005955
141 0.005951
146 0.005953
151 0.007947
155 0.007979
160 0.00698
164 0.00698
167 0.005937
172 0.007979
175 0.007015
153 0.005953
108 0.006021
83 0.005954
79 0.006969
83 0.006942
81 0.00701
76 0.007011
75 0.005955
83 0.005967
90 0.006973
89 0.007089
89 0.00698
91 0.006017
97 0.005965
107 0.00594
112 0.006947
116 0.007005
121 0.007023
124 0.006967
128 0.005925
132 0.00695
137 0.005984
143 0.007979
149 0.00698
155 0.006971
160 0.006981
169 0.006968
176 0.006982
182 0.006947
186 0.006975
136 0.005949
92 0.005974
77 0.00695
81 0.006976
90 0.005999
89 0.006016
83 0.006023
82 0.006976
92 0.007009
94 0.006948
93 0.006947
93 0.00695
98 0.007012
104 0.007011
112 0.005971
115 0.006278
120 0.00694
123 0.007017
126 0.006025
133 0.007106
137 0.007033
141 0.00699
146 0.00695
151 0.005984
156 0.005981
163 0.00599
171 0.005944
174 0.005983
145 0.006014
99 0.005952
76 0.006024
79 0.006013
86 0.005962
85 0.006014
81 0.005994
83 0.004952
89 0.005981
91 0.005975
89 0.00599
92 0.006014
97 0.006019
103 0.006009
109 0.006016
118 0.006017
122 0.006013
127 0.00598
131 0.006019
135 0.006017
139 0.006014
144 0.004998
152 0.005161
157 0.004991
163 0.005018
168 0.005014
172 0.005023
182 0.005983
188 0.004943
169 0.006055
108 0.005994
73 0.00601
66 0.004953
71 0.005981
77 0.004984
73 0.006019
66 0.005985
66 0.006017
73 0.005021
81 0.004987
80 0.005023
83 0.004942
88 0.004949
96 0.005019
102 0.00503
107 0.005026
114 0.004985
119 0.005016
122 0.004945
127 0.005074
133 0.00495
142 0.005981
148 0.003963
156 0.005075
162 0.004989
167 0.004987
172 0.004983
178 0.004988
186 0.004957
187 0.003988
141 0.003954
88 0.003935
67 0.005022
73 0.005018
79 0.005004
77 0.004954
71 0.003996
74 0.00399
81 0.003976
85 0.003989
85 0.003989
84 0.004985
90 0.003989
98 0.003955
104 0.004033
115 0.00404
118 0.003989
122 0.004989
126 0.004986
130 0.005022
134 0.004962
140 0.003991
145 0.003986
152 0.00399
158 0.00399
165 0.004022
172 0.003956
164 0.004023
114 0.003995
79 0.003993
71 0.004022
79 0.005043
84 0.003026
82 0.004995
77 0.004005
81 0.003988
88 0.00399
90 0.003951
89 0.003991
92 0.003942
98 0.00396
105 0.004012
111 0.004019
116 0.003994
121 0.004022
124 0.005012
127 0.00399
134 0.003958
138 0.003982
142 0.00405
150 0.004001
155 0.004024
160 0.003957
165 0.003993
173 0.004024
179 0.003986
161 0.00299
111 0.003021
81 0.003026
77 0.004019
83 0.00299
87 0.002991
79 0.002024
78 0.002925
85 0.003994
92 0.003988
93 0.001996
93 0.002991
96 0.003035
101 0.00299
107 0.00303
113 0.003024
118 0.003023
123 0.003024
130 0.00299
134 0.003021
139 0.003022
143 0.003025
151 0.002958
156 0.003022
160 0.002972
165 0.002995
171 0.002995
177 0.00301
187 0.003027
187 0.002008
113 0.001952
89 0.002022
87 0.002985
95 0.003008
100 0.002992
95 0.002966
92 0.001995
96 0.003026
100 0.00296
99 0.003028
97 0.003024
99 0.002042
107 0.002001
112 0.001994
117 0.002036
120 0.003026
124 0.003012
128 0.003021
131 0.003021
135 0.002982
139 0.002027
142 0.001979
149 0.002024
154 0.001978
164 0.001994
167 0.001964
140 0.00202
98 0.003021
76 0.003021
76 0.003021
83 0.003012
83 0.002033
78 0.001993
75 0.001994
82 0.002001
88 0.002025
88 0.001923
89 0.002019
93 0.002024
98 0.001982
104 0.001992
111 0.001996
116 0.000997
121 0.000996
126 0.002037
130 0.001997
136 0.002004
141 0.001988
150 0.001936
156 0.00203
161 0.001994
166 0.000997
172 0.001007
182 0.000997
187 0.000996
169 0.000979
115 0.000996
83 0.001037
78 0.001028
85 0.002005
88 0.002038
82 0.001993
80 0.001997
87 0.002027
94 0.002037
96 0.001996
95 0.001998
98 0.002052
104 0.002021
110 0.001028
118 0.000985
124 0.000995
129 0.000964
131 0.001016
134 0.001042
139 0.000994
144 0.001024
150 0.002037
155 0.000998
160 0.00096
165 0.002049
172 0.001011
180 0.00203
140 0.002021
87 0.002023
75 0.001996
80 0.000999
87 0.001996
91 0.0
88 0.0
89 0.00117
95 0.0
97 0.0
95 0.001047
96 0.000991
104 0.000997
112 0.000981
120 0.000999
126 0.001038
131 0.000997
135 0.000989
139 0.0
145 0.0
149 0.0
154 0.0
160 0.0
166 0.0
176 0.0
183 0.0
192 0.000986
198 0.00101
181 0.0
117 0.0
78 0.0
69 0.0
76 0.0
81 0.0
79 0.0
73 0.0
79 0.0
86 0.0
90 0.0
90 0.0
93 0.0
99 0.0
106 0.0
117 0.0
124 0.0
131 0.0
135 0.0
140 0.0
148 0.000997
154 0.000971
163 0.000984
170 0.002987
176 0.0
182 0.0
192 0.0
200 0.002024
207 0.002961
174 0.001007
129 0.0
85 0.0
88 0.0
98 0.0
100 0.001997
96 0.00204
97 0.000991
103 0.000984
105 0.000984
104 0.0
105 0.00105
110 0.0
117 0.0
121 0.0
132 0.0
136 0.0
140 0.0
143 0.002043
148 0.000963
151 0.001006
156 0.0
161 0.001018
166 0.003009
173 0.0
181 0.000989
187 0.0
155 0.0
103 0.000999
81 0.003021
82 0.001997
93 0.0
97 0.0
93 0.001023
91 0.000965
95 0.00202
101 0.003025
105 0.0
104 0.000989
108 0.00096
113 0.000963
120 0.0
125 0.003031
130 0.003033
135 0.000997
139 0.001
142 0.000959
145 0.001999
149 0.002987
156 0.000968
163 0.001987
169 0.000966
175 0.001989
182 0.000962
189 0.001998
195 0.002027
173 0.00094
115 0.0
89 0.000967
87 0.002993
96 0.002995
104 0.000954
100 0.001992
98 0.0
105 0.0
110 0.000986
111 0.002047
111 0.002028
114 0.000966
119 0.001018
124 0.001007
130 0.001982
135 0.002025
138 0.000961
143 0.002025
146 0.000998
150 0.000949
153 0.001002
157 0.003016
161 0.002992
167 0.000997
172 0.0
178 0.000968
179 0.001998
144 0.001997
94 0.001001
88 0.002994
100 0.000961
105 0.000951
103 0.0
101 0.004029
105 0.003004
108 0.0
107 0.0
107 0.0
110 0.002048
115 0.003045
122 0.0
127 0.002031
133 0.0
136 0.0
139 0.000943
143 0.002993
147 0.002956
151 0.0
156 0.0
161 0.00097
164 0.003041
169 0.002994
178 0.0
185 0.003044
150 0.0
101 0.0
81 0.001007
82 0.003023
90 0.002992
95 0.000964
90 0.0
86 0.0
90 0.003042
96 0.003035
99 0.0
99 0.002992
103 0.002995
109 0.002021
114 0.000957
120 0.0
124 0.002007
127 0.002002
132 0.001035
136 0.000957
139 0.0
144 0.002992
150 0.005022
158 0.003022
162 0.003024
169 0.0
176 0.000988
183 0.001997
185 0.00402
152 0.00399
97 0.003981
85 0.0
90 0.0
99 0.004952
102 0.003023
96 0.003986
99 0.002992
105 0.002046
104 0.002032
102 0.00201
104 0.003071
108 0.004033
116 0.002004
121 0.003
125 0.003023
128 0.004023
133 0.001987
136 0.003993
139 0.00399
144 0.002997
148 0.001999
152 0.002022
157 0.004026
163 0.00399
172 0.002021
176 0.002979
151 0.001995
106 0.003961
82 0.002993
86 0.003992
93 0.003999
91 0.003991
86 0.003022
87 0.002955
94 0.004989
98 0.005032
97 0.002042
98 0.002986
100 0.001971
104 0.004034
113 0.002992
117 0.00401
121 0.004023
124 0.003006
128 0.003016
132 0.003037
135 0.00502
140 0.005023
147 0.001991
152 0.002999
156 0.002009
161 0.005018
171 0.001995
176 0.005019
160 0.005004
106 0.001993
89 0.002968
91 0.002992
98 0.005018
101 0.005017
95 0.003004
79 0.003129
84 0.002995
92 0.005024
93 0.001999
93 0.006042
96 0.005993
103 0.002964
110 0.002993
115 0.004982
118 0.002988
123 0.005026
127 0.005021
131 0.003995
136 0.004001
142 0.003982
149 0.00299
154 0.002989
160 0.005022
165 0.004989
171 0.004032
140 0.002992
93 0.002988
71 0.005965
72 0.005982
82 0.002959
84 0.003961
77 0.003992
80 0.002994
88 0.002999
89 0.004993
88 0.006018
91 0.002972
95 0.00401
103 0.002995
110 0.006026
115 0.005985
121 0.003941
126 0.00395
131 0.002949
137 0.00301
141 0.00399
147 0.006016
154 0.007032
161 0.003962
167 0.003988
172 0.004019
179 0.005985
186 0.006018
190 0.003993
146 0.003957
91 0.003029
67 0.002994
75 0.002987
81 0.005994
77 0.006024
69 0.003988
73 0.004002
83 0.003994
87 0.006984
86 0.00699
88 0.003948
93 0.003993
101 0.003986
112 0.003975
117 0.003
123 0.006016
128 0.005985
134 0.004948
139 0.004989
143 0.00301
149 0.006016
156 0.005953
163 0.004986
167 0.004987
178 0.002993
186 0.003995
192 0.003026
182 0.006986
127 0.006983
75 0.004021
69 0.003969
78 0.003974
86 0.007016
85 0.006982
79 0.003988
84 0.004985
90 0.003986
88 0.003987
89 0.003996
94 0.006992
101 0.006949
112 0.004942
117 0.004984
122 0.004011
127 0.006992
132 0.007011
135 0.007037
141 0.005956
148 0.006973
156 0.003993
162 0.00499
168 0.005015
178 0.007982
183 0.007946
192 0.004985
181 0.004926
123 0.00499
77 0.007029
63 0.007042
72 0.004993
76 0.007964
68 0.004989
65 0.003996
73 0.003973
82 0.007979
85 0.007974
85 0.004991
88 0.004988
94 0.004992
104 0.007975
109 0.00705
119 0.005954
126 0.007014
133 0.004982
139 0.003992
144 0.005988
151 0.00798
157 0.00798
166 0.004959
172 0.00502
178 0.004988
189 0.007972
194 0.00798
204 0.004987
143 0.007988
91 0.005985
73 0.005985
78 0.005986
89 0.007952
90 0.007929
83 0.005989
82 0.005984
89 0.004955
94 0.007978
93 0.007979
92 0.005983
98 0.007978
108 0.005945
115 0.005984
120 0.005979
127 0.006982
131 0.007967
136 0.005987
139 0.006001
145 0.005998
153 0.007973
158 0.00796
165 0.005939
177 0.007973
185 0.005976
192 0.005988
182 0.005972
102 0.006956
67 0.006976
61 0.006003
69 0.005948
75 0.006009
68 0.00799
63 0.007969
69 0.006949
82 0.007012
82 0.005969
82 0.006965
85 0.006017
94 0.006986
101 0.006997
108 0.005984
116 0.005954
122 0.006007
128 0.00698
134 0.007015
142 0.006981
150 0.007176
158 0.005982
162 0.005987
172 0.006947
179 0.006981
188 0.006979
197 0.006999
200 0.006933
172 0.00694
106 0.006983
66 0.006991
74 0.006956
80 0.006956
77 0.007018
70 0.006982
71 0.005987
82 0.005981
86 0.005974
86 0.00598
87 0.006013
93 0.00607
100 0.005984
107 0.005981
117 0.005988
122 0.007012
127 0.006015
131 0.006981
137 0.006973
141 0.006943
148 0.006984
153 0.005985
161 0.005983
170 0.005985
178 0.006062
185 0.006001
132 0.005983
79 0.006016
59 0.005984
65 0.005984
73 0.005984
74 0.005948
68 0.005986
69 0.006037
79 0.005985
84 0.00496
84 0.006029
84 0.006015
94 0.005979
102 0.005969
111 0.005984
118 0.005983
125 0.006015
131 0.006017
135 0.006001
140 0.006019
148 0.004992
155 0.004953
161 0.004986
169 0.005024
179 0.004953
186 0.005019
194 0.005019
205 0.004993
210 0.005
170 0.006021
98 0.006012
62 0.006012
61 0.004986
71 0.004987
75 0.005019
70 0.005021
67 0.004982
77 0.004986
84 0.004956
85 0.004982
87 0.005012
91 0.003948
99 0.004987
107 0.003996
117 0.003944
123 0.005987
129 0.004988
135 0.003973
144 0.004996
150 0.004987
156 0.005021
166 0.00498
172 0.004991
177 0.005017
183 0.005029
190 0.005026
200 0.004986
206 0.004989
177 0.004987
107 0.003956
62 0.004004
68 0.00399
80 0.005021
85 0.004988
78 0.005002
82 0.005019
89 0.005016
91 0.003988
90 0.00497
93 0.004953
99 0.003987
109 0.003979
123 0.003963
128 0.003957
134 0.00399
140 0.00399
146 0.003958
152 0.003986
158 0.004993
164 0.005021
172 0.004939
182 0.004001
188 0.003939
201 0.003958
209 0.00399
217 0.00399
207 0.003958
129 0.004024
65 0.004028
59 0.003988
69 0.004003
77 0.004016
76 0.004987
66 0.003952
69 0.00396
84 0.004023
87 0.003989
87 0.003958
90 0.003989
97 0.00399
108 0.00399
116 0.004029
124 0.002988
131 0.004031
137 0.002993
145 0.003029
151 0.003966
164 0.00399
171 0.003955
180 0.004007
186 0.004028
193 0.003989
206 0.003983
216 0.00402
221 0.003994
174 0.00403
99 0.003022
62 0.003025
67 0.002995
83 0.003024
82 0.003023
78 0.003979
82 0.003957
88 0.003989
89 0.00399
87 0.004022
90 0.004023
97 0.002948
106 0.002988
117 0.002987
124 0.003027
133 0.003026
137 0.003038
142 0.003026
147 0.004054
153 0.003027
161 0.003951
167 0.002993
175 0.002993
184 0.001998
194 0.003036
199 0.002992
145 0.003007
55 0.001996
48 0.002047
55 0.00296
63 0.002989
62 0.001996
52 0.002991
57 0.001995
68 0.002026
73 0.003003
73 0.003
74 0.001991
83 0.001995
94 0.002936
105 0.003023
113 0.001984
120 0.001996
126 0.001995
132 0.001994
140 0.001999
145 0.002034
151 0.002011
157 0.002041
163 0.002024
172 0.001985
185 0.003027
198 0.003038
197 0.002993
140 0.003027
79 0.003024
56 0.002028
63 0.002035
72 0.002039
71 0.00201
64 0.001993
62 0.001997
73 0.000998
82 0.002027
79 0.002039
82 0.002026
87 0.001995
94 0.002993
102 0.002029
111 0.002027
116 0.002026
123 0.002053
128 0.001983
133 0.001984
143 0.002025
150 0.001996
158 0.002028
164 0.001022
169 0.000998
175 0.000998
183 0.000998
193 0.002036
190 0.00104
132 0.000996
77 0.001967
58 0.002037
70 0.001999
77 0.002027
73 0.002041
72 0.001978
79 0.001965
83 0.001994
82 0.000997
81 0.001994
85 0.000996
94 0.000996
102 0.001037
109 0.00103
118 0.002007
123 0.002014
130 0.002011
134 0.002024
140 0.001995
146 0.002028
151 0.002019
159 0.000996
167 0.001995
175 0.00104
184 0.001047
191 0.001032
120 0.001997
67 0.000996
48 0.000998
55 0.000997
63 0.000997
60 0.001996
51 0.002032
53 0.001036
63 0.001
69 0.001055
69 0.000997
69 0.002987
78 0.0
87 0.000996
95 0.0
105 0.0
112 0.001019
118 0.001042
122 0.001002
129 0.001027
136 0.00102
143 0.0
150 0.001027
158 0.000983
170 0.000997
180 0.0
189 0.0
192 0.0
135 0.0
76 0.0
53 0.0
56 0.0
68 0.0
67 0.0
60 0.000998
59 0.0
74 0.0
79 0.0
78 0.0
81 0.0
87 0.0
96 0.0
104 0.0
113 0.000998
121 0.000997
126 0.000967
132 0.0
135 0.000997
146 0.0
150 0.000998
157 0.000998
165 0.001994
172 0.0
184 0.000952
191 0.0
183 0.0
120 0.002028
72 0.001995
58 0.0
69 0.000997
80 0.0
74 0.0
75 0.000991
82 0.003042
87 0.003017
87 0.000998
87 0.000995
90 0.0
101 0.000985
109 0.002023
119 0.001004
126 0.001004
135 0.0
139 0.000947
143 0.0
149 0.00302
155 0.001994
164 0.0
171 0.0
178 0.0
184 0.002994
192 0.002992
204 0.001013
207 0.003043
123 0.0
71 0.0
58 0.0
66 0.003025
77 0.003038
76 0.0
69 0.000965
70 0.002035
79 0.0
85 0.004006
87 0.000996
89 0.003032
96 0.003023
106 0.000963
115 0.000957
122 0.0
129 0.003026
134 0.002984
142 0.001005
148 0.0
154 0.000997
162 0.002995
170 0.004986
184 0.002038
192 0.001988
202 0.0
212 0.0
222 0.000998
227 0.001994
174 0.002029
86 0.001008
70 0.0
76 0.0
89 0.003026
94 0.003018
86 0.003022
90 0.003042
97 0.0
97 0.001002
94 0.0
96 0.003023
103 0.003039
114 0.0
122 0.0
128 0.000952
136 0.003025
140 0.001994
148 0.002029
152 0.00303
161 0.000991
167 0.0
174 0.000976
181 0.001997
189 0.001992
200 0.000969
210 0.001003
215 0.0
171 0.003006
93 0.002992
55 0.003025
63 0.003043
75 0.0
73 0.0
66 0.0
68 0.002027
76 0.002032
82 0.0
82 0.000953
83 0.001034
88 0.002011
95 0.003054
108 0.002032
115 0.002026
124 0.0
130 0.0
135 0.0
141 0.003044
146 0.002995
155 0.0
162 0.00102
170 0.0
177 0.003988
184 0.003996
200 0.003003
211 0.002969
202 0.0
121 0.002045
64 0.000949
48 0.003014
54 0.003043
71 0.0
70 0.0
63 0.0
63 0.002027
72 0.003052
81 0.003045
80 0.003025
84 0.0
92 0.002976
101 0.0
110 0.004029
119 0.002949
126 0.002963
133 0.0
139 0.000956
144 0.001028
154 0.0
162 0.0
168 0.003991
175 0.004025
187 0.00302
197 0.002996
205 0.002992
188 0.00403
110 0.004023
53 0.0
50 0.0
62 0.0
76 0.002997
73 0.002996
74 0.003031
81 0.003025
82 0.002992
79 0.002041
82 0.002021
89 0.004023
100 0.003986
113 0.0
123 0.003966
130 0.002006
140 0.00301
145 0.002993
151 0.003993
157 0.004037
167 0.00299
176 0.002992
186 0.003007
194 0.003992
202 0.004022
215 0.003038
224 0.003023
232 0.003959
165 0.002997
75 0.003026
39 0.003991
38 0.004025
53 0.003
59 0.001962
55 0.000978
48 0.0049
54 0.004948
66 0.00301
68 0.0
68 0.002991
77 0.002993
87 0.003024
98 0.004025
108 0.003982
120 0.001963
129 0.00299
136 0.001999
142 0.003988
149 0.003989
160 0.002992
169 0.002993
180 0.002989
197 0.002992
206 0.001996
215 0.004988
226 0.005022
239 0.00296
240 0.002
161 0.003015
77 0.005018
48 0.005022
54 0.002992
67 0.002993
74 0.00299
65 0.002984
71 0.001995
78 0.005023
78 0.004987
76 0.001992
79 0.003009
86 0.002992
97 0.005033
107 0.004949
118 0.000996
126 0.002997
133 0.002958
142 0.002998
147 0.001996
153 0.001995
162 0.004991
171 0.005018
181 0.001992
190 0.003
202 0.002995
212 0.006017
217 0.006039
128 0.004002
61 0.003031
40 0.002962
51 0.002976
60 0.003014
56 0.005024
50 0.00502
56 0.002
66 0.002995
71 0.003031
70 0.006018
72 0.005949
82 0.003966
92 0.003986
107 0.002991
114 0.002989
120 0.002994
126 0.004988
132 0.005982
140 0.00399
147 0.003006
155 0.002987
161 0.006023
169 0.005986
179 0.002992
191 0.006016
204 0.003006
212 0.00301
181 0.002987
99 0.006018
53 0.006974
46 0.002991
57 0.002993
64 0.003008
59 0.006019
52 0.005985
60 0.004029
72 0.006016
72 0.002989
73 0.002995
78 0.003042
86 0.006016
96 0.005984
108 0.002992
116 0.004003
121 0.003994
127 0.006983
133 0.007013
139 0.003996
149 0.007025
157 0.003987
164 0.00399
171 0.004004
180 0.007024
190 0.006979
192 0.003995
135 0.002943
74 0.002022
47 0.006981
49 0.006987
63 0.005001
64 0.006973
61 0.003987
68 0.003972
74 0.003997
74 0.00702
73 0.006987
79 0.002988
88 0.003989
98 0.003987
106 0.007016
114 0.006983
122 0.004958
129 0.006976
137 0.003993
141 0.003987
147 0.004171
154 0.00798
161 0.00703
170 0.007981
178 0.004989
187 0.004958
197 0.005984
202 0.007979
141 0.007977
48 0.00798
39 0.007976
46 0.005088
54 0.004997
50 0.004988
41 0.007964
45 0.007976
56 0.004068
62 0.004986
61 0.004992
64 0.006984
73 0.007974
87 0.007936
96 0.007973
106 0.004968
114 0.005032
121 0.00499
126 0.007964
134 0.007961
141 0.004991
148 0.004989
156 0.004984
163 0.007012
173 0.007977
189 0.007941
196 0.00798
202 0.004957
155 0.004989
87 0.004986
50 0.007975
54 0.006986
64 0.005989
65 0.005972
59 0.005996
57 0.007981
64 0.007941
71 0.007978
69 0.007964
73 0.005004
80 0.005954
89 0.005053
102 0.00698
109 0.006979
116 0.00599
122 0.005989
128 0.004987
135 0.007971
144 0.004992
154 0.007975
162 0.00798
168 0.004993
176 0.005985
186 0.005997
197 0.006978
186 0.006944
121 0.005992
68 0.00498
50 0.006014
58 0.005983
63 0.006012
54 0.005977
51 0.007012
60 0.005989
70 0.005987
73 0.00598
72 0.006979
76 0.006977
83 0.005935
94 0.005984
102 0.005988
112 0.006992
120 0.006002
130 0.006983
136 0.00596
145 0.005969
153 0.005966
161 0.005982
168 0.006017
175 0.007026
186 0.006981
193 0.005986
202 0.005997
203 0.006939
100 0.005996
74 0.006002
67 0.006984
79 0.006015
84 0.005993
74 0.005982
71 0.005982
80 0.006015
89 0.006014
91 0.005988
89 0.006027
90 0.006944
102 0.005964
111 0.005974
120 0.006978
126 0.006015
132 0.00598
137 0.005981
141 0.005983
146 0.006002
150 0.006016
157 0.005979
164 0.005981
172 0.005987
182 0.005994
175 0.006978
102 0.006021
63 0.006034
57 0.005982
66 0.005984
70 0.005993
65 0.00499
61 0.006014
72 0.005982
80 0.005027
79 0.005017
80 0.005012
87 0.004981
97 0.006026
106 0.00502
116 0.00602
123 0.005984
128 0.005984
134 0.006017
139 0.005988
148 0.005988
154 0.00598
162 0.00599
175 0.004988
183 0.004982
191 0.004993
199 0.005027
210 0.004995
177 0.004982
128 0.005006
63 0.006014
54 0.006029
65 0.005985
68 0.004957
61 0.004986
56 0.004967
68 0.004982
78 0.004987
79 0.005019
80 0.005009
85 0.004023
94 0.003988
104 0.00502
114 0.005052
124 0.005038
132 0.004988
139 0.004987
149 0.004984
155 0.004985
162 0.004986
171 0.005028
181 0.00499
189 0.004974
198 0.004987
209 0.00395
218 0.004997
212 0.00399
142 0.003988
71 0.004992
71 0.004991
82 0.004991
89 0.004988
84 0.004987
81 0.004987
91 0.004988
97 0.004986
95 0.004987
96 0.003995
102 0.004001
116 0.00399
130 0.003963
141 0.003953
148 0.005012
154 0.004987
160 0.004978
165 0.004996
174 0.004999
180 0.005019
187 0.004958
195 0.004897
205 0.005018
219 0.004972
214 0.004018
118 0.003951
70 0.00395
60 0.003958
67 0.004022
73 0.003989
65 0.004953
58 0.003983
64 0.003009
78 0.004033
86 0.00402
85 0.00399
92 0.003994
105 0.003958
116 0.003995
126 0.003984
134 0.003978
141 0.003979
150 0.004953
155 0.004986
162 0.004945
171 0.003022
181 0.003994
193 0.004042
208 0.004027
224 0.003952
237 0.003992
248 0.003988
239 0.002995
165 0.003029
91 0.003033
80 0.00303
89 0.003011
96 0.003036
90 0.003025
81 0.003023
96 0.004006
119 0.003954
127 0.003949
131 0.003942
140 0.003957
154 0.003989
171 0.004002
182 0.002992
192 0.003017
198 0.002993
202 0.002992
210 0.00301
217 0.003025
225 0.002988
231 0.003026
238 0.003991
246 0.004023
255 0.004001
255 0.002992
255 0.003026
220 0.003023
140 0.002986
106 0.002992
112 0.003025
126 0.002993
121 0.002986
118 0.002995
128 0.002998
139 0.004031
138 0.003023
136 0.002023
142 0.001999
152 0.003028
162 0.002993
172 0.003024
181 0.003026
188 0.002999
193 0.002997
198 0.002982
204 0.003024
210 0.003024
217 0.002993
225 0.00196
235 0.00203
185 0.00203
189 0.003013
194 0.002991
198 0.00299
180 0.003024
134 0.002007
110 0.002029
112 0.002004
118 0.001976
118 0.002028
113 0.002028
112 0.003034
118 0.002992
124 0.001998
125 0.001996
124 0.001996
127 0.002026
132 0.001995
138 0.002039
142 0.002028
