87 0.036907
87 0.004993
97 0.004994
104 0.00498
102 0.005975
98 0.005978
99 0.006002
103 0.005998
106 0.004986
108 0.004987
112 0.004992
115 0.005032
116 0.004992
116 0.004988
119 0.004985
120 0.004987
120 0.004987
105 0.004987
81 0.004987
80 0.003989
83 0.00399
68 0.004997
59 0.004953
67 0.004994
77 0.005013
77 0.004987
77 0.004984
83 0.004988
91 0.005018
100 0.003956
107 0.003961
111 0.003958
116 0.003955
118 0.003989
120 0.00399
114 0.004986
92 0.004975
69 0.004987
61 0.004987
62 0.004987
65 0.004987
71 0.00399
75 0.004031
77 0.004018
78 0.00403
50 0.004025
53 0.004017
59 0.004005
68 0.003988
77 0.003985
81 0.004021
88 0.004015
95 0.00399
98 0.00399
99 0.00399
81 0.00399
37 0.003955
17 0.003974
17 0.004045
20 0.004044
26 0.003986
31 0.004029
34 0.00399
37 0.003977
34 0.00399
35 0.003955
40 0.003993
47 0.003954
56 0.002952
67 0.002993
75 0.003998
83 0.002969
90 0.002963
96 0.003998
101 0.003999
109 0.00399
89 0.00399
48 0.003844
16 0.002992
10 0.002992
12 0.002993
21 0.002993
32 0.003991
40 0.00296
42 0.002999
38 0.001966
39 0.002991
44 0.00399
50 0.00399
57 0.004057
65 0.003958
70 0.003003
78 0.002975
86 0.003004
92 0.004
94 0.004035
96 0.002992
103 0.003958
107 0.003991
85 0.003028
46 0.002992
16 0.002993
8 0.002997
12 0.002968
21 0.003009
32 0.002991
39 0.002997
36 0.002981
33 0.003997
35 0.002984
41 0.001995
47 0.001995
54 0.002027
63 0.002001
70 0.001994
73 0.001995
80 0.002992
90 0.003031
97 0.003001
104 0.002003
99 0.001995
67 0.001996
26 0.001995
2 0.001985
0 0.001995
2 0.002992
4 0.001995
11 0.002027
21 0.003046
30 0.002992
32 0.002029
38 0.001942
46 0.00199
55 0.001994
66 0.001995
72 0.002027
84 0.001994
90 0.002008
98 0.001995
106 0.001995
118 0.002036
127 0.001994
134 0.001995
125 0.001988
89 0.002994
48 0.002021
29 0.002064
30 0.001994
37 0.001991
41 0.00199
49 0.002025
60 0.001996
64 0.001987
62 0.002021
63 0.001947
74 0.001995
82 0.000997
88 0.000998
98 0.001006
107 0.000967
114 0.000968
121 0.000964
127 0.000981
132 0.001966
142 0.001996
148 0.001975
145 0.001952
102 0.001984
65 0.002005
50 0.001011
52 0.000998
60 0.001003
69 0.000993
77 0.001014
82 0.000989
84 0.000997
84 0.000975
84 0.000986
91 0.0
101 0.001999
108 0.000993
116 0.000998
124 0.000998
129 0.000956
138 0.000971
146 0.000998
151 0.000997
155 0.000997
164 0.000997
149 0.000998
110 0.000965
71 0.000998
51 0.000997
55 0.0
58 0.0
61 0.0
69 0.0
82 0.0
83 0.0
83 0.0
88 0.000997
95 0.001028
105 0.000961
112 0.000997
125 0.0
132 0.0
139 0.0
144 0.0
151 0.0
162 0.0
170 0.0
177 0.0
155 0.0
114 0.0
79 0.0
66 0.000983
76 0.001015
81 0.0
83 0.0
94 0.0
102 0.0
104 0.0
106 0.0
110 0.0
122 0.0
130 0.0
140 0.0
146 0.0
159 0.000999
163 0.000998
168 0.0
174 0.0
176 0.0
180 0.0
186 0.0
189 0.0
146 0.0
107 0.0
87 0.0
92 0.0
99 0.001005
105 0.000998
115 0.0
120 0.0
121 0.0
119 0.000998
118 0.0
128 0.000995
134 0.000988
138 0.0
146 0.0
155 0.0
162 0.0
166 0.0
172 0.000997
177 0.000998
179 0.000998
187 0.000998
187 0.000997
134 0.001045
95 0.001007
83 0.0
91 0.0
98 0.0
106 0.000999
115 0.001025
120 0.000998
122 0.000999
119 0.000991
120 0.002029
124 0.001995
137 0.000977
145 0.000971
154 0.000959
162 0.0
169 0.001002
175 0.000986
181 0.001995
185 0.001995
190 0.000997
197 0.000997
204 0.001007
199 0.000998
152 0.000964
100 0.000997
91 0.000997
95 0.000998
100 0.00099
108 0.000998
113 0.000998
119 0.001992
124 0.000996
126 0.000998
126 0.001047
132 0.000968
146 0.000998
156 0.001004
162 0.001038
169 0.001977
174 0.001996
180 0.002021
185 0.002028
189 0.001995
191 0.014962
199 0.000998
204 0.001021
212 0.001995
177 0.001007
135 0.002
106 0.002
102 0.001013
108 0.002097
114 0.000965
121 0.002014
130 0.002992
132 0.001995
126 0.002031
125 0.001997
128 0.002992
141 0.002029
149 0.002054
154 0.002028
160 0.001952
167 0.00204
171 0.001986
176 0.003041
181 0.001994
185 0.002038
190 0.00206
197 0.002051
195 0.002992
138 0.002033
95 0.003028
80 0.002992
84 0.002065
88 0.002031
95 0.001995
104 0.001989
110 0.001991
111 0.001995
110 0.00199
111 0.003018
116 0.002992
130 0.001993
139 0.002993
148 0.001939
156 0.001994
163 0.002008
171 0.001964
178 0.002991
182 0.002955
191 0.001987
198 0.001939
203 0.00298
197 0.003019
132 0.002029
90 0.001975
74 0.001995
74 0.002036
76 0.001995
81 0.002008
85 0.003046
93 0.003989
98 0.003978
99 0.002987
100 0.003025
111 0.002018
121 0.001991
132 0.002044
142 0.002999
148 0.002992
158 0.001994
164 0.001996
169 0.003027
175 0.004022
183 0.003989
188 0.003025
195 0.003022
204 0.003024
198 0.003042
159 0.002994
111 0.004049
81 0.003991
77 0.002977
82 0.002996
86 0.003017
94 0.002992
103 0.004037
101 0.004024
94 0.004018
95 0.003976
104 0.002994
114 0.003059
121 0.003989
132 0.004034
139 0.003057
145 0.003023
152 0.003031
160 0.00399
164 0.003989
172 0.004036
179 0.004007
190 0.004022
188 0.003964
155 0.004067
103 0.00402
64 0.004035
51 0.004052
52 0.004066
55 0.005047
62 0.005025
70 0.004029
77 0.002993
75 0.002996
76 0.003013
84 0.00403
93 0.002991
103 0.005026
113 0.005019
124 0.003989
134 0.003978
142 0.004024
149 0.004986
155 0.004987
166 0.004021
171 0.004024
181 0.003033
187 0.004001
178 0.003994
136 0.004971
82 0.004983
43 0.003997
41 0.003989
43 0.004012
44 0.005023
51 0.004987
64 0.00399
67 0.004022
69 0.004028
74 0.004986
84 0.00399
95 0.005067
106 0.005032
116 0.006019
131 0.005024
139 0.005015
149 0.005006
155 0.005017
165 0.005004
171 0.005017
182 0.004988
190 0.003989
196 0.004
204 0.003999
192 0.004967
152 0.006021
83 0.005017
58 0.005022
57 0.004979
64 0.005978
70 0.006017
79 0.005021
86 0.005012
86 0.005032
83 0.003974
85 0.005038
94 0.006028
106 0.005984
118 0.004962
128 0.004979
139 0.004986
143 0.005984
149 0.005991
159 0.005984
166 0.006013
175 0.005027
181 0.005029
189 0.006019
197 0.006016
184 0.006016
138 0.00602
79 0.006015
47 0.00602
41 0.005984
44 0.006029
50 0.006983
61 0.00602
69 0.005027
70 0.005022
71 0.006037
76 0.006984
85 0.007015
101 0.006025
114 0.006015
125 0.006016
133 0.005984
141 0.005984
156 0.00602
166 0.006015
172 0.005024
181 0.005018
185 0.007021
195 0.007019
201 0.007015
207 0.006015
179 0.006011
120 0.006019
70 0.006982
50 0.007028
50 0.007014
54 0.007024
61 0.006019
73 0.006009
77 0.007015
84 0.007014
84 0.006852
89 0.007016
99 0.00602
109 0.007012
124 0.007014
136 0.006982
153 0.007013
160 0.007012
172 0.006035
178 0.006026
185 0.006002
189 0.006058
198 0.007975
205 0.00797
211 0.006979
219 0.007013
211 0.007009
166 0.006982
90 0.007025
61 0.007016
64 0.007013
75 0.007016
82 0.007044
96 0.006023
104 0.007979
102 0.007979
98 0.007027
101 0.007057
109 0.006965
120 0.007978
139 0.007012
154 0.007958
162 0.00796
168 0.006955
174 0.007037
180 0.00701
185 0.007965
190 0.007016
201 0.007979
203 0.007979
214 0.007014
219 0.007978
161 0.007014
83 0.007949
49 0.007981
43 0.007013
49 0.007027
57 0.007015
62 0.006971
72 0.006972
81 0.006984
83 0.006981
83 0.006976
90 0.007979
105 0.007027
123 0.007976
135 0.007969
155 0.007976
163 0.007047
169 0.007017
178 0.006979
185 0.006982
193 0.006992
201 0.006979
210 0.006991
217 0.006981
208 0.00699
156 0.006974
96 0.007984
57 0.007021
48 0.007994
56 0.006978
63 0.006964
70 0.007025
77 0.007967
88 0.007015
87 0.007014
89 0.00699
95 0.006986
109 0.00698
124 0.006981
136 0.006995
148 0.006994
157 0.006984
166 0.005967
174 0.005981
183 0.005998
189 0.006017
193 0.006031
202 0.006948
208 0.0
208 0.007003
172 0.007025
109 0.006983
55 0.006977
50 0.006978
58 0.005982
69 0.006021
83 0.005989
98 0.005989
100 0.006016
92 0.005997
96 0.005987
106 0.005977
116 0.006994
127 0.007008
144 0.006983
154 0.006967
161 0.005962
170 0.005984
178 0.005995
185 0.006021
191 0.005984
202 0.005981
209 0.005996
211 0.005984
182 0.005976
120 0.005982
45 0.00597
22 0.006004
23 0.00601
30 0.005976
37 0.006024
46 0.006018
57 0.006038
61 0.005981
62 0.004983
66 0.005983
75 0.005987
88 0.006016
105 0.004993
116 0.004985
126 0.004996
139 0.005985
148 0.005965
159 0.005978
169 0.006022
182 0.006016
188 0.005997
194 0.00595
200 0.004998
175 0.004975
90 0.004979
43 0.004989
25 0.004984
28 0.004989
36 0.004986
51 0.005024
63 0.004993
69 0.005984
66 0.00601
66 0.005983
72 0.005981
83 0.004977
98 0.004986
109 0.004989
119 0.004992
129 0.004987
136 0.005005
149 0.00502
153 0.004986
161 0.004998
167 0.004978
175 0.004982
188 0.004987
190 0.003994
131 0.005001
66 0.005006
24 0.004988
15 0.004991
26 0.004986
45 0.005024
57 0.005021
68 0.004971
68 0.004985
65 0.004989
66 0.003995
75 0.003998
88 0.003982
106 0.003986
115 0.004996
125 0.004957
137 0.004986
145 0.003991
158 0.00396
163 0.003984
173 0.004857
179 0.004987
187 0.00498
181 0.004989
136 0.003974
47 0.004046
8 0.00399
0 0.003983
3 0.003974
8 0.004029
18 0.004021
27 0.004015
36 0.003947
36 0.003995
38 0.003951
47 0.003944
60 0.00398
78 0.003988
91 0.003984
104 0.003991
114 0.004022
121 0.004038
136 0.003986
146 0.003944
157 0.004002
165 0.002995
176 0.004007
180 0.002984
148 0.002991
59 0.003024
12 0.003959
0 0.004006
0 0.003994
9 0.003955
22 0.003943
35 0.004013
42 0.003993
43 0.003992
46 0.003987
53 0.003037
67 0.002979
86 0.002992
97 0.002989
109 0.002994
117 0.003958
127 0.004013
138 0.004006
144 0.004024
151 0.003992
160 0.003984
170 0.002974
166 0.002992
121 0.002984
41 0.002991
8 0.003003
5 0.002983
17 0.003992
28 0.002992
49 0.003025
56 0.003025
53 0.002985
53 0.003953
57 0.003005
68 0.002974
82 0.002993
101 0.00299
112 0.003007
122 0.003
132 0.002992
141 0.002981
152 0.002993
159 0.002993
170 0.002992
160 0.002982
107 0.002011
40 0.001975
0 0.001993
56 0.001988
56 0.001963
57 0.002975
62 0.003007
69 0.002992
78 0.002993
78 0.002967
81 0.002992
88 0.002011
95 0.001996
103 0.001995
111 0.00197
117 0.001994
124 0.001995
130 0.001995
133 0.001995
137 0.001996
143 0.001989
149 0.002989
155 0.001998
153 0.002036
128 0.001988
93 0.00198
69 0.002001
63 0.002017
66 0.002031
69 0.001996
73 0.002001
80 0.002001
89 0.001998
90 0.002041
93 0.00202
100 0.001991
107 0.002027
115 0.001983
123 0.000983
128 0.000984
137 0.001002
141 0.001016
145 0.001961
153 0.002013
157 0.001996
162 0.001992
166 0.001995
172 0.001994
178 0.002012
180 0.000998
167 0.000985
134 0.001028
94 0.001008
85 0.000997
89 0.000997
97 0.000999
104 0.001001
111 0.002005
113 0.002004
112 0.002031
113 0.002001
116 0.000994
124 0.000992
131 0.001002
140 0.000998
146 0.000997
152 0.000999
159 0.000996
163 0.000995
168 0.000998
171 0.001
177 0.000997
183 0.002001
186 0.000994
184 0.001003
159 0.001016
113 0.000998
96 0.001011
94 0.000978
99 0.000999
101 0.000999
106 0.001004
113 0.0
119 0.000997
118 0.000996
122 0.0
127 0.000994
134 0.0
140 0.0
149 0.0
155 0.0
163 0.0
166 0.001027
171 0.0
174 0.0
179 0.0
183 0.00096
189 0.001004
193 0.000997
197 0.000986
200 0.0
196 0.0
170 0.0
117 0.0
106 0.0
107 0.0
112 0.0
114 0.0
119 0.0
125 0.0
128 0.0
127 0.0
128 0.0
133 0.0
138 0.0
148 0.00097
154 0.000998
159 0.000966
163 0.000966
166 0.000975
171 0.001022
173 0.0
176 0.0
181 0.0
184 0.0
188 0.0
193 0.001027
192 0.001
169 0.000992
124 0.0
106 0.0
103 0.0
109 0.001013
114 0.000997
123 0.0
127 0.0
127 0.0
124 0.000962
123 0.000998
129 0.000956
136 0.000967
143 0.0
150 0.0
155 0.0
159 0.001016
162 0.000997
168 0.0
169 0.000997
172 0.0
177 0.00099
173 0.0
148 0.001007
115 0.001002
92 0.0
91 0.0
94 0.0
97 0.001004
102 0.001006
110 0.0
113 0.0
114 0.000964
115 0.001963
121 0.00104
127 0.00203
133 0.001951
142 0.0
147 0.0
152 0.0
156 0.000962
161 0.001007
165 0.000996
169 0.00096
173 0.001002
177 0.0
184 0.000999
186 0.000992
180 0.001956
152 0.001981
107 0.001038
92 0.000981
91 0.002049
96 0.001984
99 0.00201
105 0.000997
111 0.000967
114 0.001027
115 0.00102
115 0.001051
120 0.000973
127 0.000992
135 0.001054
141 0.000998
147 0.001008
150 0.002026
153 0.001989
158 0.001033
161 0.000996
164 0.000987
167 0.000994
172 0.00101
175 0.001973
178 0.002976
181 0.002011
169 0.001989
148 0.002026
105 0.002017
91 0.002003
91 0.001013
96 0.000998
101 0.001002
108 0.001027
110 0.001993
107 0.002996
103 0.002027
105 0.00199
110 0.002029
115 0.002025
120 0.003025
126 0.003025
131 0.00196
134 0.001999
137 0.000987
141 0.002028
145 0.002015
148 0.003034
151 0.003026
138 0.002003
107 0.002019
78 0.002014
63 0.003028
64 0.003034
69 0.001006
74 0.001977
81 0.001971
87 0.002037
86 0.000966
84 0.003034
86 0.003026
94 0.001991
100 0.002025
107 0.001996
113 0.003067
117 0.00303
124 0.002037
128 0.002009
131 0.002013
136 0.00204
139 0.002028
143 0.003024
147 0.003042
146 0.003046
110 0.002992
74 0.003035
51 0.001977
46 0.004022
48 0.004024
52 0.002028
55 0.001995
65 0.002028
67 0.002003
68 0.001985
69 0.002992
72 0.003026
80 0.00298
88 0.003035
96 0.002994
100 0.004026
105 0.003962
112 0.002993
118 0.003989
122 0.002993
126 0.003006
131 0.002011
135 0.003996
138 0.003994
146 0.003023
148 0.00303
131 0.003024
96 0.00399
63 0.003986
46 0.003026
51 0.003985
56 0.001
61 0.002994
68 0.003022
69 0.003989
67 0.004046
66 0.004012
70 0.00399
75 0.002981
83 0.005019
91 0.005016
98 0.003989
104 0.004987
109 0.004012
113 0.002983
117 0.002977
120 0.004034
125 0.004023
133 0.00299
132 0.003002
110 0.002993
74 0.005028
44 0.004958
34 0.004032
40 0.005014
46 0.004006
51 0.004014
57 0.004019
62 0.004032
64 0.005023
64 0.004021
70 0.003035
78 0.003002
87 0.004066
94 0.004988
104 0.003989
109 0.004988
116 0.003999
121 0.004022
125 0.00403
130 0.004991
135 0.005018
141 0.004025
146 0.003979
141 0.004958
109 0.005985
68 0.005044
40 0.004038
41 0.006026
47 0.00402
50 0.003985
57 0.003997
66 0.00399
69 0.005024
70 0.005023
74 0.003032
79 0.003992
85 0.003991
94 0.005985
101 0.005984
113 0.006019
118 0.00602
123 0.005023
128 0.005034
132 0.003959
136 0.005035
140 0.005024
147 0.004011
151 0.004021
154 0.005034
139 0.006021
101 0.006024
54 0.005985
51 0.005984
59 0.004977
64 0.005001
71 0.00505
78 0.005971
81 0.005975
81 0.003978
80 0.005026
85 0.00502
93 0.007028
101 0.006988
113 0.006966
118 0.007017
127 0.005019
131 0.004988
135 0.005018
141 0.005973
146 0.00602
154 0.00499
156 0.005017
140 0.006018
105 0.006995
65 0.005952
64 0.006981
68 0.006982
74 0.00502
80 0.00498
90 0.005038
97 0.007016
101 0.006024
104 0.004994
109 0.005019
118 0.006006
126 0.007026
140 0.005981
146 0.007027
153 0.007015
161 0.005981
166 0.005939
171 0.006028
176 0.007021
180 0.007034
188 0.006026
194 0.00603
195 0.006033
167 0.007954
124 0.005979
109 0.007018
110 0.007013
115 0.006007
118 0.005987
124 0.006019
132 0.007028
136 0.007012
138 0.006028
139 0.005983
143 0.006018
153 0.007977
163 0.006022
169 0.007978
175 0.007979
181 0.007978
185 0.006017
188 0.005998
192 0.005947
196 0.007016
200 0.007012
204 0.005995
207 0.007018
212 0.006983
215 0.00701
202 0.006983
171 0.006982
136 0.007981
129 0.00701
133 0.007026
137 0.00598
142 0.008017
149 0.007978
150 0.0
148 0.005987
147 0.006996
151 0.006978
157 0.00698
162 0.007979
170 0.007984
174 0.00698
177 0.006982
180 0.007014
185 0.007976
186 0.007975
190 0.006975
194 0.006978
197 0.00698
190 0.006976
173 0.006964
139 0.007936
117 0.00798
109 0.006983
112 0.007
113 0.006982
115 0.007976
121 0.007976
127 0.006977
126 0.006985
126 0.006974
133 0.006984
139 0.006976
145 0.007014
150 0.006984
154 0.007089
159 0.00699
164 0.006992
168 0.00798
171 0.007972
176 0.006983
180 0.007011
183 0.007004
192 0.007017
195 0.007016
182 0.007017
150 0.006979
111 0.006973
101 0.006984
103 0.00698
108 0.007976
110 0.006975
115 0.007023
119 0.00698
121 0.006982
119 0.007016
120 0.007014
124 0.006977
130 0.006979
139 0.006974
143 0.006981
148 0.006976
153 0.005982
156 0.005972
160 0.006007
163 0.005985
167 0.007011
169 0.00698
172 0.007012
176 0.007013
176 0.006981
158 0.00699
114 0.006948
94 0.006979
90 0.00594
95 0.005986
101 0.005986
110 0.006003
115 0.005023
112 0.006017
108 0.006018
109 0.007015
114 0.006014
119 0.005973
128 0.005984
134 0.005982
138 0.005985
141 0.006013
146 0.005979
150 0.005972
154 0.006017
157 0.006015
162 0.006016
166 0.005981
162 0.005979
135 0.00598
89 0.005976
68 0.005988
65 0.005993
69 0.005987
74 0.005984
78 0.005976
86 0.005988
88 0.005986
88 0.006017
89 0.006017
93 0.005982
100 0.004969
109 0.004983
115 0.004998
120 0.004989
126 0.005984
131 0.006001
135 0.005999
140 0.006009
146 0.006018
151 0.006017
149 0.005978
125 0.004985
93 0.004989
68 0.004986
67 0.004993
75 0.004985
82 0.005002
87 0.004966
96 0.004982
98 0.005022
98 0.005025
99 0.005984
105 0.005035
112 0.004973
119 0.004988
127 0.004985
134 0.004993
139 0.004985
144 0.004974
147 0.004968
151 0.004985
154 0.005025
161 0.004026
161 0.00502
144 0.00402
113 0.004009
90 0.003976
83 0.004993
90 0.004988
98 0.004972
105 0.004984
112 0.004978
115 0.003991
111 0.005013
112 0.004013
117 0.003971
124 0.00399
131 0.003983
138 0.003991
142 0.00395
150 0.003972
153 0.004984
155 0.004978
161 0.004979
165 0.004986
163 0.004985
139 0.00499
100 0.004021
88 0.003991
89 0.003992
93 0.003994
97 0.004023
105 0.003973
109 0.003987
112 0.004006
112 0.003998
114 0.003961
120 0.004029
126 0.00403
137 0.004024
144 0.003983
150 0.00399
155 0.003958
160 0.004003
165 0.003989
168 0.003985
173 0.003994
180 0.00398
169 0.003027
132 0.003005
97 0.003041
81 0.002992
83 0.004024
88 0.003998
92 0.003977
99 0.003988
107 0.003961
109 0.003984
109 0.004001
109 0.003947
119 0.003028
126 0.003035
135 0.002961
144 0.003034
148 0.003024
153 0.002997
159 0.003953
163 0.002992
167 0.003963
171 0.003953
175 0.00399
179 0.004
186 0.00399
191 0.003027
185 0.003052
140 0.002992
104 0.002992
87 0.002993
88 0.002992
92 0.00299
100 0.002996
105 0.002991
107 0.002995
104 0.001979
98 0.003025
100 0.002987
105 0.003028
113 0.003034
120 0.002992
126 0.002991
129 0.003032
132 0.002991
139 0.002992
142 0.002986
145 0.002986
150 0.001995
157 0.001972
162 0.001985
151 0.001994
102 0.002991
69 0.00203
56 0.002025
56 0.001983
60 0.001998
64 0.003028
69 0.00202
75 0.002993
78 0.00199
77 0.003003
81 0.002992
87 0.00299
94 0.002993
106 0.003023
113 0.002993
118 0.001977
124 0.002
130 0.001996
135 0.001997
140 0.001995
146 0.001992
154 0.00204
159 0.001996
162 0.001995
151 0.002992
100 0.001995
63 0.001995
50 0.001992
50 0.001999
55 0.001999
59 0.001996
66 0.001985
73 0.002004
77 0.001995
76 0.002029
80 0.001995
86 0.001995
97 0.001996
105 0.001001
114 0.000995
120 0.000995
126 0.002026
133 0.002028
138 0.001986
142 0.001958
149 0.002026
153 0.002038
157 0.002006
164 0.001995
168 0.001997
150 0.001001
110 0.001037
72 0.000997
56 0.001004
60 0.000998
67 0.001024
77 0.00203
82 0.001955
84 0.001013
81 0.001994
78 0.001995
82 0.000999
91 0.000963
98 0.001002
105 0.000999
112 0.000959
119 0.00101
122 0.001008
129 0.000997
134 0.000997
139 0.000998
145 0.000997
153 0.000998
159 0.00103
143 0.000986
102 0.00096
60 0.000999
40 0.001014
42 0.000999
48 0.00103
57 0.000997
65 0.000998
70 0.000997
70 0.000997
69 0.0
75 0.000997
80 0.001001
88 0.001003
96 0.0
105 0.0
112 0.001042
119 0.001
127 0.000996
133 0.001022
137 0.001001
141 0.000998
147 0.001043
154 0.000998
162 0.000997
155 0.000992
120 0.000973
72 0.000981
42 0.000978
37 0.000994
45 0.000998
51 0.000994
57 0.000997
66 0.0
70 0.0
72 0.0
75 0.0
81 0.0
91 0.0
100 0.0
108 0.0
119 0.0
127 0.0
135 0.0
140 0.000997
145 0.000998
149 0.000997
154 0.0
159 0.001031
167 0.0
174 0.0
164 0.0
139 0.0
78 0.00101
51 0.0
56 0.000999
65 0.001048
77 0.0
84 0.0
88 0.0
88 0.000969
86 0.000954
88 0.0
97 0.0
106 0.000946
115 0.001013
126 0.000998
134 0.000997
140 0.000998
146 0.0
150 0.0
157 0.0
162 0.001047
168 0.000993
165 0.0
132 0.0
87 0.0
62 0.001949
62 0.000991
70 0.001997
78 0.000998
89 0.0
96 0.0
97 0.000997
99 0.001995
99 0.002006
109 0.0
120 0.0
128 0.0
142 0.0
149 0.0
156 0.00104
161 0.001038
166 0.0
172 0.0
176 0.000998
182 0.001997
187 0.002013
180 0.00094
143 0.0
99 0.0
70 0.001028
75 0.0
81 0.001047
84 0.001028
95 0.000968
102 0.000967
104 0.000966
105 0.000981
107 0.001992
113 0.001979
123 0.001005
133 0.001985
146 0.002029
151 0.002026
157 0.001025
160 0.002043
165 0.002026
170 0.000997
173 0.000962
178 0.00096
184 0.001995
189 0.002033
174 0.000993
135 0.000985
79 0.000966
75 0.001039
81 0.001015
88 0.001993
95 0.001995
101 0.001034
102 0.000995
100 0.000999
96 0.003024
97 0.002017
108 0.000999
114 0.002037
126 0.000984
131 0.000983
136 0.000966
140 0.001989
143 0.002022
148 0.000998
154 0.001032
158 0.002038
157 0.003025
132 0.003028
77 0.002007
50 0.000994
50 0.001011
57 0.001002
63 0.001014
71 0.001994
77 0.001995
79 0.000998
78 0.001004
80 0.001992
85 0.003035
95 0.00299
106 0.001949
113 0.002037
124 0.002008
130 0.002051
137 0.001995
141 0.002992
144 0.002992
151 0.001028
157 0.002008
162 0.002015
158 0.00303
126 0.003031
62 0.001995
38 0.001984
38 0.002033
42 0.00287
43 0.002043
48 0.002953
56 0.003023
64 0.000997
63 0.001994
66 0.003035
71 0.003994
83 0.003987
95 0.001986
106 0.001936
119 0.00202
126 0.001994
131 0.001984
137 0.002996
142 0.003025
149 0.001983
154 0.002
160 0.002
166 0.002953
172 0.002994
174 0.003953
140 0.002991
75 0.003991
49 0.003002
51 0.003023
59 0.003022
66 0.00399
72 0.003977
81 0.002028
82 0.002028
80 0.002033
78 0.003991
82 0.002991
96 0.004001
106 0.00399
115 0.002992
121 0.002988
127 0.002991
132 0.004024
135 0.003989
141 0.002046
145 0.001994
149 0.003957
155 0.005012
160 0.005026
118 0.004987
74 0.004986
42 0.00299
44 0.002994
55 0.002978
64 0.003993
74 0.00399
86 0.002981
85 0.002988
81 0.002988
83 0.004049
90 0.005006
105 0.004995
115 0.00502
125 0.004019
133 0.004024
139 0.004023
143 0.005035
148 0.005027
154 0.00304
157 0.002974
164 0.003011
170 0.003984
169 0.004011
106 0.005021
60 0.004987
34 0.003992
38 0.003957
43 0.003989
47 0.004987
53 0.004987
64 0.003969
68 0.003005
69 0.003029
72 0.005028
77 0.004984
94 0.005984
102 0.005979
116 0.003982
124 0.003987
131 0.003989
138 0.00497
147 0.004977
153 0.004029
159 0.005017
165 0.003957
170 0.004983
176 0.00502
165 0.005981
122 0.005984
63 0.004018
45 0.003981
50 0.003993
61 0.004987
70 0.005984
79 0.00502
90 0.003996
90 0.003958
87 0.004988
87 0.006031
98 0.004983
108 0.006021
119 0.006018
130 0.005025
138 0.005022
144 0.004038
147 0.005984
149 0.006024
155 0.003994
159 0.003997
164 0.004985
170 0.006015
151 0.004988
106 0.005973
63 0.006016
49 0.004986
59 0.005024
73 0.005005
85 0.005984
98 0.006015
102 0.005021
96 0.003988
94 0.004984
99 0.006019
114 0.004981
125 0.005984
134 0.006017
146 0.004987
151 0.004994
155 0.004988
161 0.005984
164 0.005992
170 0.00502
176 0.006034
179 0.006021
156 0.007013
76 0.005027
48 0.007013
42 0.006983
53 0.00499
59 0.004992
65 0.004988
75 0.006017
82 0.006018
84 0.005026
83 0.005019
89 0.00495
104 0.006015
113 0.005009
122 0.006981
131 0.006982
141 0.006012
145 0.005019
151 0.005021
156 0.006981
161 0.006981
169 0.005993
174 0.005992
165 0.006027
93 0.005972
57 0.005988
48 0.006981
57 0.00695
69 0.006002
78 0.006015
88 0.005997
93 0.006982
94 0.006978
93 0.006017
95 0.00602
103 0.00599
119 0.006015
128 0.005982
137 0.007979
144 0.007979
152 0.005986
157 0.00598
161 0.006953
165 0.00798
168 0.006944
176 0.006977
183 0.007024
186 0.006948
139 0.007008
91 0.006033
64 0.007014
64 0.007966
76 0.007972
89 0.005948
99 0.005985
106 0.005991
106 0.007978
100 0.00797
98 0.006982
103 0.006981
120 0.007016
132 0.007012
139 0.007021
149 0.00798
150 0.007979
157 0.005987
161 0.00602
165 0.005988
172 0.007015
177 0.00798
176 0.006978
147 0.006985
73 0.006013
56 0.006047
59 0.006983
67 0.007978
77 0.007979
88 0.00698
95 0.006987
96 0.006982
96 0.008015
96 0.008009
105 0.006983
114 0.007012
131 0.006978
141 0.006973
149 0.006978
155 0.007013
160 0.007014
165 0.006981
168 0.006973
175 0.006982
180 0.006981
185 0.007377
165 0.006986
117 0.006969
64 0.006969
53 0.006957
63 0.006981
70 0.00798
75 0.007013
88 0.007015
93 0.007003
91 0.007016
91 0.007014
96 0.007018
104 0.006979
115 0.006975
131 0.007014
141 0.006981
146 0.006982
151 0.006018
157 0.006015
163 0.006019
166 0.006016
172 0.006016
177 0.006021
183 0.007034
190 0.007086
178 0.007031
119 0.007013
75 0.007018
57 0.007014
61 0.007012
73 0.006983
82 0.006017
93 0.006017
99 0.006017
98 0.005983
94 0.00602
91 0.005984
101 0.006018
111 0.006017
123 0.005986
130 0.005983
138 0.006015
142 0.006024
144 0.005983
148 0.005956
152 0.006014
155 0.006016
158 0.00595
164 0.00599
169 0.005975
144 0.006018
78 0.006983
49 0.006015
45 0.005984
56 0.005019
68 0.005024
85 0.005024
92 0.00502
92 0.005018
87 0.005038
84 0.005982
91 0.00602
102 0.006015
115 0.006016
125 0.005004
131 0.004973
137 0.005018
141 0.005017
147 0.005016
150 0.004965
154 0.005017
158 0.005022
165 0.004986
146 0.005021
96 0.005883
38 0.004986
23 0.006017
28 0.005041
36 0.00502
43 0.005013
53 0.004988
59 0.005023
61 0.005034
61 0.004985
62 0.004986
73 0.00496
82 0.005027
97 0.005023
104 0.005023
111 0.004986
118 0.004013
126 0.005024
132 0.004022
138 0.00499
142 0.005033
148 0.005042
155 0.005019
156 0.005025
120 0.005024
55 0.004987
27 0.005025
26 0.005037
36 0.004027
47 0.004026
59 0.003993
68 0.00399
70 0.004026
69 0.003991
66 0.003983
74 0.005026
84 0.004025
96 0.00502
107 0.004031
115 0.004026
121 0.004061
126 0.004025
129 0.004027
133 0.00402
137 0.004028
140 0.003977
147 0.003982
151 0.003989
119 0.00399
67 0.004007
24 0.003987
23 0.003049
35 0.004023
48 0.004024
60 0.003991
73 0.003994
72 0.004021
66 0.004019
64 0.00399
75 0.003991
87 0.004018
97 0.003992
110 0.003031
118 0.002993
124 0.003995
129 0.003042
134 0.003027
138 0.003033
142 0.004026
148 0.004005
133 0.003989
86 0.002988
33 0.003024
5 0.002992
7 0.003035
16 0.003015
22 0.002993
31 0.003024
40 0.003028
44 0.003023
43 0.003021
46 0.001994
58 0.00396
69 0.002995
80 0.003032
90 0.003041
101 0.002991
107 0.002992
114 0.002992
119 0.00299
125 0.00301
132 0.002992
138 0.002976
146 0.002992
153 0.002992
129 0.001966
73 0.001984
26 0.002993
7 0.002992
14 0.003046
25 0.003024
35 0.003023
43 0.003018
54 0.002993
55 0.003023
54 0.002992
61 0.002992
70 0.001995
82 0.001996
94 0.001995
105 0.002027
113 0.001996
120 0.001995
126 0.001996
130 0.002026
138 0.002992
143 0.002026
147 0.002992
157 0.003009
165 0.002993
172 0.002992
163 0.003024
115 0.002025
45 0.001995
23 0.001996
27 0.002031
40 0.002029
53 0.002026
67 0.002026
73 0.003028
67 0.00204
63 0.00199
67 0.002992
77 0.002031
89 0.001996
104 0.002028
114 0.002043
119 0.001995
126 0.001996
132 0.001993
138 0.001987
143 0.002
151 0.001996
160 0.001996
166 0.001028
155 0.000976
109 0.000996
37 0.000997
12 0.000997
12 0.001995
24 0.001958
34 0.001996
45 0.001996
54 0.001989
59 0.001995
59 0.002028
63 0.000998
71 0.000998
83 0.000998
98 0.000998
107 0.000997
117 0.000997
125 0.000998
131 0.000997
139 0.000997
145 0.002037
154 0.000998
160 0.000999
167 0.000999
175 0.001009
170 0.000998
106 0.001022
50 0.000999
22 0.000998
22 0.001006
34 0.000998
51 0.000998
64 0.0
74 0.001996
74 0.000997
72 0.001029
77 0.0
83 0.000998
97 0.001009
109 0.001022
120 0.000999
129 0.000999
136 0.000998
143 0.000998
150 0.000997
155 0.000997
160 0.000995
165 0.000997
170 0.0
176 0.0
180 0.0
144 0.0
85 0.0
38 0.0
26 0.0
39 0.0
58 0.0
74 0.0
82 0.0
80 0.0
72 0.001012
69 0.000998
75 0.0
90 0.0
102 0.0
114 0.0
123 0.0
128 0.0
136 0.0
139 0.0
144 0.0
149 0.0
153 0.0
140 0.0
92 0.000997
21 0.002041
2 0.00204
14 0.0
29 0.0
39 0.0
62 0.0
65 0.0
60 0.001029
60 0.001029
68 0.0
80 0.0
92 0.0
104 0.001011
114 0.002058
125 0.0
132 0.0
138 0.0
146 0.0
150 0.000998
158 0.000998
146 0.001004
96 0.001006
18 0.0
0 0.000996
0 0.000997
5 0.001038
15 0.000997
24 0.0
37 0.0
45 0.0
44 0.0
46 0.001051
55 0.001028
72 0.0
85 0.0
97 0.0
107 0.001996
114 0.000999
124 0.0
131 0.000997
136 0.000995
146 0.001003
151 0.0
159 0.002029
143 0.001017
67 0.0
14 0.0
0 0.0
0 0.001051
14 0.001047
28 0.0
40 0.0
48 0.000965
47 0.000997
45 0.000998
49 0.002056
61 0.002032
77 0.0
89 0.0
99 0.0
107 0.001996
113 0.001993
121 0.0
124 0.0
128 0.0
134 0.000953
142 0.0
150 0.000987
148 0.001042
108 0.00103
29 0.000968
0 0.001996
59 0.002007
66 0.001997
74 0.001996
84 0.002028
90 0.002026
87 0.001981
85 0.000999
87 0.000996
93 0.001995
100 0.002008
109 0.001991
114 0.001997
119 0.002005
123 0.002
126 0.001997
129 0.001985
132 0.002046
137 0.001976
141 0.002001
140 0.000997
118 0.00206
84 0.002025
54 0.001046
50 0.000997
53 0.001995
62 0.002006
65 0.002992
72 0.000991
76 0.002991
78 0.001012
79 0.000993
83 0.000968
90 0.002998
98 0.001989
106 0.000994
112 0.001995
116 0.000997
120 0.001992
123 0.002992
128 0.002016
132 0.003023
137 0.001994
141 0.00203
145 0.000997
142 0.002992
117 0.003
73 0.000996
56 0.000997
56 0.000993
64 0.00399
70 0.002992
78 0.002014
85 0.003024
87 0.002013
86 0.001999
88 0.002034
93 0.002992
100 0.003033
109 0.001993
116 0.001044
121 0.001042
125 0.002992
128 0.003989
134 0.00198
139 0.004039
142 0.001984
148 0.001982
153 0.001992
158 0.003945
162 0.004022
142 0.001994
95 0.001998
55 0.002004
41 0.003027
46 0.00399
62 0.002958
76 0.003006
87 0.001996
86 0.003052
80 0.003006
79 0.001993
82 0.003989
91 0.00402
104 0.001964
114 0.001974
121 0.001983
128 0.003989
132 0.005022
137 0.004022
140 0.004018
146 0.00199
151 0.002001
153 0.002003
137 0.003989
95 0.003968
43 0.002955
33 0.002992
40 0.001996
50 0.004042
58 0.003945
72 0.003989
77 0.003989
77 0.001992
76 0.00198
82 0.00298
91 0.004986
101 0.004986
113 0.002956
122 0.002946
128 0.002975
133 0.004027
140 0.00296
143 0.004005
146 0.00399
152 0.002999
157 0.003024
156 0.003023
126 0.00501
76 0.004985
33 0.002994
30 0.003003
39 0.002991
49 0.004986
63 0.00199
72 0.004986
75 0.005984
74 0.002988
75 0.003999
82 0.00403
90 0.005002
100 0.005019
113 0.003028
120 0.003025
126 0.002993
131 0.004992
138 0.001982
141 0.005021
143 0.005019
150 0.003005
155 0.003944
160 0.003982
147 0.005984
104 0.00502
48 0.003971
35 0.004026
41 0.003974
54 0.005019
74 0.002963
82 0.00503
84 0.005018
78 0.004028
75 0.002963
78 0.002998
86 0.006042
96 0.006018
107 0.003991
114 0.003979
119 0.003996
123 0.005024
129 0.004013
131 0.005006
136 0.005027
139 0.003993
113 0.003996
69 0.003991
35 0.003983
27 0.005984
35 0.005983
52 0.004022
64 0.004024
74 0.003978
76 0.003987
72 0.003947
71 0.00576
77 0.006025
89 0.003994
100 0.005001
110 0.004985
116 0.005984
122 0.005984
128 0.004983
132 0.004021
136 0.003989
142 0.00399
129 0.00499
88 0.006997
42 0.005984
14 0.004988
18 0.004929
28 0.004984
34 0.007023
42 0.006016
53 0.005003
57 0.003986
57 0.004977
62 0.00497
70 0.004986
81 0.006982
90 0.007022
102 0.004964
109 0.004981
115 0.004988
119 0.006976
123 0.006015
129 0.004997
134 0.005017
140 0.004987
132 0.005017
89 0.004025
43 0.005971
20 0.005984
24 0.00501
35 0.005999
43 0.004987
53 0.006981
62 0.006976
65 0.005018
64 0.004989
66 0.004995
78 0.004986
90 0.004994
99 0.006981
107 0.007978
117 0.005982
122 0.005979
127 0.005981
130 0.007015
134 0.006982
139 0.005946
145 0.00598
155 0.005979
145 0.005007
101 0.005017
53 0.006981
29 0.007979
35 0.005983
48 0.005982
59 0.005981
75 0.007978
80 0.007979
76 0.005999
72 0.005973
77 0.005021
86 0.004951
96 0.004987
106 0.007979
116 0.00798
121 0.005979
126 0.005986
130 0.005985
134 0.007981
137 0.007975
145 0.007977
149 0.005996
115 0.007019
67 0.006006
32 0.005999
24 0.005977
35 0.007977
45 0.007969
55 0.006984
65 0.006016
71 0.006018
71 0.007975
70 0.007979
75 0.005983
92 0.007982
102 0.006027
112 0.005985
120 0.00599
127 0.00797
132 0.007983
136 0.006978
139 0.005997
145 0.00695
152 0.007019
157 0.007012
157 0.006946
111 0.007975
46 0.006979
27 0.006986
29 0.00697
44 0.007983
53 0.007979
62 0.006015
75 0.006962
78 0.006964
79 0.007017
80 0.007004
90 0.00698
103 0.006991
117 0.00698
124 0.006979
133 0.00698
139 0.006974
142 0.007979
149 0.00698
154 0.006975
158 0.006987
164 0.007029
170 0.007016
174 0.006983
124 0.006991
62 0.006979
46 0.006977
48 0.006984
65 0.007017
75 0.006019
90 0.005986
97 0.006979
97 0.006981
93 0.007013
94 0.007026
102 0.006978
116 0.006981
129 0.005992
137 0.006978
142 0.006976
149 0.006017
151 0.006027
157 0.005979
161 0.005983
166 0.005986
167 0.006012
141 0.006984
81 0.006984
54 0.007018
64 0.006979
79 0.006978
87 0.00694
104 0.00602
112 0.006018
114 0.006019
110 0.005988
113 0.005954
120 0.00602
131 0.00602
148 0.005969
156 0.005984
162 0.005984
170 0.007005
173 0.00602
177 0.005983
182 0.005985
187 0.005983
173 0.006021
132 0.005981
89 0.005985
69 0.006017
76 0.00599
83 0.005982
90 0.00598
103 0.004986
110 0.005048
113 0.00502
115 0.005032
119 0.005023
129 0.005984
141 0.006019
151 0.005983
159 0.005972
171 0.005992
176 0.005983
181 0.005981
187 0.00598
193 0.005034
199 0.005019
204 0.005019
197 0.005019
148 0.005018
113 0.005036
100 0.005019
103 0.005021
117 0.00498
127 0.004981
137 0.006004
143 0.004992
142 0.005023
142 0.005019
145 0.005017
153 0.005019
165 0.005016
173 0.005016
180 0.004989
186 0.005023
193 0.00399
196 0.004987
200 0.003972
206 0.003942
212 0.004989
215 0.004986
196 0.005021
159 0.005018
125 0.004982
121 0.005016
129 0.005022
139 0.00502
154 0.004993
159 0.004991
160 0.004985
156 0.004983
157 0.005021
162 0.004025
169 0.004025
177 0.004026
186 0.005021
191 0.00399
195 0.004026
199 0.005021
204 0.004987
208 0.004013
212 0.00499
217 0.004969
215 0.00399
186 0.004026
147 0.004021
121 0.004024
114 0.004017
118 0.00405
122 0.003024
125 0.00402
136 0.003981
140 0.00396
139 0.003956
141 0.002986
145 0.003988
153 0.003991
161 0.004021
167 0.003958
172 0.003991
178 0.004025
181 0.004031
185 0.00395
190 0.003957
194 0.003957
197 0.003957
203 0.003003
210 0.002992
207 0.003958
179 0.003039
138 0.00399
110 0.004025
104 0.003981
110 0.004015
112 0.004023
121 0.003989
126 0.003986
129 0.00299
127 0.002989
127 0.003024
133 0.003997
139 0.00399
146 0.002992
153 0.003989
160 0.002992
164 0.002991
169 0.002956
172 0.003999
176 0.002979
178 0.002987
181 0.002959
189 0.002992
192 0.00298
183 0.002994
152 0.003012
116 0.002978
93 0.003026
97 0.003023
109 0.001996
117 0.002962
123 0.002034
123 0.003002
120 0.003002
117 0.002992
120 0.003003
126 0.002992
133 0.003026
140 0.002992
148 0.002995
152 0.002992
158 0.001994
161 0.002998
163 0.001991
167 0.001994
172 0.001994
174 0.001995
153 0.001995
116 0.001995
85 0.002026
74 0.002992
80 0.002992
86 0.003027
94 0.002999
100 0.001991
103 0.001991
103 0.001996
103 0.002
107 0.001995
114 0.002062
121 0.001999
128 0.001996
135 0.002027
140 0.001995
146 0.001965
151 0.001995
154 0.002998
158 0.001982
163 0.002009
168 0.001994
162 0.002044
122 0.001995
86 0.001995
69 0.001995
69 0.001028
77 0.000967
86 0.001995
96 0.002028
101 0.000991
101 0.000997
101 0.001943
101 0.002029
106 0.000997
117 0.002012
124 0.002002
130 0.00196
137 0.00202
142 0.002005
146 0.001995
151 0.001994
155 0.001996
159 0.000994
163 0.001003
167 0.001004
169 0.000994
138 0.000966
100 0.000998
77 0.000998
73 0.001995
81 0.000997
93 0.001996
105 0.002014
110 0.001994
107 0.001011
103 0.000995
102 0.000991
106 0.000998
116 0.000997
122 0.000984
129 0.000998
134 0.001996
137 0.002008
140 0.0
144 0.0
150 0.000999
152 0.001027
138 0.000967
104 0.0
72 0.0
58 0.000997
66 0.000999
76 0.000997
85 0.000997
93 0.000997
100 0.001035
98 0.000998
98 0.0
103 0.000991
111 0.0
119 0.0
128 0.0
136 0.0
142 0.0
146 0.0
149 0.0
152 0.0
159 0.00097
157 0.001008
117 0.001005
77 0.0
55 0.0
53 0.0
60 0.0
67 0.0
75 0.0
84 0.0
88 0.0
91 0.0
92 0.00097
97 0.0
104 0.0
116 0.001019
124 0.0
130 0.0
135 0.0
140 0.0
145 0.0
148 0.0
154 0.0
158 0.0
152 0.0
117 0.0
77 0.0
53 0.001009
57 0.002004
70 0.0
79 0.0
87 0.0
94 0.001033
96 0.000998
95 0.00096
96 0.000997
105 0.0
117 0.0
126 0.0
133 0.001994
139 0.001991
145 0.0
149 0.0
151 0.0
154 0.002043
158 0.002039
163 0.0
167 0.000955
122 0.001001
80 0.0
59 0.0
58 0.002
68 0.00101
82 0.0
93 0.0
98 0.0
98 0.001031
93 0.002028
89 0.0
94 0.0
108 0.0
117 0.000995
123 0.0
128 0.002014
132 0.001987
136 0.000989
139 0.0
143 0.0
147 0.001992
137 0.001034
89 0.0
54 0.000963
44 0.0
51 0.00101
63 0.001
77 0.000994
86 0.000995
86 0.0
82 0.0
81 0.0
85 0.002026
93 0.002026
106 0.0
115 0.0
126 0.001036
131 0.0
134 0.0
139 0.001007
144 0.001012
147 0.000971
125 0.0
82 0.001029
43 0.0
29 0.002027
34 0.002009
47 0.0
57 0.002041
70 0.0
76 0.0
78 0.0
79 0.00303
82 0.002999
95 0.002006
105 0.001042
114 0.0
123 0.001997
131 0.001996
141 0.002035
147 0.002002
153 0.0
159 0.001005
164 0.001007
170 0.001989
176 0.001989
162 0.001993
120 0.0
79 0.001973
62 0.003025
66 0.002984
80 0.002012
86 0.002043
99 0.000973
107 0.000982
109 0.0
110 0.001994
113 0.001992
123 0.002016
132 0.00103
142 0.001991
150 0.002992
157 0.002992
165 0.002988
169 0.002988
176 0.000977
180 0.001996
184 0.001006
189 0.003103
194 0.002031
200 0.002004
205 0.002013
209 0.001994
192 0.003026
153 0.002992
102 0.00295
101 0.002992
113 0.001
120 0.002025
126 0.001997
134 0.002981
137 0.003953
135 0.000946
135 0.002022
140 0.001993
147 0.00399
154 0.002993
166 0.002949
171 0.003025
177 0.002028
180 0.001041
184 0.002
188 0.003044
191 0.00301
196 0.001029
200 0.001963
203 0.00195
206 0.003989
211 0.003989
193 0.004016
155 0.003963
117 0.002994
114 0.002996
122 0.001996
132 0.00402
140 0.002974
146 0.002995
148 0.002047
142 0.001996
138 0.001954
138 0.004031
148 0.00198
155 0.004014
161 0.003997
168 0.001996
171 0.001999
172 0.001997
174 0.003992
176 0.003989
179 0.002999
182 0.002992
186 0.002999
184 0.005026
134 0.002032
100 0.004016
87 0.004006
95 0.002015
103 0.002048
110 0.00197
118 0.003989
121 0.004019
117 0.002002
114 0.001995
115 0.001998
120 0.004025
133 0.002956
140 0.005034
145 0.004992
152 0.001996
154 0.002026
157 0.001985
160 0.004023
164 0.004986
169 0.003003
171 0.002971
153 0.00196
88 0.002034
67 0.002999
66 0.004954
73 0.005019
79 0.002044
84 0.002025
90 0.002012
97 0.004041
98 0.004996
100 0.002997
105 0.004
111 0.002992
126 0.002964
134 0.002946
142 0.005025
148 0.004989
154 0.002959
159 0.002995
163 0.002991
168 0.005036
171 0.005023
180 0.002998
184 0.002998
176 0.002995
121 0.002957
97 0.002992
92 0.006004
98 0.005986
108 0.003024
113 0.002955
119 0.003002
124 0.005037
123 0.004987
124 0.00298
126 0.002981
131 0.00399
143 0.003961
150 0.003958
156 0.006025
160 0.006026
166 0.002945
169 0.003982
172 0.002992
176 0.006022
179 0.005975
183 0.006013
189 0.003992
194 0.003991
182 0.003957
150 0.004014
120 0.003936
108 0.005986
111 0.006018
121 0.003957
127 0.00296
133 0.003969
137 0.005984
134 0.005984
128 0.003989
129 0.004985
138 0.00402
145 0.004022
150 0.004979
154 0.007022
158 0.007017
162 0.00395
165 0.004998
167 0.004071
170 0.005984
173 0.006006
178 0.003993
181 0.003991
154 0.00498
120 0.004943
97 0.004975
92 0.006983
98 0.007017
103 0.005
107 0.004987
113 0.00498
115 0.006981
112 0.007005
111 0.004983
113 0.003969
122 0.004988
128 0.00399
134 0.004956
139 0.006949
143 0.006987
147 0.00501
150 0.004987
152 0.005993
154 0.007036
157 0.007031
162 0.004987
165 0.005004
161 0.005953
132 0.005955
98 0.006007
74 0.007977
74 0.007981
81 0.005988
84 0.00599
89 0.004986
92 0.007013
95 0.007012
92 0.005022
92 0.004986
98 0.005023
104 0.004996
112 0.005988
119 0.007977
124 0.007987
129 0.005993
132 0.004956
134 0.005005
138 0.007936
142 0.007979
145 0.006025
151 0.00797
156 0.005988
159 0.005982
145 0.005995
110 0.008018
78 0.006964
62 0.005991
66 0.006977
75 0.006021
82 0.005985
88 0.007976
92 0.007978
85 0.007971
85 0.007966
88 0.005958
94 0.005997
101 0.006959
109 0.006983
114 0.006968
118 0.005992
121 0.005973
124 0.005993
126 0.007941
129 0.007969
136 0.007975
140 0.007957
130 0.006979
110 0.006971
75 0.005984
47 0.007
48 0.006988
58 0.005977
67 0.006978
78 0.006967
82 0.006982
82 0.006981
76 0.006991
77 0.006981
84 0.006988
92 0.006983
100 0.005986
109 0.007065
114 0.006932
119 0.006981
121 0.006982
126 0.006975
130 0.00698
133 0.006981
135 0.007
111 0.006977
58 0.005982
34 0.006976
30 0.006016
39 0.006987
47 0.005986
55 0.006987
62 0.00695
69 0.00698
73 0.007014
73 0.007016
79 0.006977
87 0.006971
99 0.005984
106 0.005968
112 0.005974
118 0.005968
123 0.005986
128 0.005966
131 0.005987
135 0.006985
140 0.007019
146 0.005993
151 0.006013
131 0.006016
75 0.005999
46 0.005967
39 0.006017
46 0.00603
53 0.005985
60 0.005983
66 0.005979
68 0.005965
67 0.006019
66 0.006017
72 0.004987
80 0.006982
91 0.005979
100 0.005967
107 0.005985
111 0.005989
115 0.005983
120 0.005984
125 0.005984
129 0.005985
135 0.005977
140 0.005985
157 0.005994
173 0.005978
157 0.005083
102 0.005001
76 0.004986
75 0.004985
97 0.005949
130 0.005949
171 0.00599
195 0.005982
232 0.005979
255 0.005985
255 0.004991
255 0.005982
255 0.004962
255 0.004986
255 0.004976
255 0.004979
255 0.004996
255 0.004984
255 0.004914
255 0.004987
254 0.006026
255 0.005038
255 0.004984
255 0.004962
255 0.004973
255 0.004978
255 0.004992
255 0.005009
255 0.00498
255 0.005017
255 0.004986
255 0.00502
255 0.004947
255 0.004973
255 0.005986
255 0.004972
255 0.004998
255 0.004987
255 0.004985
196 0.004992
194 0.004993
194 0.00497
193 0.004937
193 0.004954
193 0.005017
183 0.00399
157 0.003991
127 0.003999
106 0.003956
88 0.004007
78 0.003995
70 0.004014
70 0.003959
71 0.005003
71 0.004999
68 0.005017
59 0.005021
45 0.004998
47 0.004979
54 0.004988
63 0.004987
76 0.003964
81 0.003959
85 0.003959
85 0.004052
84 0.003959
82 0.003959
80 0.003987
79 0.003953
64 0.003996
46 0.003991
32 0.003992
29 0.003925
36 0.003938
43 0.003993
46 0.003989
54 0.003956
60 0.004009
64 0.003955
65 0.00399
67 0.003991
78 0.00403
88 0.003954
94 0.003992
97 0.003989
97 0.00299
100 0.00395
105 0.002993
114 0.003948
121 0.00401
127 0.003971
123 0.003993
109 0.00399
92 0.003996
94 0.004009
101 0.003973
105 0.002981
107 0.003946
107 0.002994
106 0.002992
108 0.003023
112 0.003021
117 0.003998
119 0.002993
120 0.002987
121 0.003994
124 0.003957
131 0.003966
141 0.00399
155 0.002992
181 0.002994
202 0.003002
209 0.002993
194 0.003029
160 0.003025
114 0.002992
96 0.002992
93 0.003959
89 0.002984
83 0.00302
71 0.002029
64 0.001973
54 0.002997
54 0.002984
65 0.00299
85 0.002992
102 0.002988
112 0.002975
108 0.002981
101 0.002991
94 0.003031
92 0.002995
90 0.002969
87 0.001994
85 0.002988
86 0.003011
87 0.003001
75 0.002993
56 0.002991
36 0.001995
38 0.001994
47 0.001995
53 0.001999
60 0.001983
65 0.001989
67 0.002993
69 0.002992
72 0.002992
76 0.001994
82 0.002046
87 0.001982
93 0.002032
98 0.001986
102 0.001951
103 0.002031
103 0.002
103 0.001978
103 0.001991
106 0.001958
105 0.001989
90 0.001975
69 0.000997
55 0.001993
54 0.001031
64 0.000996
70 0.001031
78 0.000993
80 0.000982
79 0.001995
78 0.000998
79 0.00196
84 0.002025
91 0.001993
97 0.001993
101 0.001995
105 0.002027
109 0.001994
111 0.001993
114 0.001994
117 0.000988
119 0.000967
112 0.000998
91 0.001016
65 0.001
59 0.00101
61 0.001987
65 0.001002
68 0.002057
75 0.001996
78 0.000998
79 0.001999
80 0.001007
83 0.000995
88 0.000996
93 0.000997
101 0.001994
106 0.001982
109 0.002035
113 0.001996
116 0.001996
120 0.001996
123 0.001006
128 0.001001
131 0.001047
130 0.000994
115 0.000997
91 0.001006
71 0.001998
71 0.000978
76 0.0
81 0.000978
86 0.000997
93 0.002001
93 0.001001
93 0.0
94 0.0
97 0.0
102 0.0
107 0.0
114 0.000998
118 0.000988
121 0.000977
120 0.000997
122 0.000997
127 0.000995
130 0.0
137 0.0
141 0.0
133 0.0
104 0.0
68 0.0
46 0.0
50 0.0
61 0.0
73 0.000999
85 0.000998
92 0.0
89 0.0
86 0.0
89 0.0
96 0.0
104 0.0
113 0.0
119 0.0
126 0.0
131 0.0
134 0.0
140 0.0
142 0.0
132 0.0
103 0.000978
64 0.001995
55 0.001028
61 0.001031
74 0.0
81 0.0
94 0.001951
96 0.002001
93 0.0
91 0.001988
98 0.0
105 0.001013
113 0.0
121 0.001947
128 0.002003
134 0.000958
138 0.0
142 0.0
144 0.001996
144 0.003021
113 0.000977
64 0.002998
44 0.001018
48 0.001008
56 0.0
63 0.001987
71 0.001997
78 0.0
80 0.0
79 0.0
80 0.001994
84 0.002012
95 0.0
106 0.002009
116 0.0
123 0.0
128 0.0
132 0.002007
136 0.002026
141 0.000984
144 0.001026
140 0.000988
98 0.001986
64 0.002011
46 0.0
55 0.001997
67 0.0
76 0.0
84 0.0
85 0.002028
83 0.00201
82 0.000995
86 0.0
92 0.000998
101 0.001978
109 0.002011
117 0.001008
124 0.000988
129 0.0
133 0.0
137 0.001011
141 0.002001
143 0.001944
118 0.0
83 0.0
60 0.0
57 0.002037
66 0.002033
82 0.0
97 0.002001
102 0.002989
99 0.0
95 0.0
96 0.0
103 0.001986
112 0.00199
123 0.0
131 0.0
138 0.0
142 0.002985
147 0.002034
153 0.002028
151 0.001972
116 0.000967
81 0.0
64 0.001034
65 0.003002
74 0.003024
86 0.002003
95 0.0
102 0.002007
102 0.001991
101 0.002028
104 0.002011
110 0.003005
121 0.0
130 0.002992
137 0.0
143 0.003032
148 0.002064
153 0.002951
157 0.000996
160 0.0
163 0.002999
129 0.001035
91 0.003039
70 0.004001
70 0.00199
79 0.002004
88 0.000943
96 0.003007
103 0.003043
108 0.001978
106 0.000983
107 0.002987
110 0.002982
123 0.002
132 0.003026
139 0.002994
147 0.001997
152 0.002004
154 0.00205
157 0.003028
159 0.002987
164 0.001993
168 0.003
172 0.002024
165 0.002997
108 0.002004
80 0.002986
75 0.004026
86 0.002992
95 0.002027
105 0.00205
113 0.00296
114 0.00304
108 0.002025
107 0.002038
111 0.003054
120 0.002995
135 0.001993
142 0.003008
148 0.002983
154 0.001996
157 0.001982
160 0.002027
165 0.004021
167 0.003969
142 0.002025
107 0.001998
82 0.002009
78 0.004009
94 0.001996
105 0.004025
117 0.002996
123 0.003984
120 0.001983
117 0.002991
118 0.001994
123 0.003989
131 0.004012
142 0.001995
150 0.001995
155 0.002026
162 0.001996
165 0.002028
169 0.005019
171 0.005011
155 0.002988
118 0.001994
81 0.002024
65 0.005018
67 0.00402
78 0.003016
85 0.003011
92 0.00299
101 0.002002
102 0.001994
102 0.004002
103 0.005019
112 0.001976
121 0.002001
129 0.001999
136 0.003999
143 0.003992
149 0.003039
153 0.002022
156 0.00299
164 0.003003
167 0.002023
155 0.004987
119 0.005033
74 0.001953
63 0.001982
69 0.002989
79 0.003958
89 0.004988
100 0.002995
104 0.003003
103 0.002996
101 0.002992
104 0.002028
111 0.005015
119 0.005017
129 0.001992
135 0.002041
140 0.002978
144 0.005016
147 0.005041
150 0.001993
154 0.003001
158 0.002988
157 0.003022
126 0.003978
87 0.005982
65 0.006041
69 0.002966
81 0.00398
94 0.003047
106 0.004987
112 0.005038
108 0.002991
103 0.003995
106 0.002993
114 0.003985
123 0.00296
132 0.006017
139 0.006001
146 0.003958
150 0.002986
154 0.003029
157 0.006017
160 0.006012
143 0.002999
104 0.002993
60 0.003992
61 0.004002
72 0.003959
83 0.005988
93 0.006018
104 0.004003
105 0.003987
102 0.004014
101 0.004012
104 0.006015
111 0.006017
123 0.003988
134 0.005985
141 0.003993
146 0.00399
150 0.003991
153 0.007017
156 0.007016
161 0.003943
155 0.003988
123 0.003944
81 0.006019
56 0.006018
56 0.003992
70 0.006013
81 0.004986
91 0.004988
96 0.004987
97 0.007021
95 0.007023
98 0.00494
103 0.004978
112 0.004985
121 0.006984
129 0.006982
137 0.005953
143 0.006981
147 0.003993
149 0.004972
153 0.003966
156 0.00703
160 0.006985
146 0.004987
108 0.004991
70 0.00398
55 0.007015
59 0.007014
75 0.004965
90 0.007038
102 0.004978
101 0.004985
95 0.004987
92 0.007976
98 0.007965
106 0.004956
115 0.004988
124 0.004986
131 0.006979
136 0.006974
141 0.00499
146 0.006981
150 0.004983
141 0.004983
110 0.005965
76 0.006978
57 0.00798
65 0.006006
78 0.005998
91 0.006006
107 0.007969
110 0.007977
105 0.005996
100 0.007978
104 0.004942
112 0.004987
122 0.005983
131 0.007014
137 0.007015
145 0.005
149 0.003022
153 0.005988
154 0.007971
134 0.007972
93 0.00595
51 0.007978
47 0.005983
57 0.005986
66 0.005999
78 0.007973
83 0.007977
89 0.005984
87 0.005985
86 0.00497
90 0.005992
101 0.006984
113 0.005969
123 0.008003
131 0.007959
136 0.00599
140 0.005948
145 0.005988
149 0.007975
143 0.007975
111 0.00696
72 0.006982
50 0.006934
54 0.006982
69 0.006017
83 0.006981
92 0.006977
96 0.005983
94 0.006015
91 0.006025
96 0.006981
103 0.007993
112 0.005964
121 0.005974
129 0.005976
135 0.00798
141 0.006019
146 0.006928
150 0.006968
154 0.006947
147 0.006982
115 0.006936
69 0.006984
57 0.006983
66 0.006967
79 0.005984
93 0.006022
108 0.006983
110 0.006028
103 0.00703
101 0.00702
105 0.005979
119 0.005996
129 0.005967
137 0.006979
143 0.006977
150 0.006946
152 0.006979
157 0.006982
160 0.006981
142 0.006978
90 0.006976
62 0.006982
61 0.006022
72 0.00598
83 0.00598
94 0.005974
103 0.006028
105 0.005989
102 0.005981
101 0.006969
105 0.006981
119 0.006972
128 0.006979
136 0.006975
142 0.006974
148 0.006014
153 0.005984
156 0.005981
160 0.005987
157 0.005989
129 0.005972
88 0.00599
61 0.005985
63 0.005983
75 0.006015
86 0.005984
98 0.005035
103 0.005032
103 0.004991
100 0.00598
101 0.005992
106 0.005995
118 0.005984
127 0.005984
135 0.005977
145 0.005986
149 0.005986
152 0.005986
155 0.005938
160 0.005949
163 0.005984
151 0.005998
114 0.00497
76 0.004987
62 0.004986
71 0.004988
84 0.00499
105 0.005975
113 0.005986
112 0.005985
105 0.005984
103 0.00602
108 0.00599
118 0.004987
128 0.004973
137 0.004992
146 0.004991
151 0.004975
156 0.004987
162 0.004988
155 0.004981
123 0.004952
85 0.005988
67 0.005985
73 0.005984
86 0.005109
99 0.004991
113 0.00499
119 0.004992
116 0.004989
111 0.00497
116 0.004982
124 0.004982
134 0.004988
142 0.004956
152 0.004987
157 0.003941
162 0.004004
165 0.004988
167 0.005006
138 0.004954
95 0.004944
57 0.005012
60 0.00502
70 0.004988
78 0.004988
88 0.004953
98 0.005
100 0.004997
100 0.003691
101 0.003958
105 0.004951
117 0.00499
126 0.00499
140 0.004988
146 0.00502
151 0.004889
155 0.003977
160 0.003951
164 0.003987
154 0.004024
118 0.003991
81 0.003995
64 0.003968
72 0.003977
82 0.003958
100 0.004
108 0.003988
111 0.004948
109 0.003989
107 0.004956
112 0.003951
120 0.003987
129 0.003953
137 0.003952
144 0.003989
151 0.003985
155 0.003959
159 0.00399
163 0.00399
168 0.003959
168 0.00302
146 0.002977
105 0.002993
72 0.003955
73 0.003988
84 0.003996
97 0.004011
110 0.003992
120 0.003956
117 0.003991
110 0.003971
112 0.003991
119 0.00399
129 0.00399
138 0.003988
148 0.002982
154 0.00299
158 0.00299
162 0.003023
166 0.002991
164 0.002986
127 0.003991
80 0.004061
68 0.00399
75 0.003026
87 0.003992
99 0.00299
114 0.00299
118 0.002993
115 0.002995
112 0.002991
112 0.002996
121 0.002952
133 0.002992
145 0.002992
151 0.003955
156 0.003997
159 0.002994
163 0.003999
166 0.003027
160 0.002993
128 0.002995
85 0.002999
59 0.002995
59 0.003011
71 0.003023
83 0.002993
92 0.002992
99 0.00302
100 0.001957
99 0.001995
103 0.001962
110 0.001996
120 0.001996
129 0.002993
137 0.003015
147 0.003043
151 0.003035
155 0.002993
159 0.003026
162 0.00198
159 0.002003
129 0.002993
77 0.002984
59 0.001994
62 0.002006
72 0.001995
83 0.001995
100 0.001995
104 0.002036
101 0.00201
98 0.001974
102 0.002053
109 0.001991
118 0.001995
131 0.001995
139 0.002995
144 0.002021
148 0.002018
153 0.001994
159 0.00203
163 0.001988
149 0.001997
112 0.001995
78 0.001995
66 0.001047
74 0.001023
87 0.000987
106 0.000998
119 0.002047
122 0.000996
118 0.000951
114 0.000998
118 0.001005
126 0.000997
140 0.001968
148 0.000998
154 0.001998
159 0.001995
163 0.001999
167 0.002021
169 0.001997
173 0.001997
168 0.002036
106 0.001042
71 0.000999
61 0.000999
72 0.000997
82 0.000998
92 0.000998
103 0.000997
108 0.001005
106 0.001979
104 0.001974
107 0.001988
113 0.001995
129 0.002051
138 0.002019
146 0.001005
152 0.000998
156 0.000999
159 0.000999
163 0.001
166 0.000997
170 0.000998
149 0.0
107 0.001027
74 0.000998
69 0.000998
81 0.000997
95 0.0
110 0.0
116 0.0
115 0.0
110 0.0
109 0.0
115 0.0
124 0.001012
133 0.001011
142 0.0
152 0.000997
156 0.0
159 0.000998
161 0.0
165 0.0
169 0.0
173 0.0
168 0.0
120 0.0
82 0.0
68 0.0
75 0.0
100 0.0
115 0.0
125 0.0
124 0.0
116 0.0
112 0.0
115 0.000992
124 0.0
138 0.0
147 0.0
154 0.0
160 0.0
167 0.0
171 0.0
172 0.0
162 0.0
111 0.002044
75 0.001038
64 0.001008
72 0.000996
90 0.001003
104 0.003009
117 0.002993
120 0.002038
114 0.002026
113 0.0
118 0.0
126 0.0
136 0.002028
145 0.001992
154 0.001006
159 0.0
162 0.000994
166 0.003011
170 0.002992
164 0.002986
129 0.003024
70 0.0
51 0.0
54 0.001004
67 0.002026
79 0.003002
94 0.0
101 0.001003
102 0.0
99 0.002004
97 0.001996
106 0.002031
116 0.002041
129 0.0
138 0.0
145 0.0
150 0.002027
153 0.001978
157 0.0
161 0.001004
160 0.001021
135 0.003003
91 0.002993
51 0.002991
56 0.002992
75 0.0
89 0.0
101 0.0
107 0.003027
104 0.002992
97 0.0
98 0.0
103 0.000992
112 0.002025
122 0.002027
135 0.001998
142 0.001992
146 0.0
150 0.0
154 0.000966
154 0.001995
136 0.002024
86 0.001009
61 0.0
59 0.000819
71 0.002997
87 0.004034
113 0.001994
117 0.002008
110 0.0
105 0.0
105 0.0
112 0.001996
122 0.002025
132 0.002038
143 0.001006
149 0.0
153 0.0
158 0.002029
161 0.0
143 0.003011
100 0.003021
55 0.0
49 0.0
59 0.0
72 0.002039
85 0.002029
98 0.000975
102 0.0
98 0.0
95 0.00302
101 0.0
109 0.003055
120 0.003001
131 0.0
137 0.0
143 0.0
147 0.003991
150 0.003039
153 0.0
145 0.0
107 0.000997
66 0.001983
45 0.00299
55 0.003029
67 0.002943
83 0.001956
94 0.000954
97 0.002024
96 0.003024
93 0.00293
97 0.000999
105 0.001027
115 0.0
130 0.001997
136 0.001995
141 0.002992
145 0.002959
149 0.002981
152 0.002991
157 0.003
153 0.004042
122 0.003985
67 0.002977
50 0.002975
54 0.002972
77 0.00299
92 0.001991
103 0.003027
104 0.00399
97 0.001998
94 0.001996
98 0.002032
107 0.003991
118 0.003993
131 0.003031
137 0.0
143 0.003974
149 0.002036
154 0.002002
158 0.004017
157 0.005022
117 0.001983
78 0.001985
59 0.001981
62 0.004026
75 0.003988
94 0.002984
108 0.002991
115 0.002998
109 0.001994
106 0.001981
109 0.003969
117 0.004021
128 0.003989
140 0.00198
147 0.002991
153 0.001967
158 0.004025
160 0.004996
164 0.001996
168 0.003029
164 0.002997
128 0.002048
80 0.002026
51 0.004986
48 0.004984
62 0.00198
71 0.001991
80 0.002991
90 0.005025
95 0.004046
95 0.002991
95 0.003033
104 0.002996
114 0.003012
124 0.002995
133 0.005017
141 0.004989
148 0.002993
152 0.002996
156 0.002992
160 0.00601
164 0.005001
170 0.002992
156 0.002976
85 0.002963
58 0.00301
57 0.002979
68 0.005015
81 0.005018
97 0.00299
107 0.003056
108 0.00204
104 0.005022
101 0.006004
107 0.003014
115 0.003002
132 0.003007
141 0.003024
148 0.002985
152 0.006041
156 0.005988
160 0.002986
163 0.002981
167 0.002989
170 0.00602
154 0.004999
98 0.002957
69 0.002977
74 0.003001
89 0.002989
106 0.003993
120 0.006017
125 0.006016
120 0.003989
113 0.002994
113 0.002974
120 0.006027
130 0.006017
141 0.003004
148 0.004001
156 0.003981
160 0.003991
163 0.003992
166 0.006017
167 0.006017
135 0.00396
89 0.002999
60 0.004023
56 0.006032
67 0.005993
84 0.003983
101 0.006023
108 0.007006
108 0.003989
103 0.003996
103 0.003987
109 0.006017
118 0.006037
131 0.004
140 0.003984
147 0.003986
152 0.007014
155 0.006018
161 0.007026
165 0.007021
147 0.003982
103 0.004021
62 0.00499
47 0.007013
51 0.006969
69 0.003997
82 0.004958
94 0.004996
100 0.00602
102 0.007039
100 0.006974
103 0.007019
114 0.004988
124 0.004987
135 0.003989
142 0.007038
148 0.007013
155 0.003996
158 0.00498
161 0.00495
165 0.007022
169 0.007013
133 0.006981
86 0.007016
54 0.004984
58 0.004986
72 0.005983
87 0.007013
101 0.006986
113 0.003987
109 0.00399
103 0.003999
101 0.007986
107 0.007961
121 0.007973
130 0.007971
141 0.004987
147 0.004988
151 0.005005
154 0.006967
158 0.006985
162 0.004945
153 0.005991
116 0.004932
66 0.007965
57 0.007982
76 0.007978
93 0.007984
110 0.004971
119 0.004991
119 0.004992
109 0.007968
106 0.007015
109 0.004982
119 0.005999
131 0.006039
140 0.007945
148 0.007978
157 0.007975
162 0.007983
166 0.005981
167 0.005984
146 0.005988
84 0.007969
59 0.00798
46 0.004983
58 0.005984
72 0.005984
88 0.007971
99 0.00697
101 0.006984
98 0.007978
97 0.007985
103 0.005984
113 0.00597
123 0.005988
135 0.007011
143 0.007978
150 0.005983
154 0.005991
156 0.005958
161 0.006983
166 0.005969
172 0.007029
158 0.007014
112 0.005034
63 0.005975
40 0.005976
45 0.006973
57 0.006982
66 0.004989
76 0.006
85 0.00599
91 0.006981
91 0.006976
94 0.006979
102 0.006983
113 0.006981
126 0.006983
133 0.005983
143 0.00697
148 0.006986
152 0.006024
156 0.005991
161 0.005984
168 0.005984
172 0.005983
178 0.00704
184 0.007021
181 0.006974
158 0.006978
86 0.006965
51 0.006967
46 0.007018
63 0.006981
76 0.005983
88 0.005979
100 0.005965
100 0.004982
96 0.006016
95 0.005985
102 0.005974
108 0.006003
120 0.006025
133 0.006976
141 0.006969
149 0.006947
153 0.006031
155 0.005984
160 0.005984
162 0.005984
166 0.006026
172 0.005985
179 0.005984
166 0.005984
119 0.005984
74 0.006021
54 0.006984
64 0.006983
80 0.005982
97 0.00597
120 0.005989
120 0.00602
113 0.006018
107 0.006019
110 0.005988
119 0.00499
129 0.005995
139 0.006021
147 0.005018
154 0.005008
158 0.005061
161 0.004987
166 0.005984
170 0.006017
167 0.005985
135 0.006018
88 0.005984
50 0.005984
51 0.005985
66 0.005988
83 0.005984
99 0.005977
113 0.005022
111 0.004969
100 0.005986
100 0.004982
106 0.004991
117 0.00502
128 0.005022
139 0.004987
147 0.004984
152 0.004987
156 0.005018
158 0.004985
162 0.004986
165 0.00498
154 0.004975
108 0.004981
59 0.00498
34 0.005018
35 0.004989
51 0.004948
65 0.005004
76 0.004975
85 0.005048
86 0.004956
82 0.004987
82 0.004842
92 0.003991
102 0.003992
112 0.004988
122 0.004025
129 0.004026
137 0.003987
141 0.004955
145 0.004984
149 0.005017
153 0.004973
139 0.004989
95 0.004987
37 0.00402
35 0.003983
49 0.00399
63 0.00403
78 0.003989
93 0.003999
93 0.004028
89 0.004029
86 0.004024
87 0.003989
96 0.004977
111 0.003998
123 0.00499
131 0.005001
136 0.004021
140 0.003979
142 0.00399
145 0.003991
149 0.003989
152 0.004002
141 0.004032
99 0.003991
46 0.004016
37 0.004002
56 0.003025
73 0.004992
89 0.003023
98 0.003029
97 0.004028
86 0.003984
82 0.004023
88 0.004025
99 0.004033
109 0.003993
119 0.00399
130 0.003024
135 0.002992
141 0.00303
145 0.003027
148 0.003028
133 0.001986
91 0.001986
44 0.00401
38 0.004033
48 0.003958
64 0.003025
84 0.003993
105 0.003027
104 0.002992
97 0.003025
97 0.003032
103 0.003014
113 0.002992
121 0.002992
132 0.002998
138 0.003025
142 0.003025
146 0.002973
149 0.003003
154 0.002992
148 0.003022
92 0.002994
49 0.003025
32 0.003022
35 0.003025
46 0.002992
60 0.003023
70 0.003022
77 0.002975
81 0.002994
81 0.002991
83 0.003005
90 0.001995
104 0.002026
114 0.002026
121 0.002027
128 0.002031
132 0.001995
137 0.002031
141 0.002992
146 0.00196
151 0.002978
154 0.002991
106 0.002992
61 0.002992
37 0.001994
42 0.001991
53 0.002027
63 0.001995
75 0.002028
85 0.00204
87 0.001995
85 0.002056
87 0.001994
92 0.002993
108 0.002032
117 0.001981
128 0.002994
134 0.001995
138 0.002007
142 0.001994
146 0.001995
149 0.002051
152 0.001988
157 0.001997
162 0.001994
168 0.002004
169 0.002029
132 0.002042
71 0.001973
51 0.001993
55 0.002025
68 0.000999
81 0.000999
93 0.000997
103 0.000997
101 0.001995
97 0.001965
99 0.001995
109 0.002027
120 0.002028
131 0.002032
141 0.000999
146 0.001989
150 0.001996
153 0.002027
156 0.000999
163 0.002029
167 0.001007
166 0.001992
112 0.001007
74 0.002012
59 0.000993
64 0.002041
78 0.001992
89 0.001962
101 0.001037
107 0.000999
108 0.000999
106 0.000997
108 0.001011
115 0.001015
133 0.001002
143 0.000998
150 0.000997
156 0.000998
163 0.000998
166 0.002029
169 0.002026
173 0.000998
178 0.002042
185 0.0
189 0.0
170 0.0
97 0.0
75 0.0
74 0.0
84 0.000998
97 0.000997
107 0.001
115 0.001021
121 0.000997
121 0.000998
122 0.001012
126 0.000998
136 0.001005
151 0.0
160 0.0
167 0.0
173 0.0
178 0.0
181 0.0
185 0.0
190 0.0
195 0.0
204 0.0
205 0.0
180 0.0
117 0.0
103 0.0
108 0.0
119 0.0
134 0.0
146 0.0
151 0.0
150 0.0
146 0.0
147 0.0
154 0.0
163 0.0
178 0.0
184 0.0
190 0.0
194 0.0
198 0.0
202 0.002958
207 0.002959
206 0.0
180 0.0
142 0.0
117 0.003026
112 0.002991
126 0.002045
137 0.002026
150 0.000995
155 0.000967
154 0.0
152 0.002029
152 0.003031
160 0.001014
168 0.0
176 0.0
183 0.003031
189 0.003
196 0.003023
199 0.003023
202 0.0
205 0.0
209 0.0
201 0.002026
169 0.002027
117 0.0
99 0.001008
99 0.000997
106 0.002988
112 0.001974
126 0.002992
132 0.002027
133 0.000997
133 0.0
135 0.0
140 0.002957
148 0.002957
159 0.0
166 0.0
172 0.0
176 0.003029
182 0.0
185 0.002025
188 0.00203
194 0.0
197 0.0
184 0.000952
147 0.00203
109 0.003012
87 0.000961
91 0.0
101 0.0
109 0.003025
123 0.0
126 0.003028
123 0.003024
122 0.0
125 0.0
132 0.0
140 0.002031
149 0.002994
157 0.0
162 0.001014
166 0.001993
169 0.002031
173 0.000966
176 0.00303
181 0.002028
187 0.0
178 0.0
143 0.000952
104 0.001935
85 0.003011
89 0.0
101 0.0
113 0.0
124 0.002991
129 0.0
124 0.002959
121 0.003002
124 0.000994
131 0.0
139 0.0
148 0.0
154 0.001983
159 0.001964
165 0.0
167 0.0
169 0.000991
174 0.001023
178 0.000969
182 0.002993
176 0.003059
128 0.0
87 0.0
68 0.00101
69 0.003024
78 0.003022
91 0.0
99 0.001005
105 0.0
105 0.001
103 0.0
105 0.003023
111 0.003022
123 0.000965
131 0.0
138 0.0
143 0.002988
148 0.003995
153 0.003005
154 0.000998
158 0.000965
166 0.003003
170 0.0
159 0.002983
123 0.002959
75 0.0
63 0.002003
68 0.002025
80 0.002993
91 0.003027
104 0.001997
108 0.002003
107 0.000991
103 0.002993
105 0.001995
112 0.004021
121 0.004024
132 0.001996
139 0.00199
144 0.002997
148 0.00399
151 0.002993
154 0.002991
158 0.002987
162 0.001997
171 0.00202
167 0.001994
136 0.004021
96 0.00399
69 0.001997
74 0.002005
88 0.002983
103 0.005015
116 0.003991
124 0.002992
122 0.001961
116 0.002992
119 0.002019
126 0.0
136 0.004027
146 0.004033
156 0.001993
161 0.002992
166 0.002992
169 0.004022
172 0.004023
177 0.002992
180 0.002991
151 0.003007
111 0.003008
85 0.002985
82 0.00402
90 0.004021
102 0.003985
117 0.003006
125 0.002036
127 0.00299
124 0.003989
122 0.003989
125 0.003033
136 0.003989
147 0.001965
154 0.00201
161 0.002028
165 0.005022
169 0.00502
174 0.002989
177 0.00299
180 0.002992
176 0.004984
148 0.00402
98 0.001996
80 0.004022
91 0.002992
103 0.003001
114 0.002001
122 0.00502
126 0.004979
122 0.001994
118 0.001997
120 0.001984
126 0.00507
135 0.005013
145 0.001999
154 0.004987
160 0.001995
163 0.002993
164 0.001998
167 0.005018
170 0.006015
173 0.002991
164 0.002946
131 0.002947
93 0.004942
73 0.004986
78 0.002005
94 0.004978
111 0.00297
118 0.003016
117 0.002946
111 0.005984
107 0.005984
110 0.002994
118 0.002995
127 0.002972
135 0.005992
142 0.006015
149 0.00294
153 0.007031
158 0.002978
156 0.002991
135 0.002991
99 0.005986
69 0.005985
65 0.002026
76 0.003989
89 0.002993
101 0.006946
111 0.005991
110 0.003981
102 0.005984
106 0.003995
114 0.003023
123 0.003024
131 0.00602
137 0.00602
144 0.003992
147 0.002973
150 0.003038
153 0.006038
149 0.005984
106 0.002991
53 0.005982
39 0.002992
47 0.003005
58 0.003027
67 0.004003
76 0.006984
82 0.007014
81 0.003988
79 0.003996
81 0.003988
88 0.006982
97 0.005976
112 0.005985
119 0.006017
127 0.002979
131 0.002961
135 0.004986
139 0.006018
135 0.005972
93 0.003989
54 0.003992
35 0.003975
36 0.00698
52 0.004994
62 0.007015
71 0.007012
78 0.002963
78 0.003996
79 0.004
83 0.006984
92 0.007019
106 0.005017
115 0.004986
123 0.003914
128 0.006982
134 0.002986
136 0.007017
140 0.007012
145 0.003997
147 0.003985
136 0.003025
100 0.007014
55 0.006977
31 0.004992
37 0.004011
47 0.004982
57 0.007015
74 0.004985
78 0.007015
77 0.007012
74 0.004006
79 0.003988
88 0.003989
100 0.008001
106 0.007961
116 0.004986
120 0.00499
124 0.004985
127 0.007975
132 0.004948
138 0.007943
147 0.006975
146 0.005985
117 0.004983
75 0.004988
47 0.007014
53 0.007949
66 0.005001
81 0.003989
95 0.00599
103 0.007976
98 0.005027
95 0.007978
98 0.007969
109 0.005001
120 0.004981
129 0.004986
139 0.007958
144 0.007963
148 0.004988
151 0.005006
155 0.004987
159 0.007977
160 0.005947
116 0.006984
72 0.006977
48 0.005988
48 0.005981
56 0.00597
69 0.007978
75 0.007928
87 0.008031
92 0.004985
92 0.004986
91 0.004987
100 0.005961
110 0.004989
124 0.007947
132 0.006979
139 0.005976
145 0.005979
149 0.005985
152 0.006989
155 0.007012
160 0.005983
166 0.005998
164 0.005993
88 0.005987
65 0.005985
54 0.00798
64 0.007972
75 0.006956
86 0.005985
99 0.00598
104 0.007011
103 0.006979
102 0.005983
103 0.005996
110 0.005982
126 0.005987
138 0.005993
148 0.006979
152 0.006014
159 0.006012
162 0.005985
164 0.005985
169 0.007026
174 0.00699
179 0.00698
172 0.00598
136 0.005984
67 0.005951
58 0.006013
71 0.006014
86 0.006977
100 0.005979
112 0.005971
112 0.005971
107 0.005933
103 0.006016
108 0.005979
117 0.005984
134 0.005023
141 0.005984
147 0.005986
151 0.00699
153 0.005999
157 0.005996
161 0.00599
165 0.005995
158 0.005984
124 0.00607
72 0.00598
60 0.005984
79 0.005971
96 0.005995
113 0.005978
124 0.005991
126 0.006015
115 0.005985
111 0.005012
115 0.00499
122 0.006029
132 0.006015
145 0.005983
151 0.006002
157 0.005988
159 0.005971
164 0.005984
166 0.006017
161 0.005987
126 0.005983
66 0.004981
44 0.004987
47 0.004984
61 0.006015
76 0.005034
94 0.004986
101 0.00599
94 0.00603
90 0.005998
92 0.004986
99 0.005032
108 0.005021
122 0.004996
130 0.004986
136 0.004984
141 0.005019
146 0.005016
146 0.004965
106 0.004997
48 0.004992
32 0.004977
38 0.004987
52 0.005031
68 0.004023
87 0.003966
93 0.005012
92 0.004985
88 0.005017
86 0.005036
92 0.005004
105 0.005985
119 0.006019
127 0.004969
134 0.004988
140 0.003979
142 0.004023
113 0.003967
68 0.003955
38 0.004003
33 0.003989
46 0.005018
68 0.004987
90 0.004992
99 0.004987
94 0.004996
89 0.004997
90 0.004025
96 0.004019
109 0.003993
118 0.003961
127 0.004035
135 0.004006
141 0.003959
146 0.003989
120 0.003989
64 0.004004
38 0.004989
38 0.005001
53 0.004984
70 0.004022
91 0.003947
98 0.003993
94 0.004022
86 0.003989
83 0.003995
92 0.004015
105 0.003985
116 0.003989
124 0.003985
132 0.004
138 0.002992
140 0.004051
111 0.00403
68 0.003994
40 0.004031
38 0.004021
52 0.003999
80 0.003966
95 0.003989
98 0.004003
91 0.003987
86 0.004095
88 0.004023
95 0.003989
110 0.003991
119 0.003029
127 0.003029
134 0.002997
139 0.003989
127 0.003989
86 0.003941
47 0.003057
32 0.004019
41 0.004007
55 0.002991
70 0.002984
84 0.002992
89 0.003017
87 0.002997
86 0.002988
88 0.002993
103 0.002988
113 0.003
122 0.003959
131 0.003991
137 0.002991
141 0.002992
143 0.002992
