86 0.023937
86 0.007978
100 0.007978
111 0.007979
116 0.007978
116 0.007976
117 0.007912
119 0.007024
128 0.00795
107 0.007011
72 0.006987
49 0.006981
44 0.006982
51 0.00802
60 0.007972
73 0.007974
87 0.007978
106 0.007947
109 0.007942
108 0.007017
109 0.007475
116 0.00695
121 0.006933
118 0.006983
87 0.006966
55 0.006981
39 0.006982
44 0.006982
56 0.006983
69 0.006982
83 0.007923
100 0.006981
107 0.006979
106 0.006982
107 0.006981
111 0.006943
116 0.007019
123 0.00703
111 0.007028
75 0.007022
50 0.007027
42 0.006982
48 0.006982
63 0.006981
80 0.005979
97 0.007035
106 0.006059
109 0.006971
108 0.007019
108 0.006945
112 0.00594
119 0.006971
126 0.006984
126 0.006982
98 0.006951
64 0.006985
47 0.007016
54 0.006989
72 0.006018
87 0.005955
101 0.005975
112 0.005977
117 0.005938
117 0.005956
117 0.005976
121 0.004988
125 0.006063
136 0.006946
143 0.005954
137 0.006988
86 0.006946
60 0.005974
55 0.006018
64 0.006017
78 0.005985
98 0.006051
113 0.005991
122 0.005936
126 0.005986
123 0.005986
124 0.00494
127 0.00604
134 0.006016
140 0.005993
145 0.006022
143 0.005045
110 0.005022
68 0.005971
58 0.005985
65 0.006037
78 0.006015
105 0.005985
121 0.005986
130 0.005985
130 0.004993
127 0.005986
128 0.004985
130 0.005985
134 0.004975
144 0.004988
151 0.005034
148 0.005988
115 0.004987
67 0.005018
65 0.005984
77 0.005985
97 0.005957
113 0.005026
128 0.005018
137 0.004971
137 0.004986
133 0.004935
131 0.004981
134 0.004991
141 0.004983
154 0.005983
158 0.005009
137 0.005021
88 0.00498
70 0.005937
70 0.005984
80 0.004987
96 0.004986
118 0.005052
134 0.004933
143 0.004945
145 0.004986
141 0.004954
142 0.004951
146 0.004977
155 0.004974
162 0.004957
168 0.004957
154 0.004959
115 0.004947
80 0.00399
79 0.00395
89 0.003951
103 0.004986
127 0.004943
141 0.004986
149 0.004983
150 0.004955
149 0.00499
149 0.003989
152 0.003991
157 0.003997
165 0.00394
175 0.00399
181 0.003988
164 0.003958
101 0.003989
87 0.003989
90 0.004977
100 0.003986
119 0.004955
134 0.003958
148 0.004958
155 0.003989
157 0.004012
157 0.003946
157 0.003941
158 0.003991
167 0.003998
174 0.00399
181 0.003969
183 0.004023
145 0.004023
108 0.003987
91 0.004045
93 0.003966
106 0.00399
126 0.002974
142 0.003951
162 0.003961
164 0.003952
161 0.003988
158 0.004033
158 0.003993
162 0.00394
166 0.003953
172 0.003957
179 0.003994
176 0.002994
128 0.00396
97 0.002957
88 0.002983
100 0.00295
105 0.011997
121 0.0
154 0.003957
148 0.002993
147 0.002992
148 0.002953
154 0.002962
160 0.002992
168 0.002981
145 0.002992
106 0.002952
82 0.002957
81 0.00396
95 0.003957
110 0.003005
126 0.003
140 0.002974
147 0.002992
147 0.002993
144 0.002994
143 0.003038
146 0.002992
151 0.002991
159 0.002991
164 0.00299
138 0.002966
99 0.002959
75 0.002956
72 0.002989
83 0.002976
102 0.001996
114 0.002961
132 0.002028
136 0.001953
135 0.001962
133 0.001957
133 0.002955
138 0.002993
144 0.002981
152 0.002959
159 0.00299
149 0.002993
112 0.002999
74 0.001995
72 0.001995
86 0.00196
98 0.001963
112 0.001997
124 0.002031
131 0.001958
133 0.001989
131 0.00299
131 0.002979
134 0.000997
139 0.001995
148 0.001996
157 0.001989
158 0.001948
125 0.001954
87 0.002028
68 0.001994
69 0.002036
85 0.001956
98 0.001996
112 0.001996
123 0.002008
132 0.002
133 0.001996
133 0.002012
135 0.001993
138 0.001995
143 0.001995
149 0.001998
156 0.002012
162 0.002002
140 0.001995
98 0.002009
72 0.001996
68 0.000998
82 0.001002
100 0.000997
119 0.000997
129 0.001006
133 0.000998
131 0.000997
130 0.001995
130 0.001984
133 0.001995
139 0.001994
144 0.000998
150 0.002004
158 0.000986
150 0.000997
94 0.000998
64 0.001
58 0.001012
64 0.000997
77 0.000998
95 0.000997
109 0.000998
118 0.000986
118 0.000997
112 0.001003
108 0.000998
110 0.000997
118 0.000999
125 0.001014
134 0.000998
143 0.001002
147 0.000983
108 0.00096
70 0.001031
54 0.001
58 0.000995
70 0.000994
93 0.0
108 0.000958
122 0.000955
126 0.0
126 0.0
126 0.0
127 0.0
133 0.0
142 0.000996
148 0.00103
157 0.000964
164 0.000956
128 0.000964
88 0.000966
68 0.000971
73 0.0
86 0.0
97 0.0
109 0.0
122 0.0
132 0.0
135 0.0
135 0.0
136 0.0
141 0.000998
146 0.0
152 0.0
162 0.0
169 0.0
173 0.0
152 0.0
108 0.0
76 0.0
75 0.0
86 0.0
98 0.0
123 0.0
131 0.0
140 0.0
143 0.001031
143 0.000998
145 0.0
148 0.0
153 0.0
159 0.000997
167 0.000998
176 0.0
181 0.0
179 0.0
136 0.0
95 0.0
80 0.015957
76 0.0
94 0.002006
115 0.0
148 0.000998
146 0.000999
143 0.0
146 0.001031
150 0.0
155 0.0
161 0.000997
166 0.0
173 0.0
175 0.000994
147 0.0
90 0.000988
70 0.001032
70 0.000998
89 0.0
115 0.0
129 0.0
135 0.0
137 0.000998
134 0.000997
133 0.0
136 0.0
142 0.0
149 0.000997
155 0.000998
165 0.000998
169 0.000998
116 0.001031
78 0.001051
63 0.000998
69 0.000992
83 0.001995
101 0.001
115 0.000997
124 0.000998
134 0.001044
135 0.001023
133 0.001036
132 0.000985
138 0.000998
144 0.000964
150 0.001008
158 0.000998
166 0.00203
146 0.001996
88 0.001026
64 0.001039
61 0.001008
72 0.001995
87 0.001995
113 0.001995
127 0.001995
135 0.000996
135 0.001005
132 0.000998
131 0.000982
134 0.001995
139 0.000984
146 0.002039
154 0.002028
165 0.001995
163 0.001987
97 0.002008
68 0.001996
64 0.001033
76 0.000997
92 0.000969
109 0.003003
124 0.002992
134 0.002032
137 0.002028
136 0.002027
134 0.002026
135 0.002002
143 0.002035
148 0.002029
160 0.000998
167 0.000958
151 0.00096
105 0.002039
73 0.002992
63 0.002029
74 0.002028
92 0.002026
111 0.002993
128 0.002992
145 0.003025
142 0.002032
135 0.002049
134 0.002031
136 0.002051
143 0.001946
151 0.002045
158 0.002038
161 0.003024
131 0.003036
75 0.00303
58 0.002993
71 0.002982
88 0.002992
115 0.00202
132 0.002029
141 0.002038
139 0.002961
132 0.00399
129 0.002984
130 0.002994
135 0.00303
144 0.002992
153 0.002992
123 0.003023
80 0.002993
52 0.002001
57 0.002014
72 0.002038
89 0.002995
106 0.003957
125 0.002035
129 0.003023
126 0.003025
122 0.003989
122 0.003989
130 0.003029
137 0.003028
145 0.002992
147 0.003033
115 0.003042
71 0.003989
44 0.003989
50 0.004
72 0.003027
88 0.003024
104 0.003024
118 0.004026
121 0.003023
119 0.004031
117 0.003892
122 0.003035
128 0.004027
134 0.003036
144 0.00399
144 0.003974
107 0.004045
65 0.004017
46 0.00403
50 0.003989
70 0.003958
90 0.003983
105 0.00399
116 0.004016
118 0.004021
116 0.004036
115 0.004021
117 0.004023
126 0.003046
134 0.003047
142 0.003989
142 0.002992
100 0.004027
60 0.00501
46 0.005013
51 0.004987
61 0.000995
80 0.0
108 0.0
118 0.003028
121 0.004029
127 0.003958
135 0.005019
143 0.004986
153 0.004017
148 0.004021
106 0.004023
66 0.00404
51 0.004023
60 0.00403
75 0.004032
90 0.00303
112 0.00502
125 0.003974
127 0.004979
124 0.004979
122 0.00402
126 0.003985
132 0.003959
139 0.004986
148 0.004987
159 0.003985
162 0.005015
133 0.004021
69 0.005021
60 0.004974
69 0.004987
83 0.005984
103 0.005019
114 0.005018
128 0.005018
134 0.005029
133 0.004987
132 0.005995
132 0.004031
137 0.00401
150 0.005015
158 0.005025
165 0.004927
168 0.005959
143 0.005984
85 0.00502
66 0.005045
69 0.005022
83 0.005984
99 0.004986
116 0.005034
132 0.005018
142 0.004993
137 0.00399
134 0.006004
134 0.005978
139 0.006021
147 0.005024
155 0.005018
163 0.005022
161 0.005984
123 0.006019
74 0.005044
63 0.005032
81 0.005968
97 0.004967
115 0.005982
131 0.005981
140 0.006015
139 0.006008
134 0.006016
131 0.00502
134 0.005984
140 0.005984
150 0.005028
158 0.005017
144 0.004974
100 0.005992
71 0.005979
64 0.006989
73 0.006981
95 0.005979
113 0.006014
130 0.006017
140 0.00605
142 0.00602
139 0.006019
136 0.006039
141 0.004975
148 0.004969
152 0.005985
163 0.006992
159 0.006966
105 0.005979
74 0.006013
66 0.006014
75 0.006994
90 0.007013
111 0.006025
127 0.006027
142 0.005992
141 0.005982
139 0.007008
138 0.006945
143 0.006976
149 0.007007
157 0.007014
167 0.006014
165 0.006982
128 0.007025
78 0.006018
69 0.007946
85 0.006982
98 0.005976
113 0.006981
127 0.007949
139 0.007987
141 0.007982
140 0.007008
137 0.007014
138 0.007015
145 0.007022
152 0.006981
166 0.006987
157 0.007979
101 0.006978
73 0.006984
70 0.006944
81 0.007978
95 0.007979
116 0.007012
132 0.007016
142 0.007028
144 0.007973
142 0.007979
139 0.007022
143 0.007931
152 0.007011
161 0.006977
169 0.006984
167 0.007979
130 0.007978
83 0.007015
74 0.007021
81 0.00702
96 0.008028
119 0.007966
141 0.00703
150 0.006982
148 0.007015
145 0.007024
144 0.008945
145 0.000996
166 0.00601
174 0.0
106 0.0
135 0.00698
149 0.006978
155 0.007054
153 0.00703
146 0.007
148 0.006979
152 0.007031
160 0.007026
167 0.007023
174 0.007944
134 0.007979
105 0.007971
80 0.006981
88 0.007014
104 0.006991
122 0.00698
146 0.006981
157 0.007022
158 0.007022
152 0.00698
148 0.00702
152 0.006968
160 0.006981
170 0.007025
175 0.007012
151 0.006959
107 0.007012
85 0.007022
86 0.007012
100 0.007041
118 0.007015
137 0.006983
154 0.007015
163 0.006981
158 0.006981
152 0.006023
153 0.005986
158 0.006027
165 0.006036
172 0.006017
167 0.006016
113 0.006982
85 0.007036
80 0.007025
91 0.007014
120 0.007016
148 0.006026
169 0.006025
173 0.006031
161 0.005984
151 0.006015
150 0.006033
156 0.006068
167 0.006023
179 0.005018
169 0.005021
77 0.005986
51 0.006026
52 0.006023
69 0.006022
103 0.006024
130 0.006012
153 0.006037
157 0.006041
150 0.006039
138 0.005974
138 0.005984
142 0.006018
159 0.006014
165 0.004986
132 0.005988
74 0.005991
36 0.006029
39 0.005017
58 0.00504
81 0.004979
105 0.005052
131 0.005986
137 0.006025
133 0.005975
125 0.005988
127 0.005982
135 0.005984
146 0.00603
156 0.006029
129 0.005979
71 0.005034
35 0.005046
29 0.00503
50 0.005019
72 0.00502
94 0.005021
124 0.004986
130 0.006031
126 0.006026
121 0.005932
123 0.005977
131 0.005027
141 0.005019
152 0.004987
153 0.005018
90 0.006018
45 0.005023
32 0.00502
53 0.005029
73 0.00503
97 0.005043
118 0.004021
134 0.005021
134 0.004027
130 0.004954
128 0.005032
132 0.005018
144 0.005017
156 0.00503
169 0.005033
157 0.005027
97 0.005065
52 0.004986
38 0.004986
56 0.004986
79 0.004986
104 0.004989
129 0.004941
144 0.004985
146 0.004965
138 0.005021
134 0.00502
140 0.00399
148 0.003989
157 0.004004
169 0.003996
179 0.003995
139 0.00403
79 0.004
48 0.003976
47 0.003999
61 0.004037
93 0.003978
118 0.004997
147 0.00402
145 0.004032
136 0.003981
130 0.004027
132 0.004036
143 0.004023
153 0.004014
165 0.004036
173 0.00402
170 0.004027
96 0.00499
50 0.004024
41 0.003999
58 0.002992
82 0.003
109 0.003031
132 0.002995
142 0.004032
136 0.003991
128 0.004027
125 0.011968
128 0.0
152 0.000997
77 0.002989
39 0.002992
31 0.002994
48 0.002994
70 0.00396
93 0.004033
116 0.002993
130 0.004043
130 0.002963
126 0.002965
126 0.003979
132 0.00404
142 0.004027
153 0.003024
162 0.003025
174 0.00304
144 0.003028
79 0.002992
39 0.002997
31 0.002993
50 0.002992
77 0.002993
103 0.002992
120 0.00305
127 0.002993
126 0.002994
123 0.001995
125 0.002993
129 0.002993
138 0.003003
148 0.002993
160 0.002996
176 0.002993
153 0.002994
72 0.003036
40 0.003025
39 0.002031
54 0.002868
73 0.002992
100 0.002016
122 0.001989
134 0.001995
136 0.001996
132 0.001994
129 0.002961
134 0.002948
141 0.002992
157 0.002992
167 0.003018
178 0.001995
186 0.003032
150 0.002028
69 0.001995
43 0.002032
45 0.001996
61 0.001995
84 0.001994
124 0.001996
142 0.001995
149 0.001961
145 0.001995
141 0.001996
139 0.001996
143 0.002993
152 0.001994
162 0.000964
172 0.002059
183 0.002021
190 0.001986
115 0.00204
61 0.001962
42 0.001995
56 0.001996
79 0.001996
105 0.001991
130 0.002037
153 0.002033
153 0.001995
143 0.002006
136 0.001954
135 0.001996
145 0.001996
153 0.001995
166 0.000998
175 0.000998
153 0.001007
91 0.001963
47 0.001995
37 0.00196
52 0.001972
76 0.001995
102 0.001039
127 0.001014
147 0.000998
140 0.001039
131 0.00104
131 0.000992
135 0.000997
146 0.000997
157 0.000998
172 0.000997
162 0.001995
105 0.000999
56 0.001002
39 0.001003
57 0.000958
80 0.000961
112 0.000997
131 0.001
140 0.000998
140 0.000998
135 0.001001
133 0.000998
139 0.000997
149 0.000997
160 0.000998
179 0.0
169 0.0
110 0.0
48 0.0
37 0.0
48 0.000998
69 0.000998
89 0.000999
111 0.000995
135 0.000997
139 0.000998
135 0.0
130 0.000997
133 0.0
140 0.0
150 0.0
164 0.0
178 0.0
165 0.0
103 0.0
49 0.0
30 0.0
41 0.0
63 0.0
102 0.0
122 0.0
132 0.0
131 0.0
127 0.0
127 0.0
130 0.0
137 0.0
148 0.0
155 0.015958
164 0.0
179 0.0
85 0.000997
44 0.000997
34 0.000998
45 0.000965
75 0.002023
98 0.00101
122 0.000998
143 0.0
143 0.0
138 0.000999
136 0.000999
140 0.0
149 0.000999
164 0.0
175 0.0
187 0.0
196 0.001034
166 0.000999
95 0.00096
44 0.0
41 0.0
58 0.000999
81 0.000712
115 0.0
143 0.000998
146 0.0
142 0.000997
135 0.0
134 0.000995
139 0.00103
151 0.0
161 0.0
170 0.0
181 0.001031
183 0.000998
112 0.000998
44 0.000997
36 0.0
54 0.0
70 0.001012
101 0.001995
126 0.00201
140 0.0
135 0.0
127 0.0
123 0.000998
125 0.001032
133 0.002007
151 0.001997
163 0.001996
174 0.000956
138 0.001035
75 0.000998
39 0.002004
33 0.001996
52 0.000998
74 0.000997
94 0.001022
115 0.00202
128 0.001996
126 0.001995
121 0.000998
123 0.000957
130 0.0
140 0.001016
153 0.002055
164 0.002025
178 0.000996
159 0.000997
93 0.001027
43 0.001999
29 0.001989
48 0.001995
67 0.00199
88 0.001031
105 0.000998
115 0.001998
118 0.002027
117 0.002035
118 0.001028
121 0.001016
127 0.001998
138 0.001994
157 0.001999
168 0.002992
160 0.002992
80 0.002026
37 0.001979
25 0.002028
35 0.002052
52 0.002033
76 0.001
94 0.001002
109 0.002008
114 0.002992
112 0.002029
113 0.003019
116 0.003031
125 0.002029
135 0.002029
146 0.001995
156 0.002989
168 0.003994
169 0.003033
116 0.002035
56 0.001984
30 0.003012
41 0.002
59 0.002993
77 0.002993
104 0.001995
118 0.002028
122 0.002046
120 0.003991
119 0.003041
122 0.002024
128 0.001996
138 0.003001
148 0.004024
167 0.001988
178 0.002988
188 0.003022
156 0.002034
87 0.002024
46 0.002
41 0.003029
54 0.00402
74 0.003967
101 0.003027
121 0.003031
134 0.002018
134 0.001997
131 0.002006
131 0.002994
136 0.003028
145 0.003022
155 0.002993
165 0.002982
175 0.004021
183 0.00402
170 0.00303
106 0.003022
55 0.003044
42 0.001998
52 0.003035
81 0.003022
103 0.004027
130 0.002991
139 0.002959
135 0.002993
130 0.004017
130 0.00403
136 0.003034
145 0.003036
156 0.003039
172 0.00402
182 0.002985
175 0.004988
118 0.004952
61 0.004019
38 0.003
49 0.003003
69 0.003983
89 0.004055
115 0.003
127 0.003989
137 0.002988
133 0.003012
133 0.002993
136 0.005021
142 0.004986
157 0.004035
168 0.002972
178 0.004028
189 0.004033
172 0.004028
86 0.002996
49 0.003007
43 0.003009
67 0.002999
84 0.00399
101 0.004979
120 0.004991
134 0.004028
134 0.004028
133 0.004038
134 0.00499
137 0.005004
145 0.004031
154 0.005023
170 0.005022
177 0.00401
185 0.004005
145 0.004967
77 0.00497
36 0.003989
41 0.003991
58 0.003959
77 0.004988
96 0.004989
123 0.003982
134 0.00402
134 0.003996
132 0.004999
132 0.004987
138 0.005987
146 0.005981
159 0.003998
170 0.003973
183 0.004002
195 0.005004
186 0.004989
105 0.00399
60 0.003998
50 0.004972
68 0.004982
88 0.00496
108 0.004978
127 0.005977
140 0.005986
145 0.004985
143 0.003987
143 0.003982
145 0.004985
152 0.004986
164 0.003988
179 0.00599
194 0.004994
203 0.005011
182 0.004975
113 0.005976
65 0.005986
55 0.004971
69 0.005028
91 0.005003
113 0.005989
139 0.006027
158 0.006015
156 0.005979
147 0.004987
145 0.004988
150 0.004995
158 0.005985
168 0.005989
181 0.005959
191 0.004994
192 0.004986
143 0.005988
80 0.005984
46 0.006023
57 0.006964
88 0.006017
112 0.004984
136 0.004997
150 0.006
151 0.00599
140 0.004985
136 0.004992
140 0.005993
147 0.005983
157 0.006981
171 0.006017
181 0.006983
131 0.004979
71 0.005977
42 0.005978
43 0.006966
61 0.006983
89 0.004984
112 0.004984
133 0.005985
142 0.006974
140 0.006979
133 0.005982
132 0.006968
141 0.005982
152 0.005992
163 0.005974
176 0.006985
179 0.006971
114 0.005994
60 0.006994
37 0.006951
45 0.007976
58 0.007979
83 0.006012
111 0.007004
127 0.005974
128 0.006009
126 0.006955
123 0.006984
124 0.00698
135 0.007972
145 0.005983
156 0.006974
167 0.006984
169 0.007979
102 0.007994
44 0.007973
40 0.007979
55 0.005994
72 0.00598
89 0.005966
107 0.006964
122 0.006969
129 0.007002
128 0.006985
127 0.006988
130 0.007978
144 0.006978
156 0.007937
168 0.007947
183 0.007025
175 0.00599
119 0.006989
62 0.006981
53 0.00599
64 0.00701
82 0.006976
102 0.006973
122 0.007978
145 0.006994
146 0.007972
144 0.007944
143 0.007009
146 0.006968
154 0.006989
169 0.007012
179 0.006993
195 0.007014
194 0.007021
169 0.006949
100 0.007016
71 0.006974
77 0.00797
95 0.00792
122 0.006985
144 0.006979
159 0.006954
158 0.006982
153 0.007016
150 0.007013
154 0.007015
163 0.006981
174 0.00702
190 0.007014
197 0.007017
184 0.007016
136 0.007014
90 0.006969
83 0.007027
94 0.007013
112 0.006981
136 0.006986
154 0.007011
165 0.007018
167 0.006985
160 0.006981
161 0.006969
166 0.006962
179 0.006014
188 0.005979
198 0.005969
204 0.005979
183 0.007046
120 0.007018
97 0.006988
98 0.006978
109 0.007025
133 0.007019
148 0.007012
161 0.006013
168 0.006007
166 0.006023
165 0.006029
167 0.006024
172 0.006023
179 0.006014
191 0.006015
200 0.006025
207 0.006026
180 0.007046
132 0.00701
102 0.006019
96 0.005992
109 0.006021
123 0.006019
136 0.006019
150 0.005976
161 0.006017
167 0.006025
166 0.006018
166 0.006016
171 0.005981
178 0.004991
187 0.006016
195 0.006014
207 0.006009
216 0.005988
206 0.006023
160 0.006013
120 0.006014
102 0.005985
109 0.005976
121 0.006023
141 0.005018
155 0.005031
164 0.005026
167 0.005026
167 0.005017
167 0.005021
171 0.006013
177 0.005978
185 0.006016
193 0.006024
201 0.006024
208 0.006023
220 0.005034
216 0.005013
175 0.005035
129 0.005061
104 0.005027
106 0.005022
116 0.005017
129 0.005018
142 0.005019
159 0.005023
167 0.003988
167 0.006017
167 0.005029
169 0.005028
173 0.005023
180 0.005017
188 0.004945
195 0.005028
202 0.005042
211 0.005028
219 0.004989
215 0.004997
170 0.005018
109 0.005051
102 0.005029
110 0.005015
125 0.004961
141 0.004031
161 0.00402
170 0.004025
172 0.004001
168 0.003992
165 0.004031
167 0.005025
170 0.004993
180 0.005032
190 0.004984
198 0.00503
206 0.00403
212 0.004034
191 0.004061
125 0.003982
97 0.004022
92 0.004031
100 0.004031
116 0.003992
139 0.004032
159 0.005043
162 0.004002
158 0.003952
154 0.00399
152 0.003034
155 0.00399
166 0.004064
174 0.003031
181 0.002994
190 0.003992
195 0.004032
151 0.004019
93 0.004029
74 0.004031
80 0.004011
95 0.003987
112 0.004031
129 0.00399
147 0.004039
149 0.002992
145 0.002996
142 0.003034
142 0.002994
148 0.002958
158 0.003009
170 0.003027
178 0.003003
174 0.003952
130 0.003984
85 0.004083
59 0.00403
62 0.004031
77 0.004029
95 0.003951
112 0.003993
131 0.002996
136 0.002994
132 0.003033
130 0.003022
133 0.002993
139 0.003047
147 0.003008
158 0.002994
168 0.002997
169 0.003989
128 0.003
77 0.002992
46 0.003025
53 0.004043
75 0.003069
90 0.004017
106 0.002027
120 0.003061
125 0.002992
125 0.002994
123 0.002994
124 0.003004
129 0.003039
137 0.002987
151 0.003029
165 0.002993
151 0.002995
99 0.003027
59 0.001996
45 0.002027
52 0.002026
74 0.003034
91 0.001995
109 0.001995
125 0.002033
134 0.001995
133 0.002962
132 0.003029
133 0.002996
140 0.003017
150 0.003012
160 0.002992
169 0.002029
176 0.002038
124 0.001986
73 0.001996
49 0.001995
51 0.002005
79 0.001995
100 0.002031
122 0.001997
138 0.001996
138 0.001996
132 0.001947
128 0.002
128 0.001037
137 0.002028
147 0.002033
156 0.001995
166 0.002
147 0.001995
90 0.001993
50 0.001999
42 0.001995
56 0.001997
74 0.001996
96 0.001995
117 0.001994
128 0.000998
126 0.001009
118 0.000997
115 0.000998
121 0.002044
130 0.000994
141 0.001996
154 0.001004
147 0.001996
99 0.001995
51 0.002022
29 0.001997
39 0.001995
58 0.002006
77 0.001995
96 0.001972
118 0.000988
117 0.000999
112 0.000998
108 0.000997
114 0.000998
122 0.000958
132 0.000997
142 0.001024
152 0.000997
118 0.000964
64 0.000997
31 0.001001
32 0.00099
49 0.000997
67 0.000997
89 0.001989
102 0.002007
107 0.000997
105 0.000999
104 0.000998
107 0.000997
113 0.000998
121 0.000997
131 0.001
146 0.000997
150 0.000998
116 0.000997
49 0.001999
28 0.0
31 0.0
46 0.0
64 0.0
86 0.0
102 0.000998
112 0.001004
115 0.000988
114 0.000997
117 0.000998
123 0.000997
135 0.000997
146 0.0
156 0.0
165 0.0
173 0.0
164 0.0
91 0.0
54 0.0
48 0.0
71 0.001006
86 0.001001
100 0.001046
116 0.000987
129 0.0
131 0.0
131 0.0
133 0.0
137 0.0
147 0.0
156 0.0
166 0.0
182 0.0
192 0.0
199 0.000998
176 0.000997
97 0.0
65 0.0
61 0.0
73 0.0
90 0.0
112 0.0
129 0.0
141 0.0
139 0.001036
137 0.0
139 0.0
143 0.0
150 0.001006
159 0.000998
170 0.000997
182 0.001005
187 0.000998
194 0.002032
158 0.001032
70 0.001034
55 0.001042
70 0.0
90 0.0
109 0.0
128 0.001029
143 0.001031
144 0.0
138 0.0
135 0.0
137 0.000998
142 0.000999
157 0.000999
167 0.000998
179 0.0
187 0.0
188 0.0
149 0.002053
92 0.002029
56 0.0
60 0.0
70 0.000997
93 0.001995
109 0.001036
134 0.000997
140 0.001029
137 0.0
136 0.0
138 0.0
143 0.001
152 0.000999
166 0.0
176 0.0
186 0.0
195 0.000958
178 0.001996
86 0.001995
61 0.001995
64 0.001036
81 0.0
98 0.000995
115 0.00103
132 0.002001
144 0.00103
148 0.000967
144 0.000967
144 0.000997
147 0.00203
159 0.001017
168 0.001995
178 0.001995
193 0.000996
201 0.00102
179 0.002049
118 0.001995
72 0.002028
58 0.001011
71 0.001093
90 0.001002
107 0.002026
137 0.000954
147 0.001995
149 0.002957
146 0.000955
144 0.000995
148 0.000985
155 0.002028
164 0.001982
176 0.00198
187 0.000968
197 0.000998
203 0.002053
129 0.001025
78 0.003023
58 0.003037
69 0.001966
88 0.002043
107 0.000993
126 0.002983
142 0.002957
151 0.002028
151 0.000991
149 0.000989
148 0.001995
156 0.001
164 0.001994
175 0.001991
188 0.001965
198 0.001964
206 0.001995
176 0.003035
109 0.002988
60 0.002033
59 0.002037
75 0.002017
113 0.002036
138 0.002022
156 0.003987
161 0.003022
153 0.001991
146 0.001999
142 0.001971
145 0.003023
153 0.002993
168 0.002048
179 0.00205
190 0.002046
184 0.001028
121 0.002026
69 0.004032
47 0.003022
59 0.001992
81 0.001992
106 0.001957
129 0.003022
149 0.002993
151 0.001994
142 0.001839
136 0.002992
136 0.002992
144 0.002029
155 0.003023
166 0.003028
180 0.001923
175 0.001987
119 0.003028
63 0.002038
40 0.004031
42 0.004025
66 0.001995
89 0.001994
129 0.001993
143 0.002002
143 0.001993
137 0.003025
130 0.002993
133 0.003004
141 0.002999
151 0.003
161 0.004022
172 0.00402
167 0.003024
107 0.003014
34 0.002981
31 0.00403
47 0.004027
71 0.003997
93 0.004987
120 0.002987
132 0.002992
132 0.002991
126 0.003949
122 0.004036
126 0.002993
135 0.002993
152 0.003001
163 0.002994
173 0.003993
162 0.004981
98 0.004975
35 0.002992
25 0.002993
37 0.002999
56 0.004985
75 0.004993
102 0.002995
118 0.002987
123 0.002982
119 0.003007
117 0.003965
118 0.005018
126 0.004986
141 0.002971
153 0.003996
165 0.004046
170 0.005006
133 0.004983
50 0.003954
22 0.002997
35 0.003002
56 0.002981
76 0.003986
95 0.005024
111 0.004986
119 0.003959
117 0.003987
113 0.00399
115 0.004974
121 0.004987
132 0.004014
144 0.003988
165 0.00402
177 0.004969
155 0.003998
87 0.005985
39 0.005979
26 0.003999
40 0.003984
60 0.003992
78 0.004981
98 0.004984
120 0.00399
125 0.003997
122 0.004984
121 0.004991
124 0.00502
131 0.005039
141 0.005976
154 0.00598
170 0.004984
181 0.003981
167 0.003996
102 0.006
49 0.005986
35 0.005039
52 0.004987
80 0.005032
100 0.00499
120 0.004981
134 0.005984
135 0.005977
130 0.004987
129 0.004991
132 0.004992
139 0.005985
149 0.005985
169 0.005984
182 0.00698
192 0.005006
157 0.004988
89 0.004983
48 0.005984
40 0.005983
62 0.004998
85 0.004972
110 0.004977
133 0.005984
146 0.005985
140 0.005984
135 0.006982
134 0.006016
139 0.004987
149 0.004994
161 0.006977
171 0.005975
186 0.004969
192 0.00499
157 0.004987
89 0.005984
49 0.00699
48 0.006982
68 0.007015
101 0.006008
126 0.006032
144 0.005981
147 0.006988
140 0.006959
130 0.004993
130 0.004995
138 0.004985
148 0.00599
159 0.006986
179 0.006982
175 0.006983
102 0.005984
55 0.006024
40 0.005985
48 0.006978
68 0.006987
96 0.005969
120 0.004986
139 0.004978
145 0.006978
141 0.007972
133 0.007938
138 0.007947
148 0.005982
159 0.005946
171 0.005987
173 0.007977
129 0.007975
56 0.005984
37 0.005959
45 0.006015
65 0.006974
87 0.006979
126 0.007018
141 0.007979
141 0.006017
135 0.007021
132 0.006969
136 0.007973
144 0.007978
159 0.007971
173 0.006001
172 0.005988
120 0.005987
65 0.006958
41 0.006979
60 0.007979
74 0.007978
104 0.007014
126 0.006968
139 0.00698
138 0.007969
132 0.007975
129 0.005978
134 0.00598
143 0.005981
154 0.007978
172 0.007004
152 0.007978
89 0.007921
41 0.006973
39 0.006968
55 0.006988
76 0.007941
107 0.007016
129 0.006981
143 0.006975
140 0.006966
132 0.006978
133 0.006978
140 0.006979
150 0.007024
164 0.006982
177 0.006994
185 0.006985
149 0.007942
85 0.007944
46 0.006974
49 0.005991
74 0.006978
111 0.006982
134 0.006952
147 0.007017
150 0.007011
143 0.006964
139 0.006965
140 0.006974
149 0.008025
156 0.007945
177 0.006978
187 0.007013
194 0.007011
108 0.006984
61 0.006982
48 0.007012
59 0.007019
89 0.00602
116 0.006985
133 0.006954
157 0.005976
159 0.007002
152 0.006969
142 0.006017
144 0.006014
155 0.007027
167 0.007004
179 0.007015
190 0.007018
163 0.006979
95 0.006972
54 0.006985
46 0.006994
59 0.007024
83 0.006959
116 0.005988
142 0.006014
155 0.005955
147 0.005986
138 0.005985
135 0.005999
143 0.005992
154 0.007034
165 0.006994
178 0.00701
179 0.005982
128 0.006027
55 0.006016
37 0.006017
55 0.006023
77 0.005986
101 0.005953
128 0.005986
144 0.00602
141 0.00602
133 0.005984
129 0.006021
130 0.005992
137 0.005021
151 0.006025
163 0.006014
166 0.005986
108 0.006023
52 0.006018
29 0.006024
33 0.006025
58 0.005021
80 0.006019
103 0.005986
121 0.005943
128 0.006044
125 0.00602
120 0.005027
123 0.005039
130 0.005019
141 0.005986
155 0.004989
167 0.00503
170 0.005019
118 0.006025
57 0.005982
27 0.006018
27 0.006025
51 0.006025
72 0.005032
106 0.005023
121 0.005021
125 0.005014
121 0.005032
117 0.005028
119 0.005015
125 0.005026
135 0.004988
146 0.005038
158 0.00502
174 0.005019
174 0.004946
75 0.005003
37 0.004982
29 0.00494
41 0.004952
59 0.004977
88 0.005034
110 0.005018
127 0.005022
132 0.004982
129 0.004937
123 0.005013
126 0.005024
136 0.005022
148 0.00402
159 0.00398
171 0.003988
184 0.003991
186 0.003946
132 0.004028
70 0.00399
40 0.004037
39 0.004039
62 0.004998
92 0.005094
122 0.004027
137 0.003989
140 0.004021
136 0.003992
132 0.00503
133 0.004989
140 0.005017
149 0.005031
160 0.004035
171 0.004023
183 0.004026
198 0.00499
171 0.00399
82 0.004023
49 0.004027
46 0.003991
63 0.002991
87 0.004024
121 0.003991
145 0.002994
157 0.002992
155 0.004026
148 0.004029
141 0.004029
144 0.004
153 0.00402
165 0.004013
176 0.004027
186 0.003991
196 0.002993
166 0.002976
96 0.003056
55 0.002992
45 0.003037
55 0.002958
94 0.004021
120 0.004
149 0.004026
154 0.004055
145 0.003958
135 0.004023
132 0.003982
137 0.003991
146 0.003004
158 0.002994
170 0.003035
180 0.002992
146 0.002993
81 0.002997
40 0.004021
40 0.003991
56 0.004019
77 0.003022
101 0.002993
131 0.003949
140 0.002995
137 0.002994
129 0.002994
125 0.002994
131 0.003032
141 0.002992
159 0.002992
170 0.002993
173 0.003036
130 0.002992
70 0.003019
32 0.003023
37 0.00302
54 0.002031
76 0.002994
97 0.002032
128 0.002994
133 0.003018
126 0.002992
121 0.002993
122 0.002978
129 0.002992
139 0.002993
155 0.003027
168 0.003027
170 0.001996
125 0.002032
65 0.002112
29 0.001995
41 0.001997
67 0.002044
89 0.001996
111 0.002029
127 0.001993
132 0.002023
128 0.001019
122 0.002026
123 0.002992
128 0.002044
147 0.001998
159 0.002995
172 0.002006
164 0.001995
86 0.002028
46 0.001995
34 0.002018
43 0.002031
63 0.001995
93 0.002025
116 0.002007
133 0.001996
136 0.001995
130 0.001996
127 0.001998
129 0.002023
141 0.002027
152 0.002029
165 0.002001
178 0.002043
182 0.000995
121 0.000998
68 0.000997
44 0.000998
56 0.001
79 0.002049
102 0.001995
126 0.001022
148 0.001929
148 0.000986
142 0.000997
139 0.000999
139 0.000998
147 0.000997
158 0.000997
171 0.000998
190 0.000998
194 0.001996
153 0.001004
90 0.000998
53 0.001033
55 0.000997
74 0.00099
99 0.000998
126 0.000997
156 0.002042
163 0.002041
157 0.001
143 0.000999
143 0.0
151 0.000997
161 0.000999
176 0.000998
188 0.000993
190 0.000984
146 0.000997
82 0.001009
46 0.000998
50 0.000997
69 0.000997
115 0.0
142 0.0
160 0.0
160 0.0
144 0.000998
136 0.000997
139 0.0
146 0.000998
156 0.001002
173 0.000998
178 0.001032
138 0.000998
53 0.001006
40 0.0
50 0.0
71 0.0
93 0.0
124 0.0
137 0.0
136 0.0
128 0.0
123 0.0
125 0.0
133 0.000998
153 0.0
166 0.0
155 0.0
98 0.0
51 0.0
37 0.0
48 0.0
66 0.0
87 0.0
115 0.0
128 0.002032
129 0.000997
121 0.000997
122 0.002039
130 0.0
141 0.0
153 0.0
162 0.001041
151 0.001995
81 0.0
44 0.0
36 0.000998
50 0.001033
70 0.001043
100 0.001998
117 0.001995
128 0.0
128 0.0
126 0.0
126 0.002014
132 0.002041
145 0.0
155 0.0
168 0.0
175 0.001037
108 0.000998
67 0.001032
54 0.001
68 0.0
83 0.0
99 0.0
117 0.002002
132 0.001995
140 0.0
139 0.0
139 0.0
141 0.002038
153 0.0
163 0.001033
174 0.001031
188 0.0
182 0.0
138 0.0
95 0.000998
78 0.001997
86 0.0
102 0.0
119 0.0
136 0.00203
157 0.0
160 0.002026
160 0.001964
161 0.0
165 0.0
172 0.0
182 0.001042
192 0.001995
205 0.0
216 0.0
215 0.0
176 0.002073
114 0.0
107 0.0
117 0.001998
133 0.002033
153 0.001028
170 0.0
179 0.001989
181 0.002038
178 0.002033
178 0.001982
180 0.0
184 0.001986
198 0.000965
207 0.000958
217 0.002021
226 0.002003
215 0.0
171 0.00199
137 0.000997
123 0.002002
128 0.001958
145 0.001004
159 0.001042
175 0.001016
188 0.000987
186 0.000982
182 0.002987
180 0.002976
186 0.000982
192 0.000984
201 0.00198
209 0.001997
217 0.002027
220 0.001991
190 0.001994
151 0.000964
124 0.000987
130 0.002012
141 0.002992
153 0.002992
172 0.000983
181 0.001002
183 0.001033
181 0.003028
180 0.003042
182 0.001997
186 0.001992
193 0.001995
205 0.001995
212 0.001999
211 0.003044
180 0.002951
133 0.001996
120 0.00101
122 0.000988
133 0.003036
145 0.002994
161 0.001004
172 0.001963
175 0.001966
174 0.001965
172 0.001997
174 0.004042
179 0.00399
187 0.001979
196 0.001985
204 0.002005
210 0.002993
194 0.003053
141 0.00204
117 0.00196
116 0.00204
126 0.001991
138 0.001973
151 0.004047
164 0.004039
170 0.00197
169 0.002016
166 0.001971
166 0.002001
168 0.003989
174 0.004007
185 0.002001
196 0.004025
199 0.001994
168 0.001991
129 0.00299
107 0.003989
103 0.00399
116 0.00298
127 0.002992
140 0.002984
154 0.004023
164 0.00402
163 0.00299
159 0.00402
160 0.002991
165 0.003052
172 0.003046
181 0.004126
189 0.003995
195 0.003001
165 0.003009
126 0.002983
104 0.004987
98 0.004986
109 0.002996
127 0.005022
146 0.002984
156 0.002983
159 0.002992
155 0.004997
152 0.004939
154 0.00299
160 0.002988
168 0.002999
177 0.004021
185 0.004024
172 0.002008
118 0.004998
92 0.003
93 0.001992
103 0.002961
119 0.004987
136 0.005018
155 0.002995
160 0.002011
158 0.003973
153 0.004977
151 0.004999
157 0.003998
166 0.004956
177 0.003988
179 0.00399
152 0.003992
112 0.004987
88 0.004991
87 0.003026
100 0.003034
117 0.003028
135 0.00499
151 0.004984
157 0.002985
150 0.006016
146 0.003982
148 0.003942
155 0.003956
164 0.005984
173 0.005984
174 0.00399
137 0.003992
98 0.004961
80 0.004957
80 0.005021
98 0.003982
124 0.004986
146 0.00398
155 0.004962
155 0.003995
148 0.006014
144 0.005984
146 0.006016
154 0.004982
162 0.004007
171 0.004001
177 0.005984
150 0.005979
83 0.005965
71 0.006014
83 0.004975
101 0.003984
122 0.003993
143 0.005984
156 0.005988
154 0.004003
148 0.00402
143 0.003997
144 0.006859
148 0.006984
159 0.005988
167 0.005975
156 0.004988
106 0.005955
68 0.005004
55 0.005984
61 0.006022
85 0.004983
108 0.004978
131 0.00399
144 0.005984
140 0.005
131 0.007012
129 0.007012
133 0.004971
140 0.004982
151 0.004989
161 0.006017
157 0.006016
91 0.004022
52 0.004961
37 0.004
43 0.007028
78 0.004985
102 0.007015
123 0.006981
134 0.004975
129 0.00498
121 0.004994
117 0.007016
119 0.006981
131 0.004986
141 0.004989
152 0.005984
151 0.006982
71 0.005978
38 0.006982
32 0.007013
49 0.004967
70 0.00502
92 0.005027
113 0.007014
124 0.007011
126 0.004991
120 0.004988
117 0.005982
120 0.007978
130 0.005989
140 0.007959
150 0.007017
158 0.005984
122 0.005987
65 0.005991
32 0.006981
27 0.006981
46 0.004989
65 0.005988
86 0.005986
112 0.007976
121 0.005984
118 0.007979
113 0.007982
114 0.005979
118 0.006954
126 0.006987
136 0.007021
147 0.007015
161 0.006952
159 0.00695
109 0.005981
41 0.007977
24 0.006014
36 0.005982
64 0.007978
84 0.007968
105 0.005997
118 0.005989
120 0.005991
115 0.006983
114 0.007979
116 0.005985
123 0.006979
129 0.006982
147 0.006986
158 0.006985
169 0.007993
177 0.007976
127 0.005981
67 0.006013
36 0.006983
35 0.007964
53 0.007989
76 0.005984
104 0.006976
117 0.006978
129 0.006951
127 0.006979
121 0.006983
121 0.007979
127 0.00698
136 0.006982
144 0.006983
154 0.007941
167 0.007015
180 0.006982
186 0.006974
154 0.006895
68 0.006973
35 0.006949
39 0.007018
59 0.007023
84 0.006978
112 0.006972
140 0.006951
145 0.007018
135 0.008012
123 0.006999
121 0.006949
124 0.007002
135 0.006976
150 0.006978
160 0.007013
170 0.007014
182 0.006961
157 0.00698
114 0.006982
44 0.005985
27 0.006953
40 0.005983
62 0.005983
102 0.00698
122 0.006982
129 0.006977
127 0.006983
120 0.007025
115 0.007017
119 0.006983
124 0.006944
137 0.007014
148 0.006015
158 0.006972
168 0.006975
113 0.005976
53 0.005953
24 0.005987
23 0.006013
39 0.005984
67 0.005984
89 0.005991
108 0.006997
118 0.006837
118 0.006019
114 0.006021
111 0.006015
116 0.006028
127 0.005954
138 0.005978
150 0.005943
161 0.006019
170 0.005986
135 0.005981
69 0.005026
27 0.005022
18 0.005019
30 0.005028
55 0.00607
80 0.005984
105 0.005986
114 0.006007
113 0.006003
109 0.006024
108 0.006037
113 0.005981
120 0.005978
130 0.006048
141 0.006022
153 0.006013
167 0.005969
160 0.004985
77 0.005974
30 0.005018
18 0.005023
29 0.004991
49 0.004986
73 0.006033
93 0.004988
109 0.004988
115 0.004987
113 0.006033
110 0.006046
113 0.005984
123 0.005026
132 0.005025
143 0.005947
155 0.005021
167 0.005018
179 0.005984
162 0.005023
95 0.005986
43 0.004987
25 0.005017
39 0.005023
68 0.00484
100 0.005022
122 0.004996
134 0.005021
132 0.00495
125 0.005018
121 0.004038
125 0.004042
132 0.004007
142 0.004021
154 0.003989
169 0.003976
183 0.002987
183 0.004986
132 0.004987
67 0.004986
34 0.00502
31 0.004999
55 0.005018
79 0.00399
105 0.003989
127 0.004958
138 0.004039
131 0.00402
122 0.00399
122 0.00399
128 0.003946
138 0.004025
149 0.004028
158 0.00405
170 0.003959
174 0.003984
128 0.004026
64 0.005039
31 0.003989
34 0.004027
55 0.00401
78 0.00396
110 0.004025
126 0.003999
128 0.00398
122 0.004024
115 0.004036
115 0.004045
122 0.002957
132 0.003991
143 0.003026
163 0.00296
173 0.004024
169 0.003991
92 0.004023
41 0.004991
22 0.002993
29 0.004027
50 0.004021
78 0.004033
98 0.002999
118 0.00399
126 0.003023
122 0.002978
119 0.003003
122 0.002983
131 0.002992
141 0.004022
152 0.003042
163 0.004054
172 0.003956
184 0.00399
160 0.00399
91 0.003991
42 0.002957
29 0.002962
44 0.003006
64 0.003026
88 0.004023
105 0.003969
116 0.002992
118 0.002996
115 0.003017
115 0.002988
118 0.002029
125 0.002004
135 0.001995
152 0.002995
164 0.002034
175 0.002994
188 0.00302
182 0.003021
123 0.003043
64 0.003011
38 0.003024
45 0.003028
64 0.002999
86 0.002993
110 0.002993
141 0.003028
143 0.001991
136 0.003041
129 0.002038
131 0.001995
136 0.001996
144 0.001995
155 0.002008
168 0.002994
177 0.001996
187 0.002994
173 0.000986
75 0.003009
42 0.00099
38 0.002019
53 0.002033
84 0.001995
109 0.001999
132 0.001996
142 0.001995
139 0.001997
129 0.001991
126 0.001995
128 0.001996
142 0.002041
154 0.001044
162 0.000999
174 0.002003
175 0.001995
124 0.001995
68 0.001948
41 0.001995
39 0.000997
61 0.001996
85 0.001
107 0.001007
138 0.002043
141 0.001996
137 0.000992
133 0.001002
132 0.001996
138 0.000997
148 0.000988
158 0.000997
167 0.001987
183 0.001995
185 0.001995
141 0.000997
54 0.001994
40 0.000998
48 0.001004
68 0.001033
95 0.001025
114 0.000998
132 0.000998
140 0.001012
138 0.000985
132 0.000997
132 0.000998
141 0.002025
150 0.002039
161 0.001997
173 0.0
185 0.001042
197 0.000998
164 0.0
97 0.001016
54 0.000997
41 0.000998
56 0.000992
76 0.001
112 0.000967
133 0.001003
142 0.0
142 0.0
137 0.0
134 0.0
136 0.0
144 0.0
153 0.0
164 0.001013
177 0.000993
187 0.000997
203 0.000997
179 0.0
109 0.0
61 0.0
44 0.0
57 0.0
77 0.0
99 0.0
120 0.0
137 0.0
144 0.0
142 0.0
136 0.0
141 0.000998
149 0.000963
157 0.000997
167 0.000999
179 0.0
192 0.0
202 0.0
207 0.0
168 0.0
99 0.0
56 0.0
59 0.0
87 0.002028
113 0.002044
148 0.0
164 0.0
167 0.000997
159 0.002026
151 0.001994
147 0.0
152 0.0
162 0.000967
171 0.00104
190 0.000951
200 0.001011
202 0.001996
133 0.0
75 0.000992
52 0.0
54 0.002045
71 0.002025
104 0.0
132 0.0
154 0.0
162 0.002006
147 0.0
138 0.002042
137 0.001049
144 0.0
155 0.000931
166 0.0
176 0.001029
185 0.002006
140 0.0
78 0.000985
45 0.000981
38 0.002017
63 0.0
86 0.002021
112 0.001996
139 0.0
144 0.0
140 0.0
131 0.002027
127 0.001959
134 0.0
143 0.0
153 0.000994
164 0.001031
162 0.0
106 0.00204
55 0.001958
32 0.0
41 0.0
60 0.0
82 0.001995
106 0.001995
129 0.000997
133 0.0
129 0.000992
123 0.0
127 0.000998
133 0.001049
143 0.001049
158 0.000946
168 0.0
165 0.0
114 0.001036
58 0.001996
34 0.001997
38 0.002002
55 0.000948
90 0.001001
113 0.0
128 0.001014
132 0.001997
129 0.002028
125 0.002007
125 0.002014
131 0.001995
141 0.002994
153 0.003022
168 0.001996
178 0.001046
116 0.001962
61 0.0
36 0.001996
40 0.001996
58 0.001963
84 0.002039
106 0.001998
126 0.0
134 0.003034
132 0.003025
128 0.000986
127 0.0
135 0.000961
145 0.001994
155 0.001993
166 0.001995
177 0.002987
182 0.002046
140 0.001028
79 0.001046
46 0.003021
41 0.00299
62 0.000993
83 0.001981
118 0.00201
134 0.001034
140 0.000991
138 0.002992
134 0.002992
135 0.001014
141 0.001985
149 0.001998
159 0.002992
169 0.003612
183 0.002025
193 0.001996
159 0.000999
94 0.000998
58 0.001983
52 0.002992
66 0.00299
96 0.001992
119 0.000982
141 0.000966
154 0.004033
153 0.004019
145 0.001993
141 0.001979
146 0.002011
153 0.001979
163 0.002
174 0.003026
182 0.003993
195 0.001992
179 0.002038
117 0.001995
68 0.00399
52 0.004026
65 0.001997
87 0.001984
128 0.001999
152 0.001997
160 0.001987
154 0.001995
146 0.004023
141 0.004026
142 0.002027
151 0.001995
162 0.00299
172 0.003989
182 0.004023
192 0.001989
138 0.004018
66 0.002976
46 0.002974
52 0.002984
72 0.003984
95 0.004021
127 0.002045
145 0.00198
151 0.002011
145 0.003996
138 0.003989
135 0.003001
143 0.004991
156 0.002993
167 0.002958
178 0.001994
187 0.004987
158 0.004987
77 0.003001
44 0.001995
42 0.00299
57 0.004986
79 0.005017
115 0.004986
134 0.005005
140 0.002974
136 0.004014
133 0.004006
132 0.004987
136 0.004988
150 0.003988
161 0.002992
171 0.002995
182 0.004988
181 0.005034
88 0.004992
46 0.004986
39 0.003004
54 0.002976
75 0.002945
95 0.00603
116 0.005021
135 0.003028
136 0.002991
130 0.003027
128 0.005984
129 0.005018
140 0.004949
151 0.004971
165 0.003007
175 0.002959
182 0.003024
164 0.004986
101 0.004986
43 0.002941
36 0.002986
51 0.003994
72 0.005986
93 0.005978
128 0.005981
138 0.005988
138 0.003989
135 0.003976
134 0.003954
137 0.005982
146 0.005023
159 0.003993
170 0.003013
181 0.003983
192 0.005984
188 0.005985
89 0.005985
50 0.005981
42 0.00601
63 0.003999
86 0.00401
106 0.003995
129 0.005979
144 0.007028
148 0.004989
142 0.004989
138 0.00497
138 0.006016
149 0.003944
161 0.005985
172 0.006983
185 0.004022
194 0.003998
180 0.003984
115 0.006014
63 0.007006
46 0.005
60 0.004992
83 0.004942
109 0.007015
150 0.004952
158 0.006946
151 0.006982
136 0.003966
132 0.003995
134 0.003937
142 0.006981
153 0.006981
168 0.00404
178 0.003986
186 0.004943
160 0.005985
61 0.004976
40 0.006981
44 0.006935
72 0.004989
96 0.004987
119 0.00497
139 0.007003
145 0.007018
135 0.004972
128 0.004969
127 0.004981
135 0.007033
151 0.004987
161 0.006985
172 0.006981
178 0.005004
131 0.005981
70 0.005988
40 0.007015
38 0.008009
59 0.00597
80 0.004975
102 0.005046
130 0.004988
131 0.004995
127 0.007
123 0.007035
125 0.004961
132 0.005017
142 0.00499
153 0.007011
165 0.007958
174 0.005989
155 0.005953
90 0.005981
29 0.00598
32 0.005985
54 0.00797
72 0.007981
90 0.005965
108 0.005984
117 0.005983
120 0.007025
116 0.007958
115 0.005983
120 0.005987
128 0.005979
144 0.005982
155 0.005941
166 0.005971
167 0.007979
121 0.007978
47 0.005989
27 0.005969
31 0.004986
54 0.007017
74 0.007018
93 0.006967
111 0.006964
119 0.006967
115 0.006964
114 0.006979
117 0.007074
126 0.007014
136 0.00698
146 0.006981
157 0.005972
172 0.008008
175 0.00799
133 0.006018
73 0.005999
34 0.005976
46 0.005984
65 0.005976
90 0.007019
111 0.007014
129 0.006944
132 0.006027
128 0.005993
124 0.006951
125 0.007979
131 0.005982
143 0.006981
160 0.00696
167 0.00695
178 0.006961
179 0.007014
136 0.006984
78 0.006979
47 0.006975
51 0.006938
69 0.00602
90 0.007015
111 0.006978
135 0.005978
140 0.006976
133 0.006984
127 0.006982
130 0.007014
138 0.006975
150 0.006963
160 0.006939
166 0.006951
176 0.005984
184 0.006018
147 0.00599
89 0.005955
48 0.005976
56 0.005976
75 0.006982
94 0.006947
112 0.007017
136 0.006976
142 0.006948
140 0.006984
136 0.006985
137 0.005985
141 0.006968
151 0.00598
167 0.005984
177 0.005977
186 0.00598
193 0.00595
170 0.005986
94 0.005966
61 0.005953
56 0.005959
69 0.00595
89 0.00596
112 0.005955
131 0.005986
146 0.006019
147 0.005969
144 0.005945
143 0.006018
146 0.005987
154 0.006026
166 0.005984
176 0.005982
185 0.005998
194 0.005987
201 0.006019
159 0.006017
99 0.005986
63 0.00595
66 0.005963
82 0.005021
101 0.005939
119 0.006015
142 0.005022
154 0.005018
155 0.005951
150 0.004989
147 0.005016
153 0.005986
161 0.005985
173 0.005988
182 0.005984
191 0.005951
201 0.005007
208 0.005024
190 0.005025
131 0.005021
85 0.004989
67 0.005028
74 0.004987
106 0.005021
125 0.005023
148 0.00399
160 0.005
161 0.005954
158 0.005032
155 0.005028
160 0.004972
166 0.005021
173 0.004973
181 0.005018
191 0.004987
204 0.004987
213 0.00401
221 0.004976
194 0.004985
129 0.004985
87 0.003958
75 0.004042
91 0.004024
112 0.004024
134 0.003955
156 0.005055
172 0.00502
175 0.00502
169 0.005021
165 0.004988
167 0.004984
173 0.005038
181 0.003991
190 0.004022
203 0.003992
212 0.00399
220 0.004044
214 0.004048
159 0.004988
85 0.005369
78 0.00397
97 0.00399
120 0.004027
143 0.004022
167 0.004985
179 0.003968
173 0.003992
164 0.004024
159 0.004999
161 0.004957
165 0.003989
178 0.00399
186 0.004024
195 0.003991
200 0.00399
161 0.004959
103 0.00399
70 0.004039
64 0.00399
83 0.003986
103 0.002992
125 0.002992
148 0.002993
164 0.003038
158 0.002992
153 0.003961
147 0.004025
152 0.004025
159 0.004031
170 0.003933
178 0.003954
190 0.004039
164 0.004988
102 0.002952
61 0.003991
51 0.002965
66 0.002993
85 0.003802
111 0.004041
132 0.003982
142 0.003956
143 0.003991
138 0.003996
134 0.002952
135 0.00401
142 0.004026
159 0.002991
170 0.004009
178 0.003991
158 0.003026
78 0.002991
43 0.003991
37 0.002993
50 0.004006
69 0.003032
96 0.002961
118 0.004036
134 0.003023
135 0.003055
129 0.00303
126 0.003007
126 0.003018
137 0.003025
148 0.003026
159 0.001995
170 0.002968
173 0.002046
109 0.001995
56 0.002993
36 0.002958
50 0.002961
70 0.002999
90 0.003038
111 0.003026
132 0.002992
134 0.002962
131 0.002992
127 0.001995
127 0.001993
134 0.002025
144 0.001996
154 0.001996
173 0.002041
178 0.002043
140 0.002047
79 0.00303
39 0.003049
43 0.001995
63 0.002025
86 0.002993
112 0.001996
141 0.001996
148 0.001995
143 0.001939
131 0.001956
130 0.001995
135 0.001995
144 0.001996
155 0.001995
170 0.001996
179 0.002016
162 0.002025
101 0.002043
54 0.002052
36 0.001989
48 0.001023
86 0.001989
111 0.000983
133 0.001023
140 0.000997
135 0.001011
124 0.001997
121 0.001995
125 0.001991
132 0.002021
143 0.002026
157 0.002046
165 0.001995
100 0.001996
49 0.002028
28 0.000992
33 0.001025
51 0.000999
80 0.001042
100 0.000998
118 0.000997
126 0.001011
124 0.000997
118 0.000997
117 0.002027
130 0.001978
141 0.002027
152 0.002036
162 0.002025
158 0.001952
85 0.000997
39 0.000998
24 0.000998
33 0.00096
52 0.000963
79 0.0
101 0.000997
123 0.0
124 0.001005
119 0.000998
117 0.00099
120 0.002035
129 0.000998
140 0.0
152 0.0
162 0.0
167 0.0
106 0.0
49 0.0
24 0.000998
39 0.000996
59 0.001024
77 0.000997
97 0.000997
116 0.000997
121 0.0
119 0.0
117 0.0
119 0.0
127 0.0
140 0.0
156 0.0
167 0.0
172 0.0
140 0.0
78 0.000998
35 0.0
38 0.0
56 0.0
75 0.0
95 0.0
121 0.0
132 0.001037
130 0.0
126 0.0
128 0.000998
132 0.000998
140 0.0
149 0.0
165 0.001979
174 0.0
183 0.0
146 0.0
84 0.0
42 0.000962
53 0.001016
74 0.002009
97 0.002025
125 0.0
137 0.0
143 0.0
136 0.002029
129 0.002046
130 0.0
135 0.0
145 0.0
162 0.0
172 0.000968
181 0.002033
179 0.002025
111 0.001015
63 0.000999
46 0.000781
54 0.003035
71 0.003048
96 0.0
116 0.0
132 0.0
137 0.0
134 0.0
131 0.002057
134 0.002027
145 0.0
155 0.0
165 0.0
176 0.002032
186 0.002044
174 0.0
115 0.0
65 0.000965
50 0.000987
67 0.0
86 0.003008
102 0.002027
125 0.0
137 0.0
140 0.0
139 0.002029
138 0.002043
142 0.0
149 0.0
157 0.0
174 0.0
183 0.0
192 0.002027
198 0.002009
140 0.0
80 0.0
51 0.001048
52 0.001969
69 0.001992
93 0.0
110 0.0
128 0.0
142 0.0
141 0.0
139 0.002025
140 0.002026
146 0.0
154 0.000959
164 0.0
172 0.0
181 0.002027
191 0.001996
204 0.0
193 0.000966
92 0.0
57 0.0
54 0.0
69 0.002029
89 0.002058
113 0.000963
131 0.0
145 0.000951
149 0.002993
147 0.002994
144 0.001996
145 0.001994
157 0.0
166 0.002015
176 0.00103
185 0.002039
195 0.002043
210 0.0
216 0.001994
185 0.0
114 0.002992
70 0.003025
59 0.001991
84 0.003026
117 0.001999
143 0.002038
164 0.003002
171 0.003033
166 0.00299
155 0.001997
152 0.002007
154 0.002026
162 0.003027
170 0.003022
182 0.001993
194 0.003022
205 0.002004
183 0.002006
117 0.001995
68 0.002963
53 0.003147
66 0.002001
88 0.002014
112 0.002015
136 0.003047
155 0.003019
158 0.003009
148 0.002993
142 0.002019
143 0.002039
151 0.001944
162 0.003023
173 0.003024
187 0.001988
193 0.001997
154 0.002011
88 0.003029
52 0.002993
49 0.001997
72 0.00399
103 0.001994
125 0.001995
145 0.001997
152 0.004024
148 0.003985
139 0.002024
138 0.001994
142 0.002005
150 0.003983
162 0.003989
177 0.001994
185 0.004023
124 0.002018
67 0.001999
42 0.001989
45 0.001997
63 0.003995
84 0.004
112 0.002013
132 0.002021
142 0.001994
142 0.004987
137 0.004029
133 0.005
137 0.004987
149 0.001996
160 0.001999
171 0.001994
180 0.004024
165 0.003989
85 0.001998
48 0.002946
40 0.00201
54 0.005023
76 0.005036
114 0.005006
136 0.004986
148 0.002937
144 0.002
137 0.001983
134 0.004985
138 0.004991
148 0.002001
160 0.002006
172 0.002999
183 0.003989
187 0.004987
99 0.005018
55 0.004982
48 0.00299
64 0.002995
88 0.002995
113 0.004991
139 0.004999
155 0.001995
151 0.002994
143 0.002994
137 0.004988
137 0.005989
150 0.004984
160 0.00496
174 0.002992
181 0.002993
155 0.002995
93 0.005976
52 0.005945
43 0.001941
58 0.002994
78 0.00399
101 0.005984
136 0.003018
141 0.005947
135 0.005981
124 0.00295
125 0.002995
131 0.002994
140 0.004983
151 0.006003
166 0.002987
164 0.003977
116 0.003952
61 0.005954
32 0.004003
46 0.005985
68 0.005985
98 0.002961
121 0.002988
134 0.003995
134 0.005985
126 0.005978
121 0.002992
123 0.00402
131 0.002997
142 0.005986
161 0.004003
172 0.005984
149 0.005986
86 0.005989
35 0.00399
31 0.004001
44 0.003995
63 0.005985
82 0.005968
106 0.002992
120 0.004995
123 0.004032
116 0.003966
115 0.003989
119 0.005968
128 0.005986
143 0.003991
154 0.004007
165 0.003997
151 0.005982
93 0.005989
38 0.004986
32 0.004988
44 0.004985
77 0.003977
97 0.004995
115 0.006999
126 0.006998
126 0.003967
122 0.003992
121 0.003993
125 0.006981
132 0.005978
146 0.004978
157 0.004974
168 0.004951
165 0.004944
106 0.004024
55 0.006982
36 0.006965
47 0.004968
67 0.004989
86 0.003982
106 0.006977
124 0.00698
134 0.004992
131 0.004985
126 0.004992
129 0.004984
137 0.004993
147 0.006982
157 0.006979
171 0.004981
181 0.00499
187 0.004021
136 0.007978
75 0.007982
45 0.005985
45 0.005015
63 0.004988
98 0.004982
120 0.004991
138 0.006982
143 0.006982
137 0.004928
132 0.004984
132 0.005984
140 0.00798
149 0.007978
159 0.005993
169 0.005982
180 0.005988
193 0.005969
174 0.005974
107 0.007971
58 0.00798
43 0.005943
57 0.004981
80 0.005986
104 0.007972
135 0.007978
145 0.007979
144 0.005991
136 0.005986
132 0.006012
136 0.005994
143 0.005984
156 0.00797
166 0.007973
174 0.005989
184 0.005954
185 0.005988
114 0.006982
61 0.006981
42 0.006019
62 0.00698
83 0.005997
103 0.005987
123 0.005987
139 0.007972
142 0.006964
137 0.005984
134 0.006966
137 0.006977
146 0.00698
155 0.006978
165 0.006983
183 0.006979
192 0.005994
173 0.005974
109 0.005984
62 0.007967
45 0.007971
60 0.005986
87 0.006972
107 0.006977
128 0.007018
146 0.007018
149 0.006941
142 0.007014
139 0.005986
143 0.005992
151 0.005967
163 0.006983
175 0.006014
189 0.006978
196 0.006984
190 0.006979
128 0.007014
70 0.006984
48 0.006982
64 0.007
87 0.006926
108 0.006981
128 0.006981
148 0.006982
152 0.006982
145 0.005985
142 0.005983
146 0.005984
150 0.005982
158 0.007025
172 0.006974
186 0.007025
200 0.006953
205 0.006974
175 0.006981
85 0.005983
54 0.006977
51 0.005978
67 0.005989
98 0.005982
121 0.007022
142 0.007019
156 0.005985
153 0.006025
147 0.005975
147 0.006014
151 0.006014
160 0.005971
171 0.005962
185 0.005984
196 0.006017
206 0.005982
203 0.006017
145 0.006009
81 0.006018
54 0.005016
69 0.005025
99 0.004987
124 0.005942
149 0.004984
164 0.006032
166 0.006025
158 0.006003
151 0.005985
151 0.005979
155 0.006022
164 0.005986
182 0.005025
192 0.005019
205 0.004986
189 0.00498
120 0.004989
67 0.005017
49 0.004991
62 0.005986
86 0.005988
113 0.005984
141 0.004987
162 0.005022
160 0.005132
148 0.005023
140 0.004993
142 0.005964
148 0.005986
159 0.006022
171 0.005019
184 0.004969
189 0.004987
148 0.004944
80 0.006034
38 0.004991
48 0.005024
70 0.004987
104 0.004965
128 0.004984
148 0.004985
154 0.005022
149 0.004021
137 0.005017
136 0.004985
141 0.004986
150 0.005025
168 0.004991
178 0.004965
180 0.004993
107 0.004992
53 0.00502
33 0.005023
38 0.004987
57 0.003989
89 0.004027
113 0.005029
134 0.00502
143 0.005009
135 0.004986
129 0.004989
129 0.00403
136 0.004022
147 0.003996
159 0.004027
170 0.004023
176 0.004021
114 0.003953
55 0.003958
31 0.003991
34 0.00399
67 0.005037
89 0.004024
112 0.004001
136 0.004009
138 0.003945
133 0.004021
126 0.004021
125 0.004034
131 0.003986
143 0.003996
154 0.003992
166 0.004023
160 0.00403
100 0.003
49 0.003958
29 0.00399
43 0.00296
63 0.00296
86 0.002962
110 0.002996
130 0.004015
135 0.002988
130 0.002995
125 0.004007
128 0.003948
136 0.004022
147 0.004052
159 0.002975
174 0.00299
168 0.003991
114 0.003994
58 0.00399
36 0.003936
44 0.002994
66 0.002994
90 0.004029
133 0.003022
146 0.002989
145 0.003027
136 0.002992
128 0.003024
130 0.003025
139 0.00399
151 0.002994
162 0.003845
178 0.002027
177 0.001996
126 0.002999
46 0.003028
39 0.003008
52 0.003027
77 0.00303
113 0.002991
141 0.002989
155 0.002958
151 0.002956
140 0.001992
131 0.001995
133 0.001936
140 0.001946
157 0.002025
170 0.001996
175 0.002
137 0.001995
60 0.002999
37 0.002992
41 0.003036
59 0.002027
84 0.002028
117 0.002026
137 0.002033
142 0.002035
131 0.002029
125 0.001995
127 0.002034
134 0.002023
149 0.002012
160 0.001987
170 0.001995
155 0.00203
95 0.001996
36 0.001995
28 0.001998
56 0.001995
78 0.001978
101 0.001995
122 0.001981
131 0.001996
128 0.000964
119 0.001972
116 0.001994
121 0.002025
131 0.001997
142 0.000998
158 0.000998
159 0.000999
86 0.00103
37 0.000997
22 0.001965
31 0.000998
50 0.000998
76 0.000997
99 0.002001
116 0.001996
122 0.002006
120 0.001995
115 0.001997
116 0.001995
128 0.001997
139 0.000997
150 0.000967
162 0.001996
164 0.000953
95 0.000962
45 0.001009
27 0.000966
35 0.000958
52 0.001995
77 0.002047
103 0.002044
120 0.000964
121 0.000998
119 0.001991
117 0.001032
119 0.000998
129 0.000998
141 0.000966
152 0.000967
163 0.001033
173 0.001996
144 0.002028
69 0.0
42 0.0
51 0.001964
69 0.001035
86 0.0
104 0.0
128 0.000997
136 0.000999
135 0.000997
133 0.000998
134 0.000997
139 0.000988
153 0.0
167 0.000981
178 0.0
188 0.000997
189 0.000996
146 0.0
79 0.0
61 0.0
67 0.0
84 0.0
104 0.0
130 0.0
150 0.0
152 0.0
148 0.000965
146 0.0
148 0.0
154 0.0
165 0.0
173 0.0
184 0.0
194 0.0
202 0.0
169 0.0
97 0.0
70 0.0
76 0.0
93 0.0
113 0.0
140 0.0
153 0.000974
159 0.000967
155 0.0
149 0.0
150 0.000988
155 0.0
170 0.0
180 0.0
188 0.000998
196 0.00203
202 0.0
155 0.0
102 0.0
75 0.00203
75 0.001998
95 0.0
113 0.0
142 0.0
156 0.000974
159 0.0
155 0.003009
152 0.002029
154 0.0
159 0.0
166 0.0
176 0.003022
183 0.002027
196 0.001007
205 0.001002
200 0.0
144 0.001
94 0.0
75 0.003048
78 0.003044
98 0.0
113 0.0
128 0.0
143 0.003022
151 0.002995
154 0.001006
152 0.000985
155 0.000966
159 0.0
168 0.0
176 0.002028
184 0.002992
196 0.000964
204 0.0
212 0.0
213 0.002026
172 0.001953
99 0.0
76 0.0
86 0.0
101 0.0
116 0.0
134 0.003016
149 0.001996
157 0.0
154 0.0
150 0.0
150 0.003024
154 0.002025
164 0.0
172 0.0
185 0.001019
194 0.0
203 0.0
211 0.002026
216 0.001999
165 0.0
109 0.0
78 0.000957
75 0.002993
88 0.002994
110 0.0
127 0.0
153 0.0
159 0.0
156 0.0
151 0.001993
150 0.002026
153 0.002027
161 0.0
169 0.0
178 0.000966
187 0.002026
195 0.002047
207 0.00102
214 0.002036
155 0.0
102 0.000976
75 0.0
75 0.001998
88 0.00297
113 0.000955
135 0.0
156 0.0
166 0.003027
163 0.001998
153 0.0
147 0.001981
150 0.0
157 0.0
166 0.0
176 0.002992
185 0.003037
198 0.00299
194 0.0
142 0.0
89 0.003022
65 0.003024
68 0.001961
92 0.003043
123 0.0
145 0.001995
157 0.001999
155 0.003024
146 0.00395
139 0.001995
139 0.002991
145 0.001997
153 0.003026
163 0.002998
175 0.001998
188 0.003034
149 0.00198
91 0.0
57 0.0
47 0.002991
58 0.002993
86 0.002006
107 0.002987
128 0.001995
142 0.002969
143 0.003997
132 0.003977
127 0.00399
132 0.002035
140 0.002004
149 0.002992
159 0.003024
169 0.003035
166 0.001995
113 0.001993
63 0.002033
39 0.004034
39 0.003986
66 0.00399
85 0.003989
111 0.001998
124 0.002002
127 0.001987
123 0.003993
118 0.003992
117 0.001976
123 0.001992
132 0.002992
143 0.003989
153 0.00399
165 0.00399
128 0.004017
56 0.002994
30 0.00199
30 0.001993
46 0.004008
65 0.004991
85 0.004987
107 0.001863
115 0.001939
114 0.00198
110 0.004986
109 0.002962
114 0.004986
122 0.004982
135 0.0
145 0.002986
156 0.003002
162 0.00399
132 0.003984
55 0.002997
26 0.002992
25 0.002988
41 0.00399
73 0.001986
93 0.005057
111 0.005015
119 0.002992
116 0.001992
112 0.002977
113 0.004984
116 0.004987
127 0.001965
138 0.001993
148 0.002005
159 0.004992
174 0.00296
157 0.005984
94 0.004989
35 0.003004
29 0.001968
42 0.003008
62 0.004984
85 0.004985
116 0.001997
130 0.001984
130 0.001988
122 0.006016
118 0.002026
123 0.006002
131 0.005986
145 0.002985
154 0.00313
163 0.00299
173 0.004975
182 0.004989
158 0.003986
92 0.002993
46 0.002983
33 0.005988
56 0.002994
77 0.006019
99 0.005983
127 0.002988
131 0.002992
127 0.003013
119 0.005982
117 0.005991
122 0.002991
132 0.003001
143 0.003009
152 0.004981
168 0.003989
176 0.006022
177 0.005986
108 0.002971
54 0.002991
31 0.002981
36 0.005985
54 0.005981
82 0.002991
105 0.003993
123 0.003007
130 0.003987
124 0.003991
121 0.006019
122 0.005987
128 0.005986
141 0.003982
153 0.003022
164 0.002962
174 0.005976
183 0.005981
151 0.002961
84 0.004002
35 0.002993
37 0.006982
58 0.003979
77 0.006986
94 0.006987
119 0.003988
129 0.003992
129 0.003994
125 0.005982
124 0.007001
129 0.003987
135 0.003991
153 0.003995
164 0.004989
176 0.004985
186 0.006983
188 0.006984
123 0.003992
61 0.003994
34 0.003998
36 0.006998
53 0.006978
78 0.003987
97 0.003986
126 0.004993
131 0.004992
128 0.004964
123 0.006981
122 0.006981
130 0.004978
139 0.004022
149 0.004001
159 0.006984
169 0.006978
182 0.004953
191 0.004954
191 0.004986
129 0.004988
64 0.004992
33 0.00797
35 0.006963
56 0.004006
76 0.004024
95 0.004983
117 0.006981
131 0.006981
132 0.004987
129 0.005984
128 0.005991
133 0.005017
142 0.004991
153 0.006977
164 0.007981
176 0.004974
187 0.004989
197 0.004985
206 0.007969
206 0.007975
126 0.004985
67 0.004984
45 0.005985
62 0.005985
85 0.005985
108 0.007978
131 0.007978
151 0.004994
151 0.005991
145 0.00499
138 0.006978
138 0.007957
146 0.005948
156 0.005964
173 0.006983
185 0.005991
196 0.005025
205 0.005991
201 0.007978
141 0.007968
76 0.004986
47 0.005003
46 0.004971
65 0.007972
98 0.006983
123 0.00598
154 0.006982
154 0.004989
145 0.005026
138 0.00599
138 0.00798
142 0.007968
154 0.005018
164 0.005991
180 0.006976
189 0.006987
177 0.006981
115 0.005981
44 0.006973
41 0.006982
56 0.00598
78 0.005985
111 0.00697
136 0.006982
148 0.00502
146 0.005985
137 0.006979
129 0.007026
132 0.007026
147 0.007014
159 0.007012
171 0.005932
180 0.006982
153 0.006097
70 0.006012
38 0.006975
34 0.005979
55 0.005993
76 0.005991
97 0.006104
119 0.006013
135 0.006022
130 0.005956
124 0.005953
126 0.005984
130 0.006979
142 0.005986
153 0.006977
167 0.006983
176 0.005983
146 0.005986
67 0.005982
38 0.005985
46 0.006019
66 0.006982
93 0.007
115 0.005985
131 0.005989
136 0.006983
133 0.006005
129 0.006979
128 0.005991
137 0.005984
148 0.004996
160 0.005979
174 0.005987
141 0.006011
72 0.00597
48 0.005988
50 0.005967
66 0.006031
87 0.005025
115 0.005983
134 0.004983
144 0.005949
143 0.006036
138 0.005996
138 0.005985
146 0.005991
157 0.006023
173 0.005983
185 0.005984
184 0.005972
141 0.005981
92 0.006017
68 0.006004
76 0.004966
92 0.004989
108 0.005033
140 0.004997
152 0.004987
154 0.005028
150 0.004987
151 0.004983
156 0.005986
164 0.006016
175 0.005988
190 0.005984
195 0.005984
166 0.004986
120 0.005023
87 0.004985
95 0.005018
112 0.004989
138 0.004004
157 0.004985
170 0.004977
172 0.005019
167 0.004972
164 0.004983
166 0.004987
174 0.004989
182 0.004001
198 0.004953
192 0.004998
152 0.004987
107 0.005016
100 0.004996
109 0.004962
127 0.005026
147 0.00502
172 0.004991
179 0.003985
178 0.005094
171 0.005052
169 0.004953
173 0.004146
181 0.003956
196 0.003967
202 0.003946
177 0.003979
134 0.003989
108 0.003993
104 0.003954
118 0.00397
136 0.003988
154 0.00399
177 0.004949
176 0.004943
171 0.004981
167 0.004019
169 0.003982
176 0.00398
185 0.00399
194 0.003993
199 0.00398
167 0.004001
123 0.002994
97 0.004969
104 0.002998
117 0.00399
133 0.003025
154 0.004042
164 0.003989
167 0.004026
165 0.004042
161 0.004019
163 0.003988
169 0.003988
177 0.003987
192 0.004031
198 0.004047
169 0.004014
123 0.003943
96 0.004044
93 0.003989
105 0.004039
119 0.00399
134 0.002993
149 0.004023
160 0.003015
159 0.003012
155 0.004022
156 0.003998
161 0.004031
168 0.004038
177 0.003022
190 0.002989
197 0.002989
174 0.004504
125 0.003962
95 0.002993
88 0.003982
99 0.003989
124 0.005003
141 0.003023
157 0.003026
162 0.003026
161 0.00298
158 0.002993
157 0.003025
159 0.002975
165 0.001908
175 0.003044
186 0.003024
195 0.00299
177 0.003028
127 0.003029
97 0.004027
88 0.002994
96 0.003023
117 0.002029
134 0.001974
153 0.002006
166 0.00204
167 0.002053
162 0.003004
160 0.003169
164 0.002079
170 0.002991
178 0.002047
185 0.00305
194 0.002959
199 0.002988
160 0.002995
112 0.003051
87 0.002996
82 0.002996
97 0.002028
114 0.002029
146 0.002028
157 0.001995
157 0.001964
152 0.002028
147 0.002043
145 0.013963
151 0.001995
159 0.001986
167 0.002001
175 0.001986
182 0.002037
146 0.002039
78 0.00203
67 0.00205
74 0.001996
90 0.000998
108 0.000999
136 0.001961
151 0.002023
153 0.001995
148 0.002039
143 0.002045
144 0.001989
148 0.00197
160 0.001995
172 0.00299
181 0.002036
169 0.002009
115 0.000998
75 0.002032
61 0.001988
69 0.00099
86 0.000997
106 0.000998
127 0.001044
150 0.002005
148 0.001995
140 0.001986
139 0.002005
140 0.00204
146 0.001962
155 0.001989
169 0.001996
177 0.000964
159 0.002002
102 0.002161
63 0.00203
53 0.002025
68 0.001012
96 0.00103
118 0.000997
138 0.001012
147 0.000998
144 0.001027
134 0.001049
131 0.000997
134 0.000925
141 0.000998
150 0.001006
168 0.000997
176 0.000998
131 0.002009
77 0.000998
49 0.000998
48 0.000993
62 0.0
89 0.0
111 0.0
133 0.0
143 0.0
143 0.0
134 0.0
132 0.0
138 0.0
145 0.0
155 0.0
166 0.000997
176 0.000997
146 0.000997
88 0.000997
54 0.000997
45 0.0
55 0.0
93 0.0
119 0.0
147 0.0
154 0.0
151 0.0
143 0.0
138 0.0
141 0.0
148 0.000961
157 0.0
167 0.0
178 0.0
135 0.0
68 0.001042
51 0.0
56 0.0
82 0.001006
100 0.0
126 0.0
156 0.0
160 0.0
154 0.0
142 0.0
138 0.0
147 0.0
157 0.0
168 0.000968
179 0.003027
169 0.003025
92 0.0
54 0.0
43 0.0
53 0.002028
75 0.00199
112 0.0
138 0.001965
152 0.0
144 0.0
133 0.0
127 0.003022
130 0.00303
138 0.0
151 0.000967
162 0.0
158 0.002986
105 0.002022
43 0.0
28 0.001008
48 0.001014
73 0.0
99 0.0
123 0.001989
135 0.003029
127 0.0
117 0.0
114 0.0
117 0.003003
126 0.002041
140 0.0
151 0.000997
114 0.000981
57 0.0
26 0.00095
22 0.003041
35 0.003038
63 0.0
87 0.0
112 0.0
125 0.002995
123 0.00301
113 0.001012
109 0.003017
118 0.000998
124 0.017951
138 0.0
150 0.001994
138 0.001994
62 0.000965
25 0.0
18 0.001021
31 0.002989
51 0.002959
80 0.000994
108 0.002031
117 0.0
112 0.0
106 0.0
105 0.003024
110 0.003023
123 0.0
136 0.0
147 0.0
149 0.002993
103 0.003029
36 0.0
19 0.002035
35 0.0
56 0.0
78 0.0
102 0.002028
116 0.00219
118 0.001004
114 0.000999
111 0.001002
113 0.003026
120 0.002979
131 0.003025
153 0.003024
166 0.003042
141 0.0
83 0.001027
47 0.001
41 0.003026
53 0.003025
80 0.00095
100 0.000999
119 0.0
129 0.002028
129 0.002025
121 0.001969
121 0.002993
129 0.0
137 0.0
147 0.0
158 0.002992
168 0.002993
137 0.0
81 0.0
47 0.0
44 0.002993
57 0.003023
96 0.00304
120 0.002997
141 0.0
141 0.003058
132 0.001001
127 0.003023
128 0.003009
136 0.002962
146 0.000998
157 0.0
165 0.003986
147 0.003971
66 0.00399
47 0.00399
55 0.0
74 0.0
98 0.002973
123 0.003991
142 0.003003
143 0.00299
134 0.001992
127 0.002047
128 0.002994
135 0.003001
153 0.003978
165 0.003991
146 0.001999
92 0.001993
54 0.00299
45 0.003959
55 0.004035
81 0.002991
105 0.001983
130 0.002993
142 0.003056
142 0.003024
129 0.003997
130 0.004038
137 0.002991
147 0.002003
159 0.002992
168 0.004022
144 0.004029
74 0.003005
45 0.002996
43 0.003002
60 0.003992
96 0.001995
120 0.004019
138 0.005021
141 0.00298
135 0.0
130 0.002998
131 0.004023
137 0.00402
151 0.001993
162 0.002992
174 0.001982
161 0.002991
69 0.002026
44 0.002993
45 0.003989
61 0.004986
89 0.001993
111 0.003004
131 0.002975
141 0.004987
139 0.005032
131 0.002996
130 0.003001
136 0.002996
151 0.002993
163 0.002992
174 0.003986
177 0.004987
113 0.00299
62 0.001986
43 0.00202
50 0.005016
68 0.004989
95 0.002986
117 0.002992
136 0.003003
143 0.003986
138 0.00399
134 0.00502
135 0.004987
144 0.00197
155 0.0
167 0.002992
179 0.004976
188 0.004948
139 0.003023
80 0.002993
50 0.001973
58 0.002978
78 0.002033
101 0.005018
125 0.004987
148 0.003007
149 0.002954
146 0.002971
141 0.005984
140 0.006017
149 0.002994
159 0.00303
169 0.001995
189 0.002027
192 0.002977
149 0.004985
88 0.004986
55 0.002992
60 0.002938
79 0.002956
102 0.006015
129 0.005984
160 0.002989
164 0.002962
159 0.002992
147 0.001994
148 0.002982
154 0.005984
164 0.006014
180 0.002963
191 0.003968
199 0.004008
168 0.006121
105 0.00598
59 0.002983
59 0.002994
77 0.002988
122 0.003005
150 0.002974
167 0.006035
166 0.006022
153 0.002988
146 0.002994
145 0.002988
152 0.005992
162 0.006979
172 0.00699
186 0.00399
186 0.003024
93 0.002953
57 0.002992
50 0.004053
64 0.005984
87 0.006019
122 0.002977
149 0.003984
162 0.003974
158 0.006992
148 0.006996
140 0.004
143 0.003956
157 0.004005
168 0.003995
179 0.003912
170 0.006015
112 0.005984
51 0.004009
42 0.004987
54 0.004004
75 0.006984
99 0.006342
135 0.003022
152 0.006982
147 0.004989
140 0.004987
137 0.003996
142 0.006982
149 0.007014
163 0.003989
176 0.003996
175 0.003976
123 0.007938
66 0.006981
36 0.003989
49 0.007011
79 0.003958
106 0.004998
131 0.004988
145 0.007971
142 0.007971
135 0.003989
130 0.003958
132 0.004988
140 0.006987
151 0.006979
167 0.004022
172 0.00798
99 0.004974
51 0.004968
36 0.004991
49 0.007986
72 0.007974
96 0.004985
121 0.004988
140 0.005014
146 0.007971
142 0.007981
133 0.003994
134 0.007017
144 0.004973
156 0.003994
168 0.004989
180 0.007944
165 0.007979
87 0.004985
50 0.004995
44 0.004994
65 0.007975
80 0.007976
115 0.004982
151 0.006974
155 0.005974
150 0.00515
143 0.005991
142 0.007971
149 0.007961
159 0.006981
172 0.005006
185 0.004984
194 0.00498
157 0.006992
98 0.00698
62 0.007011
72 0.006985
94 0.00599
118 0.005985
145 0.006011
168 0.006983
170 0.006941
163 0.004951
156 0.005974
155 0.004993
163 0.006959
173 0.00701
192 0.006981
201 0.006979
184 0.005024
128 0.004998
89 0.005973
78 0.007035
93 0.007978
118 0.005945
145 0.005966
170 0.005983
185 0.006981
177 0.007106
160 0.005983
157 0.005953
165 0.005985
172 0.006015
183 0.006018
196 0.006982
181 0.006983
126 0.005978
84 0.005986
71 0.005972
86 0.006993
108 0.006981
150 0.005984
168 0.006948
172 0.00598
159 0.005965
151 0.005983
152 0.00601
157 0.006002
169 0.005033
180 0.004988
185 0.005908
158 0.006028
92 0.005985
66 0.006949
72 0.005984
97 0.005989
120 0.006937
145 0.005952
160 0.005953
162 0.005986
152 0.005988
146 0.005981
148 0.006012
153 0.005956
169 0.005976
179 0.006001
169 0.006015
100 0.005991
66 0.005942
59 0.006026
70 0.006038
89 0.004989
121 0.005971
143 0.005945
155 0.006001
153 0.006032
140 0.005949
140 0.006014
144 0.005981
156 0.005992
169 0.005953
177 0.004954
158 0.004947
106 0.005018
69 0.004993
59 0.005989
67 0.005982
92 0.004979
129 0.004986
147 0.004987
150 0.005987
145 0.005023
136 0.004994
136 0.004933
141 0.005023
149 0.004952
161 0.004975
173 0.004986
154 0.004976
102 0.005993
57 0.005973
64 0.004979
81 0.004989
103 0.004987
135 0.00499
150 0.004951
153 0.00499
147 0.004957
140 0.004942
139 0.004987
147 0.00499
157 0.004988
174 0.004954
164 0.004988
115 0.003988
74 0.00402
60 0.004952
74 0.004953
97 0.004985
121 0.004987
145 0.004989
160 0.004991
157 0.00502
149 0.004983
144 0.004987
151 0.004985
161 0.003991
172 0.004027
177 0.003989
138 0.003952
89 0.003956
64 0.004029
65 0.003992
90 0.004991
115 0.003959
141 0.00399
165 0.004956
160 0.005007
151 0.004987
145 0.003991
147 0.004036
155 0.003973
166 0.004018
175 0.004026
170 0.004027
106 0.003981
70 0.003946
63 0.003982
88 0.004989
113 0.003006
139 0.003993
159 0.002993
166 0.003027
158 0.004932
149 0.004994
147 0.004033
