151 0.014991
156 0.000999
129 0.000997
45 0.000997
7 0.000992
9 0.00099
21 0.000943
44 0.000996
53 0.000968
69 0.00097
76 0.001005
78 0.000999
77 0.0
79 0.001009
89 0.000997
101 0.002036
117 0.0
127 0.001032
137 0.000999
152 0.000963
160 0.001002
168 0.001948
156 0.001994
64 0.000998
42 0.000998
38 0.001011
54 0.000999
68 0.001006
79 0.000997
93 0.000997
102 0.000998
102 0.001998
101 0.001004
102 0.000999
110 0.001993
120 0.001996
136 0.000997
142 0.000997
150 0.000997
162 0.001002
168 0.001029
174 0.001995
179 0.000957
141 0.000986
73 0.00099
48 0.000997
51 0.00198
61 0.001995
74 0.000999
79 0.001
85 0.000996
95 0.001033
100 0.001
99 0.001005
99 0.001013
107 0.000997
117 0.002038
129 0.000998
139 0.001995
147 0.001996
157 0.000998
164 0.001006
170 0.000998
175 0.002998
181 0.001994
189 0.001994
179 0.000997
88 0.000997
60 0.001035
60 0.001996
74 0.002035
83 0.001951
86 0.000946
93 0.001031
99 0.000983
104 0.002022
106 0.001952
106 0.00096
110 0.000993
124 0.000999
134 0.000998
141 0.002022
152 0.001952
160 0.001971
166 0.002003
172 0.002034
178 0.002031
184 0.00196
190 0.001999
195 0.001995
194 0.002061
91 0.001996
67 0.001985
71 0.002002
88 0.002001
97 0.001994
104 0.001961
112 0.00104
119 0.001966
121 0.001985
120 0.002981
118 0.002036
125 0.001994
135 0.002044
146 0.00202
154 0.001973
163 0.001991
171 0.002008
176 0.001979
182 0.001984
188 0.001021
193 0.001999
197 0.003001
149 0.001974
92 0.001949
81 0.002031
93 0.001996
103 0.001996
118 0.001955
125 0.002008
132 0.002032
136 0.001024
133 0.000997
130 0.003991
139 0.000998
143 0.00299
153 0.001995
166 0.001993
173 0.001994
178 0.001995
185 0.001995
191 0.001985
194 0.001994
198 0.001982
205 0.001011
195 0.003035
124 0.002982
78 0.001997
77 0.001991
95 0.002029
102 0.001986
107 0.001995
112 0.002009
118 0.001999
123 0.001997
121 0.001994
121 0.001995
124 0.002991
131 0.002995
144 0.001996
152 0.00199
164 0.001964
172 0.002006
178 0.002016
183 0.002988
189 0.00399
195 0.001988
199 0.002955
175 0.002992
101 0.002993
68 0.002992
66 0.002947
74 0.002992
92 0.001994
97 0.001986
103 0.001995
110 0.002994
113 0.002992
114 0.002031
114 0.001995
119 0.002026
128 0.002993
137 0.003947
144 0.002992
153 0.002979
163 0.002958
171 0.002958
177 0.001986
184 0.002993
187 0.003057
193 0.002022
156 0.002993
86 0.002994
62 0.003947
64 0.003957
76 0.002996
87 0.002987
106 0.002993
112 0.002991
120 0.001989
120 0.002992
116 0.002991
117 0.002992
125 0.002993
133 0.003011
143 0.002992
151 0.002946
158 0.002992
168 0.002991
175 0.003986
182 0.002991
186 0.002962
188 0.002958
120 0.003001
66 0.002949
52 0.002988
58 0.003025
71 0.002962
85 0.003031
94 0.003985
108 0.002992
114 0.00303
111 0.002974
110 0.00297
116 0.003034
122 0.004042
131 0.004024
143 0.002956
150 0.002015
155 0.002997
164 0.00299
170 0.003953
176 0.003023
183 0.003957
117 0.002991
56 0.002992
38 0.003052
41 0.004023
51 0.003996
62 0.003981
72 0.002996
79 0.002978
87 0.003989
90 0.003982
89 0.002992
91 0.00399
101 0.002995
110 0.002992
120 0.002992
129 0.003991
137 0.003992
148 0.003988
153 0.004051
162 0.003035
169 0.003975
163 0.003963
70 0.003033
31 0.004032
38 0.002991
50 0.002978
61 0.003008
69 0.003934
78 0.004968
87 0.003991
89 0.00299
88 0.00399
89 0.003983
95 0.004001
108 0.002992
119 0.003981
132 0.003002
139 0.002965
147 0.002993
154 0.003949
162 0.004945
150 0.00396
85 0.003999
56 0.00399
47 0.003955
57 0.003988
70 0.004003
88 0.003969
100 0.004024
107 0.002994
102 0.003054
99 0.00399
101 0.003989
107 0.002997
117 0.00399
126 0.00403
135 0.004987
145 0.005014
152 0.003988
163 0.004971
168 0.003985
172 0.004012
131 0.003973
62 0.004034
50 0.003984
60 0.003972
71 0.003991
78 0.004002
85 0.004003
92 0.003989
101 0.004035
106 0.004043
105 0.002996
110 0.003042
118 0.004033
127 0.005036
132 0.005042
141 0.003974
147 0.00399
153 0.003998
159 0.004951
165 0.004987
167 0.004022
89 0.003989
52 0.004002
50 0.003941
56 0.004028
66 0.004977
71 0.004941
80 0.004026
87 0.00399
93 0.00399
94 0.005082
94 0.004987
100 0.003992
113 0.004988
130 0.00405
139 0.002991
147 0.003983
155 0.00498
162 0.004989
168 0.003984
174 0.003977
181 0.004986
169 0.004987
107 0.004998
66 0.004025
64 0.004994
76 0.003993
83 0.00403
86 0.00385
91 0.004984
94 0.005019
91 0.004019
87 0.004987
86 0.003968
89 0.004992
94 0.004979
107 0.004026
117 0.005021
126 0.003989
132 0.004005
138 0.003983
145 0.005954
149 0.004996
109 0.005001
61 0.004977
41 0.004981
44 0.004983
56 0.004979
67 0.004996
80 0.005003
90 0.00399
95 0.003989
95 0.004034
95 0.005999
99 0.005973
106 0.006001
118 0.004982
127 0.004969
137 0.004998
146 0.005019
155 0.004987
167 0.004983
175 0.004985
183 0.004016
180 0.003975
145 0.004986
72 0.005029
65 0.004979
72 0.005033
83 0.00502
90 0.004968
95 0.005981
101 0.005984
110 0.005985
108 0.005044
110 0.004005
110 0.004987
115 0.004986
122 0.005983
131 0.006296
138 0.005028
144 0.004983
151 0.005938
155 0.005986
159 0.006028
165 0.006029
168 0.006029
107 0.004983
55 0.005019
41 0.004992
46 0.006016
58 0.005944
72 0.005035
75 0.005016
88 0.005942
98 0.00498
102 0.006981
101 0.005018
106 0.006
117 0.00498
125 0.004976
130 0.005953
140 0.005958
146 0.005974
153 0.00498
158 0.004994
161 0.004978
167 0.005971
168 0.006032
87 0.006016
56 0.00699
58 0.00499
68 0.006013
89 0.005979
99 0.00602
107 0.005984
118 0.005005
119 0.004987
115 0.004967
114 0.005983
117 0.005984
139 0.006024
150 0.006939
164 0.004989
170 0.005976
176 0.005997
183 0.006942
190 0.006981
198 0.005107
200 0.005971
195 0.005947
116 0.006016
78 0.006005
72 0.006023
82 0.005978
93 0.00502
97 0.004993
104 0.004958
113 0.005989
118 0.006983
120 0.006027
123 0.005984
131 0.005984
140 0.006982
149 0.006981
160 0.007
162 0.005994
168 0.005019
169 0.005976
173 0.006974
177 0.005976
180 0.006947
124 0.005994
70 0.006022
55 0.005972
59 0.007015
71 0.007022
85 0.006992
91 0.006981
101 0.005026
106 0.005981
106 0.005964
104 0.005985
106 0.007019
114 0.005971
123 0.005982
131 0.006013
140 0.007014
146 0.007014
157 0.007027
162 0.006957
169 0.006008
169 0.005983
141 0.006952
69 0.00698
56 0.00699
61 0.006975
77 0.005978
88 0.005985
97 0.007007
109 0.006988
108 0.007019
107 0.006975
100 0.00595
104 0.006982
112 0.006949
121 0.006949
130 0.006983
137 0.006981
145 0.006973
152 0.006933
160 0.007014
165 0.007017
172 0.006979
124 0.006958
75 0.00603
71 0.00602
76 0.005986
84 0.007009
91 0.007954
98 0.005974
105 0.005989
113 0.006018
117 0.007978
118 0.007979
120 0.006979
124 0.00698
126 0.006975
138 0.005995
146 0.005986
154 0.006991
163 0.006991
175 0.006937
177 0.006009
164 0.007022
105 0.007979
69 0.00798
74 0.008023
84 0.007974
94 0.006976
98 0.006969
100 0.006982
106 0.006983
106 0.00799
106 0.007944
105 0.006958
107 0.006981
117 0.00602
128 0.007015
146 0.006003
151 0.007974
154 0.007953
152 0.007012
156 0.006962
160 0.006952
142 0.007975
86 0.007949
56 0.00698
64 0.006994
78 0.007001
92 0.006981
106 0.005986
113 0.007012
117 0.007979
113 0.00702
106 0.007014
104 0.007012
109 0.007951
117 0.00798
123 0.006998
128 0.007014
135 0.007013
143 0.007979
154 0.006015
164 0.007987
150 0.007979
85 0.006947
71 0.007963
75 0.006963
87 0.007969
99 0.007941
115 0.00701
123 0.006987
129 0.007021
128 0.007977
122 0.007008
121 0.007027
124 0.007016
129 0.007015
138 0.006941
147 0.006985
152 0.007979
160 0.007932
166 0.006991
173 0.007022
157 0.007015
96 0.007976
62 0.006014
76 0.007024
90 0.007013
99 0.006953
104 0.006937
112 0.006953
117 0.007979
120 0.007979
118 0.007
118 0.006947
125 0.006982
130 0.007013
138 0.006973
145 0.007125
152 0.006983
156 0.007022
161 0.006986
152 0.006981
95 0.007015
60 0.006981
63 0.007938
70 0.006977
80 0.007979
95 0.007978
108 0.006973
117 0.007962
122 0.00798
122 0.007022
124 0.007028
127 0.007011
135 0.007028
143 0.007029
153 0.006982
157 0.006981
163 0.007015
169 0.007014
176 0.006933
121 0.007969
86 0.007944
66 0.007014
80 0.007003
93 0.007014
104 0.007009
112 0.007015
127 0.007015
135 0.00698
131 0.007015
126 0.007022
126 0.006975
129 0.007978
139 0.007993
145 0.006982
151 0.007016
154 0.007016
159 0.006982
155 0.006977
75 0.006994
45 0.007021
44 0.006981
57 0.006968
80 0.007025
89 0.00698
101 0.007035
110 0.006992
105 0.007009
101 0.007013
100 0.007035
104 0.007018
113 0.006984
124 0.007013
132 0.006982
139 0.00702
145 0.006019
148 0.006022
104 0.005984
37 0.006978
29 0.006026
40 0.006988
54 0.006982
66 0.007028
78 0.006982
85 0.007017
94 0.007013
97 0.00698
96 0.007013
99 0.006953
107 0.007017
117 0.007025
127 0.007021
136 0.006984
143 0.006022
150 0.005986
159 0.005985
138 0.006016
76 0.006035
50 0.006008
56 0.006987
70 0.006985
80 0.007041
89 0.007029
99 0.006988
104 0.006973
103 0.007025
100 0.006941
102 0.006997
107 0.006019
114 0.005988
124 0.006028
138 0.006017
146 0.006021
152 0.005979
159 0.006981
140 0.007019
81 0.00698
53 0.007042
53 0.006982
65 0.007033
84 0.005993
93 0.006031
103 0.006074
115 0.005986
114 0.005955
111 0.005985
114 0.006018
123 0.006024
133 0.006019
144 0.005962
154 0.006983
161 0.006982
170 0.006035
176 0.005983
181 0.006023
159 0.005991
95 0.006022
68 0.005985
67 0.005988
79 0.005993
90 0.006018
97 0.006018
101 0.005985
108 0.005982
113 0.006029
110 0.006036
107 0.00602
112 0.006034
119 0.005984
128 0.006023
138 0.006019
148 0.006019
156 0.006014
161 0.006029
167 0.005984
172 0.005985
169 0.006023
104 0.00502
57 0.005991
50 0.006015
60 0.005986
72 0.005961
81 0.005984
88 0.005984
98 0.005987
99 0.005987
97 0.006015
95 0.00603
99 0.006032
105 0.006021
114 0.006015
130 0.006006
138 0.006023
145 0.005017
151 0.004989
159 0.004996
165 0.005023
168 0.006015
129 0.005987
67 0.005975
41 0.006015
47 0.00598
60 0.005985
80 0.006029
88 0.006005
99 0.00602
101 0.005026
95 0.005027
92 0.004995
93 0.005957
99 0.006016
109 0.00599
122 0.005983
131 0.006015
140 0.006015
153 0.00602
160 0.006016
164 0.005029
142 0.005022
54 0.005028
31 0.004988
33 0.004988
45 0.005042
57 0.004987
71 0.005037
81 0.006019
90 0.005041
90 0.005984
86 0.005022
87 0.005053
93 0.005021
105 0.005038
117 0.005031
128 0.004987
137 0.005023
146 0.004986
157 0.005034
163 0.004986
169 0.004984
165 0.004987
84 0.004957
33 0.00403
22 0.00502
32 0.00599
45 0.004991
56 0.005032
65 0.005033
74 0.00502
82 0.005023
83 0.005022
79 0.005011
83 0.004991
91 0.00503
103 0.004985
114 0.005017
129 0.005015
141 0.005047
149 0.004992
155 0.004988
163 0.00502
173 0.004987
179 0.004005
180 0.004022
71 0.004031
60 0.004953
71 0.005035
93 0.005029
125 0.004987
145 0.005067
161 0.004989
172 0.005013
176 0.004021
169 0.005029
167 0.004951
168 0.004007
174 0.004092
175 0.004022
177 0.00399
190 0.004023
204 0.004988
213 0.003989
225 0.004987
232 0.003991
236 0.003956
156 0.00499
118 0.005028
114 0.005039
123 0.005028
136 0.004944
143 0.003978
152 0.003992
157 0.00402
146 0.00399
136 0.004047
133 0.00399
135 0.004018
142 0.003992
153 0.004986
163 0.005037
176 0.005078
183 0.003989
188 0.005019
194 0.005038
200 0.005019
161 0.004977
116 0.004024
116 0.003989
131 0.004024
137 0.004008
144 0.004023
142 0.004026
140 0.003991
133 0.004031
121 0.004026
111 0.004987
105 0.003988
106 0.004028
112 0.004031
117 0.004034
123 0.00399
130 0.003991
139 0.004029
143 0.003946
152 0.004028
154 0.003991
90 0.004004
16 0.004016
0 0.003988
0 0.003988
0 0.00399
7 0.003998
16 0.004035
25 0.00399
35 0.004023
36 0.004022
33 0.003989
36 0.003988
44 0.002991
55 0.002991
67 0.003956
84 0.004025
94 0.002994
103 0.00299
113 0.003983
123 0.003697
134 0.004024
135 0.004036
13 0.003991
0 0.003991
0 0.003949
0 0.002948
9 0.002996
25 0.002992
36 0.002992
47 0.00296
49 0.002993
44 0.004044
42 0.004023
49 0.004036
68 0.004048
80 0.004066
91 0.003953
102 0.004022
114 0.003994
125 0.002995
135 0.002995
137 0.002992
71 0.002993
17 0.002993
6 0.00399
15 0.003999
41 0.002994
53 0.00403
65 0.003989
75 0.003022
77 0.002992
73 0.002992
75 0.004015
82 0.00301
91 0.002988
103 0.002993
119 0.002999
130 0.002994
145 0.003027
153 0.002953
161 0.003007
169 0.003983
155 0.004029
58 0.003947
29 0.003986
30 0.003986
41 0.002999
57 0.003034
71 0.002942
79 0.003024
84 0.002967
89 0.003043
92 0.003032
99 0.002962
113 0.002957
133 0.004025
149 0.002992
161 0.004025
175 0.002992
189 0.003032
200 0.003
208 0.00304
225 0.002986
214 0.003032
145 0.003037
111 0.002995
112 0.00304
135 0.003989
151 0.002959
163 0.003992
172 0.002988
182 0.001996
190 0.002956
194 0.002957
201 0.003007
206 0.00301
213 0.002994
220 0.002942
227 0.003083
237 0.003
248 0.002992
250 0.003029
251 0.00298
248 0.00303
226 0.002037
145 0.003041
112 0.001995
118 0.001995
112 0.002027
116 0.002977
121 0.003027
123 0.003023
119 0.002992
112 0.003
108 0.002951
109 0.001988
116 0.001995
125 0.002961
141 0.002995
149 0.003021
155 0.001992
161 0.002993
167 0.002992
174 0.002995
178 0.002996
134 0.002994
62 0.003026
33 0.00294
31 0.001995
44 0.00203
60 0.002028
68 0.002044
75 0.001995
81 0.002028
81 0.002019
78 0.002
81 0.001974
92 0.001996
94 0.002037
90 0.002993
82 0.002028
72 0.001995
68 0.001996
64 0.002031
64 0.002022
63 0.001995
66 0.000996
18 0.000991
29 0.001996
23 0.001996
29 0.001994
39 0.001995
48 0.002004
58 0.001989
67 0.002026
72 0.00199
74 0.001983
75 0.002025
77 0.002027
81 0.000997
90 0.002005
97 0.000997
103 0.000998
109 0.000987
114 0.000995
120 0.001995
126 0.001995
132 0.001969
126 0.001997
87 0.002019
66 0.00202
63 0.001995
69 0.001995
78 0.001996
85 0.00201
91 0.000997
97 0.000998
100 0.000998
95 0.000998
95 0.000999
98 0.000998
103 0.002032
109 0.002021
115 0.001985
122 0.001995
127 0.001995
132 0.00196
136 0.001946
138 0.00103
101 0.000998
67 0.001009
64 0.000997
70 0.000997
77 0.000998
83 0.001002
88 0.000996
95 0.000997
97 0.001046
96 0.00099
96 0.000998
98 0.001997
103 0.001995
112 0.001995
119 0.002039
125 0.001984
131 0.001031
135 0.000999
139 0.000991
146 0.000973
148 0.001005
118 0.00101
79 0.000998
65 0.000983
67 0.001004
76 0.001008
83 0.001965
88 0.001995
92 0.000997
96 0.000999
96 0.000993
96 0.000997
97 0.000998
101 0.000998
107 0.000996
114 0.000998
122 0.001995
130 0.001023
137 0.000997
142 0.001955
146 0.0
149 0.000967
153 0.000957
108 0.000998
76 0.00101
68 0.000998
72 0.000997
79 0.000997
89 0.000998
96 0.000998
104 0.000996
106 0.000999
105 0.000998
104 0.0
106 0.000998
112 0.000997
118 0.000998
125 0.000984
131 0.000997
137 0.000999
144 0.000997
150 0.001004
156 0.000997
158 0.000998
134 0.000995
93 0.000997
77 0.000997
79 0.000994
88 0.000998
96 0.000997
103 0.000997
111 0.0
118 0.0
116 0.0
112 0.0
113 0.0
118 0.000992
124 0.000983
131 0.000997
139 0.000998
145 0.000997
150 0.000997
163 0.0
169 0.0
146 0.0
72 0.0
52 0.0
57 0.0
69 0.0
79 0.0
87 0.0
97 0.0
106 0.0
106 0.000997
103 0.000969
103 0.001007
107 0.000993
121 0.000997
129 0.0
141 0.0
149 0.0
155 0.0
162 0.0
168 0.0
153 0.0
86 0.0
55 0.0
50 0.0
56 0.0
73 0.000998
80 0.000945
91 0.0
97 0.0
98 0.0
97 0.0
97 0.0
102 0.0
111 0.0
120 0.0
130 0.0
139 0.0
152 0.0
159 0.0
168 0.0
171 0.0
134 0.0
74 0.0
52 0.0
54 0.0
64 0.0
74 0.000999
82 0.0
91 0.0
101 0.000997
99 0.000999
97 0.0
100 0.0
107 0.0
115 0.0
127 0.0
136 0.00102
144 0.0
155 0.0
159 0.000998
166 0.0
126 0.0
66 0.0
58 0.0
64 0.000995
79 0.0
90 0.0
100 0.0
109 0.000999
113 0.001007
109 0.0
107 0.0
109 0.000997
119 0.000998
130 0.0
137 0.001043
145 0.001029
154 0.0
160 0.0
167 0.0
172 0.000999
167 0.001029
93 0.0
69 0.0
69 0.0
84 0.0
90 0.000956
98 0.000997
105 0.002028
111 0.000996
113 0.0
112 0.0
114 0.00203
118 0.001043
129 0.0
137 0.0
144 0.0
157 0.0
163 0.0
167 0.001029
172 0.001015
179 0.0
180 0.0
135 0.0
93 0.001026
82 0.000965
88 0.0
94 0.000997
105 0.0
113 0.0
120 0.0
123 0.000994
122 0.000969
121 0.0
124 0.0
130 0.0
137 0.000997
144 0.000998
152 0.0
159 0.0
165 0.0
172 0.0
176 0.000964
180 0.000998
184 0.001995
137 0.000997
100 0.0
92 0.001029
97 0.001019
106 0.001082
114 0.002061
122 0.0
129 0.0
132 0.0
128 0.0
127 0.001734
130 0.000998
136 0.0
143 0.001032
150 0.0
156 0.000993
161 0.000999
168 0.001003
173 0.001004
176 0.001007
166 0.001036
119 0.001001
95 0.001996
94 0.001972
102 0.001014
111 0.002054
118 0.000993
123 0.001032
128 0.001055
132 0.000998
130 0.001029
127 0.000999
132 0.0
139 0.000998
146 0.002033
152 0.001954
158 0.001996
166 0.000982
170 0.000991
174 0.000997
178 0.00103
181 0.001031
183 0.000997
140 0.001029
88 0.0
89 0.000953
96 0.000966
105 0.001996
110 0.001996
116 0.000999
121 0.000997
123 0.000968
123 0.002032
122 0.001997
123 0.000992
128 0.0
144 0.001055
153 0.00202
162 0.001004
169 0.002002
176 0.001952
183 0.000955
188 0.001002
193 0.000992
199 0.001995
202 0.002033
152 0.000996
88 0.000995
71 0.000997
80 0.001034
93 0.000997
104 0.002027
110 0.001995
119 0.000998
124 0.000995
121 0.001029
118 0.002992
118 0.001994
126 0.000988
134 0.001
150 0.000951
158 0.001032
166 0.000973
172 0.001996
178 0.002037
185 0.000998
189 0.001001
195 0.001027
181 0.002992
107 0.003034
67 0.001041
69 0.000942
90 0.000996
103 0.000989
113 0.001002
124 0.00299
130 0.003027
125 0.000986
121 0.001002
120 0.000991
124 0.001978
133 0.001956
145 0.000959
152 0.00098
166 0.000993
174 0.000966
180 0.001009
186 0.002992
190 0.001995
198 0.002034
199 0.001996
146 0.001996
74 0.002992
51 0.003023
56 0.000978
70 0.000993
90 0.001002
98 0.001966
107 0.000997
112 0.001996
111 0.002026
107 0.002024
108 0.002027
114 0.002026
124 0.002959
135 0.002986
147 0.001997
156 0.001989
169 0.001993
176 0.002024
181 0.002063
186 0.002992
191 0.003031
196 0.001044
148 0.001953
67 0.00099
42 0.002993
42 0.002992
59 0.00102
74 0.000997
92 0.000998
101 0.00201
107 0.000995
107 0.002992
103 0.003026
102 0.00203
109 0.001996
119 0.003027
129 0.002993
140 0.002992
153 0.000997
161 0.001011
172 0.00096
178 0.001961
184 0.001978
189 0.002946
194 0.002952
135 0.001997
59 0.001995
38 0.001987
44 0.003033
56 0.003032
75 0.002041
85 0.003027
103 0.002039
109 0.002029
110 0.001976
108 0.002982
108 0.002986
117 0.001989
128 0.002007
140 0.002038
150 0.003026
158 0.014961
172 0.00199
177 0.002995
188 0.001996
191 0.002012
142 0.002042
65 0.00402
40 0.004021
48 0.001991
63 0.001963
80 0.001986
97 0.003045
112 0.003034
126 0.00299
127 0.002042
114 0.00193
115 0.003029
122 0.003026
132 0.003944
142 0.004022
156 0.002025
165 0.002024
172 0.002001
179 0.002992
185 0.002992
138 0.001964
56 0.00195
21 0.001997
31 0.003028
45 0.003031
59 0.003989
73 0.003989
91 0.001988
97 0.002992
95 0.002023
88 0.002031
88 0.003993
94 0.002991
109 0.001944
124 0.003998
141 0.002019
150 0.002011
159 0.002992
167 0.004036
175 0.00399
180 0.003018
108 0.003028
32 0.00204
7 0.005022
8 0.003989
25 0.002029
42 0.003989
53 0.003002
65 0.001949
72 0.003023
73 0.003984
71 0.003983
75 0.002994
84 0.003026
96 0.00296
108 0.003953
122 0.003989
139 0.002991
153 0.003976
164 0.002992
173 0.003026
180 0.002031
163 0.003987
66 0.003993
9 0.003025
8 0.003035
20 0.00299
37 0.003989
49 0.003988
63 0.002955
77 0.003956
79 0.002971
77 0.003037
77 0.003016
84 0.004047
95 0.003989
114 0.004023
126 0.002987
139 0.002979
151 0.004986
162 0.004987
172 0.00298
183 0.00399
190 0.002981
130 0.00202
47 0.002976
18 0.00399
20 0.003968
41 0.002985
58 0.002992
72 0.00299
87 0.00499
97 0.004968
95 0.00404
87 0.004969
90 0.004021
100 0.002982
112 0.002974
126 0.004939
140 0.004987
155 0.002989
167 0.002994
175 0.003005
184 0.004026
191 0.003989
144 0.002992
36 0.004987
14 0.003977
21 0.002981
37 0.00402
51 0.004987
62 0.004986
79 0.003005
88 0.00299
88 0.003004
86 0.004027
86 0.003986
98 0.002986
116 0.004995
135 0.004027
147 0.004021
159 0.002996
170 0.004982
179 0.004986
191 0.004027
198 0.003013
204 0.002999
209 0.005984
140 0.004987
34 0.002991
17 0.005046
30 0.00399
46 0.004023
57 0.004028
66 0.00504
78 0.004972
88 0.003951
88 0.002996
88 0.003025
92 0.005035
101 0.005017
119 0.003042
139 0.005984
156 0.003988
168 0.002996
178 0.003984
186 0.004986
194 0.004953
205 0.004032
211 0.003022
217 0.004035
185 0.004979
82 0.004993
28 0.004034
33 0.005984
55 0.004023
71 0.003994
84 0.003991
98 0.004987
107 0.004987
105 0.003995
99 0.004025
100 0.00399
108 0.005985
121 0.005985
139 0.005039
157 0.005984
173 0.00402
181 0.003989
189 0.003954
197 0.005062
205 0.006021
213 0.003953
200 0.00401
100 0.004
39 0.005039
27 0.004982
41 0.003997
64 0.004972
84 0.004037
99 0.00502
112 0.003988
118 0.005951
119 0.005985
116 0.004038
123 0.004034
134 0.003982
146 0.004987
158 0.004986
170 0.004986
186 0.005032
194 0.005984
204 0.00396
211 0.003958
219 0.003955
224 0.004984
229 0.00595
229 0.004015
132 0.00499
49 0.004987
25 0.005984
29 0.00594
55 0.004987
69 0.005018
86 0.004989
99 0.004
108 0.004996
111 0.006022
109 0.00605
113 0.004983
123 0.005016
135 0.005019
148 0.005973
160 0.005984
177 0.006024
185 0.006035
195 0.003992
202 0.003995
209 0.005005
215 0.00602
221 0.005984
229 0.00499
221 0.004993
120 0.005031
45 0.00603
25 0.005984
43 0.005984
61 0.005975
83 0.004941
99 0.00499
112 0.004945
122 0.006017
126 0.006974
125 0.00499
128 0.004985
137 0.004999
147 0.006017
158 0.006
175 0.005954
183 0.006018
194 0.004979
201 0.00505
208 0.004997
214 0.007013
220 0.005984
212 0.004979
112 0.004993
42 0.00499
26 0.006018
35 0.005984
66 0.005948
85 0.005983
108 0.005021
122 0.004981
129 0.00602
134 0.007024
133 0.006973
140 0.004926
149 0.004978
159 0.00498
167 0.006012
176 0.006035
189 0.006019
197 0.006016
205 0.005958
211 0.006016
217 0.006015
223 0.007016
225 0.006982
120 0.005014
37 0.005018
13 0.005011
18 0.007026
35 0.006075
63 0.007017
78 0.005983
96 0.004994
106 0.005031
108 0.005001
107 0.007015
109 0.006976
121 0.006016
132 0.005018
143 0.005018
154 0.006986
164 0.006985
178 0.006981
185 0.006994
195 0.004974
202 0.004983
209 0.00598
214 0.006981
196 0.006963
55 0.005958
11 0.006018
7 0.006035
21 0.006978
38 0.007014
64 0.007033
78 0.00798
95 0.005948
101 0.005983
101 0.00599
103 0.007015
109 0.006981
124 0.006018
136 0.006027
147 0.006023
158 0.00702
166 0.006955
180 0.006951
187 0.007029
197 0.005018
203 0.005998
209 0.005978
213 0.00701
173 0.007979
43 0.006014
14 0.005984
17 0.005976
33 0.006981
52 0.007017
81 0.006983
98 0.006997
112 0.006963
114 0.005034
111 0.006031
112 0.007979
117 0.006981
132 0.006972
144 0.005984
155 0.005967
164 0.007978
176 0.00798
188 0.007982
194 0.007979
201 0.005983
206 0.005956
172 0.005949
66 0.006986
16 0.006981
13 0.005988
29 0.005954
48 0.00697
74 0.007988
86 0.00698
109 0.006981
114 0.006981
113 0.006008
116 0.00598
124 0.005996
133 0.007996
149 0.007977
158 0.006005
166 0.005971
175 0.005985
184 0.007979
191 0.007971
202 0.005976
209 0.007978
211 0.006982
107 0.006
25 0.006015
0 0.005985
4 0.007979
20 0.007978
40 0.006975
53 0.006981
68 0.006981
79 0.008011
85 0.006953
82 0.007978
85 0.007979
97 0.006018
111 0.007017
124 0.005987
142 0.007965
150 0.007977
161 0.005966
170 0.005994
178 0.006977
187 0.007987
197 0.006982
191 0.00801
92 0.007979
6 0.007016
0 0.007032
7 0.005985
29 0.007943
39 0.007978
56 0.006022
68 0.005986
78 0.00599
79 0.007007
78 0.006946
87 0.007051
95 0.007979
113 0.00697
126 0.006972
139 0.006975
150 0.007978
159 0.00797
173 0.006996
180 0.007011
187 0.005981
198 0.007963
205 0.00696
130 0.006983
38 0.007981
9 0.006969
14 0.006917
25 0.006979
48 0.006965
63 0.006982
76 0.006982
88 0.007006
93 0.00701
92 0.007979
92 0.006982
104 0.007977
118 0.007015
136 0.006995
147 0.006969
158 0.007015
168 0.007015
175 0.007011
182 0.00698
189 0.006973
198 0.006972
204 0.007925
166 0.00698
62 0.007966
11 0.007015
12 0.006982
27 0.00599
51 0.006978
70 0.007017
88 0.007022
107 0.006991
111 0.006948
110 0.006963
109 0.006989
120 0.006978
132 0.00696
147 0.00603
160 0.007014
165 0.00696
177 0.003971
187 0.007012
194 0.00799
205 0.006975
213 0.006967
206 0.006987
109 0.007017
16 0.006977
15 0.006981
28 0.007012
51 0.006963
60 0.006977
74 0.006979
91 0.007033
100 0.00703
103 0.006962
103 0.003989
107 0.006991
121 0.007028
142 0.007019
153 0.007016
163 0.007014
176 0.006946
184 0.006961
190 0.00694
198 0.006982
206 0.007024
212 0.006989
135 0.00697
46 0.005998
17 0.006019
28 0.007017
47 0.007016
62 0.007019
82 0.006941
96 0.007002
107 0.006938
112 0.007024
115 0.007029
117 0.006985
129 0.005974
141 0.005984
152 0.006028
170 0.006949
177 0.006983
187 0.007013
198 0.006983
204 0.00695
211 0.006931
216 0.006984
183 0.005947
52 0.006971
21 0.00602
24 0.005985
39 0.006029
71 0.006016
89 0.006948
106 0.006992
119 0.006951
124 0.006995
125 0.006949
127 0.006982
135 0.006181
149 0.005998
159 0.005983
168 0.005985
178 0.006021
191 0.007046
199 0.005987
206 0.007027
215 0.006982
214 0.006983
123 0.006023
38 0.00705
12 0.007013
21 0.006014
37 0.005972
53 0.005986
67 0.006036
92 0.006033
101 0.006035
104 0.005981
102 0.00695
107 0.006959
116 0.006992
129 0.006938
140 0.006981
151 0.006
164 0.006044
174 0.005988
182 0.005984
194 0.006015
200 0.005984
206 0.006949
212 0.006013
131 0.006928
40 0.006016
11 0.005982
12 0.007015
27 0.00604
48 0.006023
61 0.00598
74 0.005984
89 0.006015
90 0.006017
88 0.006022
90 0.00597
102 0.006015
113 0.005943
127 0.006011
140 0.006949
151 0.006017
164 0.006972
173 0.00496
179 0.005996
192 0.006047
198 0.006047
205 0.006019
210 0.00602
125 0.006032
41 0.006019
14 0.006019
18 0.005997
32 0.006024
56 0.005941
69 0.005982
82 0.004988
98 0.005986
99 0.006039
97 0.006038
97 0.006016
108 0.006031
121 0.005985
134 0.006016
146 0.006033
156 0.005027
169 0.004988
177 0.005031
184 0.004978
196 0.005047
202 0.005023
209 0.006009
211 0.005989
119 0.006016
44 0.006018
24 0.005998
28 0.006006
46 0.005017
70 0.005053
87 0.004987
103 0.004986
117 0.00502
115 0.005986
109 0.006027
109 0.005033
122 0.006023
133 0.006025
144 0.005995
156 0.006018
165 0.00497
176 0.004988
185 0.003988
191 0.004987
204 0.005021
207 0.005025
158 0.004958
59 0.005175
18 0.005943
21 0.005022
37 0.005019
55 0.005996
70 0.006
91 0.005995
103 0.005019
108 0.005044
103 0.005015
105 0.004988
113 0.005033
124 0.005018
141 0.005034
151 0.004981
161 0.004988
171 0.005019
179 0.005026
189 0.005981
196 0.005005
202 0.00495
210 0.004988
162 0.004986
59 0.005044
19 0.005021
17 0.004985
33 0.004037
51 0.00502
64 0.004987
75 0.004989
92 0.005036
94 0.003989
92 0.00402
92 0.004021
100 0.005026
111 0.004987
125 0.005021
141 0.005019
153 0.005024
163 0.004981
172 0.005007
179 0.004987
189 0.005022
196 0.003992
201 0.004985
207 0.003998
131 0.00402
48 0.004023
23 0.004027
33 0.004035
50 0.00399
67 0.004989
80 0.005027
95 0.004988
107 0.004985
106 0.003987
101 0.004976
100 0.003984
109 0.004033
121 0.004033
134 0.004021
151 0.003991
161 0.004027
170 0.003951
178 0.004016
186 0.004007
194 0.005001
201 0.004985
188 0.005002
50 0.005028
29 0.00499
35 0.005036
51 0.004027
77 0.004027
93 0.00399
109 0.004
120 0.00403
124 0.00399
115 0.003991
112 0.004037
118 0.003986
137 0.004988
149 0.004989
158 0.005037
169 0.004028
180 0.004025
187 0.004023
194 0.004021
201 0.004003
207 0.004028
209 0.00399
105 0.003955
37 0.003979
22 0.003991
37 0.004027
54 0.004031
69 0.002993
81 0.00399
97 0.00399
101 0.00402
98 0.00399
94 0.004026
97 0.004035
110 0.003997
123 0.004001
143 0.003991
155 0.003999
166 0.003951
175 0.003961
182 0.004016
192 0.003989
199 0.003949
205 0.003991
198 0.004033
99 0.002984
20 0.003948
13 0.003037
35 0.002998
51 0.002992
63 0.00399
75 0.00399
85 0.004049
89 0.003989
85 0.00399
84 0.003976
90 0.004024
103 0.004035
121 0.003954
135 0.004022
155 0.002993
165 0.002992
174 0.002992
181 0.003034
189 0.004027
199 0.004022
205 0.004023
210 0.003978
168 0.004021
65 0.004024
17 0.002937
21 0.003051
48 0.002976
64 0.003031
77 0.003016
90 0.002956
99 0.002992
94 0.003989
88 0.003989
89 0.003949
99 0.003992
112 0.003958
130 0.003957
144 0.00399
163 0.003003
173 0.004025
181 0.003964
189 0.004019
197 0.002992
205 0.002992
199 0.002992
103 0.002992
34 0.003991
17 0.002992
32 0.003986
51 0.004017
79 0.00399
95 0.00399
109 0.002021
114 0.003993
111 0.003989
107 0.002993
113 0.002044
124 0.003977
138 0.002993
149 0.002992
166 0.003026
175 0.002993
189 0.003023
196 0.003039
203 0.002993
211 0.002988
217 0.003023
216 0.003025
119 0.002992
38 0.002991
15 0.002962
21 0.00399
44 0.002999
62 0.002952
84 0.002993
97 0.002992
104 0.00304
103 0.002992
99 0.002991
106 0.00301
116 0.002994
128 0.002942
142 0.003022
154 0.003053
168 0.002957
178 0.002955
191 0.004037
199 0.002037
205 0.001996
212 0.001996
218 0.001996
166 0.001958
59 0.002945
20 0.002992
18 0.001955
32 0.001995
58 0.002025
75 0.001941
98 0.002992
107 0.002989
109 0.002999
102 0.002992
100 0.002938
109 0.002986
122 0.002983
135 0.002987
149 0.003038
160 0.002992
173 0.002997
182 0.00299
195 0.002996
201 0.001964
206 0.002
164 0.002
64 0.001995
20 0.002033
26 0.002028
44 0.002025
64 0.002025
82 0.001869
105 0.002974
117 0.002949
117 0.00306
112 0.002993
114 0.002992
123 0.002027
134 0.001996
151 0.002029
163 0.002029
171 0.002024
181 0.002026
188 0.001995
197 0.001996
204 0.001996
213 0.001995
177 0.000951
70 0.003019
25 0.002036
18 0.001995
30 0.001996
54 0.001997
67 0.002027
80 0.00203
93 0.001995
100 0.001993
95 0.001991
93 0.00198
101 0.001995
113 0.001995
127 0.001032
139 0.002958
152 0.001997
164 0.002028
173 0.002028
181 0.001984
188 0.002026
195 0.00199
203 0.002042
176 0.001995
52 0.001999
21 0.002001
23 0.002048
38 0.002036
57 0.002045
73 0.000993
88 0.000999
98 0.002042
101 0.001996
98 0.002029
94 0.001997
101 0.001984
118 0.001027
133 0.001995
144 0.002005
156 0.002039
168 0.001
180 0.000967
187 0.00101
195 0.000997
200 0.00104
155 0.002001
48 0.001996
26 0.002004
45 0.001995
63 0.001995
82 0.00098
98 0.000998
113 0.000997
118 0.000998
111 0.000999
104 0.000999
106 0.000997
118 0.000997
136 0.000997
152 0.001996
167 0.001995
177 0.002052
186 0.000998
193 0.000998
204 0.000998
209 0.000997
131 0.002034
48 0.001005
18 0.000997
21 0.002048
44 0.002057
76 0.001013
101 0.001043
119 0.001952
133 0.001966
142 0.00105
150 0.001029
161 0.000998
170 0.000998
179 0.000998
188 0.000998
197 0.000999
207 0.000997
216 0.000997
223 0.000997
191 0.000997
235 0.00196
231 0.002003
169 0.000997
71 0.00199
66 0.002014
82 0.002029
103 0.001029
118 0.002004
135 0.000964
149 0.000998
160 0.001011
167 0.000999
174 0.000998
181 0.000994
189 0.000997
198 0.000997
205 0.002025
211 0.0
217 0.001061
222 0.0
228 0.000957
233 0.001039
238 0.001002
223 0.000997
130 0.000992
67 0.0
61 0.000997
82 0.000996
100 0.001029
114 0.000998
127 0.000998
137 0.001951
148 0.002035
157 0.000997
166 0.0
173 0.000982
181 0.0
188 0.0
194 0.000998
202 0.000997
207 0.001002
212 0.000997
216 0.000998
220 0.000982
174 0.000997
59 0.000997
45 0.0
64 0.0
83 0.0
98 0.0
111 0.0
129 0.0
137 0.000997
144 0.001
150 0.000997
158 0.000997
169 0.000998
179 0.000998
186 0.0
193 0.0
199 0.0
203 0.0
207 0.0
214 0.0
218 0.0
205 0.000997
101 0.001019
29 0.000998
22 0.0
48 0.0
72 0.0
87 0.0
99 0.0
110 0.0
119 0.0
130 0.0
138 0.0
147 0.0
155 0.0
164 0.000997
173 0.0
181 0.0
187 0.0
195 0.0
199 0.0
204 0.0
208 0.0
214 0.0
163 0.0
50 0.0
12 0.000996
17 0.0
36 0.0
67 0.0
82 0.0
102 0.0
114 0.0
123 0.0
132 0.0
140 0.000998
151 0.0
160 0.0
167 0.000954
174 0.000997
180 0.001007
190 0.001028
195 0.000997
201 0.000998
207 0.0
211 0.0
196 0.0
64 0.0
23 0.0
27 0.0
45 0.000979
63 0.0
80 0.000997
109 0.000997
121 0.000998
133 0.000998
141 0.000997
150 0.0
161 0.0
172 0.0
181 0.001999
189 0.000999
200 0.001013
205 0.000943
212 0.001001
197 0.0
198 0.0
120 0.002045
1 0.000998
0 0.0
0 0.000954
0 0.0
0 0.000998
3 0.001044
30 0.0
44 0.0
49 0.0
46 0.0
50 0.0
62 0.00204
75 0.001992
92 0.0
106 0.0
116 0.001013
126 0.000992
136 0.00103
146 0.000999
156 0.001016
165 0.0
56 0.0
0 0.0
0 0.002034
0 0.002032
0 0.0
5 0.0
20 0.001046
36 0.001017
48 0.001018
54 0.000992
52 0.000996
50 0.000998
70 0.000997
85 0.0
99 0.002007
112 0.002027
129 0.0
138 0.0
147 0.0
156 0.002044
166 0.001996
163 0.0
65 0.0
0 0.0
52 0.0
61 0.0
70 0.002022
79 0.002029
90 0.0
96 0.001007
100 0.0
100 0.002001
99 0.001994
102 0.0
109 0.0
115 0.0
127 0.0
133 0.0
138 0.002024
143 0.00103
149 0.000961
154 0.0
157 0.000987
144 0.002029
91 0.001996
64 0.0
65 0.0
74 0.0
91 0.0
101 0.0
109 0.001038
115 0.001034
114 0.0
112 0.0
112 0.000987
116 0.001994
123 0.001995
132 0.0
138 0.0
143 0.0
151 0.0
156 0.000958
160 0.001992
155 0.002026
90 0.0
69 0.0
67 0.0
74 0.000999
85 0.001002
98 0.0
107 0.0
115 0.0
120 0.0
119 0.0
119 0.001042
122 0.001031
130 0.0
136 0.0
142 0.0
147 0.001993
151 0.001996
157 0.0
161 0.0
165 0.0
157 0.0
100 0.0
70 0.002004
64 0.001984
73 0.0
82 0.0
89 0.0
97 0.001964
105 0.001966
111 0.0
111 0.0
111 0.000998
115 0.0
121 0.0
128 0.002031
135 0.001995
141 0.002
148 0.0
153 0.0
157 0.002046
161 0.001994
165 0.003012
170 0.000969
165 0.002012
83 0.000998
67 0.00103
68 0.0
77 0.003048
87 0.003026
98 0.0
106 0.002003
113 0.0
118 0.002981
118 0.002971
118 0.001999
121 0.002006
131 0.001965
137 0.000997
142 0.001043
148 0.002045
153 0.002001
159 0.000987
163 0.000988
167 0.000997
170 0.001997
173 0.001997
173 0.000997
124 0.000986
74 0.00102
75 0.000989
84 0.001992
95 0.002959
104 0.003009
116 0.001994
123 0.001994
126 0.001012
126 0.001992
125 0.002053
127 0.000984
133 0.000968
143 0.001013
148 0.000994
153 0.000955
157 0.003014
161 0.002995
167 0.001941
169 0.001992
157 0.001995
103 0.002993
75 0.003007
72 0.001991
81 0.001945
99 0.001994
108 0.002016
117 0.001975
123 0.001996
127 0.001952
128 0.000998
129 0.001992
134 0.001993
140 0.002006
145 0.003039
151 0.001995
156 0.002001
163 0.000998
166 0.00099
170 0.002
173 0.002926
177 0.003
148 0.001995
91 0.00201
69 0.001
67 0.002001
75 0.002993
89 0.000954
97 0.001027
110 0.000984
116 0.000988
118 0.000987
118 0.002994
119 0.003009
125 0.001994
131 0.002
137 0.001952
142 0.002992
147 0.002983
154 0.00098
158 0.001997
164 0.001993
167 0.002031
171 0.001035
173 0.003002
152 0.003003
82 0.00098
68 0.001993
70 0.002011
79 0.002987
90 0.003952
102 0.001032
110 0.002007
120 0.001991
122 0.002
122 0.002963
122 0.002981
126 0.003002
135 0.000992
140 0.001998
146 0.001999
151 0.002986
155 0.00299
160 0.001991
164 0.001997
170 0.001009
173 0.001031
172 0.001005
128 0.002989
84 0.002982
73 0.000992
79 0.001031
90 0.001988
101 0.002993
111 0.003949
122 0.002
127 0.002021
128 0.001993
128 0.001961
131 0.001028
135 0.004024
141 0.004007
148 0.001997
153 0.001016
157 0.001994
162 0.002971
165 0.002992
169 0.000999
172 0.001037
174 0.002001
129 0.001965
81 0.001953
66 0.002989
68 0.003
80 0.001995
90 0.001966
99 0.002025
107 0.003982
114 0.003989
118 0.001995
119 0.001983
120 0.001984
125 0.00203
132 0.001995
138 0.003986
144 0.003991
150 0.002028
154 0.001955
158 0.001952
162 0.003972
165 0.003981
170 0.002008
173 0.001994
141 0.001997
85 0.001993
66 0.001986
66 0.002973
74 0.00399
88 0.002986
97 0.001961
105 0.001968
112 0.001976
116 0.004007
118 0.003988
118 0.002959
123 0.003989
131 0.003021
137 0.002975
143 0.003027
148 0.003951
153 0.003989
158 0.00299
162 0.001986
166 0.002013
169 0.003997
173 0.004009
159 0.001998
88 0.00399
69 0.001994
73 0.001995
83 0.002981
94 0.004988
104 0.00499
116 0.002964
122 0.001994
125 0.002976
126 0.004993
126 0.003993
130 0.002993
137 0.004064
145 0.001982
150 0.001995
153 0.001988
158 0.003988
162 0.003987
166 0.002996
170 0.002987
170 0.002971
134 0.004988
86 0.004991
72 0.001994
80 0.003992
96 0.003023
106 0.002961
115 0.002009
122 0.004958
127 0.00399
128 0.002029
128 0.002994
131 0.001955
136 0.00502
141 0.004988
148 0.002987
154 0.004987
160 0.002988
163 0.002045
167 0.001971
171 0.003965
172 0.004988
121 0.001983
76 0.002981
63 0.002992
66 0.004986
75 0.004987
89 0.003004
100 0.004987
110 0.002992
115 0.002986
117 0.002993
117 0.004026
119 0.003988
126 0.003957
132 0.003997
137 0.002996
143 0.004922
149 0.004958
154 0.002991
160 0.004987
165 0.00298
168 0.003001
144 0.002026
87 0.004984
64 0.004992
64 0.002993
73 0.004003
83 0.002996
92 0.004987
102 0.004932
111 0.00299
116 0.004956
117 0.001993
119 0.001944
124 0.002984
130 0.004988
136 0.00502
144 0.002994
148 0.003966
153 0.003022
158 0.004982
162 0.004943
166 0.00296
170 0.004987
128 0.002948
81 0.002993
67 0.003011
70 0.004986
80 0.004991
94 0.002992
104 0.004001
113 0.003024
119 0.004962
122 0.004987
121 0.002952
122 0.004986
128 0.00299
135 0.00401
140 0.003989
146 0.004985
151 0.005998
157 0.003993
161 0.003973
165 0.002996
169 0.005985
169 0.004993
110 0.002989
71 0.004992
71 0.002978
81 0.002981
91 0.002995
102 0.004982
111 0.005016
120 0.003996
124 0.003996
123 0.003992
123 0.005974
126 0.005995
134 0.002985
141 0.006023
148 0.003997
153 0.004002
157 0.002995
162 0.004995
165 0.005999
170 0.003995
173 0.004011
176 0.003972
179 0.005989
175 0.005987
100 0.003977
67 0.005996
69 0.002978
79 0.004953
87 0.003958
94 0.005952
100 0.006008
107 0.003958
110 0.003954
111 0.003996
113 0.005983
118 0.005942
127 0.003989
137 0.005985
146 0.004008
152 0.003993
156 0.002999
161 0.006003
165 0.005985
170 0.004008
173 0.003996
177 0.002931
180 0.004007
183 0.005984
186 0.005992
147 0.005992
95 0.00596
74 0.004004
77 0.003979
86 0.003985
95 0.007027
103 0.006983
113 0.004994
118 0.004982
121 0.005153
122 0.005987
122 0.006004
129 0.005984
135 0.005953
143 0.00399
149 0.003999
154 0.004001
158 0.006982
162 0.006981
167 0.004944
170 0.004988
174 0.004982
177 0.006991
180 0.006965
180 0.006936
135 0.006982
81 0.004982
74 0.003988
80 0.003956
90 0.00598
100 0.005971
112 0.004031
120 0.004019
125 0.003993
128 0.005986
128 0.006018
130 0.005984
135 0.005979
142 0.004983
147 0.00499
152 0.004982
156 0.006977
160 0.006999
165 0.004987
168 0.004018
171 0.003931
174 0.005951
172 0.005957
95 0.005953
76 0.006937
79 0.004989
89 0.004987
100 0.004026
109 0.00698
118 0.006985
126 0.004983
130 0.004035
130 0.005004
131 0.006967
134 0.007012
142 0.005982
147 0.006017
153 0.004988
157 0.005997
160 0.004986
164 0.006984
168 0.007014
171 0.004022
173 0.005007
141 0.004995
87 0.00698
67 0.007015
69 0.005995
79 0.00594
91 0.005004
99 0.006
108 0.004955
113 0.006982
115 0.006983
115 0.004986
117 0.00499
121 0.004991
127 0.007003
132 0.006975
142 0.006989
147 0.006971
152 0.005985
156 0.004956
160 0.004986
164 0.00695
162 0.006985
96 0.004971
65 0.00595
59 0.004985
64 0.006989
74 0.007011
91 0.007956
96 0.007978
105 0.005988
109 0.005931
110 0.005986
110 0.007957
112 0.00801
121 0.004985
127 0.004986
133 0.004987
139 0.007967
144 0.007014
152 0.00599
156 0.007012
161 0.004975
165 0.005004
166 0.004991
111 0.007972
75 0.007944
65 0.004987
69 0.004984
79 0.004966
88 0.006982
97 0.006981
111 0.007979
116 0.007026
116 0.004969
114 0.005997
115 0.005983
120 0.007977
126 0.007978
135 0.005934
141 0.004974
146 0.004974
151 0.006969
155 0.007024
163 0.007969
165 0.007019
143 0.006003
92 0.005992
71 0.005985
70 0.006983
81 0.007968
92 0.005978
102 0.005039
111 0.004041
119 0.007024
122 0.007978
120 0.007015
121 0.007988
126 0.005985
132 0.005952
138 0.005981
145 0.007964
150 0.007977
155 0.00501
159 0.005977
163 0.00499
167 0.006988
170 0.00702
158 0.007988
87 0.007992
66 0.006021
65 0.005999
72 0.005987
84 0.007978
88 0.006989
98 0.005975
105 0.005982
108 0.00403
108 0.00694
108 0.008024
113 0.005984
121 0.00795
126 0.00797
135 0.00599
142 0.005968
147 0.005971
153 0.007966
158 0.007973
162 0.005018
166 0.004983
170 0.005951
164 0.007016
92 0.005968
64 0.008007
64 0.007993
74 0.00695
83 0.004989
91 0.005975
98 0.007973
108 0.007011
111 0.005988
112 0.004986
111 0.006028
115 0.00798
124 0.005929
134 0.00698
140 0.007994
146 0.005988
151 0.005053
156 0.006031
160 0.007978
166 0.007961
169 0.006002
173 0.005023
173 0.006979
127 0.006981
78 0.006023
73 0.006986
81 0.007835
91 0.005961
100 0.005963
109 0.005995
119 0.007969
123 0.007978
124 0.006974
122 0.005985
123 0.00698
129 0.007015
138 0.006015
146 0.006977
151 0.007005
156 0.005985
160 0.005992
165 0.005985
169 0.007931
172 0.007977
176 0.006982
166 0.006954
109 0.006978
75 0.007016
76 0.006976
90 0.006982
100 0.006977
113 0.00699
118 0.006032
125 0.006015
128 0.006982
127 0.006949
129 0.005985
132 0.005955
138 0.006975
146 0.007034
153 0.006039
159 0.007018
164 0.006971
167 0.006949
171 0.00602
175 0.006976
178 0.006943
182 0.006995
178 0.005998
124 0.006009
80 0.006969
67 0.007027
79 0.005976
88 0.006981
96 0.006981
106 0.006976
111 0.00693
116 0.006029
118 0.005984
118 0.006981
121 0.006952
129 0.006968
133 0.006965
141 0.007039
149 0.006967
155 0.006984
159 0.006014
164 0.005972
168 0.006989
170 0.00695
175 0.006993
176 0.007024
117 0.006017
86 0.00697
68 0.006984
69 0.007017
83 0.006968
95 0.007012
105 0.005979
115 0.005984
120 0.005989
122 0.006011
123 0.005986
125 0.005956
132 0.006947
136 0.006936
144 0.006957
150 0.006982
157 0.00598
162 0.006981
165 0.006988
170 0.006021
173 0.005985
177 0.005984
179 0.006017
182 0.006016
165 0.005976
105 0.005977
77 0.006977
73 0.00705
83 0.00698
99 0.007012
109 0.005972
120 0.006014
126 0.005979
129 0.006018
129 0.005983
129 0.005981
134 0.005961
139 0.005975
143 0.006979
149 0.006968
156 0.006014
161 0.006019
164 0.005985
169 0.005981
172 0.005957
173 0.00598
143 0.006021
90 0.006053
68 0.005979
71 0.006981
81 0.006984
92 0.006953
107 0.004992
115 0.006016
121 0.006017
124 0.00601
124 0.005973
126 0.005987
131 0.005979
136 0.005987
143 0.005989
148 0.005985
153 0.006969
157 0.006977
163 0.005981
167 0.005979
170 0.005031
173 0.004985
169 0.005983
112 0.005956
72 0.005955
61 0.005985
64 0.006036
76 0.005986
86 0.006028
93 0.006931
105 0.005953
109 0.005947
110 0.005977
109 0.004992
111 0.004989
117 0.004951
124 0.004992
130 0.005019
136 0.004988
144 0.004934
148 0.005988
152 0.005991
158 0.005969
163 0.005984
166 0.004987
167 0.006011
109 0.005983
71 0.004987
60 0.004987
64 0.004987
73 0.004986
84 0.005021
92 0.004952
100 0.004986
108 0.005034
107 0.006001
105 0.005934
107 0.005979
115 0.005983
121 0.005971
128 0.005979
135 0.005021
140 0.004986
148 0.004983
152 0.004987
156 0.005014
163 0.004989
166 0.00497
168 0.004981
139 0.004985
78 0.005989
67 0.00598
70 0.004962
80 0.00497
90 0.004983
101 0.004986
110 0.004648
116 0.005071
113 0.005005
111 0.004987
112 0.004959
118 0.00499
126 0.004986
133 0.004989
140 0.004986
145 0.004981
150 0.004991
156 0.004979
160 0.004985
164 0.005022
157 0.004993
105 0.004977
75 0.00601
68 0.004985
76 0.005001
86 0.004957
96 0.004994
105 0.004978
114 0.004967
118 0.006037
116 0.006049
115 0.004988
116 0.004943
122 0.004988
130 0.00399
137 0.003991
145 0.003991
151 0.004987
155 0.003986
159 0.004
163 0.005021
168 0.004988
171 0.005018
172 0.004972
96 0.00495
69 0.004997
63 0.004987
68 0.004989
81 0.004988
88 0.004992
94 0.004969
101 0.003988
105 0.003984
105 0.003999
104 0.004021
106 0.003992
116 0.003963
123 0.005
130 0.004982
137 0.005003
145 0.004982
150 0.004949
155 0.004988
159 0.004985
163 0.00399
168 0.005
171 0.003989
154 0.003991
75 0.003991
65 0.003991
67 0.004993
77 0.004975
88 0.004988
95 0.004987
104 0.003948
110 0.004995
112 0.004949
111 0.003991
113 0.00393
117 0.004044
128 0.003986
135 0.00399
142 0.003983
148 0.003943
154 0.003939
159 0.003959
164 0.003949
167 0.004987
170 0.004986
173 0.004024
141 0.003992
90 0.003955
71 0.003936
78 0.003997
89 0.003996
99 0.005027
110 0.00399
119 0.003936
122 0.004005
122 0.003994
118 0.005069
118 0.003883
123 0.002994
130 0.002992
141 0.004997
147 0.00395
153 0.00403
157 0.004025
163 0.003961
167 0.00396
170 0.003956
168 0.003992
119 0.004046
82 0.003991
72 0.004032
79 0.003991
96 0.00499
105 0.003958
114 0.003991
121 0.003958
125 0.002994
123 0.003952
122 0.002954
125 0.004011
131 0.003992
137 0.004064
145 0.004001
150 0.004031
159 0.00399
162 0.00399
167 0.004031
169 0.004002
173 0.003007
167 0.003988
110 0.002959
77 0.00299
69 0.002993
74 0.003025
86 0.004001
94 0.00399
107 0.002994
114 0.003009
116 0.004052
116 0.003973
115 0.003027
118 0.00299
124 0.002991
131 0.002954
138 0.00296
143 0.003027
151 0.002999
155 0.002989
162 0.003967
166 0.003953
170 0.003984
173 0.003953
165 0.003989
93 0.003946
72 0.003946
71 0.003937
79 0.002992
89 0.002992
101 0.003027
109 0.002989
120 0.00299
123 0.002989
123 0.003984
122 0.003034
125 0.003955
133 0.003954
139 0.003039
145 0.003996
150 0.002994
155 0.00299
161 0.00305
165 0.002991
171 0.002992
175 0.002992
169 0.003058
115 0.002991
81 0.002242
76 0.003025
84 0.00295
95 0.003929
106 0.00304
116 0.002993
126 0.004034
131 0.001993
132 0.003446
132 0.002993
135 0.00297
140 0.003033
145 0.001995
152 0.002993
157 0.002999
161 0.003001
165 0.002993
169 0.003031
174 0.002993
176 0.003016
111 0.002992
77 0.002993
70 0.002993
76 0.002992
86 0.001957
100 0.002966
110 0.001995
118 0.003023
125 0.002992
128 0.002033
128 0.002994
130 0.00201
137 0.001957
143 0.002041
148 0.001995
154 0.002041
158 0.002028
164 0.002857
167 0.002991
171 0.002988
174 0.003027
177 0.001995
148 0.002026
88 0.002034
64 0.001986
70 0.002047
81 0.001998
91 0.00202
100 0.00303
111 0.002992
118 0.001995
121 0.002936
122 0.003029
123 0.002991
128 0.003034
134 0.002992
143 0.002025
149 0.00198
154 0.001991
158 0.00203
162 0.003052
167 0.001854
171 0.001996
174 0.002043
170 0.002009
116 0.002033
69 0.001991
65 0.00197
80 0.002031
91 0.001966
102 0.002024
111 0.003044
118 0.001989
124 0.001994
126 0.001962
127 0.001995
131 0.002042
136 0.002036
143 0.002006
149 0.002053
157 0.001999
162 0.001961
166 0.000996
170 0.000997
173 0.002018
177 0.002041
172 0.001943
116 0.001996
78 0.001996
70 0.002029
76 0.002043
91 0.000997
105 0.00203
118 0.001997
124 0.000937
129 0.001994
130 0.000998
131 0.001039
134 0.000998
140 0.002033
146 0.001998
151 0.002043
157 0.002033
164 0.002058
168 0.002002
173 0.002017
174 0.001026
146 0.000997
90 0.000999
69 0.001
71 0.000997
82 0.000997
94 0.002033
105 0.002028
115 0.001995
124 0.001995
129 0.001995
131 0.000998
134 0.000997
138 0.000998
144 0.000998
149 0.00103
156 0.002005
160 0.000997
164 0.001961
168 0.002028
171 0.001964
175 0.001998
137 0.001995
71 0.001996
59 0.00095
63 0.000953
74 0.000966
84 0.000964
97 0.001006
106 0.001001
113 0.000998
118 0.000998
120 0.000997
121 0.001994
128 0.00204
136 0.002033
142 0.001012
148 0.0
152 0.000997
157 0.001035
162 0.000998
166 0.000998
170 0.001031
169 0.0
121 0.001995
66 0.001977
60 0.001977
72 0.002
83 0.00098
92 0.000994
101 0.0
109 0.001995
116 0.000997
118 0.0
119 0.001012
122 0.000998
128 0.0
137 0.000999
144 0.000999
152 0.001004
157 0.000997
161 0.000987
164 0.000998
169 0.000997
161 0.000998
104 0.0
71 0.000997
64 0.0
69 0.0
84 0.0
98 0.0
111 0.0
118 0.0
121 0.0
121 0.0
120 0.0
125 0.000997
131 0.0
137 0.000998
143 0.000998
148 0.0
155 0.000997
161 0.0
166 0.0
157 0.0
101 0.0
69 0.0
63 0.0
73 0.0
84 0.0
94 0.0
104 0.000997
113 0.000998
119 0.001001
120 0.0
120 0.0
124 0.0
130 0.0
137 0.0
142 0.000998
150 0.0
155 0.0
158 0.0
163 0.0
166 0.000998
170 0.0
112 0.0
66 0.0
62 0.0
68 0.0
77 0.0
86 0.0
96 0.0
103 0.000998
108 0.000997
110 0.000998
108 0.000997
110 0.0
118 0.0
128 0.0
134 0.0
140 0.0
146 0.0
151 0.0
157 0.00096
161 0.002023
165 0.0
163 0.0
113 0.0
69 0.000982
66 0.000999
75 0.000999
88 0.000997
96 0.002975
107 0.0
113 0.00099
115 0.0
114 0.0
114 0.001987
118 0.0
124 0.0
132 0.0
143 0.0
149 0.0
153 0.002037
158 0.002029
164 0.0
167 0.0
170 0.0
146 0.002028
94 0.002958
74 0.0
77 0.0
87 0.0
104 0.000969
113 0.001012
122 0.002028
126 0.001961
122 0.000993
119 0.000963
120 0.000961
124 0.002033
131 0.003042
141 0.0
146 0.000963
151 0.0
159 0.0
163 0.0
167 0.001993
169 0.002026
115 0.0
84 0.0
78 0.0
82 0.001994
92 0.002033
105 0.0
115 0.001001
123 0.0
128 0.0
126 0.000964
123 0.002019
124 0.002029
131 0.0
138 0.000998
144 0.0
149 0.00198
154 0.001995
160 0.0
164 0.0
168 0.0
173 0.0
172 0.000992
123 0.002992
85 0.003024
76 0.0
81 0.0
90 0.0
98 0.00204
105 0.002032
114 0.0
119 0.0
120 0.0
117 0.001006
120 0.000993
126 0.003032
132 0.001991
142 0.0
147 0.000964
153 0.0
157 0.002041
161 0.002028
166 0.000998
170 0.0
173 0.0
115 0.0
83 0.0
76 0.002011
81 0.001999
94 0.0
102 0.0
110 0.0
118 0.001962
123 0.001991
125 0.0
123 0.0
122 0.000957
131 0.0
137 0.0
147 0.002991
155 0.002982
164 0.0
169 0.0
174 0.0
179 0.002031
184 0.002026
189 0.0
184 0.001007
120 0.0
67 0.0
69 0.000991
81 0.002991
95 0.002996
111 0.000997
122 0.000997
130 0.0
135 0.002022
134 0.00196
130 0.000997
132 0.000984
138 0.0
150 0.001014
157 0.0
164 0.002039
169 0.001996
175 0.0
180 0.0
184 0.000968
187 0.002023
177 0.002022
94 0.0
70 0.0
71 0.0
91 0.001047
106 0.0
118 0.002993
129 0.001986
138 0.0
140 0.001007
137 0.0
136 0.001961
140 0.002995
148 0.0
154 0.0
160 0.0
170 0.0
174 0.0
179 0.001997
183 0.001984
185 0.00203
119 0.0
71 0.0
59 0.0
64 0.002027
77 0.002026
95 0.0
107 0.0
124 0.0
130 0.0
130 0.000996
128 0.001967
130 0.002027
137 0.0
145 0.0
152 0.0
158 0.002028
163 0.001963
171 0.0
175 0.0
182 0.000989
186 0.000977
166 0.000965
91 0.001994
56 0.002991
51 0.0
62 0.000963
75 0.0
87 0.002991
98 0.002996
111 0.002001
117 0.001991
117 0.0
117 0.0
122 0.0
130 0.002992
137 0.003026
147 0.0
154 0.0
161 0.0
166 0.002025
171 0.002993
178 0.002046
183 0.002004
145 0.0
75 0.001993
50 0.0
50 0.00199
60 0.002996
79 0.00299
91 0.001993
102 0.002994
112 0.003002
118 0.003004
120 0.0
121 0.002039
129 0.0
137 0.001992
144 0.001994
151 0.003038
158 0.003043
166 0.001988
171 0.001991
176 0.002001
180 0.002998
185 0.003025
189 0.002996
162 0.001995
63 0.0
54 0.002005
62 0.003995
75 0.003023
90 0.002993
107 0.002001
118 0.001986
125 0.002002
129 0.002992
129 0.002994
131 0.001958
136 0.001995
149 0.002041
155 0.001998
161 0.00299
167 0.003969
173 0.003995
179 0.001993
183 0.002007
187 0.001992
172 0.002991
101 0.002987
60 0.001995
61 0.001993
83 0.002994
98 0.002997
112 0.001999
123 0.004021
130 0.003947
136 0.002963
137 0.001993
139 0.00199
144 0.003948
150 0.004019
159 0.00198
164 0.001996
173 0.001987
178 0.002989
183 0.003021
187 0.003023
189 0.003022
142 0.002988
73 0.001997
49 0.002033
50 0.003989
61 0.004022
80 0.002024
93 0.001996
112 0.001992
119 0.001996
123 0.001994
123 0.00299
125 0.00299
134 0.002002
141 0.001995
147 0.001996
154 0.003966
161 0.004022
167 0.001955
173 0.002028
181 0.001988
185 0.002032
172 0.001991
94 0.002991
50 0.003989
41 0.00299
51 0.001995
64 0.00296
76 0.003989
88 0.004027
101 0.001991
107 0.003005
111 0.002984
112 0.001992
118 0.002995
125 0.004001
134 0.003989
144 0.002942
150 0.001994
157 0.001964
163 0.003993
168 0.003985
175 0.001984
180 0.001993
131 0.002003
66 0.002018
44 0.002997
46 0.003959
58 0.00399
75 0.002028
88 0.002001
100 0.002005
110 0.004019
115 0.004039
117 0.001963
117 0.001998
127 0.002992
135 0.002997
143 0.003995
151 0.002031
158 0.003989
163 0.005033
171 0.002008
176 0.002988
180 0.001989
184 0.005017
188 0.005017
142 0.001994
64 0.003933
51 0.002046
61 0.002
76 0.001993
89 0.00399
102 0.003989
117 0.002987
123 0.001969
126 0.00199
127 0.005002
130 0.004987
139 0.001998
149 0.004947
157 0.001996
164 0.001992
169 0.002999
174 0.003989
179 0.004045
184 0.003
188 0.002961
191 0.001995
195 0.005018
199 0.00502
204 0.001984
191 0.004953
84 0.001997
51 0.002011
48 0.001995
57 0.004028
71 0.004937
88 0.001995
99 0.002005
109 0.002995
115 0.004987
119 0.004959
121 0.002993
127 0.004987
137 0.002993
144 0.002991
151 0.002985
158 0.004986
164 0.004996
170 0.001963
174 0.002999
179 0.00299
184 0.004987
187 0.005024
193 0.001997
196 0.005004
202 0.001954
201 0.003007
159 0.002977
78 0.005034
48 0.005026
50 0.002992
63 0.002987
77 0.002985
90 0.005021
102 0.005042
113 0.003032
120 0.00596
125 0.002035
130 0.003029
137 0.002961
144 0.004962
150 0.005019
158 0.002989
163 0.002986
169 0.002999
172 0.004987
176 0.004987
182 0.003009
188 0.004985
192 0.001997
195 0.00298
199 0.002977
203 0.005984
199 0.005984
117 0.003005
62 0.002988
49 0.003985
56 0.004987
70 0.004982
88 0.002992
104 0.004988
115 0.002991
121 0.003987
126 0.004004
130 0.006028
135 0.005985
143 0.002976
149 0.002955
155 0.002948
161 0.004987
166 0.004989
172 0.002981
177 0.004991
182 0.001966
185 0.003958
189 0.003999
191 0.005986
190 0.006022
127 0.002971
71 0.002993
56 0.002
63 0.005984
76 0.00502
94 0.002973
109 0.004987
121 0.003016
126 0.003006
130 0.002983
134 0.00503
139 0.005994
146 0.004003
152 0.003988
158 0.003988
163 0.005984
167 0.005997
174 0.002998
178 0.006018
183 0.003001
185 0.002998
168 0.002988
92 0.005025
49 0.005987
43 0.003986
54 0.003954
67 0.003984
80 0.005985
92 0.005984
105 0.002989
113 0.005979
118 0.002961
122 0.002981
128 0.002994
135 0.005973
141 0.005986
150 0.003008
155 0.003999
160 0.003037
164 0.007013
169 0.007014
174 0.003974
176 0.005975
100 0.003981
42 0.003986
27 0.003982
30 0.005982
42 0.006018
60 0.002973
72 0.003252
83 0.00399
92 0.005939
98 0.00699
100 0.003972
104 0.00696
111 0.006982
120 0.004003
128 0.003992
135 0.004011
141 0.005984
147 0.006016
153 0.003957
159 0.002948
164 0.004
161 0.005984
99 0.006015
27 0.005982
24 0.007034
39 0.004029
51 0.003985
63 0.003983
75 0.005972
84 0.006946
91 0.004004
91 0.004005
92 0.003968
95 0.005985
103 0.005984
118 0.006981
126 0.006982
136 0.003988
143 0.004012
149 0.004034
154 0.00695
159 0.006986
164 0.003998
137 0.002993
68 0.003989
37 0.005963
34 0.006949
52 0.006034
64 0.006985
80 0.002985
92 0.004987
98 0.003963
98 0.006981
93 0.007013
93 0.003991
100 0.003991
108 0.004029
118 0.005984
127 0.006982
140 0.005985
146 0.006949
154 0.004994
161 0.004979
159 0.00495
100 0.00702
51 0.006981
35 0.004028
42 0.003993
53 0.003979
64 0.007013
75 0.006978
93 0.007961
93 0.007983
90 0.004957
90 0.004956
94 0.003968
102 0.006981
112 0.006982
125 0.003995
133 0.004043
141 0.003989
148 0.007015
154 0.007021
163 0.00698
169 0.006981
158 0.003986
87 0.004987
45 0.004982
34 0.006987
38 0.007189
51 0.004996
59 0.004985
65 0.004945
75 0.006981
80 0.007024
81 0.006981
83 0.007981
89 0.004032
97 0.005003
107 0.004952
118 0.006983
129 0.006981
139 0.003988
147 0.004988
154 0.003983
162 0.00794
167 0.007974
174 0.007014
180 0.006982
140 0.00402
72 0.005028
46 0.004998
43 0.00702
51 0.006987
64 0.004999
71 0.005025
79 0.004992
90 0.007944
92 0.007981
92 0.007978
93 0.008011
101 0.00499
111 0.004988
121 0.004999
132 0.007013
141 0.006981
152 0.004978
159 0.005995
165 0.004995
170 0.007979
176 0.007979
184 0.007978
190 0.008022
189 0.004978
128 0.004955
73 0.004989
57 0.006981
59 0.00698
75 0.004977
86 0.005987
96 0.004977
110 0.007986
114 0.007987
109 0.00798
107 0.00798
111 0.004991
120 0.004998
129 0.00504
140 0.008003
152 0.007945
159 0.00498
166 0.004968
171 0.004984
178 0.007994
183 0.007978
190 0.007998
194 0.007981
151 0.005982
85 0.005989
61 0.005956
63 0.007978
71 0.00799
87 0.004994
99 0.006017
110 0.005952
120 0.007979
125 0.00698
121 0.007004
124 0.007954
131 0.005965
140 0.005969
148 0.004996
158 0.007973
165 0.00796
172 0.005018
177 0.005021
182 0.005036
188 0.00795
193 0.007927
200 0.006961
203 0.007979
206 0.005982
165 0.005985
89 0.005995
56 0.007982
59 0.007966
71 0.005989
84 0.004982
94 0.006021
105 0.005953
118 0.007007
123 0.005964
125 0.007949
126 0.007009
132 0.004988
139 0.005993
148 0.005994
158 0.007961
164 0.007937
170 0.006023
176 0.00594
180 0.005996
187 0.00698
193 0.005993
198 0.006948
202 0.008019
200 0.005992
143 0.005983
77 0.005008
57 0.007978
64 0.007949
78 0.005995
92 0.00598
104 0.005985
119 0.006969
131 0.006928
135 0.006982
137 0.007982
141 0.006025
147 0.006952
155 0.006944
163 0.007016
169 0.00695
174 0.006971
179 0.005995
184 0.005971
189 0.00703
195 0.005989
200 0.007002
201 0.006963
169 0.005951
94 0.005995
65 0.005017
66 0.006982
79 0.006981
95 0.005983
108 0.006983
121 0.005984
131 0.006982
138 0.005967
142 0.007044
146 0.007997
151 0.005981
157 0.005978
163 0.005998
172 0.007036
176 0.006982
181 0.006982
185 0.006991
189 0.006981
193 0.007024
195 0.005981
146 0.007036
75 0.007046
49 0.005961
52 0.005965
65 0.005998
84 0.006951
97 0.005941
113 0.005955
120 0.006981
124 0.006982
130 0.007019
133 0.006014
141 0.006975
147 0.006985
154 0.005984
160 0.005989
166 0.005984
173 0.006984
178 0.006996
183 0.006019
187 0.006003
189 0.006939
190 0.006014
104 0.00595
43 0.006951
38 0.006981
48 0.005985
63 0.00599
80 0.006974
92 0.007033
104 0.006984
111 0.005977
116 0.005974
118 0.006981
123 0.005983
131 0.006982
140 0.006972
148 0.006951
155 0.006983
163 0.006959
166 0.005966
173 0.006983
177 0.006008
184 0.005941
185 0.005946
147 0.006945
70 0.005978
39 0.006964
46 0.006053
61 0.007017
79 0.006989
88 0.006982
100 0.006019
112 0.006971
117 0.008019
120 0.005983
123 0.005968
129 0.005983
137 0.005997
146 0.006969
155 0.006997
161 0.006982
166 0.005988
172 0.007013
176 0.006983
182 0.006016
184 0.005988
123 0.00695
61 0.005988
44 0.005984
48 0.005974
72 0.006983
87 0.007019
100 0.006029
111 0.006979
120 0.006982
123 0.005958
123 0.004942
126 0.005986
135 0.006019
141 0.005995
149 0.006017
156 0.006019
166 0.006969
171 0.007001
175 0.007011
180 0.006971
184 0.006949
160 0.005986
79 0.004987
42 0.005984
38 0.00599
51 0.005992
66 0.005984
78 0.005984
99 0.005986
107 0.006982
112 0.007037
114 0.006948
116 0.006024
122 0.005966
130 0.005986
138 0.005985
147 0.005997
154 0.004985
160 0.004986
166 0.004965
174 0.006006
180 0.005993
190 0.005985
172 0.006035
72 0.006013
46 0.005953
44 0.004987
51 0.005933
62 0.006043
76 0.006027
87 0.005033
98 0.004977
107 0.005001
112 0.004967
121 0.00502
134 0.00498
156 0.005985
177 0.005997
197 0.005993
216 0.005019
233 0.005988
253 0.005962
254 0.006017
254 0.005976
254 0.004987
253 0.004984
183 0.004988
143 0.006044
127 0.006
131 0.005957
136 0.004978
137 0.004988
139 0.004985
139 0.00499
136 0.004982
128 0.004987
113 0.004986
112 0.004969
113 0.00502
119 0.006021
128 0.004953
132 0.004974
135 0.004985
143 0.005019
149 0.004961
158 0.004025
161 0.004983
129 0.004953
50 0.005029
42 0.004989
52 0.004986
69 0.005031
94 0.005044
111 0.005023
124 0.004989
134 0.004988
140 0.004989
146 0.004944
152 0.004986
159 0.004982
169 0.004985
174 0.004989
180 0.004988
185 0.005045
191 0.004977
195 0.004975
199 0.004986
201 0.00502
191 0.00501
107 0.004059
73 0.004957
72 0.004999
83 0.004984
103 0.004986
113 0.005029
123 0.004989
132 0.005031
137 0.005007
143 0.004993
148 0.004981
154 0.00399
163 0.004987
169 0.004987
174 0.004952
179 0.00395
187 0.004981
191 0.003942
194 0.004989
199 0.00501
199 0.004987
170 0.004988
98 0.004953
67 0.004987
71 0.004986
83 0.003991
95 0.004988
105 0.003961
120 0.004011
127 0.003995
132 0.004039
139 0.004986
145 0.005008
151 0.004016
156 0.00399
162 0.004987
169 0.004988
173 0.004996
177 0.004959
182 0.003971
188 0.003987
192 0.004042
192 0.004005
162 0.00398
93 0.003989
65 0.003956
68 0.00399
80 0.003989
94 0.003961
105 0.003956
114 0.004945
120 0.004986
129 0.003992
133 0.003989
139 0.00399
146 0.003998
151 0.00399
157 0.004035
162 0.00399
166 0.00399
172 0.003969
175 0.005007
179 0.003958
181 0.003992
133 0.003941
74 0.004026
62 0.003956
73 0.003993
86 0.003991
97 0.003924
106 0.003956
114 0.003992
121 0.003946
126 0.003959
129 0.003949
134 0.004001
142 0.003953
147 0.004031
152 0.004043
156 0.004002
160 0.004007
164 0.003991
167 0.004003
169 0.002991
174 0.004004
176 0.002998
167 0.002991
102 0.004009
64 0.002992
73 0.003001
86 0.002992
101 0.004038
109 0.00399
116 0.004029
121 0.004023
125 0.003957
130 0.003989
133 0.003957
138 0.003989
142 0.004033
149 0.003988
153 0.002988
156 0.003992
158 0.002992
162 0.003981
165 0.002985
166 0.003024
169 0.003047
169 0.002954
113 0.003986
76 0.002995
75 0.002993
95 0.003989
107 0.003963
115 0.004002
122 0.003001
130 0.003985
132 0.003003
136 0.003048
138 0.002994
142 0.002985
146 0.003023
150 0.003018
152 0.004015
158 0.004043
160 0.004018
162 0.003957
165 0.002992
167 0.004045
169 0.003954
169 0.002996
149 0.004168
96 0.002993
84 0.003989
95 0.003953
109 0.003956
124 0.003958
131 0.002994
136 0.002992
139 0.003043
141 0.003025
143 0.002997
146 0.001994
149 0.003029
152 0.002961
157 0.001971
159 0.002996
161 0.002998
165 0.001995
166 0.002992
168 0.002992
167 0.002945
118 0.003042
85 0.002996
84 0.003024
95 0.003022
109 0.00299
122 0.00298
129 0.002951
134 0.002988
138 0.002996
139 0.002978
144 0.003076
148 0.002035
153 0.003026
156 0.003
160 0.003031
162 0.002994
166 0.00299
170 0.002992
172 0.002958
175 0.002052
177 0.002025
147 0.002028
74 0.001995
61 0.00202
76 0.001993
94 0.001995
110 0.002994
120 0.003043
128 0.002991
132 0.002995
136 0.00296
138 0.002992
144 0.00203
146 0.001946
151 0.001948
155 0.002037
160 0.001995
163 0.002046
166 0.002047
169 0.002048
171 0.002027
173 0.001984
166 0.002994
95 0.002018
58 0.002983
71 0.003025
91 0.002993
106 0.002993
120 0.001995
127 0.001995
132 0.001995
135 0.002025
137 0.001992
144 0.002009
149 0.003018
155 0.002002
164 0.002028
170 0.002025
167 0.002993
154 0.001971
160 0.003029
159 0.002993
158 0.002034
93 0.001984
38 0.002014
26 0.001998
36 0.001985
51 0.001986
76 0.002029
90 0.001993
98 0.001995
95 0.002031
83 0.002031
80 0.002002
83 0.000997
91 0.00303
101 0.002051
113 0.001971
120 0.002002
128 0.002003
137 0.002031
142 0.002028
136 0.002023
67 0.001996
22 0.002026
20 0.000997
29 0.000998
43 0.000992
56 0.002025
71 0.002016
80 0.001996
79 0.002028
68 0.001996
69 0.002032
74 0.003022
82 0.000996
96 0.002027
106 0.002026
114 0.000992
121 0.002044
128 0.001059
135 0.000966
141 0.002024
113 0.00202
17 0.00201
7 0.001998
13 0.002027
25 0.002023
42 0.001991
51 0.001994
62 0.000998
66 0.000999
65 0.000949
60 0.000999
62 0.000996
68 0.001993
85 0.001032
95 0.00203
105 0.002035
113 0.002035
121 0.00201
130 0.002038
136 0.001977
143 0.001991
111 0.002027
40 0.002025
11 0.001994
14 0.002035
36 0.001034
47 0.000998
58 0.001061
69 0.000998
73 0.000997
69 0.000998
67 0.001042
70 0.002001
77 0.002029
87 0.002027
103 0.001999
112 0.000952
127 0.001001
135 0.000999
143 0.000997
149 0.001994
154 0.002019
151 0.002032
77 0.002025
33 0.00201
23 0.001965
30 0.002034
50 0.001995
65 0.000962
85 0.001028
91 0.000997
88 0.001043
80 0.001003
77 0.000997
85 0.002056
95 0.001997
106 0.002015
117 0.0
128 0.000998
139 0.001989
146 0.0
157 0.000998
165 0.001
163 0.000998
93 0.00203
42 0.001013
31 0.001991
40 0.000997
57 0.001992
71 0.001989
84 0.001939
99 0.001959
101 0.000968
91 0.000998
90 0.0
96 0.0
107 0.000994
119 0.001008
133 0.000997
143 0.000942
153 0.001004
160 0.001005
167 0.000997
175 0.000968
181 0.0
188 0.000999
133 0.0
57 0.0
34 0.0
35 0.000998
52 0.000936
66 0.000943
76 0.00098
86 0.000993
94 0.000997
96 0.000997
92 0.0
95 0.0
102 0.0
113 0.0
126 0.0
137 0.0
150 0.000997
159 0.000962
166 0.00099
173 0.0
179 0.000997
186 0.000961
192 0.001005
200 0.000998
175 0.0
84 0.0
46 0.0
43 0.0
59 0.0
75 0.0
86 0.0
97 0.0
107 0.001008
111 0.000992
107 0.0
106 0.001014
114 0.0
125 0.0
136 0.0
147 0.0
160 0.0
169 0.0
175 0.0
182 0.0
188 0.0
194 0.0
199 0.0
205 0.000997
210 0.0
209 0.0
140 0.0
81 0.0
72 0.0
84 0.0
102 0.0
119 0.0
131 0.0
146 0.0
149 0.0
137 0.000997
133 0.0
136 0.0
144 0.000163
155 0.0
167 0.000997
176 0.0
183 0.0
188 0.0
193 0.0
199 0.0
203 0.0
209 0.0
208 0.003043
128 0.0
100 0.001011
92 0.001006
105 0.003027
123 0.00096
141 0.0
154 0.0
165 0.0
172 0.0
166 0.003038
154 0.0
156 0.0
166 0.001009
176 0.000947
184 0.0
190 0.0
196 0.004031
200 0.0
205 0.0
208 0.0
210 0.001
213 0.0
185 0.0
112 0.001006
89 0.003028
94 0.0
110 0.0
128 0.00096
140 0.003004
150 0.002989
160 0.0
158 0.001021
150 0.000996
145 0.003025
150 0.000962
158 0.002946
167 0.002949
177 0.000997
184 0.0
190 0.001003
193 0.003013
196 0.002997
201 0.0
203 0.0
206 0.0
192 0.004005
91 0.0
83 0.002026
90 0.002999
112 0.000957
128 0.0
139 0.0
150 0.002991
154 0.002976
150 0.0
142 0.0
138 0.0
142 0.003991
157 0.000964
166 0.003035
173 0.003025
184 0.0
188 0.000997
191 0.0
195 0.002025
198 0.002025
202 0.0
203 0.00102
164 0.0
98 0.003
82 0.00099
93 0.003029
111 0.002992
131 0.0
141 0.0
150 0.0
151 0.00299
144 0.002993
132 0.001025
132 0.0
138 0.001011
146 0.002981
160 0.001001
167 0.003025
174 0.003024
180 0.0
184 0.0
187 0.000959
191 0.003001
171 0.002989
90 0.0
75 0.000989
80 0.0
94 0.00196
122 0.000971
136 0.002037
147 0.002991
149 0.0
139 0.001001
129 0.001009
127 0.002998
131 0.002996
143 0.00097
152 0.001011
159 0.0
166 0.002989
175 0.0
179 0.001988
182 0.00299
185 0.000974
151 0.0
80 0.0
56 0.002976
55 0.003008
72 0.0
88 0.0
99 0.0
110 0.002992
119 0.0
115 0.002032
107 0.002018
105 0.000117
111 0.000949
119 0.0
129 0.001997
138 0.003002
148 0.0
152 0.0
158 0.0
163 0.002996
170 0.0
163 0.003027
88 0.002988
40 0.0
37 0.0
47 0.0
63 0.002996
76 0.00399
89 0.000958
98 0.000997
100 0.0
94 0.002992
87 0.0
91 0.002992
98 0.00304
112 0.0
122 0.0
131 0.0
140 0.003
147 0.002948
155 0.0
161 0.0
167 0.000997
163 0.002993
50 0.000982
28 0.002995
31 0.002952
49 0.000955
66 0.000998
79 0.000957
92 0.001994
99 0.001985
96 0.001004
89 0.0
86 0.001
90 0.002992
105 0.0
117 0.003008
128 0.003038
138 0.0
146 0.0
153 0.001031
159 0.002995
163 0.003985
113 0.0
50 0.0
30 0.0
32 0.002998
59 0.0
76 0.003024
93 0.003038
108 0.0
109 0.000992
100 0.00099
91 0.0
90 0.003984
99 0.002996
113 0.00096
124 0.0
134 0.001004
148 0.001007
156 0.0
162 0.003018
166 0.002939
102 0.0
38 0.0
17 0.0
20 0.002994
34 0.002994
55 0.0
69 0.000982
83 0.000971
90 0.0
83 0.0
78 0.003034
79 0.002993
92 0.0
103 0.00101
115 0.000967
126 0.00299
136 0.003002
146 0.000964
154 0.000973
161 0.001016
137 0.000971
51 0.0
13 0.002998
8 0.002994
22 0.0
37 0.0
49 0.0
61 0.003004
71 0.003029
75 0.0
70 0.0
70 0.0
79 0.0
89 0.0
103 0.003029
115 0.003038
128 0.0
137 0.000963
146 0.001
153 0.002994
160 0.002994
166 0.0
96 0.0
35 0.0
19 0.0
32 0.002982
48 0.003025
61 0.002945
77 0.000965
87 0.000999
88 0.000863
84 0.004002
82 0.003961
89 0.0
98 0.0
110 0.002993
130 0.002032
140 0.003034
150 0.002063
158 0.003991
168 0.002993
174 0.0
180 0.0
163 0.002999
83 0.004002
38 0.002949
38 0.0
51 0.00299
78 0.0
91 0.002038
104 0.003957
108 0.003951
101 0.002992
95 0.0
96 0.001995
104 0.003005
115 0.003994
132 0.002991
143 0.003983
153 0.002992
168 0.002966
