151 0.02596
151 0.005955
149 0.005985
70 0.005031
16 0.005027
6 0.005985
16 0.005985
31 0.005945
44 0.005984
61 0.005969
72 0.005984
77 0.006018
77 0.006018
77 0.006016
87 0.004987
97 0.005013
109 0.00503
120 0.006013
131 0.005984
142 0.006018
152 0.004986
165 0.005984
167 0.005984
133 0.006017
50 0.006044
36 0.006015
44 0.006017
60 0.006011
72 0.005983
86 0.004987
97 0.005983
104 0.005985
101 0.006981
100 0.006982
107 0.005984
117 0.005984
127 0.006001
139 0.005988
148 0.005987
156 0.005985
164 0.006032
169 0.005953
178 0.005984
183 0.005984
113 0.005984
60 0.006983
48 0.005984
58 0.005978
70 0.005984
76 0.006981
81 0.006982
91 0.00602
96 0.005981
100 0.006981
99 0.006036
101 0.005984
112 0.005984
122 0.006981
135 0.005984
143 0.005983
151 0.005981
160 0.007007
166 0.006986
174 0.005985
180 0.005985
185 0.005984
190 0.006962
158 0.007023
65 0.006026
58 0.005981
69 0.00599
80 0.005979
85 0.006007
88 0.006971
94 0.007015
103 0.005984
106 0.005983
105 0.005991
107 0.006982
114 0.007991
129 0.005984
138 0.006982
147 0.006951
154 0.006981
162 0.006993
170 0.006982
175 0.006981
183 0.005984
188 0.007014
193 0.006986
196 0.006017
160 0.006981
72 0.006981
69 0.007013
79 0.007023
95 0.006016
101 0.007016
105 0.007016
115 0.006981
121 0.005984
119 0.005984
118 0.006011
123 0.007978
127 0.007979
143 0.006981
151 0.006982
159 0.006981
169 0.00601
173 0.006982
179 0.006981
185 0.006981
191 0.006937
196 0.006017
191 0.006983
125 0.007977
79 0.007978
84 0.006982
98 0.006982
111 0.00694
121 0.006983
127 0.006951
137 0.006981
135 0.007015
131 0.006983
132 0.006981
139 0.0
148 0.005983
158 0.005983
167 0.006981
176 0.007978
183 0.006982
187 0.006982
191 0.006983
198 0.006981
202 0.006982
204 0.006975
175 0.00793
91 0.006979
75 0.007979
80 0.007977
97 0.007992
104 0.007943
109 0.007015
114 0.006982
120 0.007979
123 0.006982
120 0.007943
123 0.00798
128 0.00698
137 0.006981
146 0.00794
160 0.006982
168 0.007978
174 0.00798
181 0.007042
187 0.006981
191 0.007043
196 0.007013
198 0.00798
123 0.006981
68 0.007978
66 0.007979
74 0.007948
84 0.007948
94 0.007945
101 0.007945
108 0.006993
113 0.006982
114 0.006988
113 0.007979
116 0.007978
125 0.007957
137 0.007024
138 0.007978
151 0.007993
160 0.007979
169 0.007981
173 0.007944
184 0.006979
186 0.006982
190 0.006939
181 0.007978
130 0.007978
62 0.007024
64 0.007022
73 0.007979
87 0.007986
101 0.006982
108 0.007978
117 0.007979
121 0.006972
118 0.006981
115 0.006985
123 0.006982
130 0.006982
143 0.007714
151 0.007991
153 0.007976
166 0.007482
175 0.006983
181 0.00698
186 0.007984
189 0.00798
120 0.007975
96 0.008022
58 0.007979
55 0.007932
66 0.007941
83 0.006983
94 0.006444
105 0.00698
113 0.007979
112 0.007025
110 0.007032
112 0.006982
122 0.007023
131 0.00698
140 0.006953
147 0.00705
152 0.007978
159 0.007953
170 0.007018
176 0.007015
183 0.00697
146 0.007036
70 0.006982
40 0.006981
41 0.007522
51 0.007012
62 0.007027
71 0.007016
77 0.007031
87 0.006949
90 0.007022
89 0.006981
91 0.006981
98 0.006982
106 0.006967
117 0.006981
129 0.006981
137 0.006013
146 0.006025
153 0.006982
160 0.007018
169 0.007032
163 0.007008
91 0.006982
31 0.006981
34 0.007017
46 0.007024
59 0.007028
69 0.007036
78 0.006036
87 0.006027
90 0.006029
88 0.006981
89 0.007024
95 0.006969
111 0.006997
119 0.007015
128 0.006942
137 0.006983
145 0.006981
154 0.007031
162 0.007024
162 0.006018
105 0.00601
56 0.006944
47 0.007017
57 0.007028
78 0.006958
88 0.007035
100 0.006983
108 0.007012
103 0.006983
99 0.007024
101 0.007012
105 0.007016
113 0.005988
123 0.005991
135 0.005983
145 0.005984
156 0.007065
163 0.006034
168 0.007021
172 0.007024
131 0.00703
62 0.006982
50 0.007018
56 0.006433
67 0.006037
78 0.007019
85 0.007016
92 0.006018
103 0.006983
106 0.006981
105 0.007021
107 0.006981
115 0.006018
127 0.005985
132 0.005984
139 0.006025
146 0.006024
152 0.006022
159 0.00602
165 0.005923
151 0.00698
89 0.006982
52 0.006983
47 0.006017
54 0.00607
66 0.006027
71 0.006004
78 0.005984
85 0.006063
92 0.005959
94 0.005984
94 0.005983
103 0.005988
113 0.006015
125 0.005984
135 0.005986
145 0.006015
155 0.006013
162 0.006024
168 0.006989
174 0.007032
178 0.004987
169 0.005995
107 0.006017
62 0.005987
64 0.006021
73 0.005994
82 0.005943
85 0.006024
91 0.006025
94 0.005984
93 0.005937
87 0.005985
85 0.006026
89 0.006014
94 0.006026
109 0.005988
117 0.005984
124 0.006019
130 0.006028
136 0.006021
145 0.006014
149 0.00602
127 0.00503
73 0.005029
43 0.005023
44 0.006018
56 0.005017
73 0.006013
80 0.005996
88 0.006014
94 0.006018
94 0.005984
95 0.005027
99 0.005029
106 0.004987
114 0.004954
125 0.00503
134 0.005027
146 0.005984
157 0.005027
167 0.00601
175 0.006024
181 0.006019
185 0.004981
145 0.005986
72 0.005984
65 0.005033
70 0.004987
81 0.004986
89 0.005029
96 0.004989
104 0.005027
110 0.005003
108 0.005985
109 0.006043
110 0.005978
115 0.005944
122 0.004988
131 0.004985
138 0.005984
144 0.005988
149 0.00502
155 0.006014
160 0.005989
165 0.004987
168 0.00496
131 0.004984
69 0.005028
43 0.005021
46 0.004986
58 0.005029
69 0.004983
75 0.005974
84 0.005018
100 0.004115
103 0.005983
101 0.004991
106 0.005028
115 0.005023
124 0.005026
130 0.004987
140 0.005043
146 0.005029
150 0.00502
156 0.005014
160 0.005027
170 0.004953
162 0.00401
87 0.004986
56 0.004988
55 0.00503
68 0.004989
83 0.004032
99 0.004987
107 0.004987
115 0.004987
119 0.004986
117 0.005012
115 0.005019
121 0.004988
139 0.004987
150 0.005031
162 0.005027
166 0.004031
173 0.004033
183 0.004029
190 0.00403
198 0.004988
201 0.004019
195 0.005022
99 0.004991
72 0.004988
72 0.003989
82 0.005027
90 0.005027
95 0.004987
101 0.004029
113 0.004039
118 0.004986
120 0.004035
122 0.00399
128 0.003987
142 0.00399
153 0.004033
160 0.004006
162 0.005025
167 0.004983
169 0.005029
173 0.005028
177 0.005036
180 0.003991
149 0.004987
84 0.003989
56 0.00399
62 0.003991
75 0.003988
85 0.00399
91 0.004024
98 0.004023
106 0.005025
106 0.00504
104 0.005033
106 0.003991
111 0.004022
119 0.00404
128 0.004024
142 0.003956
150 0.004025
157 0.003986
162 0.004046
168 0.00399
171 0.003994
141 0.005016
69 0.003987
56 0.004031
61 0.003991
73 0.003996
91 0.003991
102 0.003997
111 0.003985
108 0.003991
107 0.003994
102 0.004031
102 0.004031
109 0.003023
121 0.003976
130 0.00402
137 0.003957
145 0.003996
156 0.00396
162 0.003998
167 0.003958
172 0.004031
124 0.004044
81 0.004021
70 0.00399
74 0.004033
84 0.003992
91 0.003017
96 0.003957
103 0.003964
116 0.002993
118 0.003066
116 0.003982
120 0.004026
124 0.003989
126 0.003986
134 0.004016
143 0.00399
154 0.004025
163 0.003985
173 0.003018
177 0.002984
147 0.002959
88 0.003001
64 0.003012
71 0.003072
81 0.002992
91 0.002994
97 0.003001
100 0.003988
105 0.003297
106 0.002994
106 0.003027
105 0.003032
111 0.003988
120 0.003975
131 0.004043
143 0.004021
151 0.002996
154 0.003018
153 0.002994
154 0.002995
158 0.002992
142 0.002996
86 0.00302
58 0.00302
67 0.002984
84 0.00395
97 0.003996
105 0.00399
113 0.003957
117 0.002992
115 0.003023
108 0.003024
103 0.00299
109 0.002977
115 0.002995
121 0.00301
130 0.003011
138 0.003026
146 0.002986
152 0.00399
162 0.002992
150 0.002992
98 0.002992
71 0.003045
72 0.002992
87 0.003002
99 0.003003
110 0.002992
125 0.002964
130 0.002959
128 0.001991
122 0.004004
121 0.003992
122 0.002994
126 0.002993
135 0.00303
144 0.003018
152 0.002988
160 0.003038
165 0.002988
174 0.002951
137 0.002993
79 0.002975
60 0.002029
71 0.002033
86 0.002994
97 0.002993
103 0.003033
110 0.003031
117 0.002992
120 0.002992
119 0.002995
119 0.003003
125 0.002954
130 0.002992
136 0.002026
143 0.001995
149 0.001999
153 0.003025
158 0.001984
162 0.003028
115 0.002041
68 0.002994
63 0.002967
75 0.002984
87 0.002961
99 0.00304
106 0.002993
117 0.00304
122 0.002992
123 0.002993
122 0.002993
124 0.001989
133 0.001996
141 0.001995
153 0.001961
157 0.001961
163 0.002028
169 0.00199
175 0.002948
144 0.002992
86 0.003034
67 0.003
71 0.00198
84 0.001995
101 0.002002
109 0.001988
127 0.001981
135 0.002002
131 0.001985
126 0.002002
124 0.001995
129 0.002993
138 0.002997
144 0.003031
148 0.002998
152 0.001995
157 0.002028
160 0.002026
75 0.00197
45 0.002035
44 0.001992
57 0.001976
71 0.001995
87 0.001995
97 0.000998
106 0.001995
109 0.001995
104 0.002004
99 0.002029
102 0.001995
113 0.00197
124 0.001996
132 0.001995
139 0.001985
145 0.001995
148 0.001995
127 0.001949
59 0.002034
32 0.000998
32 0.000997
49 0.001995
63 0.002005
78 0.001965
85 0.002004
94 0.001994
97 0.001958
97 0.001986
97 0.001962
104 0.001995
112 0.001995
121 0.001995
129 0.00196
141 0.000929
148 0.000997
159 0.000966
138 0.001029
76 0.001007
50 0.001028
49 0.000998
64 0.001995
77 0.001985
86 0.001985
92 0.001995
100 0.001995
105 0.001042
101 0.000997
102 0.001971
107 0.001999
114 0.00094
124 0.001015
132 0.000998
140 0.001013
150 0.001999
157 0.001996
161 0.001994
119 0.001995
68 0.001996
51 0.002027
65 0.001048
84 0.001968
93 0.001009
103 0.001013
111 0.001031
114 0.000999
112 0.001044
113 0.001019
117 0.000957
126 0.000971
137 0.000997
154 0.001965
161 0.001954
170 0.001999
176 0.000983
181 0.001
183 0.000997
136 0.00101
74 0.000965
64 0.000996
72 0.000998
84 0.000997
93 0.000997
101 0.000998
108 0.001007
113 0.002008
110 0.001048
107 0.000998
109 0.001013
115 0.000999
125 0.000997
134 0.000998
143 0.000985
152 0.000997
157 0.002002
167 0.000996
172 0.0
169 0.00099
104 0.000994
57 0.001001
46 0.00103
54 0.000998
68 0.000996
78 0.000996
85 0.001004
92 0.001003
98 0.000998
97 0.000993
95 0.001013
99 0.001
105 0.001016
114 0.000986
124 0.000998
133 0.001009
142 0.001004
149 0.0
155 0.0
161 0.0
166 0.0
129 0.001019
67 0.000997
41 0.000996
47 0.000998
60 0.000998
73 0.000997
82 0.000998
95 0.000998
102 0.00103
99 0.001002
93 0.0
92 0.000997
99 0.000993
109 0.001005
122 0.001
131 0.000986
140 0.0
148 0.000998
155 0.0
163 0.0
159 0.0
91 0.0
42 0.0
31 0.0
45 0.0
57 0.0
71 0.0
81 0.001002
90 0.001012
91 0.000998
88 0.001
86 0.0
90 0.0
99 0.0
110 0.0
121 0.0
137 0.0
146 0.0
157 0.0
163 0.0
169 0.0
174 0.0
143 0.0
44 0.0
22 0.000994
24 0.000997
36 0.0
49 0.0
65 0.0
74 0.0
82 0.0
83 0.0
79 0.0
81 0.0
86 0.0
99 0.0
110 0.0
126 0.0
134 0.0
143 0.0
155 0.0
163 0.0
173 0.000998
179 0.000963
180 0.000993
84 0.001004
63 0.0
65 0.0
86 0.0
117 0.0
131 0.0
165 0.0
175 0.000951
176 0.0
169 0.0
167 0.0
168 0.0
172 0.0
175 0.0
175 0.000996
186 0.000964
198 0.000997
211 0.0
225 0.0
235 0.000972
225 0.000947
156 0.0
118 0.000991
113 0.0
121 0.0
131 0.0
141 0.000998
150 0.000965
156 0.000997
150 0.0
136 0.000977
133 0.000998
137 0.000951
144 0.000969
153 0.00103
163 0.000949
173 0.0
182 0.0
187 0.0
191 0.000987
198 0.000993
182 0.0
116 0.000974
120 0.0
133 0.0
142 0.0
144 0.00099
142 0.000963
141 0.0
136 0.0
131 0.0
114 0.0
106 0.000997
104 0.0
112 0.000988
119 0.0
127 0.0
130 0.000997
139 0.00101
143 0.000997
150 0.0
155 0.000998
121 0.000995
35 0.000997
0 0.002014
0 0.0
0 0.001041
10 0.0
20 0.0
28 0.0
35 0.001006
36 0.000992
33 0.0
33 0.0
41 0.0
52 0.000978
64 0.001996
80 0.000999
94 0.001995
108 0.001004
113 0.000998
124 0.0
134 0.000995
135 0.000998
33 0.0
0 0.001031
0 0.000998
0 0.001996
4 0.001996
21 0.000999
36 0.001996
48 0.0
47 0.000964
43 0.001008
42 0.001006
49 0.000995
63 0.000985
76 0.000952
89 0.000986
99 0.001965
110 0.001964
123 0.000994
135 0.002034
121 0.001004
47 0.000959
9 0.0
6 0.001032
15 0.000958
36 0.001002
50 0.00098
61 0.000997
72 0.001036
77 0.000961
73 0.001008
75 0.00101
83 0.000999
95 0.000985
108 0.000997
119 0.002021
130 0.00204
143 0.000998
151 0.001039
158 0.001052
166 0.00196
168 0.001052
58 0.000996
29 0.001001
33 0.000988
47 0.000994
63 0.001031
71 0.002027
79 0.001996
84 0.000997
87 0.00099
90 0.000996
95 0.002009
109 0.001997
133 0.000964
149 0.002055
166 0.000997
181 0.000999
192 0.000969
200 0.002025
208 0.001977
222 0.000955
222 0.000997
167 0.001005
117 0.002024
110 0.001995
135 0.001031
151 0.00202
167 0.000972
175 0.000955
184 0.001001
190 0.002036
194 0.002027
198 0.001995
204 0.001002
211 0.000999
218 0.001995
225 0.001964
237 0.001989
248 0.002045
250 0.001961
249 0.001009
247 0.001018
226 0.002986
145 0.00199
110 0.002031
119 0.002034
114 0.000979
114 0.001995
119 0.001995
123 0.002007
119 0.002019
111 0.002019
108 0.000982
111 0.00199
116 0.003044
125 0.002026
137 0.002028
148 0.002019
153 0.002002
159 0.002018
165 0.002025
174 0.001992
178 0.002029
134 0.003026
48 0.000977
31 0.000999
34 0.001994
44 0.003005
56 0.002993
65 0.002021
72 0.002008
79 0.002027
81 0.002994
78 0.001016
81 0.002996
92 0.003036
95 0.000969
88 0.002013
78 0.001012
72 0.003056
70 0.002979
66 0.001962
63 0.001994
63 0.002029
67 0.00253
0 0.002029
29 0.003028
23 0.00306
32 0.002022
42 0.001948
51 0.001981
58 0.003022
65 0.002992
71 0.002028
73 0.002052
74 0.001996
76 0.002992
83 0.002032
90 0.003033
97 0.00404
105 0.002961
110 0.00295
115 0.002
120 0.003018
125 0.002992
130 0.002025
132 0.002041
100 0.001993
63 0.002946
63 0.001999
69 0.003033
78 0.003022
87 0.002053
93 0.001995
99 0.003032
100 0.004022
96 0.004019
95 0.002028
97 0.002003
101 0.002024
111 0.001953
116 0.002009
122 0.003025
127 0.003036
133 0.001961
137 0.001957
137 0.002086
101 0.003035
72 0.002992
64 0.002029
68 0.002954
74 0.002984
84 0.002991
89 0.002023
95 0.00402
97 0.003942
96 0.002989
96 0.003961
99 0.002022
103 0.003031
109 0.003
117 0.00199
123 0.003008
128 0.00203
136 0.002991
141 0.002992
146 0.004014
148 0.003982
103 0.003012
72 0.002989
64 0.002989
67 0.004008
74 0.00399
82 0.00199
86 0.003008
91 0.003011
96 0.002992
96 0.003003
96 0.004022
97 0.004022
104 0.00298
109 0.003018
116 0.001995
122 0.003077
128 0.00402
135 0.003035
140 0.003051
145 0.002991
152 0.001994
151 0.002995
108 0.003984
76 0.004025
69 0.002985
74 0.002994
82 0.003025
89 0.004021
95 0.003983
102 0.003018
106 0.003025
105 0.003036
104 0.002004
107 0.002994
112 0.004023
118 0.004023
127 0.002996
133 0.002948
139 0.002984
144 0.004017
149 0.003989
155 0.003023
158 0.002998
149 0.002979
85 0.003034
76 0.003014
79 0.003989
88 0.004022
98 0.003031
106 0.002994
113 0.003024
118 0.00502
117 0.004987
113 0.003022
112 0.004016
116 0.002996
126 0.003024
132 0.00299
139 0.004029
145 0.003994
160 0.002067
166 0.002993
170 0.002993
146 0.005021
84 0.005032
53 0.004023
55 0.004021
64 0.003022
82 0.002975
90 0.002993
100 0.003025
106 0.005023
106 0.004036
103 0.002994
103 0.002987
108 0.002982
118 0.004987
126 0.004992
138 0.003994
149 0.004979
158 0.004022
164 0.00403
170 0.004025
153 0.004943
86 0.004987
52 0.002993
50 0.002991
59 0.002975
70 0.004056
78 0.003989
88 0.004004
97 0.005019
98 0.003988
96 0.00399
97 0.004025
102 0.005027
111 0.005012
123 0.002958
133 0.004007
142 0.004989
150 0.005984
157 0.005047
166 0.003964
171 0.005022
110 0.003024
63 0.003063
50 0.00399
54 0.005034
64 0.005032
77 0.003961
85 0.004031
95 0.003989
100 0.00602
99 0.005023
97 0.005021
100 0.004988
109 0.004009
118 0.00399
127 0.00398
136 0.005014
144 0.005019
155 0.004033
163 0.003955
168 0.003992
147 0.004979
88 0.004987
58 0.003992
64 0.004984
79 0.004067
90 0.003938
100 0.003975
109 0.006027
113 0.00502
109 0.005025
107 0.005018
109 0.00403
115 0.005984
124 0.006015
135 0.004
145 0.004987
154 0.004003
160 0.004022
167 0.003997
172 0.006019
167 0.006035
93 0.004945
69 0.004997
69 0.004988
78 0.006007
88 0.006018
96 0.005022
105 0.006023
112 0.003966
113 0.003954
112 0.004986
114 0.005985
118 0.005033
129 0.004991
137 0.003992
144 0.003989
152 0.00603
159 0.005957
165 0.004954
172 0.006027
179 0.004988
180 0.004987
135 0.005025
93 0.006032
82 0.005997
88 0.00499
97 0.004022
105 0.004991
110 0.005993
115 0.005015
122 0.004952
122 0.005988
121 0.004987
124 0.004978
130 0.005026
137 0.006021
144 0.006027
152 0.005071
159 0.004996
165 0.00502
169 0.006984
173 0.005984
180 0.007016
184 0.006022
137 0.006016
100 0.004989
92 0.004987
97 0.006014
106 0.006016
116 0.002007
122 0.006006
129 0.005024
133 0.005984
131 0.006037
127 0.006752
130 0.006015
136 0.005017
143 0.004979
150 0.005013
156 0.005983
161 0.005997
168 0.004986
173 0.005004
176 0.005
178 0.006996
151 0.007017
95 0.007015
94 0.006983
102 0.005982
111 0.005984
118 0.004994
123 0.006023
128 0.006022
132 0.005984
130 0.005984
127 0.005986
130 0.007033
135 0.007013
146 0.00605
152 0.006938
158 0.006988
166 0.004971
170 0.005008
174 0.005986
178 0.006018
181 0.006025
183 0.004986
140 0.005016
98 0.005019
88 0.00604
96 0.005978
105 0.006994
110 0.007022
116 0.005985
121 0.006018
123 0.005942
123 0.007016
122 0.007023
123 0.00598
128 0.003991
138 0.005983
146 0.007012
162 0.00602
169 0.007034
176 0.006969
183 0.005979
188 0.00499
193 0.005971
199 0.006984
202 0.007021
152 0.005983
88 0.006022
69 0.005979
73 0.00702
93 0.005985
104 0.006982
110 0.00798
119 0.005986
124 0.004955
121 0.005003
117 0.007976
118 0.006982
126 0.005981
134 0.005987
143 0.005991
152 0.006983
166 0.00599
172 0.006983
178 0.007013
185 0.005984
189 0.005991
195 0.007012
181 0.006984
107 0.00797
67 0.005985
69 0.005985
80 0.005966
99 0.007979
113 0.005985
124 0.00794
130 0.007981
125 0.005975
121 0.005971
120 0.005944
124 0.006944
133 0.006943
145 0.005945
152 0.005935
162 0.005982
169 0.00798
180 0.005995
186 0.007981
192 0.007973
198 0.007015
199 0.007026
146 0.007018
74 0.00798
50 0.00799
56 0.005934
70 0.005983
83 0.006016
98 0.005981
107 0.005995
112 0.007981
111 0.007016
107 0.006982
108 0.007012
114 0.007008
124 0.007943
138 0.007944
147 0.006983
156 0.007017
165 0.007012
176 0.007017
181 0.007033
188 0.00797
193 0.007986
196 0.005986
148 0.006938
67 0.006979
40 0.007957
45 0.007959
59 0.005972
74 0.006025
84 0.005966
101 0.005986
107 0.006946
107 0.00798
102 0.00798
102 0.006981
109 0.006984
119 0.006982
132 0.007946
140 0.007979
153 0.006029
161 0.005995
168 0.005999
178 0.006983
184 0.006968
191 0.007943
194 0.007936
135 0.006976
59 0.006983
38 0.006983
48 0.007979
61 0.007978
75 0.007014
85 0.007024
95 0.007009
109 0.006027
109 0.006941
107 0.007978
109 0.008
117 0.006968
128 0.006996
140 0.007031
154 0.007942
163 0.0
173 0.006973
177 0.006983
187 0.006974
187 0.006992
111 0.006985
52 0.006978
39 0.008005
52 0.00701
63 0.007006
80 0.006977
103 0.006981
117 0.007981
126 0.006954
125 0.006967
116 0.006956
116 0.006987
125 0.006976
135 0.006982
146 0.006994
156 0.007018
165 0.007009
172 0.006987
181 0.007964
185 0.007016
106 0.007021
56 0.00697
22 0.007012
35 0.006973
50 0.006972
64 0.00703
78 0.006989
91 0.006976
98 0.00698
92 0.005984
88 0.005983
88 0.005984
97 0.006991
112 0.00698
124 0.00702
145 0.006993
153 0.006983
162 0.006974
170 0.006983
177 0.006988
171 0.006983
75 0.006985
19 0.006968
5 0.006979
12 0.005988
30 0.006979
45 0.006026
57 0.006989
69 0.006977
73 0.006975
72 0.006987
71 0.007004
77 0.00698
87 0.00695
100 0.007025
114 0.006944
126 0.006986
143 0.006981
156 0.006985
168 0.006947
175 0.006985
181 0.006975
131 0.006995
43 0.005974
6 0.005999
11 0.006034
26 0.005967
42 0.006982
53 0.005985
68 0.006979
79 0.006998
78 0.006979
77 0.006985
79 0.00698
88 0.007016
100 0.006974
118 0.007012
131 0.00598
143 0.005983
155 0.005988
164 0.005989
176 0.006992
186 0.006997
184 0.006983
96 0.006992
33 0.006981
17 0.007025
25 0.006977
47 0.007012
64 0.006991
77 0.007012
90 0.005988
98 0.005983
93 0.005975
86 0.005978
92 0.005998
104 0.005982
117 0.005973
131 0.006012
145 0.005958
161 0.005952
170 0.00598
178 0.00699
186 0.006987
192 0.00602
108 0.005976
25 0.006965
14 0.005986
26 0.005984
43 0.005018
55 0.005978
66 0.006002
83 0.005947
89 0.005986
87 0.004986
86 0.006977
89 0.006984
102 0.007016
120 0.006009
139 0.006019
152 0.00599
163 0.005979
173 0.005987
181 0.006026
193 0.006017
200 0.005983
207 0.005986
202 0.004982
103 0.005982
23 0.006753
18 0.005983
36 0.005991
50 0.005984
60 0.006028
69 0.006015
81 0.00597
89 0.005988
87 0.005982
89 0.005976
95 0.005976
105 0.005981
124 0.00597
143 0.005989
160 0.005976
172 0.005985
180 0.00598
189 0.005983
198 0.006016
207 0.005974
213 0.005982
217 0.006016
149 0.006012
58 0.005991
27 0.005022
38 0.004987
61 0.004985
75 0.005989
89 0.005989
103 0.00598
108 0.006031
103 0.005985
99 0.005982
102 0.005987
112 0.005985
125 0.004977
148 0.004959
161 0.004984
175 0.004987
184 0.005
193 0.00496
200 0.004987
207 0.004993
215 0.005982
171 0.005985
73 0.005988
31 0.005977
28 0.005993
52 0.006024
70 0.005968
88 0.004987
104 0.004995
115 0.005003
119 0.004986
117 0.004951
118 0.004957
126 0.005005
137 0.005972
150 0.006002
163 0.005951
180 0.006029
188 0.005985
196 0.004974
208 0.005981
213 0.006017
219 0.005022
226 0.005988
231 0.00498
209 0.005986
95 0.004988
37 0.004986
24 0.004993
44 0.004983
60 0.005986
72 0.005077
91 0.005984
103 0.005019
109 0.006026
111 0.004977
110 0.004955
116 0.005001
127 0.00501
141 0.005007
152 0.00497
170 0.005026
179 0.005003
187 0.004984
198 0.00498
204 0.00498
211 0.004984
218 0.00495
224 0.004997
201 0.004987
200 0.004977
87 0.005001
33 0.004984
31 0.005034
49 0.00499
67 0.003974
87 0.004983
104 0.003989
117 0.00402
124 0.003964
126 0.004022
127 0.004995
131 0.005037
140 0.004989
151 0.004789
168 0.004986
178 0.004958
186 0.004024
197 0.00398
203 0.003997
211 0.003986
216 0.003999
221 0.004988
188 0.004997
81 0.00498
32 0.004953
27 0.004958
53 0.005027
73 0.004075
91 0.004991
113 0.004983
125 0.004014
132 0.003995
133 0.00396
134 0.003957
143 0.003985
151 0.004034
162 0.003996
171 0.005009
185 0.00503
192 0.004991
199 0.004985
208 0.004025
213 0.003989
218 0.003985
225 0.003993
219 0.004022
83 0.003959
24 0.003966
13 0.003988
23 0.003997
53 0.003993
68 0.004998
82 0.005015
100 0.004979
107 0.003984
108 0.00398
107 0.003988
112 0.004028
124 0.003992
136 0.003979
148 0.003953
164 0.004023
173 0.004033
180 0.003957
187 0.003987
198 0.004992
203 0.003989
210 0.003986
214 0.004011
163 0.003986
34 0.004004
7 0.003951
11 0.004009
38 0.003989
54 0.004034
69 0.003991
84 0.002989
97 0.004994
101 0.004015
102 0.004011
104 0.00399
112 0.003993
128 0.003989
140 0.003987
150 0.004023
166 0.004049
175 0.00399
183 0.003991
191 0.003999
198 0.003992
205 0.002995
211 0.002982
211 0.00299
132 0.003016
28 0.004021
13 0.003997
21 0.004001
52 0.003991
71 0.004031
88 0.003958
103 0.003958
114 0.004006
115 0.002993
111 0.00303
112 0.003989
120 0.002992
136 0.002991
147 0.002993
158 0.004022
173 0.002992
182 0.002949
188 0.002981
195 0.003984
204 0.003976
205 0.003992
134 0.004011
42 0.003989
11 0.004001
17 0.003942
35 0.002956
55 0.003006
86 0.00399
101 0.003957
111 0.003955
114 0.003964
114 0.003986
118 0.004005
126 0.003984
137 0.002973
149 0.002995
161 0.003006
169 0.002983
179 0.003003
190 0.002994
197 0.002992
202 0.002993
209 0.00299
206 0.002032
71 0.003948
11 0.003993
0 0.003036
9 0.003029
25 0.003028
45 0.002993
58 0.002994
79 0.002992
84 0.00296
84 0.002958
82 0.002988
87 0.002994
102 0.003007
116 0.002996
129 0.002991
142 0.002981
150 0.002991
165 0.002012
172 0.002973
185 0.003009
192 0.002993
199 0.002987
170 0.002992
60 0.003
0 0.003041
0 0.00299
12 0.002998
29 0.002962
43 0.002993
60 0.002991
76 0.003047
79 0.003
78 0.002031
80 0.001957
87 0.002063
98 0.002988
118 0.002957
131 0.002996
142 0.002944
153 0.002976
164 0.003028
174 0.002996
185 0.002992
195 0.003027
203 0.002036
205 0.002972
130 0.001952
38 0.002958
7 0.002034
14 0.002015
30 0.002958
48 0.002009
63 0.001994
81 0.002984
93 0.003005
93 0.002992
90 0.002991
94 0.002983
104 0.002977
118 0.001992
136 0.001995
147 0.001981
158 0.001998
168 0.002027
175 0.001996
184 0.002001
193 0.00305
203 0.002993
203 0.00304
127 0.001995
40 0.003
11 0.002977
15 0.002993
32 0.001946
51 0.001987
70 0.002005
88 0.002002
107 0.002002
110 0.001995
109 0.002031
112 0.001995
123 0.001988
132 0.001987
147 0.001007
160 0.00298
170 0.000998
181 0.002992
187 0.001973
196 0.003005
205 0.001986
214 0.002027
148 0.001995
50 0.001996
16 0.001991
15 0.001947
28 0.001983
51 0.001991
65 0.001991
79 0.001992
91 0.002015
100 0.002011
103 0.001987
105 0.002052
116 0.002045
129 0.001988
142 0.002001
153 0.001997
163 0.001995
176 0.001995
184 0.001007
190 0.001961
198 0.001948
206 0.002036
209 0.001008
98 0.001989
22 0.001996
16 0.002037
28 0.001982
47 0.001998
62 0.002031
82 0.001965
96 0.001995
107 0.001964
112 0.001037
115 0.001974
119 0.002004
133 0.000993
148 0.001001
160 0.000962
170 0.001967
177 0.001961
187 0.001989
198 0.001979
204 0.001946
211 0.001951
216 0.001958
183 0.00093
52 0.001004
19 0.000997
34 0.000998
53 0.000997
71 0.000997
89 0.001962
106 0.001997
119 0.001953
124 0.002008
125 0.001959
127 0.001991
135 0.002147
152 0.000999
161 0.000959
174 0.000997
183 0.000998
191 0.002059
199 0.0
206 0.002008
215 0.001963
214 0.001944
123 0.000997
38 0.002016
12 0.000976
26 0.000999
43 0.000968
63 0.000997
77 0.000998
92 0.001016
101 0.001014
104 0.000981
102 0.001954
107 0.001964
116 0.001956
129 0.001964
140 0.00197
158 0.000968
168 0.000997
176 0.00097
186 0.000997
194 0.000998
200 0.000997
206 0.001964
212 0.001026
131 0.001964
40 0.0
11 0.0
12 0.002026
38 0.00203
53 0.000998
66 0.001007
82 0.001
89 0.000996
90 0.000997
88 0.001005
90 0.001
102 0.000986
113 0.001001
127 0.000997
140 0.001995
158 0.001034
166 0.000984
174 0.001001
185 0.001001
192 0.001029
198 0.001029
205 0.00103
210 0.000999
125 0.001014
41 0.001031
14 0.000966
18 0.0
44 0.0
60 0.0
74 0.0
91 0.000997
98 0.000998
99 0.001015
97 0.001019
97 0.000997
108 0.0
121 0.0
134 0.000988
146 0.001009
163 0.0
172 0.0
179 0.0
188 0.0
196 0.0
202 0.0
209 0.001023
211 0.001007
119 0.00098
44 0.000974
24 0.001013
28 0.0
59 0.0
76 0.0
93 0.0
111 0.0
117 0.0
115 0.00096
109 0.00099
109 0.0
122 0.001035
133 0.000984
144 0.000954
156 0.0
171 0.0
180 0.0
187 0.0
196 0.0
204 0.0
207 0.0
158 0.0
59 0.0
18 0.000927
21 0.0
37 0.0
65 0.000998
80 0.000997
96 0.0
106 0.0
107 0.0
103 0.0
105 0.0
113 0.000977
124 0.0
141 0.0
151 0.0
161 0.0
176 0.0
184 0.000968
192 0.0
196 0.0
206 0.0
210 0.0
162 0.0
59 0.0
19 0.0
17 0.0
33 0.0
51 0.0
71 0.0
84 0.0
93 0.000998
94 0.000988
90 0.001025
92 0.000997
100 0.0
111 0.0
125 0.0
141 0.0
153 0.0
163 0.0
178 0.0
184 0.0
191 0.0
201 0.0
205 0.002064
207 0.002031
95 0.0
34 0.000996
23 0.0
33 0.001988
50 0.002033
72 0.000994
91 0.001012
105 0.0
109 0.000997
102 0.0
97 0.002002
100 0.002025
112 0.0
126 0.0
139 0.0
151 0.002036
161 0.00203
173 0.0
183 0.002031
193 0.0
199 0.0
199 0.0
125 0.001034
50 0.001011
28 0.0
40 0.000953
59 0.0
77 0.002007
93 0.002031
114 0.0
124 0.002035
117 0.0
112 0.000956
115 0.0
125 0.002027
137 0.001043
153 0.000998
163 0.0
173 0.0
180 0.002006
187 0.001992
194 0.000999
204 0.001039
211 0.000997
178 0.000992
52 0.0
22 0.0
22 0.002043
37 0.001992
60 0.0
72 0.0
84 0.0
97 0.001032
101 0.001
96 0.001029
96 0.000994
102 0.00099
119 0.0
132 0.000963
143 0.000996
155 0.000989
169 0.0
177 0.000993
184 0.000972
192 0.002008
199 0.000998
206 0.000998
136 0.000998
30 0.0
13 0.0
19 0.0
35 0.002045
51 0.002026
66 0.0
79 0.0
85 0.000939
89 0.002031
84 0.000963
88 0.00203
97 0.000998
116 0.0
131 0.0
142 0.0
155 0.002045
165 0.00203
176 0.0
184 0.0
192 0.0
199 0.000995
210 0.0
196 0.00104
92 0.001005
21 0.0
16 0.000997
30 0.0
48 0.001992
64 0.001987
81 0.0
94 0.0
99 0.0
94 0.002033
88 0.0
95 0.001027
107 0.001024
125 0.001983
139 0.0
152 0.0
163 0.002017
173 0.001015
185 0.0
192 0.0
199 0.0
205 0.002044
139 0.0
50 0.002033
20 0.001996
26 0.000999
44 0.001006
63 0.0
79 0.001011
95 0.001032
112 0.0
113 0.0
109 0.0
107 0.002029
120 0.000956
134 0.001983
146 0.001997
162 0.002016
172 0.001995
181 0.0
189 0.002002
196 0.001983
206 0.001037
212 0.00201
220 0.0
216 0.002992
57 0.000994
19 0.002047
17 0.001955
39 0.001985
57 0.001997
71 0.001997
84 0.002026
97 0.002024
104 0.001994
101 0.001009
100 0.000995
106 0.001978
125 0.001995
138 0.001974
150 0.001963
164 0.00097
175 0.001054
183 0.001008
191 0.001983
199 0.002994
207 0.002018
214 0.001993
218 0.001942
166 0.002988
27 0.001999
16 0.001995
26 0.001951
52 0.000999
68 0.000998
84 0.000965
98 0.002035
107 0.001996
107 0.000996
101 0.001029
101 0.002001
109 0.00208
131 0.000992
144 0.001992
156 0.002035
170 0.001954
178 0.002024
187 0.002027
195 0.002949
201 0.002992
205 0.00199
126 0.001001
44 0.000991
22 0.000961
37 0.001026
57 0.003006
77 0.003024
99 0.001952
113 0.001993
121 0.001995
117 0.002927
112 0.002035
117 0.000952
126 0.002032
138 0.001997
158 0.002005
168 0.001996
178 0.002994
186 0.002992
195 0.000982
203 0.000965
208 0.000968
213 0.000998
177 0.003033
70 0.002996
19 0.002007
21 0.001995
48 0.001984
63 0.001993
77 0.000992
89 0.002987
98 0.003028
97 0.000999
94 0.000991
93 0.000963
101 0.003027
113 0.003043
131 0.001979
143 0.002004
162 0.001993
170 0.001995
179 0.00104
185 0.002992
193 0.002992
202 0.001012
205 0.000996
140 0.000999
52 0.002947
21 0.003031
28 0.001996
45 0.001982
71 0.001982
83 0.001992
95 0.00196
100 0.003018
100 0.003027
92 0.001992
97 0.001994
106 0.002032
118 0.003003
133 0.003042
149 0.001998
160 0.002019
177 0.001987
185 0.001996
192 0.001985
198 0.002992
185 0.002993
64 0.002002
30 0.001983
29 0.001009
45 0.003022
63 0.004039
87 0.000969
103 0.002052
119 0.002026
113 0.002036
106 0.001994
104 0.004036
114 0.004024
131 0.001983
144 0.002012
157 0.001989
167 0.003032
177 0.002937
187 0.000981
196 0.002024
209 0.002036
168 0.002013
69 0.002007
24 0.004025
18 0.00399
38 0.002017
61 0.002013
82 0.00201
101 0.003987
119 0.002992
136 0.001977
145 0.000993
157 0.00198
167 0.003002
176 0.002026
185 0.004017
193 0.003981
205 0.001965
213 0.002002
218 0.001965
223 0.00402
191 0.003986
235 0.002013
224 0.001994
83 0.001997
64 0.002004
76 0.001997
95 0.003984
113 0.004031
131 0.003012
143 0.003033
152 0.00202
160 0.003978
167 0.003995
176 0.002025
186 0.003995
197 0.002021
203 0.001995
208 0.00098
215 0.00399
220 0.004997
226 0.002998
232 0.002998
235 0.002001
238 0.004017
223 0.00399
101 0.002037
58 0.004026
76 0.00198
94 0.003047
109 0.001995
123 0.00399
135 0.003976
146 0.001953
153 0.002043
160 0.001998
166 0.004978
173 0.003988
184 0.00203
192 0.004023
200 0.002997
205 0.002989
210 0.002994
215 0.003987
220 0.004027
201 0.003026
104 0.001989
48 0.002958
45 0.004988
64 0.005025
89 0.002004
107 0.004986
125 0.00299
135 0.00299
142 0.002957
149 0.003989
155 0.004033
167 0.001998
174 0.00299
180 0.00296
186 0.005018
193 0.004988
200 0.001965
207 0.005051
212 0.001996
217 0.003
215 0.002995
143 0.003958
43 0.003972
19 0.004012
33 0.002038
54 0.002947
72 0.004995
87 0.005034
103 0.002988
116 0.004987
127 0.00299
136 0.002998
144 0.002995
152 0.004987
161 0.003989
171 0.002995
176 0.003999
184 0.003992
190 0.002993
195 0.00502
199 0.00504
206 0.00503
213 0.005038
194 0.003015
80 0.00299
18 0.002993
13 0.00502
30 0.00499
56 0.00399
73 0.003026
87 0.003952
102 0.004954
114 0.005025
127 0.004985
136 0.004987
149 0.002991
156 0.002998
164 0.002995
173 0.004983
178 0.005976
187 0.004021
192 0.00396
197 0.003994
201 0.006018
207 0.004959
205 0.004988
134 0.005019
28 0.00399
22 0.003035
39 0.002987
58 0.005016
74 0.005025
98 0.003987
114 0.003959
123 0.003996
133 0.00602
146 0.003987
155 0.005019
165 0.005015
177 0.00302
187 0.003006
195 0.002945
202 0.004986
209 0.006019
213 0.002992
197 0.003984
198 0.002984
120 0.006022
0 0.002977
0 0.004987
0 0.004987
0 0.002992
0 0.003969
17 0.003002
35 0.006026
47 0.005982
48 0.00399
46 0.004
50 0.004025
62 0.006015
84 0.003958
97 0.004997
108 0.004987
124 0.003999
133 0.004981
142 0.002996
151 0.005017
160 0.005985
158 0.003983
56 0.004
0 0.003988
0 0.007032
0 0.004028
0 0.006032
10 0.006032
31 0.004001
44 0.005002
52 0.004991
52 0.00602
51 0.005984
58 0.004021
70 0.004041
85 0.003946
99 0.006017
121 0.003979
131 0.006029
141 0.006031
153 0.004
161 0.003985
170 0.003961
142 0.006024
32 0.006003
52 0.003994
52 0.004956
61 0.00403
70 0.006008
84 0.003969
92 0.005989
99 0.005984
100 0.003993
99 0.004001
100 0.004011
104 0.005977
111 0.006981
120 0.004985
127 0.004931
133 0.004963
138 0.007008
146 0.004987
151 0.006017
155 0.005984
154 0.003991
107 0.005032
72 0.005006
63 0.006981
67 0.006977
81 0.004986
91 0.004988
101 0.004952
109 0.006019
115 0.004982
114 0.006022
111 0.006025
114 0.003989
121 0.003978
127 0.003973
134 0.006068
140 0.006943
147 0.005007
151 0.004952
156 0.004027
160 0.006992
123 0.004979
80 0.005995
66 0.006956
71 0.004953
81 0.004987
91 0.004991
101 0.005984
110 0.006038
118 0.003988
120 0.005042
119 0.004947
119 0.006019
126 0.004994
132 0.006017
138 0.006976
145 0.005009
150 0.004987
154 0.004989
158 0.006972
163 0.00697
168 0.00502
157 0.004987
100 0.004985
65 0.005009
68 0.004939
76 0.005988
85 0.006
94 0.004988
102 0.004032
108 0.005973
112 0.007016
111 0.006982
111 0.004981
115 0.004954
121 0.004949
132 0.004997
139 0.004992
144 0.005999
151 0.007979
154 0.006982
159 0.005985
164 0.005956
167 0.005984
170 0.007013
152 0.007012
83 0.004986
67 0.004987
73 0.004986
84 0.004995
92 0.004985
100 0.006987
109 0.007011
117 0.004989
118 0.005996
118 0.006004
118 0.006943
122 0.006982
131 0.005955
137 0.004979
146 0.005109
151 0.004968
156 0.005015
160 0.006937
164 0.007016
169 0.004986
172 0.005032
175 0.004982
163 0.00701
106 0.006984
74 0.005954
75 0.005995
91 0.005981
102 0.005955
110 0.005977
119 0.006929
125 0.00702
127 0.005979
125 0.005953
125 0.005993
129 0.007027
135 0.007021
143 0.004974
148 0.004981
156 0.004987
160 0.005994
164 0.005956
167 0.007935
169 0.007932
120 0.004991
81 0.006001
70 0.005957
75 0.007979
85 0.007981
99 0.005979
108 0.006978
122 0.00598
126 0.004995
128 0.005017
128 0.007979
131 0.007011
137 0.004023
143 0.005985
148 0.005983
153 0.007949
157 0.007978
163 0.005987
166 0.005978
172 0.005972
175 0.005991
175 0.005945
126 0.007933
80 0.006981
67 0.005931
72 0.007039
82 0.005985
91 0.007938
99 0.007979
110 0.005974
116 0.005979
118 0.005979
119 0.006023
121 0.005984
128 0.007011
135 0.007013
140 0.005994
146 0.006946
151 0.006947
155 0.007995
159 0.007944
164 0.00698
167 0.006952
173 0.005946
167 0.005982
110 0.005985
70 0.007979
68 0.007979
76 0.005945
86 0.006953
96 0.004965
108 0.006984
116 0.00698
120 0.006988
122 0.007978
122 0.005985
125 0.006982
131 0.005985
136 0.007978
144 0.007978
149 0.005983
153 0.00598
158 0.006969
163 0.006981
166 0.007015
170 0.005991
174 0.007979
149 0.005982
95 0.00698
75 0.005983
77 0.007978
87 0.00794
97 0.005959
108 0.006982
117 0.005963
126 0.007016
128 0.007015
128 0.00698
129 0.007022
135 0.006925
140 0.006985
144 0.006016
150 0.007993
155 0.008013
160 0.007015
163 0.00597
167 0.005979
171 0.006979
174 0.007947
174 0.006979
108 0.007979
69 0.005983
66 0.00698
77 0.006992
87 0.00701
96 0.006967
107 0.006692
112 0.005998
117 0.007005
118 0.007977
118 0.008015
120 0.005936
130 0.007012
136 0.006982
141 0.006965
146 0.006959
152 0.007029
157 0.007019
161 0.00696
165 0.006983
168 0.006957
172 0.007015
174 0.007
141 0.006992
76 0.00798
64 0.006971
74 0.00694
84 0.006985
94 0.006989
102 0.007017
110 0.007014
116 0.006979
118 0.006978
118 0.006959
120 0.007016
124 0.006978
135 0.00601
141 0.006967
148 0.006971
151 0.006982
157 0.006974
161 0.007012
165 0.00698
169 0.006967
172 0.006953
169 0.00698
119 0.006962
79 0.006984
71 0.007044
80 0.007019
91 0.006982
101 0.006982
113 0.006017
120 0.00698
124 0.005981
126 0.005979
126 0.006988
128 0.006978
133 0.007018
140 0.006959
148 0.007017
153 0.007016
158 0.006033
162 0.006983
165 0.006977
169 0.006015
170 0.006018
134 0.005984
86 0.005982
72 0.005986
74 0.006017
88 0.006974
103 0.006979
112 0.006968
122 0.006964
127 0.006978
128 0.00601
128 0.005979
130 0.006048
136 0.005953
141 0.005984
146 0.006015
152 0.005985
159 0.006016
163 0.006021
166 0.007017
169 0.006994
172 0.006982
143 0.006013
87 0.006019
65 0.006084
66 0.005946
75 0.005969
86 0.005977
94 0.006016
108 0.00599
114 0.006023
116 0.005979
117 0.006982
118 0.006966
122 0.006941
130 0.006023
136 0.006992
143 0.006007
149 0.005983
153 0.005983
157 0.006011
164 0.00599
167 0.006012
160 0.006031
87 0.005987
64 0.005984
62 0.005976
70 0.006982
80 0.006022
92 0.005935
102 0.006006
109 0.005941
114 0.006023
117 0.006001
119 0.005943
122 0.006026
130 0.005982
136 0.005957
142 0.005018
147 0.006012
151 0.006018
158 0.006025
162 0.006079
165 0.005985
169 0.005985
148 0.005984
92 0.00595
70 0.006017
70 0.004987
80 0.005985
91 0.00598
101 0.004996
110 0.005014
119 0.00603
122 0.006026
122 0.005992
121 0.005965
126 0.005984
133 0.00602
139 0.006016
146 0.005973
151 0.005982
156 0.005982
160 0.005018
163 0.005042
169 0.004992
169 0.005981
130 0.006018
84 0.006008
70 0.005998
77 0.006015
88 0.005985
102 0.004992
111 0.005946
119 0.005028
123 0.005024
124 0.005017
123 0.005031
126 0.005023
132 0.00595
137 0.006016
146 0.006027
151 0.00602
156 0.005986
162 0.005022
165 0.005024
169 0.005035
172 0.005018
175 0.00502
179 0.005017
175 0.005017
120 0.00504
76 0.005022
67 0.004955
76 0.006014
84 0.006038
94 0.005972
100 0.004981
106 0.00502
110 0.005018
111 0.00502
113 0.004984
118 0.005111
125 0.004987
137 0.005023
143 0.004986
149 0.004973
155 0.004984
161 0.006015
165 0.005021
169 0.004995
172 0.005017
176 0.005021
179 0.005035
183 0.005029
186 0.004978
147 0.005018
95 0.005045
76 0.003988
76 0.00502
83 0.004021
95 0.004988
103 0.004988
110 0.004024
116 0.005034
120 0.005026
122 0.004986
122 0.005001
129 0.004986
135 0.00496
141 0.004986
147 0.004986
152 0.004988
158 0.004987
162 0.004949
166 0.00399
169 0.004127
173 0.004941
177 0.00402
180 0.004039
180 0.004128
135 0.003985
89 0.003988
75 0.004022
77 0.004001
90 0.005025
100 0.005034
109 0.00502
117 0.005034
123 0.005025
128 0.005019
128 0.004988
130 0.004957
135 0.003994
140 0.003993
145 0.004031
150 0.003995
156 0.003994
160 0.004021
164 0.004019
167 0.004987
170 0.004961
174 0.005021
172 0.005019
95 0.005012
76 0.004035
76 0.003991
86 0.004145
96 0.005019
109 0.004026
118 0.004026
125 0.004024
129 0.004033
131 0.004067
131 0.004029
134 0.003992
142 0.005025
147 0.004987
152 0.004043
156 0.004022
160 0.004028
164 0.004023
168 0.003992
170 0.004031
173 0.004022
159 0.004022
87 0.003992
67 0.004001
69 0.00399
79 0.005061
89 0.00402
97 0.004123
105 0.003988
113 0.003957
115 0.003733
115 0.004023
116 0.003984
119 0.004004
127 0.004021
132 0.004025
142 0.004021
147 0.004022
152 0.003988
155 0.004029
159 0.00402
164 0.004022
162 0.00401
113 0.003991
72 0.004021
60 0.004026
64 0.004021
77 0.003952
88 0.003979
96 0.003001
103 0.002992
108 0.004032
109 0.002959
110 0.002991
112 0.002992
118 0.004025
125 0.004036
131 0.003984
139 0.004039
146 0.00399
152 0.00503
156 0.002992
160 0.003029
164 0.003031
167 0.002993
131 0.003028
83 0.003027
66 0.003991
67 0.004043
75 0.004025
88 0.004024
100 0.003987
111 0.00399
116 0.002992
116 0.003038
114 0.003029
114 0.002992
120 0.002992
126 0.002992
133 0.003991
139 0.00399
144 0.003993
151 0.002998
156 0.003959
162 0.00399
165 0.002993
157 0.003043
106 0.003028
75 0.003015
70 0.004026
78 0.003026
88 0.002992
99 0.003024
108 0.002994
119 0.002962
122 0.002979
120 0.00399
120 0.002993
124 0.003021
130 0.003021
136 0.002993
144 0.002992
149 0.00299
154 0.004005
157 0.002992
161 0.002992
167 0.002977
171 0.004016
158 0.003948
100 0.002993
71 0.00299
64 0.003051
69 0.002993
81 0.003023
88 0.004024
95 0.002992
103 0.002992
108 0.004021
108 0.004063
108 0.003987
111 0.003054
119 0.003008
126 0.003032
133 0.003027
139 0.003026
145 0.002936
152 0.002992
156 0.001993
160 0.003022
165 0.003033
168 0.001995
164 0.001988
108 0.002992
68 0.00296
64 0.002976
70 0.003024
80 0.003026
89 0.002993
98 0.002994
106 0.003025
111 0.002992
112 0.003004
111 0.001993
115 0.002958
122 0.001995
131 0.002992
138 0.002992
144 0.00307
150 0.002992
154 0.003023
160 0.003036
165 0.00303
168 0.002027
172 0.002992
175 0.001994
127 0.001994
84 0.002006
72 0.001996
78 0.002965
88 0.001964
98 0.002986
106 0.002992
118 0.003
123 0.001962
124 0.001995
122 0.001995
124 0.001983
129 0.001997
136 0.001994
144 0.001995
149 0.001996
155 0.001957
159 0.002993
163 0.003005
169 0.00301
172 0.001996
175 0.001995
174 0.002024
95 0.002003
75 0.001994
74 0.001995
86 0.001995
97 0.001967
106 0.00203
115 0.00195
123 0.00203
128 0.001986
127 0.002039
128 0.001999
131 0.002004
140 0.001993
146 0.002013
152 0.002992
158 0.002045
162 0.001995
166 0.001996
170 0.001995
173 0.002002
177 0.001996
180 0.002033
181 0.002038
147 0.001995
73 0.002041
67 0.001015
72 0.00203
85 0.001999
93 0.001996
100 0.002007
109 0.001994
114 0.002061
117 0.001996
118 0.001996
120 0.001991
125 0.002037
135 0.001998
141 0.002019
147 0.002023
154 0.002043
158 0.00199
162 0.001009
166 0.001001
169 0.000997
174 0.001997
176 0.001997
159 0.001994
99 0.001995
65 0.001995
69 0.001997
79 0.00204
92 0.002044
101 0.001032
110 0.000999
117 0.001043
121 0.000998
123 0.000997
125 0.000997
129 0.000972
134 0.001943
144 0.001995
150 0.000991
154 0.000997
160 0.001989
164 0.001996
168 0.002053
171 0.00203
174 0.000998
179 0.001008
181 0.001012
181 0.001995
145 0.001
77 0.002
73 0.002033
80 0.002025
95 0.001987
106 0.000999
115 0.000997
122 0.000998
127 0.002051
129 0.000997
128 0.000998
131 0.002043
136 0.000997
145 0.002001
149 0.002001
154 0.000997
160 0.000999
163 0.000998
167 0.000997
170 0.000976
173 0.002059
161 0.001995
103 0.000998
73 0.001988
71 0.001994
81 0.001988
92 0.001994
101 0.000993
113 0.001965
120 0.000998
123 0.000997
124 0.000996
125 0.000998
128 0.000993
134 0.001022
140 0.000986
148 0.001033
153 0.00199
157 0.001987
161 0.001996
166 0.001995
169 0.000997
172 0.000995
175 0.000948
155 0.000996
94 0.001013
63 0.000998
62 0.000998
76 0.000994
86 0.000998
93 0.001993
101 0.000981
107 0.000966
110 0.002048
109 0.0
109 0.0
113 0.0
119 0.0
128 0.0
134 0.0
144 0.0
148 0.000963
152 0.001008
156 0.000997
160 0.000977
165 0.001003
168 0.000967
150 0.001014
92 0.000998
65 0.0
62 0.0
69 0.0
84 0.0
92 0.0
100 0.0
106 0.001
108 0.0
106 0.000997
106 0.001007
110 0.0
117 0.0
124 0.000997
133 0.000998
139 0.0
148 0.0
152 0.0
156 0.0
160 0.0
163 0.0
168 0.0
156 0.00101
101 0.0
72 0.000998
67 0.0
76 0.0
86 0.0
101 0.0
110 0.0
116 0.0
115 0.0
112 0.000998
111 0.0
115 0.0
122 0.0
129 0.0
136 0.0
143 0.0
149 0.0
156 0.0
160 0.0
164 0.0
167 0.001005
141 0.001005
81 0.0
68 0.0
71 0.0
78 0.0
89 0.0
103 0.001029
111 0.001033
118 0.0
116 0.0
115 0.000997
114 0.0
118 0.000997
127 0.0
135 0.000998
142 0.0
147 0.0
152 0.000975
158 0.0
162 0.0
168 0.0
171 0.0
172 0.0
135 0.0
75 0.0
63 0.0
67 0.0
74 0.0
86 0.000952
89 0.0
99 0.001052
105 0.001012
105 0.000992
104 0.001007
108 0.0
113 0.0
120 0.0
128 0.002031
135 0.00202
143 0.0
149 0.0
153 0.0
157 0.002042
164 0.000958
168 0.0
171 0.001995
134 0.000965
84 0.0
66 0.0
66 0.000997
74 0.001967
86 0.0
93 0.0
101 0.0
108 0.001958
112 0.0
111 0.002042
113 0.002022
119 0.0
126 0.0
133 0.0
140 0.002026
146 0.002027
153 0.0
158 0.000969
162 0.0
166 0.001995
172 0.0
173 0.002
141 0.00207
81 0.0
72 0.0
75 0.001985
85 0.002042
95 0.002031
108 0.0
116 0.0
122 0.000982
123 0.001995
118 0.000989
118 0.001999
123 0.002046
133 0.0
140 0.0
145 0.001003
151 0.000974
156 0.001982
161 0.0
165 0.0
169 0.0
171 0.002026
102 0.0
76 0.0
72 0.002988
79 0.00202
93 0.0
102 0.0
111 0.000941
119 0.001993
124 0.00202
124 0.000967
123 0.0
124 0.001001
133 0.0
138 0.0
145 0.002029
150 0.002053
157 0.00094
161 0.000996
166 0.0
168 0.001996
171 0.002029
174 0.001056
130 0.000999
84 0.0
69 0.0
76 0.001046
86 0.00302
94 0.002026
102 0.000954
112 0.0
116 0.0
117 0.001993
115 0.002026
117 0.0
122 0.0
128 0.0
140 0.000998
145 0.0
151 0.003033
155 0.002026
161 0.000999
165 0.0
169 0.000991
172 0.002044
172 0.001994
107 0.0
76 0.0
70 0.0
83 0.000957
93 0.0
101 0.00196
109 0.002001
119 0.0
123 0.0
123 0.0
122 0.003034
124 0.002044
131 0.000968
137 0.0
147 0.0
153 0.0
157 0.0
161 0.002964
165 0.001995
170 0.0
174 0.0
174 0.000993
134 0.001963
89 0.001987
75 0.0
81 0.000964
99 0.0
109 0.000958
119 0.0
126 0.002056
131 0.002992
132 0.0
131 0.0
133 0.0
138 0.002047
144 0.002001
150 0.0
156 0.0
163 0.0
167 0.0
170 0.0
174 0.001997
176 0.00297
130 0.001999
84 0.0
71 0.0
73 0.001965
83 0.002955
98 0.0
107 0.0
121 0.000955
126 0.0
128 0.001999
128 0.002053
130 0.002979
136 0.001995
141 0.0
147 0.0
152 0.002998
157 0.002999
163 0.0
166 0.000967
172 0.0
175 0.0
177 0.000961
148 0.003002
88 0.003012
65 0.001978
68 0.001987
77 0.003001
88 0.002993
97 0.002993
109 0.00198
116 0.002023
121 0.001996
122 0.000952
124 0.0
128 0.002953
134 0.002992
142 0.002028
147 0.00096
152 0.00095
157 0.002994
161 0.002998
166 0.001959
169 0.0
175 0.002028
159 0.0
97 0.001038
69 0.002966
65 0.003955
77 0.001035
88 0.001996
98 0.000997
108 0.002984
117 0.002986
123 0.001994
126 0.001964
128 0.0
132 0.002007
138 0.002999
143 0.002942
149 0.002936
156 0.001995
161 0.00198
164 0.001994
168 0.002028
172 0.002994
176 0.002004
177 0.002
99 0.002006
73 0.001036
70 0.0
79 0.0
91 0.004041
102 0.002993
115 0.001984
123 0.001992
127 0.001995
130 0.00399
130 0.004025
134 0.004044
140 0.00299
148 0.001988
153 0.003001
158 0.001995
164 0.002929
167 0.002992
172 0.001994
175 0.001991
164 0.002003
104 0.004027
73 0.004029
71 0.003992
82 0.003992
98 0.002992
108 0.003014
118 0.000999
124 0.002992
128 0.002992
131 0.001999
132 0.002992
136 0.001996
142 0.003978
148 0.004023
156 0.002983
160 0.004012
165 0.002035
169 0.002004
172 0.002993
175 0.003958
158 0.002993
80 0.001996
61 0.002
61 0.001998
70 0.004002
81 0.003998
97 0.004017
106 0.00404
115 0.001933
119 0.001993
120 0.001985
121 0.002992
126 0.003989
134 0.002994
140 0.001988
146 0.001028
151 0.00399
156 0.005032
162 0.004036
166 0.003989
171 0.002999
162 0.001996
101 0.001994
66 0.002985
59 0.00399
68 0.002996
79 0.002
89 0.002992
98 0.00399
107 0.003989
116 0.003992
118 0.004934
120 0.002028
123 0.003002
130 0.002992
137 0.003988
143 0.005016
150 0.002033
155 0.002005
159 0.001996
163 0.004022
167 0.004034
161 0.004998
104 0.00401
66 0.001961
64 0.003006
72 0.001996
84 0.004975
95 0.00497
108 0.003013
116 0.001998
121 0.002027
121 0.004987
120 0.004031
125 0.004024
131 0.003996
139 0.003025
144 0.001996
150 0.002014
155 0.004983
159 0.004985
165 0.002961
165 0.002992
119 0.002
76 0.004983
64 0.004981
73 0.005004
84 0.00502
97 0.002999
107 0.002995
116 0.002012
119 0.004051
121 0.004989
119 0.003038
122 0.003016
128 0.003973
135 0.004987
141 0.005025
150 0.005022
155 0.00504
160 0.002031
164 0.002994
167 0.003028
170 0.00499
133 0.003982
71 0.003002
62 0.002988
65 0.002988
74 0.004977
89 0.003
96 0.005018
103 0.005986
109 0.002994
109 0.003002
108 0.00302
110 0.004988
116 0.005951
125 0.002995
132 0.003006
139 0.00299
145 0.003006
153 0.002978
157 0.003022
161 0.005982
165 0.005985
152 0.002988
96 0.003943
69 0.002976
64 0.006016
72 0.006017
85 0.002994
94 0.00298
101 0.002992
113 0.003002
115 0.00298
114 0.004973
114 0.004949
118 0.002978
124 0.003979
132 0.003957
139 0.004988
145 0.005019
152 0.003009
156 0.003992
161 0.002965
167 0.002962
170 0.003999
146 0.005021
94 0.006985
74 0.004009
77 0.002978
87 0.003944
98 0.005022
107 0.005018
119 0.002984
125 0.002959
126 0.003953
119 0.003023
120 0.003028
124 0.005986
131 0.006038
141 0.002992
146 0.003031
151 0.004012
156 0.004996
161 0.004986
166 0.003001
169 0.004009
152 0.003991
84 0.003982
78 0.003959
82 0.005952
92 0.006038
105 0.004983
115 0.003986
123 0.003958
128 0.006984
128 0.005019
123 0.002958
123 0.003992
128 0.001997
138 0.002995
144 0.003957
149 0.005963
154 0.005979
160 0.003989
164 0.003989
168 0.003957
172 0.005988
175 0.005987
144 0.003
94 0.003987
77 0.003957
81 0.003951
90 0.003986
98 0.006021
105 0.006023
114 0.004991
119 0.003989
120 0.005015
118 0.006016
118 0.006014
124 0.003051
130 0.003989
137 0.003865
147 0.004022
153 0.00398
157 0.007017
161 0.007015
166 0.003989
170 0.003957
173 0.003952
152 0.006015
100 0.006981
77 0.003985
78 0.003985
94 0.003998
102 0.003995
110 0.004986
118 0.006948
123 0.006978
125 0.004942
123 0.004982
122 0.003989
126 0.00701
133 0.007019
145 0.004937
152 0.003994
164 0.004988
169 0.003954
174 0.004965
179 0.006983
184 0.007021
189 0.004958
184 0.004006
120 0.004955
76 0.007012
66 0.007017
77 0.003986
90 0.003995
111 0.00399
122 0.003028
130 0.004957
135 0.006054
134 0.006948
130 0.003991
132 0.003989
138 0.004986
146 0.006961
153 0.006982
161 0.004024
167 0.00499
175 0.004996
180 0.003985
184 0.004987
187 0.006988
177 0.006982
94 0.005004
70 0.004989
71 0.00595
82 0.007017
96 0.007016
114 0.004947
126 0.003996
138 0.004987
140 0.003985
137 0.004979
136 0.007911
142 0.007977
148 0.004985
154 0.004976
160 0.005071
167 0.007012
171 0.007015
178 0.004989
182 0.004967
185 0.007033
119 0.005059
71 0.005019
59 0.005
64 0.007013
77 0.006983
95 0.005955
107 0.004006
119 0.005003
128 0.007981
131 0.00798
129 0.004981
130 0.006984
137 0.004988
145 0.00599
152 0.004994
158 0.007013
163 0.006952
171 0.005986
175 0.005985
179 0.005025
184 0.007011
185 0.006927
113 0.003986
51 0.007969
51 0.004982
62 0.005957
75 0.004968
87 0.007974
98 0.00795
111 0.004971
117 0.004981
118 0.004973
117 0.006984
119 0.006984
126 0.003988
137 0.00799
147 0.005027
154 0.004957
161 0.004988
166 0.007014
173 0.00794
178 0.004977
183 0.004984
181 0.004986
117 0.007012
62 0.007012
48 0.004984
65 0.00799
79 0.005996
91 0.005954
102 0.00596
115 0.00798
120 0.007963
120 0.005947
121 0.006028
124 0.005023
132 0.007977
140 0.007954
151 0.007027
158 0.007979
166 0.005986
171 0.006944
176 0.005953
180 0.007975
186 0.007967
189 0.005974
162 0.005987
88 0.00501
55 0.007992
59 0.007973
81 0.007003
90 0.007981
107 0.006004
118 0.006964
125 0.005972
129 0.007953
129 0.007979
131 0.005947
138 0.00696
143 0.005988
152 0.006953
160 0.007983
167 0.007949
174 0.007953
179 0.005983
183 0.005951
187 0.006004
172 0.007979
101 0.007943
58 0.006979
61 0.005949
73 0.005984
88 0.007974
107 0.006991
125 0.007985
132 0.006981
136 0.006952
137 0.005952
139 0.006012
146 0.006986
153 0.007978
159 0.005943
164 0.005939
170 0.005989
177 0.007948
182 0.007978
188 0.007976
188 0.006976
142 0.006977
73 0.006001
49 0.006013
53 0.00696
66 0.006984
80 0.006011
93 0.005949
105 0.006018
117 0.006953
122 0.008022
123 0.007978
127 0.00698
134 0.006951
143 0.006977
147 0.006954
157 0.006986
163 0.007017
170 0.005985
173 0.006039
178 0.005977
183 0.006981
182 0.00701
74 0.007944
50 0.007979
41 0.006978
51 0.006978
64 0.007004
79 0.00698
91 0.006979
104 0.006987
107 0.006943
111 0.006974
111 0.007016
115 0.007017
128 0.006986
136 0.007059
144 0.006933
150 0.005986
159 0.006952
164 0.006997
170 0.006985
175 0.006924
180 0.006977
157 0.006978
82 0.006966
48 0.007013
49 0.006978
62 0.006963
80 0.006023
88 0.005984
100 0.006952
112 0.005981
116 0.006994
117 0.00695
117 0.005984
125 0.006981
133 0.007021
143 0.006974
151 0.006013
159 0.006979
165 0.00702
173 0.006023
177 0.00598
182 0.005985
186 0.006019
187 0.005973
115 0.006947
75 0.006984
51 0.006959
66 0.006979
76 0.005983
93 0.00703
106 0.00697
119 0.005966
125 0.005985
127 0.006018
128 0.006043
132 0.00598
142 0.005984
149 0.006048
155 0.006019
165 0.006978
169 0.006945
176 0.006014
180 0.006968
184 0.006978
189 0.005963
193 0.005962
196 0.005946
199 0.005997
205 0.005999
191 0.005975
106 0.00598
47 0.006053
48 0.00698
62 0.00703
76 0.006981
88 0.006982
103 0.005974
111 0.005984
116 0.005982
119 0.005984
122 0.005983
127 0.005984
134 0.006938
144 0.00698
151 0.006958
160 0.006023
166 0.006009
172 0.005975
176 0.005987
180 0.005995
185 0.005968
189 0.005986
193 0.005946
196 0.00598
200 0.005982
197 0.005024
128 0.005993
64 0.006014
45 0.006024
54 0.005966
68 0.005984
81 0.00599
94 0.00598
105 0.006028
115 0.004982
120 0.005982
124 0.006001
132 0.005946
139 0.005024
145 0.004965
152 0.005988
160 0.006004
165 0.005997
170 0.005983
174 0.005979
178 0.005986
183 0.005977
188 0.005988
191 0.006006
197 0.00599
200 0.004964
203 0.005021
193 0.00597
92 0.005993
55 0.006016
51 0.005977
61 0.005974
75 0.005981
93 0.004987
104 0.005972
113 0.005986
123 0.005975
127 0.005996
131 0.004974
138 0.005016
145 0.004985
151 0.005019
157 0.004987
162 0.006004
167 0.005981
173 0.006008
177 0.005991
180 0.005982
186 0.004968
190 0.005105
193 0.004957
186 0.004974
103 0.004986
63 0.005019
57 0.004984
66 0.004988
81 0.005983
98 0.005001
109 0.006038
122 0.005993
127 0.005935
132 0.004994
136 0.005981
140 0.004985
148 0.005026
154 0.004963
160 0.00499
164 0.004989
169 0.004982
174 0.005022
178 0.004997
184 0.005015
184 0.005002
145 0.005982
72 0.004983
44 0.005027
46 0.004986
59 0.00495
71 0.004976
85 0.005026
97 0.004992
107 0.004979
113 0.004978
120 0.004987
124 0.004987
130 0.005014
136 0.00499
143 0.004986
152 0.004994
156 0.003949
161 0.004003
166 0.004009
170 0.00402
176 0.005009
176 0.004996
75 0.005032
34 0.004996
26 0.004982
34 0.004986
47 0.00487
64 0.00399
76 0.005011
87 0.004978
94 0.004974
99 0.004988
101 0.00501
104 0.00501
113 0.003976
123 0.004027
130 0.003944
137 0.004002
143 0.004997
148 0.00495
155 0.004977
161 0.004988
165 0.005004
150 0.00398
74 0.004987
27 0.004025
27 0.003987
42 0.003997
55 0.00398
67 0.003955
78 0.003991
87 0.003958
92 0.00399
91 0.004959
92 0.004985
98 0.005008
106 0.003989
118 0.004027
129 0.003993
139 0.004031
145 0.003991
151 0.004021
156 0.004022
161 0.003951
162 0.003988
112 0.004021
53 0.005
34 0.004952
36 0.004988
52 0.00399
68 0.003989
85 0.003951
95 0.00399
99 0.005002
96 0.003004
92 0.00399
95 0.005001
102 0.004985
112 0.004985
121 0.003984
130 0.004028
140 0.004026
148 0.003993
157 0.004031
162 0.003997
146 0.003992
79 0.004034
43 0.004025
36 0.004018
45 0.003994
58 0.004015
68 0.004047
79 0.003959
93 0.003023
93 0.003994
89 0.003999
90 0.00403
96 0.003984
106 0.004005
116 0.004036
128 0.003992
136 0.003987
144 0.003992
150 0.004005
155 0.003951
165 0.00399
170 0.00399
137 0.003983
68 0.002978
39 0.004001
35 0.003989
41 0.003972
54 0.002993
61 0.00296
68 0.003991
77 0.003988
81 0.00399
81 0.00401
83 0.003982
91 0.003938
101 0.003982
111 0.003951
122 0.003049
131 0.003988
143 0.003016
150 0.002992
156 0.003015
162 0.002953
167 0.002988
177 0.003993
180 0.003959
114 0.004005
60 0.003998
43 0.003954
45 0.003022
54 0.004002
66 0.002991
73 0.002987
83 0.002941
90 0.002964
92 0.002999
92 0.002994
94 0.004024
104 0.004017
114 0.003984
125 0.004011
134 0.003983
143 0.003999
154 0.002942
160 0.002951
166 0.002958
172 0.002976
178 0.003998
186 0.004088
191 0.003998
178 0.00296
104 0.003979
64 0.002991
56 0.002991
63 0.003994
79 0.003973
90 0.003032
101 0.003035
110 0.00299
114 0.003022
109 0.003028
107 0.003022
114 0.002959
123 0.002977
132 0.003949
143 0.004014
152 0.002992
161 0.003968
168 0.002999
173 0.002996
178 0.002999
183 0.002998
190 0.003034
193 0.002996
124 0.002995
73 0.00301
59 0.003028
63 0.00299
75 0.002989
91 0.002989
103 0.003042
114 0.002964
122 0.002
125 0.001994
121 0.001998
124 0.002959
133 0.002964
143 0.002971
151 0.003007
158 0.002983
165 0.00299
174 0.001957
179 0.002997
183 0.002981
188 0.002936
193 0.002943
200 0.001977
205 0.002967
203 0.003004
136 0.002991
75 0.003009
56 0.002983
59 0.003024
75 0.003001
87 0.003001
97 0.002025
108 0.002006
121 0.001952
124 0.001961
125 0.002959
126 0.002022
134 0.003024
142 0.002996
150 0.002974
158 0.003022
164 0.002992
172 0.002993
178 0.001995
182 0.002001
190 0.003033
194 0.001949
198 0.00196
202 0.003
192 0.00299
115 0.00299
66 0.002996
56 0.002048
64 0.001944
83 0.002006
97 0.001983
108 0.001999
124 0.003
131 0.002937
135 0.002994
138 0.003032
143 0.00299
150 0.001946
157 0.002031
163 0.001994
169 0.00195
175 0.002008
181 0.002038
185 0.002025
192 0.002032
196 0.001985
200 0.002008
201 0.001988
142 0.002984
80 0.002954
63 0.001995
66 0.002992
79 0.001995
100 0.00299
112 0.002003
123 0.002021
134 0.002038
140 0.001983
142 0.002026
146 0.003017
153 0.002026
160 0.001994
165 0.002027
172 0.002003
176 0.00196
182 0.002028
186 0.002007
189 0.001994
196 0.001994
195 0.002025
146 0.002005
75 0.002013
49 0.002025
55 0.001989
70 0.001998
84 0.000952
97 0.001994
113 0.00096
120 0.001994
126 0.00205
131 0.001995
136 0.001993
141 0.001998
147 0.001987
156 0.001978
162 0.002047
167 0.002028
173 0.002035
178 0.001994
183 0.001002
187 0.001006
191 0.001985
164 0.000962
80 0.002048
43 0.001995
38 0.001962
53 0.002038
67 0.001995
80 0.002025
92 0.002009
104 0.001995
113 0.001999
117 0.001994
119 0.002047
126 0.001997
134 0.002003
140 0.00195
148 0.001963
156 0.003022
163 0.002034
168 0.002015
173 0.001996
177 0.001021
184 0.000998
185 0.000998
147 0.001993
46 0.000981
38 0.002009
46 0.001044
61 0.001965
79 0.002032
92 0.002025
104 0.002023
112 0.002018
117 0.00199
120 0.000996
123 0.000997
135 0.002028
142 0.002066
149 0.00199
155 0.001993
161 0.00199
168 0.001979
174 0.002939
178 0.00104
182 0.002024
184 0.001984
123 0.001963
61 0.001032
46 0.000954
58 0.001027
72 0.002028
87 0.002032
100 0.0
114 0.002052
120 0.001996
123 0.001005
123 0.0
126 0.001032
135 0.001
141 0.001004
153 0.002025
160 0.000998
166 0.001986
171 0.00202
175 0.00199
181 0.002028
185 0.002008
160 0.000999
79 0.0
42 0.000997
38 0.001003
51 0.001006
74 0.000998
87 0.000997
99 0.000999
107 0.001995
112 0.001974
114 0.001993
116 0.000994
122 0.001001
130 0.000999
138 0.000977
147 0.0
154 0.0
164 0.001002
169 0.0
174 0.001003
180 0.000968
190 0.000997
172 0.001012
72 0.001026
46 0.0
44 0.0
51 0.001003
62 0.001023
76 0.001007
91 0.0
103 0.0
107 0.0
112 0.0
121 0.0
134 0.0
156 0.000966
177 0.0
197 0.001013
216 0.0
233 0.0
253 0.0
254 0.0
254 0.000987
254 0.0
253 0.0
183 0.0
143 0.0
127 0.001014
131 0.000968
136 0.0
137 0.0
139 0.0
139 0.0
135 0.0
121 0.0
113 0.0
112 0.0
113 0.0
119 0.001
128 0.000993
132 0.0
135 0.0
143 0.0
149 0.0
158 0.0
159 0.0
85 0.0
50 0.0
42 0.0
52 0.0
69 0.0
94 0.0
111 0.0
124 0.0
134 0.0
140 0.0
148 0.0
154 0.0
162 0.0
169 0.0
174 0.0
180 0.0
185 0.0
191 0.0
195 0.0
199 0.000955
201 0.000981
191 0.000968
90 0.000998
70 0.0
80 0.0
92 0.003026
103 0.0
113 0.0
123 0.0
132 0.001981
137 0.0
143 0.0
148 0.0
154 0.000999
164 0.0
173 0.0
178 0.000998
182 0.003033
187 0.0
192 0.0
195 0.0
199 0.001995
199 0.001994
145 0.0
82 0.001004
66 0.0
80 0.000998
91 0.0
102 0.003024
111 0.003001
120 0.000977
128 0.0
134 0.0
139 0.001994
145 0.003016
153 0.0
159 0.000997
164 0.000954
172 0.0
176 0.000953
180 0.000993
184 0.003037
189 0.0
193 0.001007
191 0.0
162 0.002994
93 0.003045
65 0.0
72 0.000994
84 0.0
101 0.0
110 0.0
118 0.00302
124 0.002991
130 0.0
135 0.0
141 0.0
146 0.002977
151 0.002989
159 0.001
163 0.0
167 0.0
174 0.0
177 0.00103
181 0.002025
178 0.002025
108 0.00102
67 0.001023
63 0.0
73 0.003029
86 0.003028
100 0.0
108 0.0
116 0.000995
124 0.0
128 0.000952
133 0.003029
137 0.003031
144 0.0
148 0.000989
153 0.000954
156 0.003009
160 0.00297
164 0.001046
168 0.00095
170 0.0
175 0.0
173 0.000963
126 0.002991
73 0.002994
66 0.000984
77 0.0
90 0.001005
101 0.002038
109 0.003035
118 0.0
123 0.000995
126 0.0
132 0.000998
136 0.000994
140 0.002014
145 0.001966
149 0.002992
153 0.0
157 0.0
159 0.0
162 0.002039
165 0.003989
168 0.000985
169 0.00299
135 0.0
82 0.000966
73 0.0
80 0.00302
95 0.002997
110 0.000996
118 0.0
125 0.000997
130 0.002992
132 0.002981
136 0.0
140 0.003022
145 0.0
148 0.0
151 0.0
155 0.002993
158 0.001973
161 0.0
163 0.0
166 0.0
167 0.002995
169 0.003028
167 0.0
110 0.002991
82 0.0
90 0.001004
104 0.000999
116 0.002025
124 0.003024
134 0.000959
138 0.001001
139 0.000997
141 0.003013
143 0.003041
146 0.00201
151 0.002965
155 0.0
158 0.0
161 0.0
163 0.002962
165 0.002992
167 0.0
168 0.0
164 0.000954
118 0.00198
85 0.00299
87 0.0
105 0.003022
120 0.0
128 0.0
133 0.0
136 0.003024
138 0.002991
143 0.001021
145 0.00097
149 0.000998
153 0.001995
156 0.00304
161 0.001998
165 0.003043
170 0.001
172 0.0
174 0.0
177 0.003027
177 0.00296
117 0.000965
65 0.000941
64 0.000998
76 0.002999
94 0.003989
114 0.001013
125 0.00204
132 0.0
134 0.0
137 0.000998
139 0.003053
144 0.002992
147 0.0
153 0.0
156 0.0
160 0.003024
163 0.002976
167 0.000999
170 0.002991
173 0.0
170 0.000959
122 0.001001
65 0.002992
58 0.002993
78 0.000963
97 0.0
110 0.000949
120 0.002994
127 0.003026
133 0.000962
137 0.002992
140 0.0
147 0.0
154 0.00103
157 0.003054
164 0.002992
172 0.000968
161 0.000955
155 0.0
160 0.002954
159 0.003039
123 0.001989
50 0.003024
25 0.0
31 0.0
45 0.0
62 0.003026
76 0.002996
93 0.000996
98 0.0
92 0.001976
83 0.002997
80 0.003949
89 0.002021
98 0.002995
110 0.0
119 0.0
125 0.0
131 0.003023
137 0.003005
143 0.00104
115 0.000965
48 0.000962
22 0.003958
20 0.004022
39 0.003961
52 0.002992
68 0.002985
78 0.002992
81 0.0
75 0.003042
68 0.002991
70 0.0
76 0.000965
86 0.0
96 0.002999
106 0.003958
119 0.003989
125 0.00399
134 0.000962
140 0.002994
133 0.00298
61 0.002993
17 0.002941
8 0.0
17 0.003006
31 0.00098
42 0.003952
51 0.003958
65 0.003988
66 0.004034
61 0.000947
60 0.002989
66 0.002994
75 0.003059
85 0.004984
95 0.002986
108 0.000986
116 0.0
123 0.004029
130 0.002961
141 0.001047
132 0.003003
59 0.003023
13 0.002024
12 0.002985
22 0.0
36 0.003954
47 0.003994
62 0.001015
70 0.0
72 0.002984
69 0.003989
68 0.002996
74 0.002962
84 0.002968
99 0.003003
109 0.00203
119 0.001987
127 0.004005
135 0.003989
144 0.0
150 0.0
156 0.0
151 0.003954
43 0.003003
24 0.003023
26 0.003032
46 0.00299
60 0.001977
73 0.002988
85 0.003995
91 0.00399
84 0.000954
79 0.0
79 0.001042
85 0.003932
103 0.002012
114 0.004001
124 0.003997
137 0.002991
144 0.002986
151 0.002025
157 0.003988
165 0.003985
148 0.0
71 0.001
36 0.0
31 0.002956
51 0.002991
66 0.005028
80 0.004019
97 0.002006
101 0.003018
96 0.002842
91 0.003989
90 0.005014
99 0.002993
111 0.0
122 0.000976
140 0.002991
149 0.001999
158 0.004023
165 0.004019
172 0.001994
178 0.002004
185 0.00203
188 0.004036
133 0.004954
46 0.002999
32 0.003981
37 0.003032
61 0.002028
72 0.002972
82 0.004016
92 0.004021
97 0.002992
93 0.002991
91 0.002992
95 0.004958
102 0.004985
117 0.003015
129 0.002029
140 0.003044
156 0.003995
164 0.002992
171 0.004986
177 0.004023
184 0.001992
190 0.003037
195 0.002991
200 0.004987
175 0.004986
66 0.001997
42 0.000967
45 0.002988
70 0.003007
84 0.002983
94 0.005021
104 0.004999
111 0.002992
108 0.00302
104 0.002992
106 0.004937
114 0.004986
128 0.002039
140 0.003939
151 0.002998
166 0.003027
174 0.003002
179 0.005031
185 0.005018
192 0.002992
197 0.003004
201 0.002961
205 0.004992
210 0.005026
198 0.001991
113 0.002008
74 0.004013
79 0.002836
96 0.003034
113 0.005029
127 0.004989
143 0.002991
148 0.003007
144 0.002967
137 0.006018
133 0.005021
138 0.001996
148 0.003996
159 0.003999
174 0.00299
180 0.001996
187 0.004987
192 0.004811
197 0.001995
201 0.003003
206 0.00298
209 0.004987
208 0.006022
128 0.002978
94 0.003976
93 0.003031
117 0.002997
135 0.002975
150 0.005037
162 0.005016
172 0.001988
169 0.002988
160 0.003008
154 0.004988
156 0.00499
166 0.003002
176 0.002012
184 0.003984
194 0.00304
198 0.003005
203 0.00297
205 0.004983
208 0.004004
213 0.001992
215 0.002995
185 0.002949
112 0.006021
89 0.005906
94 0.002992
116 0.006019
136 0.002994
147 0.002995
156 0.002993
160 0.005012
156 0.005017
147 0.00399
144 0.003
150 0.002993
158 0.005939
167 0.005943
177 0.003989
187 0.00598
192 0.002956
195 0.00299
198 0.002992
201 0.00599
204 0.005989
204 0.003989
141 0.002036
91 0.003997
83 0.005978
90 0.005995
112 0.00399
131 0.006
148 0.002957
154 0.002976
153 0.002991
148 0.006019
141 0.006023
140 0.002996
147 0.001978
157 0.004033
166 0.007023
173 0.006021
184 0.00396
190 0.005986
194 0.003957
196 0.003013
200 0.003995
203 0.006031
201 0.005987
113 0.002992
83 0.002974
82 0.004001
93 0.007024
111 0.006987
131 0.003994
145 0.005989
152 0.00396
146 0.003027
137 0.002987
132 0.005985
133 0.005992
143 0.003959
152 0.002993
160 0.003989
167 0.006057
174 0.006024
180 0.003999
185 0.006017
189 0.00396
186 0.003003
124 0.003994
81 0.006988
75 0.006974
89 0.003939
107 0.003002
122 0.004014
136 0.006021
147 0.006035
149 0.003987
135 0.005983
126 0.002979
130 0.003993
136 0.004012
145 0.006981
154 0.00698
165 0.004025
170 0.003044
175 0.003983
179 0.005946
182 0.00599
185 0.003983
123 0.00602
60 0.004027
54 0.003999
62 0.003979
77 0.007016
92 0.007013
106 0.004008
116 0.002953
119 0.004991
115 0.007015
107 0.006977
105 0.003875
113 0.005983
126 0.002995
135 0.003988
142 0.002999
150 0.006952
155 0.006982
161 0.003987
165 0.003957
170 0.003968
163 0.007032
88 0.00694
40 0.004988
39 0.006985
58 0.004018
72 0.002989
82 0.003985
93 0.007978
100 0.006982
96 0.003989
90 0.00399
87 0.00399
91 0.006982
98 0.007017
116 0.008012
126 0.007022
137 0.004005
145 0.003939
151 0.003951
158 0.006949
162 0.006981
168 0.004958
117 0.003986
50 0.003991
28 0.007981
31 0.007951
55 0.006981
71 0.007019
87 0.003989
97 0.003988
101 0.003982
93 0.007005
87 0.006979
88 0.004011
96 0.003976
105 0.003988
117 0.006949
128 0.007981
144 0.007978
149 0.007956
156 0.004985
163 0.003999
159 0.003992
86 0.007023
39 0.007014
30 0.003994
41 0.003946
59 0.005983
76 0.007022
93 0.00798
110 0.007002
106 0.007951
96 0.007952
90 0.003996
96 0.004989
106 0.004992
117 0.006987
129 0.006962
140 0.005003
148 0.003981
156 0.004987
162 0.006977
156 0.004944
74 0.007979
21 0.007943
18 0.004988
28 0.004942
45 0.004952
64 0.006982
74 0.007948
89 0.00396
90 0.004958
83 0.006004
78 0.006982
85 0.004959
100 0.007984
108 0.00797
122 0.005007
133 0.004977
141 0.004988
149 0.007978
156 0.007979
165 0.004987
137 0.004016
51 0.005981
13 0.006981
13 0.004991
32 0.007974
45 0.007945
57 0.004987
68 0.004948
75 0.004988
71 0.007978
69 0.007933
71 0.004988
79 0.004967
89 0.004947
106 0.007945
122 0.005
132 0.007978
143 0.007973
151 0.005984
158 0.004987
165 0.005018
126 0.007977
69 0.007972
20 0.004996
19 0.006014
32 0.004986
48 0.007981
69 0.004989
81 0.007978
89 0.007978
