178 0.000999
182 0.001993
187 0.001963
193 0.001964
192 0.001802
113 0.000992
34 0.0
37 0.0
77 0.000997
105 0.0
144 0.0
162 0.0
152 0.0
121 0.0
118 0.002046
132 0.00197
150 0.001994
166 0.002995
177 0.001947
185 0.002999
189 0.001995
194 0.002033
197 0.002994
141 0.002993
40 0.003026
36 0.002959
75 0.003002
127 0.001992
153 0.003025
173 0.003023
165 0.003794
128 0.005996
121 0.005938
130 0.005985
147 0.005998
162 0.007979
174 0.002992
185 0.00793
189 0.004987
192 0.007979
108 0.007979
49 0.006982
44 0.005984
90 0.003995
123 0.00595
164 0.002992
173 0.000997
158 0.000997
126 0.001961
125 0.000997
141 0.000999
159 0.000999
165 0.001994
179 0.000997
188 0.001157
187 0.000997
83 0.000998
36 0.001029
41 0.0
78 0.0
118 0.0
152 0.0
167 0.001997
155 0.001996
121 0.001995
117 0.001995
132 0.002005
152 0.001864
163 0.002027
176 0.000997
182 0.000998
168 0.003023
47 0.002993
25 0.002992
46 0.004008
92 0.004061
118 0.003989
150 0.003994
154 0.00399
126 0.003989
108 0.003991
113 0.004942
128 0.004987
150 0.004987
160 0.004987
173 0.004989
178 0.00601
123 0.005985
28 0.006031
24 0.005954
56 0.005944
83 0.006016
123 0.00602
145 0.005928
138 0.005991
112 0.005001
103 0.005129
110 0.005035
131 0.005027
143 0.005053
160 0.005017
169 0.007978
176 0.004954
100 0.007946
40 0.003989
26 0.007936
55 0.00698
82 0.00704
120 0.006993
143 0.003149
136 0.006977
107 0.000956
101 0.005018
114 0.000996
135 0.000998
146 0.001996
158 0.001995
171 0.001956
175 0.001963
154 0.001994
80 0.001995
28 0.001999
49 0.001979
74 0.000964
115 0.001003
143 0.0
141 0.0
111 0.0
103 0.000997
113 0.001005
130 0.000999
145 0.000972
158 0.000964
170 0.000955
176 0.000965
169 0.000999
108 0.000995
37 0.001
51 0.001996
77 0.002066
123 0.00306
156 0.003974
153 0.00398
118 0.003989
107 0.003991
116 0.004985
136 0.005022
147 0.004981
163 0.004037
172 0.006024
179 0.006981
166 0.00695
98 0.006018
37 0.005983
48 0.007979
71 0.006978
117 0.006981
153 0.002967
154 0.007946
151 0.000998
115 0.000974
158 0.000963
177 0.001003
40 0.0
64 0.001981
148 0.000995
109 0.000969
140 0.0
163 0.001963
174 0.001993
179 0.001997
186 0.001995
181 0.001994
69 0.002985
33 0.003971
43 0.003989
82 0.004022
117 0.003954
135 0.004018
141 0.003989
125 0.004027
107 0.003985
114 0.004981
131 0.004955
149 0.004956
166 0.005986
173 0.005988
181 0.007027
186 0.003036
187 0.005035
90 0.000994
36 0.000998
42 0.001029
80 0.0
104 0.0
139 0.001995
150 0.001989
143 0.001994
115 0.001974
116 0.002029
128 0.001995
152 0.002991
164 0.001042
178 0.001035
185 0.0
189 0.0
194 0.001988
195 0.001996
124 0.002032
44 0.001994
42 0.00399
65 0.00401
112 0.003051
136 0.004022
161 0.004054
144 0.004945
123 0.005985
116 0.005938
130 0.004942
144 0.005982
166 0.005982
174 0.00599
184 0.004971
190 0.003993
194 0.00399
198 0.004002
159 0.007945
60 0.003987
38 0.007993
60 0.004021
102 0.005958
151 0.005984
170 0.005984
168 0.004996
129 0.001005
119 0.002991
126 0.001995
148 0.001989
160 0.000984
174 0.000998
180 0.001049
188 0.001997
192 0.000982
159 0.000999
49 0.000998
38 0.000998
71 0.0
125 0.0
153 0.0
176 0.000969
157 0.001
133 0.001
125 0.000998
134 0.000999
156 0.000966
168 0.000998
179 0.000998
187 0.00099
193 0.001964
151 0.001995
41 0.002026
33 0.001996
67 0.002007
118 0.001995
145 0.001996
169 0.001891
164 0.001938
129 0.001996
120 0.001994
131 0.002035
152 0.003959
163 0.00302
177 0.004988
187 0.004973
186 0.004988
82 0.005986
27 0.004992
35 0.00501
69 0.00599
107 0.00596
131 0.009973
138 0.002978
156 0.000998
114 0.000994
152 0.0
176 0.000998
29 0.000999
54 0.006981
90 0.003989
120 0.007049
144 0.006939
139 0.006031
111 0.005018
106 0.0
116 0.004044
138 0.0
150 0.002986
165 0.0
176 0.000964
181 0.000959
134 0.000999
56 0.000966
24 0.001995
54 0.001969
72 0.001993
118 0.001994
140 0.000997
140 0.0
113 0.0
103 0.0
112 0.0
135 0.0
147 0.0
162 0.0
170 0.0
178 0.0
182 0.000998
126 0.001996
40 0.001994
33 0.002862
53 0.002998
97 0.002992
135 0.002962
148 0.003021
133 0.002992
114 0.003023
107 0.002934
126 0.004987
139 0.004987
156 0.005027
168 0.004978
174 0.005938
182 0.005986
181 0.005951
108 0.005984
34 0.005952
41 0.005939
75 0.005948
103 0.005995
145 0.006945
154 0.007026
143 0.007948
108 0.007979
111 0.002981
122 0.00698
143 0.002992
154 0.007016
166 0.002992
175 0.002029
180 0.002046
156 0.001983
50 0.000957
35 0.001087
58 0.000958
87 0.0
134 0.000978
158 0.003983
149 0.0
119 0.004008
108 0.003021
117 0.000989
138 0.001029
149 0.001055
164 0.000982
173 0.0
181 0.0
167 0.0
58 0.0
35 0.0
52 0.0
78 0.0
122 0.001017
154 0.002004
154 0.001995
122 0.001031
111 0.001995
119 0.001996
140 0.001991
152 0.001986
168 0.001995
180 0.003022
184 0.002992
127 0.003044
57 0.003964
34 0.004024
56 0.00394
88 0.003927
117 0.003994
144 0.003989
143 0.00399
117 0.004004
109 0.004
119 0.003989
141 0.003978
153 0.004987
169 0.004987
175 0.005007
184 0.005957
142 0.005961
67 0.005019
35 0.004977
54 0.006011
77 0.004979
114 0.004997
139 0.006982
145 0.001995
128 0.005026
112 0.001021
116 0.002989
136 0.000998
148 0.002992
165 0.002017
178 0.002021
184 0.001965
182 0.002016
123 0.001957
57 0.018949
40 0.001994
55 0.001995
134 0.001996
146 0.000997
118 0.0
157 0.000997
175 0.001995
188 0.002014
167 0.001989
73 0.001995
41 0.002003
55 0.002
100 0.001973
128 0.001825
161 0.001996
151 0.002002
128 0.00301
114 0.002992
129 0.002997
142 0.002961
159 0.003025
167 0.002959
177 0.00296
185 0.003997
180 0.003971
78 0.00399
43 0.003975
51 0.003914
86 0.00399
124 0.004977
155 0.005019
158 0.005953
137 0.00602
113 0.005971
117 0.005878
137 0.005993
153 0.005005
166 0.005985
176 0.005995
184 0.006992
186 0.005953
92 0.004954
45 0.004988
50 0.005983
82 0.004956
108 0.003982
151 0.005978
156 0.004985
136 0.004002
112 0.007013
115 0.004987
134 0.007952
147 0.003938
161 0.007953
175 0.007016
181 0.007014
186 0.006987
96 0.003018
44 0.007012
38 0.004027
57 0.007144
98 0.001002
134 0.0
147 0.0
136 0.001009
112 0.000997
112 0.0
130 0.0
143 0.001951
162 0.000966
172 0.003004
179 0.002008
186 0.001948
161 0.000999
83 0.0
33 0.00101
47 0.001012
79 0.001011
111 0.000999
137 0.001012
148 0.0
126 0.001995
114 0.001995
116 0.003015
129 0.002994
151 0.002993
167 0.002039
174 0.003004
183 0.00397
190 0.004024
178 0.003989
62 0.00496
35 0.003987
50 0.004999
94 0.005008
120 0.005947
153 0.005952
154 0.006
137 0.005975
114 0.004977
117 0.005019
136 0.007013
153 0.005984
166 0.007926
176 0.003971
184 0.007978
191 0.004032
159 0.003985
83 0.003996
38 0.002989
66 0.003052
96 0.002992
145 0.001966
166 0.001978
163 0.002993
131 0.005972
116 0.002004
123 0.005981
145 0.004935
157 0.005986
172 0.005994
179 0.004989
181 0.001959
186 0.000968
52 0.002004
104 0.002006
164 0.0
163 0.0
126 0.001954
117 0.002028
128 0.000865
141 0.002046
160 0.002001
173 0.001996
180 0.001971
189 0.002027
161 0.001991
61 0.002005
34 0.002027
49 0.002029
96 0.001989
132 0.000997
159 0.000997
157 0.000999
131 0.001003
113 0.0
122 0.000998
136 0.000997
156 0.000967
171 0.000997
179 0.001001
188 0.001982
181 0.002068
64 0.002992
29 0.002993
41 0.002865
83 0.002992
108 0.002999
144 0.002985
147 0.002997
128 0.002998
108 0.003023
115 0.003024
132 0.00399
149 0.002959
163 0.004019
173 0.004987
182 0.004992
182 0.005016
81 0.005019
36 0.005017
37 0.004987
77 0.005012
102 0.005016
139 0.004966
150 0.006018
140 0.004989
113 0.004987
111 0.004986
127 0.004904
149 0.005003
159 0.004957
172 0.004979
179 0.003975
188 0.005949
131 0.00696
59 0.004002
35 0.007001
58 0.007966
95 0.007973
138 0.007948
155 0.007977
153 0.007007
122 0.00299
113 0.006986
124 0.003034
136 0.007982
156 0.002004
171 0.002012
179 0.003011
188 0.003055
136 0.000962
65 0.000963
39 0.0
63 0.002995
103 0.001995
143 0.002992
166 0.002007
157 0.002962
121 0.001989
114 0.0
127 0.0
143 0.0
158 0.0
171 0.0
179 0.0
184 0.0
94 0.000966
46 0.002048
45 0.002045
87 0.002847
116 0.003018
158 0.002954
164 0.002969
136 0.003927
113 0.00598
117 0.005924
136 0.004987
152 0.00596
162 0.005944
176 0.006982
184 0.007029
150 0.007035
44 0.006972
33 0.006982
56 0.007014
90 0.004019
122 0.007947
145 0.002989
145 0.007013
117 0.002988
106 0.002984
114 0.002992
135 0.003019
154 0.002988
163 0.002997
176 0.003026
179 0.002988
101 0.002987
39 0.005947
36 0.002016
58 0.006016
89 0.001955
102 0.000999
137 0.004996
130 0.003989
106 0.003969
107 0.001012
118 0.004109
139 0.000999
149 0.002983
163 0.001969
173 0.001996
179 0.001035
142 0.001977
70 0.002012
36 0.001968
58 0.001996
81 0.002028
115 0.002004
137 0.002992
136 0.001989
117 0.001974
108 0.001981
117 0.001995
139 0.00199
152 0.002015
167 0.00204
173 0.001978
179 0.00209
185 0.000988
189 0.0
147 0.0
47 0.0
38 0.0
65 0.0
93 0.0
135 0.0
156 0.00096
146 0.001
115 0.0
110 0.000997
123 0.000971
145 0.000998
155 0.000998
168 0.000951
174 0.000998
182 0.000999
179 0.001009
126 0.001001
45 0.000946
46 0.001974
76 0.001958
113 0.001994
148 0.00204
164 0.00205
138 0.003024
119 0.002992
116 0.003031
136 0.003983
149 0.003997
165 0.003984
173 0.003985
183 0.00499
190 0.005956
182 0.004983
71 0.005021
38 0.004974
50 0.004983
94 0.004021
120 0.002979
155 0.002987
158 0.007932
132 0.004019
114 0.006962
123 0.007027
137 0.006995
159 0.006982
170 0.007027
180 0.006974
189 0.003024
193 0.006969
169 0.002005
87 0.000994
34 0.001003
53 0.000997
81 0.001029
122 0.0
148 0.003989
155 0.0
134 0.003988
114 0.000953
116 0.004025
138 0.00397
152 0.003985
171 0.003024
178 0.002993
187 0.003023
194 0.002962
193 0.002989
87 0.002016
32 0.001997
39 0.002008
71 0.002001
99 0.002052
139 0.0
161 0.0
152 0.0
122 0.0
120 0.001003
132 0.0
156 0.000999
168 0.000999
182 0.000998
190 0.001983
194 0.003967
200 0.00498
165 0.005983
57 0.004938
32 0.005992
60 0.00698
91 0.00698
139 0.007029
161 0.006982
169 0.024898
170 0.00202
128 0.001968
124 0.003932
146 0.003996
159 0.00402
176 0.00399
183 0.003991
193 0.003973
198 0.004016
175 0.003101
52 0.003011
34 0.002996
62 0.00296
107 0.005977
149 0.000997
175 0.006014
169 0.005946
145 0.006018
122 0.005962
127 0.005962
148 0.004986
167 0.0
175 0.003976
186 0.002012
192 0.001036
160 0.00196
44 0.001963
32 0.002035
52 0.002129
106 0.00203
138 0.002061
171 0.002031
161 0.002061
137 0.000961
118 0.000999
132 0.002998
145 0.002996
164 0.003954
173 0.002995
185 0.003985
180 0.005016
85 0.004952
28 0.005007
40 0.005004
68 0.004022
117 0.005013
143 0.004979
160 0.004981
131 0.00402
113 0.005986
111 0.005003
131 0.005018
144 0.004012
163 0.004013
172 0.004005
183 0.003956
144 0.003994
62 0.003988
22 0.002985
40 0.005986
76 0.001044
110 0.005039
144 0.003023
147 0.002026
119 0.000999
105 0.001035
111 0.0
128 0.0
146 0.0
160 0.000997
173 0.0
179 0.0
170 0.000982
95 0.0
24 0.001
39 0.000967
63 0.000999
106 0.000997
140 0.002006
147 0.001955
123 0.003018
109 0.003027
112 0.002969
129 0.002994
147 0.003961
161 0.002975
174 0.004985
180 0.004016
187 0.006013
158 0.006022
42 0.005975
32 0.005969
51 0.005994
89 0.005022
131 0.00499
150 0.003998
147 0.003985
128 0.003989
110 0.00299
124 0.004024
137 0.003984
156 0.002982
165 0.003987
178 0.003992
186 0.007012
188 0.002992
112 0.005978
33 0.006108
36 0.006018
76 0.006032
107 0.00601
153 0.005023
163 0.0
143 0.004983
113 0.000967
119 0.000961
131 0.00097
151 0.000961
162 0.000966
174 0.000966
185 0.000968
184 0.000976
83 0.000996
40 0.001953
44 0.000979
79 0.002031
110 0.001976
156 0.00091
164 0.000998
144 0.002002
115 0.001996
119 0.002006
135 0.001982
143 0.009976
162 0.001951
176 0.001999
187 0.001029
187 0.003022
82 0.002992
32 0.003016
42 0.003051
85 0.004016
113 0.00402
153 0.003969
159 0.004986
138 0.004982
114 0.004983
124 0.004988
137 0.005937
155 0.005984
169 0.005981
179 0.00595
189 0.005949
185 0.005988
67 0.005982
34 0.003944
43 0.006981
76 0.007979
111 0.007977
143 0.005984
157 0.001985
143 0.005987
115 0.001995
119 0.001002
132 0.001987
154 0.001961
165 0.001955
176 0.002992
188 0.002039
188 0.001995
105 0.001995
32 0.001022
34 0.00104
71 0.000988
98 0.000992
138 0.001029
156 0.001029
146 0.001958
117 0.000997
116 0.002
130 0.00106
148 0.000969
164 0.001002
175 0.002006
186 0.001981
191 0.000995
163 0.002992
45 0.002026
32 0.002959
56 0.002959
85 0.003025
129 0.002959
160 0.003031
159 0.002993
129 0.002974
117 0.002983
125 0.004003
146 0.003983
158 0.003989
170 0.003983
182 0.004014
189 0.005016
180 0.004971
109 0.004985
36 0.006043
46 0.004987
82 0.006985
123 0.004964
164 0.003993
170 0.003988
142 0.003998
123 0.003025
122 0.003983
140 0.003001
152 0.002987
169 0.003022
177 0.003025
187 0.001987
179 0.006993
86 0.002026
37 0.006009
54 0.005978
83 0.005983
135 0.005962
161 0.006016
168 0.005988
131 0.001995
118 0.005018
125 0.000997
145 0.00104
157 0.002034
170 0.001972
183 0.002025
185 0.002014
92 0.001996
44 0.001995
44 0.001985
86 0.000999
116 0.001131
158 0.000993
167 0.000983
141 0.001966
117 0.000969
119 0.000997
138 0.00197
151 0.002013
170 0.001967
181 0.0
182 0.0
99 0.001006
33 0.000961
38 0.000834
75 0.001
102 0.000974
119 0.030916
143 0.0
145 0.001942
114 0.002038
113 0.002028
131 0.001993
151 0.002033
163 0.001995
177 0.00297
167 0.002997
95 0.002993
34 0.003017
37 0.003004
71 0.00399
102 0.005014
131 0.004989
146 0.004952
127 0.00502
113 0.004985
114 0.005017
124 0.004984
145 0.005992
161 0.00499
173 0.005981
181 0.00502
133 0.006981
50 0.004989
40 0.004016
56 0.003975
95 0.005953
133 0.004021
147 0.004019
135 0.004014
120 0.003985
114 0.003989
127 0.007986
142 0.004024
157 0.007972
169 0.004051
178 0.006985
177 0.007018
118 0.006981
43 0.006984
52 0.00206
76 0.005981
119 0.001998
144 0.005974
153 0.001989
123 0.003003
112 0.001995
120 0.001982
140 0.000967
151 0.000996
165 0.00197
172 0.001961
182 0.002024
183 0.002992
115 0.001997
47 0.002999
43 0.00102
68 0.00299
112 0.002991
137 0.002991
156 0.003062
138 0.001999
116 0.00198
116 0.000968
130 0.000991
147 0.001046
165 0.001972
172 0.0
180 0.0
187 0.0
190 0.0
179 0.000998
107 0.0
37 0.0
50 0.0
74 0.000968
115 0.0
136 0.0
150 0.00095
131 0.00092
111 0.0
113 0.000998
128 0.000962
147 0.002022
166 0.002028
173 0.001995
181 0.001988
187 0.002993
191 0.002004
165 0.003004
87 0.003002
35 0.002987
55 0.003997
81 0.00398
122 0.004023
152 0.003979
154 0.003992
127 0.003016
115 0.003991
121 0.004942
139 0.005002
157 0.004994
171 0.004988
180 0.00402
186 0.004995
194 0.005015
195 0.004991
106 0.004926
48 0.004949
41 0.005919
71 0.005934
110 0.006025
152 0.005947
167 0.004986
153 0.005976
126 0.004988
120 0.004987
131 0.003951
153 0.006015
164 0.003964
179 0.004005
185 0.00398
194 0.003986
161 0.007836
83 0.002975
40 0.007018
59 0.006982
90 0.005983
142 0.006982
167 0.006015
174 0.005987
138 0.00102
123 0.004997
129 0.000999
148 0.000977
160 0.000969
174 0.002026
186 0.001994
191 0.002028
129 0.002017
59 0.002999
39 0.00202
76 0.002015
108 0.002015
156 0.00103
172 0.001996
160 0.001951
125 0.000999
121 0.001964
135 0.000997
151 0.0
166 0.001994
179 0.000998
187 0.001996
170 0.003038
52 0.004021
31 0.004019
52 0.003985
99 0.004977
127 0.004019
160 0.00498
158 0.005021
131 0.005934
116 0.004983
120 0.004981
138 0.005008
159 0.00399
169 0.004988
183 0.003984
167 0.007984
90 0.002993
32 0.006989
41 0.005001
65 0.004991
109 0.001962
140 0.002042
154 0.002025
140 0.001121
117 0.000949
113 0.001995
130 0.000997
143 0.000998
163 0.001962
172 0.001947
184 0.001023
153 0.00096
73 0.000998
30 0.000975
55 0.000967
82 0.000965
126 0.000966
146 0.000992
153 0.000998
131 0.001958
115 0.003039
120 0.002025
140 0.002984
153 0.002993
169 0.002949
177 0.003024
187 0.002986
156 0.003001
75 0.003026
32 0.002992
43 0.003025
89 0.003974
137 0.00402
158 0.004948
157 0.004976
123 0.004969
115 0.004844
126 0.004979
138 0.004953
158 0.004973
171 0.005012
181 0.004959
186 0.004995
159 0.005984
48 0.005969
39 0.005969
60 0.005951
110 0.006976
149 0.004991
166 0.006982
148 0.002999
124 0.00794
112 0.001998
128 0.002963
141 0.001995
161 0.001996
175 0.002118
182 0.001
133 0.00204
61 0.002061
34 0.000988
57 0.005976
96 0.001957
134 0.006017
160 0.001992
155 0.006011
121 0.00502
113 0.00601
125 0.004985
145 0.000999
157 0.004988
172 0.000998
181 0.004023
169 0.00203
53 0.000972
32 0.001
42 0.001993
84 0.001995
110 0.001051
135 0.02199
148 0.001994
132 0.0
111 0.0
115 0.0
135 0.0
156 0.001997
166 0.001996
180 0.000957
185 0.001964
119 0.001964
41 0.00199
33 0.002004
57 0.002025
100 0.002992
123 0.002984
150 0.004005
147 0.003961
119 0.00399
114 0.003981
124 0.003987
147 0.002991
162 0.005087
171 0.004982
186 0.004923
189 0.004987
139 0.004998
39 0.004998
34 0.004989
64 0.004987
92 0.004991
134 0.002992
157 0.007015
151 0.002986
126 0.007009
117 0.007014
124 0.007007
146 0.007015
158 0.007018
174 0.005983
186 0.000999
191 0.00502
127 0.001948
41 0.001997
41 0.00099
79 0.000957
109 0.0
157 0.0
169 0.0
151 0.0
119 0.001961
117 0.000963
129 0.004016
149 0.00499
160 0.003989
175 0.004162
186 0.001968
179 0.00398
68 0.001943
39 0.004964
46 0.001995
90 0.001029
120 0.0
163 0.0
159 0.0
135 0.0
115 0.001984
127 0.001985
139 0.002015
159 0.002017
169 0.003012
183 0.002988
171 0.002967
98 0.002969
37 0.002987
42 0.002031
82 0.002991
120 0.002035
153 0.002989
164 0.002989
136 0.005014
119 0.004988
121 0.004996
133 0.004984
154 0.004966
172 0.00498
180 0.004038
187 0.004989
141 0.005003
40 0.004988
37 0.004977
63 0.005969
108 0.005993
142 0.005013
157 0.00398
147 0.002991
127 0.00398
116 0.003993
129 0.007979
146 0.002992
162 0.007979
178 0.007977
185 0.007978
172 0.00798
95 0.006982
33 0.006979
50 0.002996
76 0.007955
119 0.002994
141 0.005983
155 0.00303
129 0.0
117 0.001011
123 0.00076
145 0.001002
157 0.002991
171 0.002992
185 0.001994
190 0.002008
169 0.000998
86 0.000999
33 0.002006
55 0.002
83 0.002048
128 0.0
156 0.000999
160 0.000984
136 0.000962
118 0.001994
122 0.002981
142 0.002986
154 0.003027
172 0.002999
184 0.00399
191 0.00299
179 0.003985
103 0.004992
36 0.005005
56 0.004986
75 0.004944
128 0.005992
167 0.004956
170 0.004992
130 0.004965
119 0.004959
123 0.004992
143 0.005984
155 0.003987
171 0.007965
184 0.006967
189 0.007978
141 0.007958
66 0.007997
36 0.00698
62 0.002
92 0.006982
144 0.001959
166 0.006974
165 0.002957
126 0.001966
118 0.001974
130 0.001013
151 0.001992
162 0.001997
177 0.000973
184 0.002004
182 0.002019
89 0.003983
37 0.002048
44 0.003971
88 0.002026
118 0.002003
160 0.001992
169 0.001991
143 0.001961
120 0.001003
120 0.002012
138 0.002052
159 0.002005
169 0.002027
183 0.0
189 0.000969
164 0.0
47 0.002013
33 0.001961
58 0.002027
105 0.002001
133 0.002012
163 0.001993
162 0.00196
132 0.002027
121 0.001991
130 0.002986
146 0.003024
163 0.003001
177 0.002985
188 0.003027
192 0.002019
104 0.004022
32 0.003025
35 0.003985
74 0.004992
102 0.00502
143 0.004013
162 0.004987
150 0.004984
122 0.004979
120 0.004019
135 0.003983
157 0.004988
168 0.004986
179 0.005987
190 0.005885
192 0.005988
109 0.006967
46 0.005007
33 0.007947
76 0.007983
96 0.007938
114 0.000998
148 0.002008
163 0.001998
129 0.001997
121 0.006984
133 0.00201
155 0.0
167 0.0
182 0.0
193 0.0
198 0.001991
134 0.001995
57 0.001957
36 0.000974
64 0.004009
105 0.001969
144 0.00398
169 0.000964
172 0.004098
141 0.003021
129 0.002993
138 0.002986
154 0.002993
169 0.002021
181 0.00202
190 0.001992
198 0.001992
186 0.001996
110 0.002042
34 0.001985
58 0.0
90 0.0
146 0.0
169 0.000965
179 0.000973
151 0.000958
134 0.000995
131 0.011003
142 0.001967
164 0.0
180 0.000967
186 0.000976
192 0.001029
127 0.001997
46 0.004024
42 0.004034
86 0.005039
122 0.005022
169 0.004998
180 0.004014
168 0.004941
133 0.004986
128 0.003986
142 0.004986
154 0.005017
169 0.005975
184 0.006008
187 0.005003
110 0.005004
38 0.005982
43 0.004993
81 0.004987
115 0.004999
161 0.004001
172 0.00698
158 0.003991
125 0.008016
123 0.003987
138 0.007979
155 0.006976
166 0.006983
180 0.006984
137 0.002001
60 0.006988
26 0.002021
41 0.006989
87 0.002011
135 0.001994
154 0.002002
152 0.000992
131 0.00097
112 0.000995
120 0.005985
136 0.001964
153 0.005983
170 0.003989
174 0.003997
82 0.002072
26 0.00199
29 0.001988
59 0.002057
95 0.000992
129 0.000994
148 0.001963
136 0.001963
109 0.000961
109 0.0
121 0.001016
144 0.000964
157 0.0
172 0.000982
119 0.000998
52 0.000998
31 0.000999
46 0.00201
88 0.002018
131 0.002025
149 0.001994
143 0.002982
120 0.00304
114 0.00303
123 0.003023
140 0.001994
157 0.004018
174 0.005019
177 0.005029
94 0.004987
35 0.005754
41 0.006011
72 0.003985
110 0.006001
146 0.003981
159 0.004068
144 0.00402
117 0.004014
122 0.002989
132 0.00299
154 0.002997
165 0.002029
178 0.002019
149 0.006023
60 0.002019
38 0.004986
63 0.003981
89 0.003983
136 0.002996
156 0.002003
143 0.002996
119 0.002038
112 0.003046
122 0.001985
143 0.000999
155 0.001159
172 0.001034
172 0.001996
77 0.000998
38 0.002005
48 0.001996
88 0.001992
133 0.001996
153 0.001997
149 0.0
130 0.0
115 0.000962
127 0.001
140 0.001002
160 0.000933
171 0.000949
173 0.001995
91 0.001055
41 0.000972
45 0.002047
81 0.002993
106 0.002993
146 0.002998
155 0.002996
135 0.002992
117 0.00202
120 0.001979
137 0.003043
150 0.003025
168 0.003025
180 0.001989
153 0.004954
52 0.005015
44 0.005018
62 0.004021
104 0.004978
132 0.00499
160 0.004987
148 0.004992
125 0.004987
118 0.004957
129 0.004965
146 0.004983
168 0.004987
177 0.004986
153 0.004933
67 0.004987
45 0.007954
61 0.002992
105 0.001967
134 0.001002
168 0.001
168 0.000999
138 0.001998
126 0.005984
133 0.001963
150 0.004988
171 0.003983
181 0.005044
167 0.00396
97 0.003965
46 0.003988
67 0.002004
94 0.003982
144 0.001995
167 0.004017
169 0.002007
139 0.002001
131 0.002013
140 0.001963
157 0.001973
169 0.001994
186 0.002042
193 0.001976
166 0.001978
56 0.00203
45 0.002056
74 0.001997
127 0.001972
158 0.0
183 0.000999
176 0.0
142 0.0
135 0.0
144 0.0
160 0.0
176 0.0
188 0.0
199 0.0
186 0.000998
69 0.001011
47 0.000998
71 0.000998
127 0.00101
161 0.000996
188 0.000998
173 0.000961
150 0.001961
137 0.002004
145 0.0
163 0.002
180 0.001984
188 0.000991
193 0.002068
147 0.001995
50 0.001969
52 0.001957
88 0.001964
135 0.002047
174 0.002975
189 0.002984
170 0.002992
148 0.002992
139 0.002969
155 0.003993
167 0.00397
183 0.003983
190 0.004015
186 0.003989
69 0.003985
39 0.004999
59 0.005025
102 0.004989
137 0.004023
176 0.006014
184 0.005094
165 0.005019
137 0.006009
137 0.004963
154 0.006023
166 0.004975
179 0.008015
191 0.006982
190 0.006012
80 0.005993
29 0.000995
43 0.006017
93 0.002006
145 0.0
166 0.000974
173 0.0
159 0.000972
132 0.0
137 0.0
149 0.001932
167 0.000967
177 0.000964
188 0.000972
179 0.003981
75 0.001017
24 0.003991
36 0.00097
73 0.004144
124 0.003005
149 0.004001
166 0.003018
146 0.001992
129 0.00399
128 0.00301
138 0.003006
158 0.00204
171 0.002027
179 0.001997
181 0.002992
122 0.0
44 0.001997
26 0.000997
46 0.001007
98 0.001836
145 0.000975
162 0.001951
160 0.001995
137 0.002027
125 0.003032
133 0.002028
148 0.00198
163 0.003031
177 0.003
183 0.002975
190 0.003025
150 0.002992
33 0.003037
34 0.003968
61 0.002983
116 0.004969
159 0.004995
168 0.004954
154 0.004976
134 0.004989
124 0.004998
140 0.004994
148 0.004967
169 0.004989
179 0.00695
185 0.004978
152 0.007014
72 0.003991
29 0.006948
65 0.007975
87 0.007976
152 0.007971
171 0.001002
170 0.006981
139 0.001985
124 0.006015
131 0.001961
149 0.000998
160 0.001955
174 0.001954
181 0.001999
143 0.002017
35 0.001973
27 0.000987
62 0.001962
107 0.004971
147 0.002018
166 0.004989
157 0.0
127 0.004
116 0.004022
124 0.004022
144 0.004043
158 0.002985
170 0.002982
171 0.002993
111 0.002992
24 0.002986
28 0.001995
50 0.001995
111 0.001983
130 0.002009
156 0.001971
134 0.002047
114 0.001995
109 0.001996
127 0.001984
139 0.003013
159 0.00301
167 0.000967
154 0.0
39 0.0
19 0.0
36 0.0
60 0.000968
103 0.0
132 0.001007
138 0.0
117 0.0
102 0.0
105 0.0
124 0.0
137 0.000971
156 0.000999
170 0.000958
164 0.00098
54 0.001002
26 0.000997
35 0.000998
73 0.00199
97 0.001996
133 0.000999
140 0.002027
120 0.001961
106 0.003029
111 0.002983
131 0.00299
147 0.002992
160 0.002986
171 0.003034
180 0.003025
171 0.002022
55 0.003034
30 0.002992
44 0.004916
67 0.005012
109 0.005011
139 0.004971
149 0.006017
131 0.004987
112 0.004983
115 0.004987
134 0.00497
147 0.004987
164 0.003093
176 0.002989
182 0.001993
189 0.006977
150 0.007018
71 0.00698
36 0.007961
48 0.007013
93 0.006988
141 0.002048
161 0.007017
155 0.001004
121 0.001
115 0.001972
128 0.001981
141 0.002027
157 0.002993
174 0.00299
180 0.002897
187 0.002967
173 0.002992
99 0.002992
38 0.001997
43 0.001006
85 0.001
136 0.00103
160 0.002024
165 0.001972
136 0.002002
118 0.002043
124 0.001961
139 0.003
155 0.001
171 0.001
178 0.001997
188 0.001968
152 0.002987
74 0.003023
34 0.002999
45 0.002991
88 0.002988
136 0.002965
158 0.002994
159 0.00402
138 0.003004
117 0.003984
128 0.003994
141 0.004991
161 0.004965
173 0.004944
182 0.004982
189 0.004948
191 0.004946
87 0.006985
29 0.006985
36 0.007001
75 0.006973
111 0.004015
144 0.007951
160 0.00299
145 0.007969
121 0.002991
119 0.003948
130 0.003044
153 0.001999
170 0.002032
178 0.001004
187 0.000972
192 0.0
185 0.000984
84 0.004994
30 0.000973
35 0.004977
76 0.00399
104 0.003987
145 0.002991
159 0.00393
149 0.002992
122 0.00103
119 0.004033
136 0.002004
150 0.003004
170 0.003022
181 0.002989
188 0.001996
193 0.002993
200 0.002
179 0.002022
67 0.002043
31 0.001995
42 0.002004
89 0.001993
118 0.002015
157 0.0
165 0.0
149 0.0
123 0.000998
125 0.002019
143 0.002001
160 0.001993
174 0.00191
183 0.001997
192 0.002997
195 0.003019
199 0.002992
154 0.003989
39 0.004987
39 0.005003
65 0.004999
107 0.004971
153 0.004972
169 0.005002
167 0.004976
148 0.005012
127 0.005025
139 0.003988
151 0.003026
169 0.002975
179 0.007962
187 0.003055
193 0.006989
197 0.001991
142 0.007012
37 0.006979
35 0.00698
75 0.006009
131 0.002017
158 0.002993
176 0.002055
168 0.001972
134 0.000972
128 0.002004
138 0.001032
156 0.000968
165 0.001944
176 0.002973
183 0.002982
189 0.002971
163 0.00302
45 0.002986
28 0.002987
57 0.001028
88 0.00203
141 0.002036
166 0.001031
166 0.002001
140 0.002001
120 0.000998
121 0.002036
143 0.001995
154 0.002031
168 0.0
179 0.0
184 0.0
131 0.0
29 0.001971
25 0.002013
57 0.001995
88 0.001995
135 0.001978
159 0.00202
153 0.001996
121 0.001972
113 0.001987
124 0.002994
140 0.003031
154 0.002958
165 0.004923
176 0.004988
181 0.004984
120 0.004987
44 0.005018
20 0.006008
51 0.004979
79 0.005984
116 0.005038
143 0.005984
146 0.00497
117 0.004996
105 0.00504
112 0.005047
132 0.003998
145 0.005025
161 0.002025
171 0.006985
178 0.001986
135 0.00502
30 0.003966
22 0.004003
49 0.004023
76 0.004016
120 0.003998
146 0.002993
146 0.003023
116 0.002988
108 0.00303
114 0.002992
134 0.001987
145 0.001995
161 0.002997
173 0.001029
179 0.0
170 0.0
97 0.000999
26 0.0
41 0.0
68 0.0
116 0.0
152 0.000998
153 0.000968
122 0.000971
109 0.000966
113 0.000998
128 0.000994
144 0.002025
157 0.001975
167 0.001998
175 0.000999
155 0.001945
83 0.001962
31 0.001995
38 0.00203
80 0.002042
130 0.001967
153 0.001999
154 0.001995
118 0.001989
110 0.003008
120 0.001963
133 0.001856
152 0.002997
167 0.002949
174 0.003951
183 0.00399
161 0.004028
48 0.003955
32 0.004993
51 0.004984
86 0.004014
130 0.005996
150 0.006979
146 0.007012
120 0.002948
110 0.007011
119 0.003
136 0.007973
152 0.003
166 0.002963
174 0.002957
184 0.002992
167 0.006026
67 0.002003
30 0.005989
39 0.0
70 0.005991
111 0.005956
133 0.004989
148 0.004987
131 0.002992
112 0.003991
116 0.002991
133 0.003033
145 0.003025
163 0.002006
174 0.002993
181 0.002991
187 0.004995
105 0.004989
45 0.004963
34 0.004995
51 0.004983
94 0.004961
132 0.005956
148 0.005975
147 0.005957
131 0.004952
115 0.003995
126 0.007999
139 0.003959
160 0.007984
175 0.007008
180 0.007943
186 0.005983
190 0.007953
196 0.007012
112 0.001969
46 0.00602
35 0.001957
72 0.0
101 0.001035
144 0.002016
159 0.001967
148 0.002017
119 0.000999
115 0.002021
131 0.00302
149 0.003981
164 0.00197
174 0.003078
182 0.002967
188 0.00298
193 0.002993
173 0.003024
53 0.003004
34 0.002952
57 0.00203
98 0.001995
138 0.001994
167 0.000987
163 0.001995
139 0.002003
118 0.001948
130 0.002967
142 0.00306
161 0.002964
170 0.002994
181 0.002992
190 0.002986
191 0.002983
94 0.002961
41 0.002999
40 0.002983
83 0.001999
114 0.003002
158 0.004
171 0.00399
152 0.003998
124 0.004821
121 0.004016
134 0.00602
155 0.004986
165 0.005954
179 0.005978
186 0.004001
191 0.00801
146 0.002001
35 0.0
27 0.0
56 0.0
85 0.001001
130 0.0
159 0.0
156 0.00197
125 0.00204
114 0.003981
119 0.002951
140 0.002993
152 0.002988
168 0.001983
179 0.002994
186 0.002995
187 0.002046
97 0.001995
30 0.001995
29 0.002986
58 0.0
96 0.0
138 0.0
154 0.0
148 0.002966
118 0.002994
114 0.003988
129 0.00299
147 0.004938
159 0.00496
174 0.001993
183 0.007033
190 0.002961
191 0.007027
81 0.007007
32 0.007018
34 0.00701
58 0.008027
108 0.005976
150 0.001992
162 0.005019
146 0.002961
126 0.005009
117 0.000967
133 0.001009
145 0.002016
160 0.003019
174 0.003038
181 0.002002
190 0.002021
157 0.002005
74 0.002036
28 0.001997
40 0.001995
89 0.001996
142 0.002041
163 0.00299
163 0.0
132 0.001999
115 0.000965
121 0.001947
136 0.001963
152 0.001995
168 0.001963
175 0.001996
185 0.003993
149 0.003981
69 0.004987
51 0.001973
38 0.002995
70 0.001969
133 0.00398
157 0.003969
163 0.002981
126 0.003989
114 0.003987
121 0.003946
133 0.00299
152 0.002975
168 0.006981
175 0.002966
180 0.008009
132 0.002994
42 0.00703
29 0.007007
57 0.007959
95 0.006984
140 0.001956
154 0.005991
138 0.0
116 0.005014
107 0.000957
123 0.00195
136 0.002983
150 0.002028
166 0.002034
173 0.002033
175 0.001983
65 0.002027
28 0.002029
32 0.001988
53 0.002
93 0.002064
128 0.002019
137 0.001996
118 0.002026
103 0.001994
104 0.002041
123 0.002997
136 0.003009
151 0.002021
165 0.000983
173 0.000999
181 0.001013
147 0.002001
38 0.002046
31 0.001045
47 0.001892
85 0.001947
120 0.002981
134 0.002027
124 0.002957
109 0.002989
104 0.002025
121 0.002989
133 0.002987
151 0.003897
160 0.005974
167 0.004996
177 0.005995
174 0.004987
75 0.006029
33 0.004978
40 0.005007
77 0.00601
101 0.005986
136 0.006023
140 0.002994
125 0.007963
104 0.00399
112 0.002993
124 0.001979
146 0.002992
155 0.000997
166 0.002067
172 0.000992
176 0.001951
181 0.002965
122 0.005995
46 0.00198
37 0.006015
57 0.003029
91 0.006032
129 0.001958
145 0.005984
137 0.001996
118 0.006063
108 0.0
123 0.0
137 0.000997
157 0.002951
172 0.001955
176 0.001992
181 0.001995
183 0.001996
187 0.003
183 0.002033
123 0.002034
39 0.003009
44 0.001877
65 0.0
106 0.0
127 0.0
149 0.0
136 0.0
113 0.0
109 0.0
126 0.000998
141 0.001996
162 0.002044
171 0.001995
181 0.001999
186 0.001955
189 0.001996
193 0.002004
191 0.003994
134 0.003983
40 0.003991
35 0.003017
49 0.010971
99 0.002979
120 0.004998
150 0.004968
146 0.005982
129 0.00498
114 0.005993
120 0.005045
142 0.005948
165 0.006952
176 0.006934
187 0.00692
191 0.00695
195 0.007006
198 0.003026
201 0.006967
175 0.00297
69 0.006952
34 0.003031
54 0.00394
82 0.002968
128 0.002999
161 0.004015
164 0.003031
137 0.001997
119 0.004986
123 0.002004
139 0.004985
157 0.000998
172 0.00498
183 0.004986
188 0.004986
194 0.004996
198 0.005006
171 0.002976
49 0.002988
33 0.001988
49 0.002031
98 0.002012
128 0.0
166 0.0
167 0.001983
145 0.001996
120 0.003029
130 0.002992
143 0.002987
163 0.002922
173 0.003046
184 0.003005
192 0.002982
195 0.002984
153 0.002986
50 0.005031
29 0.004968
51 0.005985
80 0.004991
130 0.007008
166 0.006988
170 0.00698
142 0.006958
123 0.00699
124 0.007977
140 0.002995
158 0.007996
171 0.000997
182 0.00307
187 0.002031
193 0.0
170 0.0
83 0.00098
22 0.001047
29 0.0
72 0.001952
109 0.004023
141 0.001911
157 0.003021
138 0.003028
119 0.003
112 0.001995
122 0.001995
140 0.001999
160 0.002025
169 0.0
180 0.0
188 0.0
182 0.000997
61 0.0
26 0.000998
35 0.000958
80 0.002961
108 0.002984
147 0.00402
157 0.003992
141 0.004997
115 0.004988
118 0.005977
130 0.004977
151 0.006009
162 0.003959
175 0.007023
185 0.006981
189 0.006981
158 0.006983
50 0.002992
23 0.006981
42 0.002044
71 0.00694
122 0.001985
159 0.0
163 0.001014
134 0.002033
114 0.000966
118 0.001996
137 0.001996
150 0.001996
163 0.002991
176 0.003008
183 0.002964
183 0.002992
79 0.002992
32 0.001947
34 0.001997
70 0.0
113 0.000976
149 0.002029
164 0.0
148 0.0
115 0.000967
113 0.0
128 0.0
141 0.001013
159 0.0
173 0.000977
180 0.000998
176 0.0
107 0.013962
79 0.003038
25 0.001996
47 0.002055
116 0.003062
155 0.002985
161 0.00299
131 0.003028
112 0.004022
114 0.002961
130 0.004981
147 0.005004
161 0.005999
175 0.005982
182 0.005973
159 0.006018
55 0.003016
24 0.00598
37 0.002998
71 0.007972
107 0.002012
144 0.002029
152 0.001996
129 0.000999
109 0.002966
112 0.002009
132 0.002021
150 0.004944
162 0.001823
172 0.003989
179 0.002994
186 0.003023
99 0.003012
37 0.002993
26 0.003024
44 0.002986
89 0.002001
120 0.002028
145 0.0
144 0.000998
117 0.001994
109 0.002015
120 0.002005
143 0.002029
156 0.002947
170 0.003018
177 0.003023
185 0.004007
190 0.004954
149 0.003942
35 0.004986
32 0.005012
45 0.005051
92 0.003938
119 0.004013
153 0.005016
148 0.006001
128 0.004983
112 0.005939
125 0.004944
139 0.005996
160 0.006955
168 0.006949
178 0.005025
187 0.003035
191 0.002963
174 0.003989
51 0.002027
30 0.003016
51 0.001995
82 0.0
133 0.000997
163 0.004975
166 0.002992
137 0.004019
115 0.004956
119 0.003987
140 0.004994
152 0.003987
168 0.004022
180 0.002959
185 0.004004
190 0.002028
153 0.003983
42 0.002987
38 0.002038
53 0.002983
115 0.001996
160 0.002924
169 0.002968
160 0.002029
128 0.000966
119 0.002994
134 0.003005
147 0.002972
166 0.002985
179 0.002989
185 0.0
193 0.0
170 0.0
46 0.0
29 0.000998
52 0.0
91 0.0
128 0.0
158 0.0
159 0.001995
139 0.001995
116 0.00299
126 0.001986
140 0.003002
161 0.003001
170 0.002959
181 0.002991
190 0.00299
192 0.002993
125 0.004986
29 0.00399
27 0.003997
62 0.00399
91 0.003991
134 0.001991
152 0.009012
157 0.003009
125 0.007014
114 0.007006
122 0.007006
144 0.00699
163 0.0
171 0.007012
182 0.002008
187 0.004018
192 0.001964
100 0.002001
39 0.001996
28 0.002992
71 0.002022
100 0.002025
134 0.002985
157 0.00299
148 0.002991
123 0.002021
117 0.002045
127 0.001987
149 0.003035
160 0.00302
175 0.001962
182 0.002022
191 0.003014
185 0.00302
87 0.0
31 0.000997
39 0.001
74 0.001963
126 0.001988
154 0.001963
171 0.001031
143 0.001948
124 0.001965
123 0.002998
141 0.004019
153 0.004019
170 0.005019
175 0.004953
188 0.004042
154 0.004987
97 0.004968
30 0.004984
52 0.00693
84 0.001978
138 0.006983
163 0.003982
172 0.007979
141 0.006977
122 0.007003
124 0.005994
142 0.001972
155 0.006981
171 0.002993
179 0.002993
186 0.000945
91 0.000973
37 0.001999
36 0.001995
70 0.003977
110 0.001998
147 0.00303
166 0.002987
150 0.003012
118 0.003001
115 0.002985
130 0.003016
147 0.001973
162 0.001988
174 0.0
183 0.001935
157 0.000999
41 0.000999
25 0.001975
48 0.002009
94 0.001988
120 0.002031
153 0.001962
153 0.001987
122 0.002991
112 0.002988
119 0.003064
140 0.002051
159 0.00397
169 0.003992
181 0.003988
184 0.004954
80 0.00499
28 0.004984
32 0.004976
61 0.005014
104 0.006889
127 0.007032
148 0.007941
144 0.00698
117 0.004004
111 0.001985
121 0.005992
142 0.001985
160 0.0
170 0.000968
181 0.0
187 0.001961
149 0.002026
37 0.002002
27 0.002034
53 0.002013
89 0.002996
113 0.002992
147 0.002982
145 0.003001
128 0.002956
114 0.003028
120 0.002945
140 0.0
157 0.0
170 0.0
179 0.0
188 0.0
191 0.000967
170 0.000987
88 0.00095
30 0.002026
51 0.001961
80 0.002995
118 0.003989
156 0.001997
159 0.002992
128 0.00301
116 0.002974
123 0.002031
135 0.012923
144 0.003024
156 0.002936
174 0.0
188 0.003995
192 0.003969
138 0.003978
48 0.005021
39 0.004979
60 0.005965
112 0.005023
142 0.005985
172 0.005985
159 0.004011
129 0.006982
120 0.004013
130 0.007025
146 0.002989
163 0.003991
172 0.003997
184 0.003013
192 0.003009
170 0.001986
50 0.001987
32 0.001995
55 0.003003
95 0.00698
134 0.001995
164 0.00698
161 0.006024
139 0.005983
118 0.002991
123 0.005023
142 0.005987
161 0.002983
170 0.003984
180 0.003008
190 0.002989
183 0.002995
62 0.003042
30 0.002988
41 0.002969
86 0.003951
114 0.003007
152 0.003032
160 0.003002
136 0.002992
114 0.002956
117 0.001995
136 0.002025
153 0.002951
166 0.003013
177 0.003036
185 0.001945
187 0.002977
77 0.002993
32 0.002983
32 0.002022
55 0.0
100 0.001004
139 0.0
152 0.000998
139 0.000984
114 0.0
113 0.000967
130 0.002004
144 0.002007
162 0.002956
176 0.002006
182 0.002981
190 0.003004
135 0.003042
41 0.003039
28 0.002992
50 0.002992
85 0.002959
129 0.002995
149 0.002997
152 0.002988
135 0.003986
115 0.004955
122 0.004968
138 0.004979
158 0.004993
173 0.005006
178 0.004993
188 0.004987
191 0.004975
111 0.004992
30 0.004032
39 0.004013
72 0.005019
102 0.005062
154 0.00498
164 0.006017
150 0.004985
120 0.00598
117 0.003983
132 0.007027
151 0.007969
162 0.007961
173 0.007973
184 0.001981
186 0.007092
95 0.00303
43 0.006981
41 0.002003
84 0.002987
115 0.001973
159 0.002965
163 0.001953
141 0.002022
117 0.001982
120 0.000935
137 0.001985
153 0.004949
166 0.002025
176 0.004024
187 0.002984
176 0.002983
61 0.003001
34 0.002989
49 0.001996
85 0.002007
123 0.00201
155 0.001996
158 0.001954
139 0.001967
116 0.003024
120 0.003027
138 0.001971
158 0.003006
167 0.002992
179 0.002984
185 0.001952
189 0.013964
145 0.001992
33 0.002018
41 0.001032
84 0.002003
110 0.002991
148 0.002013
156 0.001995
134 0.002985
115 0.002992
117 0.002992
132 0.003001
153 0.003027
163 0.003045
175 0.002983
182 0.002986
189 0.003038
112 0.002026
46 0.003002
32 0.002988
48 0.004026
91 0.003975
131 0.002979
149 0.003958
145 0.003996
127 0.003984
113 0.004007
122 0.004022
140 0.003991
156 0.00498
171 0.003998
178 0.005025
188 0.006018
192 0.005986
140 0.005963
45 0.003989
30 0.006021
52 0.003987
89 0.005831
125 0.003985
157 0.003982
158 0.004
130 0.003971
117 0.003994
123 0.003989
144 0.002986
156 0.003022
171 0.003989
182 0.006987
188 0.002993
194 0.006971
167 0.002981
62 0.006984
33 0.006997
48 0.006981
97 0.005976
147 0.00096
166 0.00602
163 0.001995
140 0.00601
119 0.0
130 0.0
142 0.001014
160 0.000971
175 0.001979
181 0.001957
190 0.001975
183 0.001997
69 0.003018
32 0.003002
40 0.003043
86 0.003997
128 0.003009
163 0.002982
169 0.002985
148 0.002986
120 0.002976
123 0.00203
139 0.002007
154 0.002989
168 0.002988
178 0.000999
188 0.0
183 0.0
68 0.000963
29 0.000998
42 0.000868
88 0.000958
118 0.001001
158 0.000964
161 0.000998
140 0.000998
116 0.000971
120 0.000985
138 0.0
158 0.002021
167 0.002001
180 0.003007
187 0.003017
161 0.002994
55 0.002993
24 0.002999
38 0.002991
83 0.003989
109 0.003989
148 0.00398
151 0.004025
133 0.004919
111 0.00499
114 0.004988
130 0.004964
155 0.004994
164 0.004974
174 0.004003
180 0.003992
188 0.003958
102 0.002948
37 0.001994
26 0.002988
53 0.00598
89 0.002968
122 0.004002
150 0.005962
148 0.005992
119 0.004982
110 0.005962
119 0.004966
142 0.002007
155 0.003983
170 0.001989
180 0.002852
183 0.002994
191 0.002982
159 0.001989
52 0.002997
29 0.003023
40 0.001984
96 0.002979
131 0.0
150 0.001995
152 0.0
133 0.001008
113 0.000999
119 0.000981
136 0.002018
153 0.001988
169 0.000997
176 0.002936
186 0.003985
191 0.004028
160 0.00402
42 0.005027
28 0.004987
56 0.004992
98 0.004969
138 0.004863
165 0.002992
167 0.002993
135 0.000998
115 0.003991
121 0.003989
140 0.002993
155 0.007979
167 0.002992
179 0.007878
185 0.001994
184 0.007979
56 0.007979
31 0.007979
49 0.008008
89 0.002
120 0.006988
164 0.002045
170 0.006001
140 0.0
116 0.003005
120 0.002979
137 0.002004
156 0.003024
166 0.003008
179 0.003
183 0.003956
164 0.003005
46 0.001985
29 0.002005
49 0.002029
97 0.002992
126 0.000998
160 0.001048
154 0.00101
125 0.002005
111 0.001995
119 0.002031
135 0.001801
155 0.002003
164 0.000996
178 0.001994
184 0.002992
156 0.004945
51 0.003983
25 0.00294
38 0.003955
80 0.002995
106 0.003002
143 0.00299
144 0.00298
125 0.003966
107 0.002988
110 0.003128
130 0.002993
152 0.007952
162 0.001995
175 0.007011
183 0.007007
184 0.00798
96 0.006978
38 0.00603
30 0.006021
65 0.002995
91 0.006019
131 0.0
147 0.006029
140 0.000969
113 0.002002
110 0.002012
125 0.00201
148 0.002968
160 0.001982
173 0.001992
180 0.002995
188 0.00199
193 0.004016
177 0.002983
51 0.004001
29 0.003023
44 0.003038
89 0.003024
114 0.002993
150 0.002027
154 0.0
130 0.0
113 0.0
113 0.002024
132 0.002019
154 0.0
164 0.0
176 0.001
187 0.001996
192 0.002945
171 0.003007
50 0.001995
32 0.002997
54 0.004071
84 0.003968
136 0.003017
169 0.003018
167 0.00402
130 0.003989
115 0.005984
122 0.004987
138 0.005994
150 0.006009
168 0.005997
181 0.00798
187 0.007977
188 0.001984
80 0.001991
38 0.001997
43 0.001988
69 0.002961
121 0.00396
164 0.001958
171 0.000999
143 0.001946
121 0.004027
121 0.002975
135 0.00302
155 0.002962
166 0.003
181 0.002993
188 0.001993
155 0.003965
54 0.002011
31 0.002988
47 0.001998
83 0.002036
121 0.001992
158 0.003045
161 0.003026
124 0.002988
114 0.001022
119 0.001007
139 0.000954
159 0.003005
169 0.004002
183 0.003999
184 0.003961
82 0.003983
28 0.004023
34 0.004022
62 0.003993
104 0.006017
134 0.004982
148 0.006942
126 0.007031
111 0.00798
112 0.007948
121 0.007963
142 0.007954
157 0.003013
166 0.007015
179 0.003997
179 0.006951
77 0.003002
30 0.002992
36 0.0
70 0.00187
107 0.0
129 0.000967
140 0.002023
128 0.002011
109 0.000953
113 0.004987
128 0.002004
145 0.004019
163 0.00499
171 0.003987
182 0.003039
185 0.002968
100 0.002944
39 0.002968
38 0.002951
61 0.002993
93 0.002994
123 0.002962
147 0.002991
140 0.00298
114 0.002992
113 0.0
123 0.001041
144 0.0
155 0.0
169 0.0
179 0.0
185 0.001957
181 0.001994
70 0.001971
42 0.0
50 0.001969
73 0.002006
117 0.002009
148 0.002025
155 0.001952
132 0.001962
112 0.001992
114 0.002994
132 0.003994
144 0.003866
161 0.005954
171 0.002984
180 0.005981
187 0.001992
142 0.001979
70 0.002001
41 0.003959
68 0.001985
96 0.0
143 0.0
165 0.004987
156 0.00296
129 0.002943
119 0.002983
128 0.003054
149 0.002991
161 0.002981
175 0.00299
182 0.00296
190 0.002993
193 0.003009
141 0.002979
50 0.003024
37 0.001994
53 0.001952
97 0.0
122 0.000997
156 0.002993
149 0.001995
130 0.001991
115 0.001967
130 0.001981
143 0.004028
164 0.005008
176 0.004998
182 0.004956
192 0.005924
188 0.006953
120 0.006953
36 0.006018
35 0.006971
68 0.006984
103 0.003971
135 0.005953
159 0.002992
160 0.007979
132 0.001993
121 0.002944
129 0.002996
152 0.002968
172 0.001964
180 0.0
190 0.00196
195 0.0
200 0.002971
145 0.004987
47 0.001947
32 0.00395
64 0.003988
94 0.00402
141 0.003005
163 0.002991
166 0.002992
140 0.002963
123 0.002953
128 0.002996
149 0.003044
162 0.0
179 0.001002
190 0.000857
195 0.000999
199 0.001001
159 0.001965
42 0.000973
40 0.001996
65 0.001938
121 0.001002
152 0.000958
180 0.001984
162 0.001995
138 0.000968
126 0.001991
139 0.002994
155 0.002991
170 0.001996
181 0.002025
189 0.003989
194 0.004006
149 0.003997
38 0.004018
39 0.004982
66 0.003978
111 0.004979
153 0.00602
176 0.003991
166 0.004024
135 0.004928
124 0.002993
138 0.001993
151 0.004001
170 0.002954
179 0.002952
190 0.002983
183 0.005967
81 0.0
28 0.005967
42 0.006951
71 0.005986
123 0.005981
150 0.005974
169 0.005994
143 0.0
124 0.005981
123 0.000964
133 0.005019
154 0.000999
172 0.001978
180 0.002024
189 0.001998
163 0.001898
38 0.002009
26 0.002008
45 0.002021
94 0.001994
130 0.003984
155 0.002029
155 0.004025
130 0.001961
115 0.004008
123 0.003005
136 0.002954
157 0.002987
170 0.003022
179 0.003023
188 0.0
179 0.0
52 0.0
22 0.0
36 0.0
62 0.023938
91 0.00301
140 0.00199
150 0.001995
133 0.000967
113 0.0
122 0.001999
134 0.003015
155 0.004025
169 0.005031
178 0.004975
189 0.004978
157 0.004029
53 0.004988
29 0.006023
44 0.005983
90 0.006972
128 0.002994
151 0.006964
158 0.001958
127 0.001945
116 0.002011
124 0.001966
136 0.002983
157 0.0
173 0.000998
181 0.000974
188 0.001
136 0.00397
45 0.001987
32 0.005012
55 0.003023
95 0.003989
145 0.003995
164 0.003998
155 0.004021
127 0.002952
117 0.002982
125 0.002963
141 0.001951
156 0.001952
172 0.003002
180 0.003027
174 0.003022
61 0.001963
35 0.000967
51 0.0
100 0.002969
132 0.002988
168 0.003997
166 0.003978
131 0.002992
118 0.004954
125 0.004013
140 0.00399
152 0.004987
171 0.004023
181 0.007976
154 0.006981
76 0.007002
33 0.006982
43 0.006978
86 0.005986
134 0.001013
157 0.006011
159 0.001996
126 0.000997
117 0.003011
127 0.001999
138 0.002002
159 0.002986
176 0.001999
183 0.003024
151 0.003006
55 0.002998
31 0.002
55 0.001936
82 0.002992
126 0.0
156 0.0
154 0.0
126 0.0
116 0.0
125 0.0
141 0.0
158 0.001994
173 0.000998
186 0.001995
176 0.003982
56 0.00402
31 0.004973
45 0.004987
77 0.004994
110 0.004954
140 0.003989
151 0.003015
137 0.003023
116 0.002983
123 0.002995
135 0.00302
156 0.003994
167 0.00399
181 0.003021
188 0.006955
142 0.002995
40 0.007979
37 0.00703
54 0.006981
97 0.006949
123 0.006967
155 0.005978
148 0.003011
131 0.004946
121 0.001022
136 0.001852
148 0.001969
166 0.00301
175 0.002996
187 0.002998
194 0.003024
185 0.002991
65 0.002993
36 0.003027
51 0.002994
99 0.002993
129 0.003972
167 0.005002
167 0.002987
140 0.004982
123 0.002956
127 0.00499
141 0.00399
160 0.002977
170 0.003012
183 0.001997
192 0.000953
180 0.0
62 0.001001
38 0.001995
56 0.002002
107 0.002945
138 0.002977
174 0.002994
161 0.002934
138 0.002957
125 0.003991
135 0.005
151 0.003986
166 0.004036
175 0.003992
188 0.007061
187 0.004988
125 0.006983
37 0.005985
42 0.002989
75 0.00698
117 0.002966
155 0.007955
173 0.002998
153 0.002993
132 0.00202
126 0.002986
135 0.00298
156 0.001994
173 0.0
181 0.0
192 0.0
175 0.004984
69 0.001999
30 0.004978
42 0.001989
78 0.003997
128 0.004032
153 0.003031
169 0.003942
141 0.002981
125 0.002996
125 0.00304
140 0.003915
160 0.003025
173 0.001955
181 0.001985
192 0.003
173 0.0
86 0.0
26 0.0
34 0.0
77 0.0
124 0.001009
148 0.0
164 0.000846
139 0.001994
124 0.002994
125 0.003988
141 0.004986
154 0.002993
172 0.006984
184 0.006981
190 0.006982
193 0.007979
167 0.007979
39 0.006982
28 0.002976
49 0.007014
99 0.002007
127 0.00698
163 0.0
159 0.000971
140 0.000999
122 0.001937
135 0.000943
148 0.003006
168 0.003018
178 0.003025
186 0.002987
193 0.001987
196 0.001984
156 0.003
33 0.002992
24 0.003018
55 0.000968
98 0.0
138 0.000951
165 0.000954
163 0.001998
141 0.002992
119 0.002992
123 0.003026
143 0.005001
159 0.00497
171 0.005004
182 0.003943
191 0.004983
192 0.004988
123 0.004985
47 0.003993
29 0.004948
71 0.003967
105 0.003992
156 0.003993
173 0.006946
163 0.003999
127 0.006997
121 0.003967
135 0.006994
151 0.002963
161 0.007977
174 0.003949
183 0.007028
189 0.003006
163 0.003006
78 0.003011
24 0.001978
35 0.001973
84 0.002008
138 0.002961
155 0.002006
171 0.002989
146 0.006984
122 0.002985
124 0.005987
143 0.004039
154 0.004022
169 0.003989
177 0.003987
187 0.002993
185 0.003003
120 0.004025
29 0.003004
26 0.002993
59 0.002992
100 0.0
146 0.000998
161 0.0
152 0.000981
129 0.002027
114 0.000976
128 0.002026
141 0.001966
160 0.002008
169 0.00201
180 0.001991
188 0.001995
181 0.001996
55 0.002046
20 0.001966
31 0.001964
68 0.002002
107 0.001016
142 0.002025
159 0.00201
149 0.003018
117 0.003043
113 0.003004
128 0.003025
150 0.003023
160 0.003982
174 0.005006
184 0.004024
189 0.005021
173 0.004947
62 0.00498
20 0.004985
40 0.00497
70 0.004971
122 0.004984
147 0.005028
164 0.00498
140 0.006012
121 0.003976
120 0.005984
131 0.005003
151 0.006946
168 0.006948
175 0.007019
185 0.00699
189 0.003981
122 0.006987
34 0.003957
27 0.007946
56 0.002959
112 0.00295
143 0.002958
171 0.002007
155 0.002967
132 0.00304
119 0.001994
126 0.004051
145 0.003009
159 0.006991
171 0.002985
180 0.006017
182 0.00298
106 0.00601
27 0.00504
31 0.004994
74 0.004983
107 0.004968
156 0.005019
167 0.000966
150 0.004984
116 0.001008
119 0.0
129 0.000967
149 0.00201
160 0.002026
174 0.002956
164 0.001995
91 0.002035
23 0.002979
33 0.002029
58 0.002993
105 0.002962
134 0.003004
153 0.002994
126 0.00298
109 0.002016
109 0.003036
118 0.003053
139 0.002983
154 0.002992
167 0.002986
169 0.0
66 0.0
28 0.0
31 0.001009
50 0.001
91 0.000966
129 0.000998
139 0.000953
121 0.000951
107 0.00097
106 0.0
122 0.001995
135 0.00199
154 0.000996
166 0.000997
171 0.003
104 0.002992
35 0.002994
30 0.001985
57 0.002992
79 0.002993
115 0.002086
132 0.001996
129 0.00298
107 0.004987
105 0.004988
115 0.004984
135 0.00499
142 0.010939
150 0.002
164 0.001962
176 0.004993
92 0.002992
43 0.003
35 0.003035
65 0.007979
88 0.003022
123 0.006981
137 0.002995
133 0.007129
110 0.007945
107 0.006015
120 0.003989
141 0.002997
151 0.003021
161 0.002992
174 0.002957
179 0.001986
180 0.003029
131 0.003019
36 0.002959
42 0.002963
70 0.002985
112 0.002993
140 0.000997
147 0.001016
125 0.000998
108 0.001995
112 0.001994
131 0.001993
143 0.001986
157 0.002992
165 0.002992
172 0.002994
179 0.003989
171 0.00399
106 0.003994
41 0.004993
43 0.004979
77 0.004987
120 0.004031
144 0.005006
156 0.003975
129 0.00402
114 0.00399
117 0.002992
129 0.003043
150 0.001957
166 0.002991
172 0.001996
181 0.004
187 0.006981
190 0.003031
124 0.006015
48 0.003023
40 0.006958
71 0.005983
97 0.005991
136 0.006983
157 0.002008
147 0.003989
122 0.003
116 0.002945
125 0.003071
152 0.002945
160 0.00295
176 0.002976
183 0.002967
187 0.0
194 0.0
195 0.0
98 0.000961
35 0.0
39 0.000989
75 0.0
115 0.000986
136 0.0
152 0.003003
142 0.002961
115 0.004021
115 0.002993
130 0.002982
148 0.002992
169 0.002919
178 0.002999
187 0.004018
190 0.004025
196 0.00497
198 0.004978
152 0.005986
52 0.005022
35 0.004989
52 0.004037
99 0.003027
132 0.007007
158 0.002996
162 0.006986
139 0.004019
121 0.006984
126 0.005978
139 0.005978
162 0.00599
172 0.005999
185 0.004995
193 0.002964
197 0.004992
201 0.00203
112 0.002992
47 0.002025
37 0.001962
58 0.001995
110 0.001995
148 0.002943
172 0.002964
166 0.003011
129 0.002989
120 0.003953
130 0.00297
143 0.002995
163 0.002962
169 0.001961
174 0.003024
194 0.002005
193 0.001005
106 0.0
37 0.000997
38 0.000966
71 0.002
124 0.002048
153 0.001996
177 0.002025
155 0.002023
133 0.002995
127 0.002982
137 0.003025
157 0.003
174 0.002024
182 0.002991
192 0.003034
197 0.003983
164 0.005953
53 0.002951
27 0.004986
55 0.00496
97 0.005002
135 0.004995
162 0.005034
169 0.004978
144 0.005986
121 0.00695
125 0.006948
144 0.007952
161 0.002962
172 0.007011
184 0.002932
190 0.007981
197 0.000969
107 0.002025
38 0.002017
28 0.001989
69 0.001995
100 0.002964
144 0.001957
165 0.002985
161 0.002957
135 0.001972
123 0.001992
131 0.001965
152 0.00106
165 0.002
180 0.001966
188 0.001963
195 0.001038
195 0.001963
75 0.001966
27 0.003002
33 0.002989
60 0.001971
112 0.002992
155 0.00399
167 0.003993
152 0.004987
122 0.004021
120 0.003964
131 0.004981
143 0.004988
166 0.005001
177 0.004967
184 0.004991
190 0.002991
124 0.005984
34 0.00399
27 0.00399
68 0.002994
112 0.002004
152 0.002008
169 0.002003
157 0.001954
125 0.001986
115 0.002971
123 0.00296
144 0.002987
162 0.001998
171 0.001992
181 0.002994
168 0.002986
48 0.002993
26 0.003008
44 0.001937
96 0.003945
128 0.003975
162 0.003965
148 0.00498
124 0.004985
111 0.004031
122 0.006028
134 0.00702
154 0.007013
167 0.004045
175 0.006937
140 0.000971
33 0.001961
24 0.001951
51 0.001019
79 0.001998
116 0.002992
153 0.002022
147 0.002992
115 0.002039
108 0.002998
115 0.002953
135 0.0
155 0.0
166 0.000959
178 0.000974
152 0.000971
38 0.002031
24 0.001988
43 0.002989
77 0.003987
117 0.003954
136 0.003959
139 0.003957
122 0.003991
107 0.004993
115 0.005085
131 0.005985
147 0.004994
164 0.005002
174 0.00501
180 0.004987
141 0.003981
36 0.004988
32 0.00399
44 0.010003
91 0.003011
120 0.006961
143 0.002943
140 0.007014
119 0.003007
112 0.007977
124 0.006982
136 0.006988
155 0.006055
170 0.002018
178 0.003989
188 0.003029
107 0.002978
59 0.0
32 0.0
45 0.0
86 0.0
127 0.0
147 0.0
145 0.0
118 0.0
112 0.0
125 0.000968
137 0.000998
156 0.002022
171 0.001962
180 0.001997
188 0.001988
131 0.003017
47 0.002017
37 0.002987
60 0.002987
97 0.003023
143 0.004996
160 0.004981
146 0.005944
121 0.004984
116 0.006948
127 0.002993
147 0.003076
158 0.003962
173 0.002972
181 0.002992
184 0.001976
77 0.002944
41 0.002958
48 0.002941
71 0.002964
117 0.003004
150 0.005982
163 0.002943
144 0.005961
119 0.006949
121 0.004972
138 0.004987
150 0.004019
168 0.003028
179 0.00298
188 0.002983
187 0.003009
71 0.002963
35 0.002985
45 0.0
86 0.0
111 0.0
148 0.0
157 0.0
137 0.000998
118 0.000943
121 0.000968
140 0.001044
153 0.000936
171 0.002019
184 0.002956
190 0.002931
167 0.003982
65 0.003988
37 0.004021
48 0.003999
89 0.004949
114 0.004963
145 0.004
161 0.006006
147 0.003992
123 0.003931
123 0.003983
140 0.00409
160 0.002992
171 0.00302
186 0.002957
193 0.002975
194 0.002992
72 0.007956
38 0.003982
43 0.005993
83 0.007027
110 0.006019
151 0.006018
164 0.00498
152 0.005011
127 0.002856
127 0.003947
137 0.002982
160 0.002982
171 0.001992
183 0.001001
190 0.0
144 0.000953
46 0.0
