112 0.007976
112 0.004985
112 0.004986
115 0.006975
121 0.006982
133 0.005021
145 0.006983
156 0.004977
165 0.003995
171 0.00402
141 0.006934
75 0.007968
48 0.004981
44 0.004987
52 0.005017
64 0.006946
76 0.006982
96 0.004021
109 0.006976
111 0.004047
111 0.004004
113 0.003961
119 0.006981
130 0.007976
139 0.004988
149 0.004987
156 0.004987
165 0.006962
172 0.006964
181 0.003989
174 0.00695
105 0.004953
64 0.004965
50 0.003989
54 0.007979
69 0.007985
79 0.004018
93 0.003969
107 0.004017
115 0.007979
114 0.007988
113 0.004043
118 0.006974
128 0.00399
136 0.003009
146 0.003992
159 0.00797
168 0.007962
176 0.004034
183 0.00399
188 0.005057
194 0.00798
198 0.007979
208 0.005019
181 0.007965
107 0.005019
75 0.004986
66 0.004987
72 0.007938
87 0.007933
99 0.003993
113 0.005006
124 0.004988
127 0.007037
125 0.007016
123 0.00493
128 0.007976
138 0.005939
146 0.005927
156 0.004956
166 0.007948
174 0.007927
184 0.003992
190 0.004954
196 0.003971
202 0.007022
206 0.00798
207 0.004965
124 0.007021
87 0.005021
74 0.004995
79 0.004988
90 0.007979
108 0.00797
123 0.004987
136 0.004987
140 0.004022
134 0.006999
130 0.007027
131 0.004026
141 0.006985
149 0.004954
158 0.004987
167 0.004953
176 0.007979
183 0.007979
194 0.004033
185 0.003969
133 0.003985
89 0.007974
69 0.007979
71 0.004986
91 0.007032
106 0.00399
122 0.005017
133 0.005018
134 0.006956
130 0.006975
129 0.005015
130 0.00298
136 0.004975
147 0.007932
156 0.006984
165 0.006053
182 0.006982
188 0.005972
149 0.005992
99 0.004992
64 0.006982
62 0.006983
70 0.005985
82 0.00399
96 0.005985
111 0.004987
126 0.007029
129 0.005987
124 0.007026
123 0.007974
127 0.005981
134 0.006019
143 0.006026
155 0.007021
166 0.007035
176 0.005986
177 0.005036
132 0.005027
71 0.006953
51 0.006036
56 0.006014
67 0.005986
80 0.005984
95 0.006006
109 0.005989
116 0.007023
114 0.007016
113 0.005998
114 0.005994
119 0.006035
131 0.007043
140 0.005991
156 0.006042
165 0.005988
173 0.005984
146 0.006032
92 0.006033
48 0.007024
42 0.006955
52 0.006016
60 0.006005
72 0.006011
92 0.006966
104 0.00704
110 0.005986
109 0.005951
110 0.005953
114 0.005985
121 0.005981
134 0.00702
143 0.005982
156 0.005984
166 0.006008
175 0.006022
165 0.006028
113 0.006012
49 0.005986
41 0.006946
48 0.005984
59 0.005954
70 0.005985
91 0.007023
102 0.007007
107 0.005986
107 0.006015
107 0.005975
111 0.005948
118 0.005933
133 0.005985
142 0.006026
151 0.005988
160 0.006006
169 0.005985
177 0.006888
140 0.005986
72 0.005986
44 0.005883
41 0.005926
51 0.006017
63 0.005986
88 0.006034
100 0.005931
107 0.005974
106 0.005957
104 0.006037
104 0.005984
110 0.005962
120 0.005985
129 0.005989
138 0.005934
138 0.025931
144 0.002978
148 0.000997
170 0.0
59 0.0
56 0.001993
105 0.0
106 0.001968
121 0.0
162 0.0
95 0.001027
51 0.000998
95 0.00297
111 0.004983
114 0.004987
111 0.004989
111 0.004963
116 0.004989
122 0.005985
131 0.005996
140 0.004988
156 0.005984
165 0.006015
175 0.005953
165 0.005001
115 0.004936
70 0.004981
49 0.004948
53 0.004901
64 0.004971
76 0.004968
90 0.003975
106 0.005007
118 0.005987
116 0.005986
115 0.004988
119 0.004976
126 0.00499
135 0.005018
144 0.00494
154 0.00504
165 0.004967
173 0.005042
182 0.004987
185 0.005022
109 0.005948
67 0.005939
50 0.004941
57 0.004989
67 0.004986
78 0.005024
92 0.004987
106 0.005032
116 0.004019
116 0.004024
114 0.004019
116 0.003989
126 0.003987
136 0.003951
146 0.00498
158 0.005022
167 0.004987
175 0.004971
183 0.005022
191 0.005047
180 0.004023
125 0.004988
76 0.004979
52 0.00402
58 0.003989
69 0.003977
81 0.004024
101 0.005026
114 0.004996
120 0.003989
119 0.004987
117 0.004989
120 0.005031
128 0.004988
137 0.005003
146 0.003996
163 0.004987
172 0.004986
182 0.00399
192 0.005004
201 0.004021
195 0.003962
139 0.003985
85 0.004023
56 0.004987
58 0.004943
70 0.003983
83 0.004987
108 0.004972
122 0.004952
128 0.004021
124 0.003975
121 0.004009
123 0.003987
129 0.004018
137 0.00403
152 0.003967
162 0.003955
171 0.005023
181 0.003989
195 0.004953
203 0.004947
198 0.00395
120 0.003977
76 0.00399
58 0.003991
61 0.00399
74 0.003992
94 0.002991
111 0.004007
128 0.00399
136 0.003996
129 0.004944
125 0.004022
126 0.004023
136 0.003961
144 0.003029
154 0.002967
164 0.003038
175 0.002991
188 0.003028
196 0.003024
171 0.003023
111 0.003013
58 0.003024
58 0.003989
69 0.004012
89 0.004042
106 0.004017
123 0.003995
134 0.004012
134 0.002947
127 0.004028
127 0.003989
131 0.003022
138 0.003033
154 0.002989
165 0.003989
176 0.003957
191 0.00303
192 0.003024
143 0.002973
90 0.003024
59 0.002992
56 0.004042
67 0.004024
70 0.011968
75 0.001996
107 0.0
126 0.000999
137 0.0
167 0.001995
193 0.001992
79 0.000966
57 0.001021
87 0.00096
110 0.002992
122 0.002992
125 0.00296
121 0.002992
121 0.003946
129 0.002972
137 0.002992
146 0.003022
155 0.003021
169 0.002992
179 0.002981
186 0.008976
170 0.002969
110 0.003016
55 0.002998
43 0.003025
50 0.002016
69 0.003989
83 0.003028
100 0.002994
112 0.002982
116 0.002998
114 0.003049
113 0.002989
116 0.003007
124 0.003024
136 0.002022
146 0.002953
157 0.002002
174 0.002946
185 0.001998
190 0.003036
151 0.003025
76 0.003038
48 0.003042
44 0.002989
54 0.002986
67 0.002998
86 0.003015
103 0.003009
115 0.001968
116 0.002004
113 0.001996
114 0.001996
118 0.002993
129 0.003025
138 0.002994
149 0.002993
159 0.002985
169 0.00202
183 0.002022
175 0.001995
118 0.002022
48 0.001994
41 0.001995
50 0.002022
65 0.001996
87 0.001995
105 0.002011
119 0.002931
119 0.002992
113 0.003029
110 0.001963
112 0.001973
119 0.002019
134 0.001977
144 0.001966
155 0.002029
164 0.001994
176 0.001968
146 0.001919
88 0.002026
48 0.001023
36 0.001994
48 0.002035
62 0.001979
79 0.002023
108 0.001995
116 0.00197
114 0.002027
109 0.002017
110 0.001995
114 0.001995
122 0.000997
132 0.000981
144 0.001983
159 0.001967
170 0.001995
169 0.002
81 0.002063
46 0.001966
36 0.002047
43 0.002044
62 0.002047
77 0.000989
96 0.001018
110 0.000998
116 0.000998
112 0.001984
110 0.001987
113 0.002004
124 0.001988
135 0.001989
146 0.002047
158 0.001998
174 0.001987
170 0.001022
116 0.000997
66 0.001011
39 0.000997
40 0.000997
52 0.00099
66 0.000975
93 0.002
108 0.001985
115 0.000998
114 0.000997
112 0.000998
114 0.000999
122 0.000993
130 0.001006
141 0.000998
155 0.002032
165 0.001993
175 0.0
157 0.001997
98 0.00203
53 0.001997
37 0.000995
41 0.001041
58 0.001005
72 0.001024
88 0.00105
104 0.000993
114 0.000984
115 0.000991
113 0.000994
118 0.000998
126 0.000998
136 0.002021
146 0.001995
155 0.000998
163 0.014927
166 0.0014
183 0.0
154 0.001996
47 0.0
63 0.000998
100 0.001993
122 0.000998
117 0.000998
126 0.000999
138 0.0
148 0.0
166 0.0
176 0.0
186 0.0
196 0.000995
188 0.000987
107 0.000998
63 0.001023
48 0.000986
55 0.000996
70 0.000999
92 0.000997
113 0.0
134 0.0
133 0.0
127 0.0
125 0.000997
128 0.0
137 0.0
147 0.000998
158 0.0
169 0.0
179 0.0
194 0.0
191 0.0
96 0.0
60 0.0
51 0.0
60 0.0
76 0.0
100 0.0
121 0.0
135 0.0
137 0.001013
130 0.0
125 0.00103
127 0.0
138 0.0
150 0.0
160 0.0
173 0.0
185 0.0
169 0.0
109 0.001034
64 0.0
47 0.000975
51 0.0
70 0.0
86 0.0
118 0.0
130 0.0
130 0.0
125 0.0
121 0.0
126 0.0
133 0.0
143 0.000999
154 0.000977
166 0.000964
181 0.0
175 0.0
81 0.0
47 0.0
40 0.0
49 0.0
63 0.0
84 0.0
102 0.0
115 0.0
120 0.000966
118 0.0
116 0.000996
119 0.0
133 0.0
143 0.0
154 0.0
165 0.000999
176 0.001002
171 0.001
115 0.000999
66 0.001003
44 0.001001
44 0.002024
59 0.000999
73 0.000998
99 0.001061
113 0.002064
117 0.000998
117 0.001996
117 0.000999
121 0.001045
129 0.001049
139 0.001038
149 0.000999
158 0.000998
171 0.000994
180 0.000998
189 0.000998
150 0.000998
94 0.000998
60 0.001005
53 0.000998
61 0.001984
76 0.000998
88 0.000996
103 0.002027
116 0.001007
123 0.000988
121 0.001996
122 0.002023
129 0.001036
138 0.001015
148 0.000998
157 0.001009
167 0.001005
179 0.000988
187 0.000997
194 0.000998
201 0.002017
190 0.001038
118 0.000984
74 0.002012
72 0.000997
82 0.00203
93 0.000994
105 0.000997
120 0.001008
135 0.001028
135 0.001005
134 0.001014
133 0.002027
138 0.002031
147 0.001995
160 0.001995
173 0.002053
181 0.002006
190 0.001023
197 0.000998
205 0.000995
214 0.001051
196 0.00104
144 0.00108
103 0.002043
86 0.002004
92 0.000997
108 0.002055
128 0.001998
143 0.001995
152 0.001988
152 0.003049
149 0.001998
148 0.000987
165 0.000998
188 0.001991
211 0.0
136 0.002008
94 0.000997
114 0.001996
132 0.001982
143 0.001027
157 0.002006
155 0.002026
150 0.002016
150 0.002041
154 0.001995
160 0.002026
172 0.002002
181 0.001947
190 0.000998
200 0.000999
206 0.001995
161 0.002006
115 0.001995
84 0.001959
88 0.001995
98 0.002023
112 0.001983
126 0.002013
141 0.001995
150 0.002992
147 0.003026
143 0.001978
146 0.001965
149 0.001995
158 0.00203
171 0.001995
183 0.002031
193 0.001994
204 0.001999
185 0.002008
132 0.001995
91 0.003025
74 0.003028
81 0.001979
88 0.001996
103 0.000998
118 0.001982
137 0.001995
143 0.002021
139 0.001995
138 0.00198
142 0.001985
147 0.001027
156 0.003029
165 0.003043
178 0.001988
188 0.001989
197 0.001016
198 0.00203
117 0.001988
80 0.002027
68 0.002001
77 0.001003
89 0.000964
101 0.00196
117 0.002959
131 0.002949
139 0.001052
138 0.001976
137 0.002029
139 0.002028
149 0.000997
158 0.003027
167 0.002994
180 0.002022
191 0.00204
200 0.000942
209 0.00203
174 0.002993
119 0.002993
75 0.001968
72 0.001997
81 0.002012
101 0.001986
111 0.002001
131 0.002993
141 0.003037
142 0.00105
139 0.000998
140 0.000996
144 0.002992
151 0.003029
163 0.001006
172 0.000997
184 0.001008
200 0.002025
210 0.002022
196 0.003966
139 0.003038
84 0.00098
72 0.001026
79 0.000977
92 0.003002
106 0.002997
130 0.001018
144 0.000997
148 0.00096
141 0.002047
140 0.001005
142 0.00399
149 0.003029
160 0.001048
171 0.001006
181 0.001025
191 0.002967
201 0.002955
181 0.001002
123 0.000997
83 0.000996
70 0.002048
83 0.001023
96 0.003997
114 0.003986
138 0.000944
147 0.001053
144 0.001019
138 0.002986
135 0.002992
138 0.000997
145 0.001026
154 0.000993
171 0.0
183 0.0
192 0.003993
163 0.004028
93 0.0
64 0.001038
59 0.0
68 0.004032
83 0.004023
104 0.001001
122 0.000949
136 0.000989
134 0.000997
130 0.0
128 0.004024
134 0.00399
144 0.000958
154 0.000997
166 0.000999
178 0.004021
188 0.004025
144 0.000985
90 0.001
58 0.000996
56 0.001054
68 0.001024
81 0.004037
98 0.00399
120 0.000979
128 0.001027
128 0.0
124 0.004064
124 0.004039
130 0.00101
137 0.0
148 0.0
166 0.0
178 0.0
186 0.00407
151 0.003956
78 0.001004
49 0.000961
47 0.0
56 0.004022
69 0.003969
89 0.0
106 0.0
119 0.0
122 0.0
120 0.0
121 0.003979
126 0.004991
136 0.0
146 0.001059
157 0.000968
167 0.005003
179 0.00502
188 0.000998
146 0.0
90 0.0
46 0.0
51 0.0
63 0.003989
77 0.005018
98 0.000968
114 0.000962
124 0.0
125 0.005032
123 0.004987
123 0.0
128 0.0
137 0.000964
153 0.0
165 0.0
176 0.004939
188 0.004988
203 0.0
170 0.00097
105 0.0
64 0.004962
50 0.005019
60 0.0
73 0.0
90 0.0
121 0.0
131 0.001048
130 0.004991
126 0.00404
123 0.004987
127 0.000966
135 0.001
144 0.000958
155 0.004987
167 0.00498
182 0.0
194 0.0
185 0.001034
119 0.000949
70 0.001023
50 0.005037
52 0.004953
71 0.000999
88 0.000998
107 0.000998
125 0.004946
131 0.005001
125 0.001004
120 0.0
122 0.001
129 0.001995
138 0.001011
149 0.005018
160 0.005019
175 0.001016
187 0.001
189 0.000963
135 0.004984
79 0.004939
43 0.001022
45 0.001003
67 0.000984
86 0.002013
106 0.001995
123 0.005983
128 0.005016
122 0.000999
118 0.001036
119 0.000998
124 0.005021
133 0.004982
147 0.000966
160 0.000999
179 0.002031
190 0.001996
160 0.002003
97 0.005986
54 0.006027
39 0.002965
49 0.001011
63 0.00201
79 0.005039
98 0.004943
119 0.00099
124 0.000998
118 0.00199
118 0.000996
121 0.00097
129 0.005984
139 0.005985
154 0.001035
166 0.000966
178 0.000979
191 0.00502
189 0.00497
106 0.001964
59 0.000968
38 0.000954
48 0.000961
62 0.001996
77 0.005983
95 0.006016
115 0.001025
119 0.001996
116 0.000999
114 0.006015
115 0.00494
125 0.000998
134 0.000989
151 0.00203
163 0.002015
174 0.001951
186 0.005984
192 0.006027
124 0.002027
70 0.002001
43 0.001988
41 0.006016
51 0.005986
71 0.001016
88 0.001034
116 0.001996
123 0.001961
121 0.001996
119 0.006014
118 0.006039
126 0.001984
137 0.001995
146 0.002035
158 0.006024
170 0.005988
186 0.000996
198 0.002012
196 0.00305
129 0.002035
74 0.001995
47 0.005998
45 0.001931
50 0.0
85 0.001009
118 0.005995
129 0.005982
128 0.001992
123 0.000968
123 0.003019
130 0.002004
139 0.002021
150 0.006037
161 0.005984
177 0.002998
189 0.002999
200 0.001996
209 0.00599
169 0.006976
84 0.001991
54 0.00299
56 0.002995
73 0.003001
90 0.00201
111 0.006032
131 0.005985
138 0.003991
132 0.003019
125 0.002963
125 0.002998
128 0.006951
136 0.006951
151 0.002962
166 0.006984
183 0.003957
195 0.002967
193 0.002994
130 0.00801
77 0.006982
49 0.002962
53 0.002019
66 0.002962
82 0.007012
102 0.00699
130 0.002035
139 0.007002
130 0.003036
125 0.002961
126 0.003025
132 0.006895
144 0.007971
157 0.002003
169 0.002025
183 0.002
196 0.006973
187 0.007008
100 0.001982
50 0.006982
43 0.00202
55 0.00203
71 0.002008
88 0.007019
113 0.007967
127 0.002984
128 0.002027
124 0.001958
120 0.006978
123 0.007015
132 0.003002
146 0.008016
163 0.003022
175 0.002962
188 0.002993
182 0.006982
119 0.007043
53 0.002997
36 0.002992
40 0.002995
52 0.006998
68 0.006972
91 0.00299
117 0.007982
121 0.004033
118 0.004017
115 0.003061
116 0.008015
125 0.00793
135 0.003989
147 0.002992
160 0.002995
174 0.006984
185 0.007
138 0.00299
63 0.007979
35 0.00399
39 0.003964
52 0.003992
68 0.007978
87 0.00798
110 0.004004
120 0.003996
122 0.004988
117 0.007978
116 0.006983
122 0.002995
133 0.007943
149 0.003993
161 0.004023
175 0.003989
192 0.007962
175 0.007035
108 0.004016
59 0.003014
37 0.003015
39 0.007944
57 0.007962
74 0.002992
108 0.007979
120 0.003048
122 0.003998
118 0.003023
114 0.007979
117 0.007977
124 0.002986
134 0.001978
146 0.002986
157 0.007947
170 0.007946
187 0.003989
175 0.007984
89 0.004024
49 0.00399
114 0.002995
130 0.00799
129 0.006983
129 0.002992
129 0.004
129 0.004008
129 0.007972
129 0.007978
129 0.003996
129 0.007965
129 0.003952
129 0.003998
129 0.003996
129 0.006972
129 0.007031
129 0.00401
74 0.003952
0 0.005004
0 0.007007
0 0.007025
0 0.004008
12 0.00698
43 0.004957
68 0.004963
77 0.004007
73 0.007019
69 0.007006
73 0.004996
81 0.004986
94 0.004953
115 0.006982
132 0.006979
150 0.004026
174 0.007932
118 0.004989
38 0.004046
0 0.003954
0 0.003991
0 0.007009
17 0.007978
41 0.003958
70 0.003039
90 0.005004
99 0.006955
96 0.007014
95 0.006993
104 0.007014
114 0.004
130 0.004031
146 0.004985
168 0.00798
186 0.006988
201 0.003999
163 0.002986
76 0.003987
4 0.007016
0 0.007012
18 0.006962
39 0.007007
61 0.004994
88 0.005054
106 0.004987
109 0.00696
106 0.006951
105 0.003978
111 0.003966
121 0.003966
142 0.006982
158 0.006984
184 0.007007
199 0.007033
214 0.005032
227 0.005021
180 0.004996
63 0.006921
16 0.006982
6 0.003999
18 0.003975
38 0.003989
66 0.005984
92 0.007018
120 0.006932
122 0.007011
118 0.004998
117 0.004983
122 0.00507
138 0.007026
153 0.006935
168 0.003966
185 0.004985
200 0.004993
219 0.005985
235 0.005942
189 0.007031
150 0.006976
104 0.005047
78 0.004986
71 0.005009
81 0.006981
93 0.006982
104 0.004995
123 0.005955
130 0.004959
134 0.006019
130 0.006974
127 0.007031
131 0.007046
136 0.005974
144 0.005965
152 0.005952
164 0.00698
172 0.007033
181 0.004989
190 0.005953
178 0.005951
114 0.005985
87 0.006016
81 0.005963
91 0.007012
103 0.00595
118 0.005023
133 0.005985
145 0.007032
143 0.00698
137 0.005959
134 0.004995
134 0.004041
141 0.005947
148 0.005963
162 0.005987
171 0.005997
184 0.005926
186 0.004987
135 0.004961
97 0.005987
80 0.006019
80 0.005012
89 0.004986
100 0.004979
120 0.006212
137 0.005984
147 0.006018
142 0.006063
136 0.005952
136 0.005021
140 0.004971
146 0.004987
155 0.005954
164 0.004984
177 0.005938
187 0.005956
163 0.006017
115 0.005959
76 0.00595
77 0.005971
85 0.006021
100 0.005011
115 0.005933
130 0.004987
140 0.006023
140 0.004975
135 0.005959
133 0.005957
135 0.005985
140 0.005989
153 0.005986
163 0.00601
176 0.005945
185 0.005952
162 0.005012
112 0.006015
83 0.006016
72 0.004968
78 0.004994
88 0.005007
99 0.004986
113 0.005029
132 0.005969
134 0.005942
131 0.004985
128 0.005953
131 0.005955
134 0.005991
142 0.004971
150 0.004975
163 0.004995
173 0.005015
176 0.010926
180 0.001963
92 0.004994
72 0.004971
70 0.004989
81 0.004977
92 0.004977
104 0.004957
119 0.005987
129 0.005984
132 0.005015
129 0.004986
128 0.004976
129 0.004977
138 0.005025
146 0.005017
154 0.004984
167 0.004976
177 0.004977
184 0.004972
147 0.004987
101 0.004981
72 0.003965
71 0.003977
80 0.004997
92 0.005007
115 0.004976
129 0.004986
136 0.004024
133 0.004989
129 0.004965
128 0.004975
131 0.005009
136 0.003989
146 0.003966
156 0.004025
165 0.00399
175 0.005023
167 0.004956
118 0.004978
85 0.004024
72 0.003956
78 0.004027
90 0.004994
104 0.00399
119 0.00402
137 0.004016
138 0.003987
132 0.003996
128 0.003989
128 0.004983
133 0.005001
140 0.004005
151 0.004025
160 0.004016
169 0.004019
174 0.004021
137 0.004007
86 0.003996
71 0.00402
71 0.003988
81 0.003962
103 0.004957
119 0.004954
132 0.005012
133 0.003977
129 0.004992
125 0.003992
125 0.004034
128 0.00402
138 0.003999
146 0.004021
155 0.003994
165 0.00399
140 0.003998
98 0.003048
73 0.003989
67 0.003968
75 0.004013
85 0.004014
99 0.004027
113 0.003982
127 0.003982
128 0.00399
125 0.004012
123 0.004024
126 0.003995
133 0.003989
140 0.00402
151 0.00299
161 0.003982
169 0.002972
152 0.003996
106 0.00403
69 0.004008
63 0.003987
69 0.003989
78 0.003989
98 0.003022
112 0.002993
121 0.003023
123 0.002982
120 0.002967
119 0.002987
123 0.002992
127 0.004007
137 0.004006
146 0.003991
155 0.003988
164 0.003933
167 0.003954
125 0.002994
86 0.002934
63 0.002992
66 0.003047
75 0.002971
85 0.003991
97 0.002994
111 0.002995
122 0.004023
123 0.003967
121 0.004038
121 0.003017
126 0.003023
133 0.003024
141 0.003022
152 0.003024
159 0.003058
168 0.003046
175 0.003027
181 0.002992
139 0.003031
94 0.00306
70 0.002992
69 0.00303
79 0.003036
89 0.003047
102 0.003023
120 0.003025
126 0.003029
126 0.003018
124 0.003019
124 0.003027
128 0.00297
135 0.002997
144 0.004014
158 0.002986
167 0.003047
175 0.002982
183 0.002961
193 0.003025
190 0.003018
140 0.002987
97 0.003025
76 0.002992
75 0.00299
85 0.002991
97 0.003028
121 0.002996
134 0.002997
138 0.003029
135 0.002997
130 0.002999
130 0.003024
134 0.003015
141 0.002981
150 0.002996
161 0.002989
171 0.002967
179 0.00299
192 0.002019
199 0.002012
188 0.002993
133 0.002991
87 0.003018
77 0.002991
83 0.002985
94 0.002992
108 0.003023
130 0.00299
143 0.002968
148 0.002029
137 0.001984
134 0.002044
135 0.002027
140 0.003047
150 0.003028
158 0.002993
168 0.003021
177 0.003025
186 0.002992
198 0.003127
183 0.002024
127 0.002026
80 0.002024
78 0.002045
86 0.002026
98 0.00203
117 0.002045
133 0.002957
146 0.002969
147 0.003016
141 0.002045
135 0.001995
135 0.002025
141 0.002027
152 0.002043
163 0.001996
173 0.002007
183 0.002031
197 0.001993
180 0.001994
120 0.001998
85 0.002025
72 0.00305
76 0.002026
86 0.002008
99 0.002024
124 0.001994
138 0.002047
141 0.002029
136 0.001997
130 0.001986
130 0.002025
136 0.002018
143 0.00203
152 0.002003
165 0.001995
175 0.001995
186 0.002032
188 0.001999
130 0.001986
86 0.001978
68 0.001995
68 0.002035
77 0.002031
89 0.002021
103 0.001995
119 0.001995
133 0.002028
134 0.001993
128 0.001977
125 0.000992
129 0.00103
136 0.000999
145 0.000998
157 0.000967
167 0.000998
178 0.000997
188 0.002028
180 0.002019
106 0.001998
74 0.001995
63 0.001995
74 0.001995
86 0.000997
99 0.001002
115 0.001993
129 0.000999
134 0.00099
130 0.00099
126 0.001024
126 0.002003
131 0.000997
139 0.000998
149 0.002015
166 0.000999
177 0.000967
188 0.002002
194 0.000998
147 0.000998
87 0.001002
70 0.001003
70 0.000972
80 0.000996
92 0.001008
111 0.001993
128 0.000997
141 0.000979
138 0.001008
132 0.002003
130 0.001021
133 0.000975
141 0.000997
150 0.000998
160 0.000997
171 0.001016
181 0.000998
195 0.000997
194 0.001028
108 0.001031
82 0.000963
75 0.000976
83 0.000998
95 0.000997
115 0.000968
133 0.000971
147 0.000951
151 0.000997
143 0.000998
135 0.000997
135 0.001031
142 0.0
151 0.0
159 0.000998
169 0.000998
179 0.000997
189 0.001011
154 0.001006
106 0.000993
81 0.000997
75 0.000998
86 0.000997
99 0.0
125 0.0
141 0.0
148 0.0
143 0.0
138 0.015954
134 0.002056
133 0.001946
140 0.0
148 0.0
158 0.000997
172 0.000964
181 0.001027
122 0.0
86 0.0
70 0.0
70 0.0
79 0.0
95 0.0
110 0.0
125 0.0
135 0.0
134 0.000998
127 0.000995
125 0.000996
129 0.0
136 0.0
145 0.0
155 0.0
165 0.0
173 0.0
132 0.0
88 0.0
66 0.0
60 0.0
69 0.0
81 0.0
103 0.0
116 0.0
122 0.0
121 0.0
118 0.0
117 0.0
120 0.0
126 0.0
135 0.0
143 0.0
156 0.0
167 0.0
133 0.0
89 0.000997
62 0.0
56 0.0
61 0.0
74 0.0
87 0.0
100 0.0
113 0.0
118 0.0
116 0.0
114 0.002026
118 0.0
123 0.000998
130 0.000997
139 0.001996
148 0.0
160 0.001024
169 0.0
161 0.000976
113 0.000977
74 0.0
55 0.000998
59 0.000998
76 0.000997
88 0.001994
102 0.002053
114 0.002037
119 0.002027
117 0.0
117 0.00097
117 0.001036
122 0.001029
129 0.001039
137 0.000963
149 0.000998
161 0.000999
173 0.000997
180 0.002
158 0.000998
108 0.002019
75 0.002026
64 0.001034
71 0.00103
81 0.000993
94 0.001006
109 0.001032
126 0.000999
129 0.002033
124 0.001003
123 0.001024
126 0.001959
131 0.002029
139 0.002014
150 0.000983
159 0.001987
168 0.001036
177 0.001028
185 0.000989
165 0.001009
101 0.00198
73 0.001992
72 0.001042
82 0.000999
95 0.001999
109 0.001993
130 0.002031
137 0.002025
136 0.002002
130 0.001049
128 0.001064
130 0.001035
137 0.002038
148 0.001031
156 0.000994
165 0.000999
173 0.001004
182 0.000998
162 0.000976
113 0.001965
82 0.001027
70 0.002026
75 0.001037
90 0.000994
109 0.000996
130 0.000983
138 0.001031
138 0.001011
133 0.001006
130 0.002018
132 0.000998
137 0.002045
144 0.002024
152 0.001994
162 0.002026
175 0.001995
188 0.001035
159 0.001034
108 0.001023
78 0.00106
67 0.001999
72 0.002007
86 0.001999
98 0.00197
113 0.001997
128 0.001996
135 0.001996
132 0.001965
128 0.001996
130 0.000999
135 0.001023
143 0.001
151 0.000999
161 0.002041
174 0.000997
183 0.002022
191 0.001985
167 0.002033
112 0.002031
70 0.002074
64 0.002031
76 0.000987
88 0.000996
101 0.000997
116 0.001996
128 0.001989
130 0.001996
126 0.001994
125 0.001994
126 0.001995
131 0.002011
141 0.001995
153 0.001995
166 0.001994
174 0.002039
187 0.002989
191 0.001954
161 0.001995
92 0.002046
67 0.002004
63 0.002001
74 0.002011
82 0.001995
100 0.001969
121 0.002008
134 0.001978
133 0.001984
129 0.00203
127 0.002006
129 0.001996
136 0.002998
143 0.002037
155 0.001939
165 0.001969
175 0.001962
185 0.002077
197 0.001997
156 0.002045
102 0.001995
75 0.001995
69 0.001995
78 0.001995
91 0.002993
106 0.003008
129 0.001991
142 0.001945
145 0.001995
139 0.001944
132 0.001994
133 0.001988
139 0.001983
148 0.003027
160 0.001971
171 0.001964
182 0.001965
192 0.002981
201 0.003029
170 0.00299
114 0.002002
84 0.001995
79 0.001963
89 0.001995
109 0.003037
127 0.003
150 0.001992
155 0.002992
149 0.002021
140 0.002992
136 0.00296
139 0.001995
145 0.001971
150 0.002092
169 0.001963
180 0.00203
190 0.003018
188 0.003026
119 0.001994
86 0.002037
75 0.001991
78 0.003025
90 0.00305
109 0.001993
127 0.002003
144 0.00201
151 0.000998
143 0.000998
136 0.002951
135 0.002987
140 0.000998
147 0.001995
156 0.000998
167 0.002992
178 0.002992
184 0.001995
135 0.001993
92 0.001949
66 0.001998
71 0.002037
82 0.004011
96 0.003993
118 0.000989
123 0.001994
138 0.001013
138 0.002988
131 0.002998
127 0.002004
130 0.001005
136 0.002012
151 0.002047
162 0.002
173 0.002958
182 0.004034
134 0.000999
88 0.000993
65 0.000997
59 0.003989
66 0.003026
81 0.000993
95 0.000975
110 0.001999
127 0.001997
126 0.002014
121 0.004036
119 0.003991
122 0.001024
128 0.001016
137 0.000998
145 0.00399
156 0.003987
171 0.000986
179 0.000997
150 0.001008
73 0.002012
57 0.0
57 0.003989
68 0.004007
84 0.001001
98 0.001
114 0.00102
126 0.003988
128 0.003997
123 0.001001
120 0.001013
122 0.002002
132 0.000998
141 0.000973
151 0.003994
162 0.003977
177 0.001015
187 0.001007
165 0.001018
106 0.003984
72 0.003992
59 0.001977
66 0.00197
79 0.000964
104 0.000966
121 0.001043
132 0.003954
134 0.003958
127 0.001025
123 0.001002
124 0.002012
129 0.003982
136 0.003987
148 0.000991
160 0.001005
171 0.001009
187 0.000999
164 0.0
108 0.003989
75 0.003977
65 0.001994
70 0.002993
73 0.002997
92 0.000969
122 0.003949
141 0.000997
143 0.00103
135 0.000986
127 0.0
128 0.0
132 0.004005
140 0.004952
149 0.00399
163 0.000993
174 0.0
182 0.0
148 0.003989
98 0.003983
67 0.0
66 0.0
85 0.0
100 0.0
119 0.0
136 0.004983
143 0.003984
135 0.0
129 0.000991
126 0.000998
128 0.00397
134 0.003972
146 0.0
157 0.0
175 0.0
166 0.0
113 0.0
77 0.004987
62 0.004986
66 0.0
78 0.0
91 0.001027
108 0.003978
125 0.005028
136 0.0
132 0.0
123 0.0
124 0.001003
128 0.000977
136 0.004984
145 0.005937
160 0.000958
171 0.000973
174 0.001051
129 0.004955
84 0.004955
57 0.0
59 0.0
77 0.000986
90 0.0
106 0.0
121 0.005005
128 0.004997
125 0.000993
121 0.0
120 0.0
124 0.006002
130 0.005947
141 0.001995
152 0.0
170 0.0
180 0.0
155 0.001002
100 0.004999
66 0.00499
55 0.000997
62 0.000993
74 0.000997
88 0.005984
103 0.00595
122 0.00202
128 0.000962
122 0.000973
120 0.000968
121 0.002002
127 0.004981
135 0.004996
147 0.000978
158 0.000997
169 0.001011
180 0.005963
184 0.006009
120 0.000972
78 0.001064
58 0.000973
66 0.001006
79 0.000974
94 0.00499
110 0.004974
129 0.000971
134 0.001966
130 0.00197
126 0.005958
124 0.005987
129 0.000959
136 0.002028
151 0.001001
163 0.001001
173 0.000999
185 0.005017
181 0.006009
111 0.001997
77 0.000974
65 0.002019
69 0.006001
82 0.005964
103 0.002003
121 0.002
143 0.000992
141 0.001004
133 0.001002
129 0.005975
128 0.005948
135 0.002001
142 0.001974
151 0.002002
162 0.005971
173 0.005979
182 0.001999
148 0.003037
79 0.000979
67 0.001951
71 0.002016
83 0.005977
98 0.006951
122 0.002006
138 0.00195
142 0.002024
137 0.006958
130 0.006967
127 0.001993
130 0.002015
143 0.001993
153 0.001992
163 0.001989
173 0.003955
170 0.005997
124 0.005992
77 0.002
66 0.000995
71 0.002015
83 0.006944
96 0.006981
120 0.002018
137 0.005963
137 0.001996
131 0.001998
128 0.001998
128 0.005979
132 0.005983
143 0.002023
153 0.001988
164 0.002014
174 0.00699
170 0.007043
107 0.001957
67 0.006966
63 0.002028
73 0.001982
86 0.001997
100 0.006019
117 0.005987
133 0.001987
134 0.00199
130 0.002024
126 0.006973
127 0.007028
133 0.001992
143 0.006979
156 0.001997
167 0.002967
178 0.002971
166 0.00696
115 0.006941
69 0.002956
59 0.002965
64 0.002961
76 0.006996
93 0.007982
108 0.004011
125 0.006959
129 0.002951
125 0.002027
123 0.001959
124 0.006971
129 0.006993
139 0.002038
147 0.002024
157 0.002026
167 0.006976
178 0.006981
183 0.003048
120 0.006985
71 0.001995
59 0.001988
65 0.001989
82 0.007958
90 0.007969
111 0.002
125 0.001998
133 0.001994
132 0.006971
128 0.006975
127 0.003012
132 0.006979
142 0.003001
151 0.001993
161 0.003019
171 0.007971
184 0.00796
194 0.001978
194 0.002004
141 0.001989
93 0.006975
70 0.007021
71 0.002047
88 0.007974
108 0.001999
125 0.002992
140 0.002959
146 0.007977
141 0.007956
134 0.002983
134 0.002986
137 0.003
144 0.006971
153 0.006981
166 0.004012
179 0.006981
193 0.003021
202 0.003022
200 0.002998
142 0.007973
96 0.007973
74 0.002996
78 0.003003
92 0.003005
107 0.00798
132 0.007996
150 0.00404
156 0.007964
144 0.003997
138 0.003996
138 0.002987
142 0.007961
148 0.007967
161 0.002981
170 0.002994
180 0.003
195 0.006999
192 0.006939
138 0.004149
87 0.007943
74 0.003995
82 0.002995
96 0.003998
118 0.007955
138 0.007965
154 0.002994
156 0.003008
149 0.004005
140 0.006966
139 0.006996
143 0.003947
155 0.008015
166 0.00398
177 0.003967
189 0.003997
195 0.007956
150 0.007939
90 0.00402
72 0.002975
72 0.003998
86 0.00698
101 0.006974
118 0.006972
147 0.006965
152 0.007018
147 0.002984
139 0.002979
137 0.002988
140 0.007951
145 0.007946
157 0.002992
168 0.003966
179 0.003938
195 0.006983
188 0.006946
98 0.007014
72 0.007023
67 0.002995
75 0.003002
88 0.003001
103 0.007947
125 0.006991
140 0.003959
146 0.003995
142 0.003984
135 0.006947
135 0.007016
142 0.006957
150 0.007011
160 0.003997
171 0.003997
183 0.003973
195 0.006959
180 0.007979
105 0.002986
75 0.002978
65 0.005026
76 0.006957
88 0.006952
113 0.007009
131 0.00696
142 0.003951
144 0.003959
138 0.003995
133 0.006977
135 0.008007
140 0.003983
148 0.005008
157 0.004947
172 0.007004
184 0.006948
200 0.006979
168 0.007023
110 0.002991
77 0.00399
69 0.008978
67 0.002953
77 0.001976
105 0.0
124 0.004003
140 0.004979
148 0.006979
143 0.006979
134 0.007003
135 0.007013
140 0.003979
148 0.003994
157 0.002936
172 0.007025
184 0.007018
194 0.00398
190 0.004984
133 0.004952
81 0.006965
70 0.006986
83 0.006982
99 0.006977
117 0.003977
137 0.004994
152 0.003953
151 0.007022
141 0.007002
134 0.003991
134 0.005007
137 0.005039
146 0.005951
156 0.006038
174 0.005951
185 0.00602
191 0.004994
150 0.003953
99 0.003994
69 0.007016
70 0.007014
81 0.003992
95 0.004973
112 0.00497
137 0.005991
149 0.006015
141 0.006011
134 0.006983
132 0.003981
135 0.004002
140 0.004988
152 0.006996
163 0.006956
174 0.003961
187 0.005987
156 0.005949
102 0.00593
73 0.00598
66 0.005981
77 0.005978
90 0.004995
107 0.005006
125 0.00399
139 0.006962
139 0.006981
132 0.004994
128 0.005943
129 0.005017
134 0.004978
142 0.005973
159 0.00602
170 0.006009
181 0.004966
176 0.004952
104 0.005031
71 0.005027
59 0.004986
63 0.004954
75 0.005984
93 0.004965
109 0.005983
125 0.005984
133 0.006011
128 0.00601
123 0.004957
124 0.004987
127 0.004951
137 0.005923
146 0.005941
160 0.004987
166 0.005016
180 0.004986
187 0.005018
146 0.004975
71 0.005956
58 0.004975
61 0.00596
72 0.004993
86 0.004995
107 0.00502
123 0.005955
132 0.006009
128 0.004949
123 0.004983
122 0.00498
125 0.005984
137 0.004985
146 0.00502
155 0.004982
168 0.004977
175 0.004991
184 0.005011
195 0.005975
170 0.005941
93 0.00496
65 0.004982
59 0.00498
67 0.00503
85 0.004994
105 0.005022
121 0.004021
133 0.00496
133 0.004973
123 0.004976
121 0.004021
122 0.004034
130 0.004978
138 0.005016
147 0.004973
157 0.005019
172 0.005018
182 0.004987
190 0.005017
183 0.004982
108 0.00402
73 0.004968
62 0.005003
67 0.00399
85 0.004922
101 0.005048
119 0.005021
134 0.005021
134 0.005015
126 0.005013
121 0.00502
123 0.004985
126 0.003999
136 0.004979
145 0.004955
154 0.004004
167 0.003974
177 0.003988
182 0.003996
150 0.005007
78 0.004979
64 0.004988
67 0.004981
82 0.004976
92 0.004959
109 0.004968
132 0.004988
138 0.00398
132 0.004029
126 0.003029
124 0.003988
126 0.004024
138 0.005
147 0.004987
156 0.005016
170 0.004973
181 0.004959
182 0.005024
134 0.005001
88 0.003954
62 0.003988
63 0.003988
72 0.003982
85 0.003975
109 0.004029
124 0.004038
130 0.005031
125 0.004986
121 0.004994
119 0.004953
123 0.005017
130 0.004008
141 0.004033
151 0.003983
161 0.003958
171 0.003989
179 0.003971
134 0.003996
87 0.004019
58 0.004013
58 0.003962
67 0.005018
79 0.005037
92 0.003995
111 0.00399
123 0.003967
124 0.00399
120 0.00402
116 0.003989
119 0.004021
126 0.003996
136 0.003999
146 0.003988
156 0.003989
168 0.004008
176 0.003
149 0.003992
99 0.004007
67 0.003988
57 0.003987
69 0.003989
82 0.003989
96 0.003989
117 0.004006
128 0.003986
129 0.00398
124 0.00399
121 0.003021
123 0.003021
129 0.003959
136 0.00393
146 0.00403
163 0.003996
174 0.004003
184 0.003959
167 0.003974
111 0.003967
75 0.00399
62 0.003992
64 0.002947
81 0.003983
95 0.002952
112 0.002993
128 0.003988
134 0.002988
128 0.003993
122 0.003042
123 0.004023
129 0.002989
136 0.002991
145 0.003004
155 0.003028
166 0.001997
178 0.003024
182 0.003002
142 0.002977
74 0.003006
63 0.001994
68 0.003049
81 0.003024
101 0.00403
119 0.00398
134 0.003027
136 0.002991
130 0.003041
123 0.00299
123 0.002977
127 0.003004
138 0.002987
148 0.002988
158 0.002994
168 0.00298
177 0.003985
143 0.00399
96 0.001978
70 0.003022
63 0.002986
75 0.00299
87 0.002995
102 0.003025
128 0.003048
134 0.003027
130 0.002992
125 0.003023
123 0.00297
126 0.002992
133 0.001997
141 0.001984
151 0.003051
165 0.00298
175 0.002992
170 0.003024
93 0.002991
69 0.002993
63 0.002992
70 0.00299
86 0.002978
99 0.002982
114 0.00196
126 0.00296
131 0.003003
126 0.002992
122 0.002953
124 0.002959
133 0.002975
141 0.002959
151 0.002995
161 0.002994
175 0.00299
183 0.00299
158 0.002013
105 0.002046
72 0.001038
61 0.00104
67 0.002052
78 0.002026
98 0.00303
113 0.003022
124 0.003022
127 0.003023
122 0.002027
120 0.001967
123 0.002028
128 0.002027
137 0.002025
149 0.00203
158 0.001988
167 0.002033
182 0.002028
190 0.003009
183 0.002969
127 0.002026
74 0.002988
60 0.002028
64 0.001994
75 0.001965
87 0.002048
105 0.002016
120 0.002021
129 0.001999
126 0.002998
122 0.000984
122 0.001996
124 0.01396
128 0.001994
131 0.001031
151 0.001998
167 0.001996
177 0.002047
188 0.001992
195 0.001977
203 0.001988
174 0.002028
111 0.002027
76 0.002049
65 0.002031
73 0.001996
86 0.001029
101 0.001991
116 0.002009
133 0.001957
143 0.000996
138 0.001995
131 0.000996
130 0.001987
135 0.001995
144 0.000962
154 0.002025
168 0.001995
178 0.000996
188 0.001038
197 0.00103
206 0.001001
205 0.001995
140 0.00199
92 0.002026
70 0.002
79 0.001997
92 0.002029
109 0.002055
128 0.000991
152 0.001013
156 0.001995
147 0.000998
137 0.000983
133 0.002032
136 0.002027
143 0.001994
158 0.001005
170 0.002058
181 0.001031
192 0.001965
200 0.00203
151 0.001
98 0.000997
74 0.001985
70 0.001022
78 0.00109
97 0.00101
117 0.00095
150 0.000991
159 0.001956
153 0.002
142 0.002001
135 0.000965
137 0.00098
144 0.001047
153 0.001034
165 0.001024
176 0.000972
192 0.001022
194 0.001031
101 0.001996
72 0.000997
64 0.000997
71 0.002012
83 0.002026
103 0.00097
122 0.000886
141 0.000984
148 0.001118
142 0.001041
131 0.000998
128 0.001006
135 0.000991
144 0.000998
155 0.000997
168 0.002033
179 0.002028
188 0.0
136 0.0
84 0.001034
60 0.001058
55 0.000965
67 0.000997
79 0.000998
106 0.001003
123 0.000962
132 0.000998
128 0.000989
121 0.000995
117 0.0
120 0.0
126 0.0
136 0.0
147 0.001031
161 0.001082
174 0.0
164 0.000997
103 0.000996
64 0.000993
49 0.000998
51 0.0
66 0.0
79 0.0
94 0.0
110 0.0
120 0.0
117 0.00104
112 0.001001
112 0.001
118 0.000994
125 0.000982
134 0.0
144 0.0
159 0.001024
169 0.001064
175 0.001037
137 0.001024
85 0.0
52 0.000953
52 0.000998
69 0.001
81 0.0
96 0.0
112 0.0
121 0.0
118 0.0
115 0.0
114 0.0
118 0.00104
124 0.0
135 0.0
144 0.000989
161 0.0
171 0.0
180 0.0
178 0.0
125 0.0
72 0.0
59 0.000945
63 0.0
74 0.001053
87 0.0
108 0.0
124 0.0
132 0.001021
126 0.0
123 0.001009
124 0.00103
127 0.00097
137 0.0
146 0.0
155 0.0
165 0.0
175 0.000998
187 0.001044
188 0.001003
106 0.0
76 0.001988
68 0.00199
75 0.001012
88 0.000998
103 0.000997
127 0.000997
140 0.001002
142 0.00104
135 0.001996
129 0.002015
128 0.002038
133 0.001958
143 0.000997
152 0.002028
162 0.00197
175 0.002992
181 0.0
179 0.002019
128 0.002964
88 0.002009
70 0.002049
70 0.001996
85 0.0
105 0.00103
129 0.00103
141 0.002003
140 0.001999
133 0.00203
128 0.002036
128 0.001971
132 0.002011
139 0.002028
151 0.002955
158 0.00203
173 0.002016
181 0.002032
122 0.001965
82 0.002001
65 0.000962
64 0.001996
75 0.002022
92 0.001986
108 0.002025
125 0.002025
136 0.002017
135 0.002028
127 0.002002
125 0.001967
130 0.001984
137 0.002019
146 0.002026
157 0.001964
168 0.002037
182 0.001987
161 0.002
106 0.00202
72 0.002031
60 0.002025
67 0.002025
83 0.00203
101 0.001996
117 0.001998
130 0.002032
131 0.002029
126 0.002037
122 0.002049
124 0.002001
130 0.001996
137 0.001996
147 0.001999
161 0.00204
176 0.00199
180 0.001997
130 0.001999
84 0.001992
61 0.002009
58 0.002027
70 0.00203
82 0.002066
96 0.002038
112 0.002029
125 0.001993
128 0.002
122 0.001997
122 0.00205
126 0.000998
133 0.002024
141 0.002994
151 0.00203
165 0.001995
174 0.002024
185 0.001994
185 0.001994
134 0.001995
76 0.001994
59 0.001996
69 0.001995
82 0.001996
95 0.001996
112 0.001996
127 0.001996
134 0.002
130 0.002007
126 0.00202
126 0.002029
130 0.001992
141 0.001052
153 0.00199
166 0.00097
176 0.002003
187 0.000991
196 0.001999
203 0.002028
136 0.002027
89 0.002008
68 0.001988
68 0.001999
79 0.002025
99 0.002026
122 0.001998
143 0.001988
147 0.001985
141 0.001996
135 0.001995
133 0.002045
137 0.002013
145 0.002028
154 0.002994
163 0.002027
174 0.002992
189 0.002004
202 0.002965
202 0.001966
142 0.001962
86 0.002995
73 0.002987
75 0.002993
82 0.017935
86 0.003939
102 0.002027
139 0.0
156 0.002973
149 0.002027
138 0.002053
135 0.002029
140 0.001992
146 0.002001
158 0.002988
168 0.002985
179 0.003003
189 0.003003
199 0.003
176 0.001998
116 0.001997
92 0.002017
73 0.002026
86 0.001998
101 0.002027
119 0.002994
137 0.002992
152 0.002997
152 0.002028
142 0.003
138 0.004046
138 0.001996
143 0.001995
152 0.001986
165 0.002052
175 0.00203
190 0.003034
200 0.003057
153 0.001995
101 0.001997
75 0.002009
69 0.004004
78 0.004049
90 0.003036
109 0.001997
128 0.001978
147 0.001991
144 0.003
136 0.00304
132 0.002994
135 0.002989
140 0.002976
150 0.002988
160 0.003028
171 0.002993
186 0.001967
197 0.002021
201 0.001995
100 0.002985
71 0.001976
63 0.002992
70 0.003027
87 0.001992
100 0.002963
117 0.001991
132 0.002985
139 0.004016
134 0.001993
129 0.002974
128 0.002014
136 0.002035
144 0.001985
153 0.002967
164 0.003954
174 0.003051
188 0.001984
196 0.002029
164 0.003006
104 0.004023
65 0.000996
61 0.001003
70 0.001994
91 0.001999
108 0.001993
125 0.002994
137 0.003023
137 0.001984
131 0.001968
128 0.002993
129 0.004026
135 0.004033
146 0.000997
155 0.001994
167 0.002026
185 0.001966
196 0.001959
201 0.002994
154 0.002968
84 0.001002
63 0.001993
63 0.001
73 0.003988
88 0.004006
110 0.002023
128 0.002039
141 0.001968
136 0.002002
129 0.001995
126 0.004024
128 0.00302
137 0.001015
146 0.000984
156 0.002
167 0.003053
178 0.00399
191 0.000989
184 0.001016
124 0.002028
68 0.001989
65 0.002018
73 0.005036
88 0.003993
111 0.001943
124 0.002994
142 0.000963
141 0.003989
133 0.003948
125 0.002031
126 0.000979
131 0.001025
143 0.000968
153 0.000993
163 0.003989
173 0.004987
184 0.002002
151 0.002021
98 0.00097
68 0.004011
60 0.003992
71 0.001047
85 0.001005
102 0.000948
131 0.000989
137 0.000999
132 0.003999
125 0.00399
122 0.0
125 0.000989
131 0.001015
139 0.005031
148 0.005035
162 0.001
171 0.001999
168 0.000981
90 0.000997
63 0.001994
59 0.006039
63 0.00201
80 0.0
94 0.001996
111 0.0
123 0.000998
126 0.00499
122 0.004983
117 0.0
118 0.001003
126 0.001007
135 0.001007
144 0.0
154 0.005021
164 0.005043
164 0.000942
117 0.001018
76 0.0
56 0.004988
55 0.005963
68 0.000996
80 0.000974
104 0.001964
117 0.000958
121 0.0
119 0.004961
116 0.004955
117 0.000995
121 0.00104
127 0.002022
135 0.004948
144 0.005021
156 0.001018
166 0.000979
153 0.001015
103 0.000995
67 0.001
53 0.005016
56 0.005022
71 0.0
83 0.0
97 0.002022
112 0.004991
120 0.004987
119 0.000976
116 0.001012
118 0.000997
124 0.0
131 0.0
139 0.006053
147 0.006015
158 0.001049
167 0.00098
174 0.0
156 0.004989
107 0.004997
65 0.0
58 0.000953
73 0.001009
85 0.000996
99 0.000961
114 0.005038
124 0.005952
126 0.0
123 0.0
122 0.0
124 0.004964
130 0.005024
141 0.000995
149 0.000991
162 0.0
171 0.001024
178 0.0
185 0.006016
189 0.006015
138 0.000996
94 0.0
72 0.0
70 0.00503
80 0.004955
97 0.001026
112 0.0
135 0.0
139 0.000959
136 0.001035
132 0.006031
131 0.006951
136 0.000947
143 0.000999
152 0.0
161 0.006938
169 0.00702
180 0.003045
188 0.0
200 0.0
203 0.001978
165 0.0
114 0.00596
86 0.006019
80 0.0
91 0.0
105 0.001005
121 0.005987
138 0.005985
152 0.001007
150 0.001018
140 0.0
138 0.0
141 0.000971
147 0.005985
154 0.006017
165 0.0
175 0.0
183 0.0
192 0.006037
198 0.006043
160 0.00197
111 0.000999
77 0.0
82 0.0
94 0.002
109 0.006015
126 0.005981
148 0.000997
154 0.001977
147 0.00203
140 0.005984
136 0.005984
140 0.001996
145 0.003042
160 0.001988
170 0.001984
180 0.000989
190 0.006982
180 0.00702
112 0.002003
82 0.001986
71 0.002033
76 0.005983
88 0.006021
106 0.001989
123 0.001986
143 0.003017
142 0.002009
135 0.002011
131 0.002037
132 0.007012
135 0.006982
146 0.001993
156 0.00203
166 0.001998
177 0.005996
186 0.005998
135 0.001995
80 0.007013
63 0.001993
68 0.001996
79 0.001994
91 0.007023
107 0.006982
127 0.002
132 0.002004
130 0.002029
125 0.006992
124 0.00699
128 0.002009
137 0.006956
143 0.016924
149 0.003025
156 0.001963
176 0.003017
147 0.007966
87 0.002045
65 0.003036
62 0.002028
74 0.007978
82 0.007026
99 0.002986
118 0.005976
128 0.001969
126 0.001985
123 0.001973
122 0.006982
126 0.007022
134 0.001997
142 0.001995
152 0.002003
162 0.007025
171 0.006982
176 0.001986
117 0.007977
76 0.001972
67 0.002003
73 0.002002
84 0.007017
96 0.006986
114 0.002996
128 0.002998
134 0.002005
132 0.007016
129 0.007021
130 0.002013
138 0.007999
145 0.002018
154 0.002037
164 0.003019
173 0.007986
182 0.006998
182 0.002994
134 0.001993
97 0.002026
79 0.007001
80 0.007024
93 0.003
113 0.007956
129 0.002006
139 0.002993
142 0.002986
136 0.007939
134 0.007968
135 0.002994
140 0.002
146 0.001976
154 0.007016
163 0.007019
175 0.002002
186 0.007958
171 0.003009
124 0.002022
93 0.003025
82 0.007995
87 0.008019
102 0.003006
114 0.004017
130 0.001996
142 0.007007
145 0.006985
139 0.003006
134 0.007954
137 0.002999
141 0.003043
148 0.003021
156 0.007979
167 0.007962
175 0.004029
182 0.001999
164 0.002993
106 0.006982
88 0.007978
78 0.001981
89 0.00798
105 0.002967
119 0.003956
133 0.004005
140 0.007022
135 0.006982
130 0.002969
129 0.002995
132 0.00399
139 0.00695
146 0.007003
155 0.003966
168 0.007008
178 0.003957
150 0.003039
106 0.00302
79 0.007939
72 0.007955
80 0.003984
92 0.00299
104 0.004002
123 0.007942
131 0.007967
135 0.003031
127 0.006954
126 0.004038
130 0.002
136 0.003004
143 0.00798
154 0.008
165 0.00298
174 0.002002
179 0.002001
124 0.006984
86 0.006986
68 0.001994
73 0.006998
84 0.002959
95 0.002002
109 0.002981
122 0.002945
131 0.007979
128 0.006964
124 0.002002
124 0.003002
128 0.003957
135 0.00798
144 0.007978
159 0.007163
169 0.007014
178 0.003998
185 0.002994
151 0.002992
89 0.006975
67 0.007002
65 0.002995
73 0.002959
85 0.003021
100 0.005983
115 0.006999
130 0.006952
128 0.006947
123 0.003983
123 0.003991
126 0.002994
134 0.006984
142 0.006979
151 0.004001
161 0.002991
170 0.00399
183 0.006981
191 0.006982
126 0.006983
86 0.006981
68 0.00501
69 0.004022
79 0.003963
95 0.006982
109 0.006971
125 0.002992
137 0.003999
138 0.003986
131 0.005943
130 0.006982
135 0.005951
137 0.014995
144 0.0
161 0.004046
171 0.004015
185 0.006948
196 0.006983
201 0.003987
155 0.004008
103 0.003996
76 0.00695
77 0.006965
96 0.005953
111 0.006005
128 0.004935
149 0.005976
153 0.004017
146 0.007032
139 0.006982
136 0.004984
139 0.003957
145 0.004948
157 0.007006
168 0.006966
186 0.007048
197 0.007046
185 0.003989
127 0.004988
91 0.003994
78 0.005948
85 0.005978
98 0.003981
113 0.003991
133 0.004021
155 0.005984
158 0.007015
142 0.005978
137 0.007027
138 0.005
142 0.004998
149 0.002955
163 0.005979
174 0.005984
184 0.003939
179 0.003955
124 0.003953
81 0.005958
73 0.005952
86 0.006948
99 0.006939
122 0.005946
135 0.005054
147 0.004984
143 0.005983
134 0.005953
129 0.00495
130 0.004989
135 0.004019
146 0.006036
157 0.005953
175 0.005971
168 0.004986
116 0.003956
80 0.004986
65 0.00399
69 0.00594
80 0.006937
93 0.004948
109 0.005011
125 0.00499
134 0.005985
129 0.005966
121 0.006018
123 0.005951
128 0.005019
136 0.004988
150 0.005037
160 0.004983
170 0.005018
127 0.003998
97 0.004928
64 0.005012
60 0.005995
67 0.006013
86 0.005993
101 0.006018
121 0.005028
126 0.004998
125 0.004987
120 0.006025
119 0.004982
123 0.005958
128 0.005002
139 0.004977
148 0.005985
159 0.005946
168 0.004987
114 0.005985
77 0.006023
60 0.005032
62 0.004995
71 0.004988
86 0.005033
99 0.00602
118 0.005019
122 0.004973
124 0.004971
119 0.004968
120 0.003973
125 0.00502
132 0.00502
143 0.004976
149 0.003995
159 0.004959
170 0.005984
140 0.004985
85 0.004954
65 0.004994
63 0.005002
72 0.005986
91 0.005964
106 0.004987
119 0.005
127 0.004042
125 0.005984
122 0.003989
122 0.004944
126 0.005981
134 0.004958
140 0.004977
148 0.004994
162 0.004955
177 0.005035
170 0.004943
121 0.005018
77 0.003998
69 0.00401
73 0.003999
85 0.005025
97 0.004956
117 0.005011
131 0.004995
134 0.004988
131 0.00502
126 0.005027
129 0.004028
133 0.004018
142 0.004981
151 0.004012
160 0.003965
170 0.004021
179 0.00402
165 0.004988
118 0.004018
86 0.003972
75 0.005006
86 0.00399
99 0.004056
114 0.004983
135 0.003986
141 0.003988
137 0.004035
132 0.003978
130 0.004008
133 0.003952
138 0.003981
145 0.003993
153 0.003968
162 0.010971
165 0.002993
171 0.002055
179 0.000994
103 0.000991
74 0.003977
79 0.004012
90 0.004033
108 0.00395
124 0.003982
137 0.004021
140 0.003989
132 0.003995
130 0.003972
132 0.003966
139 0.003993
147 0.004005
156 0.004963
166 0.003947
175 0.003987
167 0.003989
121 0.003971
97 0.004988
73 0.004942
80 0.003992
93 0.004016
106 0.003018
126 0.003986
137 0.00301
137 0.003019
133 0.003005
130 0.004029
132 0.004998
136 0.005015
144 0.004992
154 0.00402
170 0.004014
180 0.004015
161 0.003958
100 0.004032
75 0.003966
69 0.004014
75 0.004014
86 0.004021
103 0.004037
119 0.003964
131 0.003989
137 0.004022
130 0.003995
130 0.00399
132 0.003989
140 0.003989
148 0.003989
157 0.00398
167 0.004022
177 0.004001
188 0.003988
158 0.003987
106 0.004006
75 0.003988
68 0.002987
78 0.003017
90 0.004025
108 0.003978
123 0.003964
133 0.00301
134 0.002998
130 0.004044
128 0.002992
132 0.003955
137 0.003989
145 0.004016
160 0.002961
170 0.002988
180 0.00396
191 0.003004
163 0.003953
109 0.004007
78 0.003992
69 0.002947
74 0.002995
90 0.003973
104 0.00397
120 0.003957
141 0.002988
142 0.002966
137 0.003013
134 0.003024
137 0.001999
143 0.003007
150 0.002007
159 0.00299
170 0.004019
184 0.003988
194 0.003
201 0.003981
125 0.002966
90 0.002991
76 0.003026
80 0.001982
96 0.002007
110 0.002002
128 0.003991
145 0.003005
153 0.003989
147 0.003992
141 0.002987
140 0.002989
146 0.001986
154 0.003011
163 0.002972
173 0.002027
187 0.002995
197 0.002998
198 0.002007
145 0.002004
102 0.003025
80 0.002984
83 0.004003
96 0.002994
121 0.00298
141 0.002984
155 0.003024
158 0.001994
148 0.002993
141 0.002012
142 0.002993
146 0.001996
153 0.002992
165 0.002992
176 0.00399
187 0.002992
189 0.001995
133 0.002992
94 0.002992
79 0.003023
82 0.002994
94 0.003026
109 0.002992
126 0.002004
145 0.002027
158 0.002976
153 0.002003
144 0.003023
141 0.002009
146 0.002015
153 0.002007
164 0.002005
178 0.001987
190 0.001013
189 0.003011
134 0.002999
92 0.002991
84 0.001993
74 0.001968
86 0.002999
110 0.001996
129 0.001996
144 0.002025
150 0.001955
141 0.002024
136 0.001961
135 0.001982
139 0.001997
147 0.001992
160 0.001992
171 0.001989
183 0.002965
173 0.001993
114 0.001994
78 0.002002
65 0.002048
71 0.001994
81 0.00199
94 0.001979
110 0.002025
127 0.002027
137 0.001982
133 0.001994
128 0.002001
128 0.001005
133 0.002034
140 0.002003
150 0.002012
165 0.001934
176 0.000991
184 0.001989
145 0.002032
95 0.002027
64 0.002025
63 0.002029
72 0.001962
92 0.001035
108 0.002025
123 0.001039
133 0.001003
131 0.002036
126 0.002043
126 0.00199
129 0.002002
135 0.001997
144 0.002027
158 0.001992
169 0.000995
187 0.001047
159 0.000941
103 0.001995
74 0.002028
65 0.002023
73 0.000997
86 0.001976
100 0.001998
118 0.002042
134 0.002028
141 0.000972
135 0.001958
128 0.000971
131 0.002023
136 0.002031
145 0.002055
154 0.0
170 0.002026
182 0.000997
187 0.000968
144 0.002005
97 0.00203
72 0.001976
73 0.000998
92 0.001005
108 0.001012
128 0.001991
144 0.002026
148 0.002023
139 0.0
133 0.001975
132 0.000973
136 0.002056
142 0.00203
154 0.001989
166 0.001998
184 0.001985
177 0.001033
122 0.002041
86 0.002035
71 0.001002
77 0.002024
89 0.001104
104 0.001968
122 0.001985
140 0.00201
147 0.001971
141 0.000998
131 0.001034
133 0.00099
138 0.001011
146 0.000997
155 0.0
170 0.0
180 0.0
163 0.001989
110 0.001995
79 0.001996
67 0.000999
75 0.000965
96 0.000959
113 0.000976
131 0.0
143 0.0
142 0.0
131 0.001018
129 0.00103
130 0.0
136 0.00203
145 0.0
159 0.001986
170 0.000998
162 0.001012
108 0.001031
75 0.000995
63 0.001009
66 0.0
80 0.0
93 0.0
110 0.0
127 0.0
135 0.0
130 0.0
125 0.0
125 0.0
131 0.000995
139 0.0
150 0.0
161 0.001022
175 0.001051
156 0.0
102 0.0
70 0.0
58 0.0
65 0.0
75 0.0
97 0.0
114 0.0
125 0.0
126 0.00103
121 0.0
119 0.0
121 0.0
126 0.0
135 0.0
144 0.0
159 0.0
171 0.0
136 0.0
89 0.0
64 0.0
58 0.0
65 0.0
79 0.0
94 0.000998
111 0.0
125 0.0
128 0.003017
128 0.001997
124 0.001987
133 0.0
142 0.0
152 0.0
164 0.0
178 0.0
177 0.000999
126 0.000997
86 0.0
68 0.0
70 0.0
81 0.0
106 0.0
124 0.0
136 0.002026
137 0.003025
133 0.0
129 0.0
130 0.0
135 0.002997
141 0.001053
147 0.015952
154 0.0
172 0.001994
188 0.0
145 0.001043
97 0.0
75 0.001031
71 0.000999
80 0.000996
98 0.0
115 0.001987
134 0.002025
144 0.001001
143 0.001008
133 0.001
131 0.002996
135 0.001022
141 0.000997
151 0.001035
161 0.000992
171 0.000996
183 0.002028
156 0.002031
106 0.001995
78 0.001987
71 0.002027
80 0.001988
97 0.002993
120 0.001995
137 0.000989
145 0.002995
140 0.003033
134 0.001042
131 0.00203
133 0.002022
140 0.002989
148 0.002042
159 0.002011
174 0.002003
180 0.003024
117 0.002983
81 0.003001
67 0.002027
70 0.002994
77 0.002991
94 0.002026
110 0.002013
128 0.001994
138 0.002
136 0.002002
128 0.001994
127 0.002988
134 0.003028
141 0.003025
151 0.002983
162 0.002019
178 0.002979
186 0.002019
151 0.00202
98 0.001965
69 0.002026
61 0.002025
70 0.001994
86 0.002029
105 0.001992
122 0.001985
134 0.00298
133 0.002997
128 0.002021
124 0.002994
128 0.002989
133 0.001973
142 0.002031
152 0.00199
167 0.002004
183 0.002007
170 0.002029
111 0.002961
75 0.002987
62 0.002996
64 0.003039
78 0.002963
91 0.002999
95 0.017954
112 0.002991
134 0.001985
133 0.001991
127 0.002029
128 0.002026
133 0.002027
141 0.001993
154 0.002966
161 0.002035
177 0.002978
189 0.003003
184 0.002975
141 0.002991
92 0.002027
67 0.001986
71 0.00204
87 0.002004
102 0.003008
120 0.00202
138 0.002026
147 0.002992
142 0.003005
136 0.001997
136 0.002984
139 0.002994
146 0.002988
158 0.001953
173 0.001989
190 0.002034
201 0.002025
211 0.002005
186 0.001994
119 0.001998
79 0.002002
75 0.001995
83 0.001994
96 0.001983
113 0.001977
140 0.001992
159 0.002992
157 0.003
147 0.002994
142 0.003031
143 0.003011
146 0.017948
148 0.004011
156 0.002961
178 0.000997
194 0.001992
205 0.001972
182 0.002962
104 0.001993
78 0.002991
80 0.001946
92 0.001955
108 0.002941
134 0.002992
148 0.002031
166 0.001994
163 0.002988
149 0.002989
145 0.00298
144 0.00204
153 0.002016
163 0.002026
177 0.002001
189 0.002001
201 0.002028
194 0.002027
129 0.001989
82 0.003002
73 0.001987
78 0.002989
96 0.002984
113 0.002973
142 0.002028
157 0.001973
160 0.002043
151 0.002026
142 0.001953
140 0.001992
144 0.001988
155 0.002001
166 0.002992
182 0.002992
191 0.002949
195 0.002992
103 0.002993
74 0.002993
66 0.002027
74 0.002003
87 0.002041
102 0.00199
122 0.001988
145 0.002989
151 0.002997
141 0.002992
135 0.00295
132 0.002951
142 0.00297
148 0.002993
163 0.002987
176 0.001984
187 0.001996
150 0.002992
93 0.002995
65 0.003017
58 0.002971
68 0.00199
76 0.002987
90 0.002961
121 0.002991
137 0.002957
140 0.00402
132 0.00402
125 0.001997
127 0.002
132 0.002006
142 0.001987
153 0.002987
169 0.002004
181 0.002009
180 0.002
85 0.001968
59 0.000963
52 0.002952
58 0.002964
74 0.001995
89 0.002012
101 0.002971
124 0.003013
131 0.004003
125 0.001994
120 0.001995
119 0.00299
128 0.000938
137 0.001993
148 0.004049
161 0.004033
177 0.003013
179 0.002993
121 0.002992
76 0.003987
57 0.003983
58 0.001984
67 0.003001
81 0.001984
105 0.002993
126 0.002938
133 0.003966
129 0.003947
121 0.001978
121 0.00202
123 0.002986
132 0.004002
142 0.003948
157 0.002985
169 0.002029
180 0.003007
118 0.00304
78 0.000997
62 0.003022
63 0.003018
77 0.002007
92 0.002002
111 0.001955
129 0.003978
140 0.003957
135 0.001993
127 0.001982
125 0.003027
130 0.003017
138 0.001998
147 0.004988
158 0.004045
169 0.002979
178 0.001996
136 0.001013
90 0.004
67 0.003992
65 0.001994
76 0.001997
89 0.001997
120 0.001991
135 0.000958
138 0.005003
132 0.005009
124 0.002027
124 0.000985
127 0.001
135 0.004008
144 0.003995
158 0.000994
169 0.001996
168 0.001985
91 0.000998
67 0.001994
60 0.001958
66 0.003989
78 0.003989
98 0.001959
116 0.002029
130 0.003054
132 0.003984
127 0.003981
121 0.002046
122 0.000992
132 0.001978
141 0.00203
152 0.000987
163 0.003959
171 0.004949
153 0.00302
102 0.001016
59 0.002027
58 0.003964
65 0.00399
80 0.002027
96 0.001937
122 0.000964
127 0.000966
124 0.002039
120 0.004026
119 0.003995
124 0.000987
132 0.002042
142 0.001032
152 0.004973
164 0.004987
171 0.00206
125 0.002036
64 0.002064
55 0.000961
59 0.000998
69 0.00502
81 0.003941
103 0.001004
117 0.000986
125 0.002005
123 0.00496
120 0.004992
119 0.001004
124 0.001996
136 0.0
147 0.0
157 0.000945
168 0.004985
179 0.004987
172 0.0
115 0.001953
75 0.001
58 0.004987
58 0.004987
71 0.002025
83 0.001032
110 0.001015
124 0.001007
129 0.000996
126 0.004986
123 0.004981
124 0.000997
129 0.002037
138 0.00202
148 0.00498
157 0.004982
171 0.002
183 0.001987
199 0.0
191 0.001033
128 0.0
85 0.004987
66 0.00499
68 0.0
79 0.0
93 0.000998
109 0.004994
127 0.004991
141 0.0
138 0.0
129 0.0
130 0.0
135 0.001055
142 0.005984
152 0.005991
165 0.0
176 0.001
187 0.0
197 0.005003
206 0.004989
167 0.001015
108 0.000997
73 0.000964
76 0.001
87 0.00103
102 0.005987
121 0.005995
146 0.0
154 0.0
149 0.0
140 0.004992
135 0.005013
138 0.0
143 0.0
158 0.001987
168 0.0
180 0.000998
190 0.006983
200 0.005984
165 0.0
107 0.001044
79 0.0
71 0.005997
78 0.004981
95 0.000973
113 0.0
146 0.0
156 0.000949
152 0.000984
142 0.005986
136 0.005986
139 0.0
144 0.000983
153 0.000989
165 0.005974
176 0.004978
192 0.0
199 0.0
112 0.0
79 0.00098
66 0.0
70 0.00597
80 0.005984
100 0.0
119 0.000981
138 0.0
149 0.005983
146 0.005938
137 0.005957
132 0.003004
138 0.001032
146 0.001058
157 0.0
169 0.001995
182 0.006014
193 0.005985
143 0.001994
90 0.001994
65 0.001995
59 0.006975
65 0.00698
81 0.001992
103 0.007003
128 0.003004
140 0.001995
137 0.002993
129 0.005975
125 0.006007
127 0.002003
134 0.002012
143 0.001997
155 0.006982
167 0.006975
184 0.001997
168 0.00701
91 0.002996
65 0.003001
57 0.0
63 0.005984
75 0.005985
96 0.002969
115 0.001993
133 0.002966
143 0.006977
138 0.007037
128 0.003
127 0.007932
134 0.004002
144 0.003031
155 0.002975
163 0.017927
172 0.002035
180 0.002966
197 0.001978
111 0.003038
74 0.006973
61 0.007017
66 0.000997
84 0.007012
108 0.003018
129 0.001987
144 0.001005
145 0.005977
137 0.006993
128 0.002001
129 0.001992
134 0.002003
142 0.006989
152 0.006968
167 0.0
186 0.007954
195 0.002011
158 0.001969
97 0.000996
69 0.005983
61 0.006958
71 0.003
86 0.002995
104 0.002005
125 0.00702
143 0.006934
147 0.002979
133 0.007959
129 0.003
132 0.002983
138 0.001979
150 0.007968
158 0.007963
174 0.001981
186 0.001953
192 0.001961
145 0.006953
90 0.00698
62 0.001947
64 0.007985
80 0.001995
96 0.00296
116 0.001994
136 0.007979
145 0.007991
137 0.00199
129 0.001994
127 0.00295
130 0.00698
136 0.006941
150 0.001984
170 0.007953
182 0.00296
192 0.001995
156 0.001987
96 0.007938
61 0.00798
58 0.001957
65 0.001961
77 0.00196
93 0.007965
111 0.007976
133 0.00296
135 0.007942
128 0.00196
125 0.001985
127 0.002957
133 0.007976
142 0.007977
157 0.0
169 0.001995
181 0.002947
187 0.007978
152 0.007979
81 0.00203
57 0.007927
61 0.001994
72 0.002959
86 0.00196
103 0.007941
123 0.007977
137 0.002957
134 0.002958
127 0.001962
124 0.007977
127 0.007979
136 0.002995
148 0.007967
164 0.002956
177 0.001953
189 0.002955
197 0.007977
150 0.007976
79 0.001969
60 0.00196
58 0.00299
67 0.00701
85 0.007937
102 0.007973
133 0.006983
139 0.006983
134 0.001994
127 0.002955
124 0.002957
127 0.007955
133 0.007979
146 0.001961
158 0.001995
170 0.001975
187 0.007953
193 0.007945
105 0.007977
72 0.006983
61 0.002958
65 0.002959
77 0.001995
93 0.007975
113 0.007978
139 0.002956
145 0.002992
139 0.00196
129 0.006981
127 0.00698
134 0.007046
142 0.006972
153 0.002009
165 0.002041
176 0.003965
189 0.006981
165 0.006982
104 0.001994
72 0.002992
61 0.001995
70 0.008004
83 0.007974
114 0.006981
136 0.007031
146 0.002984
141 0.002009
132 0.002998
127 0.006973
128 0.006975
135 0.00299
143 0.001992
154 0.002003
169 0.007038
180 0.006967
156 0.007997
98 0.006956
69 0.002993
60 0.002991
64 0.003008
81 0.006999
97 0.00693
117 0.001995
135 0.002994
143 0.002993
134 0.00695
127 0.006984
128 0.007982
134 0.006995
142 0.001997
153 0.002996
161 0.00894
169 0.003986
173 0.003056
190 0.001992
112 0.001984
66 0.002997
56 0.006982
64 0.006987
86 0.005977
102 0.00598
120 0.003959
132 0.003965
133 0.002961
124 0.006982
122 0.005982
124 0.003955
131 0.002957
139 0.002961
153 0.005983
165 0.005984
185 0.006981
191 0.005983
145 0.002991
89 0.002959
62 0.002998
56 0.005983
65 0.006983
78 0.00299
92 0.001983
111 0.002985
132 0.006956
134 0.006981
124 0.007033
122 0.006987
125 0.003989
133 0.002976
141 0.003019
155 0.006007
166 0.005984
178 0.002991
189 0.002992
198 0.002929
144 0.006981
89 0.006948
59 0.006987
64 0.006976
76 0.003966
90 0.004957
108 0.004973
134 0.005987
144 0.006982
143 0.003955
135 0.003989
131 0.003991
133 0.006952
140 0.006962
156 0.006948
168 0.006017
181 0.004966
192 0.003988
204 0.004961
201 0.006031
131 0.005985
86 0.004986
69 0.004984
70 0.004994
84 0.006932
100 0.006949
136 0.006942
153 0.005977
158 0.00496
150 0.004955
141 0.004951
137 0.003956
142 0.006018
149 0.005987
159 0.004954
171 0.003986
183 0.004983
199 0.004982
194 0.004985
125 0.005983
85 0.005989
72 0.003992
74 0.00495
87 0.004959
109 0.005985
132 0.006012
153 0.004979
164 0.004994
159 0.004992
143 0.006011
139 0.005019
143 0.00602
152 0.004988
166 0.00497
174 0.004989
186 0.003989
201 0.005984
185 0.005974
116 0.003984
78 0.003997
65 0.004978
72 0.005995
90 0.004957
115 0.004979
137 0.006009
151 0.004987
152 0.004978
142 0.004934
132 0.006032
132 0.005988
136 0.003922
145 0.003973
159 0.004986
171 0.005025
187 0.00498
186 0.004982
120 0.004977
76 0.004978
57 0.004979
58 0.00499
71 0.005016
85 0.004983
102 0.004986
122 0.003973
135 0.003992
134 0.004951
123 0.004971
122 0.005005
126 0.004987
137 0.004947
147 0.004989
155 0.004986
171 0.004987
183 0.005018
164 0.004978
100 0.004981
74 0.004985
52 0.005998
62 0.004986
75 0.004998
90 0.005012
109 0.004969
126 0.004986
132 0.004975
124 0.005012
119 0.004988
120 0.004979
123 0.003973
134 0.004003
145 0.004012
165 0.005025
177 0.005027
188 0.003983
155 0.003995
94 0.004984
71 0.004944
55 0.005025
60 0.004026
76 0.004978
92 0.004973
113 0.003968
130 0.003989
137 0.003971
129 0.00402
123 0.004987
125 0.004999
126 0.010939
129 0.002993
136 0.001967
157 0.002989
177 0.005011
188 0.00402
198 0.004044
165 0.005013
78 0.003983
61 0.003995
63 0.003992
79 0.003995
96 0.003985
116 0.003966
136 0.003988
146 0.004991
140 0.00498
131 0.003999
127 0.004986
128 0.004971
139 0.004989
149 0.003991
160 0.00402
175 0.003957
186 0.003988
191 0.003978
142 0.003991
91 0.003995
66 0.003985
67 0.004022
78 0.004991
93 0.004022
127 0.003992
145 0.004028
150 0.004022
138 0.003989
130 0.003996
128 0.002998
131 0.004038
138 0.003989
147 0.002993
162 0.003017
173 0.003041
184 0.003024
146 0.003992
94 0.003988
68 0.003991
62 0.003995
74 0.00399
87 0.004023
104 0.004024
125 0.003989
141 0.002993
143 0.002999
135 0.003984
128 0.003024
131 0.002993
136 0.00399
145 0.004034
156 0.004032
172 0.00399
183 0.003989
189 0.003989
141 0.003989
90 0.003991
62 0.004007
62 0.002981
70 0.003003
94 0.002997
112 0.002992
130 0.002992
140 0.002992
134 0.004005
127 0.003954
125 0.00399
129 0.002993
135 0.003959
147 0.003982
159 0.002982
170 0.002989
189 0.002987
192 0.002989
136 0.002992
86 0.003025
59 0.00399
59 0.004011
69 0.003975
82 0.004025
97 0.003984
121 0.002976
133 0.002993
134 0.002997
124 0.002994
123 0.002986
127 0.003019
134 0.002994
146 0.002986
157 0.002977
168 0.002993
179 0.004003
189 0.002987
198 0.002992
149 0.002994
93 0.002958
59 0.002991
62 0.003002
74 0.003023
87 0.002027
110 0.002037
128 0.002015
139 0.001994
138 0.002025
131 0.002025
127 0.001994
130 0.001992
136 0.003024
151 0.002986
162 0.002996
173 0.002992
184 0.003024
200 0.002959
204 0.001945
148 0.002977
95 0.003043
71 0.003045
69 0.001995
79 0.001996
93 0.001994
123 0.002002
141 0.00299
151 0.003001
149 0.003027
138 0.002997
135 0.003008
137 0.002986
143 0.003
152 0.002026
167 0.001961
179 0.001985
190 0.001993
208 0.001992
184 0.002006
117 0.00203
84 0.002035
73 0.002991
81 0.002991
95 0.002985
114 0.003041
135 0.001995
158 0.001993
161 0.001981
151 0.001979
144 0.029888
139 0.003023
138 0.002989
151 0.00299
165 0.002964
176 0.003088
188 0.001967
197 0.002048
165 0.001995
97 0.001042
77 0.000953
74 0.000995
92 0.002042
108 0.002043
129 0.002009
148 0.002025
154 0.001956
146 0.001995
136 0.001994
133 0.001999
135 0.002026
141 0.002026
153 0.002939
164 0.003014
182 0.001031
173 0.001044
119 0.000948
82 0.00206
68 0.002061
72 0.002022
82 0.002024
96 0.002
114 0.002028
133 0.002028
142 0.002003
136 0.001014
126 0.000969
127 0.00097
132 0.000996
140 0.001003
150 0.001994
165 0.002008
175 0.001995
157 0.001994
104 0.001995
73 0.00203
60 0.001995
66 0.001993
85 0.000998
101 0.000998
118 0.001995
130 0.001995
131 0.001995
123 0.001996
120 0.001995
122 0.001994
128 0.001995
136 0.002004
150 0.000997
161 0.000996
166 0.000998
117 0.000998
77 0.001
59 0.001998
57 0.001995
68 0.001995
80 0.001994
95 0.001995
111 0.000998
123 0.000998
124 0.000985
119 0.001011
118 0.001
122 0.001994
130 0.001994
139 0.001995
149 0.001994
163 0.0
174 0.001995
167 0.001995
116 0.001004
76 0.000997
56 0.000999
59 0.0
78 0.000998
92 0.000997
108 0.001994
121 0.001995
126 0.001992
122 0.001995
120 0.002177
121 0.001987
126 0.001991
134 0.001997
145 0.001033
155 0.0
172 0.000997
182 0.001025
188 0.001997
148 0.000997
97 0.000992
66 0.000998
65 0.000964
74 0.0
87 0.0
102 0.0
124 0.001035
136 0.0
133 0.000998
127 0.000993
127 0.001018
130 0.000998
137 0.000997
147 0.0
156 0.0
167 0.0
176 0.0
186 0.0
194 0.0
156 0.0
85 0.001026
72 0.0
76 0.000997
88 0.000997
103 0.000998
127 0.0
143 0.0
149 0.0
143 0.0
136 0.001022
134 0.001032
137 0.0
148 0.0
156 0.0
166 0.0
175 0.000976
184 0.000998
195 0.000997
186 0.000966
129 0.0
89 0.0
73 0.0
78 0.0
90 0.001001
117 0.0
136 0.0
148 0.0
149 0.0
141 0.0
134 0.0
135 0.0
140 0.0
147 0.0
156 0.001049
166 0.0
179 0.0
194 0.0
185 0.0
125 0.0
87 0.0
71 0.0
71 0.000997
86 0.0
101 0.001005
118 0.0
137 0.0
148 0.001008
145 0.0
142 0.031867
137 0.002994
133 0.002992
141 0.0
155 0.002974
166 0.000963
180 0.0
191 0.0
202 0.0
194 0.00103
129 0.0
77 0.0
66 0.001995
75 0.002993
88 0.003036
108 0.002986
120 0.000997
141 0.002961
143 0.00202
137 0.002028
130 0.002959
130 0.001023
136 0.002949
144 0.000956
161 0.002945
171 0.002998
182 0.003002
196 0.001964
202 0.002992
207 0.002992
132 0.002992
84 0.003022
63 0.002992
62 0.003031
75 0.002947
88 0.004015
117 0.002971
134 0.002991
143 0.002961
136 0.002949
129 0.002948
127 0.002994
130 0.002948
138 0.002992
151 0.00297
159 0.003036
174 0.002947
184 0.00398
196 0.002976
208 0.00297
216 0.00295
210 0.00297
136 0.003
74 0.002987
60 0.00299
63 0.002994
80 0.004
96 0.002986
108 0.002998
134 0.004001
151 0.002987
144 0.003974
133 0.003046
130 0.002
134 0.001994
143 0.00199
153 0.002
166 0.003
182 0.002991
192 0.003011
203 0.002967
213 0.002998
228 0.002999
224 0.002984
147 0.002994
87 0.002985
65 0.002989
64 0.002018
79 0.001993
95 0.00196
123 0.002983
138 0.002957
156 0.002983
162 0.002958
146 0.002981
134 0.002988
134 0.002992
140 0.002961
151 0.002871
162 0.002029
178 0.003019
190 0.001982
201 0.00202
213 0.002025
223 0.002969
172 0.003051
76 0.00296
64 0.002968
69 0.002987
81 0.002992
100 0.003025
122 0.003001
152 0.002987
166 0.002995
165 0.001987
151 0.00202
136 0.002998
134 0.002992
142 0.002961
155 0.002949
166 0.002959
178 0.002974
190 0.003
201 0.00299
200 0.003982
127 0.00398
76 0.003022
58 0.002028
58 0.002029
75 0.002986
98 0.001939
129 0.002989
149 0.001998
156 0.002028
144 0.002008
131 0.002973
127 0.002958
128 0.002989
135 0.003024
145 0.002992
160 0.002981
173 0.002986
193 0.002996
195 0.002026
112 0.001976
66 0.001987
47 0.00201
47 0.002027
57 0.001983
78 0.002983
96 0.003023
117 0.002994
136 0.002992
133 0.002962
118 0.002989
112 0.002957
116 0.003067
122 0.002958
132 0.002993
143 0.001969
155 0.001961
171 0.001998
175 0.017912
179 0.001997
174 0.000996
58 0.001994
39 0.001961
50 0.002022
64 0.003032
80 0.003027
105 0.001971
114 0.002984
116 0.001995
108 0.002992
102 0.002991
103 0.002992
108 0.002031
115 0.002041
133 0.001969
145 0.001987
161 0.00298
172 0.002989
164 0.002989
81 0.002957
47 0.002983
36 0.002992
40 0.004015
51 0.003027
71 0.003024
89 0.003024
111 0.001993
118 0.002994
110 0.002941
105 0.002953
106 0.002063
109 0.002965
117 0.002953
130 0.002953
141 0.002965
152 0.002953
168 0.002952
177 0.002999
109 0.002998
64 0.003012
45 0.002979
44 0.003021
58 0.002008
73 0.001996
91 0.001986
110 0.003018
122 0.003994
122 0.002984
113 0.002019
109 0.001994
114 0.002948
121 0.002944
131 0.003939
142 0.003982
156 0.001996
167 0.001995
176 0.001963
160 0.002971
100 0.003023
58 0.00298
50 0.002002
57 0.002961
82 0.002961
101 0.000992
121 0.003974
132 0.00399
126 0.001943
118 0.001995
114 0.001995
115 0.003996
121 0.004019
132 0.001995
143 0.001994
153 0.002995
172 0.001995
177 0.001995
134 0.004006
84 0.00399
55 0.001997
56 0.001997
65 0.00299
80 0.004952
97 0.004014
122 0.00303
134 0.001993
132 0.001993
121 0.001998
119 0.001992
123 0.003959
129 0.003952
142 0.002026
153 0.002028
163 0.001028
175 0.005017
183 0.004958
130 0.002027
81 0.001
57 0.001016
57 0.002057
68 0.00102
82 0.003998
98 0.003984
117 0.004
129 0.001997
126 0.002988
120 0.002024
116 0.003993
119 0.00403
128 0.002024
137 0.002
155 0.000997
166 0.001003
177 0.00097
186 0.003982
160 0.003983
84 0.000983
57 0.002009
51 0.002038
57 0.005014
69 0.004987
87 0.002
104 0.0
125 0.001985
125 0.002012
119 0.001012
116 0.004998
