110 0.024964
110 0.006951
122 0.006981
121 0.006984
110 0.007981
100 0.007014
106 0.005991
116 0.007978
122 0.007979
130 0.007966
142 0.007973
145 0.007012
151 0.007978
154 0.00798
138 0.006981
85 0.007029
48 0.006983
42 0.006983
58 0.006981
74 0.007024
84 0.007011
94 0.007027
102 0.007979
101 0.007979
93 0.007978
87 0.007979
90 0.007979
96 0.007979
110 0.007969
119 0.007993
128 0.007032
132 0.007933
140 0.007024
143 0.006981
149 0.007026
154 0.006977
131 0.006981
71 0.007018
35 0.007063
28 0.007017
36 0.007028
47 0.006981
60 0.006823
68 0.006988
75 0.006987
77 0.00698
73 0.006982
72 0.007021
77 0.006977
84 0.007013
94 0.006016
106 0.006985
114 0.006016
121 0.006014
130 0.00602
135 0.00602
138 0.006987
142 0.007029
149 0.006981
153 0.007013
157 0.007016
161 0.006984
167 0.006984
173 0.006013
135 0.005959
66 0.006035
25 0.007019
30 0.006017
41 0.005984
52 0.006021
58 0.009942
69 0.005958
77 0.005985
80 0.005951
77 0.005985
74 0.00698
79 0.00698
88 0.005984
104 0.005877
112 0.006019
121 0.006224
128 0.006034
133 0.006031
138 0.006017
143 0.005984
146 0.006017
150 0.006019
156 0.005041
162 0.006017
166 0.004986
174 0.005985
181 0.005932
181 0.005959
129 0.005987
65 0.005018
36 0.004985
39 0.004967
51 0.004947
67 0.004983
79 0.004991
89 0.005014
97 0.004992
93 0.006021
86 0.005984
88 0.005984
95 0.004987
103 0.005984
117 0.00599
126 0.005028
135 0.005029
141 0.004987
146 0.005023
151 0.005026
155 0.005016
160 0.005021
165 0.00502
169 0.004978
172 0.004987
176 0.00502
184 0.004986
189 0.005028
186 0.00399
129 0.004036
72 0.004023
51 0.005017
58 0.005008
84 0.005026
95 0.005007
104 0.005023
115 0.004987
119 0.004987
108 0.00499
102 0.004988
103 0.00399
109 0.00399
117 0.00399
130 0.003989
139 0.003991
149 0.003994
154 0.0042
158 0.003973
160 0.003951
163 0.00399
166 0.003961
169 0.003948
173 0.005018
177 0.003992
179 0.00399
183 0.003982
191 0.003988
173 0.003991
82 0.003989
51 0.00402
50 0.003945
60 0.004008
76 0.00399
96 0.004052
107 0.003992
117 0.002993
120 0.002995
112 0.002996
99 0.002994
101 0.002993
111 0.003036
122 0.002992
131 0.00399
140 0.003987
147 0.003981
155 0.00399
158 0.003006
160 0.002993
163 0.003988
166 0.003005
170 0.002993
174 0.002996
179 0.002992
183 0.003054
189 0.00404
185 0.002995
130 0.002992
60 0.002992
48 0.003031
55 0.002993
71 0.002996
88 0.002993
106 0.002993
122 0.002993
123 0.001976
108 0.002959
96 0.002992
95 0.002993
101 0.002987
114 0.003004
124 0.002977
135 0.00297
143 0.002967
149 0.001995
153 0.001994
157 0.002028
160 0.003027
161 0.003003
164 0.002992
167 0.002593
173 0.001995
169 0.00201
112 0.001994
56 0.002026
36 0.001994
38 0.001995
57 0.002018
76 0.001995
87 0.00202
101 0.002005
104 0.002029
95 0.001995
85 0.001995
81 0.001995
89 0.000997
98 0.001015
108 0.000998
118 0.001999
126 0.000998
138 0.002011
143 0.000993
146 0.001995
149 0.001995
151 0.001945
154 0.001007
157 0.001994
162 0.001001
167 0.000997
173 0.000995
150 0.000998
79 0.001011
22 0.00102
24 0.001031
41 0.000998
55 0.00097
65 0.000964
68 0.0
70 0.000998
73 0.000997
80 0.001008
96 0.000997
105 0.000998
117 0.001037
123 0.000997
128 0.000997
132 0.000997
136 0.000997
139 0.0
143 0.0
147 0.0
152 0.0
155 0.000999
163 0.000999
168 0.001032
160 0.000997
96 0.000991
45 0.000997
31 0.000998
36 0.000997
55 0.0
68 0.0
77 0.0
84 0.0
90 0.0
87 0.0
81 0.0
81 0.0
87 0.0
95 0.0
106 0.0
114 0.0
122 0.0
130 0.0
134 0.0
136 0.0
140 0.0
145 0.0
149 0.0
152 0.0
158 0.000987
162 0.000956
166 0.0
174 0.0
177 0.000998
133 0.000997
69 0.000997
40 0.0
43 0.001005
66 0.000997
79 0.0
84 0.001
93 0.0
97 0.00103
94 0.001003
84 0.0
82 0.002044
87 0.001
95 0.000998
108 0.0
116 0.000998
128 0.000994
134 0.0
138 0.000998
140 0.001995
143 0.001995
147 0.00104
149 0.000998
153 0.000998
157 0.002027
161 0.000979
166 0.001035
170 0.000998
180 0.000998
174 0.002002
116 0.000997
49 0.002027
38 0.001994
44 0.000998
63 0.001013
76 0.000998
86 0.002028
93 0.002991
98 0.001994
92 0.001032
80 0.001015
82 0.001017
90 0.001011
99 0.001996
109 0.002992
118 0.001995
128 0.002018
133 0.001995
136 0.002029
141 0.002031
144 0.002029
148 0.000982
152 0.001991
158 0.000998
162 0.000998
166 0.001977
170 0.002993
176 0.003026
183 0.002043
159 0.002031
92 0.00198
49 0.003024
41 0.003023
55 0.002036
77 0.002992
91 0.001994
101 0.002023
111 0.003021
110 0.003024
97 0.003023
86 0.002021
87 0.002991
97 0.001995
107 0.002992
118 0.003025
131 0.002032
140 0.002992
145 0.002994
148 0.002028
150 0.001992
152 0.002992
155 0.003032
159 0.003032
162 0.003026
165 0.003032
172 0.003033
178 0.003022
166 0.003027
62 0.002992
35 0.001992
39 0.00299
53 0.002984
69 0.00399
82 0.004026
94 0.003027
102 0.003
100 0.003027
90 0.00399
82 0.004037
83 0.003991
95 0.003032
109 0.002992
120 0.003034
123 0.019914
131 0.001002
140 0.003995
145 0.003991
147 0.004021
150 0.004029
153 0.003015
156 0.004023
159 0.00404
166 0.00399
172 0.00403
175 0.003022
125 0.003022
58 0.003991
27 0.004989
23 0.004989
36 0.004021
52 0.003991
63 0.004017
70 0.00399
78 0.004023
79 0.004024
72 0.003989
67 0.003033
72 0.003009
80 0.002976
91 0.005035
102 0.005028
114 0.004009
122 0.004051
126 0.00399
130 0.00498
134 0.00495
138 0.005013
142 0.004992
146 0.003951
152 0.003949
156 0.00401
160 0.005984
165 0.005987
171 0.004992
149 0.00495
80 0.004965
27 0.005049
23 0.005027
43 0.004987
57 0.004987
70 0.003989
78 0.003996
84 0.004031
82 0.005989
73 0.005945
69 0.004991
73 0.004989
82 0.00499
92 0.00605
104 0.005999
119 0.005026
125 0.005021
129 0.00603
134 0.006016
137 0.006019
140 0.006017
145 0.00601
152 0.005018
156 0.004987
161 0.004988
167 0.00503
172 0.006982
182 0.005018
158 0.006025
87 0.006015
35 0.00602
31 0.00606
41 0.006018
58 0.006981
73 0.007015
86 0.00601
95 0.006019
98 0.006017
91 0.006984
82 0.005984
83 0.006982
92 0.005994
107 0.005016
119 0.006038
129 0.005995
137 0.00698
143 0.007019
148 0.005984
150 0.00605
152 0.006022
155 0.007012
161 0.005996
166 0.007026
171 0.007979
175 0.006015
180 0.006946
187 0.006933
192 0.007036
143 0.007016
77 0.006993
42 0.005938
46 0.006011
61 0.007018
89 0.005983
101 0.007012
112 0.006971
115 0.006989
104 0.006988
92 0.006982
88 0.007937
94 0.007971
108 0.007001
120 0.006997
132 0.007013
141 0.007126
149 0.006983
153 0.006983
154 0.00799
157 0.006981
159 0.00698
162 0.006941
166 0.007994
170 0.007979
179 0.00698
176 0.006982
97 0.006995
62 0.00798
37 0.006982
46 0.007019
60 0.007935
79 0.007015
91 0.006979
100 0.007034
101 0.006981
91 0.007982
82 0.007974
83 0.007989
90 0.007976
97 0.007015
117 0.006927
126 0.006946
136 0.007964
141 0.007018
144 0.007025
147 0.007022
149 0.007011
152 0.007012
156 0.006979
161 0.00702
164 0.007021
169 0.006989
179 0.006982
158 0.006999
87 0.007015
39 0.007019
26 0.007014
35 0.006956
48 0.006944
61 0.007015
70 0.007022
76 0.006986
81 0.006983
80 0.006983
73 0.007015
75 0.00602
81 0.006021
88 0.0
102 0.001041
115 0.006991
124 0.007026
130 0.007016
135 0.006989
138 0.005978
143 0.006015
147 0.005983
153 0.006028
158 0.006014
162 0.00599
168 0.005984
173 0.006024
179 0.00598
185 0.005985
159 0.00503
87 0.005029
34 0.004994
31 0.005991
41 0.004988
65 0.005987
75 0.006027
81 0.006014
88 0.006015
90 0.005985
84 0.006025
81 0.004966
82 0.006015
89 0.005983
99 0.004984
115 0.005024
125 0.004985
138 0.005034
142 0.004987
146 0.004973
150 0.005019
153 0.004952
158 0.005031
162 0.004986
167 0.004981
172 0.00499
177 0.006015
184 0.004988
191 0.004987
158 0.004987
85 0.005021
47 0.005048
41 0.005021
50 0.00502
72 0.00503
87 0.004955
97 0.005019
106 0.005
112 0.003992
103 0.003955
94 0.004026
96 0.004987
105 0.004031
116 0.004034
127 0.004991
138 0.005021
150 0.00499
155 0.004003
159 0.005015
161 0.005016
164 0.004986
167 0.003989
171 0.004018
178 0.004029
183 0.00398
189 0.003988
195 0.003989
184 0.004042
93 0.003987
51 0.003984
43 0.003997
53 0.003028
69 0.003003
90 0.004998
102 0.003997
118 0.004018
115 0.004024
102 0.004008
92 0.003991
93 0.004018
100 0.004023
115 0.003989
127 0.003007
138 0.003022
147 0.002987
154 0.002958
161 0.002954
164 0.003025
167 0.002991
170 0.002992
174 0.004025
176 0.00399
181 0.003976
190 0.002979
189 0.002951
129 0.003098
59 0.002933
30 0.003039
32 0.002964
51 0.003022
70 0.002992
78 0.002992
87 0.003369
93 0.003006
90 0.00402
80 0.002995
78 0.003025
82 0.003028
92 0.003035
104 0.002991
119 0.002026
131 0.002993
141 0.001995
145 0.002044
149 0.002029
151 0.003025
155 0.003024
160 0.003042
164 0.002985
168 0.003007
173 0.002994
181 0.002032
185 0.002994
110 0.003005
36 0.003045
23 0.002979
30 0.002994
45 0.002026
61 0.002025
76 0.001995
85 0.002026
93 0.002029
91 0.00199
82 0.001998
77 0.002026
84 0.003031
98 0.001995
110 0.001994
121 0.002013
131 0.002002
139 0.002038
145 0.002039
150 0.001041
154 0.000978
157 0.000961
160 0.002047
165 0.001038
173 0.000997
178 0.000998
187 0.000998
194 0.001962
153 0.000998
77 0.001057
39 0.000964
37 0.000989
51 0.001034
69 0.00102
85 0.000966
97 0.000998
114 0.000971
111 0.001966
94 0.001965
88 0.000968
92 0.0
103 0.000995
115 0.001027
132 0.001042
143 0.000998
151 0.00103
156 0.000989
158 0.001034
161 0.000997
163 0.000998
167 0.000998
172 0.000964
179 0.0
187 0.0
178 0.001001
89 0.0
46 0.0
39 0.0
48 0.0
66 0.0
95 0.0
108 0.0
122 0.000998
116 0.000974
101 0.000998
91 0.001008
91 0.000943
101 0.0
114 0.0
127 0.001037
138 0.0
147 0.0
158 0.0
161 0.0
164 0.0
166 0.0
167 0.0
170 0.0
177 0.000996
183 0.0
138 0.0
66 0.0
28 0.001003
21 0.000998
49 0.0
64 0.0
75 0.0
84 0.000969
91 0.000972
86 0.000965
77 0.0
74 0.0
79 0.001031
87 0.0
104 0.0
116 0.0
131 0.0
138 0.0
142 0.0
146 0.001029
149 0.000998
152 0.00097
156 0.0
160 0.0
164 0.000994
172 0.001039
167 0.0
95 0.0
22 0.001002
18 0.0
29 0.0
46 0.00094
61 0.000998
73 0.001032
82 0.000989
86 0.001004
80 0.001996
73 0.000998
71 0.000998
77 0.000964
99 0.0
111 0.0
120 0.0
130 0.002026
136 0.002018
141 0.000998
143 0.000999
148 0.000999
151 0.001053
155 0.001036
161 0.000959
165 0.000964
178 0.001013
171 0.000966
106 0.001012
49 0.001998
30 0.002038
39 0.00103
54 0.001009
70 0.00104
82 0.001996
92 0.001994
100 0.003033
95 0.000972
84 0.001995
82 0.002055
92 0.001034
103 0.000996
115 0.001995
125 0.002993
138 0.00098
144 0.000963
149 0.002038
152 0.002986
154 0.003001
158 0.001985
162 0.002994
168 0.002001
173 0.002025
179 0.002035
187 0.002989
190 0.003927
114 0.000996
59 0.002047
44 0.001989
50 0.002001
65 0.003028
88 0.00199
104 0.003028
118 0.002029
117 0.001982
105 0.001974
94 0.003024
91 0.003024
101 0.002002
114 0.002033
126 0.001995
137 0.003029
146 0.004019
153 0.003014
157 0.003959
158 0.003026
159 0.003027
162 0.003027
167 0.00399
173 0.004022
175 0.003027
124 0.003026
66 0.00303
42 0.00399
45 0.004008
64 0.002006
86 0.002992
100 0.002002
111 0.002978
114 0.002989
104 0.00399
93 0.003989
93 0.003025
100 0.003039
111 0.002975
123 0.004989
134 0.004024
145 0.004017
153 0.005004
155 0.003968
159 0.00399
161 0.004009
162 0.00402
165 0.004018
169 0.003971
178 0.00302
170 0.00297
106 0.002981
50 0.004992
30 0.004952
39 0.004976
53 0.004987
69 0.003989
75 0.004023
83 0.003989
86 0.005014
83 0.005022
75 0.004036
77 0.004032
84 0.00402
93 0.004988
103 0.004025
119 0.004989
127 0.004987
134 0.004013
137 0.003989
141 0.003946
145 0.005023
148 0.005984
153 0.004019
159 0.003989
163 0.004042
166 0.006016
172 0.005973
182 0.005984
154 0.006039
59 0.004986
30 0.005017
29 0.005013
40 0.005031
54 0.006034
69 0.004952
74 0.004997
80 0.004947
84 0.005945
83 0.005986
78 0.006015
81 0.005984
91 0.004992
102 0.00497
112 0.005027
121 0.006018
128 0.006981
136 0.004995
140 0.004991
143 0.005023
146 0.006981
150 0.005983
157 0.005984
162 0.005998
166 0.006027
173 0.005023
177 0.004986
182 0.005019
188 0.006016
171 0.005984
77 0.005984
45 0.006019
44 0.005954
55 0.00698
81 0.006019
91 0.006981
96 0.007024
105 0.006016
103 0.004997
97 0.006016
93 0.006015
96 0.006974
106 0.005951
117 0.006024
128 0.005982
137 0.007017
148 0.005985
152 0.007028
156 0.007011
160 0.005994
163 0.006038
167 0.00703
172 0.006975
177 0.007978
183 0.006991
187 0.006983
191 0.006981
198 0.006988
203 0.007024
127 0.006977
72 0.007011
60 0.00603
71 0.005982
88 0.005983
105 0.007978
115 0.007978
129 0.006949
133 0.006981
124 0.006943
109 0.007934
107 0.007012
119 0.007985
130 0.007977
143 0.006991
153 0.007012
161 0.006984
164 0.007978
166 0.007947
168 0.00698
170 0.006976
172 0.007018
174 0.007947
180 0.007011
189 0.007973
190 0.007979
166 0.007979
82 0.007013
55 0.007018
62 0.007011
77 0.007015
93 0.00698
108 0.007013
118 0.006986
126 0.007985
118 0.006987
106 0.007018
101 0.007978
108 0.007017
120 0.006984
132 0.006982
143 0.00701
150 0.006985
155 0.00696
160 0.006998
163 0.006981
164 0.006985
168 0.007019
171 0.006015
175 0.00701
181 0.006941
185 0.006998
142 0.006004
77 0.006013
47 0.006018
45 0.007006
58 0.007
71 0.006978
80 0.006975
90 0.005985
96 0.006993
94 0.006017
88 0.006014
85 0.006021
89 0.00604
98 0.006015
109 0.006017
118 0.006017
130 0.006029
137 0.00598
142 0.005986
149 0.006024
152 0.006016
155 0.00602
159 0.005963
164 0.005985
169 0.006001
172 0.005989
178 0.006023
185 0.005989
172 0.006029
104 0.006017
56 0.004965
42 0.00502
51 0.005018
63 0.005023
73 0.005018
79 0.005016
84 0.004987
88 0.004992
86 0.005014
82 0.005988
83 0.006028
90 0.005984
98 0.005982
116 0.005983
124 0.005009
131 0.00502
138 0.005
143 0.005021
147 0.004994
151 0.005026
156 0.004994
160 0.005004
165 0.004999
172 0.005025
176 0.004027
186 0.004015
192 0.004009
195 0.004986
155 0.004994
87 0.004021
50 0.005017
52 0.005078
63 0.004967
77 0.005022
88 0.005036
96 0.004996
102 0.004992
101 0.003969
95 0.004995
94 0.004021
98 0.004034
106 0.004022
120 0.003989
130 0.00399
138 0.003989
146 0.004008
151 0.004037
156 0.003991
159 0.003991
164 0.003956
167 0.003987
171 0.004008
176 0.002992
181 0.003026
187 0.004988
192 0.002992
200 0.002963
198 0.004023
142 0.004018
78 0.003957
52 0.00399
61 0.003956
80 0.003979
94 0.003972
102 0.002956
110 0.003036
115 0.003032
106 0.00399
98 0.002994
98 0.003019
103 0.002959
113 0.003019
129 0.002958
141 0.002935
153 0.002968
158 0.002992
161 0.003032
164 0.002996
166 0.003935
171 0.002025
175 0.002991
179 0.002991
183 0.002991
188 0.003006
196 0.00305
205 0.00304
190 0.002989
120 0.002992
70 0.002987
56 0.002011
63 0.002084
85 0.002997
102 0.001969
114 0.002982
125 0.002025
133 0.002037
122 0.002993
104 0.001992
103 0.001993
113 0.001992
125 0.002992
137 0.002953
148 0.002026
161 0.002993
166 0.002023
169 0.002022
171 0.001995
173 0.001995
174 0.001995
179 0.002042
184 0.001996
191 0.002043
198 0.002019
186 0.001994
119 0.001955
55 0.002007
45 0.001035
55 0.00103
72 0.001033
89 0.001995
102 0.002041
121 0.001997
122 0.001989
106 0.001994
96 0.002011
97 0.00106
105 0.000995
117 0.002006
133 0.001039
144 0.001041
153 0.001033
160 0.000999
163 0.00096
167 0.000995
169 0.000996
172 0.000999
174 0.001008
179 0.000996
185 0.000999
192 0.000998
162 0.000982
87 0.000954
39 0.000998
26 0.000967
33 0.001994
60 0.0
74 0.000998
85 0.000968
94 0.001004
94 0.001007
87 0.000998
80 0.000998
82 0.000998
91 0.000998
104 0.0
116 0.000965
128 0.000997
143 0.0
149 0.000966
152 0.0
155 0.0
158 0.0
162 0.0
166 0.0
173 0.0
177 0.0
182 0.001031
190 0.0
191 0.000996
98 0.000963
38 0.000966
18 0.0
27 0.0
43 0.0
60 0.0
71 0.0
82 0.000998
89 0.000975
85 0.0
77 0.000997
73 0.0
83 0.000966
100 0.000957
113 0.0
124 0.000968
134 0.000997
141 0.000997
146 0.000969
150 0.000997
154 0.00095
158 0.000956
164 0.0
168 0.000965
177 0.000994
184 0.000989
191 0.0
198 0.001058
189 0.000982
88 0.0
35 0.0
22 0.001026
30 0.000991
49 0.001031
74 0.0
87 0.0
103 0.0
102 0.0
90 0.0
81 0.000997
81 0.002027
93 0.000991
107 0.000997
121 0.001995
135 0.001996
145 0.001998
154 0.0
158 0.000998
161 0.001013
163 0.000988
166 0.000973
170 0.002026
174 0.002029
182 0.000958
192 0.000963
197 0.002011
154 0.001995
77 0.002991
31 0.000962
32 0.000965
62 0.000963
81 0.001001
97 0.000965
111 0.002029
120 0.001964
106 0.002034
91 0.001001
86 0.002043
91 0.000999
102 0.002993
117 0.001995
135 0.001996
149 0.002993
158 0.001996
162 0.000979
165 0.00199
166 0.003025
168 0.003025
172 0.001006
175 0.000999
179 0.00105
187 0.00203
193 0.003001
140 0.000997
42 0.002983
13 0.002001
20 0.002001
37 0.001998
55 0.002992
69 0.002992
81 0.00196
89 0.001967
85 0.001984
74 0.002977
68 0.002996
74 0.001995
90 0.003026
108 0.001987
120 0.002008
130 0.001993
136 0.003022
141 0.003027
145 0.003029
147 0.003025
150 0.003036
154 0.00399
158 0.003989
165 0.003024
172 0.003991
183 0.002011
173 0.003032
99 0.003041
34 0.004025
9 0.00399
13 0.002019
31 0.003011
49 0.00299
60 0.003991
67 0.004987
78 0.002994
71 0.005026
63 0.002982
64 0.002985
72 0.00299
84 0.003992
98 0.00399
110 0.004027
123 0.003031
131 0.002957
136 0.003947
139 0.003989
143 0.004028
149 0.004988
155 0.005022
161 0.003002
166 0.002993
172 0.004023
179 0.00502
187 0.00502
161 0.00299
80 0.002993
27 0.002993
14 0.003985
22 0.003989
52 0.004952
67 0.004985
80 0.004017
90 0.003993
88 0.003998
77 0.005027
70 0.005018
73 0.003989
83 0.004005
96 0.004002
110 0.004985
122 0.005018
136 0.005987
141 0.005992
145 0.003995
147 0.003991
150 0.004006
154 0.005017
160 0.004993
167 0.003993
172 0.00495
178 0.003994
187 0.004987
193 0.00499
103 0.005985
40 0.005945
18 0.004986
28 0.00551
46 0.003995
66 0.006026
81 0.006016
97 0.004988
102 0.003985
92 0.003996
79 0.005984
73 0.005986
85 0.006019
99 0.006015
118 0.005016
131 0.004986
141 0.004956
148 0.006024
152 0.006019
155 0.005985
157 0.005023
160 0.006025
163 0.005032
167 0.007015
175 0.004984
182 0.006017
190 0.006018
185 0.00499
109 0.004984
38 0.004977
10 0.006024
10 0.006021
33 0.005983
52 0.006018
66 0.005999
76 0.007024
86 0.005024
79 0.006998
69 0.006981
67 0.006024
75 0.00599
87 0.00598
103 0.007017
117 0.006983
131 0.00595
138 0.006001
144 0.005986
147 0.007014
151 0.006031
154 0.007023
158 0.007015
166 0.005974
171 0.00602
177 0.006983
186 0.00794
195 0.00796
140 0.006985
57 0.007012
17 0.007014
11 0.007973
36 0.005975
56 0.006969
72 0.00702
86 0.006003
94 0.006972
88 0.006952
78 0.00798
71 0.007978
78 0.007039
91 0.006979
107 0.007025
122 0.007979
142 0.007013
150 0.007979
158 0.007983
161 0.007018
164 0.006988
168 0.006982
171 0.007979
178 0.007978
184 0.007017
191 0.006981
201 0.006981
211 0.007013
186 0.006984
95 0.006981
26 0.007984
19 0.00801
32 0.00699
55 0.006993
82 0.007012
98 0.007982
107 0.007978
116 0.006982
102 0.00698
82 0.006979
84 0.006985
98 0.006982
114 0.006948
130 0.006984
149 0.006985
159 0.006988
165 0.005988
168 0.005984
170 0.007024
171 0.006978
174 0.007023
177 0.007018
188 0.006994
197 0.006967
169 0.00701
82 0.006973
17 0.005972
11 0.006995
24 0.00698
46 0.006975
66 0.007017
85 0.006017
98 0.006016
101 0.006014
80 0.005985
71 0.006987
75 0.007001
86 0.006983
106 0.006828
122 0.006981
137 0.006966
148 0.005999
154 0.006028
161 0.006015
163 0.005994
166 0.006015
171 0.006021
175 0.005966
181 0.006032
188 0.00599
200 0.006971
192 0.00699
108 0.006013
31 0.005963
0 0.006024
5 0.006015
23 0.006015
45 0.006014
68 0.005994
78 0.005949
83 0.005976
77 0.005994
65 0.005022
64 0.004986
71 0.005018
84 0.005011
101 0.005036
116 0.005031
132 0.005027
141 0.005399
149 0.005018
152 0.004997
155 0.005016
159 0.004996
163 0.005026
171 0.00499
177 0.005034
185 0.003992
195 0.005944
199 0.004987
107 0.006019
31 0.00602
1 0.005034
14 0.004994
35 0.005017
55 0.004988
69 0.004987
85 0.004998
91 0.00497
83 0.00498
72 0.005028
68 0.005028
78 0.005022
92 0.005016
118 0.004025
133 0.003974
145 0.004991
153 0.003976
159 0.003992
164 0.00399
167 0.00399
171 0.004986
175 0.005019
181 0.005017
190 0.004977
198 0.005024
214 0.003982
179 0.00403
84 0.004013
28 0.003975
15 0.003995
33 0.004024
56 0.004018
80 0.003957
97 0.003986
113 0.003987
121 0.004022
104 0.004025
82 0.003024
85 0.00302
97 0.00395
113 0.003989
131 0.003978
152 0.003988
163 0.003956
170 0.003995
174 0.004031
175 0.004022
176 0.003977
178 0.003994
186 0.002957
199 0.003024
185 0.002993
105 0.002991
40 0.003004
19 0.002956
31 0.002956
52 0.002993
76 0.003027
95 0.003026
112 0.003038
124 0.003024
101 0.001993
80 0.002992
79 0.002958
89 0.002957
105 0.003047
123 0.003008
144 0.003003
157 0.00306
165 0.002994
168 0.003025
168 0.002993
171 0.002992
179 0.002999
156 0.001998
75 0.00204
20 0.001961
4 0.001998
12 0.001996
39 0.001966
60 0.002032
75 0.001995
88 0.002998
97 0.001995
85 0.00203
69 0.002046
70 0.002039
81 0.001956
97 0.001998
114 0.002028
127 0.001995
141 0.002007
148 0.002
153 0.002042
154 0.001994
156 0.001995
161 0.001996
170 0.001998
168 0.000962
97 0.001951
22 0.000997
0 0.002004
0 0.001997
4 0.001998
22 0.002027
34 0.001995
40 0.002027
50 0.001978
56 0.002014
50 0.001036
49 0.001023
57 0.000955
69 0.001047
85 0.001
100 0.000998
113 0.000998
125 0.000997
132 0.000997
137 0.000998
143 0.001002
147 0.000998
157 0.0
163 0.000999
172 0.000996
179 0.000977
189 0.00103
198 0.0
153 0.000951
32 0.000998
0 0.000997
0 0.000997
0 0.000998
71 0.000999
83 0.00101
87 0.0
93 0.000997
94 0.001015
91 0.000945
91 0.000998
93 0.000943
101 0.000998
109 0.000997
117 0.000997
125 0.0
131 0.0
136 0.0
139 0.0
142 0.0
145 0.001039
148 0.000956
152 0.0
155 0.0
160 0.000998
164 0.000997
170 0.000998
165 0.0
120 0.0
67 0.0
63 0.0
73 0.0
84 0.0
94 0.0
100 0.0
106 0.0
109 0.0
104 0.0
100 0.0
100 0.000997
105 0.000998
122 0.0
130 0.0
138 0.00102
143 0.002031
148 0.002002
150 0.000998
152 0.000997
155 0.0
157 0.002036
160 0.002038
164 0.0
168 0.0
175 0.000967
178 0.000981
141 0.001012
92 0.001964
72 0.000978
71 0.000999
83 0.0
96 0.000967
107 0.000999
116 0.001028
126 0.0
124 0.0
111 0.000998
105 0.0
109 0.0
118 0.001946
128 0.000998
141 0.000958
148 0.000951
153 0.000996
157 0.001996
159 0.001947
160 0.002043
161 0.002031
163 0.001972
167 0.002046
172 0.001027
178 0.00197
162 0.001995
96 0.000986
72 0.00104
70 0.000998
78 0.001993
90 0.002025
107 0.000963
117 0.000977
130 0.000993
124 0.000961
112 0.001994
106 0.002029
107 0.002027
116 0.002
126 0.000995
136 0.000963
144 0.002025
151 0.001995
155 0.001978
159 0.001003
160 0.002054
161 0.000966
163 0.000948
166 0.000984
171 0.003033
163 0.003021
96 0.002027
67 0.002075
60 0.001888
65 0.003042
77 0.003024
93 0.002027
103 0.002997
112 0.001028
111 0.002
105 0.001979
99 0.002942
99 0.002995
107 0.001991
116 0.00197
125 0.001994
134 0.002992
140 0.002992
147 0.001975
152 0.003028
155 0.0
157 0.001031
159 0.002001
162 0.003022
164 0.004014
171 0.002013
176 0.001994
171 0.001924
118 0.003953
73 0.003989
56 0.001989
63 0.003979
79 0.00201
91 0.001978
97 0.001996
102 0.003991
107 0.00399
104 0.002004
99 0.001995
98 0.001996
103 0.002992
111 0.003004
123 0.001987
134 0.004026
144 0.002976
148 0.002957
150 0.003026
153 0.004023
156 0.004022
158 0.002002
161 0.002964
164 0.002997
168 0.004021
173 0.00402
175 0.002993
113 0.004018
67 0.003049
62 0.003012
68 0.002024
80 0.002961
93 0.004988
103 0.005012
112 0.003999
118 0.002992
115 0.003015
107 0.004995
103 0.005018
109 0.005025
117 0.005021
129 0.002971
138 0.002994
146 0.002957
152 0.004987
156 0.005984
159 0.002988
161 0.002994
162 0.004003
165 0.004937
168 0.004947
173 0.00502
179 0.004987
185 0.004021
154 0.003986
97 0.004028
73 0.004987
70 0.005018
82 0.004027
96 0.003028
109 0.003975
119 0.00598
129 0.006017
128 0.005987
117 0.006017
108 0.00399
111 0.00399
118 0.004004
127 0.004987
137 0.005027
149 0.003995
154 0.003985
159 0.005024
161 0.005954
162 0.005984
162 0.006019
163 0.005982
167 0.004986
172 0.00502
177 0.005017
159 0.006017
105 0.005983
70 0.00399
70 0.004022
79 0.004
92 0.006991
106 0.005974
124 0.005971
132 0.005975
124 0.004988
111 0.004998
105 0.004993
106 0.00499
113 0.005984
122 0.006023
136 0.004988
144 0.005993
150 0.006013
155 0.007016
159 0.006014
160 0.007015
161 0.006991
162 0.005011
164 0.00499
167 0.004991
172 0.006018
165 0.006018
94 0.005985
62 0.005977
55 0.005977
60 0.006982
81 0.006008
93 0.007007
101 0.007992
110 0.007019
109 0.004987
100 0.005988
93 0.007964
93 0.007979
101 0.005985
110 0.005992
120 0.006017
131 0.007954
139 0.005987
144 0.007979
146 0.007978
148 0.005972
149 0.005028
151 0.005986
153 0.007017
156 0.007018
163 0.005986
166 0.006981
130 0.006974
79 0.007979
53 0.007009
61 0.007983
73 0.007996
86 0.007026
94 0.006022
101 0.006016
106 0.00798
103 0.00801
93 0.005998
92 0.006964
95 0.006977
105 0.007992
118 0.006979
127 0.007943
135 0.00798
140 0.006981
143 0.006977
145 0.007012
146 0.006982
148 0.007979
150 0.007945
156 0.006991
160 0.006983
166 0.006988
140 0.007002
87 0.00699
60 0.006985
56 0.006982
68 0.00697
77 0.006981
93 0.006978
100 0.007946
111 0.007012
112 0.006987
103 0.007014
96 0.006989
98 0.006981
105 0.006984
116 0.006031
125 0.006976
137 0.006019
142 0.00698
146 0.005983
148 0.006014
149 0.006012
150 0.007011
152 0.005986
155 0.005989
160 0.006994
166 0.006986
172 0.006977
163 0.007015
96 0.006019
68 0.006008
63 0.006014
71 0.006008
84 0.006014
101 0.005997
112 0.006016
121 0.006014
118 0.00597
106 0.00599
99 0.005987
101 0.004986
110 0.006031
120 0.006022
130 0.005969
138 0.005968
144 0.006027
150 0.006016
151 0.006017
152 0.005993
153 0.00599
155 0.005992
158 0.006015
163 0.00502
166 0.005979
130 0.004986
81 0.004987
60 0.005026
58 0.005022
67 0.004983
84 0.006029
95 0.006017
107 0.005024
112 0.005981
107 0.005016
98 0.004971
94 0.005972
99 0.005029
107 0.005019
116 0.005017
125 0.00503
133 0.005018
140 0.004985
144 0.004986
147 0.004986
149 0.004946
151 0.00399
153 0.004031
156 0.00403
162 0.005027
167 0.005033
173 0.005023
156 0.005028
98 0.005041
58 0.005019
54 0.005029
69 0.004955
82 0.003992
92 0.003955
98 0.003991
104 0.003983
103 0.004017
96 0.004023
93 0.004027
95 0.003988
101 0.003976
113 0.004023
122 0.004023
136 0.004991
141 0.004033
144 0.003991
146 0.004998
148 0.004023
151 0.004023
153 0.003996
156 0.003997
160 0.00403
163 0.004025
170 0.003958
176 0.004039
128 0.003955
80 0.004025
63 0.004026
64 0.004026
73 0.003023
90 0.003025
101 0.003023
108 0.003024
115 0.003031
115 0.002992
108 0.003035
101 0.004024
104 0.002991
114 0.003996
123 0.00401
132 0.004032
140 0.003042
146 0.002993
151 0.002993
153 0.003025
154 0.002995
155 0.003027
157 0.002992
161 0.002992
165 0.003029
172 0.001995
178 0.001997
164 0.003023
112 0.002031
82 0.002964
77 0.001977
85 0.002993
97 0.003005
110 0.001994
119 0.003004
131 0.002993
130 0.002991
116 0.003036
109 0.002995
110 0.002978
117 0.003
125 0.001996
137 0.001995
145 0.001995
151 0.002026
154 0.001996
156 0.001995
157 0.002025
157 0.001994
160 0.001962
164 0.002023
168 0.002041
157 0.001995
111 0.002039
74 0.001995
71 0.002035
78 0.001996
89 0.001995
99 0.001995
110 0.00203
119 0.001963
116 0.002049
107 0.001996
102 0.001995
102 0.002009
108 0.002005
119 0.00204
127 0.000997
135 0.000998
140 0.001044
144 0.00204
146 0.001006
148 0.001995
149 0.002014
151 0.002
153 0.001989
156 0.000996
161 0.001995
166 0.000998
135 0.001001
86 0.000962
64 0.000998
60 0.000997
66 0.001966
83 0.002031
91 0.001063
97 0.000999
101 0.001
100 0.000998
95 0.001
92 0.000997
95 0.000997
100 0.000998
109 0.001009
118 0.000998
124 0.000997
133 0.0
136 0.0
139 0.0
141 0.000997
142 0.001019
145 0.001008
149 0.001002
153 0.000997
157 0.000997
162 0.000998
167 0.000997
151 0.0
73 0.0
58 0.0
61 0.0
71 0.0
81 0.0
89 0.0
94 0.0
100 0.0
99 0.0
95 0.000998
92 0.000997
93 0.0
104 0.0
113 0.0
124 0.0
131 0.001028
136 0.0
141 0.0
143 0.000999
146 0.0
149 0.0
151 0.001005
156 0.0
160 0.0
167 0.0
172 0.0
177 0.0
176 0.001964
128 0.002038
73 0.0
63 0.0
67 0.0
77 0.001995
90 0.001031
103 0.0
110 0.0
116 0.0
111 0.000996
101 0.0
100 0.000999
104 0.001995
112 0.001
125 0.0
135 0.0
142 0.002059
147 0.001996
152 0.0
153 0.0
155 0.0
157 0.0
159 0.0
162 0.001995
166 0.001955
175 0.0
178 0.0
143 0.0
92 0.00104
70 0.00104
71 0.0
77 0.000997
102 0.0
112 0.0
122 0.0
128 0.001995
122 0.001996
108 0.0
104 0.0
107 0.0
116 0.002031
126 0.001998
139 0.000996
147 0.0
156 0.0
159 0.0
160 0.001997
160 0.00203
161 0.001992
163 0.000961
166 0.002002
172 0.00202
168 0.00194
119 0.001995
69 0.002003
61 0.002
73 0.000984
85 0.002001
95 0.002035
103 0.001995
110 0.002034
114 0.002992
106 0.001
99 0.000986
99 0.00103
104 0.002992
112 0.003007
125 0.001013
137 0.003024
146 0.002024
149 0.001011
152 0.001005
154 0.003028
155 0.003024
158 0.001972
161 0.001031
164 0.001991
167 0.003038
172 0.002992
180 0.002002
140 0.003033
73 0.002145
57 0.002033
58 0.001028
67 0.004029
79 0.00399
92 0.000946
98 0.000995
103 0.001955
105 0.004005
101 0.00399
96 0.001995
99 0.004025
108 0.001952
118 0.001995
128 0.001991
135 0.004024
142 0.003976
148 0.001948
150 0.001995
151 0.001995
154 0.003958
157 0.002996
160 0.002984
165 0.003988
171 0.002992
178 0.00299
174 0.002992
122 0.003985
75 0.003989
57 0.003003
61 0.002012
68 0.003989
85 0.004031
96 0.00399
104 0.001997
110 0.005028
105 0.003007
99 0.002993
99 0.002988
103 0.002991
111 0.004025
122 0.004021
134 0.002993
142 0.003989
148 0.001994
153 0.00403
155 0.005021
158 0.005014
161 0.004988
165 0.002994
168 0.002992
172 0.002999
177 0.005019
183 0.005019
189 0.003011
166 0.003002
103 0.002
68 0.005044
60 0.004987
75 0.005034
90 0.004987
104 0.003986
113 0.003998
121 0.003002
120 0.004989
110 0.005988
102 0.003951
104 0.00399
110 0.003957
120 0.005954
131 0.006016
147 0.00502
154 0.00499
159 0.003985
161 0.004
162 0.00399
164 0.004987
166 0.005993
169 0.004028
172 0.004021
176 0.004019
182 0.005983
188 0.005984
136 0.00695
84 0.005984
65 0.004004
71 0.003992
83 0.003997
99 0.005984
113 0.006017
130 0.004988
137 0.004987
131 0.004988
116 0.005985
107 0.00602
110 0.005984
119 0.00603
135 0.003994
146 0.004975
155 0.004988
162 0.007024
165 0.007016
167 0.006981
167 0.004955
167 0.004987
169 0.004987
173 0.006012
177 0.004994
135 0.005984
83 0.006013
59 0.004023
63 0.006012
75 0.005
90 0.007013
103 0.007017
116 0.00497
126 0.004971
122 0.004994
110 0.006982
100 0.004997
104 0.007012
113 0.007013
127 0.004981
138 0.005985
147 0.006015
153 0.006981
157 0.006979
160 0.00599
161 0.006001
162 0.00598
163 0.007015
170 0.006004
173 0.007012
143 0.006983
72 0.005008
52 0.00603
51 0.005984
64 0.007978
77 0.007986
88 0.005985
94 0.005984
101 0.005983
102 0.007987
93 0.005997
89 0.007012
92 0.007013
103 0.005993
113 0.006017
123 0.005977
132 0.007979
141 0.007978
145 0.005973
147 0.005979
149 0.005987
151 0.007977
155 0.005994
159 0.006982
165 0.007008
171 0.005983
130 0.006954
91 0.006981
57 0.007978
126 0.007996
126 0.006983
126 0.006986
126 0.007017
126 0.006995
126 0.005983
126 0.005959
126 0.007029
126 0.006983
126 0.006976
126 0.006976
126 0.006972
126 0.007976
126 0.007023
126 0.006971
129 0.00698
132 0.006989
138 0.006991
144 0.006975
148 0.007014
153 0.007013
161 0.006986
169 0.006986
178 0.006989
159 0.007014
84 0.007021
28 0.006011
22 0.006978
28 0.00696
62 0.006994
77 0.006016
87 0.006059
97 0.006033
96 0.005977
86 0.005977
80 0.00698
83 0.007023
92 0.007025
109 0.006965
123 0.00698
135 0.006976
151 0.005976
156 0.006025
159 0.006016
161 0.006023
164 0.005983
167 0.005974
171 0.005982
176 0.006017
182 0.006017
194 0.00599
194 0.006954
131 0.005017
48 0.006019
42 0.006015
53 0.006027
72 0.006022
96 0.006015
110 0.006016
124 0.005981
129 0.006039
117 0.006036
99 0.005989
96 0.005018
103 0.005026
125 0.005031
139 0.004985
152 0.005018
162 0.00502
168 0.006024
172 0.006018
174 0.005987
174 0.006014
175 0.006015
178 0.005026
185 0.004993
194 0.005021
160 0.005006
88 0.005021
52 0.005017
47 0.004977
57 0.004983
82 0.005019
100 0.005018
114 0.005027
128 0.004993
133 0.004022
115 0.005028
102 0.005027
102 0.00502
113 0.005015
126 0.005009
139 0.005017
152 0.004957
164 0.004987
171 0.004994
174 0.00399
176 0.004036
177 0.004018
178 0.004021
180 0.004024
188 0.004015
196 0.00394
185 0.005018
109 0.005024
53 0.005019
34 0.004022
41 0.004029
57 0.004027
74 0.004031
86 0.003988
98 0.003989
104 0.004024
92 0.004023
84 0.004026
83 0.004019
90 0.00399
102 0.004019
119 0.002992
132 0.003029
141 0.002958
148 0.003988
152 0.004029
155 0.004021
157 0.00399
162 0.004032
165 0.003988
169 0.00399
176 0.004023
184 0.004021
182 0.003023
93 0.003989
43 0.002992
29 0.002999
33 0.003027
46 0.002995
67 0.004018
79 0.002993
89 0.00399
90 0.002993
85 0.003997
79 0.003031
78 0.002976
88 0.002991
99 0.002993
111 0.002991
122 0.00203
131 0.00299
138 0.00304
143 0.002992
146 0.002992
150 0.002956
154 0.00399
157 0.001986
161 0.002993
169 0.002989
176 0.001994
182 0.002992
152 0.002995
83 0.003011
41 0.002979
42 0.002988
60 0.002987
75 0.002992
86 0.003025
93 0.001978
102 0.002
99 0.001995
91 0.002028
87 0.002027
91 0.002004
100 0.001996
116 0.001994
131 0.002047
143 0.002024
149 0.001999
153 0.001026
156 0.001994
158 0.001995
161 0.001995
165 0.002032
169 0.001995
173 0.001996
179 0.001995
191 0.002003
185 0.002028
99 0.002032
61 0.001032
54 0.000999
63 0.000999
79 0.000997
95 0.001001
111 0.002003
123 0.000997
128 0.001
119 0.00203
106 0.002045
102 0.001996
109 0.001996
124 0.000999
136 0.000998
147 0.000994
155 0.000998
160 0.000998
164 0.006981
166 0.001059
166 0.000997
168 0.000998
172 0.0
182 0.001995
185 0.001995
124 0.001028
74 0.000999
56 0.000964
59 0.000998
72 0.000997
94 0.001041
106 0.000997
118 0.000997
128 0.000997
126 0.000997
105 0.000997
102 0.000998
110 0.000997
121 0.000997
133 0.0
144 0.0
154 0.0
164 0.0
168 0.0
170 0.0
173 0.0
174 0.001032
177 0.001003
179 0.0
188 0.0
195 0.0
161 0.000988
86 0.0
50 0.0
43 0.0
53 0.0
69 0.0
83 0.0
96 0.000989
106 0.0
105 0.0
98 0.002045
93 0.002042
98 0.0
108 0.0
120 0.0
132 0.002033
142 0.00202
151 0.002027
159 0.0
163 0.000962
167 0.0
171 0.000971
174 0.0
178 0.000955
183 0.001033
192 0.0
198 0.0
164 0.000998
86 0.002046
46 0.002046
39 0.0
49 0.0
74 0.0
85 0.0
94 0.0
103 0.002031
105 0.002027
96 0.0
91 0.0
94 0.001001
102 0.002029
114 0.001037
130 0.000966
142 0.0
157 0.0
162 0.0
166 0.0
170 0.001998
173 0.00202
177 0.0
181 0.0
187 0.0
195 0.002029
203 0.001969
156 0.0
79 0.0
41 0.0
47 0.0
63 0.0
81 0.001996
96 0.001028
112 0.000963
121 0.0
118 0.0
106 0.001996
98 0.001995
102 0.0
113 0.0
136 0.0
149 0.002
161 0.001994
170 0.00203
175 0.002028
179 0.000989
181 0.002
183 0.001986
186 0.003024
190 0.003025
196 0.0
203 0.0
213 0.003025
155 0.001996
78 0.001996
48 0.001029
47 0.001996
60 0.002029
86 0.001028
104 0.001003
120 0.001993
134 0.002993
137 0.002993
117 0.001985
101 0.002992
105 0.001014
117 0.00199
132 0.001996
146 0.002992
158 0.002993
172 0.001994
178 0.001989
181 0.001993
183 0.002992
184 0.002989
186 0.001987
188 0.002999
196 0.00099
203 0.001002
179 0.000995
94 0.002995
45 0.003984
33 0.001962
44 0.002002
62 0.002
80 0.003993
95 0.004025
112 0.002009
116 0.002992
99 0.003027
90 0.001971
91 0.001994
100 0.00399
113 0.004035
132 0.001989
144 0.001993
155 0.001962
163 0.003989
168 0.004032
171 0.002016
175 0.00404
178 0.002016
181 0.001993
185 0.002994
193 0.005024
199 0.005021
131 0.003013
58 0.002998
29 0.002988
28 0.004042
40 0.004027
63 0.001994
84 0.004039
99 0.001996
106 0.002015
99 0.002995
89 0.003003
83 0.005044
86 0.005021
100 0.002997
114 0.002951
128 0.003836
140 0.005019
150 0.005986
160 0.004031
163 0.005013
167 0.002959
170 0.003047
173 0.003989
177 0.005017
182 0.004983
192 0.002976
200 0.002979
180 0.003036
96 0.004978
44 0.005014
33 0.004993
47 0.005018
72 0.003992
88 0.003987
100 0.004007
112 0.005978
112 0.004986
97 0.003997
89 0.004004
90 0.003011
99 0.005022
113 0.005018
137 0.006016
149 0.005984
162 0.003986
167 0.003995
170 0.00399
173 0.005984
175 0.005979
178 0.003996
182 0.003993
188 0.003992
197 0.006027
203 0.006983
107 0.006025
54 0.006019
40 0.004015
51 0.004988
71 0.003999
91 0.006012
107 0.005983
127 0.003992
132 0.003991
119 0.003995
103 0.006984
96 0.006984
107 0.007016
120 0.007007
140 0.00499
153 0.003954
163 0.005013
171 0.004998
175 0.006015
179 0.005964
180 0.004985
182 0.00499
184 0.005956
189 0.007016
199 0.005027
151 0.006973
73 0.00698
33 0.004981
34 0.004984
49 0.005003
69 0.006976
86 0.007013
103 0.005985
116 0.005954
116 0.00595
99 0.00799
90 0.005021
94 0.007018
106 0.007006
124 0.004989
139 0.004974
151 0.004035
161 0.007013
168 0.007012
174 0.00499
176 0.005989
178 0.005959
182 0.007985
187 0.005991
197 0.007979
196 0.007976
128 0.004981
56 0.005985
29 0.005983
28 0.007015
42 0.006983
68 0.006996
84 0.005985
101 0.006972
111 0.007978
104 0.006985
93 0.007935
87 0.007979
92 0.00598
105 0.005984
119 0.006005
134 0.00798
151 0.007012
161 0.005978
167 0.005994
172 0.006979
175 0.006971
179 0.006961
183 0.007013
187 0.007013
196 0.006982
202 0.006991
206 0.006954
150 0.007981
67 0.007979
34 0.007979
33 0.007029
56 0.00602
76 0.006974
99 0.00698
118 0.006982
122 0.006985
110 0.007013
92 0.006968
90 0.006988
95 0.006977
112 0.006974
128 0.007019
149 0.006979
158 0.00695
168 0.006943
178 0.006981
180 0.00698
181 0.007021
183 0.006015
187 0.005995
191 0.00599
198 0.005983
207 0.006014
198 0.006026
90 0.00699
44 0.006977
35 0.006991
58 0.00698
73 0.006966
102 0.007013
120 0.006981
143 0.006009
139 0.005984
118 0.00599
101 0.006014
97 0.005991
110 0.006964
126 0.005984
144 0.005986
169 0.005951
180 0.005993
186 0.006008
188 0.005989
189 0.006028
192 0.005984
198 0.006015
186 0.006013
110 0.005998
40 0.00602
31 0.00599
40 0.005015
74 0.004993
94 0.00598
112 0.006014
130 0.005016
129 0.004981
110 0.005025
93 0.005021
92 0.005018
101 0.004981
114 0.004996
136 0.004976
151 0.005024
171 0.006029
176 0.005986
179 0.004987
185 0.00499
188 0.005021
127 0.005024
53 0.004986
22 0.004989
18 0.005027
30 0.005005
55 0.004987
72 0.004999
93 0.004991
102 0.004025
98 0.004022
88 0.004028
81 0.004027
87 0.00503
99 0.004989
114 0.00502
128 0.004992
141 0.00499
154 0.004955
161 0.004016
167 0.003992
170 0.004031
172 0.003991
177 0.004034
184 0.004024
141 0.004022
61 0.004034
21 0.004025
14 0.003979
23 0.003954
44 0.003997
58 0.003989
74 0.00399
83 0.003992
85 0.003988
79 0.003947
75 0.003953
80 0.004028
89 0.003991
103 0.003957
117 0.003963
129 0.003992
143 0.003989
150 0.00399
157 0.003988
160 0.003027
163 0.003024
169 0.002992
174 0.002992
180 0.002992
186 0.003025
196 0.002994
202 0.002993
158 0.002987
72 0.004026
27 0.00398
28 0.002992
49 0.00399
65 0.003964
77 0.002993
85 0.003023
94 0.002993
93 0.003025
87 0.002993
84 0.002992
88 0.002985
98 0.002989
115 0.002985
132 0.003988
146 0.003991
154 0.003009
159 0.003957
162 0.002983
165 0.001994
170 0.001995
174 0.001994
178 0.001992
183 0.002997
189 0.002996
200 0.002991
190 0.003032
88 0.002992
48 0.002992
41 0.001995
49 0.001992
65 0.001996
88 0.003007
99 0.001968
111 0.002005
118 0.001996
114 0.002024
100 0.001996
98 0.001964
110 0.001996
122 0.002009
135 0.002015
147 0.001983
157 0.001995
167 0.001985
171 0.001038
174 0.001025
176 0.00099
178 0.000982
182 0.001035
187 0.001001
194 0.001996
202 0.001995
209 0.00203
179 0.001995
98 0.001986
51 0.001995
50 0.001992
63 0.002002
82 0.002014
100 0.000997
120 0.001992
135 0.000997
126 0.000997
109 0.002035
100 0.000997
103 0.000997
113 0.000997
126 0.000998
143 0.000998
155 0.0
164 0.002001
170 0.00101
174 0.000957
177 0.000987
179 0.001006
179 0.000998
183 0.000998
189 0.000997
197 0.000996
194 0.000997
103 0.000997
55 0.000964
44 0.0
51 0.0
66 0.0
97 0.000998
111 0.0
128 0.0
127 0.0
112 0.0
98 0.000998
96 0.0
106 0.000996
119 0.000961
133 0.000966
145 0.0
155 0.000953
168 0.0
172 0.000997
175 0.0
177 0.0
179 0.0
181 0.0
184 0.0
191 0.0
199 0.0
192 0.0
115 0.0
53 0.0
32 0.0
48 0.0
66 0.000997
82 0.000998
98 0.000979
108 0.0
106 0.000985
94 0.001002
85 0.001998
85 0.0
94 0.0
106 0.000984
128 0.0
139 0.0
148 0.001994
153 0.001994
157 0.001995
161 0.0
163 0.0
165 0.000961
169 0.00203
173 0.001996
183 0.0
190 0.0
117 0.000991
52 0.0
29 0.0
30 0.002009
43 0.002045
66 0.0
82 0.0
94 0.0
104 0.002025
104 0.002038
89 0.0
81 0.000965
89 0.0
101 0.0
114 0.0
127 0.001986
139 0.002026
150 0.0
155 0.000961
159 0.000961
161 0.001995
164 0.000996
167 0.001001
171 0.0
182 0.000998
190 0.000997
188 0.0
120 0.002039
56 0.002037
32 0.0
38 0.000965
55 0.000964
74 0.002014
91 0.00203
110 0.0
119 0.000968
102 0.0
90 0.0
89 0.0
97 0.002049
111 0.002923
130 0.000961
143 0.0
154 0.0
163 0.003033
168 0.003025
170 0.0
171 0.001004
174 0.002003
177 0.001028
182 0.000992
190 0.001994
199 0.001993
192 0.002001
94 0.000967
49 0.00198
39 0.000938
48 0.002992
67 0.002991
93 0.000995
116 0.00302
135 0.001965
127 0.001995
114 0.002989
94 0.00102
93 0.003027
105 0.003008
120 0.001992
136 0.003019
150 0.00399
161 0.004021
170 0.001973
173 0.004006
174 0.002027
174 0.001989
177 0.002045
184 0.00399
192 0.004015
151 0.003053
76 0.001981
39 0.002951
34 0.004016
45 0.00399
71 0.001998
94 0.004034
114 0.002011
123 0.00199
115 0.001986
99 0.003989
89 0.003991
93 0.0
106 0.001993
121 0.001985
135 0.004025
148 0.003989
162 0.001994
170 0.004016
173 0.001992
175 0.003003
176 0.002966
178 0.004983
183 0.003993
191 0.002008
148 0.002962
67 0.002011
28 0.004035
21 0.004022
36 0.003016
61 0.004017
80 0.002989
91 0.002994
101 0.002992
99 0.004987
88 0.004985
80 0.004989
83 0.002984
94 0.002959
109 0.00204
124 0.005034
137 0.005015
154 0.004036
159 0.005
165 0.00303
168 0.00299
171 0.003001
174 0.004989
178 0.005019
186 0.003004
195 0.003013
196 0.003003
130 0.006018
54 0.005038
20 0.005029
29 0.006024
53 0.002984
70 0.002978
82 0.003987
92 0.006011
100 0.005039
92 0.003001
83 0.003983
81 0.002991
87 0.005018
99 0.005951
124 0.004984
138 0.005004
153 0.002997
160 0.003989
165 0.003989
168 0.005939
171 0.006017
176 0.003991
180 0.004001
185 0.003996
190 0.005988
197 0.006027
211 0.006024
193 0.006024
75 0.004985
34 0.003961
27 0.004985
36 0.005985
55 0.005985
81 0.00399
95 0.00399
107 0.003997
114 0.006983
107 0.006018
89 0.006017
90 0.00703
103 0.004022
118 0.004986
133 0.004985
148 0.007007
160 0.007023
171 0.003988
175 0.004024
179 0.004024
181 0.004035
185 0.006016
191 0.003966
196 0.00699
202 0.007013
216 0.004994
214 0.004986
137 0.004986
63 0.007016
38 0.007025
43 0.004992
62 0.005022
85 0.004983
111 0.007976
134 0.004976
140 0.007971
119 0.007981
101 0.004984
97 0.00503
105 0.004974
119 0.00698
135 0.007013
156 0.005036
169 0.004987
178 0.005
182 0.007016
186 0.004996
186 0.007981
188 0.007015
193 0.005997
201 0.005983
209 0.005958
172 0.007978
86 0.007989
43 0.005025
36 0.005997
47 0.005017
76 0.007987
103 0.004994
122 0.007013
141 0.007988
132 0.005981
110 0.005954
95 0.00598
98 0.007989
109 0.007973
125 0.005951
142 0.005939
157 0.005967
173 0.006951
181 0.005987
185 0.006975
186 0.006988
187 0.003989
188 0.006984
191 0.005956
198 0.007971
205 0.007992
137 0.006019
55 0.005985
22 0.005976
19 0.007979
51 0.006945
70 0.007014
84 0.00701
96 0.007014
103 0.006985
97 0.006978
81 0.006972
76 0.006973
82 0.006972
95 0.006979
115 0.006978
125 0.006972
150 0.006982
156 0.006969
161 0.006982
164 0.006996
167 0.006955
170 0.006924
173 0.006977
179 0.007016
187 0.006981
189 0.006981
127 0.006949
51 0.00698
17 0.006949
24 0.006948
47 0.006982
64 0.00702
80 0.006977
92 0.006973
95 0.006949
87 0.006948
78 0.006016
77 0.006032
85 0.005961
99 0.005983
123 0.005979
137 0.005984
147 0.005984
154 0.006015
160 0.005975
163 0.006025
166 0.005997
170 0.005991
174 0.006016
180 0.006023
188 0.005987
198 0.005993
164 0.005982
76 0.006016
31 0.00599
22 0.00601
38 0.005977
57 0.005978
75 0.006053
89 0.006018
102 0.00503
107 0.005042
96 0.005039
85 0.004996
86 0.005014
97 0.004948
112 0.005034
127 0.005019
142 0.00496
156 0.004995
163 0.005028
168 0.005013
170 0.005036
172 0.004987
177 0.00502
181 0.004991
190 0.00504
198 0.005023
209 0.004981
201 0.004982
119 0.004986
42 0.004946
32 0.004949
42 0.004991
61 0.003957
83 0.004025
106 0.004053
122 0.003704
123 0.00399
105 0.004015
92 0.004987
92 0.004987
102 0.004949
122 0.004992
139 0.004031
154 0.004015
166 0.004013
174 0.00399
179 0.003961
181 0.003987
183 0.00401
185 0.004036
188 0.004021
195 0.003989
205 0.00399
202 0.003963
124 0.003941
55 0.002978
33 0.003997
36 0.003953
59 0.00399
81 0.003954
110 0.004021
126 0.003998
129 0.004022
113 0.00399
96 0.002991
92 0.003995
100 0.002938
115 0.003963
132 0.003011
148 0.002992
165 0.002989
173 0.002955
180 0.003025
182 0.003027
183 0.004032
184 0.003032
187 0.002997
192 0.002994
203 0.001962
196 0.002991
116 0.002993
44 0.002992
19 0.002963
24 0.002987
49 0.002992
75 0.002994
88 0.003014
101 0.002992
107 0.003025
99 0.003002
83 0.002895
81 0.002033
89 0.001993
102 0.001995
113 0.010965
140 0.002992
157 0.001996
168 0.002952
173 0.002031
176 0.002037
179 0.002038
182 0.001994
186 0.003001
191 0.001995
198 0.002027
208 0.002026
193 0.002033
71 0.002036
19 0.001892
20 0.002001
37 0.001995
58 0.001999
77 0.003019
90 0.001996
107 0.002001
106 0.001992
94 0.002994
84 0.002993
84 0.000998
96 0.001995
117 0.000998
139 0.000998
154 0.001011
165 0.000999
173 0.001996
178 0.002033
184 0.001991
186 0.001958
189 0.001995
194 0.001997
199 0.002004
207 0.000965
219 0.002033
174 0.002029
74 0.001997
28 0.000998
20 0.002032
32 0.002004
53 0.00096
83 0.002038
101 0.000973
118 0.000957
125 0.001031
114 0.001989
87 0.000997
87 0.0
101 0.000957
118 0.001014
136 0.001029
154 0.0
167 0.000967
179 0.000968
184 0.000997
186 0.000968
188 0.000963
189 0.000998
194 0.00086
199 0.000998
209 0.0
218 0.001026
184 0.000996
87 0.0
36 0.0
28 0.0
44 0.0
67 0.0
91 0.0
113 0.0
145 0.0
138 0.0
106 0.0
93 0.001
94 0.000966
105 0.000998
122 0.000999
147 0.0
163 0.0
179 0.0
184 0.0
189 0.0
192 0.0
192 0.0
195 0.000997
200 0.002004
198 0.001
120 0.0
43 0.0
16 0.001997
17 0.002011
39 0.000997
61 0.000951
82 0.0
110 0.0
117 0.0
105 0.00096
87 0.002032
78 0.001998
86 0.000989
101 0.000998
117 0.000965
134 0.002025
150 0.001993
162 0.001978
172 0.0
177 0.0
180 0.0
181 0.0
183 0.001999
188 0.003034
198 0.0
180 0.0
89 0.001965
26 0.003039
8 0.002026
16 0.00199
35 0.000956
66 0.0
78 0.0
90 0.001007
93 0.001984
84 0.002041
71 0.000962
72 0.000997
81 0.001001
95 0.002029
111 0.002027
131 0.001002
143 0.0
156 0.000996
160 0.0
163 0.000961
166 0.002051
169 0.002029
173 0.000965
180 0.0
189 0.0
183 0.002994
106 0.002995
25 0.0
11 0.0
28 0.0
47 0.0
66 0.0
80 0.002018
92 0.003033
95 0.0
85 0.0
75 0.001951
74 0.003028
82 0.002993
101 0.0
116 0.0
139 0.0
150 0.001018
157 0.000955
162 0.001015
164 0.002982
166 0.002994
171 0.0
174 0.002984
179 0.000998
187 0.002955
198 0.002999
172 0.000999
64 0.002985
26 0.000974
29 0.001964
45 0.0
66 0.004004
85 0.002993
105 0.001043
118 0.001063
113 0.003996
97 0.004025
83 0.003024
84 0.001991
100 0.003019
121 0.002006
136 0.002987
148 0.001997
158 0.003991
163 0.004041
165 0.001068
167 0.001034
169 0.001995
173 0.004032
180 0.004026
179 0.001037
88 0.004043
32 0.002034
26 0.002982
36 0.002048
54 0.004017
73 0.005031
93 0.002012
108 0.002
112 0.004001
99 0.003972
85 0.004024
83 0.001989
95 0.004023
115 0.001995
129 0.002963
142 0.002968
152 0.00399
158 0.004987
163 0.003989
165 0.003986
167 0.002978
170 0.005028
174 0.004982
183 0.001968
187 0.004989
96 0.003953
39 0.003024
21 0.003039
24 0.00502
38 0.00399
55 0.004988
74 0.002956
82 0.002948
91 0.002986
90 0.004997
82 0.005024
77 0.004988
83 0.005028
100 0.004042
114 0.003041
127 0.004033
138 0.006019
146 0.004953
153 0.004
155 0.003008
159 0.003969
162 0.005984
164 0.00502
174 0.005024
182 0.005026
176 0.002987
101 0.003977
43 0.002981
23 0.005982
25 0.005965
43 0.003995
60 0.003979
72 0.00398
82 0.005984
92 0.006017
86 0.006017
78 0.006024
80 0.003007
88 0.00299
100 0.003991
113 0.006022
127 0.006019
141 0.003959
148 0.003991
153 0.004013
156 0.005985
159 0.005985
165 0.006015
170 0.006009
178 0.004987
187 0.004002
196 0.004944
179 0.006982
99 0.006987
36 0.004022
28 0.00498
37 0.004027
54 0.00602
73 0.006022
93 0.006025
106 0.00602
102 0.004976
91 0.004966
85 0.004999
88 0.006983
98 0.007007
117 0.004985
131 0.004988
145 0.005006
155 0.00599
162 0.006982
168 0.004981
171 0.007014
173 0.007015
179 0.004018
183 0.003995
190 0.00495
200 0.007935
211 0.007018
181 0.005022
96 0.004976
50 0.004998
40 0.007019
50 0.006974
82 0.006978
101 0.007023
123 0.004983
134 0.00598
126 0.005981
107 0.008005
95 0.007932
98 0.00599
110 0.005952
125 0.005982
142 0.007932
159 0.007978
173 0.007975
177 0.007978
178 0.00499
178 0.006981
178 0.0
184 0.00798
193 0.007979
194 0.005948
136 0.005983
70 0.005945
41 0.007978
46 0.007976
75 0.007994
93 0.007972
107 0.006951
121 0.005972
124 0.006979
111 0.007005
99 0.006944
96 0.006971
103 0.005952
120 0.00602
135 0.006976
147 0.00702
160 0.007979
168 0.007944
171 0.005983
173 0.005987
174 0.006973
176 0.006981
182 0.00709
188 0.006947
172 0.006949
101 0.006982
54 0.006984
39 0.007023
53 0.006972
74 0.006981
87 0.006981
95 0.00697
107 0.006977
107 0.005993
99 0.00595
92 0.005977
95 0.006991
100 0.006946
111 0.006939
127 0.00698
142 0.006958
152 0.006934
158 0.007017
162 0.006972
165 0.006018
168 0.006975
170 0.005995
174 0.005985
181 0.005985
188 0.00596
187 0.005944
126 0.006026
44 0.005998
37 0.006019
44 0.005984
64 0.005985
76 0.005968
85 0.005968
93 0.006007
99 0.005983
96 0.005997
89 0.006015
87 0.005983
92 0.005982
109 0.005995
120 0.005973
131 0.006013
142 0.004977
149 0.005029
153 0.004992
156 0.004924
160 0.005
164 0.005004
167 0.004991
171 0.005985
179 0.006025
187 0.005021
136 0.005026
69 0.005988
40 0.005987
42 0.004977
54 0.005026
70 0.004972
84 0.00495
98 0.004975
108 0.005019
109 0.004982
101 0.005231
93 0.004968
97 0.004979
106 0.004986
119 0.005028
135 0.004023
146 0.004989
154 0.004957
161 0.003989
166 0.004988
171 0.005015
174 0.004994
176 0.004989
182 0.004014
189 0.00496
198 0.005021
193 0.003998
98 0.003989
54 0.004028
45 0.003991
51 0.00402
67 0.004021
92 0.003991
107 0.004007
120 0.004028
126 0.00399
112 0.004005
101 0.004955
99 0.002954
111 0.003997
124 0.003998
138 0.004027
150 0.003989
160 0.00403
172 0.003999
176 0.003024
180 0.002994
183 0.00396
185 0.003958
188 0.003997
192 0.003999
204 0.003975
211 0.003986
166 0.003986
87 0.003038
53 0.002992
52 0.003034
66 0.00303
87 0.002994
119 0.002966
137 0.002996
148 0.003022
137 0.003951
110 0.00296
102 0.002958
106 0.002988
118 0.002997
133 0.003983
148 0.003019
165 0.002992
176 0.003998
186 0.002997
188 0.002992
188 0.003027
189 0.002996
191 0.002966
199 0.002993
198 0.003958
132 0.002992
65 0.003019
41 0.002025
46 0.003044
62 0.002962
95 0.003028
111 0.003036
127 0.003035
134 0.002993
122 0.002992
99 0.001993
96 0.002036
103 0.002017
115 0.002958
129 0.00198
149 0.001992
161 0.002027
175 0.001999
180 0.001997
183 0.001992
184 0.002039
184 0.001043
190 0.002959
197 0.001991
182 0.002009
99 0.002028
43 0.002028
25 0.002083
33 0.002029
63 0.001999
80 0.001991
92 0.002042
104 0.001973
108 0.002972
94 0.002004
85 0.003035
84 0.002993
93 0.000986
106 0.001931
125 0.002038
139 0.00204
158 0.001961
165 0.002037
171 0.001992
173 0.002049
176 0.001973
180 0.001995
183 0.002001
188 0.001007
198 0.00095
199 0.000999
98 0.001
39 0.000999
21 0.000966
34 0.001004
54 0.00199
72 0.000999
85 0.001028
97 0.0
104 0.000993
96 0.000999
86 0.000975
84 0.000998
89 0.000997
106 0.000998
126 0.0
144 0.000973
155 0.0
163 0.000963
169 0.0
173 0.000997
176 0.000986
179 0.000998
183 0.000997
188 0.000989
196 0.0
207 0.0
132 0.0
45 0.0
30 0.0
36 0.0
53 0.0
73 0.001053
96 0.001009
111 0.001011
123 0.0
118 0.000998
102 0.0
91 0.0
99 0.0
117 0.0
133 0.0
148 0.0
160 0.0
170 0.0
177 0.0
179 0.002035
182 0.000997
183 0.000997
186 0.0
191 0.003049
204 0.000996
202 0.002994
124 0.003038
50 0.001011
40 0.000965
44 0.0
68 0.002043
90 0.001991
109 0.0
133 0.000967
143 0.0
130 0.002028
99 0.000961
98 0.003038
107 0.001993
122 0.002043
143 0.000995
158 0.000955
170 0.000995
179 0.002993
184 0.00302
186 0.0
186 0.0
187 0.0
198 0.0
198 0.0
138 0.002021
65 0.001987
35 0.0
40 0.000969
57 0.0
79 0.001995
98 0.00203
120 0.001007
134 0.0
127 0.001011
98 0.000995
94 0.000965
100 0.002994
113 0.003025
134 0.002009
144 0.001995
157 0.0
170 0.00198
177 0.002029
180 0.0
181 0.0
182 0.0
191 0.001006
186 0.0
113 0.003999
46 0.002048
18 0.000953
23 0.000944
40 0.002951
59 0.003026
75 0.001994
92 0.0
102 0.000957
96 0.000978
77 0.001031
76 0.0
83 0.003018
96 0.002992
115 0.000995
129 0.001005
140 0.0
148 0.003024
153 0.003004
158 0.0
160 0.0
162 0.000955
167 0.0
175 0.0
183 0.002989
162 0.003046
57 0.0
20 0.0
13 0.0
23 0.0
40 0.002993
57 0.003029
72 0.002008
83 0.002046
83 0.001004
74 0.000969
70 0.001043
72 0.003991
81 0.004071
100 0.001995
113 0.0
125 0.003026
135 0.00402
142 0.00399
147 0.001006
150 0.002029
155 0.002059
159 0.00201
166 0.001983
175 0.005033
180 0.004006
106 0.001986
47 0.002002
26 0.002012
27 0.002992
42 0.003026
66 0.00199
80 0.00197
101 0.003005
103 0.003006
93 0.002994
82 0.004034
81 0.004021
91 0.002993
104 0.001988
118 0.002023
131 0.00399
141 0.004989
152 0.001975
157 0.002
160 0.001973
162 0.001992
164 0.002993
169 0.00399
177 0.005014
187 0.003009
162 0.003002
89 0.002998
47 0.002981
37 0.004051
51 0.003026
70 0.002968
98 0.003
114 0.003001
125 0.001992
117 0.005021
101 0.005029
90 0.002019
95 0.001996
106 0.002993
121 0.003991
135 0.004027
151 0.003005
160 0.00301
167 0.00491
170 0.003029
171 0.003989
172 0.002004
174 0.005033
179 0.005041
192 0.003982
182 0.002005
108 0.002036
52 0.005018
34 0.005984
41 0.002992
65 0.005996
87 0.00399
100 0.002988
112 0.003959
112 0.005028
100 0.005022
87 0.004022
88 0.002996
98 0.003985
112 0.006022
126 0.005986
144 0.002969
156 0.006053
165 0.003993
168 0.00399
170 0.002992
172 0.005984
175 0.006028
180 0.004001
189 0.002994
196 0.003024
151 0.005948
73 0.006023
30 0.003998
32 0.006022
54 0.003993
72 0.004005
84 0.004954
95 0.007015
105 0.007012
98 0.00394
89 0.003023
86 0.004029
91 0.006982
102 0.007015
121 0.003999
136 0.019914
145 0.0
155 0.0
169 0.005981
173 0.006027
176 0.00602
180 0.004988
184 0.003988
191 0.004028
201 0.00599
202 0.006998
104 0.003952
39 0.00702
34 0.004023
48 0.003943
68 0.005001
87 0.003948
101 0.007035
114 0.007038
119 0.004942
106 0.003982
95 0.003974
95 0.007015
104 0.007019
133 0.007961
148 0.007982
162 0.004996
173 0.004993
179 0.004984
183 0.006983
186 0.007025
189 0.005007
190 0.005952
194 0.00499
204 0.007977
211 0.006979
171 0.007979
107 0.007981
43 0.005985
38 0.005985
50 0.004984
71 0.007981
100 0.007977
118 0.004997
135 0.004985
139 0.003989
122 0.00698
102 0.007977
101 0.007978
114 0.007978
131 0.005984
148 0.00594
163 0.005979
178 0.007931
184 0.00797
187 0.005017
187 0.005031
188 0.005981
193 0.007937
202 0.007976
166 0.006978
82 0.007017
39 0.005984
31 0.005983
41 0.005984
68 0.006981
88 0.006982
103 0.005984
120 0.006013
127 0.006426
109 0.007009
96 0.007034
98 0.006977
110 0.007026
132 0.006966
143 0.005984
158 0.005984
173 0.00598
181 0.00597
186 0.006005
190 0.006028
192 0.006985
194 0.006977
198 0.006974
208 0.006976
209 0.006976
129 0.007091
52 0.006948
21 0.005985
28 0.005969
45 0.006014
65 0.005969
86 0.005949
98 0.006987
108 0.006964
105 0.006981
86 0.006016
85 0.005981
93 0.005983
112 0.006015
129 0.005984
145 0.005984
158 0.006015
167 0.006015
175 0.00598
179 0.005992
181 0.005969
183 0.005988
189 0.006008
196 0.004965
207 0.005017
193 0.00598
101 0.006046
40 0.005986
21 0.006017
25 0.006015
51 0.005979
71 0.005962
87 0.005975
101 0.006023
112 0.004987
100 0.004961
88 0.004989
88 0.005981
98 0.005002
113 0.004983
129 0.004987
145 0.005019
163 0.005988
172 0.004987
177 0.00498
181 0.006031
185 0.004978
188 0.005986
192 0.004957
200 0.005948
209 0.003957
218 0.005035
193 0.006022
97 0.005017
35 0.004987
31 0.004988
45 0.00501
67 0.004983
101 0.004952
117 0.004985
131 0.004989
126 0.005025
102 0.004961
92 0.004993
96 0.00499
108 0.004988
124 0.003997
147 0.00402
162 0.004029
172 0.003993
182 0.003954
185 0.003996
187 0.005005
188 0.004989
190 0.00495
195 0.003979
205 0.004984
214 0.005083
185 0.004024
74 0.004988
41 0.003984
40 0.004021
54 0.011968
76 0.000998
111 0.004001
130 0.004021
142 0.00394
126 0.003943
103 0.00399
94 0.003991
98 0.00396
116 0.00399
133 0.003991
150 0.003032
171 0.003966
179 0.003956
183 0.003314
183 0.002985
183 0.004
188 0.002996
195 0.002959
180 0.002993
103 0.002992
38 0.003992
29 0.003989
39 0.004004
73 0.003983
91 0.003994
106 0.00299
121 0.003034
116 0.002987
98 0.003029
87 0.003023
89 0.002996
100 0.002992
121 0.002887
136 0.001967
150 0.003029
167 0.002992
173 0.002992
175 0.001994
176 0.001994
178 0.002026
186 0.003991
190 0.001994
148 0.001996
68 0.001939
28 0.002993
22 0.002992
35 0.002993
64 0.002995
76 0.001988
87 0.002997
98 0.003052
95 0.002989
81 0.002994
77 0.002992
83 0.003022
94 0.002993
108 0.002996
128 0.001991
141 0.001995
155 0.001992
160 0.001995
164 0.002963
167 0.001993
169 0.001986
174 0.002044
182 0.00203
192 0.002005
185 0.002042
105 0.001995
30 0.001995
18 0.002012
35 0.003017
54 0.001954
69 0.003014
79 0.002025
91 0.001971
94 0.00103
85 0.001003
78 0.001032
79 0.000997
88 0.000999
107 0.000997
121 0.002025
143 0.001996
153 0.001987
160 0.001965
164 0.001996
167 0.002042
172 0.001996
176 0.002035
181 0.002029
187 0.001007
195 0.001
208 0.001
197 0.001044
59 0.002028
28 0.000962
25 0.001013
38 0.0
58 0.0
78 0.002033
96 0.002033
109 0.001004
111 0.002037
100 0.000998
88 0.000998
88 0.000998
104 0.000979
125 0.000991
141 0.000973
155 0.000998
167 0.000997
174 0.000997
179 0.000968
181 0.0
184 0.0
186 0.0
190 0.0
197 0.0
209 0.0
223 0.0
185 0.000945
91 0.0
43 0.0
34 0.0
51 0.0
73 0.0
95 0.0
113 0.0
131 0.0
134 0.0
108 0.000974
94 0.0
98 0.001002
111 0.0
127 0.0
143 0.0
163 0.0
174 0.0
182 0.0
186 0.00097
187 0.0
189 0.002031
192 0.001008
196 0.000999
205 0.003016
207 0.000994
134 0.0
54 0.00097
25 0.002028
24 0.0
32 0.000989
38 0.0
86 0.0
101 0.002026
117 0.000995
105 0.001994
90 0.001993
84 0.000991
92 0.000959
107 0.0
123 0.0
139 0.002029
152 0.002042
166 0.000962
172 0.0
176 0.0
180 0.0
182 0.000968
185 0.003026
188 0.003039
199 0.0
208 0.0
181 0.0
87 0.002033
30 0.002034
16 0.00101
27 0.0
47 0.0
78 0.0
91 0.0
103 0.003032
101 0.001985
84 0.000963
76 0.000991
79 0.0
91 0.002026
106 0.00304
127 0.002
142 0.0
155 0.0
168 0.0
171 0.0
174 0.003989
176 0.001987
179 0.001019
183 0.0
191 0.0
202 0.002999
200 0.003024
95 0.0
39 0.0
23 0.0
42 0.0
64 0.001019
84 0.003042
101 0.002025
121 0.0
118 0.0
101 0.0
86 0.00203
85 0.003009
99 0.0
115 0.0
131 0.0
156 0.001002
166 0.000966
173 0.002975
176 0.002997
178 0.002999
179 0.0
181 0.0
185 0.002983
193 0.003031
207 0.0
181 0.0
94 0.00096
33 0.000999
37 0.000997
55 0.001034
77 0.003992
98 0.003989
124 0.003004
138 0.000967
130 0.001995
108 0.003028
94 0.003016
95 0.0
106 0.002995
134 0.0
150 0.003992
164 0.00299
173 0.00302
179 0.00298
182 0.001994
182 0.001984
182 0.001994
185 0.003992
192 0.004022
193 0.001991
125 0.00299
30 0.001994
22 0.002979
32 0.002006
50 0.004043
71 0.004042
91 0.002994
106 0.002989
112 0.002989
101 0.004023
87 0.003999
81 0.001994
89 0.002991
114 0.002035
128 0.003993
143 0.001996
154 0.004987
161 0.004023
166 0.001995
169 0.002992
171 0.002993
173 0.004032
175 0.004011
183 0.001995
193 0.001997
141 0.00204
59 0.002029
22 0.00199
16 0.005011
27 0.005018
51 0.001999
67 0.002007
78 0.002002
89 0.00502
94 0.005027
83 0.001996
75 0.001994
79 0.001988
91 0.002992
106 0.002998
121 0.004988
134 0.00502
144 0.004988
154 0.002996
158 0.002996
160 0.002042
163 0.004989
166 0.005019
171 0.002008
181 0.006021
192 0.002993
156 0.002994
97 0.006039
28 0.000949
19 0.005983
32 0.002993
51 0.001994
69 0.002996
81 0.005016
94 0.005015
99 0.003956
86 0.006017
79 0.003972
84 0.002993
95 0.003023
109 0.006017
125 0.00598
142 0.003003
153 0.002991
160 0.002998
165 0.005976
167 0.005993
170 0.002986
175 0.007035
182 0.003943
191 0.003974
201 0.003995
195 0.005983
118 0.006021
42 0.003994
31 0.002955
40 0.002951
59 0.005969
81 0.007022
104 0.002979
125 0.006015
120 0.003989
103 0.003995
92 0.003992
93 0.006972
104 0.006982
125 0.00399
142 0.002978
157 0.003996
169 0.006982
177 0.007015
183 0.003023
184 0.007012
185 0.004985
188 0.004987
195 0.004985
206 0.006009
212 0.007038
162 0.007017
64 0.003996
40 0.004988
42 0.00396
60 0.007018
83 0.007013
118 0.007979
138 0.007983
142 0.004991
121 0.003998
101 0.004989
95 0.007981
103 0.007969
123 0.004989
141 0.004961
158 0.004985
175 0.007974
181 0.00798
187 0.006981
187 0.007982
190 0.00399
195 0.005021
201 0.00594
169 0.007026
86 0.007978
32 0.004985
30 0.005999
43 0.00599
65 0.007973
91 0.007976
120 0.007972
128 0.007978
115 0.005971
97 0.004996
89 0.004985
97 0.007015
111 0.006956
128 0.005989
145 0.00595
162 0.005985
171 0.006985
177 0.006979
180 0.006993
182 0.007975
188 0.005986
194 0.005985
143 0.006976
85 0.007979
24 0.006975
19 0.005979
29 0.005941
48 0.005971
72 0.006972
84 0.006981
102 0.006987
98 0.00697
87 0.007012
80 0.005984
84 0.005984
100 0.005991
115 0.00598
132 0.007026
146 0.005981
157 0.006019
164 0.00602
170 0.006982
173 0.005984
177 0.006951
181 0.007006
186 0.005967
193 0.005977
204 0.005982
205 0.006018
131 0.006017
34 0.005984
16 0.005969
19 0.005986
34 0.00599
64 0.005984
74 0.005016
85 0.004997
94 0.005975
88 0.005986
81 0.005985
81 0.006018
87 0.006007
104 0.005984
119 0.005979
134 0.005985
147 0.005987
162 0.00598
166 0.006016
170 0.006025
175 0.005988
179 0.004981
184 0.005015
189 0.005015
195 0.005019
206 0.005985
215 0.006027
192 0.005991
99 0.006014
31 0.005981
32 0.004991
46 0.006023
71 0.004987
87 0.004991
99 0.004986
112 0.005019
115 0.00499
103 0.004987
95 0.004975
97 0.004986
106 0.004995
130 0.003991
145 0.006019
159 0.00502
163 0.009012
178 0.003009
184 0.004985
187 0.004985
190 0.005018
194 0.005019
198 0.004979
204 0.004988
212 0.004987
226 0.003993
179 0.004989
88 0.004022
48 0.003989
45 0.003987
61 0.004986
83 0.004985
105 0.004992
122 0.005024
145 0.004984
145 0.004981
126 0.004999
104 0.00396
108 0.004031
121 0.003992
137 0.003996
159 0.004027
174 0.003994
184 0.003958
193 0.004045
197 0.003993
200 0.003945
201 0.004029
201 0.002992
208 0.003976
216 0.003989
221 0.00402
167 0.003006
62 0.002996
40 0.003026
44 0.002994
60 0.002988
83 0.002992
112 0.002996
132 0.002994
149 0.003003
130 0.003984
107 0.004023
98 0.003999
103 0.004
120 0.004003
138 0.004022
153 0.00399
167 0.002994
179 0.002992
188 0.00302
190 0.003007
191 0.002992
191 0.002962
197 0.002984
202 0.002992
164 0.003027
56 0.003026
25 0.003962
23 0.004035
35 0.002994
56 0.001995
76 0.00203
97 0.003029
112 0.002993
105 0.003001
89 0.002993
81 0.003029
84 0.002992
95 0.004037
116 0.00099
131 0.00303
146 0.002025
157 0.001998
165 0.002005
172 0.002026
174 0.002033
177 0.001993
179 0.002036
185 0.002004
194 0.002027
183 0.002993
71 0.003028
24 0.001998
13 0.001999
20 0.002031
37 0.002036
63 0.002028
77 0.002003
97 0.001978
96 0.002027
85 0.002026
76 0.001996
76 0.001963
88 0.001965
102 0.000979
118 0.000999
133 0.000994
146 0.001998
158 0.002031
163 0.002038
168 0.002026
171 0.001995
174 0.001986
178 0.002024
184 0.000991
196 0.000997
204 0.000998
159 0.000998
67 0.001048
25 0.001995
18 0.000998
31 0.000996
66 0.000974
83 0.000988
98 0.002004
110 0.000987
105 0.000996
87 0.00196
81 0.001014
85 0.000998
97 0.002033
112 0.000997
129 0.000983
149 0.002029
165 0.001
174 0.000998
178 0.001007
181 0.0
182 0.0
186 0.0
191 0.0
197 0.0
206 0.0
217 0.0
203 0.0
81 0.001002
29 0.000998
33 0.0
52 0.0
76 0.0
100 0.0
120 0.0
141 0.0
132 0.0
108 0.0
93 0.0
93 0.0
109 0.0
134 0.0
159 0.0
174 0.0
185 0.0
193 0.0
196 0.001045
197 0.0
199 0.003039
201 0.0
204 0.000998
211 0.000998
225 0.002992
160 0.0
69 0.003036
34 0.000998
32 0.0
56 0.0
82 0.0
107 0.00299
132 0.002974
159 0.0
150 0.0
119 0.000996
98 0.001994
100 0.0
114 0.001998
133 0.002029
158 0.000972
174 0.0
185 0.0
193 0.0
195 0.003038
195 0.003001
197 0.000962
203 0.0
204 0.0
82 0.0
30 0.0
18 0.002024
27 0.00299
56 0.0
81 0.0
101 0.0
121 0.002001
133 0.001962
113 0.0
92 0.0
85 0.000969
100 0.0
118 0.0
136 0.002006
153 0.002028
171 0.001003
179 0.0
183 0.0
186 0.003022
187 0.003028
191 0.0
197 0.0
185 0.000963
44 0.0
10 0.000997
5 0.002988
17 0.002987
45 0.0
64 0.000954
78 0.001003
92 0.003023
98 0.002985
83 0.000999
74 0.001004
74 0.0
92 0.0
108 0.0
125 0.002988
141 0.002002
156 0.000965
164 0.0
169 0.0
172 0.002992
174 0.002012
179 0.0
186 0.0
194 0.0
123 0.000945
42 0.0
9 0.002992
7 0.003024
25 0.0
46 0.0
63 0.0
76 0.003018
90 0.003023
95 0.002994
84 0.0
76 0.0
84 0.0
96 0.002043
113 0.00203
129 0.002998
144 0.002994
159 0.002002
167 0.001996
172 0.002993
175 0.003948
178 0.003991
183 0.002996
190 0.002992
205 0.003003
185 0.003002
94 0.003025
35 0.004029
19 0.003023
30 0.002994
51 0.001001
73 0.000996
91 0.003984
107 0.004023
119 0.002988
108 0.003005
87 0.002989
90 0.002992
101 0.003007
117 0.00399
135 0.003986
156 0.002952
168 0.002994
176 0.003003
183 0.004979
186 0.004986
187 0.002999
188 0.003
197 0.001974
208 0.002019
212 0.002005
148 0.003987
65 0.004027
29 0.001997
33 0.001999
52 0.002992
77 0.004987
100 0.004981
126 0.002981
141 0.002996
117 0.003
98 0.002003
93 0.003005
101 0.004033
116 0.003977
140 0.002012
156 0.003128
171 0.001974
182 0.004987
188 0.004949
192 0.005018
194 0.001992
194 0.005026
199 0.003011
208 0.002993
202 0.002998
120 0.006021
46 0.006027
20 0.001997
28 0.002982
47 0.002996
70 0.005028
84 0.019967
102 0.0
124 0.005984
101 0.00298
88 0.003
86 0.002993
96 0.005984
110 0.005985
135 0.002988
152 0.002991
165 0.002991
175 0.005019
182 0.004973
187 0.00499
190 0.004988
192 0.003985
196 0.003991
202 0.003024
211 0.005984
212 0.005984
100 0.002963
32 0.003056
12 0.003024
17 0.006004
35 0.006029
64 0.003979
89 0.006016
110 0.002989
113 0.002982
98 0.002986
83 0.006981
80 0.005979
91 0.003988
106 0.003992
125 0.003993
143 0.006981
158 0.006977
173 0.004995
180 0.006974
185 0.003992
188 0.002975
