70 0.003987
71 0.003309
71 0.00395
68 0.004006
63 0.00396
60 0.003959
60 0.002992
61 0.002994
63 0.002993
64 0.002994
65 0.002994
65 0.003004
66 0.003005
66 0.003959
68 0.00399
69 0.003989
70 0.003989
72 0.003989
70 0.003991
63 0.003059
60 0.002982
61 0.00299
62 0.002993
62 0.002992
63 0.003957
65 0.002996
66 0.003003
66 0.002993
67 0.002993
68 0.002991
70 0.002993
71 0.002992
73 0.00399
71 0.00299
65 0.003001
63 0.002992
61 0.002949
62 0.003023
62 0.003949
63 0.002937
64 0.002943
65 0.002952
66 0.002935
67 0.003
68 0.002955
69 0.002992
71 0.001994
73 0.002995
74 0.003984
73 0.003009
68 0.002992
0 0.002953
0 0.002993
0 0.002983
0 0.003017
0 0.002992
0 0.002984
44 0.002989
44 0.002046
46 0.003028
47 0.002018
50 0.002996
52 0.001995
54 0.001995
57 0.002992
59 0.002992
59 0.002992
51 0.002988
46 0.002991
44 0.001994
44 0.001996
45 0.001994
46 0.001996
48 0.001964
50 0.001988
51 0.001997
52 0.001996
53 0.002881
57 0.001974
59 0.002026
62 0.002994
65 0.001988
67 0.002033
67 0.00199
61 0.001995
54 0.002992
52 0.001995
54 0.002004
55 0.001994
56 0.002994
59 0.001996
61 0.003031
62 0.002954
62 0.00196
64 0.001995
66 0.002959
68 0.002047
70 0.00203
73 0.001994
71 0.001995
65 0.001995
59 0.002001
58 0.002029
59 0.002019
61 0.001996
63 0.001989
64 0.001965
66 0.001028
67 0.001964
68 0.001995
69 0.001995
72 0.002018
73 0.001995
75 0.001963
76 0.001995
70 0.002023
64 0.001033
60 0.001049
62 0.000999
62 0.001023
0 0.001016
0 0.001964
0 0.00199
18 0.002009
21 0.00195
23 0.001995
30 0.001996
33 0.001994
37 0.001971
43 0.001956
38 0.000978
24 0.000949
12 0.000938
7 0.000938
7 0.000998
9 0.000998
10 0.000997
14 0.000993
20 0.000997
21 0.001958
22 0.002074
26 0.000997
29 0.000995
32 0.000998
35 0.000997
40 0.001006
43 0.001044
33 0.000998
21 0.000998
13 0.001023
13 0.001058
13 0.000997
15 0.000997
20 0.000986
22 0.000991
25 0.001017
26 0.000997
29 0.000998
32 0.000997
34 0.00103
36 0.00096
42 0.001014
46 0.001057
50 0.000996
45 0.001003
29 0.000997
22 0.000998
22 0.000997
22 0.0
23 0.0
26 0.000998
29 0.000998
31 0.001009
35 0.001009
36 0.000997
39 0.001
42 0.000999
47 0.000998
50 0.000998
55 0.001001
58 0.0
60 0.0
48 0.0
37 0.0
32 0.0
0 0.0
0 0.0
0 0.0
0 0.0
38 0.0
40 0.0
40 0.0
42 0.000997
46 0.000998
52 0.000998
54 0.000988
58 0.0
62 0.0
51 0.0
39 0.0
34 0.0
34 0.0
36 0.0
39 0.0
41 0.0
43 0.0
45 0.0
46 0.0
48 0.0
54 0.0
56 0.0
60 0.0
63 0.0
65 0.000998
52 0.000998
39 0.0
33 0.0
33 0.0
34 0.0
37 0.0
40 0.0
44 0.0
44 0.0
44 0.0
46 0.0
50 0.0
53 0.0
56 0.0
60 0.0
58 0.0
45 0.000998
35 0.000996
28 0.0
28 0.0
28 0.000998
30 0.0
32 0.0
35 0.0
37 0.000998
40 0.000997
41 0.0
45 0.0
46 0.0
51 0.0
54 0.0
57 0.0
46 0.000997
29 0.0
23 0.0
22 0.0
21 0.00101
0 0.000997
0 0.0
0 0.0
30 0.0
31 0.000997
33 0.000997
37 0.0
40 0.0
44 0.001012
47 0.001003
52 0.0
56 0.000998
60 0.000997
57 0.000999
42 0.000997
25 0.0
21 0.000997
21 0.0
22 0.000998
24 0.000983
27 0.0
29 0.0
32 0.0
32 0.001034
35 0.000998
40 0.000937
42 0.000963
45 0.001002
49 0.001035
55 0.000998
58 0.002047
60 0.001995
46 0.001
36 0.000999
29 0.000998
28 0.000997
28 0.001045
32 0.0
32 0.0
35 0.0
37 0.001066
36 0.000998
40 0.000997
42 0.001995
46 0.000998
49 0.00103
52 0.000998
57 0.001006
58 0.001025
47 0.000998
31 0.0
28 0.001
28 0.001988
29 0.00104
30 0.001995
33 0.00095
35 0.002028
37 0.0
37 0.000997
40 0.001995
42 0.002044
46 0.001069
50 0.000998
54 0.000998
57 0.000954
45 0.000997
0 0.002037
0 0.000998
0 0.000997
23 0.001039
22 0.00099
23 0.002026
26 0.001994
29 0.001042
31 0.000998
32 0.001037
35 0.002044
41 0.001021
44 0.001979
48 0.003028
53 0.002023
56 0.000989
53 0.000995
39 0.001995
27 0.00204
21 0.002043
21 0.001015
21 0.000993
20 0.001987
24 0.001025
27 0.001995
29 0.002066
31 0.000997
34 0.001022
37 0.000977
40 0.003024
45 0.002992
50 0.00201
51 0.002004
56 0.002044
61 0.001088
68 0.000978
71 0.002056
76 0.002947
80 0.002946
74 0.001906
56 0.001992
50 0.001995
44 0.001994
45 0.002025
47 0.002049
47 0.000989
49 0.000998
53 0.001014
53 0.000999
54 0.002994
56 0.002992
60 0.002001
65 0.001046
68 0.001033
71 0.002041
76 0.001995
80 0.00199
84 0.00204
85 0.001997
75 0.001992
61 0.001995
55 0.002992
56 0.003038
57 0.001993
60 0.001992
62 0.001971
17 0.003038
20 0.003018
19 0.002017
23 0.002031
30 0.002061
37 0.002038
42 0.001993
48 0.002995
53 0.002992
62 0.002044
65 0.003039
46 0.002024
25 0.003023
10 0.002998
10 0.002046
11 0.003046
18 0.003026
21 0.001998
24 0.002048
25 0.002992
27 0.002992
30 0.002047
35 0.002994
41 0.002014
47 0.00399
50 0.003991
59 0.001004
65 0.003049
52 0.001977
33 0.003027
15 0.003043
7 0.002938
8 0.002992
6 0.002993
7 0.002992
13 0.002992
18 0.003988
18 0.002992
20 0.00204
20 0.003018
28 0.00304
35 0.002992
41 0.002989
47 0.003989
51 0.004034
59 0.003065
64 0.003061
46 0.00307
17 0.003024
7 0.003989
6 0.003039
4 0.002949
4 0.003023
8 0.002991
13 0.003024
16 0.004023
16 0.003989
22 0.003022
27 0.003054
32 0.003984
37 0.003989
45 0.003042
52 0.002967
59 0.003024
66 0.00304
53 0.002992
25 0.003028
12 0.003995
8 0.004037
9 0.003032
6 0.003036
9 0.003026
12 0.002992
17 0.00399
19 0.003042
23 0.003961
29 0.003033
33 0.002961
40 0.003027
44 0.004024
49 0.004072
57 0.002992
64 0.003039
68 0.002948
66 0.003954
39 0.004004
15 0.002968
14 0.004064
16 0.004987
19 0.004045
21 0.004014
24 0.004041
30 0.004021
28 0.003989
30 0.00297
35 0.003029
39 0.003026
44 0.00399
52 0.00399
62 0.004987
66 0.004988
50 0.004058
29 0.004024
14 0.004053
12 0.003989
13 0.004023
17 0.002986
18 0.003991
24 0.002998
27 0.00399
29 0.00499
30 0.005017
36 0.005029
45 0.004057
50 0.00402
58 0.004026
63 0.005025
69 0.005021
78 0.003038
68 0.003035
49 0.004021
23 0.005045
18 0.005028
16 0.004989
15 0.004987
18 0.004022
22 0.003945
26 0.003953
25 0.004997
28 0.005024
33 0.00398
39 0.003946
47 0.005025
54 0.005019
59 0.004987
69 0.005018
76 0.005019
74 0.005025
43 0.004053
25 0.004017
17 0.005027
16 0.005026
14 0.004037
16 0.004022
20 0.005126
25 0.006019
29 0.006016
35 0.005019
38 0.005034
41 0.005017
50 0.005037
56 0.005046
64 0.004987
71 0.005986
77 0.004038
83 0.003989
88 0.00502
69 0.005984
44 0.005984
27 0.005985
26 0.006016
27 0.00502
29 0.005038
30 0.005025
38 0.005016
38 0.004987
41 0.003959
44 0.004014
47 0.005055
51 0.005984
59 0.00602
70 0.005984
78 0.006019
86 0.005042
94 0.005013
101 0.005055
104 0.006019
91 0.006016
63 0.005034
46 0.005
46 0.005024
45 0.006049
48 0.005984
50 0.005969
57 0.006018
59 0.005021
59 0.004982
64 0.004989
69 0.005984
74 0.005984
84 0.004936
90 0.005977
98 0.005012
105 0.006026
113 0.005984
120 0.005984
107 0.006017
73 0.004988
65 0.005052
66 0.00503
69 0.005985
73 0.005981
79 0.005034
82 0.005042
88 0.005034
87 0.00596
87 0.006982
95 0.006022
102 0.006136
106 0.005984
111 0.006055
112 0.005038
116 0.004986
122 0.005994
123 0.006031
93 0.006024
76 0.005984
153 0.006018
141 0.006017
141 0.006007
141 0.007018
141 0.007015
141 0.006376
141 0.006015
141 0.006036
141 0.006982
141 0.007009
141 0.006044
141 0.006021
141 0.005034
141 0.006015
137 0.005019
124 0.006013
92 0.006981
69 0.005922
71 0.005032
75 0.006016
76 0.007028
79 0.006981
85 0.00602
90 0.006001
91 0.00599
93 0.005969
99 0.005989
107 0.006981
115 0.006981
123 0.005985
133 0.004961
140 0.006031
150 0.006981
155 0.008018
128 0.006993
106 0.007019
80 0.00699
70 0.005984
68 0.005983
72 0.006982
72 0.006981
79 0.006014
86 0.006043
86 0.006021
86 0.007008
92 0.007021
102 0.007038
111 0.007019
119 0.006912
134 0.007011
139 0.006938
150 0.006981
156 0.006991
151 0.00602
116 0.006982
86 0.006981
76 0.007976
77 0.007978
76 0.006983
76 0.006979
81 0.006943
88 0.007995
88 0.007039
91 0.006991
91 0.007019
100 0.005983
105 0.006981
113 0.006017
122 0.007979
130 0.007979
140 0.006975
148 0.007016
157 0.007017
163 0.007029
134 0.007015
96 0.007015
79 0.007013
77 0.006018
75 0.006981
78 0.00703
84 0.007978
87 0.007979
92 0.006997
94 0.007024
94 0.007043
102 0.007014
108 0.007044
118 0.007978
126 0.007979
137 0.007025
148 0.007999
150 0.007978
163 0.007979
170 0.007939
162 0.006981
128 0.006914
96 0.007005
87 0.007033
93 0.00703
96 0.007031
99 0.007978
104 0.007978
108 0.007024
106 0.007027
109 0.007014
116 0.007016
123 0.007012
129 0.007979
143 0.008007
155 0.007968
160 0.006999
166 0.007016
162 0.007017
144 0.007979
94 0.007012
88 0.007022
91 0.007024
94 0.006983
97 0.007015
104 0.006983
108 0.006992
110 0.006983
110 0.006981
112 0.006982
116 0.007979
129 0.006958
137 0.007013
145 0.007013
155 0.007013
162 0.00697
165 0.006988
139 0.007029
95 0.006993
80 0.006978
78 0.007015
80 0.007013
79 0.008011
83 0.007014
87 0.007089
90 0.006984
90 0.006967
91 0.007015
98 0.007028
107 0.007008
118 0.007021
128 0.006993
138 0.006982
147 0.006983
155 0.006981
157 0.007028
121 0.007014
87 0.007027
71 0.007028
66 0.006982
66 0.007029
59 0.007028
64 0.006994
70 0.006957
72 0.007014
74 0.006018
76 0.006017
78 0.006034
87 0.007016
95 0.007022
102 0.007017
112 0.007012
122 0.006981
132 0.007031
145 0.006978
144 0.007003
115 0.005984
79 0.005998
62 0.006012
59 0.006014
57 0.006017
55 0.005982
58 0.006981
63 0.007009
69 0.007023
69 0.006977
75 0.006997
84 0.006996
90 0.005984
97 0.005985
108 0.006026
116 0.006018
127 0.006029
137 0.006017
144 0.005984
154 0.006015
161 0.006984
151 0.006037
104 0.004998
80 0.005988
79 0.006985
81 0.006017
83 0.006008
86 0.00603
88 0.006018
91 0.006017
90 0.006034
89 0.006017
91 0.00602
107 0.006018
117 0.005976
129 0.005989
134 0.005971
143 0.005019
152 0.005984
158 0.006022
155 0.005986
129 0.006031
94 0.006019
79 0.006022
76 0.005984
82 0.006016
83 0.005985
89 0.005005
96 0.005032
96 0.004986
96 0.00499
99 0.005027
105 0.005036
118 0.006037
126 0.005967
133 0.005968
142 0.006026
155 0.005988
164 0.005969
152 0.005029
106 0.00502
82 0.005018
75 0.005018
75 0.005019
74 0.005019
76 0.00499
79 0.006008
87 0.005013
91 0.006047
93 0.005977
95 0.004948
103 0.005013
117 0.005009
125 0.005018
132 0.005023
145 0.004994
151 0.005018
161 0.004987
160 0.005035
132 0.004986
97 0.00399
74 0.005961
71 0.00599
68 0.004995
70 0.005032
73 0.004981
80 0.00502
84 0.005039
87 0.005039
91 0.004987
97 0.004981
107 0.005021
117 0.005021
136 0.004036
143 0.00403
152 0.004985
166 0.005001
174 0.00502
173 0.005018
147 0.005033
110 0.005032
87 0.005024
83 0.005036
81 0.005034
80 0.005018
83 0.003961
92 0.003957
98 0.003957
99 0.004053
106 0.004025
113 0.005011
118 0.005047
131 0.004052
142 0.003989
151 0.005013
159 0.003952
169 0.004021
182 0.004049
189 0.003991
195 0.003989
170 0.004028
132 0.00396
111 0.004027
105 0.005032
104 0.00504
106 0.004978
110 0.004987
111 0.00502
119 0.004049
121 0.003981
126 0.00399
132 0.003989
142 0.003987
152 0.003991
162 0.003983
169 0.002993
178 0.003951
190 0.003953
195 0.002993
203 0.004023
198 0.004001
145 0.003988
123 0.003993
118 0.004025
124 0.003989
128 0.003989
132 0.004023
141 0.003992
144 0.004132
141 0.004021
145 0.004019
150 0.002994
157 0.002995
170 0.004001
179 0.00397
185 0.003973
195 0.003985
204 0.003991
205 0.004021
183 0.003991
148 0.004043
123 0.003991
116 0.003
118 0.003013
122 0.002991
127 0.001995
131 0.002992
136 0.000997
137 0.002992
137 0.002992
144 0.00399
152 0.002993
160 0.002992
168 0.002993
181 0.002992
190 0.00399
202 0.002992
188 0.002991
153 0.002992
122 0.003008
106 0.004023
100 0.004047
102 0.002992
100 0.002993
102 0.003996
106 0.003046
111 0.002995
111 0.003033
117 0.002977
126 0.002987
134 0.003001
146 0.002991
150 0.003991
160 0.003025
170 0.002989
178 0.002021
186 0.002992
179 0.002994
131 0.002992
98 0.002992
83 0.002965
82 0.002992
82 0.002976
80 0.002953
84 0.002992
94 0.002999
94 0.002019
95 0.002992
100 0.002994
109 0.002992
117 0.003004
129 0.003037
144 0.003013
154 0.003001
161 0.002981
170 0.002997
180 0.00298
191 0.002992
180 0.001995
147 0.002062
112 0.001988
96 0.001995
90 0.002994
90 0.003026
95 0.002962
99 0.002975
103 0.003005
105 0.002992
108 0.003029
114 0.002992
119 0.002962
130 0.001995
140 0.001996
149 0.001995
162 0.001995
170 0.002025
186 0.002027
194 0.001971
200 0.001986
203 0.002992
181 0.002992
132 0.001995
117 0.001995
115 0.001995
113 0.002009
115 0.002031
124 0.001996
129 0.00216
132 0.001958
132 0.001976
137 0.001964
142 0.001998
152 0.001994
162 0.001995
173 0.002036
180 0.001029
188 0.001995
194 0.001994
206 0.001995
205 0.002031
155 0.001995
127 0.001948
115 0.002029
116 0.002
119 0.000997
120 0.001991
129 0.001979
135 0.000999
133 0.000997
135 0.001022
138 0.001002
149 0.001991
155 0.001994
166 0.001994
176 0.002018
183 0.002069
193 0.001927
200 0.001997
186 0.001995
146 0.000997
113 0.000997
101 0.000998
100 0.000997
109 0.000997
113 0.0
120 0.001995
128 0.000998
126 0.0
126 0.000997
130 0.000997
138 0.001994
147 0.001995
156 0.001996
167 0.000998
173 0.0
190 0.000996
195 0.0
193 0.000997
161 0.0
120 0.000997
100 0.000998
96 0.000998
91 0.000998
92 0.000998
96 0.001996
99 0.000998
103 0.000999
108 0.000999
112 0.001002
122 0.000996
131 0.000991
143 0.000986
154 0.000998
161 0.000997
176 0.001998
188 0.000997
193 0.00101
202 0.000997
206 0.000998
168 0.000998
128 0.000998
102 0.001002
100 0.0
98 0.0
97 0.000997
100 0.001012
108 0.0
113 0.0
114 0.0
115 0.0
122 0.0
135 0.000998
147 0.000996
158 0.000978
169 0.000994
179 0.000979
190 0.001012
197 0.0
212 0.0
220 0.0
228 0.0
236 0.0
216 0.0
149 0.0
126 0.0
120 0.0
118 0.0
119 0.0
122 0.000998
126 0.000997
127 0.001
127 0.000999
132 0.0
137 0.0
144 0.0
156 0.0
162 0.0
175 0.0
183 0.0
192 0.0
199 0.0
209 0.0
219 0.0
228 0.0
219 0.0
189 0.0
156 0.0
139 0.0
139 0.0
144 0.0
151 0.0
152 0.000998
157 0.00095
154 0.000998
152 0.000998
155 0.000984
164 0.000997
173 0.000998
183 0.0
196 0.0
203 0.0
213 0.0
220 0.0
145 0.0
233 0.0
195 0.0
160 0.0
140 0.001004
132 0.000998
136 0.0
141 0.0
146 0.001003
153 0.0
151 0.0
150 0.00101
151 0.000991
157 0.0
168 0.0
175 0.0
184 0.000967
192 0.000957
203 0.0
211 0.000997
202 0.0
167 0.0
141 0.000981
112 0.001058
109 0.001034
108 0.0
108 0.0
111 0.0
115 0.000998
114 0.001025
114 0.0
116 0.000996
126 0.0
134 0.0
141 0.0
153 0.001035
159 0.001048
167 0.000997
178 0.0
182 0.0
158 0.001045
117 0.001033
78 0.0
71 0.00096
64 0.0
63 0.0
68 0.0
72 0.000981
76 0.000996
78 0.0
76 0.001008
84 0.0
93 0.002029
99 0.001996
111 0.0
127 0.001029
138 0.000998
151 0.000979
158 0.0
162 0.001004
136 0.000999
78 0.000997
53 0.0
43 0.000994
38 0.001995
38 0.001996
33 0.001027
39 0.001947
44 0.001001
46 0.001006
49 0.0
53 0.000997
62 0.000955
74 0.000989
83 0.000995
92 0.001058
106 0.001995
116 0.001995
128 0.001002
141 0.001993
157 0.001003
154 0.000996
119 0.0
76 0.001
51 0.001041
40 0.001016
37 0.001037
35 0.000994
36 0.001996
40 0.001996
47 0.000998
45 0.002021
52 0.0
58 0.000995
66 0.0
77 0.002056
88 0.002027
101 0.00105
108 0.000962
121 0.000998
131 0.002092
141 0.001995
151 0.002023
168 0.002995
179 0.00197
163 0.000973
121 0.000998
82 0.000957
63 0.002074
57 0.001991
60 0.000997
57 0.000959
57 0.001002
62 0.001995
67 0.001048
67 0.001984
71 0.002017
79 0.0
89 0.000998
99 0.000965
107 0.002993
116 0.002992
129 0.002016
136 0.001018
146 0.001067
154 0.002963
171 0.000955
180 0.002038
166 0.002054
112 0.000949
87 0.001018
84 0.000996
85 0.002001
91 0.001994
97 0.002017
101 0.002015
106 0.001962
104 0.002013
103 0.000952
108 0.00305
114 0.003016
131 0.002072
138 0.002023
146 0.001997
155 0.002963
165 0.002992
172 0.00203
181 0.001082
177 0.001002
143 0.002998
87 0.001946
82 0.003016
85 0.003009
87 0.001477
88 0.001997
94 0.002042
99 0.002994
100 0.002991
100 0.00105
104 0.002025
112 0.001969
121 0.002994
136 0.001046
142 0.002954
152 0.00298
164 0.00204
172 0.001995
180 0.001033
174 0.002984
133 0.002993
85 0.002041
74 0.002024
72 0.002973
71 0.00399
72 0.002041
78 0.004034
84 0.004018
86 0.002048
88 0.001943
94 0.001919
100 0.003046
108 0.003042
126 0.001999
133 0.002028
142 0.003052
151 0.00405
168 0.002971
176 0.003982
186 0.00399
196 0.002035
181 0.001972
136 0.001994
98 0.004034
82 0.003989
81 0.002001
80 0.002002
79 0.001995
82 0.003983
91 0.002025
93 0.003996
96 0.004021
103 0.002994
109 0.002994
121 0.002999
130 0.004058
143 0.00399
156 0.00303
166 0.003036
178 0.001972
187 0.004043
198 0.003
204 0.004025
211 0.004026
207 0.003982
153 0.002968
117 0.003029
107 0.002949
108 0.004037
110 0.003989
114 0.003023
118 0.003039
125 0.003028
125 0.002998
124 0.002947
127 0.004021
133 0.004028
144 0.003031
154 0.002986
162 0.003026
172 0.004022
180 0.00399
190 0.003036
199 0.003054
207 0.003038
182 0.002962
138 0.002968
114 0.005021
112 0.005022
115 0.002986
119 0.003043
123 0.00299
130 0.005027
133 0.004051
133 0.002992
130 0.003009
139 0.004005
145 0.004
157 0.00306
168 0.004989
173 0.004987
183 0.003992
192 0.003006
199 0.003039
203 0.005014
187 0.004987
129 0.002954
103 0.003032
97 0.002959
103 0.004044
103 0.003988
108 0.004988
111 0.00502
116 0.003987
113 0.004038
115 0.003989
116 0.004986
124 0.005028
139 0.00397
150 0.004024
163 0.004003
171 0.003994
181 0.003983
188 0.004994
192 0.004955
169 0.004005
123 0.003935
91 0.00399
83 0.005026
81 0.00498
80 0.003939
79 0.004041
85 0.00403
92 0.003987
93 0.003951
91 0.005954
99 0.005008
109 0.004006
116 0.00395
126 0.003988
138 0.005033
146 0.004987
156 0.003998
165 0.003973
177 0.004943
177 0.004052
147 0.004983
101 0.006018
79 0.005985
73 0.003972
76 0.005044
74 0.004039
79 0.005031
82 0.004988
90 0.003994
91 0.004034
94 0.003989
102 0.004983
107 0.004988
118 0.005982
130 0.006016
138 0.004989
146 0.00399
153 0.00398
162 0.006012
162 0.004987
119 0.004009
81 0.004003
64 0.004987
61 0.004987
63 0.004994
65 0.006032
68 0.006019
75 0.004988
81 0.004991
79 0.005001
82 0.005953
88 0.006029
100 0.003996
108 0.004995
123 0.004953
135 0.004972
144 0.005016
154 0.005984
153 0.005983
105 0.00496
69 0.004954
56 0.005016
54 0.005049
56 0.00602
59 0.006981
65 0.005987
72 0.007018
76 0.005058
78 0.004927
82 0.004932
87 0.007011
100 0.006015
115 0.004011
123 0.003998
135 0.004974
145 0.005984
156 0.005984
168 0.00602
175 0.006017
137 0.005018
95 0.006018
79 0.005985
79 0.007015
84 0.007015
86 0.005003
89 0.004993
96 0.004989
100 0.006004
98 0.005984
102 0.005951
107 0.006018
122 0.006018
134 0.005998
143 0.005968
153 0.007012
165 0.007012
174 0.006017
182 0.00497
172 0.004988
131 0.007979
95 0.005984
88 0.006032
96 0.006913
103 0.006068
107 0.006013
116 0.006014
121 0.007013
118 0.007015
115 0.005986
123 0.006004
134 0.00603
142 0.007022
151 0.007981
168 0.007019
176 0.006991
187 0.005975
193 0.005982
172 0.005982
126 0.006998
94 0.007025
88 0.006018
89 0.006017
88 0.005985
87 0.007016
93 0.007986
106 0.007987
104 0.007945
107 0.006015
114 0.005968
126 0.005975
135 0.007015
146 0.007042
160 0.005985
172 0.005991
178 0.005976
188 0.007027
199 0.006981
174 0.007977
124 0.007978
96 0.005957
88 0.006015
86 0.006014
87 0.007971
86 0.00798
92 0.005975
95 0.005983
102 0.005984
104 0.007027
105 0.007013
118 0.007985
128 0.007981
144 0.006944
151 0.007012
161 0.006981
175 0.007995
182 0.00798
189 0.00601
199 0.006047
206 0.005978
175 0.007979
144 0.007014
95 0.007935
95 0.007983
97 0.006974
99 0.007151
100 0.006979
109 0.007979
113 0.007957
114 0.007961
115 0.007026
124 0.006981
130 0.007021
147 0.007012
155 0.006962
171 0.006978
182 0.006961
190 0.006963
200 0.006974
206 0.006981
214 0.008011
224 0.007975
224 0.006983
174 0.007014
135 0.006976
109 0.006981
115 0.007023
126 0.00695
133 0.006967
142 0.006961
149 0.006978
144 0.006964
136 0.006986
138 0.007982
144 0.006948
157 0.006983
170 0.00698
191 0.006985
203 0.006963
212 0.006979
223 0.006993
232 0.006981
227 0.006973
196 0.006964
154 0.00701
137 0.006975
139 0.00693
148 0.00698
151 0.006977
160 0.006967
165 0.006961
161 0.00699
159 0.006995
164 0.006979
174 0.006983
184 0.006996
197 0.00699
203 0.006966
217 0.006981
226 0.006985
234 0.00695
242 0.005984
215 0.006977
167 0.005984
140 0.006979
129 0.006984
134 0.006976
138 0.006996
140 0.006983
144 0.006991
155 0.00695
152 0.007026
151 0.006981
159 0.00699
170 0.005987
181 0.005961
189 0.005986
203 0.005987
213 0.006991
220 0.006947
227 0.006972
233 0.006977
206 0.006981
158 0.007011
128 0.006983
118 0.005986
122 0.006006
124 0.005989
126 0.005984
137 0.005964
142 0.005951
137 0.005987
135 0.006016
143 0.00698
151 0.006023
161 0.007019
173 0.006013
188 0.005982
196 0.005985
205 0.005981
213 0.005975
226 0.005983
228 0.005973
202 0.005987
157 0.005998
124 0.005972
109 0.004964
112 0.006037
115 0.005963
118 0.005955
122 0.006003
127 0.005985
128 0.005998
129 0.005959
136 0.005985
148 0.005969
157 0.006017
168 0.005968
180 0.005005
193 0.004991
203 0.005018
219 0.006037
228 0.005983
235 0.005978
232 0.005984
199 0.005972
143 0.00599
126 0.005984
127 0.005981
131 0.005984
136 0.005011
143 0.005017
150 0.00498
153 0.005974
151 0.005974
156 0.005967
164 0.005994
173 0.005971
184 0.005988
196 0.005999
203 0.004994
212 0.004992
223 0.005005
234 0.005023
194 0.004948
187 0.004992
164 0.004983
147 0.005002
139 0.005981
141 0.006004
145 0.005954
148 0.00595
153 0.004944
155 0.00499
156 0.004979
154 0.004987
156 0.005027
161 0.004983
167 0.00497
173 0.004984
177 0.003998
181 0.004019
190 0.005969
195 0.004988
196 0.004993
186 0.004991
162 0.005
140 0.005017
135 0.004989
139 0.004944
143 0.004981
144 0.004991
147 0.004996
148 0.004954
148 0.00501
147 0.003985
149 0.004009
154 0.004991
159 0.004991
166 0.004984
172 0.00498
179 0.004991
183 0.005008
186 0.004985
182 0.004987
160 0.003985
131 0.004968
124 0.00401
124 0.004036
125 0.003989
127 0.003995
129 0.005059
131 0.005023
134 0.004981
134 0.004983
135 0.004963
140 0.004992
146 0.004984
152 0.003951
157 0.003962
165 0.00399
170 0.003971
175 0.003992
183 0.004026
190 0.003974
182 0.004987
157 0.004988
142 0.005005
124 0.004986
120 0.00497
122 0.003958
122 0.003986
124 0.003981
128 0.003976
134 0.003998
135 0.004014
136 0.00407
144 0.00399
154 0.004022
165 0.00399
173 0.004994
183 0.00498
197 0.004025
204 0.003974
213 0.003998
220 0.004031
229 0.003987
235 0.004015
210 0.003986
155 0.003946
135 0.00396
133 0.003961
135 0.003993
135 0.002972
139 0.002956
148 0.003034
148 0.002993
151 0.003997
151 0.004004
158 0.003955
164 0.003952
173 0.003988
188 0.003989
196 0.00396
202 0.003965
214 0.00299
223 0.003027
233 0.003989
241 0.002946
194 0.002967
196 0.002955
171 0.002979
152 0.002975
143 0.003021
143 0.003994
145 0.003934
148 0.003958
151 0.003995
154 0.002966
154 0.003991
152 0.002989
152 0.003974
154 0.003958
161 0.00301
165 0.00292
171 0.002966
177 0.002965
181 0.00301
186 0.003002
190 0.003006
190 0.002969
173 0.00405
153 0.002958
140 0.002992
137 0.002029
140 0.003992
143 0.002992
148 0.003989
150 0.004
151 0.002975
150 0.002994
148 0.002899
150 0.002963
157 0.003003
161 0.003027
164 0.002984
169 0.002977
177 0.002994
179 0.003942
182 0.002993
168 0.003013
146 0.002044
131 0.003001
126 0.003
124 0.003
127 0.001994
129 0.002992
130 0.002992
134 0.002977
133 0.002991
134 0.002974
137 0.002986
143 0.003958
148 0.003945
153 0.001993
157 0.001988
163 0.00296
170 0.002981
173 0.002962
178 0.001986
175 0.002977
149 0.002974
120 0.002998
106 0.002989
105 0.002971
105 0.003024
104 0.002983
108 0.002956
112 0.00299
113 0.00197
115 0.001973
119 0.001992
125 0.00198
140 0.00204
150 0.001931
158 0.002
171 0.002978
180 0.002993
188 0.002963
198 0.002979
207 0.002978
205 0.001997
173 0.001997
133 0.001973
106 0.001995
98 0.001996
97 0.001991
98 0.002023
105 0.002032
106 0.002047
109 0.001974
111 0.001966
113 0.003056
118 0.001947
128 0.00199
136 0.001994
145 0.001996
162 0.001962
173 0.002051
183 0.001981
193 0.000997
204 0.001044
213 0.001954
214 0.001972
191 0.001977
149 0.001047
116 0.000967
107 0.001024
112 0.001996
116 0.001994
120 0.001995
128 0.002001
133 0.001994
133 0.001995
135 0.001995
140 0.002038
145 0.001024
156 0.00099
169 0.001004
178 0.001995
194 0.001996
203 0.001994
213 0.001984
220 0.001978
226 0.000995
234 0.001003
216 0.000983
179 0.001008
150 0.00099
138 0.000965
137 0.001958
141 0.000999
149 0.002002
155 0.001978
156 0.001981
154 0.000988
152 0.000987
158 0.000993
164 0.000996
173 0.001016
182 0.000992
193 0.001028
202 0.000954
210 0.002001
223 0.002039
224 0.002009
202 0.001018
163 0.001009
139 0.000996
128 0.001019
130 0.001047
135 0.001941
143 0.000956
149 0.001028
153 0.001995
153 0.001974
151 0.002007
157 0.001982
163 0.000961
172 0.0
183 0.0
192 0.000987
202 0.000974
212 0.000998
216 0.001038
205 0.00103
158 0.001047
127 0.0
111 0.0
111 0.0
114 0.0
120 0.0
126 0.0
131 0.0
130 0.0
127 0.0
132 0.001006
137 0.00098
150 0.001029
161 0.0
176 0.001028
187 0.000994
195 0.00104
203 0.0
195 0.0
147 0.0
112 0.0
93 0.0
86 0.0
86 0.0
89 0.000999
91 0.000992
100 0.000997
103 0.001019
106 0.0
107 0.0
112 0.0
126 0.0
137 0.0
145 0.0
158 0.0
169 0.0
181 0.0
190 0.0
185 0.000998
153 0.000997
115 0.000996
92 0.0
85 0.0
84 0.0
82 0.0
87 0.0
92 0.0
98 0.0
101 0.0
104 0.0
110 0.000998
121 0.000947
134 0.0
143 0.001009
155 0.000997
170 0.000955
180 0.001038
190 0.0
203 0.0
210 0.0
204 0.0
156 0.0
121 0.0
106 0.0
104 0.00093
107 0.0
111 0.0
116 0.000967
120 0.001015
123 0.000996
121 0.0
125 0.0
133 0.0
150 0.0
160 0.0
170 0.000969
183 0.000997
199 0.0
205 0.0
213 0.000957
226 0.001993
232 0.001998
207 0.0
169 0.0
139 0.0
128 0.000955
128 0.000998
135 0.000997
140 0.000989
147 0.000996
149 0.0
147 0.000968
144 0.000992
147 0.001995
156 0.0
164 0.0
175 0.0
189 0.0
198 0.0
209 0.00204
215 0.002017
195 0.0
158 0.0
130 0.0
116 0.000971
115 0.000992
121 0.001012
129 0.0
135 0.001028
139 0.001008
139 0.000968
140 0.001994
142 0.001945
151 0.0
163 0.0
171 0.0
179 0.000972
190 0.000982
203 0.0
206 0.0
200 0.000989
128 0.0
107 0.0
99 0.002025
98 0.002032
102 0.0
104 0.0
110 0.0
114 0.001991
114 0.002029
112 0.0
118 0.0
126 0.0
143 0.0
154 0.000954
164 0.002026
175 0.001995
188 0.0
192 0.0
182 0.000936
123 0.001024
93 0.001992
74 0.0
72 0.000943
70 0.0
72 0.0
77 0.0
81 0.00095
84 0.00203
88 0.000964
91 0.0
102 0.0
115 0.002022
126 0.001974
140 0.0
154 0.0
173 0.001043
183 0.002038
191 0.001041
180 0.001989
143 0.001988
103 0.000969
74 0.001
68 0.000999
67 0.000967
65 0.002008
66 0.002994
77 0.0
81 0.001995
82 0.001969
85 0.001007
94 0.001031
105 0.001997
115 0.001995
132 0.000957
146 0.000923
158 0.001995
166 0.003049
179 0.002964
193 0.00096
202 0.002961
167 0.000965
126 0.001114
98 0.002035
83 0.002961
83 0.003028
85 0.002
88 0.000997
92 0.0
99 0.002009
101 0.002032
103 0.001991
112 0.001995
126 0.001035
140 0.001026
153 0.0
166 0.00399
175 0.002985
191 0.001995
204 0.001029
214 0.001953
224 0.003044
237 0.003063
138 0.002045
181 0.002028
137 0.001038
129 0.001997
127 0.000992
131 0.002962
135 0.003023
143 0.001022
146 0.001013
148 0.000977
147 0.003006
148 0.00305
158 0.002032
169 0.002993
184 0.001998
196 0.001965
205 0.002023
216 0.002992
226 0.003019
239 0.000991
245 0.000997
228 0.002064
187 0.00399
154 0.004031
137 0.001997
141 0.00399
150 0.002008
157 0.002031
164 0.002976
167 0.002994
167 0.003002
164 0.003042
168 0.000998
177 0.002008
187 0.003026
195 0.002956
211 0.000994
224 0.002993
239 0.00194
243 0.001956
225 0.001943
183 0.003987
143 0.00301
121 0.002
119 0.002014
119 0.001061
123 0.003008
131 0.003024
141 0.001982
141 0.003038
138 0.001996
143 0.002986
152 0.000952
161 0.004053
172 0.004022
187 0.002003
198 0.001968
206 0.001957
217 0.004034
212 0.003035
161 0.003021
109 0.003025
86 0.001986
81 0.002983
80 0.002005
82 0.004014
83 0.004025
90 0.004022
95 0.002001
92 0.002006
98 0.002011
105 0.004025
123 0.001996
136 0.004988
147 0.004986
168 0.002951
179 0.00201
189 0.002109
201 0.004988
192 0.004041
133 0.003055
93 0.002027
72 0.00202
61 0.004055
55 0.002997
55 0.003989
58 0.004022
67 0.003036
67 0.002009
67 0.001997
70 0.004023
78 0.005035
94 0.002993
107 0.002979
121 0.003006
136 0.004987
159 0.002991
170 0.005022
185 0.005013
198 0.002991
195 0.001978
160 0.00296
110 0.005023
73 0.004991
56 0.00399
54 0.002962
55 0.002952
56 0.00502
66 0.002985
70 0.004986
74 0.004987
76 0.002996
83 0.002985
95 0.00197
109 0.00501
122 0.004987
143 0.004005
157 0.004
170 0.004023
184 0.004985
205 0.00402
217 0.005
228 0.004983
209 0.002981
162 0.002945
115 0.003004
91 0.004956
85 0.006027
88 0.003968
91 0.004033
97 0.003958
101 0.005031
105 0.004
107 0.005013
108 0.004987
118 0.002988
130 0.003035
145 0.00305
156 0.005044
171 0.005985
192 0.003993
203 0.003957
216 0.004987
229 0.005986
246 0.003988
243 0.006033
208 0.006017
149 0.004017
120 0.004994
111 0.003022
114 0.005029
123 0.006049
133 0.003989
141 0.003933
144 0.003999
141 0.006009
138 0.004006
145 0.005977
155 0.006027
173 0.003998
183 0.003988
198 0.004002
209 0.005011
222 0.005029
235 0.003989
237 0.003989
203 0.00399
151 0.006097
103 0.004034
98 0.005984
102 0.005985
110 0.003998
119 0.004003
128 0.005006
130 0.006031
126 0.005974
126 0.004969
133 0.005232
145 0.004987
164 0.004987
175 0.004998
191 0.006038
206 0.005984
217 0.005984
221 0.004981
185 0.00499
126 0.004949
83 0.007007
65 0.007014
62 0.004979
61 0.004964
73 0.005003
86 0.004954
88 0.005023
89 0.005985
89 0.006037
98 0.004037
108 0.005975
122 0.003988
135 0.006031
151 0.006021
173 0.004957
185 0.004955
197 0.004983
164 0.005
104 0.004998
56 0.006017
32 0.006059
26 0.004989
24 0.004999
27 0.004028
37 0.006994
47 0.006044
51 0.005023
55 0.00493
68 0.004973
82 0.004987
95 0.004975
110 0.006981
129 0.006981
150 0.004972
165 0.004975
180 0.004996
195 0.006063
203 0.006924
158 0.005951
97 0.005027
39 0.006003
29 0.004027
28 0.005982
23 0.006988
27 0.006982
35 0.006013
43 0.004982
46 0.00504
51 0.006984
57 0.007039
74 0.00495
89 0.004987
116 0.004987
133 0.005001
150 0.006
167 0.007024
182 0.007034
197 0.005953
212 0.005954
218 0.00605
189 0.007056
126 0.007021
65 0.004946
46 0.004999
43 0.004983
43 0.005989
48 0.005976
59 0.007968
63 0.007023
67 0.005982
71 0.005944
77 0.005039
86 0.007012
100 0.007047
124 0.005986
140 0.006006
165 0.005985
184 0.005983
195 0.005982
210 0.007969
226 0.007967
237 0.005955
240 0.005954
206 0.005982
143 0.006983
94 0.00702
69 0.00595
70 0.005972
76 0.006024
82 0.005986
92 0.005996
96 0.007979
94 0.007976
99 0.005981
106 0.005968
117 0.005993
133 0.006982
151 0.006986
169 0.005997
186 0.006975
208 0.005986
222 0.00695
234 0.005985
247 0.007972
255 0.007972
232 0.005985
173 0.005998
124 0.00597
102 0.005984
99 0.007029
109 0.007962
125 0.008019
133 0.007988
141 0.005987
137 0.006993
134 0.006029
137 0.007979
149 0.007972
163 0.006984
177 0.005985
194 0.007024
212 0.007949
225 0.007941
245 0.007988
188 0.007017
167 0.005991
126 0.006967
112 0.006982
104 0.007016
104 0.00798
108 0.007005
114 0.006975
119 0.006983
124 0.007953
124 0.007976
122 0.007976
125 0.007979
136 0.006952
141 0.006946
150 0.006979
158 0.007018
167 0.007025
176 0.006974
179 0.006982
163 0.007034
129 0.006983
100 0.007959
87 0.007027
86 0.007027
90 0.006957
95 0.006975
99 0.006035
103 0.007028
104 0.007015
102 0.006937
105 0.006947
110 0.00698
121 0.007981
129 0.006981
143 0.007976
150 0.007972
158 0.006975
165 0.006977
156 0.006965
124 0.006962
91 0.006985
69 0.006981
65 0.00699
64 0.006977
64 0.006995
66 0.006975
70 0.007985
66 0.007009
70 0.006944
74 0.006976
81 0.006961
92 0.006991
102 0.006965
112 0.006977
121 0.006981
130 0.006939
138 0.006947
146 0.006969
159 0.007027
151 0.006017
104 0.005965
76 0.006974
63 0.006962
59 0.007013
58 0.006972
58 0.006941
60 0.006985
66 0.006978
71 0.006971
74 0.006992
79 0.006017
86 0.006015
97 0.005986
108 0.00598
117 0.005982
127 0.007026
136 0.006978
148 0.006928
156 0.007012
165 0.006015
172 0.006031
179 0.006004
148 0.006015
110 0.006032
80 0.005986
75 0.005987
75 0.00599
75 0.006036
78 0.005974
85 0.00702
88 0.006986
90 0.006977
92 0.007031
100 0.006015
107 0.006018
115 0.005985
130 0.006018
140 0.006021
148 0.006018
158 0.005984
166 0.005985
175 0.005992
183 0.005996
190 0.006012
198 0.00597
179 0.007011
141 0.005945
109 0.006112
96 0.006021
95 0.00599
97 0.005986
101 0.005986
107 0.005969
109 0.005986
111 0.005977
110 0.005996
112 0.00595
122 0.00599
130 0.00502
139 0.005023
150 0.005021
160 0.006026
168 0.006019
175 0.006015
182 0.00599
188 0.005988
191 0.005984
167 0.005972
129 0.005973
98 0.005018
98 0.005032
103 0.005019
108 0.004988
117 0.005017
124 0.006014
123 0.005985
120 0.005942
120 0.005976
126 0.005986
133 0.005996
143 0.005984
158 0.005048
167 0.005031
175 0.005021
183 0.00503
193 0.005026
198 0.005019
186 0.005022
148 0.004985
111 0.005983
90 0.006004
89 0.005989
91 0.005953
97 0.005021
104 0.005022
107 0.004981
106 0.005016
106 0.005022
108 0.005021
114 0.005022
123 0.00499
134 0.004977
146 0.004984
155 0.005027
164 0.005022
177 0.005018
183 0.004993
178 0.005015
144 0.005024
92 0.005022
72 0.005016
67 0.005032
67 0.004986
68 0.005017
72 0.00503
79 0.00397
83 0.003986
85 0.005029
89 0.005022
94 0.005026
103 0.004987
116 0.005039
127 0.005019
140 0.005032
150 0.004987
159 0.005019
172 0.004997
180 0.003935
187 0.004003
170 0.003991
125 0.003991
89 0.004041
73 0.005055
68 0.005034
70 0.004988
70 0.005023
73 0.004936
78 0.005022
84 0.00396
84 0.003996
90 0.00404
98 0.003989
109 0.003991
120 0.004025
131 0.00399
145 0.004961
155 0.004908
164 0.005027
173 0.00497
182 0.004022
193 0.003989
200 0.003994
198 0.00399
162 0.004025
118 0.004026
93 0.003948
87 0.003931
89 0.004041
91 0.00399
95 0.003954
100 0.004031
105 0.004005
107 0.003985
107 0.004013
114 0.003992
123 0.00402
135 0.004022
145 0.003991
156 0.003991
166 0.004023
179 0.003989
187 0.004096
196 0.003957
204 0.002942
211 0.002959
220 0.003965
216 0.00404
168 0.003992
128 0.004025
109 0.004015
107 0.004039
110 0.00499
116 0.003991
123 0.004004
129 0.002953
131 0.002957
129 0.00296
129 0.003952
134 0.003991
145 0.004034
155 0.004007
164 0.004015
173 0.004024
183 0.004021
193 0.00399
200 0.003024
208 0.003014
213 0.003027
202 0.002935
153 0.003048
114 0.002992
110 0.003014
114 0.003
121 0.003023
132 0.002959
139 0.003959
144 0.003992
142 0.003027
138 0.002956
139 0.003027
146 0.002964
157 0.002976
169 0.002997
180 0.002992
189 0.002992
198 0.003951
206 0.002992
207 0.003031
165 0.002987
122 0.002994
99 0.002958
94 0.002959
97 0.002959
104 0.002952
114 0.002992
121 0.003023
121 0.003945
121 0.003992
120 0.002993
124 0.004017
136 0.003023
147 0.002993
155 0.002984
164 0.002027
173 0.002974
183 0.002
191 0.002993
161 0.003054
116 0.002992
82 0.003025
69 0.00202
69 0.002992
72 0.002017
74 0.002052
80 0.001994
88 0.002024
90 0.001996
91 0.001995
95 0.002026
106 0.001995
116 0.001994
126 0.002978
137 0.003022
147 0.002992
158 0.002992
166 0.001988
173 0.002964
168 0.003009
133 0.001959
68 0.001995
53 0.001983
51 0.001922
51 0.001995
52 0.001995
56 0.001994
62 0.00206
67 0.002042
67 0.002044
71 0.002959
77 0.00298
86 0.002006
104 0.002037
115 0.001995
128 0.001995
140 0.002031
150 0.002031
158 0.001995
164 0.002992
151 0.001995
94 0.00203
61 0.001973
47 0.001969
45 0.001995
47 0.001991
50 0.001981
57 0.002033
64 0.001978
68 0.002027
69 0.000998
74 0.000997
81 0.001022
96 0.001995
106 0.001991
118 0.001993
130 0.001987
148 0.002002
158 0.001994
166 0.001996
177 0.002026
182 0.001001
162 0.001997
116 0.000998
81 0.001013
65 0.000997
65 0.001033
68 0.000983
73 0.002008
82 0.0
85 0.001995
83 0.001995
85 0.002004
90 0.002055
98 0.002038
109 0.001007
120 0.000997
135 0.002037
145 0.002017
155 0.001
164 0.002003
177 0.000995
183 0.002025
166 0.001035
111 0.001023
83 0.000997
77 0.000997
81 0.001007
87 0.000997
95 0.000997
104 0.000995
108 0.002027
106 0.001034
105 0.000992
109 0.00098
118 0.000999
132 0.000998
142 0.000998
153 0.000982
163 0.000997
171 0.000997
183 0.000998
186 0.000995
160 0.000983
113 0.000997
72 0.002043
72 0.002033
75 0.00103
80 0.002049
88 0.000999
96 0.0
99 0.000966
97 0.000944
98 0.000997
103 0.000998
112 0.000981
123 0.000994
142 0.00096
152 0.000997
162 0.000998
172 0.0
180 0.0
167 0.0
123 0.0
79 0.0
57 0.000997
54 0.00097
54 0.000997
59 0.000997
67 0.000997
75 0.0
79 0.0
81 0.0
88 0.0
95 0.0
106 0.0
118 0.0
133 0.0
144 0.0
155 0.001013
171 0.000997
180 0.000998
185 0.0
164 0.0
100 0.001054
67 0.0
55 0.0
54 0.0
55 0.0
55 0.0
61 0.0
70 0.0
78 0.000997
80 0.0
87 0.0
94 0.0
106 0.0
123 0.0
136 0.0
148 0.0
160 0.0
173 0.0
182 0.0
192 0.000999
204 0.002046
187 0.000997
139 0.000998
88 0.000964
79 0.0
76 0.0
80 0.0
81 0.0
88 0.0
96 0.0
102 0.002006
101 0.001994
108 0.002024
116 0.002036
134 0.0
145 0.000964
157 0.0
170 0.001049
181 0.001023
193 0.000966
203 0.0
212 0.0
219 0.001993
226 0.001964
198 0.002027
149 0.001998
108 0.0
101 0.0
106 0.0
112 0.002025
117 0.002031
126 0.0
131 0.0
130 0.0
129 0.001997
131 0.002027
145 0.001994
155 0.001962
169 0.000996
177 0.000996
190 0.000944
200 0.002025
207 0.002036
218 0.0
227 0.0
222 0.0
181 0.001996
139 0.002991
116 0.001999
121 0.001977
132 0.0
140 0.0
150 0.000947
155 0.00099
153 0.001079
150 0.000968
151 0.000957
157 0.000936
168 0.002991
179 0.001997
196 0.002017
205 0.002012
216 0.0
225 0.0
150 0.0
209 0.00196
159 0.002017
114 0.0
106 0.0
110 0.0
115 0.001987
122 0.002057
135 0.002032
140 0.001996
137 0.000997
136 0.000985
140 0.0
147 0.002026
158 0.001995
172 0.0
182 0.0
192 0.0
202 0.002
215 0.0
210 0.002009
170 0.001034
109 0.0
91 0.0
88 0.0
93 0.002007
96 0.001982
100 0.0
108 0.0
113 0.0
114 0.001999
116 0.0
123 0.002005
134 0.002049
146 0.002024
160 0.0
172 0.0
184 0.0
193 0.001965
202 0.00304
213 0.000953
210 0.0
171 0.0
96 0.0
81 0.000996
80 0.002
84 0.002026
84 0.0
88 0.0
97 0.00202
102 0.002002
103 0.002026
107 0.002001
113 0.000969
122 0.0
142 0.000982
155 0.0
167 0.002041
176 0.001995
189 0.0
198 0.002029
206 0.002005
212 0.002024
203 0.002025
140 0.001986
99 0.003001
83 0.0
84 0.002038
88 0.001993
91 0.002012
98 0.002006
106 0.001052
108 0.00199
108 0.002077
110 0.003032
118 0.003064
132 0.001992
145 0.001991
156 0.0
175 0.001988
186 0.0
195 0.002993
204 0.003041
215 0.001996
223 0.00202
229 0.002014
208 0.002992
159 0.001995
108 0.0
98 0.0
100 0.0
109 0.002005
115 0.001987
120 0.002992
126 0.003036
126 0.001997
124 0.001991
130 0.002013
138 0.002992
148 0.00301
163 0.002024
175 0.001041
185 0.002039
200 0.001984
208 0.002054
217 0.002996
224 0.002992
232 0.001995
227 0.001998
188 0.002022
142 0.00408
118 0.003989
115 0.002016
120 0.001999
128 0.000954
141 0.001965
146 0.002007
144 0.002993
141 0.003038
140 0.001996
145 0.002015
155 0.001956
164 0.004027
174 0.003789
188 0.001988
197 0.001986
212 0.002029
218 0.001987
216 0.001995
180 0.002992
133 0.002992
105 0.001985
104 0.001995
109 0.002023
115 0.003006
124 0.003989
137 0.001961
139 0.001963
133 0.001995
135 0.001984
142 0.001994
150 0.003989
161 0.004033
174 0.001989
184 0.001026
193 0.001018
201 0.003005
209 0.003039
203 0.002965
160 0.002023
102 0.004043
84 0.002021
87 0.001984
90 0.001987
94 0.004
101 0.004056
111 0.002953
111 0.001997
110 0.002963
111 0.004988
115 0.004988
127 0.002953
142 0.00495
157 0.002916
167 0.001995
175 0.002045
184 0.004015
192 0.003989
169 0.002004
121 0.001981
80 0.002985
62 0.004039
59 0.004036
62 0.001984
64 0.003989
71 0.001958
77 0.002018
79 0.00301
80 0.004986
85 0.004975
95 0.002932
106 0.002981
119 0.001984
132 0.004011
142 0.003992
157 0.001969
170 0.004038
181 0.002002
187 0.003016
170 0.002992
123 0.005008
79 0.004987
55 0.002992
53 0.002958
53 0.00299
53 0.004988
55 0.003989
65 0.001987
71 0.004986
73 0.002987
78 0.003004
87 0.003015
97 0.004986
109 0.005041
127 0.003003
139 0.002999
148 0.002979
159 0.005044
168 0.005043
179 0.003041
193 0.005023
188 0.002976
147 0.001995
99 0.003026
74 0.005021
67 0.00502
69 0.002999
70 0.003001
73 0.002983
80 0.005073
86 0.004949
88 0.002994
92 0.00498
101 0.002992
112 0.002993
124 0.002994
136 0.004993
148 0.005008
163 0.003984
174 0.002996
184 0.003989
194 0.006034
200 0.004987
214 0.004987
217 0.00499
175 0.002999
127 0.002993
100 0.002989
93 0.004987
95 0.005026
99 0.003953
104 0.003994
111 0.004005
115 0.006024
114 0.005985
114 0.005036
118 0.00502
132 0.003002
143 0.002983
154 0.003006
165 0.00401
175 0.00502
186 0.002987
195 0.002989
203 0.00399
210 0.005968
205 0.006016
138 0.005984
108 0.005986
98 0.002991
102 0.003993
109 0.003029
117 0.006016
125 0.004987
131 0.00299
130 0.003977
127 0.004008
128 0.004008
136 0.005995
154 0.003999
165 0.005973
175 0.005984
188 0.004005
199 0.003018
205 0.003994
214 0.005986
207 0.006016
151 0.003946
110 0.003999
93 0.004045
91 0.007047
97 0.004984
102 0.007009
109 0.006047
117 0.004
116 0.004978
115 0.00494
116 0.007007
124 0.007041
139 0.004982
149 0.005017
161 0.005005
172 0.006025
188 0.003989
197 0.006061
203 0.006014
195 0.004
150 0.004021
102 0.004005
79 0.005982
74 0.005983
75 0.003989
77 0.004019
80 0.004966
87 0.006981
96 0.003972
97 0.007019
100 0.006981
111 0.004996
121 0.003987
135 0.004011
147 0.005991
159 0.006004
174 0.004
185 0.004944
195 0.004989
205 0.006981
214 0.004997
188 0.006982
136 0.007
86 0.004987
74 0.004984
74 0.004994
77 0.006992
76 0.007024
82 0.005951
90 0.004998
93 0.004991
95 0.006978
102 0.004986
110 0.006969
127 0.007963
138 0.004999
151 0.005006
165 0.004984
175 0.007008
185 0.006984
200 0.005001
208 0.004995
217 0.004958
224 0.006981
189 0.005985
135 0.006986
101 0.006977
89 0.005989
91 0.004987
94 0.005011
99 0.007982
107 0.007975
111 0.004969
114 0.004939
113 0.004987
121 0.004984
131 0.005036
143 0.007012
154 0.007011
170 0.004989
182 0.004991
192 0.005998
205 0.007983
211 0.007979
222 0.005984
141 0.006029
237 0.005949
212 0.005985
162 0.005024
123 0.007978
107 0.007978
110 0.006017
115 0.004982
119 0.006016
128 0.005967
133 0.007979
134 0.005985
134 0.005962
137 0.005981
148 0.005953
157 0.005997
168 0.005987
183 0.007939
194 0.007931
202 0.005019
211 0.006015
221 0.005993
231 0.007967
238 0.007958
232 0.005984
191 0.006022
128 0.005951
118 0.005986
120 0.005983
127 0.008014
138 0.007959
149 0.005985
155 0.006001
155 0.005006
150 0.007008
149 0.006949
155 0.005958
163 0.006034
181 0.005967
189 0.005973
200 0.005987
212 0.007984
220 0.007964
225 0.005016
207 0.005979
159 0.005984
112 0.006933
103 0.007014
105 0.006956
109 0.006988
124 0.006002
133 0.006062
137 0.005988
132 0.00797
130 0.007011
134 0.006952
140 0.006993
152 0.006962
164 0.007036
173 0.007013
186 0.006976
195 0.006961
183 0.006963
151 0.005948
103 0.005954
72 0.007981
69 0.006973
71 0.006979
76 0.006981
82 0.00698
88 0.00702
92 0.007017
90 0.006978
89 0.006965
100 0.006017
107 0.006982
116 0.005983
133 0.007984
145 0.00798
154 0.006972
164 0.006993
172 0.006973
148 0.006967
97 0.006981
57 0.004987
38 0.006951
36 0.00698
33 0.006981
36 0.005993
43 0.006016
49 0.006017
52 0.006995
57 0.00697
63 0.006973
72 0.006983
84 0.006978
101 0.006948
118 0.006991
132 0.006975
144 0.006975
155 0.00594
163 0.006053
153 0.006015
95 0.005975
55 0.00598
36 0.006973
31 0.007017
31 0.006986
31 0.006976
39 0.006983
47 0.006981
53 0.006974
57 0.00599
62 0.005986
70 0.006012
86 0.005943
99 0.005977
112 0.005975
125 0.005987
139 0.006019
149 0.006967
166 0.006999
178 0.006977
181 0.005978
151 0.005985
101 0.005982
68 0.006016
57 0.005985
55 0.004986
57 0.005983
60 0.005981
66 0.006019
73 0.006005
79 0.006017
81 0.004956
90 0.006001
100 0.005984
112 0.00599
126 0.005989
140 0.006018
155 0.005981
166 0.005981
176 0.006021
185 0.00598
194 0.006032
208 0.006007
209 0.00497
162 0.005017
116 0.004992
91 0.005994
85 0.00602
86 0.006019
89 0.005961
95 0.005972
101 0.005998
103 0.006036
102 0.006039
103 0.004971
110 0.004988
123 0.005025
135 0.004968
147 0.004985
158 0.006029
168 0.005988
182 0.005977
190 0.006
197 0.005981
195 0.006015
160 0.004986
99 0.005018
89 0.00498
91 0.005023
97 0.00498
105 0.005029
114 0.004965
120 0.005034
119 0.004974
117 0.005978
120 0.005991
128 0.006019
140 0.00601
159 0.004987
170 0.004982
185 0.004992
194 0.005024
204 0.005023
208 0.005022
191 0.005022
128 0.004955
94 0.004943
82 0.00499
83 0.006029
84 0.005019
93 0.004986
101 0.004987
107 0.004987
105 0.005019
104 0.005018
110 0.005016
120 0.003991
134 0.00502
147 0.005007
159 0.004023
170 0.004021
180 0.004025
196 0.004982
198 0.004986
153 0.00502
104 0.005024
78 0.004987
70 0.005022
70 0.005035
71 0.005026
75 0.004957
82 0.005019
90 0.004988
94 0.003997
95 0.003956
101 0.003993
115 0.004022
128 0.005028
142 0.005032
155 0.004947
166 0.004987
180 0.005018
191 0.004966
200 0.003991
194 0.00399
117 0.003989
79 0.003946
66 0.003986
62 0.003996
62 0.003991
62 0.003926
68 0.003993
76 0.00399
84 0.005027
86 0.004995
89 0.004988
98 0.004122
118 0.00406
132 0.003969
146 0.003959
160 0.004051
177 0.004039
187 0.004982
198 0.00399
208 0.003991
216 0.004988
195 0.003988
145 0.004027
101 0.005033
77 0.00396
77 0.004041
78 0.003948
80 0.004031
90 0.003953
97 0.004002
101 0.004015
104 0.004
108 0.003996
119 0.004015
131 0.003967
145 0.003991
167 0.003953
178 0.003993
190 0.003988
201 0.004038
215 0.004
224 0.002993
233 0.002992
242 0.004002
234 0.004035
171 0.003949
126 0.003989
105 0.004034
103 0.004004
107 0.003954
112 0.003946
120 0.003001
127 0.002996
129 0.003038
128 0.002992
132 0.003057
139 0.00399
154 0.00399
166 0.003979
179 0.003995
197 0.003988
205 0.003989
215 0.003946
224 0.002991
234 0.002994
243 0.00299
249 0.002985
237 0.002992
190 0.002992
133 0.002949
116 0.002988
115 0.003942
125 0.003938
133 0.003989
142 0.003991
147 0.003958
143 0.003964
141 0.002993
142 0.002992
148 0.003054
158 0.002986
172 0.003927
183 0.003162
195 0.003024
211 0.002963
220 0.002965
228 0.003016
228 0.001995
176 0.00399
130 0.002049
107 0.002993
103 0.003069
108 0.002996
120 0.003025
133 0.00299
146 0.002992
145 0.002987
142 0.002042
140 0.002022
144 0.002022
158 0.002028
169 0.001965
179 0.002994
190 0.002067
201 0.002992
213 0.00296
214 0.003025
140 0.003025
98 0.002996
79 0.001995
77 0.002994
81 0.001986
92 0.001994
100 0.002021
110 0.002033
113 0.001973
110 0.001995
110 0.002992
116 0.003024
133 0.002995
144 0.003031
156 0.002992
167 0.00201
178 0.002992
191 0.002993
195 0.00203
166 0.001997
107 0.001996
62 0.001996
43 0.002004
42 0.002008
46 0.002007
54 0.001983
61 0.00202
68 0.002012
70 0.002993
69 0.002968
74 0.003021
85 0.002024
97 0.002051
110 0.002068
124 0.002045
142 0.001996
157 0.001996
171 0.001995
177 0.001995
152 0.002022
95 0.002051
50 0.00194
26 0.002009
24 0.000997
24 0.001963
25 0.002018
32 0.001965
42 0.001997
51 0.001946
53 0.002024
60 0.001996
71 0.001995
83 0.001995
97 0.001995
116 0.001989
130 0.001996
142 0.002063
153 0.000998
165 0.000998
176 0.00202
159 0.002958
86 0.001995
47 0.001985
32 0.001978
30 0.000997
34 0.001995
39 0.000991
45 0.000991
54 0.001001
60 0.001036
62 0.000997
66 0.001007
79 0.001016
96 0.002032
110 0.002026
125 0.002037
139 0.002014
151 0.002021
166 0.001954
177 0.001997
187 0.002026
196 0.001034
192 0.000954
130 0.000967
70 0.00101
55 0.00196
57 0.001011
62 0.001986
67 0.002021
76 0.001996
84 0.001962
85 0.0
86 0.001995
89 0.001958
98 0.001992
117 0.000997
131 0.001996
149 0.000965
161 0.001002
174 0.002012
184 0.0
192 0.000998
204 0.0
214 0.002031
215 0.0
184 0.0
131 0.001007
83 0.001003
83 0.001033
90 0.000997
98 0.000996
107 0.0
114 0.0
116 0.001005
111 0.000992
111 0.000997
117 0.000997
127 0.000987
140 0.001019
162 0.000997
174 0.000996
188 0.000998
197 0.001027
207 0.000997
212 0.0
193 0.0
123 0.0
88 0.0
77 0.0
79 0.0
86 0.0
101 0.000994
110 0.0
115 0.000969
112 0.001034
109 0.001032
113 0.0
124 0.0
143 0.0
154 0.0
168 0.0
180 0.0
191 0.0
207 0.0
213 0.000939
197 0.0
122 0.001032
80 0.0
64 0.0
62 0.0
67 0.0
71 0.0
78 0.000947
86 0.0
91 0.0
90 0.0
94 0.0
107 0.0
119 0.0
134 0.0
147 0.0
163 0.0
171 0.0
185 0.0
196 0.0
200 0.0
174 0.0
80 0.0
51 0.000949
43 0.000948
43 0.001012
44 0.002961
48 0.000997
54 0.0
63 0.0
68 0.002035
71 0.00205
79 0.0
92 0.0
116 0.0
130 0.001005
144 0.0
157 0.002015
169 0.003039
183 0.001007
193 0.000991
202 0.000967
188 0.00203
133 0.002989
65 0.0
45 0.0
44 0.0
45 0.0
49 0.0
57 0.002024
66 0.001994
72 0.0
74 0.000962
79 0.001006
89 0.002027
101 0.002027
121 0.0
136 0.0
158 0.0
171 0.0
181 0.0
193 0.001996
202 0.001996
215 0.0
219 0.0
188 0.0
125 0.002027
82 0.002028
66 0.0
73 0.001991
77 0.0
85 0.001048
94 0.0
98 0.00202
99 0.003032
102 0.0
108 0.0
118 0.0
133 0.001995
147 0.002029
164 0.0
182 0.002036
196 0.001025
206 0.001031
215 0.000985
223 0.003021
161 0.003061
190 0.0
131 0.000999
96 0.001008
88 0.002042
94 0.002992
106 0.0
119 0.001993
132 0.0
133 0.0
129 0.001009
126 0.002053
132 0.002958
147 0.000997
159 0.0
172 0.000965
186 0.002992
197 0.003001
211 0.0
223 0.00201
232 0.001993
206 0.001018
147 0.000999
106 0.0
94 0.002032
98 0.002027
109 0.001001
118 0.0
129 0.000967
138 0.002029
140 0.002994
135 0.001998
138 0.002039
150 0.0
163 0.000941
177 0.000978
191 0.00198
202 0.00203
217 0.001972
227 0.0
236 0.0
226 0.002032
173 0.002029
95 0.002978
84 0.003048
90 0.001003
97 0.0
103 0.0
111 0.003006
119 0.001995
122 0.0
119 0.0
121 0.0
130 0.001969
142 0.001998
165 0.002994
177 0.002993
193 0.0
204 0.0
213 0.0
222 0.003013
220 0.003011
153 0.0
98 0.0
73 0.0
69 0.002024
74 0.002035
81 0.001993
87 0.00296
99 0.0
104 0.000965
105 0.000947
107 0.002956
115 0.002993
131 0.002994
145 0.002029
159 0.0
175 0.003049
186 0.003991
206 0.003991
215 0.00297
167 0.000958
229 0.0
185 0.002016
124 0.003024
86 0.002993
73 0.0
78 0.000969
82 0.0
85 0.003031
98 0.0
104 0.003042
107 0.002985
109 0.002979
116 0.003009
127 0.002994
140 0.002993
155 0.003005
172 0.002004
186 0.002983
198 0.001993
209 0.003013
225 0.00095
234 0.004005
241 0.004026
203 0.003002
140 0.003004
98 0.0
86 0.002993
88 0.003001
98 0.003
105 0.002987
112 0.000999
120 0.004041
121 0.000969
121 0.004017
126 0.00399
137 0.001983
150 0.000957
165 0.000965
177 0.002952
189 0.003003
206 0.001989
216 0.001986
226 0.002031
235 0.002996
248 0.001042
249 0.003988
209 0.003959
129 0.002993
102 0.002045
98 0.00299
106 0.003988
114 0.004016
126 0.002002
135 0.002004
140 0.001997
136 0.002993
132 0.00202
138 0.002993
149 0.00399
161 0.004038
178 0.0
191 0.002999
201 0.001991
212 0.004032
222 0.003997
233 0.001994
235 0.002002
201 0.002041
114 0.000993
98 0.003039
100 0.003958
110 0.003986
125 0.003027
136 0.000974
149 0.002987
150 0.004033
144 0.003998
140 0.003001
146 0.002035
156 0.003001
176 0.0
188 0.000959
200 0.004987
210 0.00401
224 0.002032
233 0.0
223 0.001978
167 0.004043
110 0.003989
80 0.001993
82 0.002982
90 0.003998
102 0.002
111 0.001984
119 0.005024
119 0.004956
114 0.002988
114 0.001998
123 0.002002
134 0.004043
147 0.004031
166 0.002032
177 0.001998
187 0.00202
203 0.002994
210 0.001988
184 0.00502
120 0.005041
63 0.001994
53 0.003023
55 0.002027
59 0.004986
64 0.004017
72 0.001978
79 0.001992
83 0.001991
83 0.003988
88 0.002945
97 0.005984
110 0.004985
129 0.003002
140 0.002934
153 0.003041
163 0.004987
174 0.005007
185 0.002963
172 0.002975
77 0.002035
38 0.003028
26 0.003001
25 0.004989
25 0.004989
27 0.002981
35 0.002993
45 0.002999
53 0.005027
57 0.004035
62 0.002997
71 0.002952
94 0.002988
109 0.002985
123 0.004017
137 0.005961
149 0.006043
165 0.003032
175 0.002961
184 0.002946
169 0.005984
113 0.005984
47 0.003011
29 0.003002
29 0.002993
30 0.002959
31 0.002963
39 0.005021
50 0.004982
56 0.003967
60 0.003964
66 0.003993
76 0.00502
89 0.005984
109 0.003016
124 0.003026
149 0.003
162 0.002995
172 0.002951
183 0.007015
194 0.00499
208 0.002961
208 0.003959
169 0.003985
104 0.00502
66 0.005019
55 0.004012
60 0.00401
66 0.005984
75 0.003058
85 0.004022
91 0.003027
92 0.006984
92 0.006013
103 0.004013
114 0.003958
129 0.002996
144 0.005987
159 0.006031
176 0.003023
192 0.005956
205 0.003979
215 0.00297
224 0.003039
234 0.006953
235 0.006983
177 0.00404
117 0.003958
88 0.003999
84 0.006025
92 0.006052
101 0.004012
111 0.005987
123 0.003958
124 0.003001
119 0.004014
119 0.007015
128 0.006982
144 0.004014
157 0.004034
171 0.004031
185 0.007032
196 0.007075
210 0.003999
222 0.00604
229 0.004986
194 0.004042
134 0.003992
97 0.006981
88 0.006985
97 0.005
107 0.004014
119 0.005009
131 0.006961
140 0.007032
137 0.004006
130 0.007015
137 0.003991
148 0.003977
161 0.00398
176 0.006023
189 0.005987
204 0.004951
215 0.004982
226 0.004987
228 0.00701
186 0.007017
93 0.006982
76 0.007035
78 0.004003
86 0.003989
92 0.003994
103 0.008015
111 0.007951
115 0.003957
113 0.004987
112 0.005001
118 0.006988
131 0.006988
154 0.006983
170 0.006982
186 0.005011
198 0.004993
210 0.004006
215 0.006984
169 0.007974
105 0.004991
63 0.004973
50 0.004998
51 0.007076
56 0.007036
65 0.007015
74 0.007014
82 0.005943
85 0.004016
86 0.004962
93 0.007041
109 0.007965
124 0.004992
140 0.004967
155 0.004967
168 0.00702
181 0.007971
203 0.007991
209 0.007981
176 0.004947
110 0.005997
59 0.004986
40 0.007023
38 0.007982
43 0.004989
46 0.006056
52 0.004989
62 0.004988
70 0.007015
75 0.005003
83 0.007987
95 0.007981
109 0.004985
124 0.003994
141 0.005011
156 0.007995
174 0.007979
188 0.005959
200 0.005004
210 0.004981
213 0.006978
146 0.005955
72 0.007983
55 0.007979
52 0.005954
57 0.005953
64 0.005972
73 0.007948
84 0.006981
92 0.006025
95 0.005034
96 0.004995
105 0.006975
122 0.005927
144 0.007992
160 0.007983
174 0.005948
188 0.006981
201 0.005938
212 0.00798
221 0.00798
235 0.005928
241 0.005954
215 0.005955
150 0.007957
83 0.005947
81 0.007931
89 0.007944
101 0.005982
109 0.005984
118 0.005929
124 0.006926
120 0.007015
119 0.006023
123 0.005992
135 0.005995
154 0.006986
172 0.005952
185 0.007969
202 0.007996
212 0.005956
223 0.006953
229 0.006952
180 0.006983
118 0.00697
87 0.006961
82 0.005964
91 0.005977
109 0.005951
123 0.005949
138 0.006938
139 0.006972
131 0.006987
132 0.006978
137 0.006949
153 0.006957
167 0.00695
187 0.006976
200 0.006949
208 0.005978
190 0.006037
190 0.006009
185 0.005984
118 0.006982
74 0.005979
73 0.006031
81 0.006027
88 0.00699
96 0.007011
108 0.006949
120 0.006955
118 0.006974
115 0.005949
122 0.005984
138 0.007014
152 0.006982
171 0.005966
186 0.005954
198 0.005972
210 0.00599
221 0.005984
212 0.006975
174 0.006977
106 0.006978
55 0.006978
59 0.006967
68 0.006967
75 0.005995
88 0.006018
97 0.006015
102 0.006973
102 0.005955
104 0.005976
113 0.004987
130 0.005988
140 0.006961
166 0.006951
186 0.005965
200 0.005979
211 0.005992
223 0.005985
190 0.005961
191 0.005983
121 0.004999
73 0.006003
56 0.006005
58 0.005983
65 0.005978
73 0.00698
82 0.006014
91 0.006014
96 0.005985
98 0.005992
105 0.005982
117 0.006034
132 0.005944
148 0.005988
163 0.006013
183 0.005983
196 0.005987
216 0.005016
227 0.004982
237 0.004987
231 0.006029
177 0.005972
95 0.005962
71 0.005982
69 0.006004
78 0.005935
86 0.006007
96 0.005981
106 0.00598
114 0.004974
113 0.004982
116 0.004943
125 0.004999
137 0.005031
156 0.004963
171 0.006017
187 0.005933
200 0.006013
214 0.006002
180 0.005983
239 0.004987
254 0.004989
240 0.004987
176 0.004979
114 0.004988
88 0.004962
90 0.00502
99 0.004982
109 0.005023
121 0.004973
132 0.005013
138 0.00499
136 0.004993
138 0.004983
148 0.00503
159 0.005012
174 0.004988
187 0.004957
205 0.004971
218 0.00498
180 0.00501
241 0.004969
251 0.003962
255 0.004959
232 0.00499
143 0.005009
106 0.004986
99 0.004989
106 0.004963
118 0.004954
135 0.004986
147 0.006005
155 0.003955
154 0.004008
147 0.00402
148 0.00399
159 0.004001
177 0.004957
190 0.004976
203 0.004934
215 0.004944
227 0.003953
241 0.00399
189 0.005016
174 0.004985
139 0.00394
116 0.003997
110 0.004026
116 0.003943
124 0.00398
132 0.004996
138 0.004061
140 0.004986
138 0.005014
135 0.004971
137 0.004987
142 0.003979
148 0.003978
155 0.003988
162 0.003944
172 0.003961
178 0.003991
163 0.004022
127 0.003949
104 0.003955
96 0.003988
97 0.003987
103 0.004017
107 0.003994
113 0.003947
119 0.003957
120 0.003989
116 0.004027
118 0.003992
124 0.003994
131 0.003992
138 0.004005
145 0.003951
151 0.003915
159 0.003989
162 0.003951
146 0.004019
110 0.004978
85 0.003989
75 0.002979
77 0.00298
81 0.002957
84 0.002959
89 0.003958
93 0.00396
94 0.003983
94 0.004025
97 0.003988
104 0.004033
112 0.004004
120 0.00399
132 0.003951
138 0.003993
147 0.003974
151 0.002995
137 0.002996
103 0.002952
76 0.002992
62 0.003989
62 0.004001
63 0.00398
63 0.003994
65 0.003989
74 0.004038
77 0.00399
80 0.002954
83 0.002994
89 0.002993
97 0.00299
106 0.002998
116 0.00296
124 0.002987
130 0.003941
137 0.002986
142 0.003991
140 0.002991
111 0.002924
73 0.002998
62 0.002965
61 0.003026
63 0.003987
64 0.002011
68 0.002964
75 0.002961
79 0.002994
81 0.002993
85 0.002994
91 0.002993
99 0.002042
110 0.002988
119 0.002993
127 0.002992
135 0.001974
141 0.001975
149 0.001966
154 0.002036
160 0.001974
165 0.002027
136 0.002978
103 0.002992
84 0.001995
80 0.003015
83 0.002987
85 0.002989
87 0.003025
92 0.003021
97 0.003019
98 0.002993
98 0.002992
102 0.001994
113 0.001997
122 0.002026
130 0.001994
140 0.002025
147 0.001994
152 0.002992
157 0.002004
162 0.002984
168 0.003008
173 0.003008
171 0.002962
147 0.002978
102 0.002007
96 0.001998
98 0.002024
103 0.002007
108 0.001964
113 0.003004
118 0.002029
117 0.001992
115 0.002131
116 0.002928
122 0.002016
129 0.001989
142 0.001996
149 0.00196
155 0.002033
160 0.001996
167 0.002024
172 0.001954
176 0.001995
171 0.002024
143 0.001998
107 0.001027
98 0.000976
100 0.001959
106 0.001959
110 0.001995
116 0.001998
120 0.001972
119 0.002036
117 0.002002
120 0.001984
125 0.001966
132 0.002023
144 0.000995
150 0.001955
157 0.001029
167 0.000997
172 0.000988
177 0.001933
181 0.000997
162 0.001998
128 0.002002
103 0.002005
95 0.002025
96 0.002
100 0.002023
102 0.001989
107 0.001994
115 0.001036
116 0.002007
116 0.000998
119 0.001996
127 0.001999
135 0.001959
144 0.000991
152 0.002043
159 0.001971
168 0.001976
173 0.00299
201 0.00095
212 0.002001
216 0.001038
190 0.000998
138 0.002029
95 0.000997
87 0.001
89 0.002026
93 0.00203
96 0.001014
101 0.001993
108 0.001013
114 0.001031
116 0.000997
120 0.000994
129 0.000997
141 0.000944
157 0.001038
169 0.00198
180 0.0
190 0.00103
199 0.0
210 0.001027
218 0.002024
229 0.001011
219 0.0
172 0.001018
128 0.0
107 0.000989
106 0.001009
112 0.001995
117 0.001025
123 0.000953
128 0.001032
135 0.0
135 0.000998
137 0.000998
145 0.001003
153 0.0
164 0.0
176 0.001047
190 0.0
199 0.001034
209 0.001049
216 0.000984
222 0.0
232 0.000998
238 0.001995
219 0.0
169 0.0
140 0.0
133 0.0
135 0.0
139 0.0
143 0.0
146 0.0
149 0.000997
149 0.0
145 0.000996
142 0.0
150 0.0
162 0.0
173 0.0
183 0.0
192 0.0
200 0.0
211 0.0
218 0.0
222 0.0
202 0.000961
155 0.0
116 0.0
115 0.0
125 0.0
133 0.0
143 0.0
151 0.0
155 0.0
150 0.0
145 0.0
148 0.0
156 0.0
165 0.000968
179 0.001025
191 0.000997
204 0.000994
212 0.000963
216 0.00106
193 0.001994
142 0.0
103 0.002014
100 0.0
107 0.0
113 0.000962
121 0.0
130 0.003068
137 0.0
133 0.002013
130 0.001991
137 0.000977
144 0.0
154 0.0
165 0.002997
175 0.002996
187 0.0
195 0.0
203 0.0
202 0.001995
132 0.000965
94 0.003006
80 0.002995
84 0.0
89 0.000988
94 0.0
99 0.002959
106 0.003002
111 0.0
111 0.000991
111 0.0
116 0.000945
132 0.001001
143 0.00103
154 0.001994
168 0.001
176 0.001022
185 0.000967
194 0.00399
198 0.003989
159 0.0
107 0.0
79 0.001008
72 0.0
75 0.0
79 0.001976
81 0.00199
88 0.000998
95 0.001024
98 0.0
99 0.001984
103 0.002996
114 0.0
124 0.000966
136 0.000959
154 0.0
164 0.0
173 0.00401
182 0.002016
192 0.00101
191 0.0
156 0.001004
107 0.001994
80 0.003015
74 0.0
79 0.0
82 0.0
89 0.0
97 0.0
101 0.002993
102 0.002023
104 0.000957
110 0.0
119 0.0
129 0.00197
141 0.002988
156 0.0
166 0.000996
175 0.0
189 0.000956
197 0.0
203 0.002991
206 0.004025
180 0.003994
115 0.000993
89 0.000983
85 0.0
89 0.002998
95 0.002026
100 0.0
107 0.000985
112 0.0
111 0.0
111 0.0
115 0.003043
124 0.00303
138 0.0
149 0.000934
160 0.0
170 0.002972
177 0.002984
187 0.00096
194 0.000982
205 0.0
204 0.0
169 0.000971
122 0.003988
98 0.002992
94 0.0
102 0.001012
109 0.001051
115 0.004014
123 0.004987
128 0.000982
124 0.000968
120 0.0
126 0.000972
136 0.001002
146 0.003022
157 0.002028
171 0.000966
179 0.001993
187 0.000955
194 0.002992
201 0.003025
196 0.0
153 0.000949
93 0.0
88 0.0
93 0.00103
100 0.001997
106 0.001997
116 0.000958
122 0.000959
122 0.000952
117 0.002037
117 0.001997
125 0.0
134 0.00097
152 0.0
163 0.0
172 0.0
180 0.002992
188 0.003014
199 0.00101
201 0.000996
173 0.000969
122 0.003034
88 0.00207
76 0.000966
81 0.002996
87 0.00096
93 0.0
99 0.0
103 0.002992
103 0.002931
101 0.000964
106 0.000949
115 0.000965
127 0.003006
139 0.004006
154 0.0
167 0.002988
178 0.002992
184 0.002987
193 0.0
198 0.002993
187 0.002934
121 0.0
84 0.001042
71 0.000972
72 0.003988
76 0.003955
78 0.000953
83 0.003026
92 0.002023
95 0.00307
94 0.002989
98 0.003948
106 0.004004
119 0.001027
131 0.004015
144 0.003023
154 0.003952
164 0.003973
177 0.001
188 0.003032
198 0.002036
205 0.001006
206 0.000972
172 0.003982
118 0.004041
81 0.000955
77 0.000995
80 0.001028
84 0.002988
86 0.003988
91 0.003996
101 0.002962
102 0.003959
102 0.002992
107 0.000951
116 0.0
127 0.003989
138 0.003989
154 0.0
165 0.0
174 0.0
184 0.003005
192 0.004019
205 0.003961
211 0.004044
220 0.00199
222 0.0
190 0.0
135 0.002968
100 0.005028
90 0.001047
94 0.0
99 0.0
103 0.004989
109 0.004972
115 0.005033
113 0.005001
111 0.00299
115 0.000959
123 0.0
133 0.003962
144 0.003992
157 0.002028
167 0.002998
175 0.001992
181 0.005019
185 0.005028
194 0.005025
195 0.005042
152 0.003001
107 0.002989
83 0.0
79 0.004054
84 0.003954
92 0.001995
99 0.001042
107 0.0
112 0.005057
111 0.004023
107 0.003975
111 0.00399
121 0.003009
130 0.001983
142 0.002995
154 0.005038
165 0.004046
179 0.002992
189 0.002994
195 0.003002
202 0.005041
206 0.004009
183 0.005029
132 0.004035
84 0.001996
77 0.002986
81 0.002993
89 0.004981
94 0.004985
99 0.003
102 0.003981
103 0.003991
100 0.004986
103 0.002992
112 0.004987
122 0.004999
134 0.002994
145 0.004979
155 0.004007
163 0.005014
170 0.00505
183 0.004019
189 0.004057
171 0.002988
124 0.005039
77 0.00299
76 0.004922
82 0.005029
94 0.002991
104 0.003998
114 0.002992
121 0.005048
123 0.006057
120 0.003978
121 0.002987
128 0.004003
137 0.005986
156 0.002957
167 0.004991
176 0.005026
188 0.002955
189 0.003004
161 0.002066
112 0.005023
83 0.004905
76 0.002965
82 0.003979
88 0.001997
96 0.005023
106 0.002032
105 0.005066
98 0.005001
97 0.002986
103 0.003001
110 0.003026
122 0.006021
132 0.00602
143 0.003043
152 0.005001
152 0.002036
116 0.00402
46 0.001986
32 0.003021
33 0.005023
36 0.005032
40 0.002941
46 0.002989
54 0.004041
56 0.006007
53 0.006019
56 0.003975
63 0.003974
74 0.003988
92 0.002996
102 0.003006
112 0.006017
119 0.005984
82 0.003987
35 0.004947
5 0.003008
0 0.006004
0 0.005984
2 0.003954
5 0.003939
14 0.003961
27 0.002959
29 0.001977
34 0.007019
42 0.006957
58 0.004964
70 0.003992
82 0.004025
93 0.007047
104 0.007004
109 0.003962
78 0.004992
30 0.005025
0 0.00399
0 0.004987
0 0.005983
2 0.006015
14 0.003031
26 0.003993
35 0.003982
40 0.007008
44 0.007015
57 0.003959
70 0.004004
83 0.003985
102 0.004031
114 0.003984
124 0.005985
133 0.006015
137 0.003993
107 0.003983
58 0.004025
32 0.007044
29 0.007022
31 0.004991
31 0.003962
42 0.004023
54 0.004022
62 0.002993
66 0.006984
70 0.007014
82 0.003957
93 0.004065
107 0.004994
119 0.007017
129 0.007041
142 0.003951
151 0.004987
164 0.004007
172 0.004984
181 0.003956
190 0.006981
164 0.007921
116 0.005002
90 0.005014
86 0.004987
89 0.00695
89 0.006983
88 0.005008
95 0.004003
110 0.004009
114 0.003988
116 0.003985
122 0.006981
132 0.006983
146 0.004987
155 0.004962
166 0.004988
174 0.007948
183 0.007948
193 0.004956
199 0.005001
212 0.004999
219 0.004065
209 0.005019
172 0.007015
137 0.006982
131 0.005019
136 0.004992
138 0.004937
137 0.004955
142 0.007981
152 0.004954
156 0.004992
158 0.007962
164 0.005004
172 0.004947
180 0.004009
190 0.006983
197 0.00705
208 0.005007
215 0.004945
220 0.005125
226 0.007981
234 0.007957
240 0.004034
249 0.007975
231 0.005036
194 0.003986
165 0.004947
162 0.007948
168 0.007979
173 0.004996
173 0.005032
176 0.004977
183 0.007977
185 0.007975
185 0.004985
188 0.007979
197 0.005015
204 0.004996
211 0.004934
218 0.007974
225 0.007981
231 0.004952
237 0.005013
243 0.004987
247 0.00795
253 0.007978
255 0.005955
255 0.007974
226 0.005956
189 0.006
175 0.004978
180 0.006951
186 0.006986
190 0.005984
192 0.004986
195 0.004987
200 0.007978
201 0.007978
199 0.005985
204 0.006987
210 0.005998
217 0.006005
224 0.005995
231 0.007029
236 0.006975
240 0.005954
187 0.005986
189 0.005955
192 0.00701
194 0.006948
197 0.007966
195 0.006966
180 0.004997
164 0.004987
157 0.006001
160 0.006971
163 0.006984
166 0.006006
168 0.005996
170 0.005983
171 0.007011
169 0.006967
168 0.007945
170 0.007044
173 0.00499
176 0.00601
179 0.005996
182 0.006933
184 0.006987
186 0.005992
187 0.005984
189 0.005955
191 0.00697
188 0.00698
164 0.006981
155 0.006981
155 0.005972
160 0.005987
162 0.005985
165 0.006014
167 0.006972
169 0.005986
168 0.005993
166 0.005943
166 0.007028
169 0.007026
174 0.006982
176 0.006977
180 0.005977
182 0.005983
184 0.005964
185 0.005975
187 0.006017
188 0.005951
190 0.006948
186 0.005985
164 0.00703
153 0.006927
151 0.006984
155 0.006988
156 0.005984
157 0.00592
159 0.005974
160 0.005972
160 0.006011
159 0.005986
159 0.005984
161 0.004835
224 0.006006
232 0.007008
239 0.005984
189 0.006985
191 0.006982
194 0.005984
196 0.005984
197 0.006015
199 0.004972
200 0.006034
183 0.005984
162 0.005984
150 0.006014
149 0.005943
155 0.005964
157 0.005997
158 0.006015
160 0.005978
162 0.005976
161 0.005975
160 0.005985
161 0.005967
164 0.00598
168 0.006012
170 0.005977
174 0.005981
179 0.006042
181 0.005942
183 0.005982
185 0.005674
187 0.004987
189 0.004988
190 0.005986
178 0.006023
152 0.006094
144 0.006018
144 0.005971
147 0.005981
151 0.005981
152 0.006012
154 0.006082
154 0.006013
153 0.005984
152 0.005955
