144 0.030997
146 0.0
141 0.000967
81 0.002014
43 0.001963
65 0.002979
100 0.004951
115 0.006798
119 0.00699
124 0.006949
124 0.006006
125 0.005972
132 0.005984
137 0.005991
143 0.005984
145 0.005984
146 0.00603
148 0.006013
149 0.004987
151 0.005983
141 0.00303
96 0.003989
35 0.001999
60 0.001015
85 0.001007
106 0.000965
115 0.001995
120 0.002997
121 0.003003
123 0.002993
126 0.002993
133 0.003162
138 0.004859
141 0.006951
143 0.007944
145 0.007977
145 0.007946
148 0.007979
150 0.006981
143 0.007976
71 0.006973
40 0.00701
71 0.004961
102 0.002977
111 0.003025
119 0.001995
122 0.0
122 0.0
124 0.0
133 0.001977
137 0.001996
141 0.004068
144 0.005984
144 0.005951
146 0.005957
147 0.006984
150 0.00688
142 0.006956
69 0.006951
43 0.006982
65 0.006981
100 0.005035
111 0.00503
121 0.00399
123 0.003989
123 0.002967
124 0.002039
130 0.001047
136 0.001992
142 0.000998
143 0.0
145 0.0
149 0.002019
150 0.001997
151 0.002993
153 0.004031
154 0.003977
122 0.004022
51 0.005984
40 0.006951
64 0.007934
98 0.006189
105 0.004997
112 0.00402
116 0.003024
118 0.004013
122 0.000999
128 0.0
131 0.0
135 0.0
139 0.000962
141 0.001012
145 0.001995
146 0.002993
148 0.005004
149 0.004967
152 0.004945
150 0.007048
87 0.006941
59 0.006981
63 0.005985
93 0.006013
107 0.005026
117 0.00504
120 0.00698
120 0.002964
119 0.00311
126 0.0
131 0.000998
137 0.0
142 0.0
144 0.001006
147 0.003958
148 0.002993
150 0.002993
138 0.004036
98 0.003994
39 0.00399
69 0.005985
95 0.007027
103 0.005954
114 0.004974
117 0.006016
119 0.003117
120 0.002993
124 0.003016
135 0.001994
141 0.0
143 0.001006
146 0.0
147 0.002031
150 0.001995
151 0.002992
154 0.003972
151 0.003962
92 0.003988
38 0.003991
52 0.00399
91 0.00386
107 0.006982
110 0.007978
115 0.006982
117 0.006981
118 0.006982
123 0.006981
129 0.004986
134 0.004996
141 0.003023
142 0.002001
146 0.001997
147 0.001002
148 0.002038
151 0.000992
106 0.000968
62 0.00101
57 0.000998
74 0.000984
103 0.0
113 0.000971
117 0.000965
117 0.000966
118 0.000999
120 0.000965
129 0.001996
133 0.000999
138 0.001995
139 0.001957
141 0.001974
145 0.002014
147 0.002962
103 0.002958
40 0.003954
41 0.003958
72 0.003984
96 0.005007
104 0.00595
113 0.006095
114 0.006981
114 0.007975
118 0.006979
125 0.007979
135 0.005978
140 0.007028
141 0.007017
144 0.00599
147 0.007015
146 0.005985
152 0.004983
145 0.004982
60 0.004962
26 0.006018
44 0.003989
75 0.003042
93 0.002992
100 0.001995
111 0.000998
113 0.000998
115 0.001996
122 0.003957
133 0.006015
138 0.005985
143 0.007061
146 0.006981
148 0.006963
151 0.006982
153 0.007028
155 0.005015
159 0.00404
112 0.002009
57 0.001993
43 0.003025
81 0.003028
101 0.001039
108 0.001994
115 0.001995
118 0.001001
118 0.001023
120 0.001027
131 0.000998
138 0.000997
142 0.000999
143 0.000998
146 0.000998
150 0.000998
123 0.001013
69 0.000998
38 0.001994
72 0.001995
92 0.003026
108 0.003951
116 0.003998
122 0.004955
123 0.006069
127 0.006017
134 0.00699
144 0.006986
148 0.006982
153 0.006971
155 0.007979
158 0.006981
160 0.00601
162 0.004976
163 0.003937
167 0.001995
161 0.001014
121 0.001035
34 0.001036
33 0.0
63 0.001004
96 0.001995
102 0.001996
112 0.001995
120 0.002036
123 0.001995
128 0.002801
138 0.004987
144 0.005041
150 0.006053
153 0.007025
156 0.006986
158 0.007015
161 0.007015
163 0.007005
163 0.007011
164 0.006941
167 0.006982
137 0.006982
83 0.007018
51 0.005034
82 0.004196
101 0.003989
117 0.001976
123 0.001995
126 0.001032
125 0.0
127 0.0
136 0.0
144 0.000998
146 0.004023
150 0.000942
152 0.002992
154 0.004986
158 0.005981
159 0.005984
138 0.005903
66 0.005982
40 0.006069
62 0.006017
99 0.006021
109 0.005951
120 0.005984
126 0.006168
125 0.006997
128 0.00598
132 0.005984
139 0.007973
148 0.006013
150 0.007007
154 0.005984
157 0.005017
159 0.004017
160 0.004014
163 0.005017
147 0.003972
71 0.004022
32 0.002027
53 0.003023
95 0.003026
107 0.001055
118 0.001031
125 0.0
125 0.0
126 0.000998
133 0.001033
139 0.001989
147 0.00399
152 0.005986
155 0.00697
158 0.006949
160 0.007019
160 0.006017
164 0.005982
140 0.005019
86 0.00402
45 0.004026
77 0.002035
106 0.000998
119 0.000964
128 0.001003
128 0.000989
125 0.000996
127 0.00101
133 0.000997
141 0.001008
146 0.001001
150 0.000997
152 0.000997
154 0.001006
157 0.000992
159 0.000991
139 0.000999
47 0.001003
32 0.001004
67 0.001995
92 0.001995
110 0.001994
121 0.001994
123 0.001995
123 0.001995
126 0.003988
134 0.003977
142 0.004026
147 0.004023
152 0.006859
155 0.006989
156 0.006986
158 0.007227
160 0.006977
160 0.006988
96 0.006022
28 0.006017
36 0.005029
83 0.003994
99 0.004022
113 0.002982
122 0.004044
124 0.003034
126 0.003994
131 0.004023
140 0.002991
146 0.003985
151 0.001974
155 0.001995
157 0.000998
159 0.0
161 0.0
164 0.001005
149 0.000998
79 0.002857
40 0.002992
63 0.00299
103 0.002936
113 0.002971
124 0.004955
126 0.005928
124 0.007019
126 0.007042
134 0.005984
143 0.005024
147 0.004028
150 0.002979
153 0.002027
154 0.002026
155 0.0
153 0.0
119 0.0
34 0.0
35 0.001995
78 0.002996
102 0.00399
115 0.005992
120 0.005985
119 0.006009
119 0.007014
121 0.006987
130 0.007014
139 0.006981
146 0.005982
150 0.004021
151 0.00399
153 0.002004
157 0.0
158 0.000998
150 0.000969
33 0.0
26 0.001016
67 0.002057
98 0.004001
105 0.003993
115 0.004023
119 0.004028
121 0.00399
124 0.004024
133 0.003987
141 0.004041
148 0.004986
151 0.006026
154 0.005983
156 0.007996
156 0.00702
160 0.005031
131 0.003931
72 0.002967
40 0.001013
74 0.002009
102 0.0
112 0.0
121 0.0
122 0.0
121 0.0
122 0.0
133 0.001995
141 0.001006
146 0.002008
149 0.002026
152 0.001997
153 0.001976
156 0.001996
158 0.001961
126 0.001997
37 0.002004
34 0.001999
75 0.002909
96 0.002946
111 0.002961
119 0.002996
120 0.003985
120 0.004976
127 0.005019
135 0.005021
144 0.004986
148 0.004977
152 0.004986
155 0.00498
158 0.004996
161 0.005011
165 0.007029
161 0.00795
59 0.007981
30 0.007976
43 0.007979
85 0.006951
100 0.007973
111 0.00698
119 0.005947
121 0.004997
123 0.005016
128 0.00517
139 0.00502
147 0.003039
153 0.001999
157 0.002028
160 0.003031
161 0.001017
162 0.001996
164 0.001996
148 0.001992
58 0.000997
40 0.0
76 0.0
104 0.002992
116 0.003021
125 0.002992
127 0.003003
125 0.003026
129 0.005035
138 0.005979
144 0.006989
150 0.007026
153 0.00701
155 0.007014
157 0.007024
159 0.007013
161 0.006981
119 0.006941
60 0.007001
43 0.007017
70 0.00701
106 0.00499
117 0.005984
125 0.00502
128 0.004596
126 0.003019
130 0.002029
140 0.00204
149 0.000986
152 0.0
156 0.0
159 0.0
160 0.0
161 0.0
163 0.0
164 0.0
96 0.000998
43 0.000997
43 0.002992
87 0.004033
102 0.00499
113 0.007962
119 0.007979
122 0.00697
123 0.007945
128 0.007979
135 0.007017
139 0.0
155 0.005022
159 0.00402
160 0.003967
161 0.000992
164 0.002029
162 0.001996
72 0.000956
43 0.0
61 0.000985
102 0.001995
118 0.003025
123 0.003053
127 0.00498
126 0.005008
128 0.005022
137 0.005989
144 0.006027
149 0.005993
152 0.007015
155 0.007015
155 0.007983
157 0.007978
159 0.007979
126 0.007978
45 0.007019
42 0.007014
74 0.006987
102 0.006982
118 0.005985
125 0.005987
124 0.005987
124 0.006036
131 0.004024
138 0.003987
146 0.003021
150 0.003982
154 0.003027
156 0.003989
158 0.002994
161 0.003992
162 0.002991
140 0.00203
46 0.0
32 0.001009
63 0.000968
92 0.000995
105 0.000952
113 0.002993
118 0.001946
118 0.001964
123 0.003993
133 0.005029
139 0.004988
148 0.007034
151 0.007966
156 0.006001
158 0.005999
160 0.005987
163 0.005983
163 0.003988
121 0.004989
52 0.004027
47 0.005025
82 0.003933
105 0.005129
118 0.004021
123 0.00402
126 0.004026
125 0.004026
128 0.002974
138 0.000998
143 0.001986
148 0.001046
152 0.001005
153 0.000963
154 0.0
158 0.0
154 0.001999
81 0.002043
43 0.001996
60 0.001992
99 0.002002
110 0.002029
121 0.002962
124 0.00296
122 0.003986
125 0.005031
135 0.007017
140 0.00699
147 0.006982
150 0.006981
153 0.00701
154 0.007014
157 0.007077
160 0.004022
159 0.00399
126 0.003023
38 0.00297
42 0.002991
67 0.001962
97 0.000998
106 0.002017
113 0.001995
116 0.001995
118 0.0
123 0.000999
133 0.001063
140 0.001047
147 0.0
150 0.00103
153 0.000998
155 0.002958
158 0.003043
160 0.003017
161 0.004029
136 0.00399
51 0.003973
52 0.00399
80 0.004025
106 0.003965
113 0.004004
122 0.004044
124 0.006018
123 0.006037
126 0.006003
136 0.00498
143 0.004026
148 0.002002
150 0.002991
152 0.001034
154 0.000998
158 0.0
160 0.0
54 0.000999
41 0.002054
72 0.001995
103 0.004044
111 0.005021
121 0.005873
121 0.00598
121 0.006943
127 0.00695
137 0.007001
143 0.007041
149 0.007013
151 0.006986
153 0.006982
156 0.00701
158 0.006981
160 0.007018
161 0.006935
108 0.005018
39 0.006982
37 0.005988
70 0.007017
99 0.006979
105 0.005984
116 0.006199
118 0.005948
121 0.00599
127 0.005004
134 0.00599
145 0.004157
151 0.006025
156 0.003992
159 0.001051
161 0.000994
161 0.000998
167 0.001995
159 0.001995
120 0.001997
45 0.002966
50 0.002959
92 0.002992
110 0.002992
119 0.004989
126 0.005017
126 0.005016
126 0.006019
131 0.007942
141 0.006944
145 0.007935
150 0.007014
151 0.00798
156 0.004983
141 0.004988
98 0.004993
48 0.003989
80 0.003027
101 0.002989
119 0.001991
127 0.003991
127 0.00199
125 0.001995
127 0.001028
136 0.002004
147 0.002029
151 0.002995
155 0.002042
157 0.0
159 0.001008
163 0.0
165 0.001031
154 0.0
80 0.000998
31 0.0
44 0.000992
86 0.000998
99 0.001007
111 0.001995
116 0.003001
121 0.002999
123 0.005018
131 0.006983
136 0.007036
146 0.007045
151 0.007013
155 0.007012
157 0.007966
160 0.006985
163 0.007946
163 0.006015
138 0.005035
47 0.004981
36 0.004987
73 0.005021
104 0.004007
112 0.003024
123 0.0
126 0.0
126 0.0
132 0.001962
142 0.002991
148 0.003988
155 0.004007
158 0.005984
160 0.006853
162 0.006981
165 0.006981
166 0.004957
118 0.002991
54 0.001973
64 0.001998
92 0.000995
117 0.0
127 0.001009
131 0.001006
128 0.000997
128 0.002005
135 0.002992
145 0.005032
150 0.005025
156 0.005024
159 0.004928
160 0.005963
153 0.005979
94 0.006979
48 0.006968
56 0.007043
92 0.006979
111 0.004973
123 0.005022
129 0.003951
128 0.004987
129 0.004987
133 0.004986
144 0.004998
153 0.002979
155 0.002993
159 0.00198
160 0.003051
161 0.000985
161 0.0
131 0.0
52 0.0
36 0.0
60 0.0
97 0.0
106 0.0
118 0.0
122 0.0
122 0.0
127 0.0
138 0.001996
144 0.001995
150 0.004013
154 0.005984
158 0.006945
160 0.006885
162 0.007021
165 0.007016
156 0.006981
70 0.006057
40 0.007187
68 0.005022
95 0.007025
115 0.005977
125 0.003947
125 0.003046
124 0.00201
127 0.001056
133 0.001044
141 0.0
149 0.000998
151 0.000994
153 0.002992
156 0.00399
159 0.004024
149 0.004028
86 0.004005
42 0.003846
61 0.004037
96 0.006969
113 0.007015
126 0.006975
128 0.006942
125 0.007013
127 0.007039
134 0.007985
143 0.006985
148 0.007951
153 0.005979
156 0.006008
157 0.005987
158 0.003983
162 0.003992
144 0.004002
49 0.004036
31 0.002992
61 0.002026
94 0.003001
106 0.001956
115 0.002992
120 0.002039
120 0.002056
126 0.0
134 0.000996
141 0.001996
148 0.001963
154 0.003954
156 0.004038
159 0.004025
160 0.004036
162 0.003985
161 0.004025
131 0.004025
38 0.003991
42 0.004022
70 0.004987
101 0.006982
109 0.006951
119 0.006979
119 0.007013
119 0.007018
124 0.006985
134 0.005998
142 0.004018
148 0.004988
153 0.005024
154 0.004017
158 0.00399
159 0.004026
163 0.003029
135 0.001992
73 0.001994
27 0.002029
62 0.002031
88 0.001004
107 0.002033
114 0.002028
119 0.001006
120 0.000996
122 0.0
131 0.0
143 0.0
148 0.001993
154 0.001995
157 0.002035
159 0.002994
162 0.003989
164 0.00502
166 0.005038
165 0.00499
134 0.004986
39 0.006016
37 0.007014
74 0.007972
97 0.007981
113 0.0
118 0.007978
122 0.007016
122 0.007021
127 0.005995
138 0.006983
143 0.005976
150 0.005993
152 0.005983
156 0.004954
158 0.004571
160 0.00297
164 0.004021
152 0.002992
105 0.003028
38 0.002994
68 0.001033
94 0.001995
114 0.0
122 0.001988
126 0.000997
123 0.000997
123 0.000999
132 0.001996
143 0.002992
148 0.002993
153 0.004981
157 0.00502
158 0.005019
162 0.005017
164 0.006988
166 0.006979
128 0.006977
37 0.007937
32 0.007018
64 0.007986
95 0.007032
110 0.007994
117 0.007011
120 0.007024
121 0.006015
126 0.003989
132 0.003989
145 0.000998
158 0.0
160 0.0
162 0.0
164 0.000998
166 0.001045
169 0.000998
172 0.000998
150 0.003021
60 0.002999
43 0.002993
79 0.003935
111 0.00502
119 0.006017
128 0.007016
131 0.007988
131 0.007001
133 0.007971
142 0.007978
149 0.007993
155 0.007012
158 0.00598
162 0.004021
163 0.002001
164 0.003035
167 0.002031
166 0.001993
136 0.002048
71 0.0
67 0.001995
94 0.002992
119 0.003999
132 0.004043
135 0.004019
133 0.00399
130 0.00598
134 0.005983
144 0.006015
152 0.006991
154 0.007988
158 0.007971
158 0.007981
161 0.007979
164 0.005993
132 0.008016
60 0.005028
44 0.003987
71 0.003986
106 0.004036
115 0.004021
124 0.004024
124 0.004003
124 0.002975
130 0.004022
137 0.004024
145 0.001028
150 0.00203
154 0.002009
157 0.0
158 0.001008
159 0.0
160 0.0
119 0.001995
46 0.002992
37 0.003992
79 0.00399
97 0.005022
111 0.006979
120 0.007064
122 0.006987
122 0.006968
127 0.006973
132 0.006995
142 0.006982
147 0.005984
152 0.004989
156 0.003019
158 0.002992
159 0.0
162 0.001016
157 0.000999
108 0.001052
46 0.000999
57 0.000987
98 0.001996
113 0.002011
120 0.003046
126 0.003986
124 0.004981
124 0.005978
132 0.005985
133 0.0
144 0.000998
150 0.00703
153 0.006983
154 0.006991
159 0.006023
158 0.007018
104 0.006027
43 0.005976
54 0.003988
95 0.002039
109 0.001995
118 0.001996
123 0.001992
123 0.001048
123 0.0
131 0.0
140 0.000998
146 0.002032
150 0.001995
153 0.002031
157 0.003988
158 0.004022
162 0.006018
147 0.006014
60 0.005977
36 0.006973
65 0.006996
99 0.006982
106 0.007002
115 0.005969
120 0.006994
122 0.003028
124 0.004999
132 0.00399
139 0.004128
148 0.002949
153 0.0
156 0.0
158 0.001019
160 0.000997
162 0.001
165 0.001001
144 0.000998
63 0.002011
56 0.002993
84 0.002994
109 0.002992
116 0.003057
123 0.002962
123 0.004022
123 0.004982
128 0.00497
139 0.004986
145 0.00698
149 0.004984
151 0.005975
154 0.004992
154 0.005974
157 0.00602
150 0.005984
83 0.003986
45 0.002048
67 0.00206
102 0.000995
111 0.000993
120 0.0
120 0.0
120 0.0
122 0.000997
132 0.002995
139 0.003988
147 0.00502
152 0.00598
154 0.006979
157 0.006995
159 0.006982
160 0.005031
156 0.00499
102 0.006982
40 0.003992
45 0.003982
85 0.001049
99 0.000998
111 0.001043
118 0.000997
120 0.0
120 0.0
126 0.0
134 0.0
144 0.000997
149 0.000998
154 0.001978
157 0.0039
160 0.00495
162 0.005968
167 0.006023
166 0.006982
131 0.00696
53 0.007024
49 0.007015
88 0.006975
105 0.005982
116 0.007017
125 0.007949
125 0.005048
125 0.004981
130 0.004036
135 0.003031
145 0.002108
150 0.000997
153 0.001029
157 0.000969
161 0.000998
142 0.000998
74 0.0
58 0.0
90 0.0
115 0.0
121 0.000996
130 0.0
131 0.0
128 0.0
133 0.0
138 0.000998
147 0.001996
153 0.001865
156 0.002993
158 0.003988
161 0.004952
162 0.005706
164 0.005023
165 0.006032
124 0.005983
44 0.005909
41 0.006018
73 0.005951
103 0.00598
110 0.003975
119 0.004032
120 0.003033
119 0.00399
124 0.002025
132 0.002989
140 0.001031
146 0.002992
150 0.001003
153 0.002993
158 0.002987
160 0.002989
162 0.001995
165 0.001995
158 0.002015
86 0.001979
49 0.001984
68 0.0
103 0.0
111 0.000987
119 0.000998
123 0.000999
122 0.000958
123 0.000997
128 0.002992
139 0.005025
146 0.004988
148 0.00499
149 0.004997
152 0.007015
153 0.00698
156 0.005961
156 0.006982
118 0.00598
56 0.007903
56 0.005982
81 0.004985
108 0.001995
120 0.000991
123 0.0
123 0.0
123 0.0
126 0.0
136 0.0
141 0.0
147 0.000998
151 0.002029
152 0.00301
155 0.003024
158 0.003959
161 0.005019
140 0.004982
56 0.005024
36 0.005019
66 0.004996
89 0.005992
106 0.006029
114 0.006025
117 0.006019
118 0.006973
120 0.00701
124 0.006015
136 0.00399
145 0.001999
148 0.001989
152 0.00103
156 0.0
158 0.0
161 0.0
160 0.000992
128 0.000967
54 0.000992
51 0.000977
91 0.000997
114 0.004051
120 0.003992
126 0.003959
125 0.006023
125 0.005987
131 0.005987
139 0.00605
143 0.006017
148 0.007015
150 0.006952
152 0.007025
155 0.006985
158 0.00785
131 0.005003
59 0.001995
59 0.0
76 0.0
106 0.0
115 0.0
124 0.0
123 0.0
122 0.0
127 0.0
138 0.000999
143 0.002026
149 0.001993
150 0.001981
154 0.003992
156 0.005001
160 0.004953
148 0.005628
68 0.005943
38 0.005988
60 0.007977
90 0.005987
102 0.007011
113 0.005982
118 0.006016
118 0.005004
119 0.00499
125 0.005019
138 0.004967
148 0.003993
150 0.005018
153 0.004046
154 0.003989
157 0.003949
160 0.003989
136 0.00204
68 0.00314
44 0.003024
66 0.003023
99 0.002002
111 0.000989
118 0.001987
120 0.0
119 0.002953
123 0.003958
133 0.005026
142 0.00701
146 0.007935
151 0.004979
153 0.005022
154 0.00402
157 0.003028
141 0.0
96 0.000997
40 0.0
61 0.0
85 0.001061
106 0.000859
117 0.000998
120 0.001049
119 0.001009
121 0.002993
130 0.00296
139 0.002993
145 0.003989
149 0.004943
153 0.004988
154 0.005031
157 0.005003
160 0.005018
156 0.005035
83 0.006
37 0.005996
41 0.00602
79 0.005998
92 0.005984
104 0.006034
112 0.006005
115 0.005984
117 0.005981
120 0.006016
132 0.005975
141 0.005022
146 0.003993
150 0.002991
155 0.001038
157 0.000959
159 0.001992
162 0.000968
156 0.0
103 0.0
40 0.001026
49 0.000997
90 0.00305
108 0.005025
116 0.005021
121 0.005979
120 0.007004
120 0.004988
128 0.004005
138 0.005988
146 0.004002
151 0.004024
155 0.003988
158 0.002032
152 0.0
103 0.001032
50 0.002032
58 0.002987
97 0.004024
111 0.005024
125 0.007027
128 0.005986
126 0.006983
126 0.006152
137 0.005982
144 0.003987
152 0.00401
157 0.004025
159 0.004025
162 0.00299
162 0.002993
164 0.002987
167 0.005034
159 0.003002
96 0.003983
37 0.00299
45 0.004023
86 0.003993
100 0.003981
112 0.003989
120 0.002166
122 0.003986
124 0.001995
128 0.002995
139 0.000962
148 0.0
152 0.0
156 0.001017
160 0.000967
162 0.0
164 0.000998
168 0.001986
170 0.00285
139 0.004003
57 0.005018
50 0.005983
79 0.005984
106 0.007982
117 0.005967
128 0.007945
130 0.00602
129 0.007019
131 0.004992
135 0.004972
145 0.003989
153 0.001033
156 0.000999
160 0.0
161 0.0
162 0.0
166 0.000998
135 0.00399
90 0.005033
58 0.005993
97 0.006018
113 0.006017
124 0.006978
133 0.006022
133 0.005985
131 0.004198
133 0.005022
141 0.001991
151 0.003988
158 0.002988
160 0.003022
161 0.002964
162 0.003022
163 0.001043
167 0.0
161 0.0
107 0.0
44 0.001986
55 0.001997
95 0.004008
114 0.004041
122 0.004051
127 0.00602
126 0.006979
127 0.005969
133 0.005016
141 0.005021
149 0.004
154 0.004972
158 0.004987
159 0.004987
162 0.004965
164 0.005
168 0.004986
145 0.002981
99 0.005019
52 0.000992
86 0.001017
105 0.0
118 0.0
128 0.000998
129 0.001995
127 0.001988
128 0.003027
133 0.004034
143 0.003998
150 0.005977
152 0.006039
156 0.005985
158 0.005982
161 0.006964
163 0.007979
153 0.004989
99 0.005031
49 0.00502
64 0.005045
101 0.004991
118 0.000979
124 0.002992
127 0.002012
124 0.0
126 0.0
136 0.0
144 0.000968
148 0.001014
152 0.000998
153 0.001997
156 0.001963
159 0.002026
160 0.001996
162 0.003004
115 0.002973
68 0.003985
53 0.005019
84 0.00694
105 0.00697
115 0.006987
122 0.006981
125 0.006983
124 0.007012
126 0.006994
133 0.005984
144 0.003993
148 0.006019
153 0.00399
154 0.001992
156 0.00096
159 0.001006
164 0.0
159 0.0
98 0.0
65 0.000962
80 0.000998
109 0.003001
121 0.004952
127 0.004955
127 0.004983
125 0.004987
126 0.006018
132 0.006977
139 0.005967
145 0.007019
150 0.005041
151 0.005037
154 0.004988
157 0.00399
157 0.002994
105 0.002029
45 0.001032
54 0.002029
92 0.001019
105 0.000997
117 0.0
123 0.002046
120 0.0
120 0.001993
127 0.0
134 0.0
142 0.001993
147 0.002993
149 0.003042
152 0.002992
154 0.002995
157 0.003013
142 0.004022
96 0.005018
36 0.004987
63 0.005988
87 0.006008
104 0.006029
111 0.006027
117 0.005978
116 0.006021
117 0.006972
124 0.00496
135 0.004996
140 0.003955
146 0.003991
149 0.005951
151 0.004012
152 0.004987
156 0.003979
152 0.002993
87 0.003003
47 0.003008
57 0.003026
94 0.001009
103 0.003989
114 0.0
117 0.001995
117 0.000998
118 0.002044
126 0.002963
132 0.003066
140 0.003049
143 0.00294
147 0.003976
151 0.005037
152 0.004028
156 0.003982
119 0.005022
64 0.005018
33 0.006982
56 0.007169
86 0.004983
99 0.006037
110 0.005016
115 0.00402
115 0.003989
119 0.002002
125 0.00203
136 0.000997
142 0.002011
147 0.0
151 0.002007
154 0.0
157 0.0
159 0.000967
154 0.000958
101 0.000963
41 0.0
54 0.000965
86 0.0
100 0.000981
112 0.000998
117 0.000997
119 0.002005
121 0.002962
126 0.002962
137 0.003991
145 0.004037
150 0.006017
154 0.007951
158 0.00695
160 0.00602
163 0.004076
162 0.002005
101 0.000992
56 0.0
60 0.0
78 0.001049
109 0.001002
123 0.002036
127 0.00399
125 0.004987
124 0.006981
132 0.007979
139 0.005964
147 0.00502
153 0.004023
155 0.003007
158 0.002044
161 0.001967
163 0.001965
153 0.001022
109 0.002035
36 0.001036
56 0.0
74 0.0
102 0.002029
116 0.002994
121 0.002993
121 0.002993
122 0.004989
128 0.004979
140 0.005033
149 0.004988
152 0.004941
156 0.004987
158 0.005979
160 0.006985
163 0.007014
162 0.004025
135 0.003956
47 0.002994
48 0.0
73 0.00103
99 0.0
110 0.0
119 0.0
122 0.000998
122 0.001969
127 0.001972
138 0.002992
145 0.003947
153 0.004943
158 0.004983
161 0.005033
164 0.004988
165 0.005989
170 0.006064
167 0.006968
136 0.006015
56 0.006981
64 0.007951
90 0.006993
112 0.007972
124 0.006949
129 0.005985
129 0.005019
129 0.001993
133 0.002992
144 0.001164
150 0.003034
157 0.001994
160 0.001024
161 0.002041
123 0.0
62 0.0
64 0.000961
96 0.0
120 0.000997
129 0.003957
136 0.005016
133 0.004984
133 0.004986
139 0.004972
146 0.00497
154 0.006981
157 0.006978
160 0.006016
161 0.007031
160 0.007039
161 0.006013
165 0.006014
141 0.004985
86 0.006027
36 0.004986
51 0.006018
93 0.003973
110 0.004979
116 0.004002
121 0.003169
120 0.002991
121 0.001966
129 0.000996
139 0.002029
144 0.0
150 0.0
153 0.000997
157 0.000997
160 0.000998
162 0.000998
165 0.000998
156 0.002029
115 0.00299
47 0.002993
53 0.002994
93 0.002991
113 0.002993
120 0.004046
126 0.002955
125 0.004063
126 0.004024
135 0.006033
144 0.006928
149 0.006958
156 0.006987
156 0.005984
160 0.003947
163 0.005017
164 0.002997
167 0.004988
165 0.005018
135 0.004988
65 0.004004
59 0.004018
95 0.004042
115 0.002997
122 0.004036
129 0.003027
127 0.002014
126 0.002001
131 0.001996
136 0.000998
145 0.0
150 0.0
151 0.0
154 0.0
156 0.0
159 0.0
158 0.001995
103 0.002992
58 0.002992
55 0.00399
87 0.004971
106 0.00502
117 0.005963
123 0.007978
123 0.007013
121 0.004987
125 0.002992
131 0.004995
141 0.002996
145 0.004983
150 0.00299
152 0.001992
154 0.001996
158 0.000951
153 0.001998
118 0.000994
44 0.00205
43 0.0
80 0.0
100 0.001989
110 0.0
116 0.002031
116 0.0
116 0.0
122 0.000999
129 0.001
138 0.000998
144 0.002984
148 0.003009
151 0.002992
155 0.002959
157 0.002961
159 0.002992
115 0.005017
69 0.006016
50 0.006947
87 0.005982
103 0.004993
116 0.004986
121 0.004987
123 0.004969
121 0.006017
124 0.003987
133 0.004988
144 0.004022
148 0.003989
151 0.002993
153 0.0
155 0.000999
157 0.002993
153 0.003993
121 0.004986
56 0.006018
68 0.006969
92 0.006968
111 0.006986
120 0.00499
122 0.004984
121 0.005153
121 0.002989
126 0.001993
138 0.001974
145 0.000999
150 0.0
152 0.002031
154 0.0
156 0.001003
161 0.001998
149 0.000998
88 0.001995
41 0.002987
55 0.002962
87 0.00296
105 0.00396
113 0.004958
120 0.005984
119 0.005984
119 0.005992
128 0.005982
134 0.005984
144 0.005985
154 0.005829
157 0.005979
160 0.005981
163 0.005984
165 0.005981
161 0.006992
128 0.006982
56 0.006988
61 0.006014
85 0.006966
109 0.007014
117 0.006977
122 0.006991
123 0.005021
123 0.002013
126 0.003991
136 0.00203
142 0.002989
149 0.002003
153 0.001002
154 0.000962
156 0.000999
160 0.00296
158 0.002997
107 0.002992
49 0.002965
57 0.002961
95 0.004037
112 0.004989
119 0.004976
124 0.005042
123 0.006008
126 0.006971
133 0.006863
142 0.006982
149 0.007978
152 0.007034
155 0.005022
157 0.004982
159 0.003004
160 0.005022
165 0.001997
142 0.002034
91 0.001994
40 0.001961
54 0.0
86 0.0
105 0.0
112 0.0
119 0.0
120 0.0
121 0.0
128 0.000997
137 0.001992
144 0.002974
150 0.003026
156 0.004993
159 0.005995
158 0.006018
132 0.006018
67 0.006013
64 0.005977
94 0.00798
112 0.00597
125 0.006
129 0.006008
129 0.005981
129 0.005984
133 0.005965
143 0.004985
148 0.006008
154 0.004984
157 0.006019
160 0.003976
162 0.005982
164 0.003983
167 0.006018
160 0.005985
124 0.004021
60 0.00298
78 0.001999
98 0.001994
115 0.00099
124 0.00101
128 0.000997
126 0.003048
127 0.004022
132 0.005018
143 0.004981
151 0.006974
153 0.006993
156 0.00699
159 0.005983
161 0.004987
162 0.002987
166 0.00399
158 0.002032
107 0.004027
52 0.001996
55 0.003999
93 0.002997
106 0.001031
116 0.0
121 0.0
122 0.0
122 0.0
128 0.000997
134 0.001996
143 0.002978
149 0.004986
152 0.00399
155 0.00502
159 0.005018
160 0.004993
164 0.005018
160 0.005017
100 0.004989
63 0.00499
70 0.004989
104 0.005018
113 0.005023
122 0.00598
125 0.006042
123 0.005974
124 0.007974
128 0.006984
134 0.006026
143 0.005983
148 0.005984
151 0.005984
155 0.003993
156 0.004986
160 0.003983
154 0.002987
119 0.001997
58 0.001997
59 0.000993
94 0.001028
112 0.0
117 0.0
125 0.000998
123 0.000996
123 0.000994
129 0.002993
138 0.00396
143 0.004962
149 0.005041
152 0.00502
155 0.005034
157 0.005979
160 0.005989
161 0.007015
140 0.00695
79 0.007016
41 0.006979
68 0.004944
88 0.004974
104 0.004989
113 0.004984
115 0.003975
117 0.004021
120 0.003987
128 0.003991
136 0.005036
142 0.001962
147 0.002026
153 0.002001
154 0.00099
156 0.002992
159 0.002973
160 0.002994
125 0.002993
61 0.002988
56 0.003947
89 0.004986
108 0.005027
115 0.005018
122 0.004956
122 0.006968
121 0.005982
124 0.005984
131 0.005983
141 0.006978
146 0.004989
150 0.003988
152 0.003976
154 0.00598
158 0.003993
150 0.004987
89 0.002981
58 0.002997
71 0.002992
93 0.001995
110 0.002024
121 0.0
122 0.001993
121 0.0
121 0.0
127 0.0
138 0.00102
142 0.0
148 0.001991
152 0.002011
152 0.001996
156 0.001998
160 0.001966
161 0.001995
120 0.005027
48 0.004956
42 0.006984
79 0.006977
96 0.006972
102 0.006978
111 0.005985
114 0.00402
114 0.003986
119 0.00402
124 0.004005
134 0.003986
142 0.001987
146 0.00202
149 0.0
152 0.0
154 0.0
157 0.002994
161 0.002956
157 0.003991
95 0.00399
47 0.00399
60 0.003992
93 0.005018
106 0.005972
110 0.006948
117 0.006986
118 0.006981
119 0.005066
124 0.00598
134 0.004003
140 0.004021
146 0.003029
148 0.002993
151 0.002984
154 0.000947
157 0.002987
160 0.00198
156 0.0
126 0.0
63 0.000998
71 0.000959
92 0.001017
109 0.002995
116 0.002994
124 0.002992
122 0.00499
122 0.005015
127 0.005086
135 0.007026
143 0.005958
148 0.006969
153 0.005975
155 0.00602
158 0.005996
160 0.00399
162 0.005972
163 0.002
110 0.001997
63 0.0
51 0.0
73 0.0
99 0.0
109 0.0
115 0.000998
119 0.002032
120 0.002999
122 0.002964
132 0.002992
143 0.002925
147 0.002997
152 0.005027
156 0.004989
158 0.005976
160 0.00595
162 0.006983
163 0.006935
166 0.007936
156 0.006974
87 0.006976
53 0.004987
71 0.005985
102 0.004985
112 0.003029
119 0.002981
123 0.002001
124 0.002
127 0.001978
135 0.0
140 0.0
148 0.0
152 0.0
154 0.00196
157 0.001995
159 0.004071
161 0.004991
159 0.00598
132 0.007979
72 0.006984
67 0.004997
98 0.005001
110 0.005173
122 0.004989
128 0.001989
129 0.002991
126 0.001959
130 0.002001
135 0.001
145 0.0
150 0.0
152 0.0
153 0.000999
155 0.0
157 0.002
161 0.001974
158 0.004016
101 0.003878
50 0.005003
59 0.00605
93 0.007004
106 0.005955
116 0.005949
121 0.007018
121 0.006981
120 0.006983
125 0.006982
134 0.003994
139 0.005978
146 0.003986
149 0.006054
153 0.004023
157 0.003989
158 0.002989
161 0.002989
154 0.001999
119 0.002959
55 0.002006
54 0.002003
90 0.000952
105 0.002058
111 0.002026
120 0.001029
119 0.000967
118 0.001999
121 0.002992
131 0.005018
137 0.006018
144 0.007014
148 0.005974
152 0.007986
155 0.004105
156 0.001941
159 0.002012
136 0.0
80 0.0
49 0.000964
70 0.000998
99 0.002991
112 0.005033
118 0.005024
119 0.005991
118 0.007018
121 0.006964
126 0.007011
137 0.005954
142 0.005018
147 0.003992
151 0.001015
153 0.0
155 0.001002
159 0.00101
154 0.001962
90 0.000997
40 0.001991
51 0.001974
86 0.002033
97 0.002993
109 0.001994
114 0.004005
114 0.005031
116 0.005984
126 0.006981
131 0.006981
140 0.004982
145 0.006981
147 0.00499
149 0.005956
152 0.00499
156 0.004024
146 0.003989
77 0.001965
44 0.002
58 0.0
81 0.002028
97 0.000998
108 0.000998
112 0.001996
114 0.001966
116 0.002043
120 0.001998
131 0.002048
137 0.002032
143 0.004026
147 0.003987
150 0.005992
153 0.005981
157 0.006967
143 0.007011
89 0.003955
49 0.005985
63 0.004004
90 0.006002
106 0.005021
112 0.004987
117 0.004982
115 0.002184
117 0.002988
127 0.001986
138 0.0
142 0.000957
146 0.0
147 0.0
150 0.0
154 0.0
156 0.001996
128 0.003036
50 0.005019
39 0.004943
66 0.004991
92 0.005985
100 0.006974
111 0.005984
115 0.006981
114 0.007015
118 0.006988
128 0.004015
137 0.006018
146 0.003984
148 0.005984
153 0.003975
155 0.001989
156 0.002
162 0.0
143 0.0
113 0.0
41 0.0
51 0.0
70 0.0
88 0.0
98 0.0
111 0.002035
115 0.002028
117 0.002026
124 0.003
134 0.002993
143 0.002993
149 0.004023
152 0.004006
156 0.003992
160 0.004042
163 0.00399
167 0.004016
123 0.004029
73 0.004022
54 0.003945
74 0.005028
102 0.006996
112 0.004971
119 0.004991
123 0.004996
123 0.003972
126 0.002993
137 0.002943
145 0.004982
151 0.00219
154 0.004022
158 0.003025
159 0.002992
164 0.003012
166 0.003984
132 0.002992
60 0.0
55 0.001987
81 0.0
106 0.00203
113 0.000997
124 0.00303
125 0.002989
125 0.003039
130 0.004018
136 0.004
147 0.005018
153 0.007011
157 0.005981
159 0.00497
163 0.004984
164 0.00499
169 0.003979
162 0.004991
90 0.003026
49 0.002992
57 0.001985
80 0.002027
103 0.001151
113 0.0
122 0.0
124 0.0
126 0.0
130 0.0
141 0.001995
147 0.000945
156 0.001965
160 0.003958
163 0.003989
166 0.003989
169 0.003991
173 0.005986
169 0.005979
104 0.004971
63 0.004002
70 0.003095
100 0.003988
115 0.002026
124 0.002004
132 0.002031
134 0.002026
135 0.002012
140 0.000997
145 0.000998
154 0.0
160 0.000997
163 0.000993
168 0.002037
171 0.002031
173 0.001002
176 0.001999
165 0.001986
104 0.001994
80 0.001996
99 0.003991
121 0.004991
130 0.00499
138 0.00601
140 0.007984
138 0.00697
138 0.007981
145 0.005991
149 0.00602
155 0.006017
159 0.003987
162 0.006024
166 0.003986
168 0.005031
162 0.001985
103 0.001985
72 0.002954
84 0.0
112 0.000994
119 0.0
131 0.0
135 0.0
135 0.0
135 0.00101
141 0.001957
147 0.003959
155 0.00502
160 0.006022
163 0.006988
167 0.006968
169 0.006983
169 0.006974
172 0.007011
172 0.006973
125 0.007012
73 0.004973
76 0.006983
105 0.004984
120 0.00303
126 0.002025
132 0.001979
132 0.001999
132 0.002018
137 0.001992
141 0.002012
149 0.001998
153 0.003026
157 0.0
160 0.003041
164 0.003985
165 0.004999
135 0.004987
93 0.005978
85 0.00695
100 0.006939
119 0.005995
131 0.001995
135 0.003989
134 0.002128
131 0.004041
132 0.00198
140 0.002941
144 0.001987
149 0.000992
152 0.001999
155 0.0
158 0.000965
161 0.001017
144 0.0
93 0.001976
67 0.0
79 0.001962
103 0.001962
112 0.002992
122 0.005992
124 0.005984
123 0.005986
123 0.007023
127 0.00702
133 0.007016
141 0.007022
148 0.00399
151 0.005018
153 0.001995
156 0.003996
135 0.002979
77 0.002994
65 0.001989
88 0.002036
104 0.004016
114 0.001994
120 0.004025
122 0.002024
120 0.004021
123 0.00299
128 0.002961
136 0.001989
142 0.000997
145 0.0
148 0.0
145 0.001961
119 0.001991
68 0.00499
77 0.003956
94 0.004037
111 0.007028
120 0.00593
122 0.004023
119 0.004989
119 0.003995
123 0.00399
132 0.003998
138 0.003045
143 0.001993
146 0.004024
150 0.001994
129 0.00403
56 0.002963
35 0.002031
64 0.002036
84 0.00203
102 0.0
112 0.0
114 0.001965
114 0.001995
118 0.00298
123 0.00399
134 0.004017
140 0.003997
142 0.003948
147 0.004037
142 0.004822
107 0.005978
43 0.006981
35 0.006954
71 0.006975
93 0.005991
103 0.005992
114 0.003122
115 0.005002
116 0.00296
120 0.002997
131 0.002992
137 0.002037
143 0.0
145 0.001018
149 0.001959
155 0.003967
122 0.004988
55 0.006981
40 0.007988
69 0.005985
90 0.007978
109 0.005984
118 0.003986
118 0.002945
116 0.002994
122 0.002988
129 0.003
140 0.003169
144 0.001988
147 0.002996
151 0.004988
153 0.002032
121 0.002026
42 0.0
37 0.0
70 0.0
94 0.0
108 0.0
116 0.0
115 0.002035
115 0.002029
123 0.002017
132 0.001978
142 0.00204
148 0.00399
151 0.004968
154 0.006017
158 0.00698
160 0.006978
101 0.006927
35 0.006977
30 0.004984
54 0.005984
84 0.005984
92 0.00495
110 0.00401
114 0.004033
116 0.00402
122 0.002964
130 0.004009
144 0.0
151 0.000969
155 0.001011
158 0.0
162 0.001964
164 0.003939
166 0.004985
99 0.004987
50 0.005988
46 0.005991
84 0.004972
100 0.003991
114 0.003991
122 0.004988
123 0.002989
123 0.00399
131 0.003989
139 0.004021
150 0.00298
155 0.0
156 0.002025
159 0.003006
161 0.004041
164 0.006019
164 0.006017
112 0.006964
43 0.006003
42 0.005989
78 0.005191
95 0.003002
112 0.0
122 0.0
122 0.0
123 0.0
132 0.00205
139 0.0
150 0.002037
155 0.003026
157 0.002993
161 0.002963
166 0.00499
169 0.005999
173 0.005984
157 0.006014
104 0.005838
38 0.005917
52 0.004953
74 0.004986
100 0.001996
114 0.000997
120 0.00095
124 0.000967
127 0.000964
133 0.001008
145 0.0
151 0.0
159 0.0
163 0.001993
166 0.0
169 0.002029
171 0.00095
174 0.001996
170 0.0
137 0.000997
59 0.000997
63 0.002995
94 0.004024
113 0.003989
125 0.005011
131 0.004987
132 0.004985
132 0.005962
137 0.007972
146 0.006016
154 0.007948
160 0.004994
164 0.004981
165 0.003998
167 0.003974
169 0.003003
171 0.002152
128 0.002986
61 0.002039
49 0.0
82 0.000998
106 0.003015
118 0.002958
130 0.004989
132 0.004987
131 0.005023
135 0.007014
143 0.005972
151 0.007973
157 0.004987
163 0.002989
165 0.002949
166 0.002995
170 0.002954
173 0.003957
139 0.00296
87 0.003003
50 0.002995
77 0.005994
105 0.001993
118 0.002992
129 0.001993
132 0.001995
133 0.00203
133 0.002028
140 0.001996
150 0.0
154 0.002029
160 0.001007
163 0.00196
165 0.00296
168 0.002999
171 0.003964
154 0.003997
85 0.005984
72 0.00597
93 0.005977
116 0.005939
124 0.005941
133 0.005985
133 0.005974
131 0.006968
133 0.005932
143 0.007014
149 0.005988
154 0.007977
158 0.005988
160 0.00794
163 0.00796
166 0.007974
136 0.007968
89 0.007964
51 0.007983
78 0.004013
97 0.003988
114 0.002005
124 0.0
125 0.0
124 0.0
131 0.0
137 0.0
145 0.001987
152 0.000997
155 0.001055
158 0.001961
161 0.001994
164 0.001996
132 0.004959
67 0.005985
44 0.006953
71 0.007024
98 0.007028
108 0.00602
122 0.005986
125 0.002997
123 0.00299
126 0.002981
131 0.002963
143 0.002986
149 0.0
153 0.0
156 0.002024
160 0.002005
163 0.005014
146 0.005974
91 0.005985
63 0.006973
78 0.006982
107 0.004958
117 0.004987
126 0.002993
128 0.006016
126 0.002989
127 0.005084
135 0.002973
141 0.004977
147 0.001997
152 0.0
153 0.0
158 0.0
146 0.0
108 0.0
48 0.002033
71 0.00201
92 0.002011
112 0.002956
119 0.001946
124 0.004988
122 0.005019
124 0.005023
133 0.004984
142 0.004988
149 0.005989
154 0.006951
158 0.007955
160 0.007977
162 0.007964
143 0.00798
65 0.006986
50 0.005022
74 0.006983
104 0.002981
118 0.003
123 0.002977
124 0.001993
123 0.001998
128 0.002988
137 0.001993
143 0.001992
150 0.0
155 0.00097
157 0.001
162 0.00102
151 0.000964
112 0.000948
54 0.001988
69 0.003991
98 0.004981
113 0.005003
123 0.007025
125 0.007017
121 0.00698
121 0.007978
128 0.007961
139 0.005953
145 0.00797
150 0.005983
154 0.00599
155 0.004981
158 0.006979
136 0.003991
56 0.004023
46 0.003987
70 0.002996
100 0.002998
112 0.003994
120 0.001994
119 0.003994
118 0.001996
122 0.003028
134 0.003
141 0.002988
148 0.002033
153 0.0
155 0.002035
159 0.0
160 0.001029
133 0.001013
51 0.000998
41 0.001029
75 0.002993
103 0.002993
110 0.003008
120 0.003028
121 0.002823
122 0.00299
130 0.003956
137 0.004983
146 0.00502
152 0.005985
156 0.006988
159 0.004987
162 0.005009
165 0.001993
143 0.003118
65 0.0
56 0.0
81 0.000996
105 0.000968
118 0.001011
125 0.0
125 0.000998
124 0.0
128 0.0
135 0.0
148 0.0
153 0.000963
155 0.000999
158 0.002994
161 0.002988
163 0.002993
118 0.004024
58 0.004019
50 0.006983
79 0.006978
109 0.006026
118 0.005968
128 0.005958
127 0.002983
125 0.004954
132 0.002029
143 0.002024
149 0.002009
153 0.002004
155 0.001982
158 0.001994
162 0.002995
163 0.001996
117 0.0
51 0.001997
46 0.000968
76 0.002992
102 0.0
113 0.002991
123 0.002026
124 0.00305
123 0.002991
126 0.003026
136 0.002005
145 0.002995
151 0.003023
156 0.004988
160 0.007013
163 0.004018
166 0.005988
149 0.002
74 0.00303
51 0.0
80 0.0
109 0.0
118 0.0
126 0.000971
127 0.000955
125 0.000997
129 0.002028
135 0.0
145 0.001003
153 0.001
157 0.002833
159 0.005023
163 0.005993
164 0.006979
146 0.007978
74 0.007008
53 0.006016
84 0.003987
111 0.001994
120 0.003986
129 0.0
126 0.002
126 0.001
130 0.000998
141 0.001026
148 0.000998
152 0.001997
157 0.001993
159 0.002982
163 0.003989
160 0.003999
125 0.003982
49 0.004012
47 0.003973
84 0.003991
105 0.004006
116 0.003988
122 0.004958
122 0.004952
121 0.006046
129 0.004998
135 0.007821
144 0.005955
150 0.004976
152 0.004987
155 0.003993
161 0.00402
164 0.003023
128 0.002993
64 0.004162
50 0.002
78 0.002031
107 0.002995
116 0.002987
126 0.002026
128 0.003027
127 0.003027
133 0.0
140 0.002008
148 0.001992
152 0.002993
157 0.001011
159 0.000962
160 0.000998
166 0.0
145 0.000998
101 0.001953
56 0.003006
88 0.003982
107 0.003987
121 0.00502
128 0.005018
128 0.005985
126 0.006981
128 0.006018
136 0.003995
145 0.006018
152 0.002958
155 0.004982
158 0.005019
160 0.004989
159 0.004953
131 0.004981
52 0.004027
53 0.002986
78 0.00303
104 0.0
118 0.0
121 0.0
121 0.0
122 0.003946
129 0.004985
137 0.004982
146 0.005999
148 0.00698
153 0.004983
157 0.004951
161 0.005954
154 0.002995
99 0.005986
46 0.002002
54 0.00399
94 0.003957
106 0.003951
118 0.002951
124 0.001002
124 0.003964
124 0.005021
132 0.005965
141 0.006977
148 0.007013
153 0.005971
157 0.003994
159 0.002962
164 0.003003
146 0.002006
101 0.0
52 0.000982
71 0.001004
94 0.000998
113 0.002008
125 0.003018
127 0.003059
124 0.004975
125 0.004977
134 0.00599
143 0.00694
149 0.007012
152 0.006027
156 0.006018
159 0.002956
161 0.003987
134 0.000996
65 0.0
39 0.001038
62 0.000998
97 0.001972
107 0.002997
121 0.003027
122 0.004989
120 0.005008
125 0.004987
133 0.004976
145 0.004987
151 0.005984
156 0.005953
159 0.006945
163 0.007016
165 0.006024
151 0.005995
65 0.004003
38 0.005984
62 0.003036
86 0.005984
107 0.003024
121 0.001995
124 0.002042
124 0.002001
128 0.002959
134 0.000962
145 0.000969
152 0.000986
155 0.0
160 0.000954
163 0.002035
166 0.003953
164 0.005007
113 0.004988
53 0.004987
56 0.005987
94 0.007963
108 0.007038
122 0.007967
127 0.007947
125 0.00798
123 0.005032
128 0.006014
139 0.002993
149 0.002962
152 0.001994
156 0.000993
159 0.0
162 0.0
157 0.0
83 0.0
43 0.000997
54 0.0
78 0.000998
103 0.002029
120 0.003028
124 0.003957
123 0.003991
124 0.005963
132 0.005992
142 0.006033
151 0.006973
155 0.007977
158 0.00699
162 0.00498
164 0.007014
166 0.003965
140 0.007017
51 0.004002
45 0.002002
67 0.002971
98 0.002976
113 0.002027
119 0.000968
121 0.000996
123 0.002997
127 0.0
137 0.002026
146 0.0
152 0.002102
157 0.002027
161 0.002031
165 0.002987
170 0.0
154 0.002016
87 0.000998
44 0.000997
61 0.0
98 0.000997
107 0.002054
120 0.002995
124 0.004021
123 0.003983
127 0.003991
133 0.00399
145 0.003993
153 0.004024
156 0.003963
160 0.004971
163 0.006017
167 0.005971
145 0.007977
82 0.00697
52 0.006947
75 0.006973
98 0.006983
117 0.006984
129 0.004015
130 0.007055
126 0.003957
127 0.006956
137 0.003991
148 0.003994
151 0.003992
155 0.002988
158 0.001947
161 0.000963
161 0.0
101 0.0
50 0.0
47 0.0
86 0.00103
102 0.001043
118 0.000963
123 0.001985
124 0.002027
124 0.003985
130 0.004782
140 0.004942
151 0.004955
155 0.004955
160 0.00502
163 0.005952
165 0.006023
163 0.006977
114 0.004984
58 0.002991
48 0.004002
70 0.005029
104 0.000994
120 0.0
128 0.00306
128 0.000993
128 0.0
133 0.000989
141 0.003956
152 0.004999
157 0.007975
160 0.004152
163 0.007026
168 0.007023
171 0.007019
146 0.007016
99 0.006981
55 0.004987
89 0.00202
109 0.005018
126 0.00202
135 0.002028
135 0.002995
132 0.0
138 0.000998
142 0.0
153 0.000997
160 0.00201
162 0.003025
165 0.004992
168 0.005992
162 0.008011
112 0.002997
58 0.005039
72 0.004021
97 0.004027
119 0.003026
132 0.0
133 0.001032
131 0.000992
132 0.001854
138 0.002995
149 0.004985
157 0.004989
159 0.005017
162 0.004984
164 0.005985
167 0.005027
123 0.005988
70 0.006951
49 0.00502
79 0.00798
105 0.003976
117 0.005026
128 0.003991
128 0.003998
127 0.003022
131 0.0
139 0.00402
149 0.0
154 0.002031
158 0.000968
162 0.000842
166 0.000971
161 0.000997
88 0.002993
52 0.002992
68 0.003026
103 0.003965
115 0.003958
127 0.005031
131 0.004999
130 0.005986
134 0.003995
141 0.006016
150 0.003953
155 0.005985
158 0.002992
160 0.004028
165 0.004025
166 0.004022
121 0.004025
54 0.001998
58 0.002992
97 0.0
117 0.0
126 0.0
130 0.0
128 0.00096
128 0.000999
137 0.000983
143 0.0
150 0.0
154 0.00199
156 0.002054
159 0.001991
163 0.001966
133 0.001963
47 0.002016
38 0.001996
72 0.004042
97 0.004996
112 0.005967
121 0.005976
121 0.007975
120 0.006023
122 0.004983
134 0.002004
141 0.003004
150 0.0
156 0.0
158 0.0
162 0.000998
163 0.001006
134 0.002042
51 0.002992
53 0.004982
78 0.004973
103 0.005946
118 0.003999
125 0.005986
126 0.002974
125 0.001997
133 0.003029
141 0.003027
151 0.0
155 0.0
160 0.00199
162 0.002982
167 0.004006
164 0.005966
102 0.007003
52 0.006954
65 0.006967
97 0.004002
118 0.002
125 0.00203
129 0.001995
128 0.003005
129 0.0
138 0.0
148 0.002
152 0.0
155 0.001964
159 0.003004
162 0.002991
167 0.003988
118 0.004946
64 0.005981
49 0.005987
81 0.004988
100 0.00795
117 0.004973
124 0.007022
125 0.002953
123 0.0
127 0.003019
139 0.002993
150 0.0
155 0.0
160 0.0
163 0.002951
165 0.0
145 0.002009
63 0.003008
43 0.003952
72 0.003988
99 0.006019
110 0.005977
124 0.005973
125 0.007961
124 0.005957
127 0.005016
138 0.0
144 0.002997
151 0.0
156 0.000965
157 0.000956
160 0.000999
163 0.002034
143 0.003022
56 0.003984
43 0.005008
65 0.004991
97 0.004969
112 0.004954
117 0.006983
121 0.006951
122 0.007986
126 0.004023
136 0.006981
145 0.003995
153 0.005016
159 0.004989
161 0.003984
166 0.004027
169 0.002982
148 0.003989
67 0.0
52 0.0
72 0.0
107 0.0
121 0.0
126 0.0
129 0.0
127 0.000998
132 0.000961
143 0.002003
150 0.002008
156 0.001991
160 0.002963
162 0.003985
168 0.003975
160 0.004982
107 0.004988
55 0.00601
65 0.005987
96 0.006984
118 0.007015
126 0.007004
130 0.007013
126 0.003986
127 0.005982
135 0.003987
143 0.005946
153 0.002993
158 0.002001
160 0.003005
163 0.002996
167 0.002963
154 0.001995
70 0.001964
41 0.002003
64 0.000963
94 0.001992
106 0.001981
120 0.002028
125 0.0
125 0.0
126 0.0
136 0.001963
144 0.001998
153 0.002001
159 0.002021
161 0.002994
164 0.003948
170 0.005983
167 0.006946
105 0.004989
45 0.003963
55 0.003024
95 0.002976
109 0.005018
120 0.002027
126 0.003984
126 0.001986
126 0.00399
134 0.00298
142 0.001996
151 0.002028
157 0.000966
160 0.001995
163 0.002011
167 0.001996
168 0.001995
130 0.002009
81 0.001995
58 0.001991
96 0.001996
111 0.002905
126 0.002977
133 0.003985
132 0.003991
130 0.005986
135 0.005944
143 0.006042
152 0.006007
155 0.005993
159 0.005988
162 0.006019
165 0.006981
165 0.007026
101 0.00698
54 0.006983
58 0.007013
84 0.006982
110 0.006977
125 0.002008
128 0.005018
127 0.002034
128 0.0
131 0.0
146 0.0
153 0.0
156 0.0
162 0.000962
165 0.002003
168 0.002012
154 0.002993
107 0.002964
43 0.003025
68 0.003982
93 0.003955
115 0.004996
125 0.004956
129 0.004812
128 0.006985
131 0.007012
136 0.007012
146 0.007005
151 0.006975
157 0.006981
160 0.003984
162 0.00707
167 0.003957
148 0.002987
104 0.001995
51 0.003003
80 0.004982
100 0.000966
117 0.0
125 0.001
127 0.000998
126 0.0
126 0.0
134 0.0
145 0.002001
150 0.00199
155 0.003947
156 0.005984
160 0.006965
158 0.007005
97 0.007987
62 0.007979
47 0.002987
86 0.002973
103 0.00298
118 0.002983
121 0.002969
121 0.002989
122 0.002958
128 0.00299
141 0.0
149 0.003031
153 0.0
157 0.002991
160 0.001994
162 0.002001
131 0.00104
59 0.001963
37 0.002963
62 0.004038
97 0.005953
106 0.007997
116 0.005982
121 0.001993
121 0.005066
124 0.002056
135 0.00298
142 0.001984
150 0.001995
157 0.0
160 0.0
165 0.0
154 0.003959
111 0.00104
43 0.002052
64 0.004024
89 0.004006
112 0.005984
122 0.006017
125 0.006074
124 0.006981
125 0.006015
131 0.006018
143 0.004989
151 0.002996
154 0.00399
159 0.001989
162 0.0041
165 0.0
111 0.0
59 0.0
53 0.0
94 0.0
109 0.0
125 0.0
128 0.000998
124 0.0
124 0.000998
128 0.000977
139 0.001962
150 0.004951
155 0.005984
157 0.006018
161 0.00599
165 0.005989
134 0.007944
59 0.007013
38 0.006969
62 0.005984
96 0.000957
115 0.001001
121 0.0
121 0.0
119 0.0
124 0.001986
138 0.000998
145 0.003024
153 0.002991
158 0.002993
159 0.004013
165 0.003955
143 0.005986
84 0.005984
36 0.004986
46 0.005985
76 0.002992
96 0.004995
113 0.004986
118 0.004987
120 0.003001
124 0.0
130 0.002998
143 0.0
149 0.002027
156 0.001048
161 0.0
164 0.0
169 0.000996
157 0.000998
74 0.0
45 0.0
57 0.0
98 0.0
117 0.002995
126 0.00303
131 0.004988
129 0.005023
131 0.004987
140 0.004988
150 0.006964
154 0.005983
159 0.00701
163 0.00301
167 0.004189
170 0.000974
106 0.0
58 0.0
59 0.001004
100 0.001015
110 0.0
127 0.0
130 0.0
127 0.001996
126 0.003028
138 0.003956
145 0.004014
153 0.002996
157 0.003804
162 0.00598
165 0.005985
167 0.006003
132 0.006
55 0.007978
38 0.007974
65 0.006982
101 0.004001
112 0.007147
126 0.003973
127 0.007012
128 0.003988
132 0.004001
139 0.003988
150 0.002996
157 0.001993
161 0.001989
165 0.003026
169 0.002952
162 0.0
100 0.003024
45 0.0
55 0.0
96 0.000997
109 0.002028
124 0.004994
130 0.005984
129 0.00698
130 0.007944
137 0.007014
145 0.006981
154 0.006979
160 0.004022
163 0.005984
166 0.002986
170 0.002995
159 0.003011
80 0.0
50 0.003957
75 0.002977
111 0.000974
121 0.0
131 0.000992
132 0.0
130 0.0
131 0.002072
142 0.001858
149 0.001995
157 0.001995
160 0.001994
163 0.002034
167 0.002034
163 0.003938
125 0.00499
45 0.005015
43 0.005017
79 0.00702
102 0.005979
112 0.006981
125 0.003031
125 0.003934
125 0.002996
131 0.002988
143 0.002945
149 0.0
157 0.0
161 0.002979
164 0.0
168 0.003021
167 0.0
118 0.002997
38 0.000965
40 0.003022
75 0.001001
97 0.0
108 0.001085
121 0.002045
124 0.000996
124 0.001995
131 0.000997
138 0.002028
149 0.003942
158 0.003994
162 0.006008
166 0.005017
170 0.003977
173 0.004022
148 0.003989
75 0.004024
46 0.003004
69 0.003985
106 0.004023
116 0.004023
129 0.004947
130 0.0
130 0.0
131 0.001995
141 0.003941
147 0.005004
156 0.005989
161 0.006002
163 0.006978
166 0.003955
168 0.003007
143 0.003006
54 0.002031
50 0.002989
74 0.002997
107 0.002967
118 0.002962
130 0.000993
129 0.0
128 0.0
132 0.0
144 0.0
150 0.0
158 0.0
162 0.001963
164 0.001989
168 0.002025
169 0.003017
137 0.002991
46 0.003033
46 0.004982
70 0.006013
99 0.00502
116 0.003976
123 0.003939
124 0.00296
125 0.003984
129 0.003009
142 0.003013
149 0.002993
156 0.001955
162 0.002979
165 0.000998
170 0.00198
172 0.002996
130 0.003954
57 0.003957
46 0.004031
77 0.004021
106 0.005029
123 0.006885
130 0.006996
132 0.007011
131 0.006982
135 0.006978
144 0.006018
155 0.003996
160 0.003985
164 0.003993
165 0.003992
171 0.00302
164 0.003987
127 0.004964
54 0.003991
58 0.003952
98 0.003989
118 0.006019
130 0.003004
135 0.004025
132 0.003946
130 0.004975
137 0.004035
145 0.004032
153 0.002999
159 0.0
160 0.0
164 0.0
166 0.002009
142 0.002992
52 0.003038
47 0.004996
72 0.006042
102 0.004969
121 0.003988
129 0.006193
128 0.003967
127 0.004019
130 0.001996
140 0.004029
150 0.003989
156 0.004023
162 0.003024
166 0.001018
170 0.003975
157 0.0
109 0.002034
39 0.0
53 0.0
80 0.001011
110 0.002024
126 0.004043
131 0.004986
129 0.004901
130 0.005019
135 0.004955
146 0.00499
155 0.003996
159 0.003985
163 0.003951
167 0.00497
171 0.002993
167 0.004022
95 0.003025
53 0.004027
66 0.003027
106 0.001017
118 0.0
129 0.000997
133 0.001994
131 0.002963
130 0.005022
137 0.005983
147 0.006988
155 0.004994
160 0.003988
162 0.002977
168 0.002996
161 0.00299
120 0.00199
46 0.0
57 0.003004
91 0.001008
112 0.003965
126 0.000998
131 0.002991
129 0.003063
129 0.003026
137 0.002992
147 0.0
155 0.0
161 0.00202
166 0.001887
168 0.001996
168 0.002
100 0.004008
50 0.003935
53 0.005997
80 0.006985
105 0.004965
121 0.004018
127 0.004976
128 0.004984
128 0.004017
133 0.003992
144 0.003958
152 0.00611
158 0.003019
162 0.003938
166 0.002029
166 0.003049
110 0.001994
49 0.001002
59 0.0
93 0.0
113 0.0
125 0.003045
129 0.001996
128 0.002991
127 0.004024
136 0.003973
143 0.005984
150 0.003968
155 0.00398
157 0.003029
162 0.002996
118 0.002952
66 0.003002
51 0.003993
84 0.004983
104 0.003998
122 0.003034
129 0.002992
130 0.003027
128 0.0
133 0.002993
145 0.0
152 0.0
157 0.0
161 0.001021
167 0.001002
161 0.001992
87 0.003029
43 0.003031
52 0.002998
90 0.002964
104 0.002981
119 0.004039
123 0.004982
123 0.004978
125 0.005987
132 0.004975
144 0.005902
151 0.007961
156 0.006974
158 0.006998
165 0.005968
161 0.006015
92 0.006117
42 0.00303
55 0.003006
95 0.0
113 0.0
122 0.0
124 0.00098
123 0.001008
126 0.000964
136 0.0
147 0.001999
152 0.002012
156 0.002992
160 0.004949
164 0.004987
149 0.004992
103 0.005019
47 0.005968
65 0.004986
96 0.006016
112 0.005939
122 0.006017
125 0.005985
122 0.006017
122 0.00603
131 0.007985
142 0.005021
147 0.006963
154 0.004988
156 0.007977
161 0.002992
157 0.002998
120 0.002996
41 0.003025
53 0.003026
76 0.002989
102 0.003004
116 0.00399
123 0.000965
123 0.003004
124 0.0
132 0.003034
144 0.002983
150 0.002998
156 0.001995
160 0.0
162 0.0
168 0.002
143 0.003035
88 0.002993
42 0.00201
70 0.005005
91 0.005019
110 0.005023
120 0.004988
125 0.005967
127 0.005968
130 0.005997
138 0.005985
150 0.006013
155 0.00399
161 0.002992
165 0.00399
168 0.002987
174 0.002977
157 0.0
111 0.004011
53 0.001008
72 0.0
96 0.0
118 0.0
127 0.0
134 0.000998
131 0.002029
131 0.002043
140 0.002001
150 0.003936
156 0.003959
161 0.004027
164 0.006022
167 0.004987
167 0.004992
107 0.007971
59 0.004999
54 0.007011
85 0.002996
109 0.004015
126 0.003989
133 0.00399
133 0.00399
131 0.000984
137 0.002023
146 0.001006
155 0.000998
160 0.00203
165 0.002016
169 0.002065
173 0.002038
162 0.001993
119 0.001978
49 0.001986
69 0.002005
94 0.002967
116 0.004006
131 0.004996
135 0.004968
135 0.004954
135 0.00497
142 0.004954
150 0.00496
158 0.005983
164 0.006968
169 0.006978
171 0.007974
174 0.007013
155 0.003986
111 0.00698
57 0.003023
84 0.002961
105 0.00299
121 0.000966
128 0.0
133 0.000998
131 0.0
131 0.0
141 0.000965
151 0.00101
156 0.001996
163 0.001995
166 0.002961
169 0.003976
161 0.003988
103 0.005025
50 0.005983
59 0.005983
97 0.006017
111 0.007988
125 0.006997
129 0.002989
129 0.006018
129 0.001991
137 0.003007
144 0.002986
154 0.0
158 0.003027
161 0.002993
165 0.00304
168 0.002994
153 0.0
107 0.0
46 0.0
63 0.0
88 0.0
112 0.0
125 0.0
129 0.0
128 0.0
129 0.002994
134 0.00399
146 0.004984
155 0.004987
160 0.004952
164 0.004986
165 0.005013
171 0.003025
154 0.005986
96 0.005977
59 0.005986
87 0.003973
107 0.003934
123 0.004017
133 0.005985
134 0.002994
132 0.007026
133 0.003992
140 0.003985
150 0.003991
156 0.004988
160 0.00502
164 0.0
167 0.002993
145 0.0
90 0.0
62 0.000967
82 0.000997
103 0.000998
122 0.003026
133 0.00399
132 0.004951
130 0.005993
130 0.005946
140 0.002999
146 0.002979
154 0.003994
157 0.004006
160 0.0
163 0.004952
120 0.004026
67 0.004032
42 0.0
61 0.0
96 0.0
110 0.000999
120 0.001993
120 0.001995
119 0.003988
121 0.003984
132 0.004973
143 0.006004
147 0.00602
152 0.005981
157 0.005984
159 0.006977
130 0.005018
48 0.002993
38 0.001991
69 0.002989
93 0.003023
107 0.0
117 0.002963
119 0.003021
119 0.003046
125 0.003001
131 0.004017
143 0.002078
150 0.002984
154 0.00401
158 0.00399
163 0.004988
158 0.006016
91 0.007978
46 0.003076
54 0.00601
93 0.003
113 0.002995
120 0.00299
125 0.002987
123 0.002987
124 0.002996
136 0.002026
143 0.002992
152 0.002024
155 0.002989
157 0.0
163 0.002989
139 0.003023
92 0.003028
46 0.003991
61 0.002992
98 0.004028
114 0.0
125 0.001998
128 0.002992
123 0.002967
125 0.002991
137 0.003019
148 0.004984
153 0.005984
157 0.005015
161 0.003989
164 0.004006
151 0.002936
85 0.003021
41 0.0
53 0.002991
89 0.0
102 0.0
117 0.0
123 0.002029
123 0.000998
124 0.002002
134 0.001995
142 0.002004
152 0.003959
158 0.004987
160 0.005985
166 0.005982
167 0.006016
129 0.006005
51 0.004987
58 0.003
76 0.003988
100 0.002993
113 0.002999
120 0.000999
122 0.004022
124 0.001011
131 0.001994
149 0.002
161 0.00296
166 0.00502
170 0.005011
173 0.006984
177 0.006982
166 0.006911
128 0.006981
68 0.007976
81 0.002992
113 0.002994
121 0.0
133 0.002952
135 0.003993
132 0.002998
134 0.002995
141 0.003015
153 0.003001
158 0.002991
162 0.0
165 0.002024
168 0.0
167 0.003038
107 0.003008
62 0.002993
61 0.001007
93 0.000998
113 0.001991
125 0.002003
130 0.002076
129 0.00104
130 0.001013
134 0.002033
147 0.000965
157 0.001969
160 0.004954
165 0.004956
