119 0.04488
128 0.001993
133 0.001994
142 0.003003
149 0.002951
157 0.002039
161 0.001995
165 0.001967
169 0.00399
175 0.003986
185 0.003027
192 0.002992
197 0.002992
196 0.002992
158 0.002991
96 0.002952
80 0.002992
82 0.003002
87 0.002952
89 0.002947
96 0.002963
103 0.002996
108 0.002993
111 0.002978
118 0.002027
125 0.002
134 0.002992
143 0.003989
150 0.003992
155 0.003991
161 0.002978
164 0.002992
169 0.002981
176 0.00399
186 0.002991
190 0.00299
172 0.002965
121 0.003995
83 0.004034
71 0.003956
73 0.00399
76 0.00399
79 0.002992
85 0.002981
92 0.002992
97 0.003989
103 0.003008
109 0.004029
116 0.004949
127 0.003022
133 0.00402
141 0.00399
149 0.004021
154 0.004011
158 0.004024
163 0.002991
169 0.002993
175 0.00399
185 0.003995
176 0.003989
128 0.005023
83 0.00399
61 0.00403
59 0.003956
60 0.003989
60 0.003999
60 0.004025
66 0.003996
75 0.004019
83 0.003984
90 0.003974
97 0.00402
104 0.004987
115 0.00402
122 0.003995
129 0.003989
136 0.004986
142 0.004987
148 0.00399
152 0.003989
155 0.004027
164 0.00399
173 0.003991
179 0.004108
167 0.003989
119 0.004956
70 0.004022
60 0.004039
59 0.004987
59 0.004987
58 0.003989
60 0.003993
68 0.003992
76 0.005017
84 0.003989
90 0.004987
96 0.005028
106 0.004989
114 0.004953
119 0.004978
128 0.004988
134 0.004987
140 0.004987
148 0.003944
152 0.00502
160 0.004986
169 0.004988
174 0.004986
178 0.005983
184 0.004987
189 0.00499
194 0.004954
198 0.004992
196 0.005984
137 0.00498
101 0.00499
73 0.004944
64 0.005008
64 0.003989
64 0.005955
65 0.005984
76 0.004986
83 0.004986
87 0.00495
91 0.004986
97 0.005984
105 0.005961
114 0.004986
122 0.00505
129 0.004983
136 0.004986
142 0.005986
150 0.004985
155 0.005063
160 0.005026
166 0.006015
171 0.00602
180 0.006017
187 0.005985
191 0.004988
171 0.005035
121 0.00502
75 0.005028
72 0.004986
73 0.005984
74 0.007017
76 0.00598
82 0.006016
88 0.00601
97 0.005984
100 0.006017
105 0.006027
115 0.005039
123 0.004986
136 0.005023
143 0.004992
150 0.005986
156 0.006019
163 0.006035
169 0.006018
174 0.005984
178 0.006982
182 0.006981
190 0.005984
195 0.005983
199 0.005984
202 0.00592
178 0.005982
107 0.005982
81 0.005946
77 0.004985
80 0.006029
82 0.006013
84 0.007015
90 0.006983
100 0.005987
104 0.006033
107 0.006022
117 0.006024
125 0.006025
134 0.005938
143 0.005982
150 0.00688
158 0.005969
163 0.005984
166 0.007021
171 0.006982
177 0.005983
183 0.006018
189 0.006021
198 0.005985
196 0.006033
158 0.006028
104 0.007946
77 0.007014
70 0.007012
71 0.006982
72 0.006982
73 0.006981
77 0.006981
88 0.006
95 0.00598
103 0.005983
108 0.006032
116 0.007923
124 0.007945
136 0.006982
143 0.006981
150 0.006983
156 0.006983
161 0.007016
165 0.00694
170 0.006982
176 0.006981
188 0.005985
193 0.007011
191 0.006974
135 0.00797
87 0.007934
68 0.007026
64 0.006934
65 0.006975
64 0.007977
65 0.007968
71 0.006977
81 0.006975
91 0.006948
96 0.00794
100 0.007944
110 0.007945
118 0.007979
129 0.006981
137 0.006982
144 0.006982
151 0.007983
156 0.007979
163 0.006982
169 0.007759
179 0.007021
183 0.007026
189 0.007062
195 0.007982
192 0.007979
132 0.006981
78 0.006974
67 0.007015
68 0.007012
69 0.007013
69 0.007012
73 0.007013
84 0.007923
91 0.007014
95 0.007949
101 0.007944
109 0.006979
115 0.007979
126 0.006948
138 0.006971
145 0.007016
151 0.007017
159 0.007019
164 0.007014
172 0.007014
176 0.007079
182 0.006974
188 0.007982
194 0.007979
200 0.007962
200 0.007963
178 0.007979
93 0.006981
74 0.006981
72 0.007028
74 0.007015
77 0.006989
82 0.007022
91 0.007014
97 0.007016
101 0.007012
107 0.007013
114 0.007045
122 0.007022
131 0.006015
140 0.006022
149 0.007022
155 0.007022
165 0.007012
170 0.006982
175 0.006987
179 0.007022
184 0.007027
192 0.006981
198 0.007017
202 0.007015
204 0.006018
182 0.006022
108 0.006019
80 0.006948
75 0.005977
79 0.006019
81 0.006008
84 0.006997
92 0.007015
101 0.006994
105 0.005987
109 0.005985
115 0.006017
123 0.005985
132 0.006017
144 0.006016
154 0.005984
162 0.005984
166 0.005985
169 0.006988
174 0.006014
179 0.006982
186 0.007035
192 0.006018
196 0.006015
190 0.005984
149 0.005983
89 0.005984
74 0.00606
78 0.005981
81 0.005983
85 0.005982
91 0.005988
99 0.006004
103 0.004989
106 0.004958
111 0.004995
118 0.004987
127 0.004988
139 0.00504
148 0.004987
153 0.005002
156 0.006022
161 0.004988
167 0.005018
172 0.006024
180 0.006034
176 0.005972
139 0.006022
93 0.005985
70 0.005023
65 0.00502
69 0.005026
70 0.00503
74 0.005018
82 0.005021
89 0.004988
93 0.004954
99 0.003991
105 0.006019
112 0.005031
121 0.006019
129 0.005018
138 0.00502
145 0.005031
150 0.005021
155 0.005023
162 0.004988
168 0.004991
173 0.004987
156 0.003982
108 0.006051
73 0.004029
61 0.005024
60 0.00399
61 0.004987
61 0.004987
67 0.004986
76 0.004987
83 0.004989
88 0.00497
93 0.004995
101 0.004985
109 0.004992
117 0.003988
125 0.003989
132 0.003958
139 0.00399
145 0.003989
152 0.004021
159 0.003991
166 0.003984
172 0.00503
176 0.004979
139 0.004976
93 0.005042
71 0.005027
65 0.004986
66 0.004033
67 0.004032
68 0.004024
78 0.003991
86 0.004017
91 0.004023
96 0.004004
102 0.004022
109 0.004028
120 0.004997
128 0.005019
135 0.004025
141 0.004022
147 0.004014
155 0.004031
160 0.004051
167 0.003959
174 0.004022
181 0.003998
187 0.003999
185 0.003983
131 0.00399
90 0.004027
74 0.00399
74 0.00399
76 0.002961
78 0.002996
82 0.003025
94 0.004022
100 0.003987
104 0.004039
108 0.004014
115 0.003993
126 0.003991
135 0.004036
143 0.003996
150 0.00303
156 0.002992
163 0.003058
167 0.002988
175 0.004024
181 0.002993
187 0.004022
192 0.004037
192 0.003991
146 0.003982
101 0.003998
82 0.003991
81 0.002993
84 0.003026
88 0.002994
93 0.003046
103 0.002994
107 0.002993
110 0.003003
115 0.00299
122 0.003997
133 0.004009
142 0.003984
150 0.003992
156 0.002992
159 0.002993
165 0.003037
171 0.002992
179 0.002992
185 0.003993
189 0.002992
177 0.002966
132 0.003991
84 0.001996
75 0.002992
76 0.003026
78 0.001942
79 0.003
87 0.001995
95 0.002028
102 0.001997
106 0.002993
111 0.002992
119 0.002992
127 0.002937
138 0.00299
146 0.003037
152 0.003049
157 0.002993
161 0.00295
169 0.002992
176 0.001992
184 0.001994
187 0.001994
167 0.002994
116 0.002992
81 0.002959
69 0.002992
69 0.003044
69 0.002953
69 0.002992
73 0.002992
87 0.002994
94 0.002987
100 0.003024
105 0.001987
112 0.001995
120 0.001995
129 0.001995
137 0.001995
146 0.002024
152 0.001995
157 0.001996
161 0.00202
170 0.001995
177 0.000997
183 0.001995
190 0.000997
175 0.000999
125 0.00198
86 0.001997
73 0.001994
71 0.001993
73 0.002034
73 0.001995
75 0.001995
89 0.001996
95 0.001996
100 0.001997
106 0.002005
113 0.000981
122 0.000997
130 0.000997
138 0.000997
147 0.001995
153 0.001995
158 0.002008
162 0.001996
170 0.001996
176 0.001995
183 0.001995
190 0.000997
188 0.000997
152 0.001007
103 0.000997
80 0.000997
75 0.001014
77 0.000989
78 0.001995
79 0.002017
91 0.000962
98 0.000998
102 0.000998
108 0.001039
114 0.000999
123 0.000997
131 0.000997
139 0.000999
148 0.000995
154 0.000997
159 0.000998
164 0.0
170 0.000998
175 0.000999
181 0.000998
189 0.001004
196 0.000997
200 0.000997
185 0.000998
135 0.000997
87 0.001996
79 0.000997
80 0.000998
83 0.0
86 0.000998
93 0.0
100 0.0
106 0.0
110 0.0
116 0.0
124 0.0
133 0.0
144 0.0
151 0.000998
157 0.0
163 0.0
168 0.001
173 0.000998
179 0.000998
187 0.001008
193 0.00101
195 0.000984
178 0.000998
130 0.000995
87 0.000998
81 0.0
84 0.0
87 0.000997
93 0.0
100 0.0
107 0.0
110 0.0
115 0.0
122 0.0
131 0.0
140 0.0
148 0.0
158 0.0
162 0.0
167 0.0
173 0.0
179 0.0
186 0.0
193 0.0
185 0.000997
142 0.0
97 0.0
78 0.0
75 0.0
78 0.0
79 0.0
83 0.0
94 0.000967
100 0.0
104 0.000997
110 0.0
118 0.000997
126 0.000998
138 0.0
145 0.0
152 0.0
157 0.000997
160 0.000997
165 0.0
174 0.001002
181 0.0
188 0.0
182 0.0
139 0.001029
91 0.001031
67 0.0
66 0.0
65 0.0
65 0.001003
65 0.000997
74 0.0
87 0.000997
92 0.0
97 0.0
104 0.000998
111 0.000963
119 0.000998
127 0.001002
137 0.0
143 0.0
148 0.001035
152 0.001009
159 0.0
168 0.000998
177 0.000999
181 0.0
163 0.000992
115 0.000998
80 0.002002
67 0.00104
66 0.001031
67 0.000965
66 0.001037
69 0.000998
80 0.0
89 0.000956
95 0.0
101 0.001042
108 0.001028
116 0.002032
124 0.000998
134 0.001
141 0.000985
147 0.000987
153 0.00101
157 0.002
163 0.000998
170 0.001995
177 0.001004
183 0.001049
189 0.001033
170 0.001038
121 0.000998
78 0.0
71 0.000966
71 0.000997
72 0.001995
72 0.002038
77 0.001032
88 0.002038
94 0.001996
99 0.000994
105 0.000986
113 0.00101
122 0.000996
130 0.002034
137 0.001022
145 0.002038
153 0.001011
158 0.001995
163 0.001995
171 0.002026
176 0.001948
184 0.001056
190 0.001027
196 0.000955
198 0.002011
184 0.001995
118 0.001008
85 0.000996
76 0.000999
77 0.001994
79 0.002992
80 0.002992
87 0.002992
97 0.001994
101 0.002031
105 0.001934
111 0.002988
119 0.001995
127 0.002026
139 0.000957
144 0.001995
152 0.001994
157 0.001987
163 0.001991
167 0.002034
175 0.002051
181 0.002026
186 0.002015
189 0.002992
180 0.002994
120 0.002025
86 0.002031
77 0.001986
76 0.001995
77 0.001995
79 0.001995
85 0.002992
96 0.00204
101 0.000997
105 0.002027
110 0.003023
118 0.002992
130 0.002038
139 0.00203
147 0.002026
152 0.002992
157 0.003025
164 0.003029
170 0.002992
179 0.002038
185 0.002
189 0.002024
170 0.003036
119 0.004025
76 0.003034
68 0.003026
67 0.002029
67 0.002992
66 0.002992
73 0.002992
83 0.003029
93 0.001992
98 0.002027
103 0.002985
111 0.002992
118 0.003045
130 0.001939
139 0.002993
147 0.00295
152 0.003974
157 0.00399
165 0.00399
171 0.003989
180 0.002996
186 0.003031
187 0.003028
157 0.002989
105 0.002992
76 0.003001
66 0.001998
66 0.002994
66 0.003976
66 0.004023
75 0.002989
85 0.003989
93 0.00399
100 0.003023
105 0.003023
113 0.003025
122 0.003989
130 0.005037
139 0.004003
146 0.004031
152 0.004018
160 0.003989
168 0.003027
174 0.004023
181 0.00399
191 0.003024
195 0.003025
183 0.00197
134 0.004023
91 0.004986
72 0.004059
72 0.004034
73 0.004021
73 0.003983
80 0.002977
89 0.00399
97 0.004042
104 0.002992
110 0.003025
118 0.002995
127 0.003989
136 0.004028
148 0.004023
156 0.003989
161 0.004024
166 0.004987
174 0.004022
181 0.00499
188 0.004019
197 0.002986
199 0.002973
177 0.002984
125 0.004987
89 0.004956
78 0.003934
80 0.004028
82 0.00402
83 0.005019
95 0.005022
104 0.004987
109 0.004992
115 0.00501
119 0.004014
131 0.004025
140 0.004988
148 0.004987
158 0.004039
162 0.004047
166 0.003967
171 0.004986
180 0.004018
187 0.00502
192 0.005021
191 0.004022
157 0.004023
106 0.004007
80 0.004987
74 0.006033
77 0.005042
79 0.005036
82 0.004987
89 0.004988
102 0.004021
107 0.005024
111 0.004985
121 0.003979
129 0.004022
139 0.003989
148 0.005019
155 0.005985
162 0.005
167 0.004986
172 0.004986
179 0.005983
190 0.005026
192 0.005984
168 0.005984
98 0.005026
72 0.005018
66 0.005029
65 0.005019
66 0.005992
67 0.004954
73 0.004986
83 0.004983
92 0.006018
101 0.005021
107 0.005984
115 0.005984
124 0.00602
137 0.00502
145 0.005985
153 0.005025
159 0.005984
164 0.006021
171 0.005013
177 0.005005
184 0.004958
194 0.004956
189 0.005001
143 0.005984
92 0.006048
67 0.005013
65 0.00502
67 0.005023
67 0.006981
68 0.006982
79 0.006023
89 0.00502
95 0.005968
105 0.004997
112 0.005012
122 0.006024
131 0.005984
143 0.004979
152 0.00502
158 0.005021
163 0.007015
168 0.006851
176 0.006021
183 0.006045
190 0.005973
198 0.006015
181 0.004986
127 0.006019
85 0.006015
71 0.004988
72 0.00506
74 0.00502
76 0.006985
80 0.007016
92 0.006019
100 0.006017
105 0.006015
115 0.006016
124 0.006015
134 0.007011
143 0.006957
155 0.005016
160 0.006018
167 0.005999
174 0.007015
179 0.006981
185 0.005969
191 0.005982
197 0.005966
207 0.005984
209 0.006007
188 0.007015
130 0.007013
80 0.005973
73 0.006017
76 0.006017
79 0.007943
82 0.007971
89 0.007016
95 0.006974
105 0.005978
114 0.006046
121 0.005977
131 0.006983
141 0.006981
153 0.005984
162 0.00598
169 0.006012
174 0.007978
178 0.007948
185 0.00701
190 0.007102
196 0.006965
205 0.006027
204 0.006023
172 0.006981
116 0.007012
81 0.006981
80 0.005985
85 0.005978
90 0.007987
93 0.007979
105 0.006963
112 0.006938
116 0.006985
124 0.007016
134 0.007012
144 0.008019
154 0.006982
166 0.005953
172 0.007025
176 0.007018
179 0.007013
186 0.007979
189 0.007979
196 0.006981
201 0.005982
171 0.007012
112 0.007015
76 0.007
66 0.007978
69 0.006984
71 0.00699
73 0.007948
77 0.007979
89 0.007979
99 0.007011
106 0.00703
112 0.006981
124 0.006996
134 0.006982
143 0.006983
152 0.007979
159 0.007979
166 0.007014
173 0.007018
176 0.006961
185 0.006981
191 0.007027
190 0.007012
153 0.007021
71 0.007017
61 0.007979
57 0.007002
58 0.007979
59 0.007978
61 0.006978
69 0.006979
83 0.007012
89 0.006982
95 0.007015
104 0.007024
112 0.007016
129 0.007019
139 0.007026
147 0.007006
154 0.007016
160 0.007019
165 0.006981
172 0.007014
178 0.007019
185 0.007012
191 0.007015
194 0.007025
166 0.007016
79 0.006982
65 0.007943
60 0.005987
62 0.006047
63 0.008012
66 0.006935
75 0.006034
85 0.007014
91 0.007024
96 0.007018
105 0.007014
114 0.007039
131 0.006964
140 0.007021
148 0.007012
154 0.006981
159 0.006981
166 0.006016
172 0.005982
179 0.006982
186 0.006017
191 0.005989
181 0.007013
132 0.007021
71 0.00702
66 0.006979
68 0.007039
71 0.006019
73 0.00598
82 0.006044
91 0.006016
98 0.005983
103 0.00602
108 0.006021
120 0.005968
130 0.005984
147 0.006982
155 0.00704
162 0.006986
168 0.006014
172 0.006028
177 0.006017
185 0.006014
191 0.006017
197 0.005985
202 0.005984
196 0.00603
133 0.005986
82 0.005988
75 0.00602
79 0.00503
83 0.006027
86 0.00604
94 0.006005
105 0.006017
111 0.006035
115 0.006017
122 0.006018
132 0.006026
146 0.006018
158 0.006025
168 0.006043
173 0.005031
175 0.005025
179 0.005003
184 0.005021
192 0.005039
197 0.006036
201 0.006021
190 0.005984
142 0.004988
83 0.006042
71 0.006021
76 0.006021
79 0.005019
83 0.004988
92 0.004988
100 0.005018
107 0.004991
111 0.005024
119 0.00503
128 0.00492
139 0.005023
152 0.006025
162 0.00603
170 0.005014
174 0.005021
178 0.005025
184 0.004956
190 0.005023
195 0.005038
186 0.004986
137 0.005023
85 0.00503
63 0.005007
60 0.005024
61 0.004987
63 0.005023
70 0.005013
80 0.00503
89 0.004022
94 0.003955
102 0.004026
111 0.004023
121 0.004029
131 0.004029
141 0.004025
152 0.005004
162 0.005031
169 0.005018
174 0.005021
178 0.004984
184 0.005019
190 0.005011
198 0.004957
200 0.005019
178 0.005021
118 0.004981
74 0.004022
57 0.004024
58 0.004003
59 0.00399
61 0.00402
70 0.004023
79 0.004021
87 0.004985
95 0.005021
101 0.005055
110 0.004044
120 0.004042
131 0.00399
142 0.004007
153 0.003991
160 0.003991
166 0.004017
171 0.00399
177 0.003992
184 0.003957
190 0.00399
192 0.00399
166 0.003992
109 0.003991
74 0.003017
63 0.002994
65 0.002994
66 0.003953
71 0.003991
80 0.003991
89 0.004036
95 0.00399
101 0.004032
110 0.004007
120 0.004031
130 0.003992
140 0.003979
148 0.003028
161 0.003046
168 0.002993
175 0.002959
178 0.002993
183 0.003991
189 0.00398
194 0.00399
202 0.003991
206 0.004005
195 0.003992
147 0.003041
93 0.003991
68 0.00403
69 0.003961
71 0.004024
74 0.003026
82 0.003021
91 0.002992
99 0.003029
106 0.002996
113 0.003004
123 0.002999
133 0.002993
144 0.002994
159 0.004021
166 0.002995
172 0.002963
177 0.004041
182 0.004026
188 0.002993
193 0.002995
200 0.003006
200 0.00299
180 0.002993
128 0.002958
86 0.002991
72 0.002957
75 0.002964
80 0.002965
86 0.002951
96 0.003957
102 0.003001
106 0.002986
112 0.002992
120 0.002992
130 0.002992
141 0.002992
151 0.002027
164 0.003027
169 0.002987
174 0.001995
179 0.002996
184 0.002954
190 0.002993
195 0.003007
186 0.003002
140 0.003023
87 0.002995
64 0.002972
60 0.002992
62 0.003023
63 0.001996
71 0.002024
81 0.002993
89 0.002993
95 0.002028
100 0.002993
111 0.002993
121 0.003022
131 0.003031
141 0.002993
149 0.003028
159 0.001995
164 0.002025
172 0.002032
179 0.002026
185 0.002027
190 0.001996
182 0.001996
118 0.002005
76 0.001995
62 0.002051
61 0.002027
63 0.001995
66 0.002026
73 0.001987
83 0.001998
94 0.001995
99 0.001996
105 0.000997
114 0.002
124 0.000998
138 0.002007
147 0.001995
154 0.002001
160 0.001996
168 0.002039
174 0.002029
181 0.001995
190 0.001964
193 0.001995
179 0.001995
128 0.001013
83 0.001989
66 0.002038
67 0.001005
70 0.001994
73 0.000997
83 0.000997
93 0.001
98 0.000999
105 0.000991
112 0.000999
121 0.001991
132 0.002002
143 0.001988
154 0.001995
163 0.001995
169 0.002008
174 0.000998
181 0.000999
187 0.000997
193 0.001025
201 0.00101
205 0.000997
197 0.001005
153 0.001007
98 0.000998
71 0.001029
71 0.002003
75 0.001995
78 0.002047
88 0.001036
96 0.000998
103 0.000998
109 0.00103
116 0.00101
126 0.000998
137 0.000998
146 0.000998
157 0.000997
162 0.000997
166 0.000998
169 0.000959
178 0.000997
184 0.001996
189 0.0
191 0.000997
169 0.000999
118 0.001
81 0.000998
70 0.000997
74 0.000965
78 0.000997
83 0.000997
91 0.001001
103 0.000992
106 0.000998
111 0.001272
121 0.001015
132 0.000998
142 0.000997
152 0.000958
159 0.000997
167 0.000998
170 0.000998
174 0.000998
179 0.0
188 0.0
193 0.0
184 0.000997
117 0.000998
75 0.000997
60 0.000998
59 0.000998
61 0.000997
63 0.0
68 0.0
77 0.0
86 0.0
94 0.0
100 0.0
109 0.0
122 0.0
132 0.0
141 0.0
149 0.0
156 0.0
160 0.000967
166 0.001006
172 0.0
178 0.0
188 0.0
192 0.0
178 0.0
126 0.0
70 0.0
59 0.000999
61 0.0
62 0.0
63 0.0
70 0.0
79 0.0
88 0.0
95 0.000998
105 0.0
114 0.0
124 0.0
134 0.000998
143 0.000998
151 0.000998
156 0.000997
163 0.0
169 0.001035
175 0.001964
185 0.0
192 0.000997
188 0.0
147 0.0
94 0.0
70 0.00101
67 0.001031
70 0.0
72 0.0
77 0.0
85 0.000998
93 0.00104
100 0.001004
108 0.000997
120 0.0
130 0.0
137 0.000997
149 0.001044
156 0.001035
162 0.0
165 0.0
169 0.0
174 0.000999
180 0.000999
185 0.000984
191 0.000998
159 0.0
107 0.000998
76 0.0
68 0.000997
71 0.001984
76 0.0
80 0.0
88 0.0
95 0.000999
100 0.001029
105 0.0
116 0.001032
129 0.0
139 0.0
149 0.0
156 0.001994
162 0.001996
167 0.0
171 0.0
177 0.001003
183 0.00103
189 0.001991
191 0.001002
147 0.001031
80 0.000993
62 0.000999
60 0.001022
61 0.002028
63 0.002027
66 0.000997
75 0.001033
85 0.001
91 0.001994
96 0.001996
105 0.000992
118 0.001027
131 0.001028
141 0.000985
149 0.000965
155 0.002006
162 0.001996
169 0.002032
174 0.002016
179 0.001031
184 0.000956
188 0.001986
193 0.002044
201 0.001995
204 0.002992
169 0.000975
107 0.001004
70 0.001006
59 0.001996
60 0.00203
61 0.000964
63 0.001006
68 0.001012
77 0.002024
85 0.001988
94 0.002027
101 0.003019
113 0.000978
123 0.000998
134 0.001026
142 0.002993
150 0.002022
158 0.001015
163 0.000995
168 0.000998
174 0.002028
181 0.002025
192 0.002029
193 0.003008
154 0.001995
100 0.001996
72 0.002034
67 0.003002
69 0.002988
73 0.000975
77 0.00099
84 0.001004
93 0.001983
100 0.002027
108 0.002028
115 0.002992
129 0.001965
139 0.001995
148 0.001995
156 0.003025
163 0.003002
168 0.001989
171 0.001994
175 0.001967
180 0.002989
185 0.002996
193 0.002992
193 0.003029
151 0.00199
98 0.00199
72 0.001992
67 0.002963
71 0.002998
75 0.002037
80 0.002026
89 0.000994
96 0.003957
100 0.003999
108 0.00399
116 0.004022
129 0.001964
140 0.001992
148 0.001978
156 0.00298
161 0.002991
166 0.001968
171 0.001988
176 0.002026
182 0.002993
187 0.003989
182 0.00399
137 0.003989
74 0.003023
59 0.001993
59 0.001999
61 0.002948
61 0.002965
66 0.001996
75 0.002001
83 0.00201
89 0.002993
94 0.004005
106 0.003989
116 0.003989
129 0.003024
138 0.003023
146 0.002004
153 0.004001
159 0.003986
165 0.001993
169 0.002972
174 0.002975
179 0.003976
185 0.003958
194 0.002991
190 0.003991
152 0.00399
80 0.003034
60 0.003016
57 0.001989
58 0.004955
59 0.003988
62 0.002992
69 0.003025
78 0.002998
85 0.004988
94 0.002977
101 0.004028
110 0.004022
124 0.002992
133 0.002991
141 0.002993
149 0.003985
154 0.003982
160 0.002992
166 0.00398
173 0.003965
180 0.004983
190 0.003024
187 0.004986
152 0.004972
87 0.00301
68 0.003024
66 0.002991
69 0.003996
72 0.003986
76 0.002937
84 0.002994
92 0.003999
98 0.004992
107 0.003979
114 0.004987
124 0.005021
137 0.002983
145 0.003004
152 0.002982
157 0.004984
161 0.004986
166 0.003988
171 0.003959
177 0.003989
182 0.004987
188 0.003986
172 0.004988
123 0.004987
75 0.004007
67 0.003007
70 0.002998
73 0.004988
75 0.004988
84 0.002992
92 0.003993
97 0.003994
101 0.00497
111 0.001032
120 0.00502
130 0.005022
142 0.004004
150 0.003981
156 0.003988
160 0.00595
163 0.006001
171 0.003987
177 0.003986
183 0.003992
188 0.005981
164 0.003862
110 0.005026
72 0.005
60 0.003995
61 0.003991
62 0.003995
62 0.004982
67 0.005989
79 0.00498
86 0.004982
91 0.003979
96 0.00598
109 0.005031
119 0.005988
128 0.005995
140 0.003991
147 0.003989
153 0.003994
158 0.005987
162 0.005986
169 0.004982
175 0.004985
182 0.004988
189 0.005987
187 0.004991
146 0.006019
92 0.005984
66 0.005979
61 0.004976
63 0.004993
64 0.004985
65 0.005987
71 0.005987
83 0.004987
90 0.004987
95 0.004997
106 0.004984
115 0.005032
125 0.006983
135 0.006015
145 0.004979
152 0.004956
159 0.004987
164 0.006982
168 0.006982
175 0.004984
181 0.004991
187 0.004987
197 0.004984
200 0.004987
186 0.006981
134 0.006982
78 0.005017
68 0.005971
69 0.00599
71 0.006968
72 0.006993
79 0.004953
88 0.004987
95 0.004981
103 0.004976
110 0.005958
119 0.006017
129 0.006981
142 0.005952
150 0.005985
157 0.005982
163 0.006951
167 0.006994
173 0.005978
178 0.005963
185 0.004973
194 0.00499
197 0.004996
186 0.008007
141 0.007015
84 0.005973
72 0.005973
74 0.005975
77 0.006984
80 0.006991
87 0.005982
96 0.005066
101 0.00599
108 0.006017
114 0.00602
123 0.007017
133 0.007011
146 0.005989
153 0.005985
159 0.005975
163 0.006977
167 0.007003
173 0.005983
179 0.005988
185 0.005984
189 0.005982
167 0.005984
112 0.007014
75 0.007985
62 0.005971
64 0.006943
66 0.00597
67 0.007976
75 0.007976
84 0.00599
91 0.005999
95 0.005981
104 0.005988
113 0.005984
123 0.007947
132 0.007941
143 0.006981
150 0.00698
155 0.006006
159 0.007966
163 0.007974
173 0.006976
177 0.005948
183 0.005983
188 0.005987
162 0.006986
106 0.007979
70 0.007948
59 0.007959
58 0.006985
59 0.00698
59 0.007005
63 0.007946
72 0.007955
84 0.007002
87 0.005954
97 0.007023
108 0.006948
115 0.006983
123 0.007979
134 0.00798
141 0.006996
147 0.00699
153 0.006986
157 0.007948
162 0.007948
169 0.006975
177 0.006983
187 0.007013
184 0.006952
146 0.006984
94 0.006973
68 0.007011
62 0.006976
63 0.006947
65 0.006979
65 0.008012
72 0.007959
81 0.006987
88 0.006991
97 0.006984
103 0.006987
115 0.007019
125 0.007013
133 0.006989
144 0.006972
151 0.006997
157 0.006973
162 0.007016
167 0.007013
172 0.00698
177 0.006986
189 0.006989
195 0.006951
198 0.006988
189 0.006984
145 0.007015
95 0.006981
71 0.006988
71 0.006963
74 0.007016
75 0.00602
80 0.006015
88 0.006018
98 0.006984
102 0.00602
107 0.00602
115 0.007021
124 0.006023
135 0.007021
142 0.006978
148 0.006013
152 0.00704
156 0.006875
161 0.00595
167 0.006024
178 0.005982
184 0.006949
184 0.006014
156 0.006021
107 0.006018
72 0.00699
67 0.006019
69 0.006974
72 0.006972
73 0.007041
82 0.006983
91 0.006985
99 0.005964
103 0.006054
110 0.006024
119 0.00605
128 0.005988
140 0.006019
147 0.006026
153 0.00602
157 0.006023
161 0.006014
169 0.005985
175 0.006015
185 0.00605
182 0.006031
145 0.006025
94 0.006018
69 0.006018
62 0.00602
62 0.006021
63 0.006017
64 0.005978
69 0.006017
79 0.006017
88 0.005013
95 0.00502
103 0.005021
111 0.005026
121 0.005
129 0.005037
137 0.005021
146 0.005987
152 0.006036
157 0.006015
162 0.005985
166 0.006018
174 0.006014
183 0.006015
191 0.004986
190 0.00502
160 0.005027
104 0.005022
72 0.005022
63 0.005016
63 0.004937
64 0.005023
64 0.006016
69 0.005984
81 0.006014
89 0.00502
95 0.005038
102 0.004972
111 0.00502
120 0.005038
129 0.004986
139 0.005024
146 0.00503
151 0.004987
156 0.005032
160 0.004974
169 0.004988
178 0.00502
187 0.005025
189 0.005024
172 0.005022
123 0.004989
85 0.005024
70 0.00504
71 0.00503
74 0.005029
75 0.005037
79 0.005015
90 0.005021
97 0.004005
102 0.004027
108 0.003953
116 0.004987
124 0.00504
131 0.004972
140 0.004942
146 0.004985
150 0.00399
154 0.00502
159 0.00502
167 0.003998
176 0.003988
182 0.002993
175 0.004021
136 0.003958
94 0.004021
74 0.00395
72 0.00399
74 0.003988
76 0.004053
79 0.004978
86 0.005018
96 0.005031
101 0.005026
106 0.004999
114 0.005019
122 0.005022
130 0.003982
137 0.003999
145 0.005029
148 0.004019
150 0.004029
154 0.004024
159 0.003988
168 0.004026
176 0.003991
163 0.004023
119 0.003997
82 0.00399
68 0.00399
66 0.004984
67 0.00402
68 0.004021
71 0.004009
78 0.004042
86 0.003991
91 0.004034
98 0.004015
105 0.003992
116 0.003017
123 0.003958
130 0.004024
137 0.00399
142 0.003026
148 0.003025
152 0.002992
158 0.002995
165 0.003991
173 0.002992
184 0.004009
174 0.004022
112 0.003993
79 0.004001
69 0.004024
69 0.003988
71 0.002988
73 0.00399
77 0.003954
86 0.00402
92 0.004043
97 0.003952
104 0.003959
111 0.004022
120 0.003001
129 0.003986
137 0.003024
144 0.002992
150 0.002993
157 0.00302
163 0.002994
170 0.002989
176 0.002992
183 0.002992
171 0.004026
125 0.003956
85 0.004022
80 0.003989
84 0.004001
87 0.002993
90 0.002993
100 0.003023
107 0.002992
110 0.003036
114 0.002999
120 0.002987
135 0.003034
146 0.002992
158 0.003046
165 0.003032
169 0.002994
174 0.001995
179 0.001996
188 0.002028
194 0.003029
197 0.002013
176 0.002957
124 0.002967
78 0.002993
73 0.002956
73 0.001995
73 0.00301
74 0.00299
81 0.003032
91 0.002992
99 0.001995
104 0.002992
110 0.002975
117 0.002987
126 0.001995
139 0.002033
144 0.002027
152 0.001994
158 0.00203
164 0.002034
170 0.001963
175 0.001992
150 0.001995
104 0.001955
75 0.002001
65 0.001995
63 0.003013
62 0.001993
63 0.001999
72 0.00203
82 0.002032
91 0.002025
97 0.001996
103 0.002031
114 0.001995
123 0.002002
133 0.002036
141 0.000999
147 0.002
157 0.000998
164 0.002033
172 0.001001
181 0.001996
182 0.001995
153 0.00201
105 0.002027
78 0.001996
70 0.002004
70 0.002042
71 0.00201
72 0.002057
83 0.001042
93 0.001996
100 0.001995
107 0.001997
114 0.002
122 0.000999
131 0.001029
139 0.000997
149 0.000998
157 0.00102
165 0.002024
173 0.000998
185 0.000998
184 0.002004
150 0.002003
94 0.002025
78 0.001961
77 0.000997
80 0.000997
82 0.000998
87 0.000997
97 0.000997
108 0.001036
115 0.000997
125 0.000997
132 0.000998
140 0.00203
151 0.001995
157 0.002004
163 0.000999
170 0.000998
176 0.000997
184 0.000997
190 0.000997
186 0.001005
150 0.000996
89 0.000998
82 0.001996
85 0.001996
89 0.001997
93 0.001013
101 0.0
111 0.0
116 0.0
122 0.000999
129 0.000967
137 0.0
147 0.000998
162 0.000998
170 0.000986
176 0.000993
185 0.000998
192 0.000997
199 0.001018
203 0.0
185 0.0
116 0.0
86 0.0
80 0.0
81 0.0
84 0.0
88 0.000997
98 0.000998
110 0.000963
116 0.000997
121 0.0
128 0.0
137 0.0
151 0.0
161 0.0
169 0.0
176 0.0
185 0.0
191 0.0
197 0.0
205 0.000997
209 0.000963
191 0.0
134 0.0
91 0.0
77 0.0
79 0.0
83 0.0
86 0.0
99 0.000991
108 0.0
114 0.0
119 0.000983
128 0.0
138 0.000998
152 0.000978
159 0.000999
168 0.000997
177 0.0
183 0.001029
190 0.0
199 0.0
206 0.0
211 0.0
194 0.000996
139 0.001989
95 0.002027
82 0.0
87 0.0
93 0.0
98 0.002029
107 0.001029
119 0.0
126 0.001043
132 0.0
140 0.0
150 0.0
161 0.001055
172 0.000999
182 0.0
186 0.0
189 0.0
193 0.001995
197 0.000997
203 0.001009
207 0.00204
188 0.0
134 0.0
91 0.0
80 0.002038
84 0.002028
94 0.0
102 0.001
112 0.0
120 0.00103
123 0.001032
126 0.0
135 0.001031
148 0.000977
159 0.0
168 0.0
176 0.001039
180 0.001029
186 0.0
191 0.0
196 0.0
200 0.001029
199 0.00103
148 0.0
83 0.001013
69 0.000998
71 0.000998
79 0.0
84 0.001039
92 0.001994
103 0.0
109 0.0
112 0.0
117 0.002003
126 0.002028
139 0.0
154 0.001033
165 0.0
171 0.0
175 0.00097
179 0.001
182 0.001997
190 0.001044
195 0.0
199 0.002028
185 0.00203
132 0.001996
73 0.000998
64 0.002025
71 0.0
76 0.000981
82 0.000993
91 0.001997
97 0.001999
103 0.001013
108 0.001004
115 0.001999
124 0.002029
136 0.001995
149 0.002044
160 0.00201
167 0.001008
170 0.000975
174 0.000994
179 0.002027
185 0.002992
191 0.002997
191 0.00096
160 0.000965
104 0.001004
72 0.002009
66 0.001995
76 0.002027
81 0.00205
92 0.000986
101 0.001013
106 0.00099
108 0.003022
113 0.003048
123 0.00099
134 0.001998
145 0.000995
155 0.002053
163 0.001997
171 0.001996
174 0.00203
179 0.001999
185 0.000997
191 0.002024
197 0.003025
196 0.002991
147 0.001
93 0.000998
71 0.000994
70 0.002992
77 0.002993
89 0.002993
98 0.002993
107 0.001016
109 0.001979
112 0.001997
118 0.003023
127 0.002994
142 0.001
152 0.000982
160 0.000998
166 0.002993
169 0.003027
175 0.003006
179 0.002989
185 0.001011
188 0.001998
184 0.001999
149 0.002977
97 0.002993
68 0.000957
69 0.000989
77 0.002036
84 0.002996
93 0.003031
104 0.002988
105 0.002973
109 0.001998
115 0.001994
124 0.001999
134 0.003986
144 0.003971
154 0.001962
158 0.001987
162 0.001984
167 0.002997
172 0.00302
180 0.002989
174 0.002976
114 0.001994
70 0.003041
55 0.003036
56 0.003989
60 0.003988
65 0.001992
71 0.001994
79 0.001965
85 0.004021
88 0.003987
97 0.00299
105 0.00397
119 0.001996
128 0.003
136 0.002957
142 0.00399
146 0.004026
152 0.002993
158 0.001996
165 0.002008
171 0.004008
166 0.003989
91 0.003989
61 0.003989
53 0.001994
56 0.002984
59 0.002992
62 0.003989
68 0.00399
77 0.003991
84 0.001996
88 0.001995
94 0.002992
102 0.003989
118 0.001995
127 0.004986
133 0.004986
140 0.002992
144 0.002992
150 0.002993
156 0.003989
164 0.003989
171 0.002992
160 0.002991
114 0.002991
75 0.00399
60 0.002991
63 0.004987
66 0.004986
71 0.002992
78 0.003027
85 0.002957
90 0.004986
94 0.00399
102 0.003972
111 0.002991
121 0.003025
130 0.004987
143 0.002976
148 0.004985
152 0.004988
157 0.00299
163 0.002997
169 0.002992
177 0.004966
183 0.004986
174 0.004014
127 0.002984
83 0.003993
66 0.004986
67 0.003984
70 0.004987
72 0.004986
82 0.002992
89 0.002997
94 0.002992
98 0.004986
103 0.004987
114 0.00399
125 0.00399
134 0.003989
142 0.005984
152 0.003991
156 0.00498
160 0.00498
167 0.003985
174 0.003994
182 0.002991
189 0.004986
192 0.005994
173 0.005984
104 0.003953
75 0.003991
69 0.006015
74 0.003982
77 0.005984
81 0.005986
92 0.004007
98 0.003975
102 0.00299
107 0.004985
114 0.005987
128 0.003987
137 0.00402
146 0.004035
153 0.005984
160 0.003971
163 0.005952
168 0.006025
175 0.00399
181 0.004011
185 0.00498
179 0.006001
139 0.005998
83 0.004987
70 0.005005
71 0.004986
75 0.005986
81 0.003982
88 0.005952
96 0.005978
100 0.003974
104 0.003993
110 0.003957
119 0.003997
128 0.006992
138 0.006987
147 0.004998
152 0.004988
156 0.004991
164 0.00499
170 0.004004
177 0.005988
183 0.005981
169 0.003996
117 0.003989
77 0.003986
62 0.006972
60 0.006969
62 0.00499
62 0.004986
65 0.004974
79 0.004988
85 0.005951
89 0.006971
95 0.005972
105 0.004958
114 0.004031
123 0.004989
131 0.006993
138 0.006983
146 0.006023
150 0.005985
154 0.004973
164 0.004989
171 0.004955
179 0.006988
183 0.006988
147 0.004993
94 0.004987
67 0.004985
59 0.006964
59 0.006988
59 0.005983
59 0.005988
64 0.005009
79 0.004975
85 0.004979
90 0.00698
96 0.006986
107 0.004989
116 0.004981
124 0.004997
135 0.007951
141 0.007973
146 0.005984
150 0.005982
155 0.005984
167 0.005972
175 0.005986
182 0.006961
182 0.006978
136 0.005988
90 0.00499
69 0.00601
65 0.007973
65 0.007978
66 0.005988
67 0.00598
74 0.005942
89 0.005983
94 0.005984
98 0.00802
105 0.006948
117 0.005992
126 0.005989
135 0.005955
146 0.00797
150 0.006974
159 0.006986
165 0.006983
171 0.00602
179 0.005978
184 0.00599
191 0.007979
199 0.007972
204 0.005953
206 0.005988
188 0.005978
132 0.006986
87 0.007933
71 0.006981
72 0.006015
72 0.00698
74 0.005956
81 0.005983
90 0.007981
97 0.007967
101 0.007974
108 0.004979
117 0.006981
128 0.006959
137 0.007001
143 0.006982
148 0.006978
152 0.006975
161 0.006992
168 0.00598
175 0.006982
183 0.007982
184 0.007948
147 0.005984
89 0.00696
76 0.00696
70 0.007014
72 0.006996
73 0.006984
74 0.006986
91 0.006981
98 0.006947
101 0.006951
105 0.004994
112 0.007976
127 0.006958
137 0.006968
146 0.00698
154 0.006983
160 0.007017
164 0.006979
170 0.006944
180 0.006966
185 0.006966
193 0.00695
199 0.005966
182 0.007019
127 0.006954
76 0.006979
66 0.006977
65 0.006983
65 0.006937
65 0.006998
69 0.006979
83 0.006981
92 0.006023
97 0.006961
105 0.007015
113 0.006972
126 0.006934
136 0.005977
144 0.006017
152 0.005986
159 0.006021
168 0.006985
174 0.006946
182 0.00696
186 0.006972
193 0.00697
199 0.00703
205 0.007018
210 0.006972
209 0.006016
171 0.005964
109 0.006021
76 0.006019
66 0.005965
66 0.005984
67 0.005997
70 0.005981
80 0.005991
90 0.007029
97 0.006994
104 0.006021
111 0.005977
121 0.005982
131 0.006016
141 0.006016
152 0.005991
160 0.006018
170 0.005978
176 0.005975
180 0.005944
185 0.006015
192 0.006018
201 0.005985
206 0.005073
207 0.005018
183 0.005005
125 0.004988
76 0.004988
69 0.004985
70 0.005988
73 0.005986
76 0.005989
84 0.005972
94 0.005985
101 0.006017
108 0.005979
115 0.005022
125 0.004988
135 0.004988
146 0.004987
158 0.004988
168 0.005032
176 0.005018
181 0.004985
186 0.005021
190 0.006022
194 0.005969
201 0.005986
207 0.006003
212 0.005944
215 0.005018
205 0.005018
135 0.005001
78 0.004988
69 0.005019
72 0.005024
74 0.004989
76 0.005019
83 0.005028
96 0.005971
102 0.005043
107 0.005027
114 0.004989
123 0.00502
137 0.004993
151 0.005018
162 0.004989
169 0.004988
175 0.005025
180 0.005018
184 0.005017
190 0.005026
194 0.004033
198 0.005006
204 0.005019
209 0.005039
213 0.004986
185 0.004983
108 0.005025
75 0.005015
68 0.00498
70 0.005021
73 0.005022
78 0.004988
86 0.005021
97 0.005018
104 0.004987
109 0.003991
117 0.005032
130 0.004023
145 0.003984
155 0.004019
164 0.004987
172 0.005047
177 0.005024
183 0.005021
187 0.004951
193 0.005033
198 0.003991
204 0.005037
210 0.004025
202 0.003997
139 0.003999
91 0.004035
75 0.003992
76 0.00404
81 0.00405
84 0.003951
92 0.005037
102 0.004987
107 0.004019
109 0.006028
118 0.004022
130 0.004033
144 0.003989
154 0.00403
162 0.004003
168 0.003956
172 0.003932
177 0.004023
181 0.003991
186 0.004032
192 0.004023
196 0.004012
174 0.003992
99 0.002993
61 0.003955
58 0.00399
60 0.004044
62 0.004001
65 0.003981
72 0.004021
85 0.004025
92 0.003942
97 0.002982
103 0.003996
113 0.002944
130 0.002968
140 0.002992
151 0.003989
157 0.00298
162 0.00405
166 0.004016
173 0.003928
181 0.004022
187 0.004037
185 0.003989
150 0.003992
92 0.002995
55 0.003959
55 0.002994
58 0.002992
59 0.003044
64 0.003025
74 0.002992
84 0.002984
92 0.00399
98 0.001989
106 0.003035
116 0.003
126 0.002991
143 0.00303
151 0.002993
160 0.002992
164 0.002988
169 0.003026
174 0.003046
180 0.003011
188 0.004023
194 0.003023
197 0.001999
176 0.004055
118 0.003024
62 0.003024
59 0.003018
62 0.00299
64 0.003024
67 0.002986
76 0.002993
85 0.001995
93 0.001996
99 0.001995
106 0.002992
115 0.00199
126 0.003038
142 0.003014
150 0.002038
159 0.001998
166 0.002031
171 0.002009
175 0.003037
179 0.002959
187 0.001995
192 0.002992
198 0.003026
202 0.001995
195 0.002994
111 0.002026
74 0.002
64 0.002027
67 0.002031
69 0.002028
71 0.001991
78 0.002005
90 0.002028
96 0.002044
100 0.001996
107 0.00099
116 0.002999
134 0.001028
144 0.002031
155 0.001957
163 0.002035
169 0.002026
174 0.001997
178 0.001995
183 0.000998
188 0.001994
195 0.00203
201 0.002033
206 0.001005
202 0.000982
162 0.001033
90 0.001008
70 0.001994
70 0.002031
74 0.001995
77 0.001988
81 0.001988
92 0.00203
100 0.001963
104 0.000998
109 0.000998
123 0.000997
134 0.000998
145 0.000998
157 0.000997
164 0.001995
168 0.001052
171 0.001995
174 0.00099
182 0.002048
187 0.001016
192 0.001995
195 0.000998
172 0.000997
117 0.000999
76 0.000997
64 0.000997
68 0.000998
72 0.001
74 0.000998
81 0.000998
93 0.001996
97 0.001004
100 0.001995
107 0.000998
122 0.0
133 0.001046
142 0.000998
151 0.000998
156 0.001024
160 0.001003
165 0.000998
170 0.0
179 0.000997
184 0.000998
177 0.0
132 0.0
61 0.0
52 0.000999
52 0.0
54 0.000997
55 0.000998
60 0.000992
70 0.000992
79 0.000999
86 0.000994
91 0.000997
99 0.0
109 0.0
126 0.0
134 0.0
142 0.0
150 0.0
154 0.0
159 0.000997
165 0.0
173 0.000998
182 0.0
186 0.000984
173 0.0
120 0.0
57 0.0
50 0.0
51 0.0
51 0.0
51 0.0
57 0.0
68 0.0
77 0.0
84 0.0
90 0.0
98 0.0
108 0.0
123 0.0
132 0.0
139 0.0
148 0.0
152 0.0
158 0.0
166 0.000974
172 0.0
182 0.001009
187 0.000998
170 0.0
117 0.0
67 0.0
58 0.0
59 0.000982
60 0.000949
61 0.002
66 0.001995
79 0.000958
86 0.0
92 0.0
97 0.002027
104 0.001993
118 0.0
130 0.00203
141 0.0
149 0.0
155 0.0
162 0.002029
168 0.000954
175 0.000968
180 0.0
186 0.0
192 0.002009
198 0.002022
205 0.0
196 0.002025
125 0.0
80 0.0
66 0.0
65 0.002025
67 0.002037
67 0.0
72 0.001001
81 0.000962
89 0.001027
95 0.001995
102 0.0
113 0.00204
126 0.0
135 0.0
144 0.0
151 0.002001
156 0.002042
163 0.0
169 0.0
175 0.0
182 0.002046
189 0.002024
193 0.0
167 0.003032
98 0.0
74 0.000989
70 0.000966
73 0.000997
75 0.002039
77 0.000975
88 0.0
97 0.000992
102 0.001995
106 0.002028
114 0.0
127 0.00203
140 0.0
149 0.0
155 0.0
160 0.00199
164 0.00203
171 0.0
178 0.0
184 0.0
190 0.002026
190 0.001991
141 0.000968
78 0.002026
62 0.0
62 0.0
64 0.0
65 0.00203
68 0.002029
80 0.001991
88 0.0
94 0.0
98 0.002992
105 0.003005
118 0.000997
131 0.002022
143 0.000965
150 0.001993
156 0.001996
160 0.00196
165 0.002001
174 0.001039
182 0.000982
188 0.001999
189 0.002041
157 0.002045
86 0.001994
63 0.001994
58 0.003031
58 0.001997
58 0.001999
61 0.001994
70 0.003018
79 0.002992
88 0.002001
94 0.001024
100 0.000998
109 0.001995
119 0.001995
130 0.00104
142 0.003024
151 0.001992
154 0.002991
161 0.001998
164 0.006981
173 0.002964
183 0.001978
189 0.001987
193 0.00199
175 0.002992
120 0.003029
70 0.00201
61 0.001995
62 0.001991
62 0.001995
64 0.001995
71 0.002988
81 0.003033
90 0.001976
95 0.001994
102 0.000999
111 0.002992
120 0.004022
133 0.001996
143 0.003991
153 0.002003
158 0.001963
163 0.001028
168 0.002993
174 0.003035
183 0.002024
190 0.001001
197 0.002005
196 0.003989
164 0.00399
93 0.002002
68 0.003985
67 0.001993
69 0.001995
70 0.001998
74 0.003989
83 0.00399
94 0.001995
99 0.001994
104 0.002984
112 0.003036
121 0.003989
134 0.001986
146 0.003993
156 0.001986
162 0.001963
166 0.001994
171 0.004046
176 0.003993
186 0.003011
192 0.002001
198 0.00197
199 0.003989
178 0.003989
106 0.001995
74 0.003984
73 0.001996
76 0.00199
77 0.00199
82 0.00399
91 0.003989
100 0.001998
104 0.002001
108 0.002991
115 0.003992
125 0.005019
138 0.00296
149 0.003985
158 0.001942
162 0.001998
165 0.001995
170 0.004055
176 0.004029
183 0.004021
190 0.001993
191 0.002993
165 0.00299
109 0.004986
74 0.005018
64 0.004986
65 0.004953
66 0.002002
70 0.00299
79 0.002991
88 0.003973
94 0.004987
100 0.001999
107 0.001997
117 0.002997
126 0.004987
136 0.004981
150 0.004987
156 0.004973
162 0.002992
166 0.003005
173 0.002989
180 0.004986
187 0.004988
192 0.002988
172 0.003991
114 0.003024
73 0.004987
59 0.004987
58 0.004963
58 0.00498
58 0.002987
66 0.002996
77 0.003003
85 0.005028
90 0.005023
98 0.002999
107 0.003991
116 0.003992
126 0.005018
135 0.004987
148 0.004987
154 0.004978
161 0.002993
166 0.002989
171 0.002992
178 0.005027
185 0.005985
194 0.004005
194 0.003987
166 0.003998
107 0.005984
72 0.005984
59 0.004986
60 0.00498
60 0.003035
63 0.003029
72 0.002971
81 0.004987
88 0.004986
95 0.003994
102 0.003987
112 0.003987
122 0.005977
131 0.005984
145 0.006024
152 0.005987
159 0.003991
163 0.004006
169 0.003992
177 0.005974
185 0.006029
193 0.004036
196 0.003991
179 0.004986
127 0.006017
84 0.005981
68 0.005976
70 0.005988
71 0.004004
74 0.004001
83 0.00399
93 0.005984
99 0.005986
104 0.004997
111 0.004995
120 0.004989
130 0.006018
139 0.005984
152 0.005973
158 0.005989
164 0.004
167 0.003992
173 0.003985
180 0.004002
187 0.007033
193 0.006982
195 0.005024
168 0.004987
113 0.004987
78 0.005986
68 0.004011
71 0.005986
73 0.005979
77 0.003996
87 0.003973
94 0.00399
99 0.005954
104 0.006981
114 0.004972
123 0.004986
133 0.004971
143 0.006982
156 0.004957
162 0.006981
167 0.006981
173 0.004995
178 0.003993
184 0.004021
191 0.006982
198 0.006996
201 0.004955
173 0.004987
112 0.004987
74 0.006982
60 0.004967
61 0.006981
60 0.006988
62 0.004991
71 0.00498
82 0.004987
90 0.007017
96 0.006982
104 0.004982
113 0.005021
123 0.004989
133 0.006982
148 0.005007
156 0.007981
163 0.007017
172 0.004985
178 0.006012
184 0.00599
190 0.007971
194 0.007983
200 0.005989
205 0.005984
211 0.005985
215 0.006991
182 0.004986
116 0.006981
75 0.007027
61 0.004986
62 0.004989
63 0.005022
64 0.007979
68 0.007978
83 0.004995
92 0.006
98 0.005967
104 0.007967
119 0.004024
131 0.006981
142 0.007016
153 0.005024
162 0.005945
169 0.005993
177 0.007977
182 0.007982
187 0.005972
193 0.005988
199 0.005978
206 0.007979
214 0.006002
198 0.007936
143 0.00702
89 0.005988
69 0.005997
68 0.00696
71 0.007965
73 0.007972
77 0.006014
86 0.006019
96 0.005987
106 0.007977
114 0.005999
124 0.007978
138 0.007013
149 0.005972
162 0.006984
170 0.006977
177 0.006944
182 0.007015
186 0.005991
189 0.005022
194 0.00601
198 0.005986
207 0.006971
210 0.005985
201 0.007978
156 0.007017
98 0.005995
68 0.006949
68 0.006969
73 0.008016
76 0.006983
81 0.006968
91 0.006969
101 0.006951
107 0.005965
113 0.005984
126 0.007948
132 0.007979
151 0.006945
157 0.005984
167 0.00698
172 0.007014
176 0.007016
180 0.006969
186 0.006965
190 0.006002
199 0.005982
204 0.006013
180 0.00803
120 0.007023
65 0.00699
56 0.006974
57 0.006975
59 0.007026
61 0.007018
68 0.006971
79 0.006967
86 0.00697
96 0.006984
106 0.006983
116 0.006986
127 0.006019
142 0.006944
151 0.006946
160 0.006986
167 0.00702
173 0.006989
178 0.005022
182 0.006963
186 0.006967
196 0.006981
202 0.005986
207 0.00602
210 0.006016
175 0.005954
110 0.005986
67 0.00599
55 0.007007
55 0.007017
56 0.00698
58 0.006961
64 0.006983
83 0.005974
90 0.005984
97 0.005984
104 0.006017
117 0.005971
129 0.006002
140 0.005968
150 0.006017
159 0.005948
169 0.00599
173 0.006967
179 0.005948
186 0.004957
191 0.006973
197 0.006019
203 0.005986
209 0.00598
200 0.005999
154 0.005983
93 0.005983
63 0.006074
58 0.005946
61 0.006006
62 0.005993
70 0.005952
81 0.005944
91 0.004996
98 0.005045
107 0.004986
116 0.005035
127 0.004995
138 0.006021
149 0.00604
160 0.005953
167 0.005984
174 0.005951
182 0.005973
187 0.005987
191 0.005986
195 0.005986
200 0.006015
208 0.006003
213 0.005029
215 0.005025
194 0.005018
138 0.005038
72 0.005012
61 0.005019
65 0.00499
67 0.004947
70 0.005986
79 0.00602
89 0.005003
98 0.005983
104 0.005022
112 0.005023
123 0.005032
134 0.005036
148 0.004959
157 0.005021
168 0.004982
171 0.005013
174 0.003986
178 0.005041
183 0.004023
190 0.004969
195 0.005022
198 0.005019
188 0.004989
145 0.005019
77 0.005019
60 0.004994
64 0.004989
67 0.005042
71 0.005037
80 0.005958
89 0.006024
97 0.004997
102 0.005004
108 0.004987
118 0.005022
128 0.005049
142 0.005984
151 0.00502
160 0.005036
164 0.005025
168 0.00399
173 0.006024
178 0.005033
186 0.005037
190 0.004021
177 0.005011
128 0.005012
74 0.004039
50 0.004988
49 0.004018
51 0.00501
52 0.005054
60 0.00399
70 0.004001
79 0.005031
87 0.005035
93 0.004937
102 0.003992
112 0.00399
123 0.003991
136 0.004023
144 0.00402
155 0.004024
159 0.003955
164 0.004024
170 0.00399
177 0.003957
186 0.004028
189 0.004987
174 0.004041
119 0.004023
70 0.005033
50 0.004956
50 0.002992
52 0.003992
53 0.004022
60 0.004025
71 0.003994
80 0.004034
87 0.004025
94 0.003029
103 0.004021
114 0.002992
124 0.002956
137 0.002992
145 0.003004
156 0.003989
160 0.003994
166 0.002992
172 0.00399
179 0.00399
186 0.003989
193 0.003991
187 0.003958
144 0.003011
88 0.002993
62 0.002961
57 0.002992
58 0.002992
59 0.004022
65 0.003981
75 0.004026
85 0.002993
91 0.004039
99 0.004024
107 0.002992
117 0.002994
128 0.003034
137 0.002992
148 0.003023
158 0.003023
166 0.003033
171 0.002992
176 0.002992
181 0.002951
188 0.003967
197 0.003025
202 0.002993
202 0.002993
178 0.001996
120 0.001991
69 0.002993
62 0.002992
64 0.002992
65 0.002935
68 0.002992
76 0.003011
86 0.002945
94 0.003023
99 0.002993
107 0.001996
118 0.001995
128 0.001995
141 0.001965
152 0.001988
160 0.001995
164 0.001995
168 0.001995
174 0.001994
180 0.002993
189 0.002993
194 0.003001
195 0.003027
175 0.002992
121 0.003035
72 0.003023
65 0.003024
68 0.002026
69 0.00099
73 0.001995
82 0.002033
91 0.002055
97 0.002034
102 0.001995
110 0.002036
120 0.002004
130 0.002036
143 0.002002
153 0.002994
159 0.002993
162 0.001995
168 0.001994
174 0.001996
180 0.001995
188 0.001996
190 0.001995
168 0.002033
113 0.001995
72 0.001994
57 0.002005
56 0.001995
56 0.001995
58 0.001029
66 0.001041
77 0.000997
84 0.002023
92 0.000999
99 0.001997
108 0.002028
117 0.002046
128 0.001994
140 0.001052
150 0.001025
159 0.000964
165 0.001029
171 0.000999
176 0.000976
180 0.000999
187 0.002018
195 0.002006
200 0.001996
201 0.001996
179 0.000999
119 0.001032
59 0.000999
54 0.001025
53 0.000998
52 0.000998
52 0.002007
60 0.001008
71 0.000998
82 0.001998
87 0.001029
94 0.001997
102 0.000998
112 0.002033
128 0.000999
137 0.000998
147 0.000997
154 0.000997
158 0.000998
163 0.002027
170 0.002049
180 0.002012
187 0.000996
192 0.002048
187 0.002038
146 0.002042
71 0.001996
60 0.001
59 0.000997
59 0.000998
59 0.000997
64 0.000998
74 0.000998
87 0.000997
92 0.000995
98 0.000998
105 0.001025
115 0.0
133 0.0
142 0.0
153 0.0
160 0.0
167 0.0
173 0.0
180 0.000997
188 0.000997
192 0.001047
196 0.000998
200 0.0
205 0.000996
213 0.0
215 0.0
192 0.0
132 0.0
82 0.0
65 0.0
64 0.0
65 0.0
65 0.0
68 0.0
78 0.0
87 0.0
97 0.0
103 0.0
115 0.000999
125 0.0
134 0.0
142 0.0
149 0.0
156 0.0
160 0.0
165 0.0
172 0.0
179 0.0
189 0.000999
191 0.000997
161 0.0
106 0.000968
72 0.000998
63 0.0
65 0.0
66 0.0
67 0.002992
76 0.0
87 0.0
94 0.0
102 0.0
110 0.0
120 0.002047
130 0.002035
143 0.0
151 0.0
158 0.0
164 0.0
169 0.002041
173 0.002028
180 0.0
187 0.0
197 0.0
200 0.0
180 0.0
122 0.00201
75 0.002027
56 0.0
55 0.0
55 0.0
55 0.002028
57 0.002043
70 0.000997
81 0.000963
91 0.0
97 0.000979
106 0.000968
116 0.003038
126 0.001032
138 0.0
147 0.00097
155 0.0
162 0.002044
168 0.002033
175 0.000965
180 0.000967
190 0.000999
195 0.0
201 0.00198
204 0.002045
189 0.002028
113 0.0
72 0.0
59 0.0
58 0.002032
58 0.002037
57 0.0
62 0.000967
79 0.0
87 0.0
93 0.0
100 0.002029
108 0.002043
121 0.0
132 0.000965
141 0.0
149 0.001995
156 0.003004
165 0.0
170 0.001008
178 0.001042
185 0.001003
191 0.0
197 0.002043
202 0.003
197 0.000941
155 0.0
97 0.0
69 0.00203
62 0.00202
64 0.0
65 0.0
71 0.000966
82 0.0
91 0.0
97 0.00203
103 0.002029
114 0.0
123 0.0
134 0.0
144 0.003036
152 0.002044
162 0.0
168 0.0
176 0.0
181 0.000963
187 0.0
193 0.002003
198 0.00199
204 0.0
201 0.000965
169 0.0
111 0.002027
75 0.002024
67 0.001018
69 0.000994
72 0.0
78 0.0
87 0.0
96 0.002029
100 0.002029
107 0.001985
116 0.001997
126 0.001996
137 0.002993
146 0.002978
154 0.003033
162 0.0
168 0.003036
173 0.0
179 0.002065
186 0.002028
192 0.004022
196 0.003023
177 0.001996
123 0.001995
78 0.001996
61 0.002991
59 0.002955
60 0.001998
61 0.003025
70 0.001994
81 0.002997
89 0.001993
94 0.002992
99 0.003032
111 0.001956
121 0.001972
131 0.001972
141 0.002029
150 0.002991
159 0.001995
167 0.002994
173 0.001994
178 0.001996
184 0.001994
189 0.002993
196 0.002992
201 0.001993
190 0.001993
141 0.002992
85 0.003996
61 0.003994
56 0.001991
56 0.003027
56 0.001997
61 0.0
72 0.001997
81 0.002992
88 0.003015
95 0.002994
103 0.001995
113 0.002993
124 0.00399
133 0.003984
144 0.002045
154 0.003989
162 0.001029
166 0.001028
171 0.001992
178 0.004024
185 0.002984
193 0.001992
198 0.001985
191 0.002004
147 0.003992
91 0.00299
62 0.001991
60 0.003984
61 0.002034
61 0.001989
67 0.001995
77 0.003959
87 0.003977
94 0.002992
100 0.002947
109 0.001998
119 0.00399
129 0.003959
143 0.003031
154 0.004987
163 0.001995
168 0.001994
172 0.001995
178 0.00399
184 0.00399
193 0.001994
198 0.001993
202 0.002951
198 0.003969
161 0.00399
90 0.003043
68 0.004024
68 0.00201
71 0.002029
72 0.00201
77 0.005021
86 0.00403
96 0.001993
100 0.002012
105 0.001992
114 0.003956
124 0.004993
137 0.001972
147 0.004986
156 0.003019
160 0.002987
165 0.002002
170 0.002981
176 0.004984
183 0.004987
191 0.002041
192 0.001995
172 0.002993
120 0.004987
79 0.004986
64 0.004987
65 0.004987
67 0.001995
70 0.001995
78 0.001994
88 0.004977
94 0.006023
100 0.002989
107 0.001988
117 0.002954
127 0.00497
137 0.004971
151 0.004987
158 0.005018
164 0.002981
168 0.002979
174 0.002046
181 0.004999
188 0.004987
195 0.00301
188 0.001992
143 0.001999
89 0.006
63 0.004987
57 0.005018
57 0.004987
57 0.002995
62 0.00296
73 0.002991
83 0.005024
89 0.004935
97 0.002956
105 0.003942
114 0.002989
124 0.005951
134 0.005936
148 0.006022
155 0.006012
164 0.003021
170 0.002995
176 0.002995
180 0.005035
185 0.005018
193 0.002989
199 0.003957
203 0.001977
204 0.005943
181 0.006004
87 0.006033
63 0.006019
58 0.002988
59 0.003044
58 0.002963
60 0.004987
68 0.005986
82 0.002993
87 0.004013
93 0.003029
100 0.005992
108 0.00595
123 0.005984
131 0.005984
138 0.003989
142 0.003989
145 0.00399
150 0.006987
154 0.005985
158 0.00399
162 0.003992
167 0.003989
174 0.005965
181 0.005989
193 0.006013
193 0.005984
144 0.003987
91 0.003981
66 0.004
61 0.006019
63 0.007005
64 0.003991
67 0.003988
75 0.003995
86 0.005984
94 0.005984
103 0.005993
109 0.005983
121 0.003989
130 0.004987
139 0.004986
149 0.003989
158 0.007012
172 0.004987
182 0.004987
192 0.004986
200 0.004987
208 0.006991
217 0.003975
208 0.006982
166 0.005972
99 0.004944
81 0.005
80 0.004991
83 0.006996
85 0.00698
95 0.004983
107 0.005991
117 0.005008
124 0.006997
138 0.003973
155 0.007978
164 0.007014
180 0.004
190 0.00499
199 0.004991
206 0.00699
213 0.007002
222 0.004985
228 0.004986
235 0.004953
240 0.006981
234 0.004993
186 0.006983
125 0.007979
76 0.003989
66 0.004987
62 0.005021
60 0.006982
61 0.006981
74 0.003989
87 0.004987
97 0.00499
104 0.006979
120 0.003994
133 0.006981
146 0.006981
161 0.005983
169 0.005972
174 0.005986
180 0.007972
183 0.007937
190 0.004986
195 0.004982
201 0.004989
204 0.007944
166 0.003994
105 0.006983
62 0.007015
49 0.005931
49 0.00599
50 0.005969
52 0.007979
58 0.00798
75 0.006018
87 0.005954
94 0.004986
102 0.007978
121 0.005943
134 0.007948
146 0.007948
160 0.005949
167 0.00596
173 0.005954
178 0.007921
184 0.007979
191 0.005979
196 0.005942
200 0.005986
192 0.00798
107 0.005016
59 0.00699
55 0.007978
57 0.004992
59 0.005977
62 0.005986
75 0.007981
88 0.007976
98 0.005985
104 0.006015
109 0.004982
118 0.007963
137 0.005973
152 0.007055
162 0.006948
169 0.00597
175 0.006982
179 0.005967
186 0.006981
192 0.006983
197 0.005984
200 0.005984
182 0.006009
123 0.007978
56 0.006017
50 0.006953
53 0.007966
54 0.007009
59 0.006981
65 0.006977
83 0.006959
92 0.006978
99 0.006985
107 0.005958
116 0.005998
128 0.005981
147 0.005986
157 0.005985
169 0.007939
175 0.006982
182 0.006949
185 0.006946
193 0.006948
199 0.007013
205 0.006985
209 0.006979
184 0.006951
144 0.005983
63 0.005983
56 0.005984
60 0.006982
62 0.006985
65 0.006974
73 0.006982
87 0.005974
100 0.006953
108 0.006981
115 0.006978
125 0.006982
136 0.006979
158 0.006986
165 0.006976
175 0.006994
181 0.007016
189 0.005978
195 0.006028
200 0.005984
207 0.005985
212 0.006017
205 0.00598
179 0.004954
115 0.005983
64 0.005979
68 0.005952
72 0.005985
75 0.006016
82 0.006962
98 0.006949
105 0.005983
113 0.006983
119 0.005983
131 0.005984
142 0.005983
153 0.005985
169 0.006016
175 0.005982
180 0.005974
185 0.005985
190 0.005984
195 0.005025
201 0.005987
205 0.005024
200 0.005969
137 0.005989
79 0.005992
57 0.00597
60 0.006003
64 0.005967
68 0.00602
76 0.005988
92 0.00595
100 0.005987
105 0.00597
111 0.005021
120 0.004994
135 0.004987
147 0.005996
157 0.005991
171 0.005984
176 0.005985
180 0.005984
185 0.006
192 0.005983
198 0.004986
203 0.004987
204 0.004987
176 0.005039
91 0.004985
58 0.004981
53 0.004955
60 0.005953
63 0.005933
69 0.004988
80 0.004989
91 0.005052
101 0.005996
107 0.005985
114 0.004951
124 0.004986
136 0.005011
149 0.004995
159 0.004978
171 0.004997
177 0.004989
182 0.004988
186 0.005033
191 0.004933
199 0.005022
205 0.004985
209 0.004987
195 0.005024
140 0.004986
68 0.004987
57 0.004987
64 0.004987
68 0.004988
73 0.004985
84 0.004988
96 0.005029
106 0.004028
111 0.003991
119 0.003998
130 0.005
142 0.005041
158 0.004992
167 0.004954
179 0.004967
184 0.005036
188 0.00601
193 0.006023
199 0.003945
207 0.003997
212 0.003999
211 0.004044
179 0.003991
117 0.004021
66 0.003957
64 0.004957
75 0.006032
81 0.005017
91 0.004986
103 0.004987
112 0.003988
119 0.003988
125 0.003988
134 0.003993
145 0.003987
156 0.003955
169 0.00399
175 0.003988
182 0.003953
185 0.003994
189 0.003991
194 0.004045
199 0.003992
205 0.003959
204 0.003948
176 0.004043
118 0.003992
71 0.004021
60 0.003999
67 0.003961
80 0.004024
91 0.004008
103 0.002947
109 0.004028
113 0.00402
121 0.004003
131 0.00399
143 0.003989
155 0.002955
165 0.002992
174 0.003035
179 0.003949
186 0.003959
191 0.004033
197 0.004037
202 0.003959
205 0.00399
171 0.004005
109 0.003961
64 0.003955
52 0.002994
55 0.003001
61 0.002957
67 0.00297
81 0.003991
97 0.003938
104 0.003992
112 0.003991
121 0.003007
133 0.003949
148 0.003989
158 0.003001
166 0.003032
172 0.003011
176 0.003023
180 0.003003
185 0.003035
192 0.004022
197 0.003991
201 0.003005
186 0.002987
130 0.003981
59 0.001995
44 0.00299
46 0.00295
50 0.002992
54 0.002988
63 0.002997
79 0.002992
90 0.002998
97 0.002959
106 0.002992
117 0.002993
129 0.003025
144 0.002985
153 0.00299
160 0.002989
165 0.002035
170 0.002949
177 0.002992
186 0.001984
194 0.001995
198 0.001994
181 0.001995
127 0.001996
74 0.002031
51 0.002027
55 0.002007
60 0.002998
64 0.003022
73 0.003023
89 0.002985
100 0.003027
110 0.001995
120 0.001995
132 0.002038
144 0.001019
155 0.002056
167 0.002025
173 0.001982
178 0.001996
183 0.001996
187 0.001993
195 0.001973
201 0.001998
206 0.002024
192 0.001032
141 0.001996
88 0.001995
62 0.001994
60 0.001997
66 0.00199
71 0.002024
80 0.001997
92 0.001996
103 0.001961
109 0.002009
121 0.002027
132 0.002036
144 0.001993
154 0.002028
161 0.001998
168 0.000963
172 0.000999
176 0.001
182 0.001991
187 0.001997
195 0.001953
192 0.002028
132 0.001983
75 0.002034
48 0.000998
44 0.000998
47 0.000997
50 0.002024
57 0.002031
68 0.00103
79 0.002001
87 0.001993
96 0.001802
110 0.002024
126 0.002033
138 0.002028
148 0.001011
156 0.001963
162 0.001028
167 0.000996
175 0.001045
181 0.000997
188 0.000997
195 0.002035
199 0.000997
158 0.001997
95 0.001991
47 0.0
41 0.002028
43 0.001961
44 0.0
47 0.000999
61 0.000997
74 0.000997
82 0.000998
88 0.000997
96 0.000997
114 0.001996
125 0.000997
139 0.0
148 0.000998
155 0.000972
160 0.0
166 0.0
172 0.000999
179 0.000991
186 0.0
193 0.000997
197 0.000997
152 0.0
91 0.0
50 0.0
46 0.0
49 0.0
51 0.0
55 0.0
68 0.000961
80 0.000992
88 0.000999
94 0.000995
103 0.001033
122 0.0
134 0.0
148 0.0
157 0.0
164 0.0
170 0.0
174 0.0
181 0.0
188 0.0
194 0.0
200 0.0
205 0.0
176 0.000962
116 0.001004
62 0.0
54 0.0
56 0.0
59 0.0
61 0.0
75 0.0
86 0.002025
94 0.0
101 0.0
110 0.0
129 0.0
141 0.0
154 0.0
162 0.0
168 0.000965
173 0.0
177 0.0
183 0.002984
188 0.002982
196 0.0
200 0.0
198 0.0
124 0.0
77 0.0
57 0.001996
56 0.001998
60 0.0
64 0.000965
73 0.001
84 0.002979
92 0.002
99 0.000961
107 0.0
118 0.0
137 0.000962
148 0.0
157 0.0
162 0.003022
167 0.003005
173 0.0
179 0.0
186 0.0
192 0.002026
196 0.002027
169 0.0
109 0.0
49 0.000967
45 0.001007
47 0.0
47 0.003991
50 0.003027
64 0.0
77 0.0
86 0.000959
92 0.003023
101 0.003025
117 0.0
129 0.0
147 0.0
156 0.0
163 0.0
169 0.002031
174 0.001997
179 0.001028
185 0.000966
192 0.0
199 0.002024
204 0.002028
197 0.0
146 0.000992
61 0.0
48 0.0
47 0.0
49 0.002025
50 0.002027
58 0.00097
72 0.001022
83 0.0
91 0.001999
98 0.003024
113 0.0
125 0.000998
145 0.0
154 0.0
163 0.0
170 0.003036
176 0.002996
183 0.0
188 0.0
194 0.0
200 0.002043
206 0.002033
210 0.0
186 0.0
89 0.000974
61 0.000971
55 0.0
56 0.003024
58 0.003024
64 0.0
76 0.0
89 0.0
98 0.00301
105 0.00207
117 0.0
129 0.0
149 0.000999
160 0.000995
169 0.001005
176 0.002037
182 0.001978
189 0.0
194 0.0
199 0.0
205 0.002964
211 0.002995
218 0.0
220 0.0
156 0.0
98 0.0
70 0.0
64 0.001994
67 0.002027
70 0.0
75 0.0
88 0.000968
100 0.002998
107 0.002988
117 0.0
128 0.0
147 0.0
157 0.0
166 0.0
173 0.001988
178 0.002992
182 0.001989
188 0.001
193 0.00101
199 0.002991
204 0.003003
207 0.002959
195 0.001988
122 0.00403
72 0.001982
63 0.0
65 0.002982
69 0.002977
73 0.004006
87 0.000966
99 0.002002
105 0.002997
111 0.003031
120 0.002984
134 0.002986
150 0.002996
163 0.002994
170 0.003014
176 0.001993
180 0.003997
185 0.002994
192 0.001995
198 0.002996
203 0.0
205 0.003988
181 0.004006
99 0.002
55 0.002996
47 0.002992
48 0.001994
48 0.001997
53 0.002957
66 0.002985
83 0.001984
92 0.002984
100 0.001993
110 0.003991
123 0.003989
139 0.001995
152 0.004
163 0.001993
171 0.001995
176 0.002993
181 0.003949
186 0.003989
194 0.001983
199 0.002992
205 0.001993
209 0.003984
193 0.003991
110 0.002993
57 0.003989
47 0.001995
47 0.002
47 0.002993
51 0.003989
61 0.004988
79 0.002993
89 0.002996
97 0.002993
107 0.00399
119 0.003997
136 0.001994
150 0.003991
161 0.001995
167 0.002005
172 0.002992
178 0.003986
184 0.004983
193 0.001991
199 0.002953
204 0.003
193 0.004995
139 0.005015
74 0.001998
57 0.004987
60 0.002988
62 0.002992
67 0.001968
79 0.003982
91 0.003979
102 0.001993
109 0.001993
118 0.002985
130 0.004992
142 0.004956
152 0.005011
167 0.004987
174 0.004986
179 0.002992
184 0.001994
189 0.002992
194 0.004986
199 0.004986
205 0.002992
199 0.001994
155 0.002
98 0.004988
69 0.004987
64 0.005984
67 0.004976
74 0.002946
85 0.002992
96 0.002969
102 0.005989
108 0.004997
118 0.003009
130 0.002984
141 0.002988
152 0.004988
162 0.006006
173 0.006038
178 0.004998
184 0.001995
189 0.002978
195 0.002991
200 0.005984
203 0.005948
168 0.002992
106 0.002993
66 0.001991
53 0.004987
52 0.004987
55 0.004986
59 0.004972
75 0.001995
86 0.002991
94 0.003002
101 0.005984
111 0.005982
127 0.002977
139 0.002992
149 0.00298
157 0.005984
165 0.006992
174 0.00603
179 0.005969
186 0.002001
191 0.00299
198 0.002999
203 0.005989
204 0.005962
155 0.002973
93 0.002995
60 0.003019
51 0.005987
52 0.005984
54 0.005984
60 0.005975
76 0.003999
86 0.003989
94 0.004001
101 0.005984
111 0.005989
128 0.00299
139 0.002991
149 0.002991
158 0.005983
165 0.005984
174 0.006983
179 0.006981
187 0.004038
194 0.004001
200 0.003985
204 0.006972
194 0.006944
122 0.003994
77 0.00396
60 0.004991
60 0.006014
63 0.006003
70 0.005966
80 0.005984
95 0.002992
102 0.00399
108 0.003957
117 0.006979
129 0.006976
144 0.00399
155 0.003989
163 0.003989
171 0.003992
176 0.006982
183 0.003989
188 0.005983
194 0.005983
201 0.00399
205 0.004987
205 0.003985
178 0.006981
117 0.006981
69 0.003977
63 0.004008
66 0.003987
70 0.006965
82 0.003989
96 0.007954
102 0.007963
107 0.003984
114 0.004988
125 0.004985
137 0.006989
147 0.006983
159 0.00499
165 0.003962
170 0.00399
174 0.006991
182 0.003989
190 0.007961
194 0.007978
195 0.004983
164 0.004951
104 0.004987
64 0.006983
51 0.006981
51 0.004986
52 0.004987
54 0.003987
63 0.006981
81 0.003989
88 0.007979
95 0.007979
109 0.004986
122 0.003982
134 0.005002
147 0.007973
156 0.007962
162 0.004988
167 0.004995
171 0.004991
177 0.006984
187 0.006003
194 0.007976
195 0.007979
161 0.004971
98 0.00499
58 0.004987
44 0.007974
44 0.007966
44 0.004994
45 0.004983
53 0.004993
69 0.006981
80 0.006017
89 0.007978
100 0.007978
112 0.005984
125 0.004986
136 0.004986
148 0.007964
154 0.007977
161 0.004987
166 0.004987
171 0.006
180 0.006983
189 0.005009
196 0.006987
192 0.007949
147 0.004941
88 0.005983
57 0.00502
50 0.007968
51 0.007979
52 0.005982
55 0.004981
65 0.006008
80 0.006988
90 0.005998
102 0.006985
113 0.006985
125 0.006031
137 0.005997
147 0.005987
156 0.007978
164 0.007977
172 0.005982
177 0.005984
182 0.005985
189 0.006981
197 0.005984
203 0.005985
205 0.006967
180 0.00698
119 0.005984
75 0.005982
59 0.005981
59 0.007972
62 0.006957
64 0.006016
73 0.005973
86 0.00595
100 0.00602
107 0.005018
120 0.006978
133 0.006948
145 0.005944
155 0.005997
163 0.005026
171 0.006015
176 0.005982
180 0.006014
185 0.00698
191 0.005989
201 0.005989
205 0.005983
198 0.006972
151 0.006981
96 0.005984
67 0.005982
67 0.005984
71 0.005973
74 0.005984
85 0.005984
93 0.005983
102 0.005985
111 0.005979
118 0.005993
133 0.006976
145 0.007011
154 0.005985
165 0.005986
171 0.005957
175 0.006013
178 0.006025
185 0.006014
190 0.006951
195 0.005994
201 0.005966
179 0.005983
119 0.006979
72 0.005018
54 0.00602
52 0.005989
54 0.006005
56 0.005958
63 0.005985
78 0.005984
86 0.005984
92 0.005984
106 0.005984
118 0.005984
130 0.005983
140 0.004989
148 0.005983
156 0.004986
161 0.004986
166 0.005018
172 0.006018
181 0.005989
188 0.006015
188 0.005976
115 0.004983
78 0.005982
45 0.005989
41 0.005017
41 0.004973
40 0.004986
45 0.004993
57 0.004984
70 0.005026
80 0.005984
88 0.004993
99 0.005999
119 0.006015
131 0.005987
141 0.005954
150 0.004983
159 0.004987
164 0.004987
170 0.004988
176 0.004987
183 0.004989
192 0.00599
197 0.004987
193 0.005985
104 0.005983
61 0.003982
47 0.005984
45 0.00593
45 0.005027
45 0.004983
52 0.005
65 0.004982
75 0.005021
82 0.005018
93 0.004985
104 0.005987
124 0.004989
135 0.00499
145 0.005029
154 0.005027
160 0.005025
167 0.003968
172 0.003975
179 0.00399
185 0.00498
192 0.005022
198 0.004986
191 0.004987
102 0.004998
63 0.004985
52 0.004988
51 0.004988
51 0.004988
53 0.003992
62 0.00399
74 0.00399
83 0.004033
89 0.003957
100 0.004
111 0.004955
131 0.005009
142 0.00498
151 0.004984
158 0.005021
164 0.005004
170 0.004951
175 0.004991
180 0.003989
187 0.004007
194 0.004023
202 0.003998
204 0.003957
148 0.004002
91 0.003991
64 0.003989
58 0.003988
59 0.00399
60 0.004962
65 0.003988
76 0.003989
86 0.004007
92 0.003957
100 0.004006
111 0.004014
130 0.003991
141 0.003989
149 0.00399
156 0.003991
162 0.00399
167 0.003951
171 0.002988
177 0.002992
183 0.004024
189 0.004029
196 0.00399
191 0.003989
110 0.003993
70 0.004
58 0.00399
58 0.00402
60 0.003955
62 0.003985
71 0.002913
83 0.002993
91 0.002938
97 0.002958
108 0.002993
119 0.002974
139 0.00399
150 0.00399
158 0.00399
166 0.003949
172 0.002993
178 0.003989
183 0.003956
189 0.00301
195 0.003026
201 0.003033
207 0.004007
197 0.003024
100 0.00399
62 0.002986
51 0.002997
49 0.002988
48 0.003959
48 0.003951
57 0.003948
70 0.00395
82 0.003004
90 0.00303
97 0.002992
112 0.002992
128 0.002999
143 0.002905
152 0.002993
160 0.002999
168 0.002961
174 0.002991
182 0.002028
187 0.002038
192 0.001997
198 0.002024
204 0.002049
211 0.002958
215 0.002961
182 0.002992
113 0.002997
67 0.00302
53 0.003031
51 0.00303
49 0.00302
49 0.002987
56 0.002993
68 0.002992
80 0.001995
91 0.002037
102 0.001965
117 0.002021
129 0.002008
140 0.002026
149 0.002025
157 0.003035
166 0.002989
172 0.002993
176 0.00296
182 0.003009
188 0.001995
197 0.002026
204 0.002037
206 0.001991
176 0.00199
112 0.001986
70 0.001995
56 0.002025
56 0.001998
56 0.001991
57 0.002005
65 0.000999
79 0.001996
93 0.002992
102 0.002032
115 0.001995
126 0.001994
138 0.001985
147 0.002035
156 0.001986
166 0.001984
172 0.001969
178 0.001993
182 0.001956
187 0.001961
194 0.001995
202 0.002006
209 0.002019
213 0.002001
207 0.001996
164 0.001998
102 0.00203
64 0.001966
61 0.001995
64 0.001948
66 0.001996
70 0.000989
85 0.001996
96 0.000998
104 0.002
112 0.001992
122 0.001999
133 0.002059
144 0.001996
156 0.002003
162 0.000963
166 0.001992
170 0.000942
175 0.000997
183 0.001993
190 0.001995
197 0.001995
188 0.001991
140 0.001996
84 0.001997
57 0.001997
51 0.002009
53 0.002026
54 0.001975
57 0.000999
68 0.002062
80 0.002042
93 0.002008
100 0.001
114 0.001988
126 0.001985
138 0.002002
148 0.002028
157 0.000997
167 0.001996
172 0.002034
176 0.000997
181 0.001001
186 0.0
195 0.000987
201 0.000999
206 0.001988
192 0.000984
133 0.000963
77 0.000997
53 0.000997
49 0.0
49 0.0
49 0.0
54 0.0
65 0.0
84 0.0
92 0.000998
103 0.000966
115 0.000998
127 0.001
138 0.000998
148 0.000997
160 0.000838
167 0.0
173 0.0
179 0.0
183 0.0
192 0.0
197 0.0
205 0.0
208 0.0
198 0.0
145 0.0
87 0.0
57 0.0
56 0.000965
57 0.0
59 0.0
63 0.0
84 0.0
94 0.0
103 0.0
112 0.0
123 0.0
135 0.0
147 0.000998
159 0.0
168 0.0
175 0.0
180 0.0
185 0.0
193 0.0
198 0.0
206 0.0
211 0.0
214 0.0
203 0.0
150 0.0
81 0.0
64 0.002999
65 0.0
67 0.0
70 0.0
82 0.000997
94 0.000998
104 0.002026
111 0.00297
125 0.00102
136 0.0
148 0.0
158 0.001024
166 0.002995
174 0.0
178 0.001002
182 0.0
189 0.0
194 0.0
200 0.000979
204 0.002989
203 0.0
169 0.000974
110 0.0
74 0.002984
66 0.00502
71 0.0
74 0.000948
81 0.001014
99 0.000995
106 0.0
111 0.000997
118 0.002989
127 0.002988
142 0.0
153 0.000955
161 0.0
168 0.003024
173 0.002993
178 0.0
182 0.0
190 0.0
196 0.0
199 0.0
191 0.003028
142 0.002982
73 0.001009
55 0.0
54 0.000957
57 0.002042
59 0.003047
69 0.001021
81 0.0
96 0.0
103 0.0
111 0.0
122 0.002985
134 0.002992
148 0.001001
157 0.0
164 0.0
170 0.00203
175 0.003035
181 0.0
186 0.0
196 0.0
199 0.0
187 0.0
131 0.003027
76 0.002992
49 0.0
48 0.0
49 0.0
51 0.002996
56 0.002978
72 0.0
83 0.000952
95 0.00103
104 0.0
114 0.000954
127 0.002846
138 0.002996
150 0.000966
158 0.001035
164 0.000997
168 0.002028
173 0.003027
180 0.000966
186 0.0
194 0.0
188 0.0
144 0.0
86 0.003033
56 0.00296
50 0.0
52 0.0
53 0.0
58 0.002992
68 0.003005
83 0.0
90 0.0
102 0.0
112 0.001004
124 0.0
136 0.002987
145 0.003003
155 0.0
162 0.0
166 0.0
169 0.002993
174 0.004019
182 0.000998
187 0.001042
194 0.0
186 0.0
138 0.0
83 0.003034
57 0.002986
53 0.00102
56 0.000997
58 0.0
63 0.002993
73 0.003025
86 0.0
92 0.0
102 0.003015
116 0.0
128 0.00097
139 0.0
148 0.003962
155 0.002998
163 0.0
168 0.0
172 0.0
177 0.004024
182 0.002993
190 0.0
198 0.002998
200 0.0
173 0.0
113 0.0
72 0.003992
59 0.003992
62 0.002992
64 0.002991
68 0.002986
77 0.00399
87 0.002988
97 0.002991
105 0.002963
118 0.001989
