123 0.013962
129 0.001995
135 0.002993
145 0.002961
152 0.002955
163 0.001996
169 0.001994
177 0.001946
164 0.002953
114 0.003025
66 0.001995
68 0.002992
81 0.002993
90 0.002992
108 0.003003
115 0.002992
117 0.002988
120 0.003039
125 0.002984
132 0.002989
143 0.002958
151 0.003027
159 0.00398
170 0.003991
180 0.00204
155 0.002025
103 0.002933
72 0.00402
70 0.003985
85 0.002988
99 0.003018
112 0.002942
121 0.004939
123 0.003988
125 0.002992
132 0.00399
141 0.003953
150 0.003994
157 0.00399
167 0.003991
176 0.004006
186 0.002979
179 0.002962
135 0.003005
93 0.003989
81 0.00399
96 0.003026
116 0.004986
134 0.003989
136 0.003985
135 0.003989
135 0.004952
140 0.004958
148 0.003989
155 0.003994
161 0.003957
168 0.003989
177 0.00399
185 0.003955
153 0.003989
105 0.005002
80 0.003958
84 0.004986
102 0.003989
117 0.004993
128 0.004976
134 0.003987
133 0.003979
133 0.003964
139 0.005146
147 0.004956
158 0.00502
163 0.005952
172 0.005038
176 0.005037
176 0.004977
118 0.004987
78 0.004988
71 0.005006
81 0.00499
94 0.005028
113 0.005007
120 0.004983
120 0.005027
121 0.005994
129 0.004986
136 0.004985
142 0.00499
150 0.005985
157 0.005982
167 0.004974
162 0.005017
135 0.00502
81 0.004969
71 0.005029
88 0.00501
102 0.005981
116 0.004998
123 0.004984
121 0.006027
122 0.006015
129 0.005963
135 0.005982
141 0.00598
148 0.005979
159 0.006005
167 0.006004
152 0.006011
107 0.006019
76 0.004987
81 0.005014
96 0.005957
114 0.006981
126 0.006982
128 0.006979
125 0.005967
125 0.005951
129 0.005982
138 0.005996
145 0.006027
153 0.005986
161 0.00695
163 0.005984
139 0.006992
82 0.006015
67 0.006944
75 0.007018
96 0.005961
111 0.006015
119 0.006008
117 0.006981
112 0.006029
120 0.007981
126 0.007976
134 0.006992
138 0.005984
144 0.00601
150 0.007967
133 0.007944
71 0.00695
48 0.006967
48 0.006972
63 0.006939
88 0.006017
98 0.006943
96 0.006822
94 0.006022
97 0.005973
101 0.007017
109 0.007978
114 0.007049
120 0.006963
128 0.006973
130 0.006976
85 0.007978
34 0.007017
27 0.006954
37 0.006998
52 0.006981
64 0.006951
70 0.007945
69 0.007929
71 0.007928
79 0.006981
87 0.00698
94 0.006936
103 0.007976
112 0.006952
116 0.007017
78 0.006981
24 0.007014
19 0.007014
30 0.006984
43 0.007016
59 0.00701
69 0.007931
71 0.00698
71 0.007937
72 0.007947
83 0.00794
92 0.006947
102 0.006969
110 0.007984
121 0.007021
118 0.007014
79 0.007013
41 0.007003
31 0.007014
44 0.007017
60 0.006982
77 0.007035
84 0.007014
81 0.006981
82 0.007009
89 0.007017
100 0.00703
106 0.00702
112 0.007022
119 0.007011
126 0.007014
127 0.007014
88 0.007012
41 0.007015
24 0.007015
32 0.006021
44 0.006981
59 0.007014
68 0.006021
68 0.006022
69 0.005984
73 0.006018
81 0.00602
91 0.005991
97 0.006988
103 0.007034
116 0.006981
120 0.006019
88 0.005979
41 0.005977
15 0.006017
21 0.006017
32 0.005984
45 0.005984
58 0.006024
67 0.006021
67 0.005976
68 0.005989
81 0.005981
90 0.004952
99 0.005009
105 0.006015
115 0.005979
123 0.005986
131 0.006021
121 0.005984
75 0.006018
28 0.00598
28 0.005984
39 0.006052
61 0.006019
76 0.005022
83 0.004987
84 0.005029
85 0.005021
93 0.005019
103 0.005022
112 0.004965
120 0.005021
128 0.006037
139 0.006016
146 0.006017
152 0.005021
115 0.005029
70 0.005019
53 0.005041
60 0.005024
77 0.005027
90 0.005029
101 0.005024
105 0.005018
105 0.005022
109 0.004987
116 0.004988
129 0.003991
136 0.004028
142 0.00403
150 0.005028
158 0.005013
164 0.005029
134 0.00502
86 0.005019
61 0.005019
64 0.004988
81 0.005021
94 0.004987
115 0.004022
117 0.004021
118 0.003997
122 0.003982
130 0.00402
141 0.004016
148 0.003977
156 0.003972
163 0.005037
168 0.005032
177 0.00498
168 0.005003
90 0.003967
67 0.004024
69 0.003991
81 0.004024
91 0.004023
107 0.004024
115 0.004035
117 0.00402
119 0.004034
123 0.004023
132 0.002994
139 0.003039
152 0.003023
160 0.002994
168 0.002992
174 0.00303
176 0.003991
145 0.002992
85 0.004022
70 0.00399
76 0.00399
88 0.00399
100 0.003977
116 0.003035
123 0.003033
124 0.002992
128 0.002994
136 0.003025
144 0.00303
152 0.002992
162 0.003035
170 0.002993
177 0.002992
184 0.002993
184 0.002028
132 0.002029
87 0.002004
92 0.002992
106 0.003031
119 0.002962
133 0.002963
139 0.002994
136 0.002992
138 0.002993
144 0.003027
151 0.002993
158 0.002992
168 0.003027
175 0.002041
185 0.002031
190 0.002009
169 0.001995
123 0.001995
94 0.002002
96 0.002031
109 0.001995
124 0.002031
137 0.003021
141 0.001996
139 0.002993
141 0.003034
148 0.002992
156 0.001995
163 0.001995
170 0.002002
176 0.00203
184 0.001996
184 0.001995
149 0.001995
102 0.002029
81 0.001997
89 0.002029
106 0.001995
123 0.002026
129 0.001994
130 0.002024
129 0.001987
131 0.000998
136 0.001006
147 0.001001
154 0.000997
160 0.000997
165 0.000999
171 0.000989
149 0.001001
104 0.000984
72 0.000983
78 0.001002
95 0.000997
111 0.000999
121 0.000992
125 0.001996
124 0.001953
124 0.000998
130 0.000998
136 0.000997
148 0.001028
153 0.001008
162 0.000998
168 0.000997
162 0.001013
121 0.000998
82 0.000998
73 0.000995
89 0.001027
107 0.000998
122 0.0
130 0.0
127 0.0
127 0.0
132 0.0
142 0.0
154 0.0
162 0.0
167 0.0
175 0.0
172 0.0
134 0.000997
92 0.000997
79 0.001039
101 0.0
118 0.0
132 0.0
133 0.0
130 0.0
129 0.0
133 0.0
141 0.0
147 0.0
153 0.0
159 0.0
165 0.0
125 0.0
80 0.0
62 0.000997
67 0.000996
86 0.0
102 0.0
111 0.0
111 0.0
107 0.0
108 0.0
114 0.0
123 0.0
132 0.0
141 0.0
150 0.0
147 0.000997
107 0.000998
54 0.0
46 0.0
56 0.0
70 0.001003
85 0.000998
95 0.001005
93 0.00101
92 0.000945
99 0.001025
106 0.000996
114 0.001031
121 0.001997
132 0.0
140 0.000997
134 0.0
93 0.002012
51 0.001951
40 0.000993
53 0.00104
80 0.000965
91 0.000999
92 0.000981
89 0.001999
90 0.002026
99 0.001025
104 0.000997
113 0.001006
123 0.002028
131 0.002031
139 0.001049
139 0.001
73 0.001989
44 0.000984
41 0.002045
56 0.001995
71 0.001994
87 0.001991
94 0.002029
91 0.000986
91 0.002025
96 0.002016
105 0.001034
114 0.000996
125 0.002021
132 0.001042
139 0.001029
134 0.002991
93 0.00303
42 0.002019
36 0.001995
46 0.001999
58 0.002024
73 0.002992
82 0.002992
85 0.001994
86 0.001993
92 0.002987
99 0.002032
110 0.002012
118 0.003033
125 0.002992
136 0.002028
141 0.001994
114 0.001992
66 0.002992
41 0.002991
47 0.00203
62 0.00303
79 0.001996
89 0.003029
92 0.002998
93 0.002995
95 0.002992
102 0.003
112 0.002991
122 0.00299
132 0.003039
139 0.002992
147 0.002028
157 0.002995
146 0.001993
101 0.003036
64 0.002946
58 0.003999
67 0.003991
81 0.002988
95 0.002987
106 0.00299
109 0.003038
109 0.00303
111 0.002989
124 0.004008
137 0.002991
145 0.002994
152 0.003006
157 0.003981
163 0.003974
173 0.002973
174 0.002989
141 0.002977
98 0.003989
78 0.004032
85 0.003025
98 0.004978
115 0.003026
122 0.003036
122 0.003009
122 0.00399
125 0.003996
134 0.002994
143 0.002983
151 0.003974
156 0.005021
162 0.005021
170 0.004014
177 0.004979
179 0.004011
151 0.003996
103 0.003992
75 0.002983
80 0.003981
87 0.005005
99 0.003981
112 0.003991
119 0.00402
120 0.004987
120 0.004988
130 0.005002
138 0.004988
148 0.003994
155 0.004022
162 0.00397
167 0.005029
171 0.006001
179 0.004982
176 0.005036
141 0.005021
85 0.004987
75 0.004986
87 0.005029
95 0.004992
110 0.003984
118 0.004
120 0.003997
119 0.004989
123 0.004982
133 0.00399
141 0.005018
149 0.004989
157 0.005981
163 0.006016
172 0.005947
177 0.005983
184 0.004975
175 0.005007
131 0.004973
91 0.004982
80 0.005984
89 0.005993
102 0.004969
113 0.004987
124 0.005984
128 0.005984
126 0.005936
129 0.005985
141 0.004992
149 0.004991
155 0.00498
162 0.005985
169 0.005986
175 0.005989
182 0.006018
189 0.006018
177 0.006983
133 0.006982
91 0.006113
98 0.005991
109 0.005982
120 0.005987
135 0.004973
138 0.004981
136 0.006983
136 0.006986
144 0.006015
151 0.006014
157 0.006014
163 0.007014
175 0.005952
181 0.006999
187 0.007011
171 0.005979
125 0.005939
91 0.00597
87 0.007946
97 0.006943
108 0.007016
120 0.007014
130 0.007013
134 0.006981
133 0.00598
138 0.006979
145 0.007025
155 0.005962
161 0.006017
167 0.006015
173 0.006982
180 0.007948
175 0.007013
131 0.007011
91 0.006996
80 0.007979
95 0.006978
105 0.007978
116 0.007944
122 0.006972
125 0.006974
125 0.007977
131 0.007978
135 0.007943
146 0.006933
152 0.007004
158 0.006982
163 0.007979
173 0.007015
165 0.007943
121 0.007927
77 0.007008
80 0.006946
94 0.00698
111 0.007013
122 0.006979
129 0.007985
127 0.007979
127 0.006981
131 0.007947
140 0.006952
150 0.007976
157 0.007973
165 0.007013
173 0.007015
175 0.006962
145 0.006958
102 0.007024
82 0.007014
91 0.006983
105 0.007984
113 0.007979
130 0.006978
128 0.006981
125 0.007945
127 0.006981
137 0.006999
144 0.007012
149 0.006981
156 0.007015
163 0.006954
170 0.007971
152 0.006982
106 0.007012
69 0.006973
78 0.007019
91 0.006997
104 0.00602
115 0.00602
115 0.006019
113 0.006017
115 0.007016
119 0.007032
128 0.007026
135 0.007086
143 0.006989
154 0.006981
158 0.007032
136 0.00702
89 0.006016
57 0.006017
62 0.005967
75 0.005988
87 0.006015
97 0.006015
102 0.005986
101 0.005984
101 0.006015
111 0.005984
118 0.005984
125 0.00602
132 0.005983
140 0.005966
147 0.006029
138 0.005984
94 0.005984
57 0.005948
52 0.005986
65 0.006016
77 0.006001
95 0.006035
98 0.005983
96 0.00602
96 0.006019
104 0.005984
113 0.004992
119 0.005019
125 0.004987
132 0.005033
141 0.004995
146 0.004987
126 0.005032
57 0.005018
50 0.005027
61 0.006017
74 0.00602
87 0.005998
97 0.005024
95 0.005021
93 0.00502
96 0.005037
103 0.005006
113 0.004987
120 0.004987
131 0.004989
139 0.004987
145 0.003989
133 0.00403
88 0.004017
47 0.004023
48 0.004019
61 0.005055
72 0.004987
84 0.005033
93 0.005039
92 0.004988
93 0.00502
100 0.004967
107 0.004022
115 0.005017
122 0.003972
130 0.003986
136 0.004027
143 0.004024
133 0.00403
86 0.003989
39 0.00399
36 0.004021
50 0.003957
57 0.004021
69 0.003993
76 0.003987
78 0.003025
78 0.004032
84 0.004026
93 0.004025
102 0.00399
109 0.004038
118 0.004041
124 0.00399
136 0.004023
129 0.004023
86 0.004028
45 0.003956
32 0.003013
41 0.003062
50 0.003991
61 0.00304
74 0.003019
81 0.003024
81 0.002993
83 0.003035
96 0.002993
110 0.003024
118 0.002999
125 0.003035
132 0.002026
138 0.002004
145 0.002992
152 0.003
149 0.002992
107 0.003024
63 0.003001
49 0.002993
61 0.002993
74 0.002992
88 0.003009
98 0.00301
98 0.001995
96 0.002992
102 0.002974
110 0.002961
121 0.002026
129 0.001995
135 0.002992
143 0.001995
150 0.002034
158 0.002001
140 0.001995
91 0.002993
59 0.001997
57 0.00303
71 0.001995
81 0.001995
95 0.001995
105 0.002992
106 0.002993
102 0.001995
107 0.002031
121 0.002028
130 0.00203
137 0.002013
142 0.002007
147 0.002028
156 0.002027
153 0.002013
112 0.001965
66 0.001995
50 0.001995
60 0.001992
70 0.000998
87 0.000998
98 0.000998
101 0.001
102 0.001008
105 0.000999
116 0.001991
125 0.001996
133 0.002028
139 0.001998
146 0.001964
155 0.001995
159 0.002033
121 0.001995
59 0.001014
46 0.000998
50 0.000997
57 0.000987
64 0.000997
84 0.000997
94 0.000998
97 0.00101
99 0.000998
104 0.001156
121 0.000998
131 0.00196
143 0.001965
149 0.000998
156 0.0
163 0.000998
170 0.0
139 0.0
86 0.0
57 0.0
56 0.0
65 0.0
79 0.001003
93 0.000994
106 0.000997
107 0.000998
107 0.000998
114 0.001016
124 0.000997
139 0.000997
148 0.0
156 0.0
163 0.0
168 0.0
178 0.0
181 0.0
129 0.0
82 0.0
69 0.0
77 0.0
87 0.0
102 0.0
114 0.0
119 0.001
120 0.0
121 0.0
132 0.0
142 0.0
154 0.0
162 0.001035
168 0.0
174 0.0
180 0.0
188 0.001028
190 0.000999
135 0.0
101 0.000997
80 0.000998
96 0.0
114 0.0
127 0.0
133 0.000998
133 0.000995
133 0.000985
137 0.0
145 0.0
155 0.000999
163 0.000997
173 0.0
178 0.0
187 0.0
192 0.0
177 0.0
130 0.000996
92 0.000997
90 0.0
107 0.0
124 0.001
139 0.001043
143 0.001
138 0.001
136 0.00104
144 0.0
155 0.000999
164 0.000999
171 0.001995
176 0.001962
185 0.000998
191 0.0
176 0.000998
129 0.000998
91 0.001005
86 0.002027
103 0.000993
132 0.000992
141 0.000999
140 0.001213
135 0.002013
133 0.002047
144 0.00103
153 0.001032
161 0.001027
169 0.001995
175 0.002115
185 0.000999
184 0.000999
108 0.000995
75 0.001009
73 0.002026
85 0.002995
99 0.002989
117 0.002009
121 0.001
121 0.002032
119 0.001994
121 0.002029
130 0.000988
139 0.000989
152 0.001962
159 0.000999
166 0.00103
162 0.002011
118 0.002994
71 0.002992
55 0.002026
67 0.002025
81 0.001981
95 0.003023
104 0.003052
108 0.002036
106 0.003985
112 0.002992
121 0.001984
130 0.001987
138 0.003012
144 0.003023
154 0.001996
158 0.001998
131 0.002009
79 0.002993
51 0.002992
59 0.002028
79 0.004016
97 0.002981
103 0.002991
105 0.002989
105 0.003995
108 0.00399
118 0.003029
124 0.00303
137 0.002026
144 0.00399
151 0.003991
161 0.002021
148 0.004009
81 0.00299
54 0.002993
59 0.003004
75 0.003993
91 0.004024
109 0.003019
110 0.003992
107 0.003029
111 0.003989
119 0.004987
131 0.002026
142 0.00501
148 0.003993
153 0.002991
158 0.00296
152 0.003938
111 0.004021
59 0.002998
57 0.003028
74 0.002998
91 0.004035
105 0.003993
114 0.003001
111 0.003985
114 0.003972
121 0.004
131 0.003997
140 0.004022
147 0.005018
153 0.004987
163 0.003959
164 0.003976
129 0.004025
78 0.004987
54 0.004987
69 0.004984
83 0.004983
101 0.003992
107 0.003996
106 0.004016
106 0.004987
109 0.00499
121 0.004022
130 0.004022
137 0.004031
144 0.004986
152 0.004987
163 0.004988
142 0.005949
76 0.004939
55 0.003998
61 0.003995
73 0.005032
84 0.004986
101 0.003995
106 0.003999
105 0.003959
107 0.005024
112 0.005984
128 0.006002
136 0.005984
145 0.004983
152 0.004982
158 0.004987
165 0.005985
170 0.005849
128 0.004025
78 0.004022
60 0.005023
66 0.00602
79 0.006014
98 0.005991
108 0.006015
109 0.004986
108 0.004979
112 0.00502
120 0.006016
131 0.006053
142 0.004988
149 0.00502
155 0.004976
161 0.006021
166 0.006021
175 0.005997
147 0.005983
83 0.005987
64 0.005978
69 0.006018
82 0.007019
92 0.007021
104 0.007013
112 0.006009
110 0.006017
111 0.00602
117 0.006981
132 0.004964
140 0.005965
147 0.00699
155 0.005994
161 0.005988
166 0.005986
174 0.007019
162 0.007017
95 0.006025
63 0.006016
62 0.005984
71 0.006981
86 0.005991
98 0.007945
105 0.007946
105 0.005981
107 0.007015
114 0.007014
123 0.007979
132 0.007016
143 0.005984
150 0.005991
156 0.005965
162 0.006981
172 0.005983
176 0.007946
150 0.007945
82 0.006983
60 0.006989
63 0.007014
72 0.00797
83 0.007922
96 0.007016
106 0.007026
109 0.007009
110 0.007979
122 0.006973
131 0.006984
139 0.007935
150 0.006984
156 0.007012
162 0.00701
170 0.007946
175 0.007978
180 0.006975
175 0.007033
131 0.00698
85 0.007979
75 0.007022
86 0.007978
98 0.007014
110 0.007979
119 0.007021
120 0.007019
119 0.00702
123 0.00798
132 0.007015
144 0.007048
149 0.006981
155 0.00698
166 0.006982
173 0.007007
179 0.007017
183 0.006991
140 0.007036
94 0.007017
76 0.006974
82 0.006965
95 0.007017
111 0.007032
123 0.007015
126 0.006985
121 0.00598
124 0.005997
131 0.006015
141 0.00602
151 0.007024
157 0.006987
163 0.007021
168 0.00701
175 0.007023
175 0.007004
137 0.007023
88 0.007015
67 0.006019
79 0.006016
90 0.006022
102 0.005982
114 0.00602
115 0.006019
115 0.005985
117 0.005974
124 0.006016
136 0.005984
145 0.006032
152 0.004955
162 0.006019
168 0.005978
173 0.006029
153 0.006015
86 0.006015
62 0.005941
67 0.005979
80 0.005985
89 0.006027
105 0.005982
114 0.006014
116 0.006031
117 0.006022
124 0.00503
135 0.00502
144 0.005028
154 0.005986
161 0.006027
167 0.005019
173 0.005021
181 0.006039
177 0.003992
116 0.005951
77 0.005979
80 0.00502
94 0.005026
106 0.005019
119 0.00503
126 0.005028
127 0.005023
128 0.005017
133 0.004968
140 0.004987
151 0.005019
163 0.005018
170 0.005986
181 0.003995
189 0.003993
191 0.00402
157 0.004025
110 0.005034
90 0.004969
101 0.005019
116 0.00502
132 0.005017
144 0.004985
144 0.005026
140 0.005015
145 0.004021
154 0.004028
163 0.00402
169 0.003986
177 0.004026
185 0.004018
193 0.003991
195 0.003984
163 0.003986
113 0.005018
88 0.00307
98 0.003015
121 0.004029
134 0.003032
139 0.004025
137 0.004043
134 0.003991
139 0.00399
148 0.004018
156 0.004018
164 0.004027
170 0.003991
178 0.004024
185 0.003019
155 0.003031
103 0.003028
73 0.003031
75 0.003021
88 0.004042
98 0.003047
113 0.002987
119 0.002997
119 0.003992
117 0.002993
121 0.004039
132 0.003047
142 0.003031
151 0.003074
158 0.003023
165 0.002988
171 0.002993
149 0.002992
83 0.003055
58 0.00303
61 0.003014
72 0.002992
82 0.003025
97 0.002994
105 0.002997
105 0.003024
108 0.001995
115 0.002025
124 0.003012
133 0.002958
145 0.002027
151 0.002002
159 0.002992
166 0.002958
151 0.00301
85 0.002992
58 0.003029
71 0.003039
84 0.003029
97 0.002994
106 0.002992
109 0.001996
108 0.001996
111 0.002
118 0.001995
128 0.001995
137 0.002026
146 0.002026
155 0.002027
166 0.001994
171 0.001984
150 0.000999
97 0.000997
63 0.000998
63 0.000997
78 0.001995
91 0.001996
104 0.001995
109 0.002151
106 0.002029
105 0.001995
115 0.002043
124 0.002005
132 0.000998
139 0.001013
146 0.000998
155 0.001011
160 0.000997
140 0.001039
88 0.001029
52 0.000997
48 0.000998
68 0.000997
80 0.0
94 0.001004
97 0.000997
96 0.000998
97 0.000998
102 0.000999
116 0.000966
124 0.000971
130 0.000998
137 0.000999
144 0.000997
153 0.000945
122 0.000998
55 0.000998
38 0.000997
45 0.000997
57 0.0
66 0.0
83 0.0
90 0.0
90 0.0
91 0.0
97 0.0
113 0.0
123 0.0
134 0.000998
141 0.0
147 0.0
155 0.0
158 0.0
108 0.0
59 0.0
45 0.0
55 0.0
68 0.0
90 0.0
99 0.0
103 0.0
102 0.0
105 0.0
115 0.001007
129 0.000998
138 0.001
146 0.000997
155 0.001008
160 0.000997
170 0.0
132 0.0
81 0.0
58 0.001031
65 0.001036
86 0.0
101 0.0
112 0.0
115 0.0
113 0.000998
112 0.000999
121 0.0
132 0.0
142 0.000997
153 0.0
157 0.000997
166 0.000997
173 0.001996
146 0.0
90 0.0
56 0.0
119 0.001033
126 0.000999
125 0.0
125 0.0
125 0.0
125 0.00104
125 0.000965
125 0.00103
125 0.000967
125 0.000996
125 0.000993
125 0.000987
125 0.001033
125 0.001992
124 0.000962
112 0.000999
42 0.001042
52 0.000997
72 0.000972
89 0.001994
105 0.001995
116 0.000997
118 0.00099
118 0.001008
125 0.002015
137 0.001028
156 0.001019
167 0.000995
185 0.001005
196 0.000998
208 0.000998
197 0.001994
129 0.001995
57 0.001047
56 0.001031
78 0.001015
99 0.00198
122 0.003044
137 0.002024
135 0.002029
135 0.000982
145 0.00103
160 0.001032
173 0.001995
183 0.001996
199 0.000994
207 0.000995
217 0.001997
226 0.003036
195 0.002994
118 0.002993
65 0.002027
82 0.002993
116 0.00203
138 0.002026
147 0.002025
144 0.003025
139 0.003031
142 0.00103
154 0.002002
168 0.001991
179 0.003025
189 0.002992
198 0.001999
210 0.002994
199 0.002041
127 0.002007
63 0.001993
49 0.002992
67 0.002999
96 0.003026
117 0.003023
130 0.003032
129 0.004022
124 0.003989
129 0.003026
142 0.003989
159 0.002043
169 0.001998
179 0.001993
188 0.00302
198 0.002991
170 0.003036
92 0.001991
38 0.001973
31 0.003989
51 0.004021
82 0.002987
106 0.004037
110 0.002995
106 0.002968
108 0.002992
115 0.003989
129 0.003995
147 0.003986
157 0.002985
165 0.003033
174 0.00399
185 0.005012
153 0.003989
56 0.005037
23 0.003022
43 0.003027
69 0.003025
92 0.004987
108 0.004987
112 0.002998
108 0.002994
108 0.003988
119 0.002994
135 0.00399
147 0.003989
165 0.004987
174 0.004986
191 0.003027
191 0.003985
132 0.004056
61 0.004987
32 0.004989
52 0.003988
80 0.00403
107 0.004031
123 0.004984
123 0.005986
111 0.005967
117 0.005984
134 0.004008
147 0.004002
158 0.004005
168 0.005006
179 0.005025
192 0.00399
169 0.003994
94 0.003989
37 0.004987
28 0.005984
68 0.005984
95 0.005984
117 0.003975
112 0.005009
105 0.005035
105 0.005984
113 0.006018
130 0.004022
143 0.005027
153 0.003993
161 0.005984
171 0.005984
147 0.006016
67 0.006021
0 0.005003
6 0.005004
30 0.00499
51 0.006017
70 0.006983
80 0.005022
76 0.005023
74 0.006042
81 0.006982
94 0.007013
115 0.007021
127 0.006982
140 0.004976
152 0.004992
150 0.004991
88 0.005984
15 0.005984
0 0.004986
6 0.004993
27 0.006019
48 0.005984
64 0.006982
68 0.006015
67 0.006981
73 0.00703
93 0.006019
107 0.005022
120 0.006019
131 0.00702
142 0.007021
156 0.006018
160 0.005984
109 0.005986
32 0.006981
63 0.005986
75 0.007014
86 0.006982
101 0.006014
106 0.005974
107 0.00602
106 0.006981
108 0.007978
117 0.006976
125 0.007007
130 0.007013
135 0.007979
143 0.006018
148 0.007979
151 0.007976
118 0.00698
83 0.006949
71 0.005977
79 0.007979
90 0.007979
106 0.006987
113 0.007013
111 0.007018
107 0.007978
110 0.007018
120 0.007957
127 0.007979
131 0.006017
136 0.005983
141 0.006963
148 0.006982
143 0.006951
109 0.007011
75 0.006993
66 0.006976
77 0.007012
91 0.006986
102 0.007986
107 0.007979
105 0.006989
105 0.007026
108 0.007019
115 0.007979
124 0.007008
131 0.007
136 0.007991
141 0.00699
147 0.007015
121 0.006977
94 0.006962
61 0.008013
64 0.007034
74 0.006987
87 0.006953
96 0.005983
101 0.007979
102 0.006018
103 0.007022
106 0.007027
113 0.007011
125 0.007015
131 0.006968
137 0.007013
148 0.007017
157 0.007024
144 0.006026
91 0.007024
47 0.007024
38 0.007015
56 0.006022
70 0.005984
85 0.006021
99 0.006026
100 0.00603
101 0.006018
105 0.005985
118 0.005951
130 0.006015
139 0.006021
146 0.005954
154 0.006947
163 0.006036
171 0.006015
172 0.004977
90 0.006047
57 0.00599
57 0.006014
73 0.006016
94 0.005999
109 0.006017
114 0.005985
112 0.006018
110 0.006025
116 0.005985
126 0.006034
136 0.00601
150 0.006983
156 0.005028
162 0.005052
168 0.005043
175 0.005941
152 0.006038
96 0.004989
60 0.005027
59 0.004953
81 0.004999
97 0.005018
112 0.00503
116 0.00604
113 0.006034
112 0.004989
119 0.00504
130 0.005022
141 0.005086
148 0.004987
155 0.00502
161 0.005043
168 0.005022
169 0.005018
122 0.005023
52 0.005019
52 0.004005
69 0.005023
83 0.005041
97 0.005019
108 0.004006
109 0.00396
107 0.004032
110 0.004049
119 0.003992
132 0.004016
140 0.004028
154 0.005015
162 0.005032
169 0.005019
161 0.004986
111 0.004978
59 0.005027
60 0.005027
75 0.004002
89 0.003998
105 0.004025
116 0.004032
117 0.004011
118 0.004022
126 0.004006
137 0.003989
147 0.00399
155 0.004024
168 0.003967
175 0.00399
183 0.003991
181 0.003049
139 0.003039
81 0.002997
77 0.003026
104 0.003987
120 0.003992
134 0.004039
139 0.004042
136 0.003992
136 0.004043
143 0.004021
152 0.004048
163 0.002986
172 0.002993
181 0.00302
189 0.002993
200 0.002993
172 0.003043
123 0.003034
97 0.003026
100 0.002992
118 0.002992
140 0.003025
153 0.002992
155 0.004027
151 0.002995
149 0.003037
158 0.002993
171 0.002992
182 0.002994
188 0.002992
195 0.002992
204 0.002999
203 0.002026
147 0.002992
109 0.002993
101 0.002992
113 0.001996
128 0.003988
147 0.003025
154 0.00203
151 0.001996
151 0.002027
157 0.002986
165 0.002992
173 0.003043
183 0.003037
190 0.002008
197 0.003002
202 0.003031
185 0.003005
124 0.002988
101 0.001989
114 0.001993
127 0.001996
140 0.001995
148 0.001995
149 0.001997
149 0.001995
152 0.001995
158 0.001995
168 0.001995
177 0.002039
185 0.002035
194 0.002023
202 0.000998
195 0.000998
154 0.001995
116 0.001958
107 0.002026
122 0.002042
134 0.001995
147 0.00199
156 0.001995
158 0.000998
156 0.000997
161 0.001
174 0.000997
181 0.000963
189 0.000997
195 0.000998
201 0.000995
209 0.001963
212 0.000998
181 0.000997
141 0.000997
121 0.000999
125 0.000998
147 0.000997
161 0.000997
168 0.000999
164 0.000997
163 0.000998
166 0.000997
172 0.000997
183 0.000998
190 0.000998
196 0.000997
201 0.000999
208 0.0
208 0.0
171 0.0
125 0.0
122 0.0
132 0.0
145 0.0
157 0.0
166 0.000998
164 0.0
161 0.000998
164 0.000998
171 0.0
184 0.0
190 0.0
197 0.0
203 0.0
211 0.0
211 0.0
177 0.0
121 0.0
108 0.0
113 0.0
123 0.0
131 0.0
145 0.0
145 0.000997
144 0.000997
147 0.000965
153 0.0
163 0.0
170 0.0
177 0.001031
182 0.000999
191 0.0
197 0.0
179 0.0
108 0.0
94 0.0
99 0.001997
107 0.002028
116 0.000997
127 0.000998
134 0.0
132 0.0
132 0.002026
137 0.002026
146 0.0
155 0.0
166 0.0
174 0.0
179 0.0
184 0.000999
190 0.001038
185 0.0
142 0.0
113 0.000998
90 0.000998
100 0.001
113 0.0
124 0.0
135 0.0
134 0.0
132 0.0
135 0.001993
142 0.002029
155 0.0
161 0.0
169 0.0
175 0.000987
180 0.001031
189 0.001045
195 0.001026
150 0.000997
109 0.001993
95 0.002029
103 0.002039
116 0.001994
132 0.001971
141 0.001002
140 0.001029
135 0.002029
135 0.002985
143 0.001008
151 0.000988
163 0.000985
169 0.000984
174 0.000983
180 0.001987
187 0.001995
188 0.001995
154 0.001968
106 0.002004
84 0.001997
86 0.001995
105 0.002041
117 0.001047
130 0.002036
129 0.002037
126 0.001992
127 0.002983
134 0.002992
145 0.001033
155 0.000999
160 0.000979
165 0.003023
172 0.002993
180 0.00299
174 0.000992
113 0.002976
73 0.001024
76 0.001008
89 0.001966
102 0.002964
115 0.002993
122 0.001992
121 0.001962
120 0.001965
123 0.003004
131 0.003007
143 0.001995
154 0.003025
163 0.00203
170 0.001959
177 0.002027
175 0.003989
136 0.004024
80 0.001973
73 0.002073
86 0.001993
104 0.003994
118 0.003992
131 0.002005
128 0.002992
128 0.001996
133 0.002995
140 0.002997
149 0.00399
158 0.003989
167 0.002961
174 0.003021
181 0.002993
182 0.003996
149 0.004993
94 0.001994
85 0.004028
106 0.003026
122 0.001999
138 0.002023
141 0.004988
136 0.004986
131 0.002993
137 0.002993
144 0.002985
152 0.003983
160 0.003998
168 0.003012
178 0.003989
176 0.002996
136 0.003
92 0.003004
79 0.004024
89 0.004987
113 0.003988
127 0.004025
136 0.00402
133 0.004984
130 0.004986
131 0.003001
142 0.004986
148 0.004987
158 0.002994
165 0.00399
171 0.004016
177 0.004987
168 0.005018
106 0.003989
74 0.003985
74 0.00399
90 0.004984
106 0.004998
125 0.004987
126 0.004986
124 0.004021
125 0.003991
131 0.003998
139 0.006039
148 0.005984
156 0.003992
163 0.00399
170 0.003981
173 0.005984
144 0.005987
79 0.004977
75 0.006016
96 0.003957
110 0.00398
122 0.005027
129 0.006033
127 0.006017
125 0.004988
130 0.005019
138 0.005044
145 0.005989
153 0.006001
165 0.006019
172 0.005951
178 0.005017
148 0.00402
103 0.004993
81 0.006981
87 0.006981
108 0.004997
123 0.004989
133 0.004992
134 0.006977
131 0.005984
132 0.005976
139 0.005999
149 0.004986
157 0.004986
164 0.005989
169 0.006002
176 0.006981
166 0.005984
123 0.005983
88 0.005997
82 0.006969
95 0.007022
119 0.004974
131 0.006982
132 0.006981
126 0.004986
128 0.006003
132 0.006007
139 0.007016
147 0.006981
156 0.005982
160 0.005984
167 0.006005
172 0.006981
118 0.006017
76 0.006981
66 0.006979
82 0.007011
92 0.007016
101 0.006015
112 0.007949
113 0.00798
112 0.005971
114 0.00598
122 0.005996
130 0.00701
142 0.005986
148 0.007021
153 0.007979
162 0.007
164 0.006978
134 0.00599
76 0.007947
64 0.007979
70 0.005978
80 0.005003
89 0.005991
104 0.007979
111 0.005986
110 0.007979
112 0.007978
121 0.006016
130 0.005966
142 0.006974
148 0.007016
153 0.007017
162 0.006988
166 0.00698
171 0.006992
172 0.007935
108 0.006999
77 0.007976
76 0.008005
90 0.007029
103 0.00698
112 0.006969
122 0.007014
123 0.007016
121 0.006984
123 0.006975
131 0.006982
145 0.006984
153 0.006991
161 0.006974
165 0.007979
170 0.00603
177 0.006989
176 0.005965
145 0.006986
103 0.007028
83 0.007014
89 0.006963
104 0.006973
113 0.006973
129 0.005981
129 0.006982
127 0.007012
129 0.005982
138 0.00599
148 0.006014
156 0.006019
162 0.005973
167 0.005985
173 0.005989
178 0.005984
184 0.00597
155 0.007025
124 0.006975
84 0.00702
86 0.00701
99 0.007015
106 0.005998
117 0.005985
125 0.006016
126 0.006016
126 0.006017
130 0.005988
137 0.005982
150 0.005985
157 0.005985
164 0.006041
168 0.005942
174 0.005986
181 0.006011
182 0.005045
151 0.005023
105 0.005006
81 0.004985
87 0.006015
97 0.006017
112 0.006018
123 0.006033
128 0.005949
128 0.006033
131 0.006028
137 0.006031
146 0.005981
155 0.00498
163 0.005029
170 0.00502
176 0.004986
181 0.005008
192 0.004991
174 0.005017
129 0.006016
99 0.005018
98 0.004997
113 0.005037
122 0.005986
133 0.004026
143 0.005025
144 0.005013
142 0.004988
146 0.005043
159 0.005014
167 0.005021
175 0.004992
181 0.003991
187 0.005022
194 0.005018
200 0.004024
196 0.003981
159 0.003984
120 0.00402
110 0.00402
122 0.003988
140 0.004023
150 0.003996
153 0.003993
152 0.004002
151 0.004026
156 0.003981
164 0.003989
172 0.003987
178 0.004021
182 0.003
190 0.002987
196 0.004027
195 0.004027
157 0.00399
117 0.00402
104 0.00399
110 0.004043
124 0.004029
134 0.00402
141 0.00394
146 0.003998
146 0.003025
147 0.003017
151 0.003463
163 0.004025
171 0.004025
177 0.004024
182 0.00403
188 0.004033
193 0.003026
169 0.003022
126 0.003997
102 0.004029
104 0.002992
120 0.002999
131 0.003946
145 0.002992
146 0.003959
146 0.002993
147 0.003042
152 0.004006
160 0.003002
170 0.003039
175 0.002995
182 0.003026
189 0.003012
194 0.003028
188 0.003023
135 0.002993
109 0.002993
116 0.002986
130 0.002979
144 0.002992
155 0.002994
157 0.00303
155 0.002996
154 0.002415
158 0.002994
165 0.003051
175 0.002983
183 0.002992
190 0.002992
196 0.003025
201 0.003026
178 0.003033
137 0.003
112 0.002986
121 0.003026
135 0.002027
148 0.001996
157 0.002044
156 0.002029
151 0.001995
152 0.001996
159 0.001995
165 0.002027
172 0.001999
177 0.00204
184 0.001995
189 0.002041
169 0.001995
124 0.001027
95 0.001033
96 0.000997
114 0.001051
129 0.001
136 0.001015
136 0.000997
131 0.00101
130 0.001004
139 0.000995
145 0.001995
151 0.002056
157 0.000998
163 0.001995
170 0.001019
145 0.000989
86 0.000994
70 0.000998
77 0.000997
91 0.000997
103 0.000999
113 0.000997
115 0.000997
112 0.000997
112 0.002041
117 0.000997
124 0.002026
136 0.000998
143 0.0
152 0.000998
158 0.000997
143 0.000997
100 0.000998
68 0.000997
65 0.000997
81 0.000998
98 0.000997
110 0.000997
114 0.0
109 0.0
110 0.0
118 0.0
126 0.0
134 0.0
141 0.0
147 0.0
156 0.000997
156 0.000998
118 0.0
77 0.0
62 0.0
81 0.0
97 0.0
114 0.0
114 0.0
108 0.0
107 0.0
110 0.0
120 0.0
128 0.000992
135 0.000999
140 0.000999
149 0.000998
121 0.0
90 0.0
51 0.001031
56 0.001036
77 0.0
92 0.000967
100 0.000999
103 0.002046
98 0.001029
97 0.000998
104 0.0
113 0.0
124 0.0
131 0.0
138 0.002027
145 0.002056
121 0.0
71 0.000973
39 0.0
37 0.0
51 0.002028
67 0.00201
84 0.0
88 0.0
86 0.0
89 0.0
96 0.0
104 0.000993
112 0.00103
120 0.000999
128 0.000998
136 0.000995
141 0.001997
112 0.002029
53 0.0
43 0.0
64 0.0
78 0.0
92 0.0
99 0.001046
98 0.001028
100 0.0
105 0.0
112 0.000966
122 0.001995
131 0.002012
141 0.0
147 0.0
159 0.0
146 0.001019
101 0.000986
69 0.002034
69 0.002027
90 0.000968
103 0.002013
116 0.001991
123 0.003002
123 0.002994
123 0.001977
128 0.00199
143 0.001991
151 0.002
158 0.001037
165 0.002027
172 0.002003
181 0.000996
176 0.001008
137 0.001981
103 0.003024
99 0.002986
118 0.000993
130 0.002001
148 0.000985
148 0.001996
145 0.001007
147 0.003032
154 0.003029
163 0.001993
171 0.001993
179 0.002006
184 0.001999
189 0.002982
196 0.002988
197 0.001987
148 0.002992
111 0.002002
115 0.001025
127 0.000965
135 0.002992
144 0.002991
153 0.001971
153 0.002014
152 0.001998
156 0.003987
163 0.003981
173 0.001995
181 0.002992
187 0.001998
193 0.002002
198 0.001994
199 0.002992
171 0.003996
123 0.001969
113 0.001969
121 0.001961
130 0.003989
138 0.004004
149 0.002011
153 0.003989
152 0.001996
156 0.002013
161 0.001978
168 0.004996
174 0.005002
182 0.002983
186 0.002982
191 0.003002
197 0.003988
196 0.003996
152 0.00299
117 0.004024
122 0.001997
129 0.002029
134 0.002964
144 0.004987
150 0.004987
149 0.002951
148 0.002961
152 0.002992
159 0.00498
166 0.004994
174 0.002011
182 0.004014
188 0.001973
192 0.002993
198 0.004012
197 0.005027
166 0.004964
122 0.002985
119 0.002985
133 0.002991
144 0.003002
154 0.004982
165 0.004978
163 0.004987
161 0.004986
165 0.003954
174 0.003975
182 0.003985
187 0.004995
194 0.004985
203 0.003979
208 0.003985
213 0.003986
189 0.005005
140 0.004991
110 0.004987
123 0.004987
138 0.00399
150 0.003027
158 0.00399
160 0.005979
157 0.005952
161 0.003987
168 0.004002
179 0.004009
186 0.005985
194 0.005984
205 0.005994
212 0.006011
222 0.003989
196 0.003998
144 0.004033
115 0.005982
119 0.005988
135 0.004984
141 0.003996
150 0.004987
157 0.005996
158 0.005987
157 0.005989
163 0.00598
176 0.004986
183 0.004004
189 0.004988
197 0.006967
204 0.006977
211 0.004985
207 0.004987
166 0.004989
126 0.005983
117 0.006982
137 0.006017
146 0.006982
160 0.004987
163 0.005993
162 0.005024
161 0.00698
167 0.006982
176 0.00498
185 0.004984
191 0.004992
198 0.007029
202 0.006988
212 0.007014
217 0.006981
200 0.007028
138 0.004985
121 0.005998
130 0.005983
142 0.006961
150 0.006969
162 0.005983
161 0.005982
156 0.005983
155 0.006976
162 0.005984
171 0.006975
176 0.006982
183 0.006022
189 0.005962
196 0.005983
200 0.007977
167 0.007978
124 0.005987
105 0.005981
113 0.005985
126 0.006979
144 0.005984
149 0.007979
144 0.007017
140 0.006992
142 0.00698
149 0.006975
153 0.007945
159 0.007979
166 0.006979
171 0.005949
178 0.005979
180 0.007978
124 0.005983
85 0.007979
84 0.006983
102 0.006982
112 0.006986
117 0.00698
120 0.00698
117 0.006981
113 0.007014
116 0.007017
124 0.005995
131 0.006969
143 0.00598
149 0.007979
161 0.007013
167 0.00701
149 0.005969
90 0.006959
72 0.007013
79 0.007014
94 0.00695
108 0.006949
120 0.006962
120 0.007015
113 0.006983
113 0.006974
124 0.007015
132 0.005956
145 0.005975
150 0.005983
155 0.005998
163 0.006016
160 0.005988
98 0.006979
65 0.006987
61 0.006983
82 0.006978
95 0.00698
104 0.007015
105 0.006017
97 0.005979
95 0.005948
101 0.005984
108 0.006025
117 0.006017
127 0.005983
134 0.005978
141 0.005969
109 0.005982
57 0.006952
30 0.007009
33 0.006023
52 0.006001
64 0.005984
75 0.005993
80 0.006017
76 0.006019
76 0.005971
84 0.00598
95 0.005986
111 0.005952
118 0.006016
128 0.005033
137 0.004982
87 0.005021
36 0.005021
15 0.005021
21 0.004987
35 0.005013
54 0.006019
67 0.006016
74 0.006015
75 0.006015
81 0.004986
93 0.005022
105 0.005027
119 0.005022
131 0.00498
142 0.005021
150 0.005022
125 0.005026
67 0.004929
29 0.004969
36 0.004987
64 0.005018
79 0.004986
92 0.00397
98 0.003946
98 0.004024
106 0.005025
116 0.004041
128 0.005022
140 0.005025
151 0.00504
163 0.005028
173 0.004986
164 0.004996
107 0.005028
66 0.005039
61 0.004031
78 0.004024
101 0.003968
116 0.004034
127 0.003992
128 0.004034
127 0.004023
134 0.003995
146 0.004048
163 0.003994
173 0.002996
181 0.003988
190 0.004036
198 0.003988
199 0.003955
151 0.00299
104 0.002989
92 0.003997
107 0.003994
134 0.00399
151 0.003995
161 0.004017
157 0.004025
155 0.004018
163 0.003959
174 0.004024
186 0.003965
193 0.002998
204 0.002993
210 0.002997
219 0.002994
224 0.002975
183 0.003001
119 0.002992
121 0.002992
143 0.002998
165 0.004006
181 0.00396
183 0.003011
176 0.003042
173 0.003033
176 0.002949
185 0.003038
194 0.003024
204 0.002997
214 0.002027
223 0.004023
219 0.002029
171 0.001994
125 0.001994
112 0.001995
133 0.002992
153 0.002993
169 0.003043
175 0.003019
171 0.002988
163 0.003025
168 0.002992
178 0.001994
187 0.002029
193 0.002029
199 0.002034
207 0.001996
197 0.00199
142 0.002033
99 0.002027
92 0.001985
107 0.001953
131 0.002004
148 0.001995
148 0.001995
141 0.002025
139 0.000999
146 0.001996
155 0.000953
164 0.001963
171 0.002023
180 0.001044
188 0.002029
176 0.002031
110 0.00204
74 0.002044
90 0.002005
110 0.000999
129 0.000999
137 0.001031
135 0.000999
128 0.001032
132 0.001012
139 0.000997
148 0.000997
156 0.000998
167 0.000967
179 0.000976
172 0.001988
122 0.000998
84 0.000998
78 0.001006
94 0.000979
120 0.00103
137 0.000998
140 0.001
134 0.000955
129 0.000998
132 0.000997
148 0.001008
156 0.000997
166 0.000998
174 0.0
182 0.000997
177 0.0
132 0.0
83 0.0
81 0.0
98 0.0
118 0.0
135 0.0
136 0.000998
129 0.000998
130 0.000997
137 0.0
146 0.0
153 0.0
159 0.0
170 0.0
174 0.0
147 0.0
95 0.0
66 0.0
78 0.0
94 0.0
116 0.0
119 0.0
114 0.0
111 0.0
114 0.000998
124 0.0
132 0.0
141 0.0
147 0.0
157 0.001002
133 0.000995
81 0.0
51 0.0
53 0.002029
75 0.0
89 0.0
101 0.0
105 0.002029
103 0.00203
101 0.0
108 0.0
118 0.0
132 0.0
139 0.0
146 0.001036
155 0.00203
134 0.0
80 0.0
48 0.0
50 0.002029
67 0.002028
87 0.0
101 0.0
104 0.0
100 0.0
103 0.000955
109 0.0
118 0.002029
129 0.00203
139 0.000991
146 0.000997
156 0.000961
161 0.000985
133 0.001009
68 0.0
52 0.0
75 0.0
89 0.0
105 0.0
111 0.002042
107 0.00197
105 0.0
111 0.00097
120 0.0
129 0.002031
137 0.001998
148 0.0
153 0.0
165 0.0
148 0.0
92 0.0
51 0.001992
46 0.002014
58 0.000993
74 0.0
88 0.001006
97 0.001991
98 0.002038
94 0.001999
100 0.0
118 0.000998
128 0.0
138 0.000998
145 0.003002
150 0.001995
164 0.000997
164 0.00095
120 0.0
66 0.002961
43 0.002994
53 0.0
66 0.001984
88 0.001992
98 0.002982
100 0.000951
99 0.002979
104 0.001995
116 0.001994
127 0.001996
137 0.001997
147 0.002996
155 0.002992
166 0.0
174 0.002004
168 0.001988
113 0.001994
65 0.001996
55 0.003986
69 0.003994
84 0.003997
101 0.001993
114 0.001992
120 0.000989
119 0.00299
120 0.002989
132 0.001997
147 0.002991
161 0.001995
168 0.001993
176 0.001993
185 0.003992
193 0.003993
200 0.001993
169 0.001996
110 0.001995
79 0.003989
84 0.004001
108 0.001988
127 0.002981
140 0.001009
141 0.002
138 0.00194
139 0.004013
149 0.003991
164 0.001994
174 0.001992
182 0.001993
188 0.004006
195 0.00399
205 0.001999
203 0.003989
127 0.001994
85 0.001994
82 0.001995
97 0.004987
111 0.004987
131 0.001994
140 0.002001
140 0.002017
137 0.004002
140 0.004028
150 0.001997
165 0.003976
176 0.002005
183 0.002993
189 0.002991
195 0.004989
203 0.004987
167 0.002997
105 0.003001
73 0.002992
78 0.004995
95 0.004987
112 0.002993
129 0.004977
135 0.003002
133 0.00298
134 0.003008
141 0.004957
152 0.004986
166 0.002993
174 0.00304
182 0.002996
191 0.00299
200 0.005018
202 0.004986
123 0.004987
81 0.004987
82 0.004027
101 0.00399
116 0.003989
132 0.005978
140 0.005985
139 0.003985
139 0.003989
144 0.002999
152 0.004989
163 0.004991
179 0.004979
187 0.004986
196 0.002991
205 0.003998
210 0.003986
180 0.005984
121 0.005985
87 0.00398
100 0.003991
119 0.003991
137 0.005989
152 0.005986
153 0.005987
148 0.00597
150 0.004005
161 0.004988
170 0.004987
180 0.005984
187 0.005984
197 0.00399
204 0.003989
209 0.00399
181 0.005983
124 0.005992
86 0.005984
102 0.005983
130 0.004987
147 0.004991
154 0.003994
150 0.006964
144 0.006979
146 0.004997
155 0.005039
166 0.004994
176 0.006981
182 0.00699
193 0.006978
200 0.006992
175 0.004981
110 0.004972
68 0.005004
67 0.006983
91 0.007968
103 0.007015
121 0.005012
128 0.005984
126 0.004987
123 0.00698
129 0.004986
138 0.006981
148 0.00698
161 0.005986
168 0.00499
176 0.005985
184 0.00794
163 0.007978
81 0.005954
50 0.005972
57 0.00595
83 0.007982
105 0.004968
118 0.00798
119 0.006974
113 0.004991
115 0.006953
123 0.004988
135 0.007976
144 0.007978
156 0.005984
165 0.006001
173 0.005991
179 0.007993
111 0.00597
53 0.007976
53 0.007976
73 0.005979
102 0.006979
120 0.006966
124 0.006973
122 0.007975
119 0.005983
121 0.004948
132 0.005989
147 0.007963
158 0.006005
167 0.007926
177 0.007971
182 0.006966
160 0.006974
83 0.006973
58 0.006987
67 0.007022
88 0.006026
116 0.006965
124 0.005964
124 0.008011
114 0.005974
116 0.007978
122 0.007984
139 0.005952
147 0.006949
154 0.00698
167 0.007015
174 0.00703
146 0.006922
85 0.006978
39 0.006977
47 0.006979
77 0.005976
102 0.005983
110 0.005984
106 0.005989
99 0.006014
104 0.006972
113 0.006948
123 0.006945
133 0.007013
145 0.006972
151 0.006979
158 0.006947
85 0.006951
44 0.005974
15 0.006019
31 0.006017
61 0.005944
79 0.005951
85 0.005974
85 0.006019
81 0.006019
84 0.005951
94 0.005983
102 0.006972
125 0.006979
134 0.006979
145 0.005965
146 0.005997
78 0.005987
25 0.005984
13 0.00598
31 0.005991
55 0.006018
80 0.005982
89 0.005997
88 0.004969
83 0.005974
92 0.004971
104 0.005021
116 0.005029
130 0.005991
139 0.005997
150 0.005984
158 0.006014
126 0.00598
46 0.005982
25 0.005979
39 0.005036
79 0.004999
99 0.005019
106 0.005023
100 0.005036
94 0.004987
101 0.005021
113 0.004987
125 0.005021
136 0.004032
149 0.004985
158 0.004933
165 0.006014
100 0.004969
45 0.005017
33 0.004977
52 0.00502
82 0.004987
103 0.005015
111 0.005037
107 0.00498
100 0.005017
103 0.005019
117 0.005988
127 0.005019
143 0.004985
153 0.004023
164 0.004025
162 0.003992
109 0.003994
31 0.004047
18 0.003992
35 0.004997
58 0.004986
76 0.004995
88 0.005021
88 0.005025
88 0.004025
96 0.003957
106 0.003984
117 0.003986
126 0.003963
138 0.003958
148 0.003958
156 0.004944
121 0.004024
53 0.003982
9 0.003991
21 0.002991
52 0.003979
69 0.003953
80 0.004001
80 0.004025
78 0.003968
84 0.003984
95 0.003987
107 0.003988
118 0.004026
128 0.004002
141 0.004024
151 0.003991
151 0.003956
90 0.003953
30 0.002962
16 0.00296
32 0.002992
55 0.00301
73 0.002969
86 0.002982
88 0.002997
84 0.003015
89 0.003991
99 0.00399
119 0.002949
129 0.003974
140 0.002992
151 0.002992
159 0.003024
169 0.00296
152 0.00295
88 0.002956
38 0.003025
29 0.003012
57 0.002992
77 0.002033
102 0.002031
103 0.002025
96 0.001993
97 0.002993
103 0.002025
113 0.002019
128 0.003001
137 0.002959
145 0.002013
152 0.002989
162 0.002992
164 0.002993
89 0.003027
29 0.002996
34 0.001994
56 0.001979
75 0.00203
95 0.001996
106 0.002024
101 0.00199
99 0.002026
104 0.001995
116 0.002052
133 0.00202
146 0.002028
159 0.002029
167 0.000997
176 0.002047
171 0.002024
111 0.002043
30 0.00205
21 0.001036
38 0.000965
56 0.000997
71 0.001996
89 0.001995
91 0.002046
91 0.001995
99 0.002025
111 0.002025
124 0.001035
136 0.002028
150 0.000994
160 0.000998
170 0.001009
174 0.001062
134 0.001014
50 0.001
29 0.000997
56 0.000994
74 0.001986
93 0.002047
105 0.0
107 0.001961
104 0.001961
109 0.00103
117 0.001044
130 0.0
143 0.000999
155 0.000999
171 0.000999
180 0.000997
189 0.000998
150 0.001043
82 0.001008
48 0.000997
54 0.000998
86 0.000997
107 0.000967
124 0.000997
130 0.0
126 0.0
122 0.0
133 0.0
149 0.0
160 0.0
170 0.0
178 0.000999
186 0.000997
198 0.0
175 0.0
109 0.0
63 0.0
59 0.0
98 0.0
120 0.0
139 0.0
138 0.0
129 0.0
128 0.0
136 0.000971
152 0.00097
162 0.000975
173 0.000997
184 0.0
196 0.001029
188 0.000997
100 0.0
53 0.002044
48 0.000998
78 0.0
99 0.0
117 0.001007
124 0.001994
121 0.001994
116 0.000963
122 0.0
133 0.0
153 0.0
162 0.0
172 0.001983
180 0.00203
185 0.0
132 0.0
63 0.0
33 0.002053
44 0.001956
75 0.0
95 0.0
111 0.0
110 0.000997
107 0.0
110 0.001993
120 0.001997
134 0.002001
148 0.001021
159 0.0
170 0.000995
181 0.001988
179 0.001046
102 0.000945
49 0.0
54 0.0
79 0.0
105 0.000966
123 0.002043
125 0.001991
117 0.0
118 0.00099
126 0.000988
137 0.002011
147 0.002026
161 0.000966
170 0.000994
187 0.0
180 0.0
121 0.0
66 0.001995
51 0.001995
79 0.0
104 0.0
127 0.0
134 0.00195
127 0.001953
116 0.0
119 0.0
139 0.0
150 0.001971
161 0.0
169 0.002006
179 0.002004
176 0.000965
115 0.001032
60 0.0
47 0.002992
66 0.003031
98 0.001998
122 0.002011
129 0.001039
124 0.002006
123 0.001969
132 0.002003
144 0.00199
162 0.001997
170 0.001013
180 0.000991
190 0.002992
193 0.002994
116 0.002002
58 0.001994
49 0.002028
69 0.001992
88 0.002953
104 0.002963
110 0.00399
104 0.001985
103 0.001996
108 0.000997
118 0.002036
129 0.002988
139 0.004012
153 0.000999
165 0.003986
168 0.001994
111 0.00199
45 0.001994
17 0.002982
24 0.003957
47 0.001991
65 0.00199
79 0.002003
82 0.003989
79 0.004021
80 0.001989
94 0.003981
111 0.001992
123 0.001997
132 0.001982
143 0.004004
152 0.004033
164 0.00199
134 0.001996
64 0.001989
18 0.003989
15 0.004034
40 0.001994
63 0.004007
80 0.001991
83 0.001994
81 0.002992
80 0.003996
89 0.003997
110 0.001992
120 0.002004
130 0.00198
140 0.004987
150 0.005023
161 0.001996
172 0.004032
117 0.001993
51 0.003008
22 0.001979
32 0.003991
52 0.005027
77 0.002952
91 0.002991
94 0.003002
89 0.005018
88 0.00499
99 0.003024
118 0.005984
136 0.001986
147 0.002992
155 0.002988
161 0.004983
171 0.004985
180 0.00295
143 0.002988
72 0.002034
32 0.00502
32 0.004986
56 0.002989
78 0.004956
93 0.004986
97 0.001994
93 0.00299
97 0.002994
108 0.005986
119 0.006003
138 0.004024
150 0.003989
157 0.003986
165 0.005983
175 0.005985
177 0.006014
117 0.004975
34 0.002994
22 0.00299
34 0.002989
47 0.005981
60 0.005985
83 0.00399
88 0.003996
85 0.00399
85 0.00602
94 0.005984
117 0.006004
131 0.005986
145 0.003988
155 0.004987
164 0.004989
174 0.006985
177 0.00699
108 0.004051
41 0.004989
18 0.004987
30 0.006023
49 0.007015
76 0.005981
91 0.005992
95 0.003997
93 0.003986
97 0.003993
109 0.005957
124 0.005981
143 0.003992
155 0.003998
165 0.004009
173 0.006021
182 0.005866
194 0.006996
147 0.006987
58 0.004984
38 0.004976
52 0.004985
73 0.006981
89 0.006991
112 0.003986
117 0.004985
113 0.004987
111 0.007014
125 0.007939
146 0.006979
158 0.006975
174 0.004955
185 0.004958
195 0.004997
205 0.004989
201 0.006989
118 0.007948
66 0.004986
59 0.004986
77 0.004992
104 0.007933
128 0.005937
138 0.007975
137 0.007982
136 0.005981
143 0.004959
157 0.004987
172 0.008021
183 0.008025
199 0.005008
208 0.004989
218 0.005009
227 0.00798
152 0.005983
88 0.007977
67 0.007963
84 0.005983
103 0.005967
118 0.005984
133 0.007979
142 0.007983
141 0.00599
144 0.006982
152 0.005984
172 0.007978
190 0.005989
206 0.00797
215 0.00797
231 0.005949
235 0.005986
188 0.005978
105 0.007012
87 0.007014
100 0.006984
121 0.005986
141 0.00695
162 0.007109
165 0.005932
158 0.006982
162 0.006985
175 0.00598
188 0.005984
200 0.005934
216 0.006985
226 0.006972
239 0.006986
244 0.006024
221 0.005975
132 0.006027
101 0.00697
125 0.007016
146 0.006984
164 0.006979
173 0.00698
172 0.006034
165 0.006972
168 0.006965
181 0.007014
198 0.006979
207 0.00698
216 0.00695
229 0.005983
238 0.005986
220 0.006021
159 0.006034
101 0.005983
101 0.005965
121 0.005951
142 0.006015
160 0.006035
163 0.005982
156 0.006988
152 0.005986
163 0.005988
176 0.004978
186 0.006034
194 0.006032
210 0.005024
219 0.00599
192 0.005989
124 0.005989
77 0.005969
76 0.005992
97 0.005966
117 0.005989
143 0.005982
143 0.005022
139 0.005001
139 0.005024
149 0.004992
158 0.004984
169 0.005974
181 0.006017
191 0.006022
200 0.00598
167 0.005978
100 0.005977
58 0.005983
71 0.004974
90 0.005017
108 0.00499
124 0.004988
127 0.004971
126 0.005021
128 0.005024
135 0.004985
150 0.006018
161 0.005964
170 0.004957
188 0.004975
188 0.004985
138 0.003978
82 0.004021
63 0.003988
80 0.004984
101 0.004069
118 0.004022
129 0.00399
128 0.003993
123 0.004988
126 0.005043
141 0.004969
155 0.003956
166 0.004986
178 0.005014
187 0.00498
162 0.003973
93 0.00399
37 0.003997
27 0.003991
45 0.003985
77 0.004019
98 0.004029
110 0.003983
109 0.003991
110 0.003994
117 0.002999
128 0.004998
146 0.003972
156 0.004025
170 0.003961
180 0.003938
156 0.003991
83 0.004023
61 0.003982
88 0.004004
111 0.004022
131 0.003863
136 0.003991
135 0.004
133 0.003962
137 0.004006
148 0.003048
160 0.002999
171 0.002994
183 0.003029
193 0.004026
148 0.003951
97 0.004002
78 0.002992
92 0.002945
115 0.003031
144 0.00299
153 0.003946
151 0.003947
145 0.003017
147 0.002997
158 0.003038
169 0.002994
184 0.003
191 0.003032
202 0.002941
192 0.003028
142 0.00301
87 0.004019
91 0.003969
114 0.004027
138 0.003002
156 0.002035
159 0.001997
150 0.002992
147 0.001994
157 0.003007
167 0.002993
176 0.002977
184 0.003025
192 0.003029
204 0.002992
184 0.002032
127 0.002034
85 0.00203
83 0.001995
109 0.001995
141 0.001996
154 0.002004
150 0.001988
143 0.001971
143 0.002032
151 0.002045
163 0.001991
170 0.00103
179 0.001012
188 0.001996
200 0.00202
178 0.001995
97 0.001995
68 0.001999
80 0.001987
99 0.002024
116 0.002028
130 0.00205
130 0.002995
123 0.001995
125 0.002002
135 0.001996
144 0.000994
155 0.000998
167 0.000997
178 0.00103
185 0.001993
159 0.000997
100 0.000997
60 0.000998
62 0.000997
82 0.001997
99 0.001995
113 0.001995
119 0.000998
115 0.001004
112 0.001039
125 0.001031
137 0.000997
147 0.000997
155 0.000998
163 0.001011
173 0.00103
181 0.000998
160 0.000997
97 0.000998
51 0.000997
45 0.000997
77 0.000997
96 0.0
111 0.0
110 0.0
105 0.0
104 0.0
110 0.0
124 0.0
134 0.0
143 0.0
152 0.0
160 0.000997
173 0.0
155 0.0
77 0.0
45 0.0
50 0.000957
69 0.0
90 0.000998
108 0.000994
108 0.0
103 0.0
101 0.0
107 0.0
126 0.0
138 0.0
148 0.0
153 0.0
162 0.0
167 0.001034
160 0.000997
81 0.002028
34 0.002025
34 0.001016
52 0.0
68 0.0
90 0.0
91 0.0
85 0.002025
85 0.00203
97 0.0
108 0.0
119 0.0
127 0.00203
136 0.002025
146 0.0
154 0.00095
153 0.000967
57 0.0
16 0.0
15 0.002048
32 0.00202
54 0.0
71 0.0
79 0.0
77 0.003044
76 0.002032
83 0.0
96 0.0
109 0.001003
128 0.001009
136 0.001943
142 0.001004
150 0.002986
161 0.003033
148 0.0
85 0.0
31 0.000999
19 0.001956
37 0.002991
59 0.0
74 0.0
91 0.0
91 0.0
90 0.0
97 0.001998
111 0.002029
129 0.0
142 0.0
152 0.0
163 0.002036
170 0.002027
182 0.0
192 0.0
133 0.001016
77 0.00102
60 0.000968
75 0.001986
94 0.002026
115 0.000967
130 0.000972
132 0.000968
127 0.002995
127 0.003024
140 0.0
153 0.002007
173 0.001966
184 0.00198
193 0.000968
200 0.002035
208 0.002993
219 0.001997
192 0.001972
128 0.001985
90 0.003033
89 0.003032
113 0.002004
129 0.001993
150 0.002004
153 0.002007
150 0.002992
151 0.002993
157 0.003027
174 0.002001
184 0.002996
193 0.002992
201 0.002993
209 0.003998
215 0.003987
225 0.001996
214 0.004053
131 0.002033
88 0.001991
87 0.001991
106 0.003032
121 0.002987
137 0.001995
148 0.001996
150 0.001997
147 0.002991
147 0.003989
158 0.001993
173 0.003994
187 0.00299
194 0.001993
201 0.001985
207 0.00399
214 0.004024
221 0.002
192 0.001977
127 0.002026
88 0.004987
87 0.005022
111 0.001964
128 0.003982
144 0.003001
147 0.002
145 0.001987
145 0.00399
152 0.004026
167 0.002962
177 0.001996
185 0.001995
191 0.005019
198 0.004987
208 0.002972
220 0.004948
206 0.002003
147 0.001998
98 0.002006
87 0.005027
103 0.004025
127 0.001997
142 0.001992
151 0.002994
150 0.005021
145 0.004987
143 0.002994
152 0.003004
171 0.00299
181 0.001968
188 0.002988
196 0.005023
201 0.004987
212 0.001946
208 0.002021
156 0.003947
96 0.004986
73 0.00599
83 0.006019
110 0.003019
129 0.005985
138 0.002996
134 0.003
127 0.002991
129 0.004986
139 0.004987
153 0.003006
161 0.003006
170 0.003994
176 0.005982
183 0.005984
194 0.003988
150 0.005981
63 0.002996
39 0.004006
49 0.00496
68 0.005984
82 0.006018
101 0.002991
105 0.003945
100 0.003973
97 0.006017
101 0.006021
117 0.002989
129 0.005952
142 0.003991
150 0.003995
160 0.003988
170 0.005997
162 0.006038
79 0.004988
30 0.00499
22 0.004983
39 0.007012
59 0.006981
82 0.004969
93 0.006973
89 0.004005
89 0.003967
98 0.004028
109 0.006985
122 0.006987
142 0.003992
152 0.003989
157 0.004955
165 0.007022
175 0.007015
155 0.004961
63 0.00698
19 0.004992
36 0.006005
58 0.004997
76 0.007023
92 0.007015
97 0.004987
92 0.004029
90 0.003985
99 0.007978
115 0.007946
128 0.004992
141 0.006979
153 0.00499
162 0.004992
171 0.005987
155 0.003987
89 0.007015
34 0.006981
28 0.004988
52 0.006006
77 0.005991
98 0.00795
106 0.007979
94 0.007978
96 0.007963
107 0.005984
121 0.005968
133 0.005968
147 0.007954
155 0.007948
165 0.005984
173 0.005985
140 0.004969
62 0.007982
11 0.007979
28 0.007973
48 0.007981
64 0.005996
76 0.00594
78 0.005984
71 0.006992
73 0.007937
86 0.005949
100 0.005953
112 0.005985
122 0.007947
139 0.007931
155 0.006981
122 0.006981
47 0.005979
0 0.006961
0 0.006965
17 0.006982
36 0.007956
55 0.005973
63 0.006014
62 0.005966
62 0.007038
68 0.006979
90 0.006968
102 0.006983
114 0.005982
126 0.005985
133 0.006968
145 0.00697
111 0.006986
34 0.006979
0 0.006025
0 0.006979
15 0.006979
32 0.007017
58 0.006983
60 0.007015
57 0.006017
59 0.005974
70 0.00599
93 0.007033
106 0.006023
115 0.006032
129 0.005979
137 0.005983
147 0.006975
147 0.007024
67 0.006978
0 0.007012
63 0.005982
78 0.006015
88 0.005994
97 0.005985
100 0.006017
98 0.00599
97 0.005985
101 0.005992
108 0.005974
115 0.006025
125 0.005975
130 0.006031
135 0.005985
142 0.004993
135 0.004986
100 0.005988
69 0.006053
61 0.005986
72 0.005992
80 0.006003
89 0.005989
97 0.006009
98 0.006019
97 0.006015
101 0.005976
110 0.005981
117 0.005981
122 0.004979
127 0.005023
132 0.004988
138 0.005983
143 0.005977
138 0.00598
104 0.00598
58 0.004986
59 0.005969
67 0.004996
75 0.005021
83 0.004997
91 0.005004
93 0.005032
93 0.005017
97 0.006026
104 0.004979
113 0.005084
119 0.005019
127 0.005012
131 0.004958
136 0.00504
140 0.005016
146 0.005023
140 0.003989
106 0.005033
71 0.00493
60 0.005017
69 0.004991
75 0.004996
83 0.004035
97 0.003939
99 0.00399
99 0.003959
101 0.004021
102 0.004038
114 0.004009
124 0.004008
131 0.00399
138 0.004036
146 0.005033
151 0.004009
157 0.003989
167 0.003946
169 0.003027
127 0.00303
73 0.00399
50 0.00296
61 0.00396
72 0.004025
81 0.003991
94 0.003991
102 0.003991
100 0.003991
100 0.004007
115 0.004083
127 0.004049
138 0.004026
145 0.003991
153 0.003025
158 0.003038
162 0.00303
167 0.002992
174 0.003025
182 0.002991
161 0.002993
104 0.002994
58 0.003022
67 0.002969
79 0.004035
88 0.004025
104 0.00399
109 0.003958
110 0.003958
111 0.002996
116 0.003029
130 0.002993
141 0.003
150 0.002992
163 0.002993
167 0.003023
172 0.003026
177 0.003002
186 0.003009
192 0.003029
174 0.003023
119 0.002029
76 0.002058
67 0.001995
81 0.001995
88 0.001956
106 0.001996
114 0.001993
116 0.00303
117 0.002992
120 0.001995
132 0.002026
143 0.002027
152 0.002048
161 0.002003
167 0.001995
175 0.001963
181 0.00205
193 0.001984
190 0.00203
148 0.001996
100 0.002034
83 0.002042
96 0.001995
107 0.001027
115 0.000998
128 0.000969
135 0.001008
136 0.001996
137 0.002038
149 0.001995
161 0.002025
170 0.002041
178 0.001965
183 0.002042
192 0.002026
197 0.001996
203 0.001993
210 0.001046
198 0.000999
134 0.000997
107 0.000954
120 0.001031
135 0.001992
146 0.001001
155 0.002038
159 0.002005
156 0.002037
155 0.001995
162 0.002039
172 0.002027
181 0.001953
189 0.001048
196 0.001044
205 0.001044
210 0.000998
215 0.0
215 0.000999
180 0.000997
124 0.000997
114 0.000998
125 0.001028
138 0.001059
148 0.0
157 0.000998
161 0.0
157 0.0
159 0.0
165 0.0
174 0.0
184 0.0
189 0.0
196 0.0
201 0.0
206 0.0
211 0.0
204 0.0
145 0.0
110 0.0
116 0.001009
130 0.0
140 0.000999
149 0.001012
154 0.0
153 0.0
150 0.00203
153 0.0
164 0.0
172 0.0
179 0.002027
188 0.0
193 0.00203
200 0.002028
200 0.00099
167 0.000957
125 0.0
105 0.003024
108 0.003054
127 0.0
137 0.0
145 0.0
149 0.003027
145 0.0
147 0.003012
151 0.003031
162 0.0
170 0.0
176 0.0
181 0.003034
186 0.003001
194 0.0
196 0.0
169 0.0
127 0.002026
105 0.0
118 0.002022
131 0.002039
147 0.001014
150 0.0
147 0.0
141 0.002035
141 0.002029
151 0.0
157 0.0
165 0.0
171 0.0
180 0.0
185 0.0
189 0.00203
174 0.002027
120 0.0
97 0.0
101 0.0
116 0.002024
128 0.002044
142 0.0
142 0.0
137 0.0
136 0.001029
141 0.0
148 0.00204
155 0.002046
161 0.0
166 0.0
172 0.0
177 0.00303
161 0.003022
104 0.0
78 0.00101
78 0.0
101 0.000999
112 0.000975
120 0.00203
119 0.002994
114 0.0
116 0.0
121 0.000966
128 0.003042
135 0.003045
146 0.003001
152 0.002989
156 0.000974
153 0.002025
114 0.000997
75 0.003992
61 0.002992
75 0.001998
88 0.0
100 0.000946
107 0.002994
107 0.003037
104 0.001981
107 0.001979
113 0.001993
127 0.002009
134 0.002008
140 0.002993
146 0.004024
155 0.002991
149 0.002
110 0.001995
70 0.003003
57 0.002992
66 0.002992
86 0.002992
99 0.001995
108 0.001995
105 0.001983
102 0.001998
106 0.00399
115 0.003989
126 0.001991
133 0.001996
140 0.001999
147 0.002992
153 0.003023
158 0.001996
132 0.002991
65 0.002997
60 0.002979
74 0.003005
89 0.00402
102 0.004028
111 0.002997
108 0.00203
105 0.002029
107 0.004021
114 0.004987
126 0.002005
134 0.001997
145 0.001997
151 0.001998
157 0.00197
156 0.004024
121 0.00399
64 0.002986
55 0.002993
66 0.002029
79 0.003989
90 0.004987
103 0.002999
105 0.001992
103 0.002028
107 0.001979
116 0.001997
127 0.00496
135 0.004987
143 0.001992
150 0.001996
155 0.001997
161 0.003989
153 0.004992
90 0.002983
55 0.003011
60 0.003
72 0.002998
81 0.003
93 0.004992
100 0.005023
100 0.003005
100 0.002008
106 0.001987
114 0.004987
124 0.005984
135 0.003004
142 0.002025
152 0.002991
158 0.002993
161 0.002976
129 0.00396
80 0.004987
57 0.005017
66 0.002987
78 0.003997
88 0.003994
102 0.006014
109 0.006018
108 0.003014
108 0.005974
120 0.003023
130 0.002989
139 0.002988
147 0.005986
154 0.006015
162 0.002981
168 0.002959
176 0.002998
171 0.005988
128 0.005984
74 0.003983
72 0.006981
93 0.00299
105 0.003991
118 0.003966
124 0.006981
121 0.007019
117 0.003973
123 0.003985
134 0.003974
145 0.005984
153 0.005984
162 0.002997
169 0.005989
176 0.004988
182 0.004976
163 0.003988
116 0.006979
82 0.006986
81 0.003992
98 0.004005
111 0.003993
124 0.007013
131 0.007978
126 0.004991
123 0.006984
131 0.004992
142 0.004986
152 0.004986
159 0.006984
165 0.006981
175 0.004993
179 0.004989
163 0.005008
113 0.006938
75 0.006984
74 0.004989
95 0.007017
111 0.003972
123 0.004996
126 0.005017
124 0.004996
123 0.007975
131 0.007979
141 0.004988
151 0.004993
158 0.004989
165 0.006948
172 0.006991
176 0.007963
150 0.007978
80 0.005983
58 0.00498
62 0.00594
79 0.00795
85 0.00798
101 0.006007
109 0.004992
110 0.006
109 0.007019
115 0.006981
132 0.00701
143 0.006965
151 0.005985
158 0.005982
164 0.005976
172 0.007979
167 0.007952
119 0.005955
69 0.006935
50 0.005974
56 0.007983
67 0.007948
90 0.007015
101 0.00797
105 0.006966
106 0.005983
109 0.006016
120 0.006963
132 0.00698
145 0.006953
151 0.005982
158 0.005971
167 0.006938
174 0.00698
172 0.007974
122 0.007017
73 0.006964
57 0.00603
67 0.006969
83 0.006983
93 0.007017
108 0.006978
112 0.006016
112 0.006969
114 0.007011
120 0.006977
136 0.00602
147 0.006023
159 0.005992
166 0.005984
173 0.005978
181 0.005982
188 0.005965
170 0.006
117 0.006984
80 0.006985
78 0.006972
98 0.007027
124 0.006963
136 0.006024
137 0.005985
132 0.005976
135 0.006017
144 0.006003
153 0.00601
163 0.006019
175 0.006002
181 0.005975
186 0.005974
194 0.006015
193 0.006006
149 0.006018
105 0.005968
92 0.005975
109 0.006991
128 0.005981
145 0.005955
151 0.005984
147 0.006944
142 0.004987
144 0.004986
151 0.004987
167 0.005983
176 0.005006
182 0.005941
190 0.005979
197 0.004992
194 0.005952
150 0.005981
102 0.005033
86 0.004969
99 0.004995
117 0.004971
135 0.005019
145 0.00499
139 0.00603
135 0.006034
141 0.004969
149 0.004994
157 0.004993
166 0.005039
174 0.004027
182 0.003996
189 0.004007
175 0.003993
123 0.004022
73 0.004995
81 0.005021
98 0.004971
122 0.004973
132 0.004959
131 0.004956
125 0.004951
125 0.005
130 0.003991
141 0.003959
150 0.003957
158 0.003984
170 0.003994
176 0.003975
168 0.004012
121 0.00399
70 0.003945
68 0.004954
85 0.00495
103 0.004026
120 0.004022
128 0.00396
123 0.002984
117 0.003988
126 0.002993
135 0.004025
145 0.004022
153 0.002993
161 0.002994
169 0.00399
174 0.003065
147 0.003031
96 0.004022
63 0.003951
71 0.004002
91 0.004025
120 0.003991
124 0.002947
119 0.003028
111 0.002994
114 0.004025
122 0.004023
131 0.002981
140 0.003031
146 0.002993
154 0.002992
162 0.00299
153 0.002993
77 0.003029
55 0.004021
59 0.002992
76 0.003036
102 0.002964
110 0.002993
107 0.002993
101 0.003022
99 0.003027
106 0.001995
115 0.001999
125 0.001992
137 0.002028
144 0.001996
150 0.002029
130 0.002994
62 0.003023
35 0.002992
38 0.002999
54 0.003022
70 0.002985
85 0.002992
90 0.002992
86 0.003004
87 0.00196
95 0.001966
104 0.002033
114 0.002992
123 0.001995
133 0.002048
141 0.002028
135 0.002009
89 0.001995
44 0.002001
33 0.001994
48 0.002007
75 0.002027
85 0.002026
87 0.001986
86 0.002025
86 0.00104
96 0.001
107 0.000962
116 0.000954
124 0.001005
131 0.001026
143 0.000959
148 0.002004
95 0.00099
54 0.000997
43 0.000998
54 0.002029
69 0.002036
92 0.002028
99 0.001027
98 0.000998
95 0.000997
98 0.000999
108 0.00104
118 0.001042
133 0.001029
140 0.000997
148 0.000991
156 0.000997
155 0.001011
105 0.000997
63 0.000998
51 0.000992
62 0.000965
77 0.000997
96 0.000966
104 0.000967
99 0.000997
99 0.0
106 0.0
114 0.0
124 0.0
132 0.0
141 0.0
147 0.0
154 0.0
158 0.0
132 0.0
66 0.000966
43 0.000998
57 0.000997
68 0.0
81 0.0
90 0.0
91 0.001011
90 0.0
93 0.0
102 0.0
111 0.0
119 0.000951
130 0.0
139 0.0
149 0.000998
149 0.003028
116 0.000937
56 0.0
43 0.0
50 0.0
63 0.002985
79 0.0
90 0.000969
93 0.0
92 0.001986
98 0.00101
106 0.002997
118 0.002044
131 0.000954
137 0.000991
144 0.0
152 0.003002
158 0.002031
160 0.0
121 0.0
72 0.0
52 0.003024
69 0.0
82 0.003023
96 0.00303
106 0.0
106 0.0
104 0.0
105 0.002044
112 0.002027
124 0.001005
132 0.0
140 0.0
147 0.001996
156 0.000966
161 0.002025
168 0.002026
136 0.0
88 0.000966
61 0.000965
64 0.00195
78 0.002028
95 0.002032
116 0.0
122 0.0
121 0.0
122 0.0
132 0.000944
143 0.003025
153 0.003022
163 0.0
169 0.0
174 0.0
180 0.002946
186 0.003027
169 0.0
117 0.00103
77 0.0
75 0.000962
88 0.0
99 0.002046
111 0.003027
119 0.00101
117 0.000947
117 0.000991
123 0.002991
132 0.002992
144 0.0
154 0.0
161 0.001003
172 0.0
179 0.00101
183 0.003027
154 0.003023
86 0.0
68 0.0
76 0.000991
92 0.001991
106 0.002
123 0.0
127 0.000973
125 0.0
127 0.0
134 0.0
144 0.003018
154 0.002994
165 0.0
173 0.001994
181 0.001994
188 0.002992
189 0.002969
141 0.002994
95 0.002969
79 0.002985
100 0.0
117 0.0
134 0.003008
142 0.003026
137 0.001987
135 0.001996
137 0.000966
146 0.002986
155 0.003987
169 0.003012
176 0.002993
182 0.00295
196 0.002975
197 0.002996
161 0.001993
109 0.004021
84 0.00402
94 0.001981
114 0.001996
131 0.001995
144 0.003982
145 0.004034
136 0.002989
134 0.002986
147 0.001997
161 0.001996
171 0.002991
177 0.004978
183 0.00399
192 0.001994
185 0.002989
140 0.001996
92 0.003992
76 0.003987
93 0.001991
111 0.00199
137 0.002115
139 0.002
135 0.002016
130 0.004987
134 0.005026
145 0.002006
156 0.002028
165 0.001844
173 0.004985
179 0.004987
186 0.002989
152 0.002997
67 0.002999
59 0.00299
72 0.002993
89 0.005023
104 0.005055
117 0.002991
118 0.002991
116 0.00296
116 0.005022
122 0.005003
137 0.002008
146 0.001978
159 0.001992
167 0.003004
175 0.002997
161 0.005984
102 0.006014
48 0.00299
48 0.00299
64 0.002991
79 0.004997
92 0.004985
105 0.002997
105 0.003012
105 0.002994
111 0.002041
122 0.002992
134 0.00299
143 0.005018
150 0.005985
161 0.00299
169 0.002958
166 0.002987
120 0.005954
65 0.006445
43 0.002993
65 0.005984
87 0.003995
102 0.003991
108 0.003001
107 0.005983
105 0.006018
111 0.002994
121 0.002992
132 0.002998
143 0.005986
151 0.006972
161 0.002966
171 0.006978
178 0.003989
143 0.003991
84 0.00399
53 0.006014
57 0.006014
85 0.003995
104 0.003995
120 0.002989
123 0.006984
116 0.006957
113 0.003987
122 0.007053
137 0.004006
147 0.003988
154 0.003997
162 0.007034
168 0.006982
177 0.00399
166 0.003944
114 0.004958
68 0.007009
57 0.00802
81 0.003937
110 0.006997
128 0.004025
125 0.004988
119 0.00395
117 0.00702
122 0.006983
137 0.003976
147 0.00397
155 0.003982
161 0.007184
171 0.007964
176 0.004969
128 0.007945
70 0.004955
46 0.004993
54 0.004989
75 0.007003
96 0.007012
111 0.007012
114 0.004986
109 0.003985
107 0.004995
112 0.007944
125 0.007977
140 0.007978
150 0.007944
157 0.00495
165 0.005968
171 0.005007
123 0.007978
81 0.007979
42 0.003994
49 0.004983
71 0.00497
97 0.006982
110 0.00798
107 0.007946
103 0.00798
107 0.005993
116 0.006005
126 0.00499
136 0.007973
148 0.00698
154 0.004984
163 0.00499
170 0.005948
123 0.006989
67 0.006956
46 0.006985
66 0.006985
88 0.005982
107 0.005948
115 0.005953
108 0.007015
101 0.006982
105 0.006014
115 0.005979
126 0.004962
136 0.007966
147 0.006981
159 0.006982
166 0.006982
146 0.005983
89 0.006016
50 0.005972
50 0.006981
70 0.006983
93 0.005984
111 0.005997
113 0.005984
102 0.005978
100 0.005979
111 0.006022
122 0.005976
135 0.005981
142 0.006972
148 0.006963
155 0.00697
155 0.006956
113 0.006018
55 0.006006
30 0.006004
45 0.006003
64 0.006022
92 0.005986
93 0.006007
88 0.006023
86 0.004986
92 0.006008
103 0.005969
114 0.005984
123 0.005942
131 0.00597
141 0.005953
148 0.006044
144 0.006036
78 0.005965
28 0.005984
32 0.006034
56 0.005973
74 0.004985
88 0.004983
92 0.005017
89 0.00602
87 0.006002
91 0.005964
103 0.005978
116 0.006019
131 0.005952
139 0.00502
148 0.005031
154 0.004977
123 0.004991
69 0.004988
38 0.00502
40 0.004934
66 0.004999
83 0.004958
96 0.004997
100 0.00499
96 0.006004
99 0.00503
108 0.005037
123 0.004971
133 0.004965
140 0.005008
146 0.004998
153 0.004988
164 0.004974
166 0.004985
129 0.004974
72 0.004988
46 0.004957
62 0.005019
79 0.003977
100 0.003991
105 0.003982
101 0.002993
97 0.003991
99 0.003999
110 0.004015
124 0.003959
133 0.002954
141 0.004987
153 0.004955
160 0.003992
166 0.004021
147 0.003987
75 0.003984
46 0.003991
51 0.00401
70 0.003967
85 0.002977
104 0.003956
107 0.003985
102 0.003991
104 0.003978
112 0.003971
125 0.003984
136 0.002992
145 0.003015
152 0.003029
160 0.003009
167 0.002989
169 0.002977
112 0.003956
59 0.003958
40 0.003968
59 0.003953
72 0.00395
86 0.002994
96 0.002994
97 0.002988
97 0.002991
102 0.002992
112 0.003075
123 0.002998
138 0.002995
147 0.00299
154 0.002989
167 0.003029
174 0.002997
151 0.003025
95 0.003025
55 0.002002
61 0.001994
75 0.001996
86 0.002896
101 0.002035
113 0.002992
113 0.003
114 0.001995
127 0.002985
139 0.003
151 0.002993
161 0.002992
173 0.001994
180 0.001996
188 0.001997
197 0.001995
194 0.001995
149 0.002035
92 0.002026
88 0.001994
111 0.002031
122 0.001997
136 0.000999
143 0.003049
144 0.002025
145 0.001972
151 0.00196
163 0.001992
175 0.002031
186 0.00203
196 0.001992
204 0.001993
215 0.002027
223 0.002032
213 0.000999
170 0.000996
132 0.000997
123 0.000965
137 0.001984
150 0.00201
162 0.002038
170 0.00201
172 0.001977
169 0.001993
177 0.001028
187 0.002025
198 0.000998
206 0.002034
212 0.001006
220 0.000964
226 0.002008
232 0.002
235 0.001997
203 0.002031
145 0.00199
129 0.002019
144 0.002026
154 0.0
163 0.0
171 0.0
171 0.0
170 0.0
172 0.000964
178 0.0
187 0.000998
196 0.000997
206 0.000998
212 0.001001
220 0.000999
227 0.000998
225 0.000997
185 0.0
144 0.0
130 0.0
138 0.0
148 0.0
157 0.0
166 0.0
170 0.0
167 0.0
169 0.0
179 0.000998
188 0.0
195 0.0
201 0.0
206 0.0
213 0.0
219 0.0
225 0.0
210 0.0
152 0.0
132 0.0
139 0.0
155 0.0
164 0.0
173 0.0
171 0.0
167 0.0
167 0.0
173 0.003028
184 0.0
191 0.000999
197 0.000966
202 0.002991
211 0.0
215 0.002025
203 0.002025
151 0.0
128 0.0
129 0.0
141 0.002993
153 0.002028
166 0.0
167 0.0
163 0.0
159 0.002992
166 0.0
172 0.003028
180 0.00299
188 0.0
193 0.0
197 0.0
204 0.002995
203 0.002989
149 0.0
113 0.0
103 0.000995
112 0.002992
130 0.001002
