192 0.020929
196 0.004828
207 0.005
224 0.005955
205 0.005949
147 0.006009
138 0.005948
155 0.006016
167 0.006019
188 0.006018
195 0.00598
179 0.00603
166 0.006018
169 0.006017
177 0.005984
179 0.005952
191 0.005955
199 0.005955
154 0.005954
118 0.00695
116 0.006967
135 0.005984
147 0.005984
170 0.005984
171 0.005984
148 0.005993
143 0.004977
150 0.005984
161 0.004986
161 0.005984
174 0.004986
176 0.004013
140 0.004026
96 0.003992
107 0.003989
119 0.003987
137 0.003024
150 0.001994
134 0.0
118 0.000998
116 0.0
115 0.0
122 0.000998
127 0.0
127 0.000494
121 0.000968
75 0.000966
42 0.000998
40 0.000997
51 0.002945
76 0.002962
82 0.003992
76 0.003959
54 0.004985
56 0.005978
69 0.006982
78 0.007011
83 0.007014
94 0.00698
98 0.006961
99 0.006027
33 0.003987
23 0.002997
38 0.001993
64 0.002999
86 0.001994
95 0.001952
79 0.0
70 0.000977
75 0.0
82 0.000969
93 0.0
103 0.0
108 0.0
114 0.0
118 0.0
86 0.0
40 0.0
49 0.000997
60 0.001994
71 0.001953
83 0.001995
79 0.002958
57 0.001959
53 0.001963
69 0.001798
78 0.003964
79 0.004957
88 0.004943
101 0.006989
106 0.005984
116 0.006945
123 0.007944
80 0.007009
18 0.005016
17 0.002991
27 0.003026
44 0.002994
57 0.002992
64 0.002979
49 0.003095
47 0.00299
55 0.002992
58 0.002963
66 0.001999
73 0.001956
73 0.000998
84 0.000968
99 0.001055
95 0.000942
98 0.001011
88 0.000919
26 0.001956
0 0.000999
2 0.002039
21 0.001968
37 0.003989
44 0.00408
44 0.004385
37 0.005985
39 0.006923
46 0.007025
59 0.006981
69 0.00704
79 0.007022
86 0.006997
87 0.007008
92 0.006982
99 0.005976
105 0.007023
109 0.007057
120 0.007042
55 0.00703
22 0.007028
15 0.006982
42 0.003989
46 0.005019
49 0.004034
46 0.004028
38 0.00404
37 0.003046
42 0.003032
68 0.001053
75 0.000997
79 0.0
74 0.000997
80 0.001036
82 0.0
92 0.000998
95 0.0
104 0.000997
55 0.000998
21 0.001996
29 0.001995
44 0.003941
48 0.003991
54 0.005984
67 0.007978
54 0.004978
51 0.005984
59 0.005023
71 0.006031
87 0.001999
103 0.001993
117 0.000997
118 0.000998
125 0.001995
131 0.001995
140 0.000997
129 0.0
81 0.0
51 0.000999
89 0.002992
100 0.00399
117 0.004987
133 0.006981
132 0.006982
124 0.007946
129 0.005984
133 0.004987
145 0.003991
149 0.003038
158 0.00399
161 0.003018
175 0.002026
181 0.002045
159 0.002039
107 0.002043
52 0.002199
61 0.001994
62 0.0
64 0.000998
78 0.000997
84 0.000998
79 0.000997
89 0.001007
101 0.001997
110 0.002021
126 0.002992
138 0.001993
154 0.002839
163 0.00399
174 0.006015
167 0.006056
119 0.006031
85 0.00702
89 0.007069
106 0.007031
137 0.005989
149 0.007023
153 0.006983
142 0.005971
139 0.00603
146 0.004996
159 0.006029
166 0.004021
173 0.004038
180 0.002992
184 0.00301
197 0.002992
190 0.003043
110 0.001994
95 0.0
104 0.000998
125 0.0
146 0.0
151 0.0
142 0.0
139 0.0
145 0.000974
156 0.000967
163 0.0
177 0.0
181 0.0
185 0.002008
191 0.00203
186 0.001993
113 0.00199
89 0.002946
105 0.003996
131 0.00404
148 0.004986
160 0.006036
153 0.006968
142 0.0
144 0.007977
148 0.006028
158 0.005987
162 0.00599
180 0.004985
186 0.00499
188 0.00498
119 0.004999
96 0.003969
107 0.003989
130 0.002969
153 0.001987
176 0.001994
180 0.000997
160 0.000984
149 0.0
153 0.0
168 0.0
177 0.0
187 0.0
184 0.001
143 0.001967
95 0.001995
80 0.002028
103 0.003953
117 0.003966
152 0.00399
162 0.00399
139 0.003979
137 0.004028
143 0.005008
156 0.004988
162 0.00505
170 0.005006
182 0.005031
175 0.00503
103 0.004001
87 0.006026
106 0.007015
124 0.006982
145 0.006991
160 0.007978
148 0.006948
137 0.006945
131 0.006025
138 0.004986
140 0.003989
152 0.003037
164 0.003035
165 0.002991
99 0.003033
81 0.00299
81 0.002991
92 0.002994
106 0.001995
127 0.002027
123 0.001994
107 0.001994
108 0.000998
114 0.001943
128 0.000997
138 0.000987
148 0.000998
148 0.001005
79 0.001025
59 0.000987
63 0.001995
77 0.002032
97 0.003977
109 0.003988
107 0.00404
95 0.004038
103 0.004005
108 0.003986
124 0.00399
137 0.006029
145 0.007024
133 0.007029
58 0.006953
46 0.00713
56 0.004987
78 0.005004
87 0.00502
91 0.004987
83 0.005029
77 0.004989
82 0.00401
97 0.003038
117 0.002052
126 0.000945
129 0.000963
106 0.0
46 0.0
36 0.002026
48 0.002
61 0.002996
73 0.003039
76 0.001997
67 0.003887
56 0.004061
63 0.003991
64 0.004
74 0.004037
80 0.003991
88 0.003959
93 0.004039
104 0.003966
88 0.003995
51 0.004996
53 0.003985
59 0.007046
54 0.007983
50 0.006981
44 0.005994
34 0.005976
10 0.005035
6 0.004984
11 0.004022
24 0.00299
25 0.003988
34 0.002958
40 0.000967
46 0.0
51 0.0
66 0.0
69 0.002031
7 0.001045
0 0.001995
0 0.002029
0 0.001994
0 0.002905
3 0.002992
2 0.002992
0 0.003015
0 0.003003
0 0.004023
12 0.005028
15 0.00504
32 0.005036
38 0.005035
41 0.004957
44 0.006023
50 0.005027
62 0.006977
77 0.007979
35 0.006957
0 0.007979
0 0.00694
0 0.005966
7 0.00399
17 0.003967
26 0.004031
16 0.004007
5 0.004006
9 0.003049
19 0.003958
32 0.00304
44 0.003009
49 0.002984
66 0.003035
73 0.001981
81 0.002008
92 0.002039
97 0.002167
63 0.002011
8 0.002039
61 0.00101
68 0.002037
79 0.001061
87 0.001038
94 0.0
89 0.0
83 0.000998
81 0.001012
86 0.000963
96 0.000997
105 0.001947
111 0.001952
120 0.001832
121 0.003001
128 0.004992
135 0.005978
119 0.005984
84 0.006034
84 0.006045
89 0.006042
100 0.006033
109 0.007979
115 0.007017
110 0.007022
108 0.005984
112 0.005984
117 0.006026
123 0.005033
131 0.004992
139 0.002045
142 0.002992
152 0.002036
155 0.002027
133 0.002026
116 0.001033
117 0.002038
122 0.000999
129 0.002036
137 0.002043
135 0.001982
128 0.001041
126 0.002036
130 0.001989
132 0.000977
140 0.001995
149 0.0
151 0.001006
156 0.00099
160 0.000997
133 0.002992
93 0.004987
88 0.006026
94 0.006062
106 0.006013
118 0.007015
122 0.007928
115 0.006936
108 0.007972
110 0.006985
118 0.007011
123 0.006981
137 0.004983
145 0.003984
152 0.00498
161 0.004036
145 0.004038
87 0.004035
70 0.004973
81 0.004637
98 0.004987
114 0.004039
125 0.005003
118 0.003999
110 0.004946
110 0.001997
118 0.001995
125 0.002044
137 0.00105
144 0.0
149 0.0
160 0.001995
129 0.001995
94 0.001996
80 0.002964
82 0.002991
97 0.002961
113 0.005809
114 0.007013
107 0.006984
94 0.007948
94 0.007013
101 0.006973
111 0.005984
120 0.005984
124 0.004987
129 0.005174
137 0.004991
101 0.004037
68 0.004987
57 0.003995
80 0.004007
90 0.004036
109 0.003982
107 0.003992
102 0.003994
101 0.004034
104 0.004034
113 0.003987
126 0.005037
131 0.003998
139 0.00399
141 0.002992
109 0.003037
88 0.001995
92 0.000998
109 0.000988
121 0.0
132 0.000998
127 0.002994
117 0.004034
129 0.006982
135 0.007978
142 0.006982
152 0.003992
157 0.005033
160 0.005036
164 0.005025
116 0.005019
74 0.005028
72 0.002028
80 0.003026
93 0.002992
100 0.003059
98 0.001987
90 0.002036
83 0.001996
86 0.000999
87 0.001995
93 0.000997
108 0.0
117 0.0
132 0.0
135 0.000999
100 0.002009
63 0.000997
65 0.000997
79 0.000998
90 0.00196
97 0.001971
93 0.004958
87 0.00501
90 0.006039
102 0.005976
109 0.006032
114 0.006023
120 0.007896
129 0.007026
131 0.006982
139 0.006025
137 0.006015
78 0.005984
44 0.005024
41 0.004987
59 0.003963
66 0.003035
75 0.002032
73 0.002991
60 0.002002
58 0.0
68 0.000992
70 0.0
80 0.000959
86 0.001033
92 0.0
103 0.000991
107 0.000998
117 0.000997
77 0.000998
43 0.002036
36 0.004014
49 0.002997
59 0.003981
73 0.005024
71 0.004995
65 0.004986
61 0.004988
64 0.005035
77 0.004999
86 0.005018
93 0.005034
103 0.005021
111 0.005979
115 0.006978
121 0.007979
118 0.006001
78 0.003975
46 0.004987
46 0.005048
60 0.004987
78 0.005029
92 0.005022
87 0.005017
79 0.004046
74 0.004988
88 0.004024
95 0.003989
103 0.000998
116 0.00094
124 0.0
137 0.0
146 0.000999
129 0.0
77 0.0
70 0.000986
73 0.001012
94 0.000998
110 0.000997
124 0.000997
118 0.003018
115 0.003991
117 0.005993
126 0.006031
138 0.006014
147 0.005962
156 0.007024
162 0.007979
173 0.00791
142 0.005992
104 0.006002
87 0.004984
94 0.00602
112 0.004988
136 0.004025
146 0.003989
139 0.004156
129 0.004036
132 0.004019
145 0.002981
150 0.004044
158 0.002041
172 0.001039
180 0.000997
172 0.002048
129 0.002077
96 0.002961
100 0.001996
114 0.001971
121 0.00401
143 0.005996
144 0.006969
132 0.006035
131 0.004987
136 0.00503
142 0.005021
156 0.005023
166 0.003025
170 0.003039
179 0.002028
144 0.000997
105 0.0
87 0.0
104 0.001039
112 0.00104
133 0.0
138 0.0
128 0.0
119 0.0
120 0.0
132 0.0
141 0.0
148 0.000998
158 0.000966
162 0.000997
166 0.000998
107 0.000953
85 0.001979
91 0.002947
106 0.002993
117 0.002992
135 0.002962
131 0.002981
121 0.002993
121 0.002942
125 0.002954
137 0.004026
148 0.00396
153 0.004986
160 0.004334
171 0.00502
141 0.007016
88 0.006996
84 0.006972
88 0.007034
100 0.007085
121 0.007016
132 0.00604
129 0.005986
115 0.005044
118 0.004955
123 0.004987
141 0.005034
152 0.005984
167 0.004993
178 0.005983
169 0.005024
115 0.005979
78 0.005984
81 0.006015
105 0.005071
124 0.005023
151 0.005032
141 0.001992
134 0.00299
132 0.000997
146 0.000997
157 0.0
170 0.0
187 0.001996
196 0.001995
188 0.001957
110 0.001995
95 0.002029
104 0.004018
125 0.004992
144 0.006007
159 0.007032
153 0.007962
138 0.007021
136 0.007015
142 0.00602
150 0.006963
170 0.00695
179 0.006975
191 0.00502
174 0.004023
116 0.004986
76 0.003984
92 0.002036
105 0.002065
131 0.002026
141 0.002015
133 0.002031
121 0.001973
123 0.001995
135 0.000958
147 0.000127
164 0.0
172 0.0
179 0.0
193 0.0
118 0.0
81 0.000989
83 0.001996
94 0.003032
113 0.002993
135 0.003012
134 0.005019
128 0.005036
121 0.004984
120 0.005034
135 0.005984
145 0.006015
155 0.00603
174 0.005983
188 0.006036
176 0.006033
94 0.006032
73 0.005968
83 0.005984
102 0.006957
122 0.007014
138 0.006982
136 0.005999
119 0.006976
114 0.007019
122 0.006982
146 0.006981
163 0.00607
165 0.006982
178 0.00598
187 0.006997
139 0.005979
76 0.005119
79 0.00402
103 0.004022
134 0.003031
155 0.002992
157 0.003026
144 0.001984
138 0.001014
151 0.001023
158 0.0
172 0.001003
186 0.001994
194 0.002993
206 0.00297
163 0.00399
99 0.004041
90 0.005985
112 0.005978
128 0.005972
157 0.006024
157 0.006014
148 0.005971
141 0.007042
145 0.006935
158 0.006998
179 0.006981
187 0.007015
200 0.006021
209 0.005021
183 0.004021
103 0.002991
87 0.004029
104 0.003029
122 0.003986
142 0.00299
160 0.00399
153 0.003993
147 0.002994
150 0.001996
155 0.002992
167 0.002054
185 0.001947
195 0.001982
211 0.002042
211 0.002038
126 0.00102
94 0.0
96 0.000959
112 0.000997
138 0.000978
153 0.0
152 0.0
138 0.000975
138 0.001994
151 0.001996
162 0.001996
180 0.003025
188 0.003942
200 0.004002
204 0.004032
140 0.004987
103 0.004989
91 0.005033
107 0.005952
123 0.006039
151 0.005995
154 0.006031
141 0.006981
132 0.00703
138 0.007012
149 0.006964
163 0.007022
170 0.005022
190 0.003986
194 0.004103
179 0.001995
111 0.003989
87 0.001993
94 0.002989
120 0.002992
138 0.001995
166 0.00095
153 0.0
145 0.000997
146 0.0
156 0.000998
174 0.000999
185 0.001007
195 0.000998
215 0.001995
185 0.002994
136 0.003059
112 0.002947
138 0.002956
152 0.002981
187 0.002992
196 0.002992
184 0.003012
176 0.004022
181 0.003876
192 0.002964
207 0.005017
215 0.007011
231 0.006976
227 0.005987
174 0.007011
120 0.004934
127 0.006914
154 0.005019
182 0.006002
196 0.004986
198 0.005024
189 0.004967
183 0.004982
195 0.004996
205 0.005038
220 0.00403
232 0.003034
245 0.002021
212 0.003989
136 0.003005
132 0.002013
155 0.001982
171 0.001988
191 0.001018
207 0.0
196 0.0
188 0.000997
192 0.000992
198 0.000991
216 0.000997
222 0.000998
237 0.001055
186 0.003025
167 0.001994
129 0.00402
132 0.004039
141 0.003953
151 0.005045
158 0.005048
160 0.004989
152 0.006033
148 0.007009
154 0.007015
155 0.006981
161 0.006017
168 0.007026
172 0.006981
178 0.007013
166 0.006609
129 0.004974
125 0.005968
137 0.002999
142 0.00503
156 0.001996
162 0.001983
160 0.001995
157 0.001996
155 0.002035
158 0.000997
165 0.002029
173 0.000997
177 0.002008
182 0.002039
186 0.001996
161 0.002971
135 0.001021
137 0.001055
151 0.000964
160 0.001047
175 0.0
170 0.0
165 0.0
164 0.0
167 0.000956
175 0.0
183 0.0
182 0.0
187 0.000997
187 0.0
190 0.001008
189 0.000962
167 0.000967
147 0.000998
159 0.0
177 0.000998
191 0.004021
203 0.003991
200 0.004027
186 0.005871
186 0.007924
193 0.007916
207 0.007032
216 0.007028
222 0.006978
225 0.006997
231 0.007979
234 0.006309
240 0.005984
180 0.005973
146 0.005986
139 0.005967
147 0.005977
159 0.006016
164 0.00619
170 0.005997
166 0.004962
161 0.00501
161 0.006152
167 0.005032
171 0.006987
177 0.004979
179 0.005023
184 0.004977
186 0.005021
188 0.004166
191 0.002029
175 0.003026
139 0.0
141 0.0
146 0.000998
155 0.000997
165 0.000998
168 0.001995
162 0.003008
154 0.003043
159 0.002967
162 0.005987
168 0.007935
171 0.006998
173 0.007943
178 0.007951
180 0.007979
183 0.007035
180 0.005951
143 0.005983
134 0.005027
140 0.006034
155 0.00503
163 0.005027
170 0.004014
160 0.00396
157 0.003017
155 0.001989
161 0.002012
168 0.001009
174 0.002021
178 0.001035
182 0.0
245 0.002054
224 0.001997
178 0.002037
151 0.002038
167 0.00303
193 0.003949
217 0.004068
231 0.005971
221 0.005985
206 0.006031
207 0.006035
222 0.006031
237 0.005994
192 0.005984
197 0.006014
203 0.005967
206 0.005923
180 0.005998
153 0.005985
147 0.005965
162 0.005952
171 0.004985
187 0.005977
190 0.006014
183 0.003988
177 0.004994
179 0.003995
184 0.00502
190 0.005057
196 0.005034
202 0.004987
204 0.005018
196 0.003056
152 0.004022
142 0.004018
150 0.004029
161 0.004024
173 0.00296
182 0.002975
178 0.003019
168 0.002992
170 0.004017
172 0.002975
178 0.004031
184 0.002986
188 0.003992
191 0.004023
192 0.004989
168 0.003158
133 0.000998
133 0.001995
146 0.0
151 0.002029
163 0.0
161 0.0
154 0.0
150 0.002008
154 0.002992
160 0.002978
160 0.005044
162 0.004985
167 0.004986
172 0.00504
173 0.005018
189 0.004956
113 0.006035
99 0.005985
116 0.006022
144 0.005952
162 0.004013
177 0.005984
166 0.006037
155 0.006015
153 0.005034
156 0.004988
167 0.004991
179 0.004003
185 0.005015
196 0.004021
202 0.001996
205 0.002001
148 0.001046
121 0.001011
133 0.001052
156 0.001962
167 0.001029
184 0.000999
178 0.001992
167 0.001049
164 0.002026
173 0.001019
182 0.0
190 0.0
197 0.0
206 0.0
208 0.0
214 0.0
166 0.0
128 0.0
124 0.000999
147 0.0
157 0.000998
178 0.001002
179 0.000998
169 0.000998
163 0.000998
171 0.000997
182 0.000998
189 0.001964
200 0.001982
208 0.002031
209 0.001996
219 0.002946
190 0.001963
129 0.002991
117 0.002988
130 0.002993
149 0.003564
163 0.004036
171 0.00504
170 0.005493
159 0.005992
158 0.005983
169 0.005978
179 0.005984
191 0.006993
198 0.006016
205 0.004987
213 0.003035
212 0.002991
176 0.002983
110 0.002998
112 0.004021
130 0.00304
144 0.003989
163 0.004021
169 0.002992
159 0.003039
152 0.003025
157 0.001046
162 0.0
168 0.002019
178 0.000997
186 0.000965
194 0.000998
201 0.000968
151 0.001012
113 0.000977
108 0.000992
122 0.001005
146 0.000997
171 0.001796
176 0.001957
159 0.002993
150 0.002991
150 0.002992
162 0.002993
165 0.002937
168 0.003022
179 0.003962
193 0.00409
188 0.004956
145 0.005006
92 0.005032
101 0.004972
114 0.004978
135 0.005019
153 0.006979
146 0.006988
131 0.00697
131 0.006978
132 0.006955
139 0.006982
151 0.006949
170 0.006981
173 0.007944
179 0.005984
137 0.00698
92 0.005986
93 0.006922
115 0.007979
131 0.00795
163 0.006017
165 0.003021
151 0.003121
139 0.001996
147 0.002026
156 0.00104
169 0.001006
175 0.00104
182 0.000998
148 0.000955
118 0.0
93 0.000999
112 0.000997
126 0.000998
156 0.001975
172 0.002956
169 0.001994
164 0.002958
163 0.002972
175 0.002942
179 0.002994
190 0.002993
202 0.002952
186 0.002962
122 0.002939
90 0.002958
97 0.00399
119 0.005019
151 0.005024
161 0.005055
143 0.004993
138 0.005006
145 0.005984
152 0.006981
156 0.006023
169 0.00594
174 0.006982
176 0.003022
117 0.003991
77 0.004094
82 0.002989
102 0.003049
127 0.002027
133 0.00299
122 0.002022
113 0.003027
110 0.002001
123 0.002071
134 0.002067
142 0.002058
150 0.002003
151 0.00103
81 0.00204
57 0.0
61 0.0
78 0.001996
94 0.0
110 0.0
104 0.000998
90 0.001949
90 0.002994
96 0.003029
100 0.003026
106 0.003959
110 0.003993
115 0.004031
44 0.003986
18 0.003999
20 0.004023
29 0.004021
56 0.005698
74 0.006025
66 0.006006
56 0.006015
56 0.005976
56 0.005939
74 0.006985
78 0.007015
89 0.005979
100 0.005982
71 0.004975
15 0.004002
14 0.005987
30 0.003984
49 0.004997
74 0.003996
68 0.003989
59 0.004004
59 0.003994
65 0.003989
78 0.003023
87 0.001959
102 0.000992
117 0.0
123 0.0
59 0.0
25 0.0
23 0.0
36 0.001947
54 0.0
72 0.001992
71 0.0
55 0.000966
56 0.0
66 0.0
84 0.0
89 0.00198
102 0.00295
110 0.002992
123 0.00399
123 0.005039
54 0.004983
24 0.006015
27 0.007979
52 0.004992
71 0.004988
84 0.00502
78 0.004985
67 0.004978
73 0.005027
87 0.004991
91 0.004986
102 0.004986
110 0.005036
123 0.005036
131 0.005984
139 0.005017
99 0.005986
40 0.005031
41 0.003992
61 0.003009
82 0.000968
93 0.001993
99 0.0
89 0.000984
81 0.0
94 0.0
102 0.000998
112 0.001998
127 0.002005
135 0.002013
143 0.002005
152 0.001997
162 0.001959
102 0.004018
65 0.004036
68 0.004991
96 0.005019
112 0.004961
134 0.004954
134 0.005003
123 0.006966
120 0.007946
128 0.00505
138 0.005038
152 0.004976
169 0.00303
176 0.001042
186 0.001996
196 0.002006
171 0.0
115 0.000997
100 0.000989
115 0.00104
140 0.00202
157 0.001996
177 0.001957
164 0.002019
158 0.001916
161 0.003037
173 0.004026
196 0.004982
219 0.005033
236 0.005032
245 0.007015
223 0.007028
171 0.007029
132 0.007019
151 0.006963
163 0.007031
183 0.006963
207 0.004979
204 0.00502
191 0.004035
187 0.004
194 0.005017
206 0.004041
214 0.003037
228 0.003085
233 0.002974
203 0.001962
145 0.002992
134 0.001995
158 0.001045
186 0.001008
206 0.000996
220 0.001012
205 0.001015
198 0.002058
204 0.0
204 0.001959
217 0.0
233 0.0
234 0.0
235 0.000998
168 0.001997
148 0.001997
156 0.003969
187 0.004027
207 0.00399
228 0.004038
227 0.004019
202 0.004039
200 0.006031
211 0.006021
211 0.005983
228 0.006017
235 0.006014
223 0.006982
169 0.005973
156 0.006976
166 0.003987
195 0.002016
217 0.001961
160 0.0
220 0.001
212 0.0
207 0.002989
218 0.002995
224 0.003022
229 0.005032
186 0.005035
170 0.006166
145 0.007031
146 0.007016
152 0.005023
163 0.005983
173 0.005039
175 0.005019
169 0.004984
166 0.005008
164 0.005035
168 0.002964
170 0.005032
174 0.004008
175 0.004982
143 0.002999
126 0.002992
132 0.002993
144 0.00301
158 0.002992
163 0.002
157 0.000993
150 0.000986
149 0.0
155 0.0
156 0.0
159 0.0
165 0.0
157 0.00197
129 0.001995
126 0.001997
137 0.001996
142 0.001953
148 0.001862
151 0.004036
145 0.003991
142 0.003991
145 0.004043
148 0.00499
150 0.004989
155 0.004988
157 0.005029
161 0.004993
132 0.004987
116 0.004987
111 0.006981
120 0.006975
126 0.006007
135 0.00703
138 0.006981
132 0.00603
131 0.005025
137 0.002011
143 0.004001
150 0.002968
150 0.004023
159 0.0
165 0.0
155 0.0
90 0.000997
74 0.0
84 0.000988
110 0.001995
130 0.001996
133 0.003022
118 0.002994
107 0.002993
109 0.003004
123 0.003979
136 0.004996
152 0.006032
152 0.005998
162 0.00605
166 0.00603
95 0.005985
73 0.006982
77 0.007978
97 0.007966
123 0.007985
142 0.006018
138 0.006041
120 0.003895
121 0.002989
125 0.001997
138 0.002036
149 0.001991
153 0.002028
161 0.001032
167 0.001055
150 0.0
82 0.002033
53 0.0
58 0.002054
86 0.002029
104 0.0
125 0.004029
118 0.004985
105 0.006027
103 0.005885
112 0.005985
122 0.005921
134 0.006032
145 0.00696
151 0.00798
159 0.006028
163 0.007195
127 0.005978
56 0.005987
51 0.005981
81 0.005002
98 0.007026
119 0.006187
126 0.007023
111 0.004998
96 0.007023
96 0.007029
104 0.006018
121 0.005028
136 0.003003
144 0.004035
147 0.002985
148 0.004017
142 0.000981
73 0.0
43 0.000997
51 0.001991
74 0.002045
87 0.002038
105 0.001034
102 0.0
88 0.000967
87 0.003036
84 0.0
98 0.002044
103 0.001011
114 0.002039
131 0.001996
136 0.001031
144 0.001044
121 0.001038
54 0.001996
47 0.0
65 0.000999
85 0.001004
115 0.002951
128 0.002948
115 0.002993
103 0.002961
109 0.00296
121 0.006004
134 0.006968
144 0.006994
154 0.006988
174 0.005981
162 0.004964
85 0.004973
72 0.00497
95 0.004974
113 0.006018
132 0.005027
146 0.004988
133 0.003989
117 0.002992
112 0.002992
131 0.001948
143 0.002043
160 0.0
173 0.0
191 0.0
137 0.0
88 0.0
73 0.0
93 0.0
109 0.001039
136 0.000998
148 0.000998
136 0.000997
125 0.000998
121 0.002027
127 0.002896
144 0.00399
157 0.003988
163 0.003991
179 0.003975
155 0.00495
82 0.004993
70 0.004976
94 0.005028
120 0.005993
133 0.005952
141 0.005972
132 0.005972
118 0.006028
117 0.006981
120 0.007014
137 0.006009
150 0.006065
156 0.005979
170 0.005966
147 0.006947
90 0.003962
82 0.003989
97 0.002989
110 0.004034
127 0.004029
142 0.004043
132 0.003989
119 0.001976
128 0.002026
136 0.002035
138 0.001995
146 0.00102
157 0.0
166 0.0
145 0.0
71 0.0
63 0.0
77 0.0
100 0.002021
122 0.001974
147 0.002001
136 0.002995
115 0.003989
116 0.005028
122 0.005977
138 0.005986
149 0.007024
159 0.006983
175 0.006985
147 0.006013
116 0.007028
114 0.006979
133 0.007027
151 0.004919
167 0.004981
176 0.005015
154 0.004933
138 0.004999
139 0.004979
147 0.004956
155 0.004985
164 0.002991
168 0.003993
180 0.003053
132 0.003987
66 0.004024
66 0.004022
80 0.003997
94 0.003978
122 0.002992
116 0.001009
105 0.002992
102 0.000998
107 0.002028
117 0.00203
126 0.0
136 0.000996
148 0.000995
162 0.0
140 0.0
70 0.0
45 0.0
61 0.0
81 0.0
94 0.0
109 0.0
103 0.001007
89 0.001001
93 0.0
105 0.0
116 0.000999
131 0.000955
145 0.000969
149 0.000998
158 0.000997
158 0.001016
84 0.000997
54 0.000997
53 0.001904
77 0.002982
91 0.003024
112 0.003995
109 0.003958
94 0.004046
95 0.003957
101 0.003956
113 0.003989
124 0.003987
140 0.00299
154 0.00598
164 0.007032
168 0.00798
155 0.007979
107 0.007941
55 0.007978
68 0.005989
86 0.007013
112 0.00598
127 0.004958
122 0.003985
101 0.002971
110 0.001994
116 0.002028
132 0.001986
142 0.000978
153 0.000997
162 0.00302
168 0.001003
165 0.003036
175 0.00096
179 0.003027
109 0.002044
79 0.0
86 0.0
107 0.0
126 0.0
147 0.0
146 0.0
135 0.000965
131 0.001958
136 0.003023
150 0.003988
161 0.003955
167 0.003989
177 0.003954
189 0.003957
191 0.00399
199 0.006021
209 0.005962
190 0.006021
112 0.007016
97 0.006983
106 0.006946
124 0.005973
150 0.005027
173 0.006003
178 0.005989
168 0.00599
157 0.005984
162 0.005979
174 0.005989
185 0.004003
190 0.005026
204 0.003987
213 0.003965
213 0.003988
218 0.004021
228 0.004009
181 0.002989
127 0.004944
122 0.002989
150 0.004988
162 0.002994
190 0.004996
207 0.005
196 0.003982
183 0.004003
176 0.004
192 0.003979
201 0.001984
209 0.003086
221 0.001964
154 0.0
154 0.0
243 0.0
204 0.0
163 0.0
147 0.0
164 0.0
193 0.001008
220 0.002014
229 0.002
216 0.00296
199 0.003991
202 0.002954
214 0.004021
221 0.003043
235 0.003979
244 0.004027
249 0.004029
255 0.004952
213 0.005019
168 0.005019
152 0.005052
164 0.006002
189 0.005984
214 0.006978
223 0.007979
219 0.004999
195 0.005009
193 0.003989
199 0.003027
213 0.003022
221 0.002043
228 0.0
235 0.002039
242 0.0
178 0.00199
138 0.002042
133 0.0
146 0.0
154 0.0
166 0.0
170 0.0
166 0.0
159 0.0
155 0.0
160 0.0
166 0.0
168 0.0
173 0.000974
177 0.000985
177 0.002029
159 0.001947
124 0.004046
124 0.004988
138 0.005007
146 0.004987
159 0.006984
161 0.006018
154 0.006936
148 0.007977
146 0.007918
150 0.006981
156 0.006974
159 0.004997
163 0.006978
168 0.00498
167 0.00603
156 0.004985
118 0.004009
114 0.003977
127 0.003972
134 0.003996
146 0.004076
149 0.003989
145 0.002992
137 0.00204
135 0.003014
141 0.000997
146 0.003026
150 0.002014
151 0.001993
155 0.002042
155 0.002041
146 0.00198
117 0.0
88 0.002026
107 0.002962
126 0.004018
136 0.00399
154 0.003943
134 0.004059
125 0.003966
121 0.004021
128 0.00399
147 0.004035
160 0.004034
165 0.003825
169 0.004035
169 0.00402
166 0.002968
135 0.004985
89 0.006003
65 0.006942
77 0.006976
94 0.006964
118 0.005983
136 0.002997
129 0.004987
99 0.001991
95 0.002003
102 0.000995
113 0.0
123 0.0
133 0.0
143 0.0
146 0.0
147 0.0
91 0.002031
65 0.0
66 0.002
86 0.0
112 0.002029
133 0.00202
126 0.001965
103 0.001997
101 0.001997
116 0.002026
126 0.002992
134 0.002992
141 0.003031
150 0.001996
155 0.002034
162 0.002994
102 0.004045
71 0.004034
75 0.002992
87 0.00399
105 0.004037
128 0.004022
125 0.003836
115 0.004018
116 0.004025
125 0.003991
131 0.004022
137 0.004024
144 0.003991
149 0.004033
150 0.005981
152 0.007965
131 0.00792
86 0.007955
60 0.007007
71 0.004036
84 0.004987
102 0.002991
113 0.003989
112 0.002001
96 0.000964
93 0.001996
101 0.001963
111 0.0
120 0.0
131 0.000987
147 0.0
146 0.001044
156 0.0
168 0.0
109 0.0
57 0.002993
52 0.003029
71 0.004987
98 0.005065
108 0.005037
121 0.004996
104 0.005027
96 0.00502
106 0.005982
115 0.005954
131 0.005986
148 0.00597
149 0.005987
153 0.003992
150 0.002999
153 0.003951
152 0.003035
94 0.006052
56 0.00497
69 0.005035
95 0.00399
104 0.003023
125 0.002994
129 0.00299
109 0.003024
100 0.000965
108 0.002992
116 0.001985
123 0.002991
137 0.000764
147 0.0
145 0.000967
148 0.0
149 0.000952
110 0.0
64 0.000996
67 0.000955
78 0.0
100 0.003066
118 0.003968
130 0.003991
113 0.006018
107 0.007979
103 0.005981
122 0.007967
140 0.004907
142 0.006016
148 0.005023
145 0.003987
160 0.00402
119 0.001991
86 0.004029
80 0.002992
92 0.004046
114 0.00198
136 0.0
141 0.0
129 0.0
110 0.000999
114 0.000999
131 0.002049
147 0.003024
154 0.003011
159 0.005021
171 0.005002
168 0.005019
101 0.006986
56 0.006985
66 0.006969
94 0.007967
108 0.003995
123 0.005016
123 0.00296
106 0.002995
104 0.002993
112 0.001022
123 0.000939
133 0.000999
143 0.000975
149 0.001028
158 0.0
137 0.002031
81 0.0
53 0.002036
76 0.000998
90 0.000999
118 0.001997
127 0.001997
118 0.003087
105 0.005
103 0.005998
105 0.006018
113 0.006008
119 0.006975
123 0.006997
135 0.006999
142 0.006983
115 0.004974
55 0.002003
47 0.002006
62 0.000997
76 0.002007
87 0.000994
96 0.000996
82 0.001997
64 0.001978
76 0.002044
92 0.001049
98 0.001997
107 0.002038
107 0.0
114 0.001996
120 0.002947
88 0.004041
38 0.004011
24 0.003991
35 0.004019
51 0.003958
65 0.00399
75 0.006007
66 0.00698
56 0.006981
62 0.006953
70 0.006982
78 0.006979
87 0.00699
94 0.007012
108 0.003965
112 0.004987
52 0.003986
32 0.001995
37 0.002093
60 0.0
82 0.002032
104 0.0
98 0.002025
84 0.0
82 0.000997
88 0.002001
103 0.000998
112 0.000984
116 0.000988
126 0.001019
138 0.001998
79 0.001909
28 0.001994
30 0.00202
48 0.001965
59 0.00199
78 0.004008
77 0.00404
65 0.004037
56 0.003947
65 0.004028
77 0.004021
86 0.004015
101 0.003959
105 0.003833
117 0.004039
120 0.004036
70 0.005022
9 0.006011
4 0.006015
22 0.006963
36 0.006952
58 0.006981
62 0.006982
54 0.006947
39 0.006975
53 0.005986
59 0.004984
72 0.002995
74 0.005019
89 0.003185
99 0.003996
105 0.001986
113 0.00399
59 0.003982
16 0.003988
3 0.002981
25 0.001995
38 0.001995
59 0.002041
63 0.001988
47 0.0
42 0.002066
43 0.0
52 0.0
64 0.0
80 0.000999
77 0.000999
94 0.001004
102 0.000998
108 0.002009
108 0.003
45 0.003002
11 0.002997
18 0.003006
33 0.002992
51 0.005977
68 0.005994
60 0.006051
46 0.006978
52 0.007977
55 0.006982
67 0.00698
83 0.004986
93 0.00496
104 0.001993
114 0.002932
129 0.001973
136 0.002977
78 0.001956
30 0.001995
34 0.0
48 0.002046
76 0.0
103 0.001978
112 0.002046
104 0.001995
97 0.001994
97 0.000967
104 0.0
114 0.001995
132 0.003
138 0.002982
151 0.004017
161 0.006002
154 0.006797
76 0.006978
47 0.007011
50 0.006967
77 0.005983
95 0.005976
112 0.006944
114 0.005936
106 0.00595
100 0.005017
113 0.004986
125 0.001991
131 0.002033
144 0.000979
153 0.0
168 0.000998
161 0.002023
115 0.001963
54 0.002028
51 0.001995
69 0.002055
88 0.001989
105 0.001963
115 0.002991
104 0.002989
98 0.002941
101 0.003037
109 0.002831
120 0.003031
132 0.002973
142 0.002944
158 0.003
156 0.002951
82 0.001994
37 0.00399
39 0.006047
57 0.005011
79 0.00602
96 0.006017
102 0.005984
87 0.006498
78 0.007032
85 0.005987
93 0.007027
110 0.004991
121 0.004952
127 0.005063
138 0.002985
111 0.003003
64 0.002989
34 0.00199
45 0.003035
66 0.001983
90 0.003001
101 0.002001
87 0.001046
79 0.0
79 0.0
91 0.0
108 0.000978
118 0.001992
133 0.003991
151 0.00399
129 0.004034
52 0.003996
29 0.003981
35 0.004042
57 0.003973
77 0.00399
86 0.00404
75 0.003991
68 0.003996
66 0.004934
71 0.005011
83 0.005036
89 0.00698
101 0.006994
113 0.00698
78 0.00697
33 0.006981
1 0.007014
3 0.006977
22 0.006982
50 0.004968
61 0.006981
55 0.004986
41 0.003984
39 0.002006
52 0.002007
67 0.0
68 0.0
79 0.0
89 0.0
96 0.0
91 0.0
49 0.0
0 0.001966
0 0.003988
5 0.002963
25 0.002983
37 0.003034
32 0.003957
23 0.004056
14 0.00494
19 0.005985
37 0.006015
47 0.005983
55 0.00798
65 0.004985
74 0.003971
79 0.003971
52 0.002994
6 0.003059
49 0.002982
57 0.003094
64 0.002988
78 0.002988
81 0.002996
74 0.001985
72 0.002989
73 0.0
80 0.001967
88 0.002044
92 0.002029
98 0.001995
102 0.001994
107 0.0
94 0.001957
61 0.002027
54 0.004008
59 0.003993
70 0.004982
80 0.005932
83 0.006954
79 0.005033
75 0.004983
78 0.005983
83 0.004986
90 0.003988
98 0.003034
107 0.001993
112 0.002987
120 0.001044
121 0.002011
93 0.001999
58 0.0
54 0.001997
57 0.0
71 0.0
77 0.0
83 0.0
79 0.0
72 0.000994
75 0.002982
79 0.003027
87 0.002016
95 0.00399
100 0.003991
108 0.00402
111 0.003989
117 0.003948
98 0.005019
72 0.004958
0 0.005037
6 0.005024
16 0.005032
33 0.003996
44 0.003976
41 0.005978
32 0.006029
33 0.007948
44 0.007966
60 0.004038
70 0.005982
83 0.004034
99 0.004003
101 0.004002
114 0.003993
123 0.003983
107 0.003977
33 0.003984
17 0.003002
28 0.003978
36 0.003989
59 0.001992
75 0.00304
68 0.002992
56 0.001996
54 0.001944
62 0.002948
74 0.0
92 0.000998
104 0.0
119 0.000963
122 0.000971
136 0.001036
140 0.002025
99 0.003999
48 0.002993
53 0.002993
64 0.003963
90 0.002993
109 0.004047
105 0.002989
91 0.005987
88 0.005985
99 0.00597
114 0.005986
125 0.006992
142 0.005998
158 0.006968
164 0.007029
173 0.00798
138 0.007012
77 0.007976
55 0.006979
64 0.007968
84 0.003957
106 0.003969
113 0.002989
108 0.002026
100 0.002943
106 0.001941
123 0.002048
133 0.001995
150 0.0
161 0.002061
172 0.001
175 0.001993
112 0.002048
69 0.002028
48 0.001992
60 0.001993
85 0.002026
104 0.0
116 0.000998
104 0.001939
96 0.002005
99 0.001996
112 0.002993
123 0.002996
136 0.003962
153 0.004989
160 0.004948
170 0.004988
109 0.004955
64 0.004982
53 0.004987
66 0.006984
73 0.006945
100 0.006981
114 0.006982
105 0.00696
92 0.007949
93 0.005947
105 0.006981
121 0.003166
134 0.005989
148 0.001991
167 0.002006
179 0.001993
135 0.002956
71 0.0
61 0.0
70 0.000998
78 0.000995
111 0.0
120 0.000939
116 0.0
115 0.0
115 0.001985
120 0.000997
140 0.0
150 0.001966
169 0.001907
178 0.002017
161 0.002038
99 0.00204
61 0.00399
70 0.00399
88 0.00402
106 0.005046
133 0.005984
126 0.005987
116 0.006039
119 0.005004
128 0.005999
136 0.005979
153 0.005022
172 0.004151
174 0.004003
119 0.003978
64 0.00398
50 0.002027
60 0.00303
72 0.000978
92 0.003028
106 0.003034
96 0.002998
82 0.003037
78 0.0
80 0.0
89 0.000999
101 0.002
110 0.003042
118 0.002991
47 0.004018
14 0.005019
6 0.005977
18 0.00599
38 0.004035
55 0.003979
52 0.005991
52 0.003996
46 0.006031
48 0.003987
61 0.006032
73 0.006029
84 0.005986
103 0.006026
114 0.006014
87 0.003971
17 0.002069
0 0.002047
2 0.001003
24 0.001009
38 0.001003
48 0.001026
42 0.001023
35 0.0
41 0.0
52 0.0
64 0.001004
84 0.002992
101 0.004042
106 0.005009
97 0.004986
46 0.007784
18 0.005936
13 0.007792
26 0.007028
40 0.00606
66 0.006017
67 0.006025
53 0.005025
54 0.00298
62 0.005037
73 0.003349
90 0.002942
103 0.001997
125 0.000989
118 0.00192
90 0.000999
28 0.0
17 0.0
28 0.001001
55 0.000999
67 0.001009
72 0.000998
61 0.002039
58 0.000988
66 0.002961
75 0.002958
91 0.004038
104 0.003945
117 0.004984
132 0.005038
129 0.005026
79 0.005017
18 0.004972
12 0.004982
31 0.00502
50 0.004998
61 0.006979
72 0.006959
61 0.006951
59 0.00698
72 0.00693
77 0.006931
86 0.004999
107 0.007019
122 0.004993
139 0.006
151 0.005986
125 0.005952
51 0.004957
25 0.002993
31 0.003992
57 0.001998
85 0.000967
97 0.0
89 0.0
86 0.0
91 0.0
102 0.000999
114 0.000998
137 0.000997
155 0.001993
162 0.00198
175 0.004015
183 0.005953
153 0.006033
76 0.00601
66 0.006977
73 0.005995
91 0.007015
120 0.006012
132 0.005968
126 0.005985
117 0.005985
118 0.004987
131 0.00199
144 0.001994
164 0.0
179 0.000987
188 0.0
206 0.001005
181 0.002
136 0.001997
102 0.002025
112 0.001999
128 0.002007
161 0.001995
171 0.001996
161 0.001996
150 0.002947
156 0.003994
168 0.004988
180 0.004991
194 0.005027
206 0.006972
220 0.007975
219 0.007974
160 0.005996
104 0.006958
91 0.004956
105 0.004
119 0.002025
147 0.002012
148 0.002086
141 0.0
132 0.001014
141 0.0
152 0.000995
162 0.000998
183 0.002007
193 0.001974
216 0.001995
182 0.002003
118 0.001965
95 0.001996
97 0.001995
111 0.002029
146 0.001982
153 0.003987
150 0.005037
138 0.005998
143 0.006017
154 0.005981
165 0.006017
182 0.005982
200 0.00503
205 0.00499
202 0.006978
136 0.005993
93 0.00698
84 0.004986
99 0.004956
128 0.003981
155 0.004981
162 0.002989
151 0.00298
142 0.002993
144 0.002992
157 0.00299
174 0.001997
185 0.002992
201 0.001985
210 0.002989
212 0.001944
126 0.002031
96 0.002014
99 0.003006
109 0.001991
141 0.0
164 0.0
162 0.001034
152 0.001995
146 0.002
148 0.001996
168 0.002949
182 0.003053
198 0.002939
212 0.00399
209 0.00399
162 0.004954
100 0.004983
95 0.005988
114 0.006968
137 0.005991
158 0.003991
154 0.003017
141 0.002988
144 0.002993
151 0.001975
166 0.001961
169 0.002073
182 0.000981
200 0.002996
181 0.001014
111 0.001983
70 0.002026
75 0.0
100 0.0
115 0.0
124 0.0
118 0.0
109 0.0
108 0.0
124 0.0
135 0.0
152 0.000998
166 0.001028
188 0.000998
134 0.001023
80 0.000984
51 0.000998
56 0.000998
74 0.000964
105 0.002996
113 0.00399
107 0.006013
98 0.006991
104 0.006026
113 0.006974
135 0.006004
146 0.006014
160 0.007973
177 0.00597
165 0.007987
82 0.007978
61 0.00598
56 0.005984
80 0.003983
100 0.00399
128 0.0
117 0.0
113 0.0
109 0.000997
116 0.001999
124 0.002992
146 0.003048
162 0.002997
177 0.002961
154 0.002859
94 0.003007
66 0.004969
73 0.00502
95 0.005039
121 0.004891
138 0.00596
134 0.005992
124 0.006018
121 0.006975
130 0.007979
148 0.005988
159 0.007962
176 0.005987
188 0.004999
153 0.004984
69 0.004987
54 0.003989
66 0.001996
90 0.001994
118 0.002993
120 0.0
108 0.001994
103 0.001989
105 0.001994
117 0.0
129 0.0
151 0.0
168 0.0
179 0.0
156 0.0
68 0.001993
40 0.001995
41 0.001995
52 0.002031
80 0.002948
98 0.003039
90 0.003041
83 0.003987
82 0.005058
86 0.006982
108 0.006931
130 0.005959
138 0.005999
157 0.004985
173 0.006982
140 0.005028
67 0.00698
44 0.00499
51 0.006982
77 0.004986
100 0.004968
121 0.002997
115 0.004965
97 0.00297
92 0.003009
100 0.002992
120 0.002992
143 0.00298
154 0.00296
174 0.002027
185 0.002993
132 0.003086
73 0.004978
55 0.001998
66 0.005017
91 0.001923
122 0.002032
132 0.002996
129 0.002984
116 0.001998
117 0.0
134 0.0
155 0.0
174 0.001995
183 0.000995
196 0.000998
167 0.000997
83 0.000935
68 0.004041
75 0.005018
104 0.004973
138 0.004979
141 0.004877
126 0.005032
122 0.005002
128 0.004987
142 0.005014
155 0.00499
173 0.004945
186 0.006025
202 0.005986
179 0.007043
94 0.006973
58 0.007979
56 0.007956
69 0.006984
101 0.007049
126 0.004001
124 0.004987
108 0.002
111 0.00199
120 0.001996
137 0.002991
158 0.002007
173 0.001994
189 0.003005
194 0.000969
135 0.001984
75 0.003027
53 0.003052
58 0.001956
78 0.0
105 0.0
117 0.003038
109 0.003991
104 0.002992
107 0.00399
115 0.003037
139 0.004023
158 0.004988
171 0.006064
199 0.005951
212 0.006016
178 0.005986
94 0.005937
72 0.005934
83 0.005986
107 0.005997
125 0.006
143 0.005938
135 0.006979
128 0.004989
125 0.007979
133 0.004986
148 0.006962
175 0.007003
188 0.006982
201 0.006982
218 0.003966
197 0.006929
108 0.004987
81 0.006977
86 0.004002
121 0.003987
144 0.003986
166 0.003022
155 0.002985
132 0.001985
136 0.002958
146 0.002979
165 0.000997
182 0.002986
201 0.0
213 0.000995
202 0.0
145 0.00101
67 0.002012
65 0.00295
84 0.004036
104 0.003825
135 0.003991
135 0.004988
118 0.005962
114 0.006991
120 0.007008
132 0.004987
144 0.007014
161 0.003999
183 0.002982
194 0.002993
184 0.002996
92 0.003031
57 0.003004
56 0.004012
78 0.002026
98 0.0
131 0.0
141 0.0
134 0.001073
136 0.001048
147 0.000997
156 0.002993
170 0.003993
190 0.005018
202 0.005033
215 0.00501
211 0.005028
121 0.006014
71 0.006028
69 0.004973
92 0.003967
127 0.003996
147 0.00404
157 0.004126
151 0.005021
150 0.001995
153 0.004022
166 0.00201
182 0.004021
201 0.004034
212 0.004029
228 0.003024
190 0.0
135 0.002999
98 0.00101
113 0.0
131 0.002045
182 0.001962
203 0.000855
204 0.0
195 0.002971
199 0.003993
220 0.005035
238 0.005994
255 0.003999
255 0.005016
255 0.004984
255 0.003996
254 0.003938
169 0.006981
139 0.002959
147 0.003943
169 0.001995
185 0.002961
199 0.002027
176 0.000952
164 0.001991
164 0.0
173 0.0
183 0.000997
200 0.0
207 0.0
224 0.0
231 0.003041
188 0.00304
91 0.00399
74 0.004952
91 0.004941
122 0.00397
142 0.004013
154 0.004996
139 0.006995
134 0.00699
136 0.006996
154 0.007015
162 0.007014
181 0.007985
202 0.00399
215 0.006018
224 0.003029
137 0.00096
90 0.000855
80 0.0
105 0.0
129 0.0
169 0.000999
169 0.000966
154 0.000947
147 0.002028
150 0.0
166 0.002042
184 0.0
201 0.003023
219 0.00203
231 0.002979
195 0.002035
132 0.002993
88 0.002931
99 0.001015
119 0.000998
156 0.000998
177 0.000998
169 0.002978
148 0.004037
150 0.005012
160 0.004985
168 0.005937
188 0.003946
203 0.004936
224 0.003995
178 0.003989
112 0.004016
68 0.003993
75 0.003998
95 0.003986
128 0.006036
145 0.004984
138 0.006025
121 0.00602
123 0.005998
136 0.00502
146 0.004002
164 0.003024
186 0.0
199 0.003023
183 0.0
80 0.0
45 0.0
43 0.0
68 0.0
93 0.0
119 0.0
117 0.0
100 0.001004
99 0.000998
109 0.000997
130 0.001992
145 0.001995
159 0.002039
178 0.001995
179 0.001995
125 0.001996
42 0.001999
30 0.002002
42 0.002984
62 0.003002
101 0.002992
106 0.004019
92 0.003991
81 0.004012
86 0.003988
98 0.003995
119 0.004984
131 0.004984
154 0.005984
158 0.00698
131 0.005987
46 0.005971
23 0.00697
38 0.005984
71 0.007982
96 0.005985
108 0.007978
87 0.007973
83 0.007972
97 0.007952
107 0.007965
124 0.00798
147 0.004982
162 0.007026
182 0.004983
134 0.004003
65 0.001993
15 0.002994
24 0.002992
40 0.002032
71 0.003
80 0.003039
76 0.0
65 0.002054
66 0.0
85 0.0
106 0.0
118 0.0
141 0.0
156 0.0
167 0.000998
103 0.001995
40 0.002007
3 0.001996
26 0.001995
46 0.001995
78 0.00199
85 0.002993
80 0.003991
71 0.005015
81 0.00691
93 0.006954
118 0.006966
128 0.005992
149 0.005951
170 0.007973
180 0.005001
134 0.006992
35 0.006949
18 0.006984
38 0.005984
70 0.002025
94 0.005029
111 0.001965
103 0.003995
93 0.002003
99 0.001999
116 0.001999
138 0.002011
153 0.001994
175 0.002952
200 0.001997
214 0.002191
151 0.002985
72 0.003005
46 0.001012
62 0.003055
98 0.0
126 0.0
142 0.000997
131 0.000993
126 0.000998
130 0.002002
145 0.001967
161 0.002033
179 0.002965
192 0.003989
212 0.003941
217 0.003942
144 0.004033
56 0.00399
41 0.003991
62 0.003956
96 0.003988
120 0.003945
124 0.005063
111 0.005023
107 0.00498
115 0.004957
127 0.004954
147 0.00608
170 0.006068
188 0.005986
202 0.006027
205 0.006017
122 0.00504
48 0.005983
42 0.007938
57 0.005002
77 0.00694
111 0.004984
118 0.003141
108 0.002964
104 0.001995
115 0.002993
130 0.001993
160 0.000986
184 0.002992
198 0.0
212 0.001874
176 0.001997
115 0.000998
66 0.001004
81 0.001996
110 0.002055
146 0.001963
171 0.003029
162 0.003945
144 0.00402
141 0.004036
150 0.003989
169 0.003961
179 0.004031
202 0.003988
215 0.003989
200 0.005012
98 0.004956
70 0.005984
72 0.005984
112 0.006968
128 0.005986
156 0.005954
150 0.005938
130 0.004998
124 0.007869
139 0.004978
158 0.006988
178 0.005967
192 0.006008
198 0.005984
151 0.005984
51 0.005975
29 0.003971
41 0.006031
75 0.003993
94 0.003999
96 0.003986
78 0.003971
75 0.003023
82 0.003961
98 0.004988
116 0.0
129 0.002993
144 0.0
104 0.001
4 0.000963
0 0.000993
29 0.001007
66 0.000998
104 0.002044
130 0.00282
118 0.004004
108 0.004023
116 0.004038
139 0.004659
146 0.00399
166 0.004954
185 0.00499
194 0.006951
149 0.00698
97 0.006981
0 0.006976
0 0.00698
8 0.006095
46 0.003971
65 0.005017
64 0.001991
51 0.004018
50 0.003992
59 0.004028
84 0.001969
106 0.000954
117 0.0
129 0.0
145 0.0
161 0.000949
126 0.002004
54 0.002031
48 0.002971
52 0.003028
61 0.003001
81 0.003057
92 0.004008
91 0.003847
85 0.004023
89 0.004024
100 0.003989
113 0.004021
123 0.00387
137 0.004982
147 0.004986
154 0.006945
167 0.006951
175 0.006981
170 0.006972
111 0.002993
80 0.001977
83 0.0
104 0.0
130 0.000964
139 0.0
134 0.0
129 0.0
128 0.0
136 0.002038
146 0.0
156 0.0
163 0.00098
172 0.0
180 0.0
186 0.0
191 0.0
155 0.0
104 0.0
84 0.0
88 0.001986
104 0.002992
126 0.003991
135 0.004987
128 0.005024
120 0.005985
122 0.005982
130 0.004986
145 0.002994
152 0.004101
166 0.00399
178 0.002995
185 0.002993
196 0.003003
190 0.003987
140 0.0
97 0.002958
89 0.002989
100 0.003035
122 0.001984
138 0.002988
145 0.003037
137 0.000942
134 0.002013
139 0.0
148 0.0
159 0.0
174 0.002029
180 0.001987
192 0.002051
206 0.002996
206 0.002993
149 0.002023
105 0.004866
104 0.004987
120 0.003999
134 0.003994
159 0.004977
162 0.00398
152 0.00595
148 0.006987
151 0.007015
159 0.006979
172 0.007584
185 0.004985
192 0.005987
205 0.002993
211 0.0
177 0.0
114 0.0
106 0.002044
115 0.001031
139 0.0
157 0.0
167 0.000979
160 0.002021
155 0.003033
154 0.002043
165 0.001943
171 0.002
184 0.001881
191 0.000998
204 0.002003
188 0.001011
131 0.001955
98 0.001996
97 0.001962
107 0.002994
133 0.004023
150 0.005938
147 0.006982
138 0.004032
134 0.007931
137 0.004003
147 0.002033
162 0.001952
171 0.001007
185 0.0
173 0.003008
129 0.0
78 0.001003
78 0.001996
89 0.002021
114 0.001963
130 0.004024
129 0.00599
119 0.007982
123 0.007423
154 0.007979
181 0.007979
196 0.007963
206 0.006067
207 0.003009
200 0.004937
132 0.002978
88 0.00395
86 0.003001
99 0.002991
119 0.0
135 0.000998
136 0.002035
124 0.001876
124 0.002027
136 0.001946
151 0.002032
163 0.001997
178 0.002027
190 0.001974
182 0.003027
114 0.002992
90 0.002992
85 0.003049
96 0.003067
122 0.002992
138 0.00399
133 0.00399
119 0.004038
120 0.005956
125 0.005988
135 0.004989
147 0.003988
153 0.004
158 0.002997
115 0.00399
64 0.004021
50 0.003991
60 0.001987
78 0.005036
102 0.002984
107 0.003979
96 0.003026
91 0.000958
93 0.0
100 0.0
114 0.003036
123 0.003033
140 0.002995
139 0.004988
99 0.005023
42 0.005003
40 0.004987
50 0.004959
77 0.004984
92 0.004983
95 0.004987
87 0.005963
83 0.00598
90 0.005967
101 0.007977
111 0.003023
124 0.006042
137 0.005007
141 0.005059
94 0.00502
57 0.00502
35 0.002006
48 0.002998
63 0.003046
92 0.001995
98 0.001024
92 0.0
91 0.0
96 0.0
109 0.0
122 0.002116
128 0.0
142 0.0
155 0.000966
152 0.001054
89 0.000997
63 0.000998
59 0.002904
76 0.000997
100 0.001979
121 0.003991
130 0.005985
127 0.004997
128 0.008002
139 0.005998
153 0.008023
164 0.004989
178 0.005022
187 0.005978
200 0.004021
187 0.002987
142 0.002989
91 0.001995
87 0.003026
99 0.001984
119 0.003029
133 0.0
131 0.004022
116 0.0
111 0.000961
118 0.0
130 0.0
140 0.0
151 0.0
162 0.0
170 0.002046
125 0.001997
83 0.001917
58 0.002992
70 0.005002
86 0.004986
114 0.004991
115 0.005986
108 0.005955
105 0.004999
113 0.005977
120 0.005948
135 0.005951
142 0.006977
155 0.007973
168 0.006989
174 0.00798
134 0.00798
83 0.006976
46 0.00503
53 0.002967
66 0.004047
96 0.002134
108 0.003029
104 0.001976
98 0.002953
99 0.002005
113 0.001989
131 0.002995
142 0.002994
157 0.002986
172 0.002047
181 0.000955
148 0.00304
78 0.0
65 0.000994
76 0.00196
96 0.00298
122 0.003983
140 0.005052
131 0.005962
125 0.005982
125 0.006015
131 0.006008
145 0.006011
162 0.005978
170 0.00689
180 0.005982
194 0.005016
193 0.00603
120 0.004993
71 0.003956
68 0.002969
88 0.003992
107 0.003989
137 0.00303
139 0.005033
129 0.003035
125 0.005017
131 0.00299
142 0.004035
156 0.003003
166 0.003036
181 0.003054
195 0.0
186 0.002962
127 0.0
80 0.002009
79 0.002052
97 0.001993
127 0.000998
141 0.001996
140 0.001989
130 0.001986
128 0.001959
136 0.003022
144 0.002962
158 0.004015
167 0.00399
184 0.003984
185 0.004993
134 0.006013
78 0.005946
68 0.006984
80 0.006887
107 0.007962
131 0.005979
137 0.007991
125 0.006952
119 0.007013
125 0.004952
137 0.00402
145 0.004029
163 0.003951
179 0.001995
189 0.002004
153 0.002008
91 0.003013
68 0.0
76 0.000997
102 0.001965
124 0.002959
142 0.003009
135 0.002956
125 0.00296
126 0.003016
135 0.002992
147 0.003059
162 0.003944
172 0.003009
188 0.003957
179 0.003955
133 0.005932
77 0.005983
71 0.006008
82 0.004984
114 0.00403
144 0.002948
144 0.003022
128 0.003009
125 0.003172
129 0.002945
140 0.00402
154 0.001992
166 0.002997
179 0.002989
185 0.002989
132 0.002992
91 0.002993
69 0.002988
85 0.003006
105 0.003041
138 0.0
140 0.0
125 0.0
116 0.0
121 0.0
132 0.0
142 0.002993
157 0.0
172 0.002992
172 0.0
121 0.001992
59 0.004122
51 0.004027
66 0.004024
91 0.006031
119 0.005986
122 0.005017
110 0.006031
106 0.005981
111 0.004954
126 0.005763
135 0.005984
153 0.005986
164 0.006033
176 0.006033
138 0.00692
76 0.006196
50 0.004955
59 0.004983
73 0.004978
104 0.00399
113 0.002982
104 0.003002
93 0.003006
95 0.001991
105 0.002034
121 0.002986
129 0.002992
147 0.0
158 0.0
126 0.0
70 0.000989
44 0.002038
49 0.002993
74 0.004
108 0.004979
111 0.004981
102 0.003982
100 0.00598
106 0.005994
120 0.006035
132 0.005987
149 0.006028
164 0.005945
173 0.004987
166 0.004981
124 0.004984
57 0.004987
47 0.006026
61 0.003007
84 0.004987
115 0.002992
116 0.004983
103 0.002974
96 0.002987
102 0.001984
118 0.001999
130 0.0
146 0.0
160 0.0
166 0.0
112 0.0
60 0.003008
48 0.0
62 0.0
79 0.00015
112 0.0
118 0.000998
109 0.001997
102 0.002064
110 0.002961
118 0.00207
132 0.002991
146 0.002993
155 0.00399
167 0.003956
168 0.00396
95 0.004027
34 0.003942
31 0.001994
47 0.004018
65 0.003901
91 0.003944
89 0.003977
81 0.003988
79 0.003988
84 0.003989
99 0.003955
117 0.004004
127 0.006983
142 0.006951
152 0.006994
149 0.006972
81 0.007037
34 0.007986
32 0.006975
48 0.006975
67 0.006966
96 0.006982
98 0.001944
93 0.004998
89 0.0
98 0.0
110 0.0
137 0.0
156 0.0
163 0.0
177 0.001977
188 0.002065
181 0.00403
103 0.00599
60 0.005972
53 0.006013
70 0.00601
101 0.005985
118 0.006009
121 0.005955
113 0.006031
111 0.005018
125 0.005968
136 0.004985
158 0.006934
168 0.006952
185 0.006016
205 0.006948
209 0.005982
183 0.005023
109 0.004993
91 0.004045
99 0.004958
117 0.005004
156 0.001997
174 0.005002
169 0.001985
155 0.005026
151 0.004987
156 0.004982
172 0.004986
182 0.004987
206 0.004979
221 0.002043
206 0.004984
120 0.000975
84 0.000944
89 0.000996
119 0.000957
140 0.0
164 0.0
157 0.0
147 0.0
142 0.0
153 0.0
166 0.0
182 0.0
201 0.00202
202 0.001995
118 0.001994
73 0.001
54 0.000998
71 0.004008
97 0.00399
129 0.004034
139 0.003076
131 0.003955
122 0.004019
122 0.004987
136 0.003988
155 0.004983
168 0.004955
190 0.005004
184 0.004969
95 0.004951
49 0.004989
49 0.005978
74 0.004971
103 0.006026
128 0.005795
133 0.005985
125 0.005986
124 0.005986
137 0.007951
143 0.006981
162 0.007013
181 0.003992
194 0.006988
209 0.003993
178 0.007017
85 0.002965
63 0.003032
85 0.000945
99 0.001996
145 0.0
153 0.000994
146 0.001007
137 0.000968
140 0.001047
155 0.002985
175 0.002953
185 0.003954
204 0.003983
220 0.004017
208 0.00399
132 0.004019
85 0.004949
82 0.004949
108 0.005984
131 0.007022
167 0.006987
170 0.006981
156 0.006998
149 0.005997
156 0.006939
167 0.005983
187 0.005982
199 0.004986
220 0.003982
232 0.003991
192 0.003985
103 0.004114
87 0.004014
95 0.006966
129 0.005985
155 0.006031
182 0.00399
171 0.002037
158 0.004025
157 0.001973
164 0.004037
179 0.001994
196 0.001975
208 0.002992
221 0.0
150 0.000982
104 0.0
90 0.000963
108 0.002993
139 0.000994
174 0.00296
187 0.000966
172 0.002009
158 0.00203
160 0.002027
169 0.000983
182 0.002007
197 0.002004
212 0.00302
215 0.00395
150 0.003991
87 0.005026
84 0.006037
106 0.006897
135 0.004994
158 0.006973
167 0.002999
147 0.003989
142 0.00399
147 0.002992
160 0.002992
170 0.002993
190 0.00201
196 0.002044
140 0.0
82 0.0
67 0.00101
77 0.001009
108 0.000998
130 0.001041
144 0.00299
131 0.00306
122 0.003958
124 0.002992
137 0.003028
147 0.003987
164 0.003
178 0.004053
188 0.004988
109 0.00499
69 0.00599
56 0.005983
75 0.004985
94 0.004021
126 0.004008
129 0.007031
118 0.004048
110 0.005988
112 0.003956
122 0.006017
141 0.005967
151 0.00599
167 0.006989
164 0.0
120 0.005022
64 0.00304
59 0.003992
77 0.000848
109 0.000983
126 0.0
127 0.000967
114 0.001992
111 0.001024
118 0.000963
132 0.00103
142 0.002062
157 0.001004
172 0.002963
177 0.002984
132 0.00301
87 0.003958
61 0.003896
72 0.007016
95 0.005976
115 0.008018
135 0.006985
125 0.007974
113 0.007901
115 0.00301
123 0.006979
139 0.002996
153 0.002995
162 0.0
175 0.002997
182 0.002007
150 0.002988
80 0.003021
67 0.002994
79 0.002993
98 0.002939
133 0.0
145 0.004037
134 0.003007
123 0.002
125 0.004025
132 0.0
145 0.000997
159 0.001038
170 0.002013
182 0.000967
194 0.000994
174 0.001995
98 0.002
83 0.002038
92 0.002044
119 0.001998
143 0.002003
159 0.002025
148 0.002025
135 0.001961
138 0.002
144 0.002989
156 0.003984
168 0.005987
182 0.005973
193 0.006983
156 0.007025
113 0.007978
88 0.006982
102 0.002991
117 0.004022
150 0.004039
163 0.002039
154 0.0
138 0.0
139 0.0
150 0.0
163 0.0
168 0.0
185 0.001999
196 0.001978
201 0.001994
150 0.001013
79 0.002992
72 0.002963
89 0.004008
105 0.004018
136 0.003993
142 0.003958
132 0.003956
122 0.005987
123 0.005967
132 0.006971
143 0.007036
159 0.003135
166 0.006018
177 0.003986
190 0.002992
170 0.002984
88 0.002974
70 0.002989
80 0.003956
105 0.003957
122 0.000964
139 0.0
132 0.003051
121 0.001001
122 0.003028
132 0.000942
142 0.003028
157 0.003022
167 0.003028
179 0.003998
190 0.0
197 0.000997
163 0.000998
87 0.002993
74 0.004037
85 0.004797
114 0.005026
132 0.004987
147 0.004986
139 0.004943
126 0.004966
129 0.006007
137 0.005955
152 0.006967
163 0.005954
172 0.002991
180 0.004984
191 0.003029
197 0.003048
192 0.0
123 0.000997
82 0.002023
80 0.003021
103 0.002983
120 0.002992
151 0.003004
148 0.002963
136 0.002992
125 0.003991
129 0.005017
145 0.005984
158 0.005968
167 0.004986
183 0.006023
196 0.006002
205 0.006034
176 0.005016
104 0.007014
79 0.002999
87 0.005982
105 0.002989
134 0.006027
162 0.006014
157 0.005983
136 0.005976
136 0.002986
144 0.005018
156 0.003024
167 0.004981
185 0.002997
196 0.003017
203 0.0
187 0.0
100 0.0
79 0.0
81 0.0
104 0.001996
123 0.001994
149 0.002002
143 0.003989
131 0.003991
125 0.003993
133 0.007052
141 0.005986
153 0.006981
163 0.006968
178 0.007988
187 0.004982
186 0.006982
111 0.003957
67 0.004928
67 0.003042
87 0.003
116 0.0
132 0.0
127 0.001
112 0.003032
111 0.0
118 0.003022
127 0.0
141 0.003991
157 0.000997
167 0.0
182 0.003
159 0.003014
90 0.003006
58 0.002983
67 0.002773
78 0.002985
108 0.002993
125 0.002996
123 0.002992
111 0.003025
112 0.003988
126 0.005966
137 0.003987
146 0.002992
161 0.00299
173 0.002973
181 0.0
169 0.0
100 0.002992
62 0.000952
59 0.0
80 0.0
100 0.0
128 0.0
122 0.003988
106 0.003961
103 0.004041
113 0.005863
122 0.00603
139 0.005939
146 0.005979
157 0.006024
170 0.005975
157 0.00796
92 0.004984
57 0.00595
60 0.004983
83 0.004977
111 0.006016
129 0.003001
124 0.003988
111 0.003017
111 0.002997
120 0.003011
134 0.0
145 0.000998
155 0.000993
171 0.001996
178 0.001001
147 0.001998
95 0.001997
53 0.000998
59 0.002991
73 0.003989
104 0.002996
120 0.003999
112 0.003997
99 0.00399
100 0.005983
111 0.006017
126 0.005962
140 0.005956
152 0.006938
168 0.006807
175 0.005984
130 0.006977
79 0.005004
49 0.00702
57 0.00699
71 0.006981
106 0.006969
125 0.002959
118 0.00698
108 0.002938
109 0.005003
119 0.00299
136 0.002005
147 0.002988
165 0.003006
183 0.003008
188 0.001998
121 0.0
74 0.0
59 0.0
78 0.003025
106 0.0
137 0.002996
144 0.003024
134 0.003025
125 0.003011
127 0.002991
139 0.0
153 0.0
167 0.002006
179 0.001964
190 0.00399
163 0.003991
87 0.00597
68 0.005938
77 0.005937
105 0.005961
132 0.004985
143 0.003968
128 0.002992
119 0.007008
121 0.003989
127 0.00499
142 0.002988
152 0.002991
168 0.002037
177 0.001977
132 0.003017
61 0.0
