53 0.02097
56 0.00496
66 0.004954
76 0.004952
80 0.004998
87 0.004991
94 0.004982
102 0.005956
111 0.005981
123 0.00596
136 0.006006
147 0.004988
159 0.004954
168 0.005015
174 0.004995
187 0.00499
196 0.004986
210 0.005036
218 0.004998
222 0.00496
173 0.003987
92 0.003994
55 0.003948
56 0.003947
63 0.004955
70 0.004988
77 0.004988
93 0.00495
99 0.004955
100 0.004955
103 0.004969
108 0.004987
117 0.004986
128 0.004976
137 0.003991
149 0.003986
161 0.003952
171 0.003977
181 0.003959
193 0.003958
201 0.003958
208 0.00399
213 0.003959
155 0.003989
95 0.003984
72 0.003939
71 0.004019
78 0.004026
83 0.004006
91 0.004025
102 0.004001
113 0.003989
113 0.003991
113 0.003989
120 0.003959
128 0.003959
135 0.002957
147 0.002989
156 0.002951
173 0.002959
184 0.002962
190 0.002967
201 0.003965
214 0.003988
184 0.003996
113 0.00396
71 0.003961
66 0.003997
70 0.003949
74 0.002944
77 0.002997
86 0.002987
96 0.002966
101 0.002956
103 0.003021
107 0.003024
115 0.002958
123 0.003032
135 0.003954
146 0.003968
153 0.003988
160 0.002989
170 0.002995
179 0.002992
189 0.002994
197 0.002993
192 0.002992
88 0.002992
60 0.003001
54 0.002993
53 0.002993
53 0.002962
56 0.002992
63 0.002992
77 0.002993
83 0.001995
88 0.001994
89 0.002993
92 0.001997
104 0.001986
114 0.003004
124 0.002991
136 0.002993
146 0.002992
151 0.001998
159 0.001996
165 0.001995
171 0.001995
183 0.001995
186 0.001988
137 0.001997
50 0.001995
37 0.001971
38 0.001991
36 0.001992
40 0.001996
46 0.001995
56 0.001965
65 0.000966
70 0.00097
74 0.001995
78 0.000998
84 0.000998
97 0.001995
106 0.001995
116 0.000998
124 0.001995
137 0.001995
143 0.001995
150 0.001995
156 0.001998
162 0.001995
172 0.001995
177 0.000995
131 0.000997
44 0.000997
31 0.000997
31 0.000999
36 0.000997
41 0.000998
44 0.001029
53 0.000997
62 0.001996
66 0.000997
67 0.000996
71 0.000998
78 0.001091
91 0.000998
99 0.000998
108 0.001008
116 0.000998
124 0.000997
129 0.000997
138 0.000998
145 0.00399
121 0.000996
103 0.000997
51 0.007976
36 0.000995
34 0.0
37 0.0
39 0.000996
45 0.000997
53 0.000966
64 0.000959
68 0.001019
66 0.000997
69 0.000997
76 0.000997
85 0.000998
93 0.0
101 0.0
111 0.0
119 0.0
125 0.0
131 0.0
137 0.0
112 0.0
68 0.0
38 0.0
26 0.0
23 0.000994
20 0.000958
24 0.0
35 0.000997
44 0.0
48 0.0
46 0.0
51 0.0
56 0.0
64 0.0
71 0.0
79 0.0
90 0.0
97 0.000996
104 0.0
111 0.001
121 0.0
127 0.0
132 0.0
127 0.0
83 0.00195
41 0.0
18 0.0
12 0.000967
10 0.0
10 0.00097
14 0.0
25 0.000954
34 0.0
37 0.0
40 0.0
44 0.001008
51 0.001009
61 0.000965
70 0.000972
76 0.001
85 0.001046
92 0.000998
99 0.000966
109 0.001011
118 0.001001
124 0.000999
126 0.00099
135 0.001019
138 0.016955
146 0.000997
103 0.001033
40 0.0
21 0.000995
15 0.000999
14 0.002008
13 0.000997
20 0.001995
33 0.001003
40 0.000988
44 0.000998
46 0.001996
51 0.002029
61 0.001004
69 0.000998
77 0.00204
84 0.001038
91 0.001995
102 0.001002
108 0.002052
115 0.001996
121 0.000992
128 0.000946
135 0.002027
143 0.002029
99 0.001
54 0.00101
29 0.001035
25 0.002019
25 0.002044
24 0.001982
29 0.002961
39 0.001995
49 0.001995
50 0.001965
53 0.002026
59 0.002004
65 0.001995
81 0.00099
87 0.001982
93 0.001995
102 0.002995
115 0.001992
119 0.001995
127 0.001994
133 0.002037
137 0.001995
146 0.001992
155 0.001983
142 0.001981
86 0.002027
46 0.002036
34 0.002992
31 0.003025
33 0.003023
34 0.003989
43 0.003
53 0.002035
61 0.002033
62 0.003056
66 0.002993
70 0.003025
77 0.003031
83 0.002941
96 0.002986
105 0.003026
119 0.003026
125 0.003024
132 0.002992
141 0.002007
144 0.002035
157 0.002036
164 0.002992
172 0.003023
183 0.002974
160 0.003026
99 0.002986
59 0.004023
42 0.003025
43 0.003994
42 0.004006
42 0.003026
48 0.003036
57 0.004023
69 0.003972
71 0.00399
71 0.004026
76 0.002971
82 0.002983
90 0.00399
104 0.002998
113 0.003989
120 0.00399
131 0.002981
138 0.002981
144 0.003024
151 0.004987
156 0.005008
167 0.004022
174 0.004989
183 0.004023
172 0.003984
73 0.003006
48 0.004019
44 0.005035
44 0.004032
42 0.004031
44 0.004036
52 0.00502
62 0.004987
71 0.004027
74 0.004045
77 0.004023
84 0.005039
97 0.004029
104 0.004988
113 0.004987
121 0.004032
132 0.004987
140 0.005023
148 0.005023
154 0.004988
162 0.004022
170 0.003948
177 0.004015
187 0.005023
149 0.003975
92 0.004995
62 0.00489
57 0.003977
60 0.004984
61 0.005033
66 0.006015
71 0.005978
77 0.005009
84 0.005025
86 0.004019
88 0.00497
101 0.003992
111 0.003982
122 0.004975
130 0.006027
142 0.005987
153 0.004949
159 0.005015
161 0.005984
171 0.006016
173 0.004986
184 0.004961
188 0.005034
129 0.005028
83 0.005016
70 0.006017
67 0.005019
66 0.005992
69 0.005021
69 0.004983
82 0.006041
86 0.005984
98 0.004967
95 0.004977
97 0.004966
107 0.00499
118 0.004981
127 0.005976
138 0.006022
147 0.006015
153 0.00602
157 0.006982
159 0.000967
160 0.0
174 0.006027
179 0.006016
181 0.006001
108 0.00598
80 0.006933
61 0.005981
61 0.006016
60 0.005975
63 0.006016
67 0.006016
75 0.007011
82 0.006981
90 0.00601
91 0.006
94 0.006016
99 0.005978
104 0.005983
114 0.006982
126 0.007968
134 0.007024
140 0.007028
144 0.007013
151 0.00697
158 0.006981
166 0.007012
177 0.006004
182 0.005991
152 0.005953
93 0.005987
59 0.006982
49 0.007967
50 0.007979
50 0.007015
50 0.007019
53 0.00702
61 0.007979
72 0.007945
79 0.007016
80 0.007979
87 0.007979
96 0.006941
102 0.007979
112 0.007978
120 0.007981
131 0.006939
137 0.006971
144 0.00698
150 0.007941
157 0.007933
164 0.007015
173 0.007004
118 0.006977
73 0.006944
52 0.007014
51 0.007987
52 0.007019
51 0.007024
56 0.007024
67 0.006982
72 0.007979
80 0.007976
82 0.007979
89 0.007015
100 0.007021
109 0.007022
119 0.007016
129 0.007024
137 0.007015
145 0.007011
152 0.007016
156 0.007021
162 0.007024
169 0.006015
157 0.006958
110 0.00702
65 0.007949
57 0.007931
53 0.007023
53 0.00698
49 0.007013
60 0.007014
69 0.007022
75 0.006968
79 0.006993
80 0.007024
84 0.006015
92 0.006975
107 0.005984
114 0.005987
124 0.005998
134 0.006027
139 0.006028
143 0.006028
153 0.00685
157 0.007019
162 0.00702
165 0.007016
136 0.00601
78 0.007029
53 0.006017
46 0.006018
44 0.006018
40 0.005978
41 0.00602
49 0.006015
61 0.007017
68 0.006016
69 0.006017
72 0.006016
80 0.006019
92 0.006032
100 0.006027
112 0.006023
119 0.006021
124 0.006024
125 0.006016
134 0.006017
138 0.006014
145 0.005011
156 0.005019
164 0.005026
169 0.005018
129 0.005983
69 0.005994
49 0.005988
44 0.006031
40 0.006024
37 0.006009
36 0.00598
43 0.006016
49 0.006019
57 0.004987
59 0.005024
63 0.004992
72 0.004988
85 0.005028
94 0.005028
100 0.005034
108 0.004989
116 0.006027
122 0.006029
130 0.004988
138 0.005023
145 0.00504
152 0.004989
157 0.005032
165 0.004989
112 0.004987
60 0.004987
47 0.005018
47 0.000996
45 0.0
41 0.004987
46 0.004951
53 0.003988
63 0.003975
68 0.00595
71 0.003989
76 0.005956
91 0.003989
103 0.004024
112 0.005036
118 0.003991
122 0.004954
128 0.004988
135 0.003985
145 0.005024
154 0.00502
161 0.004988
168 0.004989
168 0.004988
100 0.004029
67 0.003992
57 0.00399
55 0.004041
53 0.004002
49 0.004032
51 0.003936
62 0.003004
71 0.003022
77 0.00399
79 0.004023
84 0.003998
101 0.002991
108 0.00395
115 0.002994
124 0.003028
133 0.00399
140 0.002993
146 0.003951
155 0.003957
163 0.003991
170 0.00296
176 0.003001
182 0.002992
148 0.004024
100 0.004031
68 0.003992
63 0.003945
61 0.002994
60 0.002993
58 0.003029
65 0.002989
73 0.002961
80 0.002992
79 0.00302
81 0.002976
91 0.002978
99 0.004035
109 0.002992
119 0.004023
131 0.002994
143 0.001995
146 0.001982
156 0.003001
159 0.002028
165 0.002959
173 0.002994
179 0.002991
195 0.002993
204 0.001994
151 0.001995
98 0.002951
73 0.002953
67 0.001993
68 0.001945
65 0.00197
65 0.001962
68 0.001996
77 0.002946
85 0.00296
92 0.002963
95 0.00305
100 0.001989
111 0.001993
119 0.002042
128 0.002025
136 0.002002
144 0.001987
154 0.002037
160 0.001995
167 0.00196
173 0.002026
186 0.001995
194 0.002045
170 0.000998
104 0.001001
77 0.000998
73 0.000995
73 0.000997
74 0.000998
74 0.002
80 0.002028
90 0.001997
98 0.001996
99 0.001996
102 0.002037
109 0.000998
121 0.001995
132 0.001994
140 0.000997
149 0.000998
157 0.000998
165 0.000997
173 0.000998
181 0.002006
188 0.002
195 0.002015
200 0.001995
166 0.000999
99 0.000998
83 0.001967
82 0.000997
83 0.000971
83 0.000957
82 0.000998
89 0.000968
99 0.000997
107 0.000997
107 0.002002
111 0.000999
117 0.000997
131 0.000992
140 0.000997
150 0.000997
158 0.001009
166 0.0
173 0.000998
181 0.0
183 0.0
190 0.0
199 0.000998
206 0.000994
189 0.000997
134 0.001018
85 0.000997
78 0.000997
76 0.001002
76 0.0
75 0.0
77 0.0
86 0.0
92 0.001052
101 0.002034
104 0.000998
107 0.0
116 0.000998
127 0.001012
135 0.000999
145 0.0
153 0.0
161 0.0
168 0.0
173 0.0
180 0.0
188 0.0
197 0.0
203 0.0
206 0.001022
175 0.0
81 0.012966
69 0.0
70 0.0
72 0.000992
73 0.000998
81 0.0
91 0.001031
95 0.0
97 0.0
98 0.0
105 0.0
113 0.0
124 0.0
134 0.0
143 0.0
150 0.000998
158 0.00094
167 0.0
176 0.000965
184 0.0
192 0.0
197 0.0
206 0.000965
212 0.001995
203 0.000997
163 0.001006
105 0.001004
75 0.001032
74 0.001
77 0.000974
76 0.001005
80 0.0
88 0.000999
96 0.00103
101 0.001995
104 0.002029
108 0.002031
118 0.001004
125 0.001041
134 0.000999
142 0.001996
149 0.001995
161 0.001996
167 0.001996
171 0.000999
180 0.0
188 0.0
190 0.001997
148 0.002029
91 0.001003
78 0.000992
78 0.001026
79 0.002993
81 0.001996
86 0.001996
94 0.001995
102 0.000999
102 0.001024
103 0.001999
106 0.003026
116 0.003027
131 0.000981
140 0.001032
150 0.000997
157 0.001994
164 0.001995
175 0.002002
179 0.001994
186 0.001001
190 0.001997
188 0.002028
143 0.002999
98 0.002977
74 0.00203
70 0.002028
71 0.00204
71 0.002997
72 0.002992
85 0.00199
92 0.002045
96 0.00198
97 0.001991
99 0.001991
109 0.002992
118 0.003025
128 0.002025
138 0.002016
146 0.002036
153 0.002992
157 0.003026
163 0.002993
168 0.002992
181 0.002031
186 0.003018
191 0.003024
158 0.002992
105 0.003026
71 0.002029
67 0.002994
65 0.00205
63 0.003991
62 0.00399
72 0.00399
78 0.004038
86 0.004025
87 0.003024
89 0.003028
96 0.002016
103 0.003991
111 0.003989
123 0.002024
133 0.002028
142 0.001957
147 0.003028
155 0.00298
160 0.003947
163 0.004001
174 0.002992
184 0.003017
188 0.003037
160 0.003986
104 0.003981
65 0.00299
59 0.003025
57 0.003034
55 0.003977
54 0.002992
62 0.003989
71 0.003989
78 0.004025
78 0.004028
82 0.004023
88 0.004985
96 0.004986
104 0.004026
118 0.003037
123 0.005016
129 0.004988
141 0.004018
147 0.004984
153 0.003989
161 0.004031
167 0.004023
176 0.004026
177 0.005018
132 0.004987
71 0.003993
56 0.003992
55 0.004034
57 0.004987
57 0.020944
63 0.0
70 0.005943
78 0.005055
83 0.004029
83 0.004019
89 0.004987
96 0.005017
106 0.003989
113 0.003985
122 0.003992
131 0.004953
142 0.004022
150 0.004985
156 0.004986
167 0.005023
173 0.005027
177 0.004986
165 0.005983
115 0.005984
75 0.005943
60 0.003992
59 0.005023
58 0.004968
57 0.00403
61 0.004007
68 0.006014
76 0.006014
78 0.00503
79 0.005016
85 0.005016
93 0.006016
101 0.006024
115 0.005018
124 0.005017
134 0.004019
144 0.005023
148 0.005008
153 0.006017
162 0.005981
177 0.005011
184 0.004987
180 0.004976
131 0.006026
82 0.005985
55 0.004995
51 0.004997
50 0.005017
46 0.00498
47 0.005985
55 0.006981
65 0.00697
73 0.005994
76 0.006008
78 0.004955
86 0.005936
94 0.005978
104 0.004996
115 0.005035
124 0.005989
137 0.00495
143 0.005
149 0.006981
156 0.007016
169 0.006037
176 0.005955
185 0.006011
186 0.006983
146 0.006982
73 0.006033
50 0.006025
44 0.00599
39 0.006016
39 0.006035
41 0.007014
48 0.00697
60 0.005985
67 0.005983
70 0.006002
73 0.007009
82 0.006981
92 0.006009
102 0.005984
110 0.006017
126 0.007013
133 0.007013
143 0.007978
151 0.007939
157 0.007979
166 0.007012
174 0.007018
183 0.006974
194 0.00798
174 0.00798
92 0.005966
58 0.006982
51 0.006994
51 0.007024
49 0.006982
51 0.007986
60 0.007978
75 0.007015
79 0.007021
81 0.007021
85 0.007979
94 0.007979
108 0.007021
120 0.007017
134 0.006958
145 0.006981
154 0.00698
160 0.007978
167 0.007951
176 0.006957
182 0.00698
188 0.007007
194 0.007025
149 0.006983
84 0.007015
64 0.007015
60 0.007015
59 0.007014
58 0.006986
63 0.00703
70 0.008012
80 0.006978
88 0.007013
89 0.006956
94 0.007018
99 0.007976
116 0.007008
124 0.007011
140 0.007007
148 0.006983
157 0.007012
163 0.007022
169 0.007021
180 0.006992
190 0.007022
195 0.006005
206 0.007021
210 0.006977
140 0.006024
88 0.007008
61 0.007023
60 0.007019
60 0.007019
60 0.006985
62 0.007027
73 0.007016
80 0.007021
84 0.00698
85 0.006015
89 0.006029
98 0.005998
108 0.006015
121 0.006019
135 0.006024
146 0.005984
155 0.006013
163 0.00603
172 0.006015
180 0.00701
188 0.007032
196 0.007016
206 0.006019
215 0.006045
227 0.005985
187 0.006014
92 0.006024
63 0.006016
59 0.006006
60 0.005964
62 0.006035
63 0.006015
68 0.006028
74 0.004943
81 0.004984
84 0.005047
90 0.005986
98 0.006024
109 0.006024
119 0.006022
130 0.006018
139 0.006038
149 0.006026
162 0.00601
172 0.005018
180 0.004972
188 0.005033
197 0.005024
209 0.005026
221 0.005032
236 0.004037
209 0.005021
124 0.005033
74 0.00502
63 0.00602
64 0.005983
64 0.004989
62 0.005027
64 0.005
74 0.005045
85 0.005028
91 0.005028
94 0.005024
101 0.005028
110 0.004982
121 0.005008
135 0.004993
151 0.004039
163 0.004953
172 0.004988
180 0.004043
189 0.004035
197 0.004004
207 0.00404
216 0.00502
218 0.004987
155 0.005024
92 0.005007
65 0.005029
61 0.004988
63 0.00499
64 0.003992
65 0.004021
72 0.004022
82 0.00402
90 0.003986
92 0.002995
97 0.005026
107 0.003952
117 0.003977
128 0.003949
139 0.003938
151 0.003992
162 0.003032
170 0.00399
177 0.004029
185 0.003978
197 0.003991
208 0.003992
219 0.004032
221 0.003991
176 0.003992
103 0.004037
65 0.003992
51 0.004005
53 0.004025
51 0.003075
51 0.00403
54 0.003041
66 0.003029
74 0.003017
75 0.002963
80 0.003032
88 0.003026
93 0.002972
104 0.003976
119 0.003992
128 0.003991
137 0.004018
147 0.003993
155 0.004021
168 0.003035
177 0.003051
189 0.003031
202 0.003052
211 0.002992
213 0.002994
161 0.002998
71 0.002992
44 0.003033
39 0.002992
37 0.003046
38 0.003991
35 0.003029
45 0.001995
57 0.002993
64 0.002994
65 0.002993
69 0.003017
76 0.003037
89 0.003056
98 0.003024
108 0.003022
118 0.003023
128 0.003026
144 0.002993
152 0.001996
162 0.002992
168 0.002994
176 0.003053
189 0.001998
195 0.002037
142 0.00203
61 0.001994
42 0.002028
38 0.001995
39 0.001986
33 0.001967
36 0.002031
43 0.001996
52 0.001996
54 0.001996
57 0.001995
63 0.000989
71 0.001009
84 0.002058
93 0.000997
104 0.000998
114 0.001994
130 0.001964
138 0.001997
146 0.002045
153 0.002046
159 0.001984
163 0.001987
128 0.001995
74 0.001997
36 0.00203
27 0.000997
23 0.001995
20 0.000998
21 0.000999
29 0.000993
36 0.001996
44 0.001997
46 0.0
48 0.000998
57 0.002037
69 0.001996
84 0.002054
94 0.001996
104 0.000997
113 0.000998
125 0.001963
132 0.0
141 0.000997
152 0.001
160 0.001009
151 0.001004
97 0.001013
53 0.000998
26 0.000994
20 0.000997
17 0.0
15 0.0
17 0.0
27 0.0
35 0.0
39 0.0
42 0.0
49 0.0
58 0.000998
69 0.000979
80 0.000982
91 0.000998
99 0.000997
109 0.0
121 0.0
129 0.0
139 0.0
150 0.0
159 0.0
165 0.0
129 0.0
77 0.0
47 0.0
36 0.0
33 0.0
28 0.0
25 0.0
30 0.0
41 0.0
51 0.0
54 0.0
60 0.0
68 0.0
77 0.0
87 0.0
100 0.001038
108 0.000998
117 0.000997
130 0.000997
139 0.0
146 0.0
154 0.0
165 0.001005
164 0.001029
103 0.0
61 0.0
47 0.0
45 0.001
44 0.000998
43 0.0
49 0.00097
61 0.0
66 0.000997
69 0.000998
71 0.001996
77 0.001051
90 0.0
102 0.0
112 0.0
118 0.001032
127 0.001029
135 0.000998
148 0.000997
159 0.00101
166 0.0
172 0.0
169 0.002003
127 0.001996
72 0.000992
56 0.0
52 0.0
48 0.000996
45 0.002032
47 0.000949
59 0.002042
68 0.001955
74 0.0
78 0.000995
84 0.001042
92 0.001044
107 0.000997
116 0.000962
124 0.000977
133 0.001044
140 0.001995
146 0.002002
161 0.001995
166 0.001984
175 0.000983
184 0.000998
189 0.0
168 0.002004
118 0.002048
69 0.000997
59 0.001055
55 0.00095
51 0.001996
47 0.001995
51 0.002031
61 0.002026
70 0.000997
73 0.000995
78 0.000996
82 0.001995
91 0.002035
106 0.000995
112 0.000998
122 0.001058
130 0.003019
139 0.002954
151 0.003027
160 0.003002
172 0.000998
178 0.002034
185 0.000971
196 0.003025
205 0.002031
172 0.00101
113 0.001006
74 0.00202
63 0.002991
60 0.003044
57 0.002992
54 0.002992
60 0.001961
72 0.002027
80 0.002015
83 0.003024
87 0.00295
95 0.002028
103 0.000987
111 0.002021
121 0.003106
130 0.003989
145 0.003989
152 0.004023
162 0.002007
171 0.002032
176 0.001993
186 0.003117
193 0.002998
207 0.001961
196 0.002007
135 0.001994
89 0.002996
70 0.002992
70 0.00399
73 0.004024
73 0.003018
80 0.003026
92 0.00303
101 0.003061
103 0.003985
104 0.003986
111 0.002991
122 0.002008
131 0.002022
139 0.002992
153 0.002028
160 0.003989
169 0.00399
177 0.002977
183 0.002993
191 0.002986
201 0.004034
209 0.003966
216 0.002991
178 0.002992
120 0.002991
88 0.00396
77 0.003025
76 0.004
75 0.004024
75 0.003001
84 0.00303
91 0.003021
99 0.004021
102 0.005033
106 0.004021
113 0.003016
123 0.003024
133 0.005022
150 0.004026
161 0.004036
169 0.003989
181 0.002987
188 0.003947
195 0.00398
204 0.005022
212 0.005022
222 0.003998
231 0.003987
239 0.004026
215 0.004357
109 0.002992
84 0.004988
79 0.004973
78 0.003995
79 0.003995
78 0.003994
82 0.004992
88 0.004991
98 0.004045
101 0.004026
104 0.003978
110 0.004991
123 0.003983
134 0.005984
143 0.005984
155 0.005019
166 0.003945
174 0.003979
181 0.005023
190 0.005023
201 0.003988
211 0.003992
220 0.00399
229 0.005022
244 0.004987
249 0.005019
201 0.005984
122 0.006037
76 0.004988
70 0.005019
69 0.004989
72 0.005999
74 0.005976
78 0.003984
89 0.004
96 0.003989
102 0.004003
105 0.004987
111 0.006015
119 0.005981
132 0.005004
142 0.005016
154 0.005027
163 0.005984
172 0.005983
185 0.005023
193 0.005022
202 0.00497
218 0.005013
225 0.006021
235 0.006982
247 0.006984
208 0.004984
122 0.004979
78 0.005005
66 0.005989
67 0.005975
71 0.006001
71 0.005985
75 0.005992
91 0.006041
100 0.005989
103 0.006983
105 0.007021
115 0.00602
124 0.006025
132 0.004996
142 0.006983
152 0.006981
171 0.005939
181 0.004997
190 0.005995
204 0.005939
210 0.006021
218 0.006981
226 0.006981
233 0.006944
167 0.005991
98 0.005984
69 0.007022
63 0.007019
64 0.005975
64 0.005959
65 0.005988
73 0.006981
82 0.006983
89 0.00798
91 0.007981
98 0.007975
105 0.007015
115 0.005984
128 0.005984
139 0.007951
150 0.008008
159 0.006979
170 0.006013
186 0.006034
194 0.005989
207 0.005993
218 0.007015
221 0.007978
229 0.006968
186 0.006981
107 0.006982
65 0.007938
51 0.007948
51 0.006992
51 0.006986
50 0.007023
56 0.007018
69 0.007019
73 0.007941
74 0.007035
78 0.006943
84 0.006971
92 0.006977
104 0.007021
117 0.007017
127 0.006982
138 0.006983
158 0.006994
165 0.006988
177 0.006965
186 0.006982
193 0.007022
207 0.007015
213 0.006981
197 0.00699
116 0.007015
61 0.007016
42 0.006977
39 0.00698
33 0.006985
31 0.006988
34 0.007013
44 0.007037
54 0.007018
59 0.007011
61 0.007035
68 0.007011
77 0.007034
88 0.007012
101 0.006983
110 0.006988
128 0.007036
137 0.006014
144 0.006022
152 0.006032
162 0.006019
171 0.006016
184 0.007012
190 0.005005
133 0.006037
67 0.006023
32 0.006009
26 0.007014
21 0.006017
18 0.006018
24 0.006016
37 0.006022
46 0.00603
51 0.006017
58 0.005986
66 0.006028
73 0.006016
83 0.006023
92 0.005018
105 0.00597
118 0.004995
131 0.006015
138 0.00604
146 0.006025
153 0.005994
160 0.006025
158 0.006024
104 0.006015
53 0.006016
29 0.006034
23 0.005019
18 0.005029
14 0.005022
18 0.004989
29 0.005023
35 0.004989
40 0.004988
44 0.004982
51 0.004987
59 0.004985
72 0.00508
83 0.004941
95 0.004986
104 0.004987
115 0.004987
129 0.004989
139 0.005983
147 0.006017
156 0.005051
158 0.004983
96 0.005041
49 0.005029
24 0.00502
16 0.004996
11 0.005027
5 0.005017
5 0.005042
21 0.004989
29 0.003991
33 0.004956
37 0.004022
41 0.004032
54 0.00502
65 0.005028
78 0.004068
88 0.004036
96 0.005033
110 0.004975
120 0.005043
131 0.004975
139 0.005009
150 0.004996
164 0.004021
173 0.004103
166 0.004032
92 0.00399
50 0.004022
31 0.00399
22 0.004029
17 0.003991
10 0.004031
12 0.003991
24 0.003991
33 0.00399
39 0.003963
43 0.003988
50 0.00412
64 0.002956
75 0.003947
84 0.003039
95 0.003006
104 0.003033
120 0.003999
129 0.003989
139 0.003953
147 0.003994
155 0.004021
163 0.00404
175 0.00402
183 0.003954
132 0.003961
75 0.003035
47 0.002993
37 0.002992
30 0.002959
24 0.00296
25 0.00399
34 0.002995
46 0.003947
53 0.003953
56 0.003994
64 0.003991
74 0.004039
86 0.002991
96 0.002992
106 0.002993
126 0.002992
136 0.002994
150 0.003032
156 0.003044
163 0.002986
169 0.002992
176 0.003028
188 0.003023
156 0.00402
99 0.002993
62 0.002994
48 0.002991
41 0.003029
37 0.002027
36 0.002993
45 0.00304
57 0.003012
67 0.002992
68 0.002994
74 0.002039
85 0.002026
96 0.001994
108 0.002038
121 0.001961
140 0.001963
150 0.002036
160 0.000998
170 0.001996
178 0.00198
187 0.001955
196 0.002001
204 0.001994
217 0.002992
185 0.001995
117 0.001995
76 0.001995
55 0.001996
51 0.001995
47 0.002012
44 0.001995
53 0.001995
63 0.001995
70 0.002004
74 0.002012
81 0.000999
88 0.000997
99 0.000997
111 0.000999
133 0.000998
143 0.001996
154 0.001996
167 0.002033
176 0.002028
185 0.000999
189 0.001992
201 0.002056
215 0.001996
223 0.002054
236 0.00099
222 0.000998
104 0.001001
70 0.000999
59 0.001998
53 0.00105
50 0.000998
48 0.000998
52 0.000998
64 0.000998
78 0.0
80 0.000997
81 0.002001
88 0.001996
104 0.0
115 0.0
130 0.0
143 0.000998
152 0.000999
163 0.0
173 0.0
184 0.000997
196 0.000997
207 0.000998
218 0.0
228 0.0
247 0.0
253 0.0
191 0.0
94 0.0
67 0.0
61 0.0
60 0.0
56 0.0
51 0.0
60 0.0
73 0.0
84 0.000998
90 0.0
95 0.0
105 0.0
114 0.0
129 0.0
143 0.0
154 0.0
168 0.001014
178 0.0
188 0.0
195 0.0
205 0.0
225 0.00103
241 0.000984
225 0.0
147 0.0
92 0.000999
72 0.001023
69 0.000987
69 0.000998
70 0.0
71 0.001997
83 0.001979
97 0.0
101 0.002037
106 0.0
112 0.0
125 0.0
137 0.001029
151 0.001043
166 0.0
176 0.0
188 0.0
199 0.000999
209 0.000998
220 0.0
232 0.001995
186 0.001
191 0.000998
167 0.001034
127 0.002022
106 0.002029
99 0.000998
98 0.000978
98 0.0
98 0.002033
99 0.001962
104 0.0
112 0.001995
113 0.0
115 0.0
119 0.0
125 0.000998
130 0.000999
138 0.000953
143 0.000968
147 0.000968
153 0.001989
157 0.002008
162 0.001991
170 0.001995
175 0.001996
184 0.001989
190 0.001022
190 0.001023
155 0.002033
118 0.002005
97 0.000999
94 0.000995
93 0.000965
92 0.002005
92 0.002028
97 0.002046
103 0.00203
107 0.000998
107 0.000986
110 0.001975
112 0.001995
118 0.00203
124 0.001998
131 0.000997
135 0.000992
140 0.002992
146 0.003026
155 0.004024
160 0.002992
165 0.000833
170 0.002013
176 0.00201
183 0.002002
168 0.001996
115 0.001995
95 0.001995
90 0.00203
88 0.002992
87 0.00303
86 0.003002
88 0.003024
96 0.001043
100 0.000998
101 0.001035
103 0.003039
106 0.004034
112 0.001942
117 0.001968
123 0.000998
129 0.004065
135 0.00399
143 0.002992
147 0.003029
152 0.001995
157 0.001964
163 0.001999
168 0.003025
148 0.002992
103 0.002006
89 0.002044
86 0.002025
86 0.003989
85 0.004024
86 0.00399
91 0.003989
95 0.001994
98 0.001984
99 0.002013
102 0.003988
108 0.003023
113 0.003991
119 0.001988
124 0.003016
129 0.002999
133 0.00399
141 0.002039
145 0.004025
150 0.004021
153 0.003027
153 0.002977
127 0.00203
101 0.004032
86 0.005019
80 0.001983
79 0.002993
77 0.00299
75 0.005021
81 0.00303
86 0.004019
90 0.00403
92 0.002991
96 0.002998
100 0.002993
107 0.004025
112 0.003985
120 0.003022
124 0.003991
129 0.00403
133 0.004987
140 0.003024
143 0.00499
147 0.005019
154 0.002993
152 0.002999
111 0.002999
78 0.005035
64 0.005009
58 0.003993
54 0.003992
51 0.00399
51 0.005036
62 0.003989
68 0.004986
70 0.004986
73 0.004037
78 0.003031
83 0.003014
92 0.005017
101 0.00502
111 0.003002
116 0.003983
123 0.003992
129 0.005974
137 0.003989
143 0.005984
151 0.004987
160 0.003996
163 0.003985
130 0.003991
91 0.005991
68 0.004992
58 0.003993
56 0.005
53 0.00499
51 0.005987
61 0.003973
69 0.003989
74 0.005986
76 0.005974
81 0.003992
87 0.003989
96 0.004969
102 0.005963
109 0.005977
119 0.004996
125 0.004957
131 0.004987
141 0.004987
148 0.00496
154 0.005974
159 0.005953
120 0.003942
87 0.004029
70 0.006017
65 0.006953
64 0.006975
61 0.00499
62 0.004984
69 0.004985
82 0.005007
83 0.004992
84 0.005977
89 0.006983
99 0.006019
109 0.004994
117 0.005027
123 0.006991
130 0.006979
138 0.004988
145 0.004976
150 0.004988
159 0.004989
167 0.004978
155 0.006974
116 0.00702
79 0.005984
69 0.005985
66 0.005983
63 0.006983
60 0.007006
61 0.005933
68 0.00599
77 0.005993
83 0.006038
86 0.006947
91 0.006972
99 0.006995
110 0.005988
119 0.005991
128 0.005979
137 0.007985
141 0.007947
149 0.005978
155 0.005987
161 0.005982
173 0.005991
179 0.006978
164 0.006987
123 0.007946
85 0.006009
74 0.006987
71 0.005931
66 0.007954
65 0.007959
67 0.00698
75 0.00599
82 0.005988
88 0.006945
91 0.005996
97 0.005987
105 0.007957
112 0.007945
123 0.00699
132 0.006979
140 0.006986
148 0.007975
153 0.007949
162 0.006946
168 0.006978
178 0.005985
188 0.006929
190 0.006974
137 0.007012
100 0.007011
82 0.006969
78 0.00696
78 0.006983
77 0.007938
75 0.007929
82 0.006991
94 0.006988
101 0.00699
103 0.006972
108 0.006959
115 0.00701
123 0.007012
135 0.006951
142 0.006961
152 0.006983
158 0.007006
165 0.00701
172 0.006982
179 0.006979
188 0.006988
161 0.00703
121 0.006982
96 0.007007
89 0.007015
87 0.006998
86 0.00698
87 0.007012
90 0.006012
97 0.007011
107 0.006997
111 0.005987
115 0.007016
122 0.005962
130 0.006023
138 0.006021
147 0.006016
158 0.006007
167 0.006015
174 0.007014
180 0.007025
185 0.00697
194 0.006986
201 0.006985
182 0.006017
137 0.006018
106 0.006014
95 0.005989
93 0.006016
91 0.006016
89 0.006008
90 0.005977
97 0.005975
105 0.005997
111 0.006027
114 0.005983
120 0.006028
133 0.006022
141 0.00695
147 0.005026
156 0.006019
165 0.006019
173 0.006016
178 0.006019
184 0.006025
190 0.006019
198 0.006014
210 0.006017
218 0.005753
215 0.004986
165 0.004982
122 0.005032
103 0.005024
99 0.004987
96 0.005026
96 0.005018
97 0.005015
99 0.00597
106 0.006031
114 0.00602
118 0.006027
124 0.006037
129 0.00599
137 0.005025
145 0.005027
153 0.00502
163 0.005018
171 0.005037
178 0.004997
186 0.004958
192 0.005018
200 0.005035
209 0.005023
218 0.004035
227 0.005014
210 0.004031
152 0.00403
113 0.00399
99 0.005022
98 0.00503
99 0.005025
98 0.005024
99 0.004939
108 0.005022
116 0.005022
119 0.005016
122 0.005027
126 0.004992
133 0.00396
141 0.004028
154 0.004025
160 0.003983
167 0.003957
175 0.003949
184 0.004032
192 0.004027
200 0.003991
204 0.004012
215 0.005024
206 0.005023
154 0.004023
113 0.004018
96 0.00404
94 0.004039
95 0.00396
94 0.003956
95 0.003982
101 0.004025
112 0.004004
115 0.004047
119 0.004036
123 0.004025
130 0.002993
139 0.003985
149 0.003038
159 0.002993
167 0.00301
176 0.003
183 0.003984
190 0.004033
200 0.00403
207 0.004014
215 0.003984
220 0.004029
192 0.00402
134 0.00402
99 0.003992
86 0.003033
85 0.002992
85 0.002992
84 0.002993
86 0.003028
97 0.003029
102 0.003039
104 0.003025
107 0.003023
112 0.00403
121 0.002992
129 0.002993
139 0.00303
146 0.002959
154 0.00299
163 0.002999
170 0.003005
179 0.002992
186 0.002992
194 0.002993
202 0.002982
210 0.001995
206 0.003027
153 0.001996
93 0.002025
78 0.001996
73 0.001995
72 0.001995
71 0.001995
72 0.001995
77 0.002022
86 0.00205
89 0.001995
92 0.002031
96 0.002992
102 0.001996
112 0.002026
120 0.001995
128 0.001984
136 0.001964
145 0.001996
155 0.001974
163 0.001952
168 0.001995
176 0.002044
183 0.00199
192 0.001986
197 0.000997
162 0.000997
94 0.001
72 0.000966
69 0.001
69 0.000998
66 0.000998
66 0.000999
73 0.000997
84 0.001008
87 0.000998
89 0.000997
93 0.000997
99 0.002042
109 0.000998
118 0.002005
126 0.002032
133 0.001995
145 0.000999
152 0.000998
157 0.000998
165 0.000906
173 0.000998
181 0.00196
169 0.0
122 0.000998
79 0.000997
68 0.001034
68 0.000996
68 0.0
68 0.000999
73 0.000998
81 0.000968
88 0.000978
90 0.000998
94 0.000997
100 0.001008
107 0.000997
119 0.001031
127 0.000999
134 0.000997
141 0.00101
151 0.000986
157 0.0
164 0.0
173 0.0
182 0.0
189 0.0
167 0.0
117 0.0
78 0.0
69 0.0
65 0.0
64 0.0
64 0.0
68 0.0
77 0.0
82 0.0
86 0.0
89 0.0
94 0.001006
103 0.0
112 0.0
121 0.001001
130 0.000973
138 0.0
148 0.0
157 0.0
160 0.0
167 0.0
177 0.001026
185 0.0
190 0.000986
136 0.0
92 0.0
73 0.001025
67 0.000999
66 0.0
64 0.002042
64 0.0
72 0.0
80 0.0
84 0.001997
87 0.002002
92 0.0
98 0.0
106 0.0
115 0.001981
123 0.00204
133 0.0
143 0.001027
153 0.0
158 0.0
164 0.0
171 0.000994
181 0.000998
174 0.000997
125 0.0
87 0.0
71 0.001996
69 0.002026
70 0.0
69 0.002031
74 0.0
81 0.0
89 0.0
90 0.001035
92 0.00103
99 0.0
108 0.0
118 0.000965
126 0.000999
134 0.002043
145 0.000962
154 0.002024
163 0.0
168 0.0
175 0.0
182 0.001978
175 0.001994
113 0.0
83 0.0
69 0.000996
66 0.0
65 0.002047
63 0.002993
68 0.002993
73 0.002043
83 0.002005
86 0.000969
88 0.001975
94 0.001996
102 0.001993
113 0.001996
123 0.001995
133 0.0
141 0.002009
149 0.002025
162 0.001998
168 0.002027
176 0.000998
184 0.001001
191 0.000964
167 0.002993
115 0.002992
75 0.001982
66 0.00199
63 0.002049
61 0.002993
59 0.001987
65 0.003025
73 0.002996
81 0.000996
84 0.002028
87 0.002
92 0.003025
100 0.002945
112 0.001031
120 0.001982
130 0.000972
138 0.002993
147 0.003002
160 0.003026
167 0.004001
177 0.001999
185 0.001999
195 0.002001
193 0.002984
140 0.002982
83 0.002043
67 0.001988
63 0.001037
63 0.002994
61 0.003989
60 0.003026
69 0.00399
80 0.001989
84 0.001969
87 0.002005
92 0.004023
100 0.004026
110 0.001998
120 0.001996
128 0.002012
137 0.003001
146 0.004021
158 0.003024
167 0.004022
176 0.001961
187 0.001996
173 0.001962
119 0.001998
81 0.004026
68 0.004032
67 0.002027
66 0.001995
65 0.001994
69 0.004953
82 0.000985
87 0.005027
90 0.004021
95 0.002986
101 0.002996
110 0.003019
121 0.004031
132 0.004023
145 0.002994
153 0.002991
162 0.002992
169 0.004986
180 0.003003
188 0.005022
192 0.004989
133 0.002995
90 0.002995
69 0.002988
63 0.004987
62 0.004989
59 0.002
60 0.003995
66 0.002998
75 0.00502
83 0.004039
84 0.00498
89 0.004988
99 0.003001
108 0.002992
118 0.002991
129 0.004992
137 0.004987
147 0.001994
154 0.003039
162 0.002988
169 0.005985
182 0.003956
186 0.005018
149 0.004988
87 0.003989
64 0.005001
57 0.003025
53 0.005021
48 0.00502
46 0.003966
52 0.004016
60 0.004007
67 0.005984
73 0.003987
76 0.005988
84 0.005978
95 0.003984
104 0.003993
114 0.003969
121 0.005015
129 0.004995
141 0.004987
146 0.004965
152 0.004978
160 0.005984
175 0.003974
184 0.00399
160 0.005985
107 0.005977
65 0.004006
54 0.003986
52 0.003995
49 0.005992
46 0.006984
50 0.004958
59 0.00498
68 0.004991
76 0.004992
79 0.004982
86 0.00599
93 0.00599
105 0.005987
114 0.003981
122 0.003991
131 0.005981
139 0.005991
148 0.004986
154 0.004947
161 0.004021
176 0.004992
157 0.00499
110 0.006971
79 0.006971
64 0.004954
63 0.004988
62 0.005941
61 0.006994
63 0.007018
76 0.005976
82 0.005064
85 0.005986
94 0.004985
102 0.004987
110 0.006978
118 0.006981
129 0.004941
136 0.004991
143 0.004987
151 0.006982
158 0.006981
167 0.005983
172 0.005976
180 0.00599
129 0.006015
93 0.005946
75 0.007978
70 0.006982
67 0.005983
65 0.005984
67 0.005017
72 0.006982
80 0.006998
89 0.005992
92 0.005988
95 0.006976
107 0.005982
117 0.005983
126 0.007978
138 0.007977
145 0.007957
153 0.005988
159 0.005991
165 0.005985
172 0.007977
181 0.007979
187 0.005991
180 0.006979
108 0.006979
82 0.006986
73 0.006985
70 0.007966
66 0.00797
64 0.005986
68 0.005991
75 0.005985
87 0.007962
91 0.008003
92 0.006985
98 0.006969
113 0.006975
117 0.005926
130 0.006981
140 0.006982
149 0.007021
154 0.006984
163 0.00698
170 0.007031
175 0.00702
180 0.007008
194 0.007044
205 0.006974
170 0.006949
119 0.006982
84 0.006977
77 0.007015
74 0.006984
70 0.006021
69 0.006978
74 0.006978
83 0.006981
91 0.006986
95 0.007025
98 0.006944
108 0.006989
113 0.006974
125 0.006963
134 0.007015
142 0.006015
154 0.006012
158 0.006975
168 0.006017
176 0.006019
184 0.006015
190 0.006015
199 0.006016
215 0.006971
190 0.006966
131 0.007002
96 0.007016
85 0.007012
84 0.006969
85 0.005985
84 0.006015
87 0.006033
97 0.005949
105 0.005984
107 0.006027
110 0.005984
117 0.005982
125 0.005985
134 0.005993
142 0.006029
150 0.005029
162 0.004988
170 0.005014
178 0.006031
185 0.005986
190 0.006014
198 0.005943
210 0.006025
194 0.005951
137 0.006015
101 0.006015
91 0.006018
90 0.005017
90 0.005016
90 0.005019
92 0.005025
100 0.004991
109 0.004988
113 0.005941
116 0.006024
123 0.006002
132 0.006015
141 0.005019
150 0.004978
160 0.004984
171 0.005018
176 0.005022
182 0.004965
191 0.00496
199 0.004988
209 0.005007
221 0.005025
201 0.005022
139 0.004993
100 0.004988
88 0.004035
86 0.004029
86 0.004987
87 0.004981
88 0.004988
94 0.005026
103 0.004952
112 0.004983
113 0.004991
120 0.004978
129 0.005034
136 0.005022
145 0.005025
154 0.00404
165 0.004025
175 0.004031
182 0.00502
190 0.003991
198 0.004042
206 0.004026
216 0.004024
226 0.004956
184 0.004029
122 0.003985
90 0.00399
81 0.003991
83 0.00399
82 0.003991
80 0.00402
83 0.00399
90 0.003992
99 0.00399
106 0.004042
109 0.003984
116 0.003981
123 0.004035
132 0.004029
142 0.002993
150 0.003988
164 0.003038
174 0.002993
182 0.003049
189 0.00299
195 0.003991
209 0.003998
218 0.003991
201 0.00399
134 0.003948
92 0.003983
78 0.00399
78 0.002993
83 0.003029
83 0.002963
84 0.002994
91 0.003027
99 0.003029
105 0.003021
107 0.003031
115 0.002995
124 0.003983
132 0.003042
140 0.001995
149 0.002027
160 0.002031
167 0.003042
173 0.003053
180 0.003032
186 0.002993
185 0.003026
135 0.003009
88 0.001995
78 0.002991
76 0.003055
77 0.002982
77 0.003027
79 0.003032
86 0.001969
95 0.001993
100 0.002016
102 0.002037
107 0.001996
114 0.002026
126 0.002041
133 0.001995
140 0.001995
150 0.001995
158 0.002033
168 0.001997
176 0.001996
183 0.003018
160 0.00203
112 0.001996
73 0.001997
69 0.001995
68 0.002014
68 0.002001
70 0.001996
76 0.001995
86 0.000996
92 0.000999
95 0.000998
97 0.000999
101 0.001978
108 0.000967
120 0.001011
128 0.000997
139 0.001997
149 0.001984
156 0.00194
149 0.001996
112 0.001985
80 0.001996
65 0.001002
63 0.001013
63 0.002045
62 0.002027
70 0.000998
78 0.001033
84 0.001997
88 0.000995
91 0.002005
96 0.002033
101 0.001001
110 0.001965
122 0.0
131 0.0
139 0.0
146 0.000998
133 0.001004
94 0.001003
68 0.000998
57 0.000991
56 0.000997
58 0.001028
59 0.000998
63 0.000997
76 0.0
83 0.0
87 0.0
90 0.0
98 0.0
106 0.000998
112 0.0
124 0.0
133 0.0
140 0.0
147 0.000998
155 0.000961
137 0.0
98 0.0
72 0.0
65 0.0
68 0.0
68 0.0
72 0.0
78 0.0
88 0.0
93 0.0
94 0.0
98 0.0
104 0.0
114 0.002037
121 0.000997
129 0.000998
144 0.0
154 0.000997
160 0.0
164 0.000958
144 0.0
107 0.002032
83 0.000999
74 0.000998
73 0.0
74 0.002008
75 0.00203
83 0.0
91 0.002037
96 0.0
99 0.0
103 0.0
112 0.002034
121 0.002031
131 0.001013
138 0.000982
146 0.000954
151 0.002026
158 0.00204
167 0.0
173 0.00204
141 0.000975
104 0.0
84 0.0
79 0.00203
77 0.001964
76 0.0
77 0.0
83 0.0
88 0.002029
96 0.001044
101 0.000976
105 0.001997
116 0.0
123 0.0
132 0.0
139 0.00202
147 0.00103
154 0.0
160 0.0
168 0.0
174 0.001033
182 0.00203
191 0.0
172 0.002045
115 0.0
93 0.0
88 0.0
87 0.002026
86 0.002037
86 0.0
91 0.000966
99 0.0
106 0.001995
110 0.003045
111 0.001034
120 0.002032
126 0.00304
138 0.0
145 0.0
152 0.002002
161 0.002993
168 0.002993
177 0.001991
183 0.00099
189 0.001029
196 0.002034
205 0.002037
202 0.002034
150 0.002027
104 0.000997
96 0.001998
97 0.001002
100 0.003054
102 0.002992
107 0.002001
115 0.002
122 0.001979
126 0.002993
127 0.004023
134 0.003026
140 0.00203
150 0.001926
158 0.001992
166 0.001003
174 0.003019
181 0.003024
191 0.000987
198 0.001986
204 0.000997
211 0.002992
185 0.002992
118 0.002992
105 0.002994
106 0.001993
109 0.000974
111 0.00199
115 0.002992
122 0.003022
132 0.000984
134 0.000994
135 0.001003
138 0.003025
143 0.002984
157 0.003989
165 0.002943
175 0.000989
183 0.002013
190 0.001988
197 0.004018
203 0.003987
213 0.002004
216 0.001986
177 0.001991
129 0.002991
106 0.002992
102 0.003025
104 0.004023
106 0.001994
110 0.002008
114 0.001998
121 0.004023
126 0.003978
129 0.004023
133 0.002017
140 0.00101
146 0.002947
152 0.003986
167 0.00297
173 0.005017
181 0.005015
190 0.002996
198 0.002985
208 0.002991
213 0.00399
207 0.004018
137 0.002028
106 0.001994
96 0.002965
96 0.003989
101 0.002013
101 0.004991
107 0.005021
116 0.002998
120 0.003004
123 0.002994
126 0.004986
128 0.004987
138 0.002966
146 0.00298
153 0.002982
162 0.004987
176 0.003001
185 0.005019
192 0.004983
201 0.002992
209 0.002988
217 0.002996
211 0.005034
150 0.004991
98 0.003003
87 0.003992
89 0.003996
94 0.005983
95 0.003993
100 0.005961
108 0.005987
115 0.003986
118 0.00298
120 0.00399
124 0.004987
130 0.006022
140 0.00399
147 0.003996
157 0.004004
166 0.006019
178 0.003988
185 0.00596
192 0.005968
203 0.004001
185 0.003002
128 0.004017
93 0.005987
83 0.006025
87 0.004
90 0.003993
91 0.004968
96 0.004973
108 0.004995
111 0.003974
114 0.005984
117 0.00601
125 0.004986
131 0.004987
138 0.003991
145 0.006019
153 0.006018
167 0.004001
175 0.003988
181 0.005019
190 0.005028
152 0.004973
103 0.00699
78 0.006982
73 0.004998
75 0.004984
77 0.004983
79 0.007023
84 0.007027
92 0.004028
97 0.004973
98 0.004998
102 0.004988
108 0.004969
116 0.007005
125 0.006977
136 0.004968
146 0.004988
154 0.00497
162 0.006982
169 0.006981
174 0.004966
135 0.005971
90 0.005934
62 0.005991
61 0.005995
62 0.007972
63 0.006983
66 0.004967
72 0.00599
80 0.006026
84 0.006982
86 0.007015
91 0.004978
99 0.00496
106 0.005984
120 0.005969
129 0.00598
137 0.007938
147 0.007971
154 0.005973
164 0.005986
169 0.005978
142 0.007014
84 0.007019
62 0.00597
56 0.006
57 0.005984
58 0.005981
60 0.00598
67 0.005981
78 0.007012
82 0.007979
86 0.005994
91 0.00697
98 0.006978
106 0.00703
111 0.007979
122 0.005982
131 0.006982
144 0.005981
151 0.005956
158 0.005978
169 0.007012
170 0.00798
116 0.005984
73 0.006967
62 0.006979
64 0.007015
68 0.006979
69 0.006976
71 0.006965
83 0.002994
88 0.007012
91 0.005972
94 0.007985
98 0.007979
107 0.005971
114 0.006948
125 0.006969
134 0.006981
142 0.007019
150 0.006966
155 0.00695
169 0.006987
148 0.006016
103 0.006971
77 0.007014
69 0.007015
72 0.00698
74 0.005985
76 0.005986
82 0.007012
92 0.007026
95 0.006972
99 0.006979
107 0.006979
110 0.00698
119 0.006981
126 0.006013
134 0.006979
144 0.005956
151 0.005991
162 0.005992
168 0.005985
173 0.006041
129 0.005937
92 0.005935
72 0.006984
73 0.005989
74 0.005986
75 0.005985
79 0.006017
89 0.005985
95 0.006015
99 0.006015
101 0.005987
105 0.006017
112 0.006029
125 0.005961
136 0.005985
147 0.004983
155 0.005017
161 0.004988
168 0.005014
177 0.004951
183 0.004988
155 0.005987
112 0.005983
84 0.005985
75 0.005992
75 0.005943
77 0.006023
79 0.005019
87 0.004988
95 0.004953
101 0.004988
103 0.004987
108 0.004988
114 0.004987
122 0.004987
130 0.004988
138 0.004995
148 0.00601
158 0.006032
166 0.005025
176 0.00502
182 0.005023
187 0.005022
165 0.00499
105 0.004987
82 0.004953
77 0.004998
78 0.004988
81 0.005001
82 0.004991
88 0.005007
100 0.004028
105 0.00402
106 0.00395
109 0.004981
115 0.003955
124 0.004987
132 0.005043
142 0.004999
150 0.004961
157 0.004989
166 0.004987
176 0.004046
187 0.00403
178 0.00399
130 0.003957
96 0.003989
84 0.00399
86 0.003957
88 0.00399
88 0.00399
91 0.005018
99 0.003953
107 0.003999
111 0.003995
114 0.004021
121 0.004029
129 0.003992
137 0.003961
145 0.003992
152 0.004024
165 0.003991
174 0.00399
180 0.003965
186 0.003001
177 0.003989
106 0.00399
88 0.003989
83 0.00399
87 0.002991
87 0.002992
90 0.00398
95 0.002993
104 0.003049
109 0.003002
111 0.003031
115 0.003028
120 0.002975
134 0.003992
141 0.003007
150 0.003959
158 0.004022
167 0.002998
175 0.003031
182 0.001993
172 0.003033
127 0.003038
93 0.001997
81 0.00205
80 0.003029
81 0.003037
81 0.003028
91 0.003021
98 0.002993
102 0.001994
106 0.003045
108 0.002038
115 0.002021
123 0.004028
132 0.001991
141 0.001996
150 0.001997
165 0.001995
172 0.001995
182 0.00299
190 0.003028
194 0.002006
156 0.002994
110 0.001961
82 0.002967
78 0.002993
80 0.001044
80 0.000999
80 0.001997
93 0.002036
101 0.001996
107 0.001996
110 0.001995
114 0.001996
121 0.002033
129 0.001997
138 0.002042
151 0.002035
160 0.001996
168 0.001029
176 0.001996
190 0.0
199 0.000997
202 0.001963
138 0.001968
98 0.002015
85 0.000997
83 0.001975
85 0.000997
91 0.000997
94 0.002038
101 0.001996
109 0.000999
114 0.00205
117 0.002001
121 0.002019
131 0.001061
140 0.000999
151 0.002056
162 0.001996
170 0.002023
180 0.002036
186 0.000998
194 0.001993
192 0.000997
115 0.001993
90 0.000998
84 0.0
88 0.001961
91 0.0
93 0.0
102 0.0
110 0.000998
116 0.000998
117 0.000993
120 0.000998
126 0.000998
136 0.000997
145 0.000994
155 0.000997
169 0.0
178 0.0
188 0.0
196 0.0
198 0.0
134 0.0
95 0.0
79 0.0
78 0.001
81 0.0
82 0.0
87 0.0
98 0.0
104 0.000999
106 0.000992
109 0.0
113 0.0
119 0.0
134 0.0
142 0.0
156 0.0
168 0.0
176 0.0
187 0.0
193 0.0
188 0.002028
134 0.002031
82 0.000969
73 0.000992
74 0.000998
76 0.002992
78 0.002051
81 0.00101
92 0.002027
100 0.0
102 0.0
105 0.0
111 0.002045
118 0.002025
130 0.0
141 0.0
149 0.0
159 0.001995
168 0.002026
179 0.000995
190 0.001999
202 0.001952
207 0.0
162 0.0
109 0.001995
82 0.001995
77 0.0
79 0.0
79 0.0
82 0.002003
90 0.002041
101 0.000961
107 0.002022
108 0.0
113 0.0
121 0.000964
128 0.001039
137 0.001995
150 0.0
158 0.0
166 0.000997
174 0.002041
180 0.002031
190 0.0
202 0.002028
150 0.0
103 0.0
84 0.0
82 0.003029
87 0.002993
91 0.000956
96 0.0
105 0.0
111 0.002025
112 0.002025
114 0.002025
118 0.003033
124 0.002047
139 0.0
147 0.000986
154 0.000951
162 0.002025
170 0.002992
181 0.000968
188 0.000965
194 0.002044
198 0.002992
155 0.002949
89 0.002032
81 0.002034
83 0.001997
85 0.001994
86 0.001996
91 0.002003
98 0.003017
105 0.001976
108 0.001977
110 0.001993
113 0.002989
119 0.003027
134 0.003045
143 0.002992
155 0.00201
163 0.001989
172 0.002043
180 0.002992
187 0.003023
196 0.002021
166 0.00202
115 0.002038
84 0.003035
76 0.003024
78 0.003041
80 0.002989
84 0.001951
91 0.001998
99 0.001963
103 0.003988
103 0.004024
107 0.00195
113 0.001983
120 0.001948
127 0.003021
137 0.003998
152 0.002999
159 0.002992
169 0.001978
178 0.00198
185 0.001995
192 0.004019
176 0.00399
107 0.001994
79 0.001995
72 0.001962
73 0.004033
75 0.004021
75 0.005033
81 0.003989
88 0.004998
96 0.001995
98 0.002039
101 0.001954
106 0.004025
115 0.004014
125 0.001979
135 0.001989
142 0.002005
149 0.003991
161 0.001994
167 0.003989
176 0.004987
184 0.002975
146 0.002978
97 0.002992
72 0.004976
66 0.004986
70 0.002987
73 0.001996
74 0.001994
78 0.003946
90 0.003006
94 0.003972
95 0.005015
99 0.002993
106 0.00297
113 0.002994
121 0.004986
129 0.004987
139 0.002993
145 0.003971
152 0.002975
159 0.005018
169 0.002048
139 0.005027
96 0.005985
69 0.002972
67 0.003993
71 0.002987
73 0.004987
74 0.004986
84 0.002992
90 0.002993
93 0.001994
93 0.005986
100 0.001986
108 0.006006
116 0.005984
127 0.003957
135 0.003956
141 0.003977
148 0.005984
155 0.006022
165 0.002995
160 0.003994
121 0.003031
86 0.005984
64 0.004002
64 0.006006
66 0.005985
67 0.005999
72 0.003944
78 0.003984
87 0.003943
90 0.005995
90 0.006947
96 0.004944
104 0.00399
112 0.003046
127 0.004952
134 0.00498
140 0.007017
148 0.007018
157 0.005034
162 0.003993
167 0.004968
153 0.006988
112 0.006975
74 0.004947
66 0.004038
66 0.003988
64 0.004013
66 0.003981
73 0.007019
80 0.006982
87 0.004986
92 0.004992
95 0.004982
99 0.007016
107 0.007013
118 0.005969
124 0.004988
132 0.005987
146 0.004992
151 0.004995
157 0.007014
165 0.006982
172 0.004987
179 0.004991
188 0.004992
185 0.00703
136 0.006982
84 0.004944
72 0.004989
70 0.005006
72 0.005975
73 0.004957
76 0.007952
83 0.006981
92 0.005933
95 0.005981
97 0.00598
101 0.007979
107 0.007949
118 0.005966
127 0.005967
134 0.005021
147 0.005022
156 0.00497
161 0.00695
165 0.007969
174 0.005938
182 0.005972
187 0.005966
133 0.007987
104 0.007981
77 0.005996
76 0.006018
80 0.00597
80 0.006008
83 0.004987
91 0.005973
103 0.007027
104 0.007021
104 0.005961
110 0.006016
117 0.006021
128 0.007025
135 0.006975
143 0.005976
151 0.005984
161 0.005976
168 0.005977
175 0.005999
181 0.007973
155 0.006986
99 0.006951
78 0.006952
75 0.00695
75 0.007015
75 0.007019
76 0.006942
79 0.006007
93 0.006959
96 0.005985
97 0.006931
101 0.007016
107 0.007021
115 0.006933
124 0.006981
134 0.006981
141 0.006019
150 0.007011
158 0.006949
165 0.006961
174 0.006979
138 0.00696
96 0.006953
74 0.007014
67 0.006989
67 0.006018
66 0.005984
66 0.005993
72 0.006017
81 0.005986
87 0.005954
89 0.005991
97 0.005973
102 0.005961
110 0.004986
120 0.007025
129 0.005949
138 0.005973
145 0.006978
153 0.005987
160 0.005985
167 0.005985
161 0.005966
118 0.00598
70 0.005992
62 0.005949
61 0.005987
60 0.006008
60 0.00502
62 0.005024
72 0.005989
80 0.00599
84 0.005962
86 0.006016
91 0.005957
101 0.00598
114 0.00495
123 0.00504
132 0.004993
142 0.004985
149 0.004988
154 0.004956
166 0.00499
169 0.004956
135 0.006015
93 0.005986
72 0.006
64 0.005985
68 0.005019
66 0.005989
69 0.004983
79 0.005002
87 0.004989
91 0.005033
94 0.005
99 0.004982
107 0.004947
115 0.004989
123 0.005018
134 0.005
147 0.004988
159 0.004987
164 0.004987
171 0.005021
156 0.004988
114 0.00399
78 0.005032
72 0.004988
74 0.004988
76 0.005007
77 0.003991
87 0.005023
97 0.004986
102 0.004947
102 0.003992
108 0.003998
117 0.00299
125 0.004047
136 0.003991
147 0.005006
153 0.002994
161 0.004988
169 0.003991
179 0.005021
171 0.004031
117 0.003994
87 0.00396
76 0.004024
76 0.004028
77 0.003965
77 0.003956
81 0.003991
89 0.004036
96 0.003954
101 0.003944
103 0.003991
111 0.002999
120 0.003022
134 0.003022
142 0.004024
150 0.003018
158 0.002992
166 0.003026
176 0.00399
184 0.003992
183 0.002959
145 0.003989
104 0.004019
78 0.002993
77 0.003989
77 0.003989
78 0.003006
82 0.003024
89 0.003041
97 0.002996
103 0.003966
104 0.003026
111 0.002992
119 0.002994
128 0.003021
142 0.002992
151 0.002992
161 0.002992
170 0.002995
178 0.002993
187 0.002982
195 0.003007
160 0.003047
113 0.003025
88 0.002982
82 0.00298
83 0.002993
85 0.002032
86 0.003002
98 0.001956
106 0.003023
110 0.002993
112 0.00204
116 0.003027
124 0.001994
133 0.002993
142 0.002994
151 0.001995
160 0.001964
173 0.001937
182 0.00297
193 0.002009
177 0.001964
129 0.00195
95 0.001962
87 0.002026
92 0.001995
96 0.002048
99 0.001993
106 0.002061
114 0.001997
121 0.001963
121 0.001946
126 0.002033
135 0.002045
144 0.002029
153 0.001995
161 0.002049
166 0.002033
177 0.001996
188 0.002015
196 0.001996
183 0.000998
111 0.001996
91 0.001997
89 0.001992
92 0.002018
94 0.002038
96 0.001999
104 0.000997
114 0.001
118 0.002032
119 0.000997
122 0.000996
128 0.000997
143 0.001954
152 0.001995
161 0.002032
172 0.001957
181 0.002026
189 0.001992
191 0.002042
157 0.000997
103 0.000999
87 0.0
86 0.0
88 0.000998
91 0.000998
95 0.000997
103 0.000998
111 0.000998
115 0.000997
117 0.000997
121 0.000998
131 0.000997
141 0.0
150 0.0
160 0.0
167 0.0
180 0.0
190 0.0
196 0.0
149 0.001015
105 0.0
86 0.000998
83 0.0
86 0.000997
91 0.0
95 0.0
100 0.0
108 0.0
115 0.0
118 0.0
122 0.0
131 0.0
139 0.0
148 0.0
157 0.0
165 0.000956
176 0.001016
186 0.000997
195 0.002035
188 0.0
122 0.002043
91 0.0
91 0.001046
95 0.000991
99 0.002031
102 0.002033
112 0.000995
119 0.001004
123 0.000961
124 0.002043
127 0.002961
136 0.000999
147 0.002997
158 0.000967
168 0.000968
176 0.0
184 0.002026
193 0.002034
202 0.000966
179 0.0
130 0.0
100 0.001996
92 0.001995
97 0.0
102 0.002031
108 0.000969
114 0.000996
122 0.000967
125 0.002029
125 0.002033
131 0.001016
138 0.0
145 0.00095
155 0.002052
163 0.002037
174 0.0
186 0.002039
196 0.0
199 0.000963
160 0.0
116 0.00203
95 0.002026
92 0.0
95 0.0
98 0.0
101 0.002993
107 0.002998
117 0.0
121 0.002041
124 0.0
128 0.0
136 0.0
143 0.001995
149 0.001996
162 0.0
170 0.0
178 0.0
187 0.002025
193 0.002043
152 0.0
102 0.00203
87 0.0
89 0.000967
91 0.0
93 0.0
97 0.003018
105 0.002982
112 0.0
115 0.0
116 0.0
119 0.003005
125 0.002995
138 0.002026
146 0.00203
156 0.00199
167 0.0
174 0.000996
180 0.003007
187 0.002998
157 0.001992
113 0.0
89 0.000996
82 0.001993
84 0.002991
89 0.002992
92 0.002992
100 0.002001
107 0.001985
111 0.001983
113 0.003011
115 0.003012
123 0.001957
131 0.0
139 0.00195
145 0.003956
153 0.002992
166 0.002946
174 0.003028
179 0.002005
146 0.002008
106 0.001999
86 0.004026
85 0.003989
89 0.002026
92 0.001995
98 0.001979
104 0.004031
111 0.003992
116 0.003957
115 0.002992
123 0.001994
130 0.001998
138 0.001999
144 0.00403
151 0.004022
163 0.001996
171 0.001984
178 0.002996
179 0.00402
145 0.004035
91 0.004024
84 0.00399
88 0.001984
90 0.002003
93 0.001994
100 0.004984
106 0.003992
112 0.002025
114 0.001994
115 0.001991
120 0.001995
127 0.00402
140 0.002003
148 0.003989
156 0.004987
166 0.003011
173 0.002963
178 0.002972
158 0.005014
116 0.004986
86 0.002997
83 0.002007
85 0.003996
86 0.005033
92 0.003005
99 0.004025
105 0.004022
109 0.00298
110 0.002946
115 0.002978
122 0.005028
128 0.005014
137 0.002028
147 0.001966
153 0.00296
160 0.004945
171 0.002944
177 0.004986
178 0.004987
138 0.001984
104 0.001994
86 0.002985
83 0.005984
71 0.005984
73 0.00298
76 0.003013
82 0.003958
94 0.00502
101 0.002954
103 0.005032
112 0.004986
120 0.003987
125 0.002979
136 0.003974
148 0.005984
156 0.006014
164 0.003976
175 0.002976
183 0.004011
187 0.005982
203 0.003029
180 0.005997
120 0.005984
78 0.00399
74 0.002992
71 0.003985
74 0.006019
78 0.006033
84 0.003994
94 0.004002
103 0.00399
106 0.005986
111 0.00399
116 0.005965
125 0.006015
135 0.005985
147 0.00399
156 0.003995
165 0.004021
173 0.006975
182 0.005986
190 0.004009
197 0.004019
208 0.003998
158 0.004004
104 0.003998
81 0.005962
81 0.006988
87 0.004024
90 0.004975
94 0.004994
100 0.006948
107 0.006982
115 0.003987
116 0.003992
119 0.003976
130 0.00399
139 0.003948
148 0.005983
157 0.006948
169 0.003996
178 0.002993
187 0.004989
192 0.007012
202 0.006978
176 0.004976
123 0.004024
91 0.004984
86 0.004993
91 0.004986
93 0.006981
100 0.007976
107 0.003988
114 0.005019
117 0.005968
120 0.007991
124 0.007941
130 0.004987
141 0.004984
151 0.004993
168 0.005009
177 0.00598
184 0.007014
192 0.00701
200 0.005987
168 0.00599
115 0.005982
83 0.007979
75 0.007935
77 0.005987
80 0.005992
83 0.005991
96 0.004989
103 0.004941
108 0.007015
112 0.006976
112 0.005968
123 0.004977
131 0.005977
138 0.007978
148 0.007951
158 0.007982
166 0.004987
175 0.005946
190 0.005983
189 0.005994
149 0.005994
85 0.007012
66 0.007002
65 0.005992
67 0.006949
68 0.006017
71 0.006976
78 0.007019
88 0.005968
92 0.006021
95 0.005984
101 0.005996
107 0.005991
118 0.00703
130 0.007033
139 0.004971
146 0.00695
158 0.006983
167 0.007013
176 0.007025
184 0.00595
186 0.006967
119 0.006971
71 0.006976
62 0.005952
58 0.006974
62 0.006018
62 0.005965
67 0.005939
76 0.005984
85 0.006017
90 0.006998
91 0.00698
98 0.006946
112 0.006951
118 0.00698
131 0.006997
140 0.005984
149 0.006027
159 0.005984
169 0.005983
176 0.005993
185 0.006027
186 0.006016
119 0.005982
74 0.005982
63 0.006981
66 0.005977
68 0.006979
70 0.006047
78 0.005986
88 0.006098
95 0.005993
95 0.005957
98 0.005989
104 0.005987
114 0.005939
124 0.005976
137 0.005986
149 0.005952
159 0.005985
166 0.00596
174 0.005018
184 0.005033
173 0.004964
118 0.004979
77 0.003938
64 0.005022
66 0.005042
71 0.006025
73 0.006024
82 0.005971
93 0.006005
97 0.004953
100 0.005022
104 0.004988
110 0.005089
118 0.005019
131 0.004992
142 0.00502
148 0.00499
162 0.004988
174 0.004957
185 0.005028
187 0.004957
152 0.00399
99 0.004949
68 0.003991
59 0.004978
62 0.004995
64 0.004978
67 0.005029
74 0.005036
86 0.00499
92 0.004987
93 0.00601
99 0.004984
108 0.005035
120 0.00399
129 0.003991
142 0.004022
153 0.003959
162 0.004025
171 0.003989
178 0.003991
188 0.005034
172 0.004989
99 0.004987
66 0.004995
58 0.003991
61 0.004023
63 0.003957
65 0.00399
73 0.003992
81 0.004031
88 0.003989
92 0.00399
97 0.003991
105 0.002993
117 0.00399
128 0.004986
137 0.002992
149 0.003988
158 0.003991
171 0.00399
180 0.003956
190 0.00399
200 0.003989
210 0.003989
215 0.003989
123 0.004033
80 0.004033
65 0.003991
71 0.002993
75 0.00303
78 0.003035
82 0.001997
96 0.002994
102 0.00399
104 0.003991
106 0.002989
111 0.003023
123 0.003943
137 0.003022
152 0.003026
160 0.003033
171 0.002975
182 0.002995
192 0.002992
203 0.002961
216 0.002991
221 0.00299
233 0.002992
239 0.002991
131 0.002992
87 0.001987
74 0.002996
77 0.002992
86 0.002993
90 0.001995
93 0.002038
106 0.002991
118 0.001991
122 0.002027
123 0.001995
123 0.002032
137 0.002998
147 0.00299
160 0.002994
174 0.002993
182 0.001999
192 0.00296
202 0.002994
215 0.003022
221 0.002059
233 0.001994
206 0.001995
131 0.001995
79 0.001996
82 0.001996
90 0.001995
94 0.001995
101 0.001998
109 0.002046
116 0.002047
121 0.001995
122 0.000998
123 0.00195
132 0.001995
145 0.001998
161 0.002042
170 0.001995
183 0.002994
195 0.001995
204 0.001994
213 0.002
225 0.00104
217 0.000998
123 0.001033
82 0.001
71 0.001002
73 0.002031
82 0.001999
83 0.002026
87 0.002041
104 0.002044
111 0.001958
110 0.002031
111 0.000998
118 0.001995
131 0.000998
143 0.001994
153 0.000999
161 0.00203
180 0.001996
189 0.002031
200 0.002042
205 0.001992
148 0.000998
92 0.001996
64 0.002029
59 0.001964
64 0.002026
67 0.0
69 0.000999
74 0.0
88 0.00097
92 0.000965
95 0.000997
103 0.000998
112 0.000959
120 0.000999
130 0.0
140 0.000997
151 0.001988
161 0.0
172 0.0
180 0.0
176 0.0
117 0.0
68 0.0
47 0.0
47 0.0
50 0.0
51 0.000999
53 0.0
65 0.0
74 0.0
75 0.000997
78 0.0
86 0.0
94 0.0
105 0.0
119 0.0
126 0.002016
138 0.0
147 0.0
154 0.0
167 0.0
177 0.003032
168 0.0
90 0.0
43 0.002044
34 0.0
36 0.000947
40 0.000992
42 0.003027
48 0.002993
62 0.0
67 0.0
70 0.0
72 0.00296
79 0.003023
91 0.0
108 0.002028
119 0.000952
129 0.0
138 0.00099
146 0.00203
153 0.001991
167 0.0
176 0.0
147 0.0
87 0.002034
51 0.002027
44 0.000984
47 0.001994
53 0.0
58 0.0
66 0.0
74 0.002982
77 0.002989
78 0.0
84 0.0
97 0.0
105 0.001971
115 0.002026
128 0.000998
141 0.002046
151 0.00097
160 0.0
169 0.001011
153 0.002028
101 0.002029
55 0.0
48 0.0
52 0.0
56 0.002995
59 0.003025
65 0.0
79 0.003048
86 0.000972
85 0.000957
89 0.0
102 0.001995
113 0.001961
126 0.0
135 0.0
145 0.0
153 0.001993
158 0.001996
171 0.000998
137 0.001982
75 0.000949
54 0.0
51 0.0
52 0.0
52 0.002961
55 0.00303
64 0.0
74 0.0
85 0.0
89 0.003015
90 0.003025
103 0.002031
114 0.00205
124 0.0
135 0.0
145 0.0
152 0.003024
159 0.002999
171 0.002046
159 0.0
112 0.002025
72 0.002995
55 0.003024
53 0.00303
54 0.004005
54 0.0
63 0.001995
72 0.002004
79 0.002992
84 0.002959
86 0.001999
92 0.001986
101 0.002023
112 0.003026
120 0.002949
137 0.002991
145 0.003021
156 0.001962
165 0.001999
174 0.001983
176 0.00402
140 0.003987
79 0.002993
59 0.002996
54 0.002991
52 0.00299
50 0.003023
57 0.003022
66 0.003027
80 0.003032
82 0.003003
84 0.002993
90 0.003977
101 0.00402
113 0.001983
122 0.002
132 0.001992
141 0.003968
148 0.003968
162 0.004005
169 0.004024
178 0.001963
187 0.001989
195 0.002974
162 0.005033
106 0.004024
69 0.002993
70 0.004982
73 0.002967
75 0.004029
78 0.004024
91 0.002028
99 0.004987
101 0.003994
104 0.002993
109 0.002994
117 0.00201
126 0.004987
135 0.006016
148 0.00299
156 0.002006
164 0.002948
174 0.004024
187 0.002026
195 0.005024
200 0.004987
150 0.002992
106 0.002951
85 0.001991
83 0.004999
87 0.004948
91 0.001998
95 0.001964
104 0.001976
113 0.005021
115 0.002022
116 0.004987
121 0.006024
133 0.002968
146 0.002957
155 0.003035
164 0.005984
174 0.004988
183 0.002992
189 0.001994
195 0.003004
202 0.004982
155 0.002025
111 0.004985
90 0.005016
87 0.002012
90 0.002995
91 0.002997
94 0.005982
101 0.005989
112 0.002964
117 0.002978
115 0.002998
119 0.005981
132 0.002989
142 0.005985
150 0.005993
163 0.00399
172 0.00396
178 0.002959
186 0.005982
193 0.00599
203 0.002977
212 0.00399
188 0.002992
133 0.005984
87 0.002992
85 0.006981
88 0.006991
89 0.003993
92 0.00399
100 0.002976
105 0.005969
112 0.005955
114 0.005967
115 0.003961
120 0.00403
130 0.004
145 0.003983
155 0.004991
165 0.006981
171 0.007016
180 0.003989
188 0.00403
195 0.003955
199 0.006977
209 0.006974
168 0.003987
116 0.004031
89 0.00399
81 0.003995
83 0.00399
85 0.006982
86 0.006016
95 0.005007
103 0.004982
106 0.004986
108 0.006977
111 0.006982
118 0.00498
127 0.004987
136 0.004986
152 0.003976
159 0.004991
167 0.007014
173 0.006982
181 0.004984
189 0.00399
199 0.005009
182 0.007939
129 0.007978
92 0.004987
77 0.004976
80 0.005018
86 0.005023
89 0.004985
97 0.006981
104 0.006958
106 0.00594
106 0.005994
110 0.004037
117 0.006981
128 0.006982
143 0.004985
151 0.004987
157 0.004987
170 0.005984
177 0.004982
185 0.007976
194 0.007937
187 0.004994
134 0.00495
90 0.004956
74 0.007948
73 0.007974
77 0.004969
77 0.006017
83 0.006002
94 0.006016
100 0.005985
103 0.007981
101 0.007976
111 0.005994
121 0.004947
133 0.005939
142 0.005016
154 0.007978
159 0.007976
168 0.00597
176 0.005968
184 0.005998
165 0.005983
118 0.005989
72 0.006959
64 0.006977
64 0.005986
65 0.005016
65 0.006016
71 0.007003
78 0.006973
85 0.00698
89 0.005987
94 0.006974
100 0.005984
110 0.005983
121 0.006938
130 0.006992
142 0.005985
152 0.005989
160 0.005981
168 0.00698
176 0.006017
165 0.005983
112 0.005997
62 0.005988
56 0.006028
56 0.006969
57 0.007015
57 0.006983
66 0.005977
70 0.005982
79 0.005983
83 0.005983
86 0.005983
95 0.005983
107 0.005984
120 0.005969
131 0.005956
140 0.005983
149 0.005999
157 0.006034
170 0.005989
178 0.005974
187 0.005956
157 0.006017
105 0.006017
62 0.005978
53 0.004985
62 0.005984
63 0.005984
65 0.006009
75 0.006019
85 0.006018
89 0.00502
90 0.005983
96 0.004986
109 0.004986
119 0.004987
128 0.004987
139 0.004986
151 0.004988
165 0.004992
174 0.004978
182 0.006117
185 0.005943
142 0.006015
81 0.005957
64 0.005971
64 0.005987
68 0.00499
70 0.005029
78 0.00499
89 0.004988
99 0.004998
96 0.004002
100 0.005016
108 0.005017
120 0.005017
134 0.005016
146 0.004979
155 0.00502
164 0.003979
174 0.004981
188 0.004044
184 0.00402
117 0.00398
77 0.003944
62 0.003986
60 0.004963
63 0.004033
65 0.004992
70 0.004997
77 0.004984
87 0.005043
94 0.005034
96 0.004969
105 0.004024
116 0.003943
126 0.003975
137 0.003999
148 0.00399
157 0.004025
177 0.003992
186 0.002991
179 0.002991
132 0.003928
85 0.002996
55 0.004984
56 0.00304
57 0.003045
60 0.004956
68 0.003963
77 0.00399
85 0.003985
88 0.004022
92 0.003986
99 0.003988
110 0.003954
120 0.00399
134 0.003982
149 0.003032
163 0.003067
176 0.002998
187 0.002978
190 0.003033
146 0.00399
93 0.003023
55 0.003993
48 0.003903
53 0.003989
55 0.003952
57 0.00403
71 0.004025
82 0.003991
86 0.004003
88 0.004008
94 0.003955
104 0.00304
115 0.003033
130 0.003034
141 0.003026
151 0.002997
161 0.003026
170 0.003026
187 0.00301
155 0.003991
85 0.001995
56 0.002996
50 0.001995
59 0.002993
62 0.001992
67 0.002035
81 0.002001
90 0.001959
92 0.001996
93 0.002992
104 0.003031
114 0.002993
128 0.002986
141 0.003025
152 0.002995
162 0.001997
173 0.002979
187 0.001978
182 0.002028
131 0.002
83 0.002025
59 0.002033
56 0.002035
58 0.00203
62 0.002005
70 0.002027
80 0.001996
88 0.002961
91 0.001997
96 0.001996
105 0.001995
114 0.001995
123 0.001995
134 0.002027
154 0.002042
166 0.002024
181 0.000959
188 0.001007
155 0.000998
99 0.000999
64 0.000997
53 0.000997
52 0.000997
55 0.002019
59 0.002031
67 0.002049
85 0.002025
88 0.002035
89 0.001013
96 0.000997
107 0.001042
118 0.002013
128 0.000998
138 0.00204
154 0.00195
164 0.001995
174 0.001962
185 0.000999
187 0.0
133 0.002035
82 0.002028
56 0.001997
55 0.001996
57 0.0
58 0.000999
62 0.001
78 0.0
85 0.0
87 0.000997
90 0.000998
100 0.000998
111 0.000997
123 0.000999
137 0.0
149 0.0
159 0.0
168 0.0
179 0.0
192 0.0
202 0.0
195 0.0
138 0.0
71 0.0
61 0.0
63 0.0
70 0.0
74 0.0
79 0.001024
91 0.000998
99 0.0
103 0.0
106 0.0
113 0.0
123 0.0
142 0.0
154 0.0
164 0.0
175 0.0
183 0.0
193 0.000998
203 0.001013
205 0.0
135 0.000998
92 0.000997
75 0.0
79 0.0
87 0.0
92 0.0
105 0.0
118 0.0
122 0.003049
120 0.00301
125 0.0
134 0.0
144 0.000966
155 0.003029
167 0.002991
182 0.0
195 0.00203
206 0.0
212 0.000963
182 0.0
127 0.002997
90 0.003056
79 0.0
83 0.0
86 0.0
91 0.003025
99 0.003034
108 0.0
112 0.003
115 0.0
120 0.0
127 0.000997
137 0.003025
148 0.002991
160 0.0
171 0.0
184 0.000952
193 0.002028
198 0.002025
153 0.000998
102 0.000972
68 0.0
69 0.000949
72 0.000964
74 0.001983
79 0.001991
91 0.000966
98 0.000965
100 0.000978
98 0.002991
104 0.003018
117 0.0
125 0.000993
139 0.0
149 0.0
158 0.001965
169 0.003024
177 0.003042
180 0.0
144 0.0
94 0.0
64 0.002037
56 0.00203
56 0.0
57 0.0
63 0.0
73 0.0
80 0.0
84 0.003023
85 0.002987
89 0.001991
101 0.0
111 0.000963
120 0.000961
130 0.001996
139 0.002026
152 0.0
163 0.002998
173 0.0
149 0.001006
97 0.0
64 0.002999
55 0.003007
56 0.0
59 0.0
61 0.001003
69 0.002995
76 0.002992
86 0.003008
86 0.003033
94 0.003001
104 0.002001
114 0.000947
122 0.004038
130 0.003987
140 0.002987
150 0.002025
160 0.002026
169 0.002963
158 0.002951
98 0.00298
65 0.003011
62 0.002992
68 0.001992
72 0.002031
77 0.003997
87 0.00403
100 0.002991
102 0.002996
98 0.002786
104 0.005984
117 0.003989
131 0.002997
143 0.003028
153 0.002991
160 0.002999
171 0.002991
177 0.004022
175 0.004029
125 0.002003
85 0.002024
68 0.001996
67 0.00399
70 0.004006
73 0.001994
82 0.003974
94 0.001994
99 0.002978
100 0.002
103 0.005
110 0.005016
124 0.001995
133 0.002993
144 0.00299
153 0.003987
161 0.004022
169 0.004039
184 0.004126
178 0.004023
121 0.002981
85 0.002959
70 0.002986
72 0.004982
74 0.004988
76 0.004989
78 0.003003
88 0.003015
98 0.004981
103 0.004992
106 0.005987
112 0.004984
127 0.003043
135 0.001968
146 0.002023
155 0.004982
163 0.00498
174 0.00303
181 0.002993
189 0.002002
197 0.003992
182 0.004986
103 0.004981
82 0.004975
79 0.00299
80 0.00199
82 0.003006
85 0.005985
91 0.005982
105 0.003014
111 0.003009
111 0.003
115 0.004986
122 0.004986
137 0.004963
147 0.004981
158 0.002962
167 0.002991
175 0.002992
182 0.005981
191 0.005983
202 0.00299
176 0.00299
124 0.002989
94 0.006013
86 0.005018
95 0.004996
97 0.004968
102 0.003
111 0.004005
120 0.002993
125 0.005982
125 0.006004
136 0.00402
143 0.003018
152 0.002992
159 0.005984
170 0.006015
185 0.005987
195 0.006005
205 0.002954
208 0.003026
168 0.002987
119 0.004004
94 0.005977
90 0.006995
94 0.004023
97 0.002923
102 0.00399
109 0.007016
120 0.003974
122 0.006981
124 0.006986
133 0.002973
141 0.003987
149 0.004026
160 0.006993
172 0.00699
184 0.003969
192 0.003994
204 0.002992
208 0.006982
129 0.004004
92 0.006985
82 0.006984
85 0.003985
88 0.004023
91 0.004955
99 0.006951
108 0.007945
116 0.004983
120 0.004984
120 0.004956
124 0.006969
142 0.003985
153 0.00697
164 0.006947
175 0.003994
186 0.004986
196 0.003976
205 0.006981
202 0.006979
134 0.003994
92 0.00399
77 0.002986
79 0.007976
82 0.004022
84 0.007973
95 0.007973
103 0.004969
110 0.004993
113 0.005005
114 0.007957
123 0.007966
133 0.002992
142 0.004948
152 0.005988
168 0.006982
180 0.006007
193 0.007972
207 0.007957
212 0.005
163 0.005013
104 0.004989
73 0.007967
74 0.00796
80 0.004987
82 0.004982
83 0.004991
96 0.007981
108 0.005944
111 0.005984
115 0.006982
121 0.006976
129 0.005985
140 0.005019
150 0.004932
165 0.007012
175 0.006974
191 0.006966
198 0.005021
209 0.005987
195 0.005984
129 0.005959
81 0.00696
77 0.006981
82 0.004982
87 0.005993
91 0.005998
102 0.006976
112 0.006978
118 0.005982
116 0.005983
122 0.005952
135 0.005983
141 0.005972
160 0.006989
171 0.006981
183 0.005975
196 0.005984
208 0.006006
212 0.006989
166 0.006985
110 0.005989
71 0.005952
73 0.005933
81 0.005975
83 0.005991
95 0.005979
104 0.006014
109 0.005981
110 0.006014
111 0.006974
119 0.006029
131 0.006996
146 0.005938
158 0.005998
169 0.00599
183 0.006987
196 0.005981
205 0.005961
174 0.00595
113 0.006972
75 0.006975
62 0.005991
64 0.005021
69 0.005984
75 0.005984
85 0.005982
93 0.005986
102 0.005974
102 0.005991
106 0.005981
116 0.006003
133 0.005984
143 0.005985
155 0.006001
167 0.005047
178 0.00502
189 0.004988
193 0.004958
139 0.004965
65 0.004962
56 0.004973
57 0.004968
61 0.004988
63 0.004955
73 0.005005
82 0.004952
90 0.004985
93 0.00498
96 0.004988
105 0.004954
114 0.004955
131 0.004986
144 0.004995
157 0.004931
170 0.005021
181 0.00502
194 0.004956
197 0.004988
141 0.004996
84 0.005027
58 0.004987
52 0.003991
55 0.004952
59 0.004993
71 0.004945
78 0.004938
87 0.00496
90 0.005019
94 0.003936
101 0.004988
110 0.00501
122 0.00399
137 0.003943
150 0.003991
160 0.003992
181 0.003957
192 0.003952
200 0.003958
156 0.003957
96 0.003992
56 0.004957
54 0.003998
61 0.00394
62 0.00399
67 0.003991
81 0.004004
92 0.004009
97 0.003957
99 0.003951
105 0.003957
115 0.003992
126 0.00399
141 0.003951
155 0.003955
167 0.003995
181 0.004022
195 0.003033
199 0.00396
140 0.004034
73 0.004019
56 0.003991
60 0.003991
67 0.003978
71 0.004031
79 0.003038
92 0.003025
99 0.003007
101 0.002992
104 0.004016
111 0.004021
124 0.002993
141 0.002993
159 0.002994
170 0.002992
184 0.001994
197 0.002988
207 0.003024
154 0.003009
91 0.002963
59 0.00403
51 0.003988
54 0.002011
58 0.003996
67 0.002026
79 0.002966
88 0.001984
91 0.002026
93 0.001989
101 0.00203
116 0.003029
126 0.003037
138 0.002961
153 0.003039
166 0.003027
182 0.002028
201 0.001995
200 0.003024
136 0.002992
79 0.002051
53 0.002067
48 0.001997
52 0.002029
55 0.00201
60 0.002028
73 0.002036
84 0.003049
91 0.001983
93 0.002026
101 0.001999
113 0.001995
124 0.001956
140 0.000998
155 0.001993
168 0.002013
184 0.002033
198 0.001996
208 0.001993
184 0.002054
89 0.002026
48 0.001995
48 0.002028
50 0.00199
56 0.000965
65 0.001029
75 0.001999
87 0.000997
93 0.000957
95 0.002031
99 0.001993
107 0.001996
119 0.00203
143 0.002035
156 0.002035
176 0.000989
