165 0.000998
167 0.001035
170 0.0
173 0.002002
176 0.002992
152 0.003861
60 0.005986
38 0.005988
36 0.006945
46 0.005998
61 0.006002
89 0.00499
100 0.004988
101 0.005021
105 0.004988
112 0.005017
122 0.004987
133 0.004986
139 0.005149
149 0.003022
154 0.002994
157 0.002957
149 0.002986
114 0.003017
63 0.001991
60 0.000995
72 0.001995
96 0.0
123 0.001997
129 0.001995
128 0.002994
131 0.002993
136 0.002992
147 0.002992
154 0.002994
166 0.002994
175 0.003991
178 0.004987
182 0.005955
185 0.00698
169 0.00698
83 0.006954
54 0.00694
56 0.00695
72 0.006951
90 0.006979
119 0.006956
124 0.007944
122 0.007944
122 0.007982
129 0.007952
138 0.006975
146 0.007026
154 0.006018
161 0.006027
165 0.006005
166 0.004985
169 0.003985
172 0.004988
146 0.003977
84 0.005028
57 0.004046
53 0.004034
73 0.002992
92 0.002027
116 0.0
118 0.0
117 0.000998
118 0.001995
127 0.001995
134 0.002993
144 0.004988
152 0.004946
150 0.005941
104 0.007024
63 0.00703
60 0.006958
78 0.00702
105 0.005998
121 0.006024
129 0.006032
127 0.005984
126 0.006027
133 0.005984
139 0.006123
150 0.006023
158 0.003989
150 0.00399
87 0.004024
63 0.003989
62 0.004023
85 0.002992
104 0.00399
129 0.002993
130 0.004027
129 0.002029
132 0.0
138 0.000998
148 0.000998
161 0.001036
168 0.0
178 0.000998
175 0.001995
139 0.002963
69 0.002993
59 0.002963
71 0.004986
95 0.005025
128 0.005984
135 0.006974
132 0.006981
131 0.006942
136 0.006982
147 0.006935
152 0.007765
160 0.007978
168 0.007979
171 0.007979
150 0.007031
104 0.006982
59 0.007013
64 0.007061
80 0.006245
110 0.007033
127 0.007016
133 0.004027
128 0.002979
130 0.002028
136 0.002992
147 0.002992
153 0.002987
161 0.003127
166 0.002033
169 0.002993
173 0.002028
169 0.003025
91 0.000999
46 0.0
39 0.000998
50 0.000997
76 0.000997
94 0.001009
111 0.001995
113 0.00305
115 0.003947
124 0.003989
131 0.00399
143 0.004032
153 0.004033
154 0.00399
112 0.003955
73 0.004956
67 0.004953
84 0.004987
114 0.004985
140 0.004999
146 0.004986
141 0.004957
139 0.004953
142 0.004955
152 0.004991
137 0.005986
102 0.007029
72 0.006978
88 0.006981
112 0.006978
138 0.005984
159 0.005984
158 0.006025
150 0.004988
150 0.004988
157 0.004987
169 0.006062
176 0.004988
186 0.006013
191 0.001993
193 0.002039
193 0.0
195 0.000997
197 0.000998
192 0.001007
85 0.001016
41 0.001007
28 0.001995
37 0.001947
63 0.001995
96 0.002058
105 0.001996
106 0.002028
107 0.001996
115 0.001996
126 0.001812
134 0.001955
143 0.001995
145 0.003993
119 0.003983
83 0.003991
77 0.003984
97 0.003853
136 0.004946
150 0.006014
151 0.007963
145 0.006034
143 0.004988
145 0.005036
155 0.004987
163 0.004171
167 0.004029
136 0.004006
54 0.003987
37 0.004019
45 0.003989
72 0.004032
99 0.004995
110 0.004018
111 0.00399
111 0.004177
117 0.003989
128 0.002028
136 0.001994
148 0.001055
155 0.0
160 0.003047
163 0.00196
168 0.001995
164 0.001994
90 0.002027
52 0.002993
39 0.001986
58 0.002895
78 0.004974
112 0.003993
119 0.004986
117 0.005039
119 0.005
125 0.004969
137 0.004994
147 0.004987
157 0.005984
164 0.006022
168 0.005991
171 0.006017
174 0.007979
179 0.006982
181 0.006982
179 0.006984
128 0.006948
61 0.006981
39 0.007003
49 0.006981
73 0.007018
93 0.00703
113 0.005989
110 0.005983
110 0.004032
118 0.003989
127 0.004986
137 0.003947
144 0.005017
147 0.004021
117 0.003984
69 0.00399
62 0.004036
82 0.002027
119 0.00104
132 0.001995
133 0.0
128 0.0
127 0.002007
134 0.001951
145 0.002001
151 0.002957
159 0.003984
139 0.006029
92 0.006967
48 0.00707
43 0.005984
54 0.004995
77 0.004024
105 0.003987
112 0.003026
110 0.003028
112 0.001995
119 0.001029
131 0.000964
139 0.001949
149 0.000999
155 0.0
159 0.000999
162 0.000977
163 0.000962
139 0.000954
62 0.000956
44 0.000998
49 0.000995
74 0.00183
95 0.00297
120 0.005028
119 0.007016
119 0.00703
126 0.007016
135 0.007012
146 0.007016
157 0.007014
161 0.007979
168 0.00794
173 0.007979
175 0.007979
179 0.007954
180 0.005984
184 0.005985
189 0.005018
193 0.002997
193 0.002984
120 0.002982
61 0.003029
32 0.001008
46 0.0
68 0.000961
86 0.000853
102 0.000946
103 0.00104
105 0.002962
114 0.004016
121 0.004019
133 0.003995
139 0.004011
130 0.00399
94 0.004987
70 0.006986
73 0.007909
103 0.007937
126 0.007935
143 0.005984
139 0.004977
135 0.003989
138 0.002975
146 0.002983
152 0.001999
161 0.001
161 0.001033
146 0.0
68 0.001007
42 0.000969
47 0.000997
70 0.002949
103 0.003961
114 0.005029
113 0.004995
111 0.005028
118 0.005028
126 0.005034
134 0.005021
147 0.005035
158 0.006015
162 0.007016
157 0.007949
110 0.005959
70 0.005993
53 0.003978
70 0.004001
89 0.004003
122 0.003989
129 0.001994
126 0.001037
127 0.001996
132 0.001035
142 0.001992
152 0.002026
149 0.001995
99 0.001989
68 0.0
73 0.000998
97 0.0
136 0.002003
147 0.002023
143 0.002039
139 0.001959
139 0.001993
147 0.002029
154 0.002042
165 0.00196
165 0.001958
110 0.001996
52 0.002025
48 0.001992
64 0.00402
96 0.005029
113 0.007032
119 0.007939
117 0.006934
117 0.00597
124 0.00598
136 0.004033
143 0.003991
153 0.00399
153 0.002989
123 0.003975
61 0.003009
52 0.004022
65 0.002996
94 0.002982
107 0.002984
125 0.003022
123 0.001996
122 0.001101
128 0.001
139 0.0
151 0.0
159 0.000989
165 0.000999
171 0.000999
174 0.002
177 0.002859
179 0.002993
184 0.002988
187 0.002992
194 0.004029
182 0.005027
77 0.007014
38 0.007945
35 0.007932
45 0.007937
71 0.007945
92 0.007015
110 0.004997
111 0.005004
115 0.005027
125 0.005025
133 0.004995
146 0.005032
154 0.005995
161 0.004996
165 0.005026
168 0.004989
173 0.004989
171 0.003987
146 0.004033
80 0.003991
63 0.003026
74 0.004031
108 0.002974
129 0.003989
139 0.003045
132 0.002034
132 0.002034
137 0.002035
145 0.000997
151 0.000966
163 0.0
166 0.002023
168 0.002015
171 0.003989
174 0.004021
177 0.004028
180 0.004027
183 0.004024
185 0.005035
189 0.007012
178 0.007011
103 0.006985
40 0.007019
34 0.007022
44 0.006984
58 0.007015
89 0.007972
103 0.006
103 0.006017
103 0.003992
110 0.003968
119 0.003032
131 0.003036
143 0.003013
149 0.002992
155 0.003131
157 0.003009
152 0.003997
102 0.003985
76 0.00399
70 0.004033
80 0.003978
116 0.002985
141 0.002017
141 0.003043
136 0.001963
135 0.001011
139 0.001023
150 0.0
160 0.0
165 0.001988
170 0.002042
170 0.002994
151 0.002995
79 0.005034
55 0.005821
59 0.007037
84 0.007942
104 0.00795
119 0.006014
122 0.004031
117 0.004008
118 0.003972
126 0.003158
133 0.003002
144 0.003028
151 0.002023
154 0.002989
158 0.001029
149 0.00099
114 0.001042
56 0.001045
47 0.001028
57 0.00102
77 0.001397
96 0.001028
113 0.000998
111 0.002026
112 0.001043
119 0.001009
125 0.000998
137 0.002994
148 0.005986
152 0.006015
157 0.005984
161 0.006015
153 0.006044
104 0.005861
54 0.007976
50 0.007026
58 0.006
82 0.003999
101 0.004007
117 0.003037
114 0.003034
115 0.003042
123 0.002993
130 0.002026
142 0.002012
152 0.000992
155 0.0
157 0.0
119 0.000966
85 0.0
64 0.001995
72 0.002039
95 0.001996
120 0.001888
133 0.001995
131 0.001997
130 0.004001
133 0.004025
143 0.00603
156 0.005976
163 0.005956
170 0.006974
174 0.006012
174 0.005031
177 0.004027
158 0.00403
109 0.004019
55 0.003993
51 0.005156
65 0.001997
86 0.003964
110 0.003027
118 0.004036
115 0.003989
117 0.003989
125 0.004024
131 0.00399
141 0.004031
147 0.003026
149 0.002038
114 0.0
79 0.001001
72 0.0
93 0.0
115 0.0
140 0.0
136 0.0
133 0.0
132 0.001003
140 0.003069
147 0.002992
157 0.00399
164 0.004987
167 0.004987
170 0.007015
172 0.007979
174 0.007095
178 0.00502
181 0.003025
183 0.000998
126 0.000999
48 0.001041
36 0.001221
42 0.001
57 0.000998
80 0.000993
100 0.0
103 0.000997
104 0.000998
112 0.003014
120 0.003023
131 0.00504
142 0.006986
149 0.007979
156 0.005034
161 0.005984
167 0.00403
169 0.00399
176 0.003998
178 0.003991
155 0.003024
81 0.001969
61 0.002992
65 0.001995
92 0.0
113 0.0
132 0.0
131 0.0
127 0.000991
131 0.0
136 0.001011
147 0.001004
157 0.0
162 0.000997
166 0.000997
167 0.000994
154 0.001001
93 0.000998
69 0.003037
66 0.002974
83 0.00499
112 0.005974
130 0.006981
130 0.007023
126 0.006983
125 0.005035
133 0.004017
140 0.005031
150 0.00399
155 0.003025
138 0.003026
80 0.002992
63 0.003009
68 0.003009
95 0.003025
113 0.003025
127 0.003027
126 0.003027
123 0.003022
127 0.004023
135 0.001038
144 0.002039
155 0.001995
160 0.001995
165 0.0
167 0.0
170 0.0
173 0.000997
176 0.002993
179 0.004042
183 0.005025
187 0.005989
183 0.006984
97 0.006959
52 0.007013
35 0.006981
46 0.006974
59 0.007034
89 0.006969
104 0.006981
107 0.007014
107 0.007005
114 0.007023
123 0.007021
133 0.007973
130 0.007978
115 0.006023
113 0.004019
130 0.003989
159 0.003034
166 0.003986
164 0.002028
162 0.002032
163 0.002026
167 0.002035
174 0.002036
179 0.002993
184 0.001035
185 0.00101
187 0.001053
186 0.002037
188 0.0
188 0.000999
190 0.000999
192 0.001003
195 0.000998
196 0.000998
197 0.000998
134 0.002997
49 0.002986
26 0.005954
29 0.00798
51 0.00602
71 0.006018
91 0.006023
96 0.006984
95 0.005985
103 0.004994
108 0.005017
120 0.005024
132 0.00502
137 0.005022
146 0.004016
150 0.004029
155 0.003021
158 0.004031
163 0.002033
166 0.000997
169 0.0
154 0.000956
77 0.0
47 0.0
48 0.000964
64 0.0
83 0.001002
112 0.000958
118 0.001011
116 0.000984
118 0.002025
127 0.003984
134 0.004036
146 0.004975
158 0.006959
162 0.007015
167 0.005955
171 0.005984
173 0.004983
176 0.005984
181 0.006024
183 0.005976
166 0.006026
115 0.006018
52 0.00498
45 0.005021
59 0.003989
89 0.001994
116 0.001996
119 0.001993
115 0.00203
114 0.002033
120 0.0
130 0.0
138 0.0
148 0.0
151 0.000998
152 0.000991
122 0.000998
77 0.0
61 0.002001
75 0.001999
95 0.002002
128 0.002
135 0.002001
131 0.001998
128 0.004027
131 0.003985
136 0.004013
147 0.003985
150 0.005018
115 0.005018
63 0.005019
56 0.004986
70 0.006979
96 0.005998
116 0.005942
131 0.006018
128 0.00598
124 0.005981
129 0.005982
136 0.005993
147 0.006018
156 0.007946
165 0.005027
170 0.001996
173 0.001995
174 0.001995
179 0.001997
184 0.001995
135 0.0
56 0.0
44 0.0
51 0.0
70 0.000998
98 0.0
121 0.000972
121 0.0
119 0.0
124 0.0
131 0.0
143 0.0
149 0.0
160 0.0
167 0.0
169 0.0
171 0.000997
174 0.000984
171 0.001018
139 0.001026
82 0.001
58 0.001003
70 0.002001
88 0.002
122 0.002993
133 0.00399
130 0.00395
126 0.003989
132 0.004991
137 0.004954
149 0.006999
154 0.006978
162 0.006984
167 0.007019
168 0.006971
163 0.006982
120 0.007012
67 0.004994
53 0.005988
61 0.004984
81 0.005981
116 0.005981
126 0.00599
123 0.005
121 0.004024
125 0.004987
135 0.003989
142 0.005031
153 0.001995
155 0.000998
133 0.000998
84 0.0
62 0.002994
76 0.002978
95 0.003026
128 0.005025
135 0.007013
133 0.006965
129 0.005984
133 0.005987
141 0.004986
151 0.003991
162 0.002993
168 0.00399
174 0.000998
176 0.0
178 0.0
181 0.0
182 0.0
187 0.0
173 0.001014
114 0.001008
45 0.000997
40 0.001863
49 0.001992
76 0.001983
94 0.001955
110 0.00196
110 0.001817
112 0.001995
121 0.003023
130 0.004022
139 0.005025
146 0.005031
152 0.005984
156 0.006016
161 0.005956
162 0.007016
163 0.007944
137 0.006985
97 0.007978
63 0.006988
66 0.007979
92 0.007029
128 0.006991
138 0.004995
133 0.004985
129 0.004014
130 0.003993
138 0.002992
147 0.00399
154 0.003033
161 0.003991
165 0.001996
167 0.001995
170 0.001994
171 0.00198
175 0.002038
174 0.00103
142 0.001996
59 0.0
39 0.000998
43 0.001995
61 0.002992
80 0.003026
106 0.003025
109 0.002992
108 0.002993
113 0.004038
124 0.005044
131 0.005031
142 0.005044
148 0.004013
156 0.005019
160 0.005018
163 0.005875
165 0.006036
169 0.007015
171 0.007011
175 0.00797
179 0.007979
185 0.007943
183 0.006986
146 0.007935
62 0.00697
44 0.006953
50 0.006978
75 0.004991
109 0.003033
118 0.002007
112 0.003038
111 0.002027
116 0.001995
125 0.002986
136 0.001996
144 0.003029
153 0.002987
156 0.00298
155 0.001995
139 0.001038
86 0.000948
68 0.0
75 0.00098
100 0.001004
133 0.001045
140 0.000997
135 0.002021
130 0.002982
132 0.00399
139 0.006025
149 0.00703
154 0.007027
162 0.005978
167 0.00499
168 0.003994
170 0.003986
173 0.003997
175 0.002004
162 0.003005
93 0.002026
45 0.003032
38 0.000991
47 0.000981
70 0.0
94 0.0
106 0.0
105 0.000854
108 0.000971
113 0.001002
125 0.000998
133 0.000998
143 0.001028
153 0.001043
155 0.001037
159 0.002045
161 0.001995
165 0.002008
170 0.001995
173 0.002026
178 0.00095
181 0.004021
185 0.006018
173 0.006039
86 0.007012
53 0.00795
43 0.005952
57 0.004034
73 0.003992
105 0.001002
117 0.00101
114 0.000991
114 0.000967
121 0.0
127 0.0
139 0.0
144 0.0
153 0.0
159 0.0
160 0.0
164 0.0
167 0.000968
170 0.001047
174 0.002993
177 0.00203
163 0.003037
100 0.002984
55 0.002994
49 0.002995
67 0.004039
86 0.00502
115 0.006982
120 0.005995
117 0.006072
115 0.004196
121 0.003992
127 0.003993
139 0.003039
142 0.003031
126 0.003035
85 0.002966
77 0.001997
97 0.001983
128 0.004026
147 0.001995
150 0.002013
141 0.00103
140 0.001041
144 0.0
150 0.000998
160 0.001039
167 0.000877
171 0.000998
173 0.001038
176 0.001995
178 0.003958
179 0.006019
182 0.005983
184 0.007984
188 0.005987
173 0.007009
110 0.007026
38 0.006039
30 0.006984
40 0.007011
61 0.007977
80 0.007046
101 0.007889
103 0.00702
102 0.006026
110 0.00602
122 0.003994
129 0.001996
141 0.002005
147 0.003056
156 0.000958
161 0.001958
163 0.002996
166 0.001006
172 0.002036
173 0.002044
149 0.0
89 0.000984
60 0.001003
56 0.000998
66 0.001997
98 0.001873
124 0.002996
125 0.005022
119 0.005978
119 0.005984
125 0.006024
133 0.006021
144 0.005983
150 0.006047
154 0.005984
149 0.007014
100 0.005986
63 0.006018
63 0.005946
83 0.006968
111 0.004983
125 0.003986
128 0.004033
124 0.002089
124 0.0
131 0.0
140 0.002028
147 0.0
135 0.0
101 0.000998
64 0.001995
69 0.001995
83 0.002991
116 0.00399
130 0.004025
128 0.004028
124 0.003978
127 0.004019
134 0.004086
144 0.003895
150 0.003959
157 0.003988
134 0.006025
91 0.006028
56 0.005792
61 0.006968
73 0.006986
97 0.005984
118 0.006022
121 0.003947
119 0.004987
121 0.004033
127 0.004054
139 0.003989
147 0.003037
156 0.002121
161 0.0
161 0.002055
144 0.000997
75 0.0
63 0.000998
68 0.0
93 0.000997
114 0.002041
129 0.003997
123 0.004973
123 0.00598
129 0.005994
133 0.005984
144 0.00599
154 0.006052
158 0.006061
161 0.006016
163 0.006014
165 0.00602
167 0.005993
170 0.006972
172 0.007935
176 0.007945
174 0.007979
104 0.007023
47 0.005
43 0.005984
53 0.004983
67 0.006166
94 0.005021
106 0.004991
104 0.004045
108 0.002023
118 0.001993
125 0.00103
137 0.000985
145 0.001966
150 0.00199
150 0.001995
140 0.0
97 0.002022
82 0.001986
90 0.002952
122 0.002992
145 0.003986
149 0.004945
142 0.004034
139 0.003981
143 0.00499
152 0.006017
159 0.005987
166 0.006001
174 0.007018
176 0.006041
177 0.005989
180 0.004975
182 0.004021
186 0.001993
189 0.00399
190 0.001994
192 0.002992
195 0.003028
196 0.003179
198 0.002992
200 0.002992
194 0.003042
91 0.002031
46 0.003042
32 0.002051
37 0.002992
57 0.002203
86 0.001995
96 0.002011
98 0.000976
103 0.0
106 0.00101
117 0.002992
129 0.002993
136 0.002994
146 0.002992
152 0.00399
155 0.003985
159 0.005024
163 0.007031
165 0.00702
169 0.005986
174 0.004988
176 0.003979
180 0.002981
183 0.0
185 0.001038
187 0.0
189 0.0
181 0.0
99 0.002019
43 0.001989
40 0.001997
54 0.001996
70 0.001991
101 0.002991
113 0.002998
110 0.002974
110 0.002993
115 0.003022
126 0.002951
139 0.002993
145 0.002957
152 0.002992
158 0.004035
161 0.005019
160 0.005019
125 0.007018
88 0.007001
61 0.007021
60 0.007974
80 0.00599
115 0.004997
130 0.004019
134 0.002985
128 0.002985
129 0.002992
136 0.002184
145 0.002034
154 0.001007
163 0.002003
168 0.001022
170 0.001992
172 0.001985
174 0.0
176 0.0
164 0.0
102 0.0
53 0.0
45 0.0
56 0.0
85 0.0
104 0.0
117 0.0
115 0.0
114 0.0
121 0.0
126 0.001007
136 0.000998
145 0.002997
141 0.002955
99 0.003998
71 0.004026
76 0.004025
108 0.004028
130 0.004021
143 0.004022
139 0.004022
134 0.00403
135 0.004954
142 0.006014
149 0.007967
158 0.007014
166 0.004982
169 0.005984
172 0.003023
174 0.001032
174 0.001179
177 0.000996
180 0.000996
183 0.000978
186 0.000976
189 0.000996
191 0.001046
163 0.001995
93 0.001992
28 0.001995
24 0.001995
34 0.001963
58 0.002014
77 0.001995
96 0.00202
96 0.00208
98 0.000956
108 0.001043
116 0.002037
129 0.000987
136 0.001017
146 0.0
154 0.0
156 0.0
161 0.000964
165 0.000998
168 0.003
172 0.002954
177 0.002996
180 0.002992
184 0.004987
187 0.006979
183 0.006981
150 0.007986
62 0.006984
42 0.005984
46 0.005969
57 0.005984
89 0.005981
112 0.004012
113 0.004992
110 0.003994
113 0.00199
118 0.001989
129 0.002001
140 0.000959
146 0.0
151 0.0
154 0.0
156 0.000999
159 0.000951
161 0.00084
154 0.000988
94 0.001005
62 0.000998
52 0.000992
66 0.002992
91 0.002992
115 0.003034
123 0.003953
119 0.004024
117 0.005049
121 0.006064
131 0.006034
142 0.006014
149 0.006015
157 0.005812
161 0.006051
162 0.007024
166 0.00699
167 0.005965
170 0.007016
173 0.005974
178 0.00398
182 0.00623
185 0.005975
187 0.003992
189 0.003033
190 0.000959
192 0.000966
188 0.0
147 0.000993
51 0.0
27 0.0
30 0.0
50 0.0
74 0.00096
91 0.001028
100 0.001019
98 0.001997
102 0.001996
112 0.001995
119 0.001963
132 0.001995
140 0.001946
146 0.001989
152 0.003024
154 0.003957
157 0.003991
159 0.003951
150 0.003993
104 0.004025
59 0.004964
55 0.004816
74 0.004971
95 0.005033
125 0.004954
128 0.00501
123 0.004987
121 0.005108
123 0.005985
133 0.007035
145 0.006984
149 0.006966
156 0.006979
159 0.00698
161 0.006987
164 0.006973
164 0.005985
167 0.00499
171 0.00599
174 0.004992
176 0.005984
180 0.006013
180 0.005979
145 0.005984
86 0.005973
34 0.004987
35 0.001996
44 0.003197
70 0.003041
97 0.00099
102 0.0
100 0.002035
102 0.001999
110 0.0
118 0.001956
128 0.0
136 0.002003
145 0.001992
150 0.000947
154 0.002993
156 0.002993
159 0.002996
162 0.003063
168 0.004022
168 0.00503
134 0.00503
86 0.005039
46 0.005022
49 0.005026
61 0.006024
84 0.006955
110 0.005978
114 0.004986
110 0.004974
114 0.004982
119 0.005041
130 0.004993
137 0.004989
147 0.004019
154 0.005984
159 0.004036
160 0.003992
163 0.003981
166 0.004033
167 0.004036
135 0.0
89 0.002027
55 0.0
55 0.00199
65 0.002029
94 0.004041
118 0.004023
118 0.004025
114 0.003992
115 0.003992
121 0.005029
132 0.006961
136 0.007021
146 0.005983
150 0.006018
146 0.006029
99 0.006031
65 0.00603
61 0.002975
73 0.002993
104 0.001001
121 0.000978
128 0.0
123 0.0
122 0.001029
128 0.001009
135 0.000992
145 0.001004
155 0.001994
155 0.002994
111 0.003036
61 0.002992
55 0.004989
67 0.00503
94 0.006024
111 0.00503
122 0.006987
120 0.00796
120 0.005989
126 0.007948
132 0.006986
143 0.007963
152 0.007978
158 0.007987
165 0.007787
167 0.007975
168 0.007103
171 0.007032
168 0.007978
104 0.006027
58 0.007969
49 0.006032
60 0.003999
73 0.002992
103 0.003986
115 0.003995
114 0.003987
116 0.004048
123 0.002992
133 0.000944
142 0.001008
153 0.001048
158 0.001043
164 0.002033
167 0.001042
169 0.000983
172 0.0
174 0.002001
178 0.001002
182 0.001006
184 0.000997
187 0.002005
188 0.001072
188 0.000998
128 0.001996
74 0.002026
43 0.004038
50 0.004024
62 0.00399
91 0.005029
108 0.005852
107 0.005985
106 0.006019
110 0.006028
118 0.006037
129 0.006978
134 0.008019
146 0.007945
152 0.006
154 0.007966
157 0.005988
159 0.00798
163 0.005947
168 0.004986
171 0.005019
175 0.005981
172 0.005994
112 0.005221
58 0.00603
52 0.006028
64 0.004956
77 0.004984
108 0.004998
120 0.005984
117 0.003991
116 0.00518
124 0.004986
130 0.005032
141 0.002999
150 0.001996
157 0.002992
164 0.0
166 0.001029
168 0.0
172 0.001005
173 0.0
177 0.001011
181 0.000997
180 0.001004
126 0.000998
59 0.002031
49 0.002993
57 0.005982
82 0.006009
101 0.006016
120 0.006014
120 0.007979
118 0.006981
122 0.007976
128 0.006003
139 0.007978
148 0.007979
157 0.007975
163 0.007984
165 0.007966
167 0.006981
169 0.005966
171 0.006018
159 0.004993
94 0.005088
65 0.003983
60 0.003
70 0.003041
103 0.00303
126 0.004038
130 0.000972
124 0.002992
122 0.002048
125 0.002041
135 0.0
146 0.000998
153 0.002031
158 0.002016
162 0.001996
164 0.001959
167 0.001995
168 0.001996
167 0.002027
113 0.001995
72 0.001996
49 0.004026
61 0.005987
75 0.006036
108 0.006014
119 0.006024
119 0.005984
118 0.006093
121 0.006025
132 0.006973
139 0.006983
148 0.004972
156 0.005036
163 0.005024
164 0.004988
166 0.005032
170 0.00203
173 0.002993
177 0.002028
180 0.0
185 0.002025
192 0.002993
197 0.003991
200 0.005059
202 0.005031
204 0.00579
205 0.006974
208 0.006969
212 0.005979
208 0.005973
110 0.003994
43 0.005035
29 0.004024
36 0.005005
53 0.003004
79 0.005025
103 0.005021
104 0.005023
102 0.005031
105 0.004987
114 0.005039
126 0.002998
134 0.005032
143 0.002995
146 0.004022
142 0.002986
100 0.00199
76 0.001995
71 0.002049
95 0.002028
126 0.000959
145 0.000969
143 0.002992
136 0.004001
133 0.004977
138 0.006029
145 0.006063
153 0.005976
160 0.005981
163 0.005988
167 0.006023
168 0.006027
170 0.006031
173 0.006027
175 0.006014
179 0.006019
180 0.006996
183 0.006985
185 0.007047
186 0.006989
188 0.005978
191 0.004035
192 0.003991
145 0.002027
54 0.003048
19 0.000979
18 0.002982
32 0.002992
47 0.002992
77 0.002969
87 0.002027
89 0.000998
93 0.0
98 0.001987
106 0.0
119 0.001003
126 0.001012
134 0.002955
134 0.002992
117 0.004985
75 0.004987
66 0.00589
77 0.006014
114 0.005985
132 0.005981
141 0.006019
135 0.006
131 0.004986
133 0.001994
140 0.000993
152 0.0
158 0.0
158 0.0
132 0.0
62 0.0
46 0.0
53 0.0
72 0.0
105 0.0
118 0.0
119 0.0
117 0.001
119 0.001995
128 0.00402
139 0.006017
145 0.006986
152 0.005989
157 0.007015
161 0.005988
163 0.00697
164 0.005986
149 0.005021
75 0.004988
49 0.004983
46 0.004987
67 0.003024
85 0.004986
110 0.002997
113 0.004949
110 0.002982
115 0.00303
120 0.002978
131 0.000982
141 0.001031
147 0.0
154 0.0
157 0.000997
159 0.001995
162 0.002962
167 0.003028
167 0.002992
133 0.002959
85 0.003965
49 0.00403
51 0.003999
66 0.005046
91 0.004986
111 0.00498
115 0.005021
112 0.004983
114 0.004992
123 0.005082
134 0.006009
141 0.00698
149 0.006952
147 0.007009
110 0.006953
78 0.005017
72 0.006003
90 0.004989
125 0.005018
141 0.00498
142 0.004977
137 0.004987
135 0.00399
140 0.004038
148 0.003001
156 0.003991
167 0.002998
171 0.00399
174 0.002991
175 0.003991
177 0.003039
181 0.002008
183 0.00202
186 0.002036
189 0.001989
179 0.002002
83 0.001991
45 0.002032
34 0.001957
45 0.003985
65 0.001996
89 0.001031
105 0.000998
104 0.000997
104 0.003019
110 0.002993
120 0.005026
129 0.003975
139 0.005029
144 0.004959
148 0.004983
148 0.005024
120 0.004954
80 0.005039
76 0.005023
97 0.004993
120 0.00502
147 0.006036
146 0.005985
141 0.005984
137 0.00499
140 0.005023
150 0.006035
160 0.00594
165 0.00597
168 0.006981
152 0.007994
90 0.005054
54 0.004981
53 0.00499
63 0.00399
92 0.002994
118 0.000998
121 0.00298
118 0.000992
118 0.002033
126 0.0
136 0.0
143 0.0
154 0.0
161 0.0
164 0.0
167 0.001008
171 0.002004
172 0.001953
138 0.003003
89 0.002993
52 0.002957
55 0.002992
70 0.004031
97 0.002992
122 0.003981
124 0.004957
120 0.006017
120 0.00603
129 0.005952
142 0.005983
149 0.007979
157 0.006976
164 0.006986
168 0.004986
170 0.004987
171 0.004983
173 0.004976
179 0.003977
183 0.002003
185 0.0
188 0.001003
191 0.001001
192 0.000996
173 0.002038
114 0.002037
45 0.002036
40 0.0
49 0.002037
71 0.001044
102 0.002026
109 0.001009
107 0.001997
106 0.001841
113 0.001999
124 0.004069
130 0.005024
141 0.00599
149 0.006032
152 0.006971
155 0.005979
159 0.006975
161 0.006014
165 0.005981
159 0.005987
102 0.006001
65 0.006011
60 0.004992
76 0.007028
109 0.005984
126 0.004977
132 0.004031
125 0.002037
125 0.003033
131 0.0
143 0.0
149 0.0
160 0.0
164 0.0
166 0.001043
168 0.0
170 0.0
163 0.001993
99 0.002997
66 0.002992
54 0.00296
61 0.002987
87 0.002992
113 0.003021
125 0.002936
123 0.003024
120 0.004024
123 0.005027
134 0.005035
141 0.004989
152 0.005023
161 0.004989
165 0.005024
166 0.006982
152 0.006988
118 0.004982
68 0.004987
64 0.003992
77 0.004022
109 0.005002
127 0.004985
136 0.003995
130 0.006024
128 0.003023
132 0.006046
143 0.004002
150 0.003988
160 0.001043
167 0.000964
168 0.0
165 0.001038
112 0.00099
75 0.000998
57 0.001027
65 0.001031
92 0.002028
124 0.002027
132 0.002002
126 0.001995
123 0.002029
127 0.002961
138 0.003992
144 0.004051
151 0.003991
124 0.00399
93 0.003992
72 0.004033
79 0.004027
112 0.003979
139 0.004022
148 0.004022
142 0.004023
136 0.004003
138 0.004024
147 0.005018
154 0.006025
164 0.006982
172 0.006981
173 0.007027
141 0.006982
89 0.006952
52 0.00695
52 0.006981
62 0.005981
90 0.005028
114 0.005993
121 0.005097
118 0.006982
120 0.003971
126 0.00402
138 0.005027
150 0.002009
156 0.001996
164 0.0
167 0.002024
169 0.0
171 0.0
174 0.001002
177 0.0
182 0.0
185 0.0
190 0.0
192 0.0
195 0.0
198 0.0
200 0.003002
202 0.002031
203 0.004022
205 0.003025
205 0.002992
205 0.002993
206 0.003005
180 0.005028
76 0.006011
27 0.006974
24 0.007009
32 0.007012
58 0.006975
87 0.006951
94 0.00794
96 0.006157
98 0.007976
104 0.00498
114 0.005988
122 0.005981
133 0.003997
138 0.004991
144 0.005026
138 0.004037
118 0.003998
85 0.003947
85 0.004987
109 0.001997
140 0.003989
158 0.003989
156 0.003989
148 0.002987
145 0.004029
149 0.002953
158 0.002033
164 0.002013
172 0.00204
176 0.001028
179 0.00103
181 0.00205
181 0.001997
185 0.00098
181 0.001977
98 0.001998
42 0.002993
30 0.002007
39 0.002037
64 0.001004
84 0.002024
107 0.001038
109 0.00104
107 0.002018
112 0.0
119 0.002028
128 0.0
139 0.002031
144 0.001008
143 0.000997
122 0.000997
77 0.002031
74 0.000998
88 0.000998
126 0.002009
150 0.003003
150 0.004023
142 0.004992
140 0.006024
143 0.006982
150 0.005987
159 0.008022
156 0.004987
107 0.00603
62 0.004003
53 0.006016
72 0.005984
93 0.006028
126 0.00602
133 0.003991
129 0.006
126 0.002989
129 0.003037
138 0.001996
149 0.001982
156 0.002002
163 0.001011
167 0.000974
169 0.001061
171 0.0
172 0.0
175 0.001996
178 0.002995
181 0.003
183 0.003955
178 0.003035
114 0.003985
44 0.003992
27 0.003995
34 0.003992
58 0.003991
77 0.003971
103 0.004028
105 0.004039
103 0.003998
109 0.004038
121 0.005949
128 0.007009
137 0.005986
147 0.006008
151 0.004018
157 0.002972
158 0.004024
149 0.002016
110 0.005022
75 0.003004
67 0.003028
89 0.002036
112 0.002027
142 0.001031
144 0.000997
138 0.000998
133 0.000998
138 0.000998
145 0.000998
156 0.001995
166 0.003977
170 0.003987
173 0.004028
173 0.004022
175 0.004819
178 0.005973
174 0.006988
106 0.006975
49 0.006972
44 0.006973
54 0.004975
76 0.007017
103 0.004942
118 0.007015
118 0.005146
114 0.007012
118 0.00602
124 0.005024
137 0.004036
147 0.002983
153 0.004027
159 0.001992
161 0.004029
163 0.003006
166 0.002009
169 0.001002
173 0.001996
177 0.0
180 0.000986
180 0.001002
141 0.001995
85 0.001999
43 0.001995
46 0.002996
64 0.003995
90 0.004034
115 0.005979
116 0.005987
112 0.006015
112 0.006015
119 0.005985
130 0.00598
137 0.005983
147 0.005987
152 0.005023
157 0.006981
160 0.005983
161 0.00399
165 0.002993
167 0.001967
148 0.002009
91 0.001949
57 0.002034
55 0.0
69 0.002029
104 0.002035
121 0.002037
126 0.001958
121 0.000968
121 0.001997
126 0.000991
134 0.001952
143 0.002959
154 0.004982
161 0.005983
163 0.005984
164 0.006014
165 0.006015
137 0.006002
73 0.005985
61 0.006985
59 0.005983
83 0.003998
103 0.00399
129 0.004003
130 0.004987
124 0.001996
124 0.001996
132 0.001937
138 0.001042
150 0.000997
158 0.000956
163 0.001996
165 0.003988
168 0.004985
169 0.004966
172 0.005022
174 0.00502
178 0.004987
176 0.004996
145 0.005014
73 0.006953
40 0.006979
44 0.00694
63 0.006982
89 0.00604
111 0.004968
114 0.005994
109 0.003989
110 0.005984
119 0.006018
125 0.006017
136 0.004989
146 0.00201
150 0.002033
156 0.0
160 0.0
162 0.0
165 0.0
167 0.0
159 0.000953
95 0.000969
64 0.001006
55 0.001991
75 0.002954
94 0.002993
124 0.003998
127 0.005984
122 0.00698
121 0.005967
125 0.007022
134 0.004007
144 0.005996
154 0.00502
159 0.00399
163 0.002984
166 0.0
166 0.00102
170 0.0
173 0.0
177 0.0
180 0.0
183 0.000961
186 0.001985
185 0.002065
163 0.001995
71 0.002032
38 0.001994
41 0.002989
59 0.003987
91 0.003987
107 0.005976
113 0.005981
108 0.007979
110 0.006941
116 0.007053
125 0.005984
135 0.006989
145 0.005019
150 0.003995
156 0.002976
156 0.0
152 0.0
131 0.00098
80 0.000998
67 0.000984
76 0.000998
111 0.000988
131 0.001003
142 0.001012
136 0.000986
129 0.001003
132 0.003025
137 0.001997
147 0.004987
152 0.007946
159 0.006975
162 0.005986
164 0.005978
165 0.005984
145 0.005986
74 0.003976
51 0.005984
50 0.003996
72 0.003978
91 0.00399
117 0.003992
119 0.002993
115 0.001995
117 0.001949
122 0.00201
134 0.000997
143 0.002989
151 0.000998
157 0.00298
161 0.001992
164 0.002998
166 0.002998
168 0.002001
172 0.000984
174 0.000992
179 0.001039
182 0.0
184 0.0
187 0.000983
185 0.000998
150 0.001002
57 0.002994
34 0.002991
39 0.004026
59 0.00399
91 0.006974
101 0.006975
108 0.007101
105 0.004984
108 0.003975
117 0.003996
128 0.003989
137 0.001996
145 0.003993
151 0.000934
156 0.003989
157 0.003989
155 0.003959
123 0.002996
74 0.001995
66 0.002007
80 0.0
110 0.0
130 0.0
142 0.0
137 0.0
130 0.0
132 0.000956
138 0.000961
148 0.001015
155 0.001
161 0.000999
163 0.003002
165 0.003033
167 0.002993
169 0.003019
170 0.005033
174 0.006037
176 0.004984
162 0.004978
76 0.006021
45 0.005892
39 0.00602
56 0.005986
74 0.005986
103 0.005981
110 0.006021
108 0.00599
109 0.006983
112 0.00599
123 0.003976
135 0.003019
141 0.003984
148 0.002993
150 0.005118
133 0.00299
93 0.004985
69 0.003026
73 0.003994
102 0.003995
124 0.003989
142 0.004003
137 0.001997
133 0.00399
134 0.001987
139 0.003988
149 0.002006
159 0.0
162 0.0
154 0.001963
92 0.003957
55 0.004989
56 0.00399
76 0.006963
96 0.00695
124 0.006819
128 0.004972
123 0.005012
122 0.001964
127 0.002982
137 0.00203
145 0.001994
154 0.0
158 0.002037
162 0.0
164 0.000966
160 0.0
108 0.0
63 0.000965
52 0.000952
62 0.001995
78 0.002053
110 0.002959
121 0.004023
119 0.004881
117 0.006944
124 0.006928
130 0.006981
138 0.005021
146 0.004977
153 0.005028
156 0.004022
159 0.004026
161 0.003038
164 0.002945
169 0.0
172 0.002005
175 0.0
179 0.001042
180 0.000985
138 0.0
82 0.0
42 0.0
45 0.0
53 0.0
80 0.0
104 0.001996
108 0.002994
106 0.003017
111 0.00404
118 0.004991
130 0.005009
136 0.005033
145 0.004856
148 0.00503
149 0.005019
131 0.004988
91 0.005022
82 0.006028
90 0.007034
122 0.005981
145 0.007969
149 0.00602
143 0.007979
139 0.005036
142 0.005012
147 0.004989
155 0.005017
153 0.004994
110 0.00403
76 0.002993
77 0.002997
102 0.002999
131 0.005034
145 0.002988
142 0.003029
134 0.0
134 0.001996
140 0.00095
146 0.001999
156 0.0
162 0.00099
165 0.002002
167 0.001996
168 0.003992
168 0.004989
169 0.004986
172 0.005015
175 0.004988
178 0.005978
180 0.006967
180 0.005966
174 0.004989
102 0.005004
45 0.001984
33 0.005018
43 0.004039
56 0.004986
86 0.003981
99 0.004039
102 0.00404
103 0.002003
107 0.00399
119 0.002986
132 0.0
138 0.0
146 0.000952
151 0.001953
155 0.000999
155 0.002031
146 0.001995
101 0.001996
76 0.002029
80 0.002991
107 0.004951
139 0.005985
148 0.005984
142 0.005983
138 0.006027
138 0.005972
145 0.005993
152 0.006978
161 0.006027
168 0.006933
171 0.007976
173 0.007966
176 0.004987
177 0.00599
180 0.00398
182 0.006022
186 0.003985
190 0.00299
192 0.001996
199 0.002042
200 0.004049
161 0.002173
74 0.002037
38 0.001996
40 0.001988
59 0.0
83 0.000998
106 0.001001
110 0.001
107 0.001995
109 0.000998
117 0.000997
123 0.001965
135 0.001865
140 0.000997
146 0.001996
149 0.003959
150 0.003965
131 0.005986
87 0.00596
77 0.005952
83 0.006469
125 0.006752
138 0.005987
150 0.003965
143 0.00802
139 0.005018
139 0.007017
144 0.004923
153 0.005567
163 0.005041
167 0.00416
171 0.004024
174 0.002044
174 0.002993
177 0.0
180 0.0
181 0.0
133 0.0
76 0.0
38 0.0
45 0.0
57 0.0
81 0.000998
108 0.002043
111 0.002999
108 0.003001
112 0.004986
117 0.004956
129 0.004987
136 0.004984
145 0.004991
152 0.004987
156 0.005024
159 0.004987
163 0.004986
164 0.005999
169 0.006981
171 0.006972
144 0.006983
83 0.004973
52 0.002977
56 0.004003
79 0.00204
108 0.002048
123 0.001028
126 0.002036
121 0.000988
121 0.002032
128 0.0
135 0.0
146 0.0
152 0.0
159 0.0
161 0.0
161 0.0
155 0.000997
100 0.003958
70 0.003983
61 0.005017
82 0.004989
104 0.004982
131 0.005973
133 0.004981
128 0.00496
124 0.003985
130 0.003983
136 0.004953
147 0.003958
155 0.00399
161 0.00195
163 0.002046
165 0.002038
167 0.000998
171 0.000997
165 0.002906
114 0.004015
59 0.003991
47 0.003979
54 0.003995
80 0.00399
100 0.00399
119 0.003998
115 0.004004
114 0.004979
119 0.005978
130 0.005985
138 0.005984
148 0.00698
151 0.006975
159 0.006977
163 0.007
164 0.006986
166 0.004978
170 0.007013
173 0.003956
166 0.00399
99 0.003989
63 0.003989
49 0.003001
58 0.004989
85 0.001006
117 0.002042
124 0.001984
119 0.0
118 0.000997
121 0.001962
131 0.001983
142 0.002026
148 0.00399
156 0.005984
159 0.005986
158 0.004969
132 0.004997
87 0.00514
66 0.002994
72 0.004986
103 0.004987
126 0.004986
142 0.00204
133 0.0
129 0.001027
130 0.000957
138 0.000999
145 0.000916
155 0.002008
156 0.002954
142 0.002993
83 0.002998
66 0.003032
69 0.002964
99 0.00303
119 0.003002
135 0.003012
128 0.004986
124 0.005016
128 0.005978
136 0.006988
143 0.006978
153 0.007981
157 0.004939
162 0.006017
165 0.005966
166 0.006022
169 0.005984
172 0.003985
175 0.006016
178 0.00399
181 0.005878
184 0.001993
187 0.002963
188 0.002952
189 0.001998
192 0.000997
187 0.0
116 0.0
38 0.000998
29 0.000942
37 0.000999
49 0.00096
79 0.000998
98 0.001012
100 0.001
100 0.001035
105 0.000998
113 0.001994
125 0.002961
133 0.003005
143 0.003949
152 0.003996
156 0.003996
160 0.003994
163 0.004986
165 0.00598
170 0.005984
172 0.005984
170 0.005993
118 0.005974
80 0.005983
62 0.006983
74 0.007015
100 0.003006
128 0.004971
139 0.003987
134 0.002992
127 0.003025
129 0.0
135 0.001991
143 0.000998
154 0.001992
157 0.001966
162 0.001998
164 0.003864
165 0.00499
167 0.005985
171 0.005958
172 0.00597
176 0.005988
179 0.005944
181 0.005015
184 0.00498
185 0.004975
187 0.005019
188 0.006976
188 0.004955
154 0.006985
64 0.004983
42 0.004989
43 0.003991
63 0.001998
81 0.003153
104 0.0
107 0.001996
102 0.0
104 0.001
111 0.0
122 0.0
128 0.0
138 0.0
143 0.001011
147 0.000967
150 0.002992
153 0.004987
154 0.005939
155 0.006981
143 0.006988
88 0.006987
67 0.006981
66 0.005987
80 0.005965
114 0.005984
133 0.003988
131 0.004982
123 0.001997
122 0.002011
127 0.002008
137 0.002001
147 0.0
151 0.000972
155 0.0
157 0.000997
158 0.003983
160 0.003971
163 0.003958
165 0.003961
168 0.003987
170 0.003961
170 0.005026
136 0.005022
71 0.004021
45 0.00403
48 0.005991
59 0.005979
86 0.007016
101 0.007017
105 0.006981
102 0.006976
104 0.007014
112 0.006019
118 0.006022
128 0.005966
129 0.006979
122 0.005991
110 0.004001
123 0.002987
138 0.002986
153 0.00301
154 0.004984
152 0.001954
152 0.002026
154 0.001998
158 0.001998
164 0.002009
167 0.001995
158 0.002014
87 0.0
60 0.001995
52 0.001007
67 0.003939
84 0.003026
112 0.00298
117 0.004001
113 0.003867
112 0.004009
117 0.004023
126 0.003999
138 0.003986
143 0.003968
151 0.005018
155 0.006017
156 0.005985
159 0.00602
161 0.005987
165 0.006021
169 0.006011
172 0.006994
174 0.006962
177 0.003034
178 0.005022
180 0.002975
181 0.002998
160 0.002999
62 0.002985
37 0.001988
34 0.001992
51 0.003075
67 0.001981
93 0.00199
97 0.002983
94 0.001981
99 0.002989
105 0.002992
114 0.002959
123 0.000991
129 0.001999
136 0.000964
139 0.002022
137 0.001996
115 0.002026
86 0.002993
83 0.003999
108 0.005997
142 0.005993
151 0.006015
148 0.00693
142 0.006026
139 0.006935
145 0.006971
149 0.006968
159 0.00499
166 0.003992
168 0.001981
170 0.001986
172 0.002984
172 0.001996
176 0.001994
178 0.002038
180 0.001993
163 0.001993
103 0.002023
40 0.001986
35 0.0
40 0.0
62 0.0
92 0.000967
101 0.000997
100 0.002043
100 0.001985
107 0.001005
119 0.002025
125 0.002003
137 0.002971
144 0.002994
147 0.002994
143 0.002968
123 0.003005
79 0.002974
70 0.003991
83 0.00494
111 0.003989
141 0.006028
145 0.007979
138 0.007012
132 0.003968
131 0.005993
140 0.00399
151 0.002975
156 0.002986
162 0.002
166 0.000954
164 0.000949
121 0.0
76 0.0
48 0.000858
54 0.002
71 0.0
97 0.002009
115 0.0
116 0.001996
111 0.0
114 0.0
122 0.0
131 0.0
140 0.0
147 0.0
153 0.0
156 0.0
160 0.000968
162 0.001955
166 0.003019
170 0.002006
172 0.001999
176 0.004033
179 0.005967
169 0.005968
103 0.005972
46 0.004979
42 0.00515
50 0.00703
67 0.004988
93 0.006981
111 0.006982
108 0.007021
106 0.005949
114 0.002987
121 0.004022
133 0.002007
139 0.003987
148 0.001977
153 0.00204
156 0.002039
159 0.001997
163 0.0
165 0.0
169 0.0
170 0.0
144 0.000966
75 0.0
57 0.0
61 0.0
87 0.001034
108 0.000998
127 0.00303
122 0.003032
118 0.005016
119 0.005012
129 0.005946
136 0.006973
146 0.006981
152 0.00599
156 0.006926
158 0.00598
160 0.006971
162 0.006028
165 0.006014
167 0.00598
170 0.00596
172 0.005954
169 0.005983
105 0.005035
64 0.002957
46 0.003025
54 0.006026
75 0.003991
100 0.004005
115 0.004022
114 0.004036
111 0.004027
114 0.003991
124 0.00204
135 0.000942
141 0.003045
150 0.0
155 0.0
157 0.0
160 0.003029
162 0.002025
160 0.001995
120 0.005947
75 0.006014
60 0.006966
73 0.006973
98 0.00798
118 0.005986
134 0.007018
130 0.004041
124 0.006029
125 0.005002
131 0.004999
142 0.006023
153 0.003029
158 0.006029
163 0.002021
166 0.005015
168 0.003006
170 0.002968
172 0.002959
176 0.004025
179 0.002994
179 0.003029
127 0.002969
75 0.002017
43 0.00396
48 0.005026
67 0.002
92 0.004032
112 0.0
114 0.0
110 0.001966
111 0.005031
118 0.005976
127 0.005994
138 0.00697
144 0.007979
150 0.007967
152 0.004986
155 0.006021
155 0.004005
139 0.003991
104 0.001
64 0.002
62 0.002992
82 0.002965
117 0.003004
131 0.001995
131 0.001994
125 0.003033
125 0.000968
131 0.002032
140 0.0
148 0.002037
158 0.002025
162 0.002985
165 0.002031
167 0.0
168 0.0
171 0.000997
172 0.002
155 0.002035
77 0.002027
51 0.003988
49 0.003952
68 0.003999
85 0.003991
112 0.003948
115 0.004988
112 0.004993
114 0.005983
122 0.007975
130 0.002989
139 0.005988
149 0.006029
154 0.004025
160 0.002992
163 0.0
165 0.0
168 0.0
171 0.001995
174 0.001997
175 0.001997
133 0.002992
84 0.004034
50 0.003985
52 0.00399
74 0.004982
107 0.005986
122 0.006017
122 0.006
116 0.004956
116 0.005007
124 0.003958
132 0.004958
141 0.002993
148 0.004987
155 0.005125
157 0.006018
159 0.005018
161 0.004984
162 0.00603
141 0.002006
100 0.005018
59 0.001993
58 0.004022
78 0.0
112 0.0
127 0.0
128 0.0
121 0.000949
122 0.0
130 0.0
140 0.002027
147 0.001972
156 0.001953
162 0.002993
163 0.005018
165 0.005969
166 0.006984
169 0.006981
173 0.006996
176 0.005985
180 0.007982
183 0.006016
180 0.005166
109 0.004034
48 0.001994
42 0.004025
53 0.001996
80 0.001995
101 0.003007
115 0.001993
112 0.001041
110 0.0
116 0.001994
124 0.0
135 0.002996
144 0.002025
148 0.002027
142 0.002026
119 0.002026
84 0.003008
90 0.000973
111 0.003015
141 0.0
158 0.000809
155 0.00296
144 0.002993
143 0.003003
147 0.002979
157 0.00395
163 0.004988
169 0.005981
173 0.005968
174 0.005977
157 0.005999
76 0.006952
56 0.005012
45 0.004937
63 0.007973
80 0.004991
107 0.005019
117 0.005017
113 0.00502
113 0.005036
116 0.005073
126 0.004977
138 0.001996
144 0.004038
143 0.001999
122 0.004172
81 0.001995
80 0.002995
96 0.002957
135 0.0
151 0.0
148 0.000957
140 0.0
139 0.0
142 0.000859
153 0.001003
159 0.001023
168 0.002985
173 0.002994
175 0.002995
176 0.00295
176 0.00299
180 0.002961
182 0.002956
184 0.002962
187 0.00401
190 0.004986
192 0.005021
194 0.005998
177 0.004963
108 0.003989
31 0.00399
26 0.004993
34 0.00499
58 0.004177
85 0.005982
99 0.003977
98 0.00498
99 0.001983
106 0.00399
119 0.002995
126 0.002991
137 0.003024
146 0.001996
151 0.003014
156 0.002001
158 0.002994
161 0.001989
166 0.002994
169 0.001995
173 0.000966
177 0.001044
179 0.001996
182 0.002
184 0.002962
181 0.00399
114 0.003971
66 0.003983
41 0.004024
55 0.003991
72 0.005013
105 0.005983
116 0.005983
114 0.005955
110 0.007978
112 0.007975
120 0.007969
131 0.007983
137 0.007984
145 0.006982
151 0.00399
153 0.005021
156 0.002994
159 0.00299
161 0.001994
161 0.00199
120 0.000951
81 0.0
57 0.0
63 0.0
80 0.001001
114 0.00201
128 0.002976
126 0.003989
120 0.004033
121 0.004019
127 0.004023
138 0.004017
145 0.003988
154 0.003989
155 0.003829
145 0.002947
89 0.003986
66 0.004025
63 0.004042
87 0.003993
110 0.003973
134 0.004033
135 0.004984
125 0.004957
125 0.005012
130 0.005979
139 0.006945
150 0.007024
156 0.006979
162 0.006981
163 0.005983
167 0.00702
165 0.005973
148 0.005988
75 0.006979
52 0.00798
49 0.007979
66 0.003985
85 0.005986
114 0.003996
118 0.003005
115 0.001988
116 0.00299
124 0.000997
131 0.000963
142 0.000996
150 0.002039
155 0.000963
159 0.002998
160 0.0
162 0.003029
165 0.000966
168 0.000997
171 0.000969
173 0.000839
155 0.000998
90 0.001053
50 0.001
45 0.000998
62 0.002036
80 0.001973
109 0.002992
114 0.00399
112 0.00395
113 0.005985
120 0.006984
129 0.006979
139 0.006969
145 0.006975
153 0.006973
158 0.00801
160 0.00498
163 0.006983
166 0.005989
169 0.004986
172 0.004987
152 0.001994
107 0.005022
57 0.002032
53 0.004987
70 0.001988
101 0.001995
118 0.001997
124 0.001994
120 0.001993
120 0.002985
128 0.0
136 0.000995
144 0.000999
152 0.002056
145 0.003992
120 0.005011
83 0.005983
84 0.007978
98 0.005985
130 0.006981
154 0.005018
154 0.005017
144 0.004987
141 0.004993
146 0.005
155 0.002016
161 0.004991
169 0.001989
175 0.001996
176 0.002007
178 0.001999
177 0.001984
130 0.001999
56 0.00202
44 0.0
50 0.000954
75 0.001995
95 0.001967
118 0.002028
115 0.002003
113 0.001996
118 0.001996
123 0.001994
135 0.001962
145 0.003001
151 0.002987
155 0.005033
159 0.005019
160 0.004988
164 0.005029
166 0.005017
170 0.005026
175 0.005004
176 0.005036
180 0.006953
181 0.005975
167 0.00599
79 0.005971
47 0.005976
43 0.004988
57 0.006985
80 0.001996
107 0.003965
116 0.002994
112 0.002008
112 0.002026
120 0.0
129 0.0
139 0.002008
148 0.002993
157 0.004029
160 0.003991
163 0.005987
165 0.004987
167 0.005987
171 0.006972
174 0.006978
179 0.005985
184 0.006981
184 0.005988
163 0.005174
111 0.004995
51 0.003958
46 0.005985
64 0.002993
83 0.0
115 0.001991
121 0.001987
117 0.001994
116 0.003045
122 0.003951
129 0.00502
140 0.006028
151 0.006969
156 0.007996
160 0.003971
163 0.003025
165 0.00299
168 0.003993
170 0.003984
174 0.003996
179 0.003976
182 0.003994
184 0.003979
171 0.003985
103 0.001983
52 0.005027
44 0.002995
55 0.001976
86 0.003019
110 0.002042
120 0.002022
115 0.001996
114 0.002951
117 0.000997
126 0.002984
133 0.00204
143 0.001956
149 0.000997
154 0.001995
156 0.003027
155 0.004008
137 0.004016
81 0.004984
64 0.00595
64 0.005978
92 0.006018
124 0.005994
137 0.006969
135 0.007971
128 0.006978
126 0.004987
133 0.003006
137 0.004956
128 0.003082
118 0.005016
119 0.00194
146 0.002999
158 0.0
164 0.001038
161 0.0
159 0.000869
159 0.000997
164 0.002992
168 0.003989
175 0.003989
179 0.005995
181 0.00599
183 0.00595
184 0.006825
185 0.005988
188 0.007991
193 0.006989
195 0.006986
200 0.007015
201 0.007016
202 0.00699
204 0.003287
205 0.005001
205 0.001989
116 0.004022
47 0.003998
15 0.0
17 0.0
38 0.0
72 0.0
88 0.0
95 0.001015
95 0.002984
98 0.000957
105 0.002024
114 0.0
124 0.002013
134 0.002047
139 0.002042
145 0.00101
147 0.001983
148 0.002992
123 0.002992
76 0.004047
65 0.005041
79 0.004978
118 0.005991
131 0.005986
146 0.005022
142 0.005015
134 0.005032
134 0.004985
138 0.003987
147 0.00302
154 0.006026
159 0.003008
162 0.005023
166 0.00402
167 0.002993
163 0.003007
128 0.002992
52 0.003996
36 0.0
43 0.003034
69 0.0
96 0.0
109 0.0
112 0.0
109 0.000947
112 8.4e-05
121 0.002003
128 0.002027
139 0.002978
149 0.004975
151 0.006986
144 0.004992
92 0.003005
63 0.004023
61 0.002001
79 0.002993
115 0.004026
132 0.003033
137 0.003023
131 0.002984
127 0.003029
133 0.0
140 0.001989
151 0.000966
158 0.002038
165 0.002006
168 0.0
169 0.001001
162 0.00095
94 0.0
67 0.0
44 0.000997
56 0.001847
72 0.000991
107 0.003953
122 0.003025
120 0.004032
115 0.004013
118 0.004001
126 0.004025
138 0.00396
144 0.003994
153 0.005018
159 0.005974
162 0.00597
164 0.005984
166 0.005984
168 0.005984
161 0.005985
139 0.006936
69 0.006971
50 0.006978
62 0.006973
94 0.006983
108 0.006972
126 0.004025
123 0.007036
119 0.003023
121 0.004989
130 0.006033
136 0.005013
148 0.002025
156 0.0
160 0.00203
163 0.0
166 0.002027
168 0.0
172 0.001001
175 0.000995
177 0.0
152 0.000998
100 0.002052
48 0.002993
49 0.002959
59 0.003007
89 0.003022
108 0.003994
118 0.003948
114 0.005984
115 0.004986
122 0.005997
131 0.006022
142 0.005809
149 0.00598
155 0.005986
160 0.005973
163 0.00602
165 0.006989
168 0.007969
171 0.004988
174 0.00798
178 0.004982
181 0.007015
185 0.00499
189 0.004007
191 0.003994
193 0.002991
195 0.003987
194 0.001999
149 0.005023
71 0.002986
39 0.005053
43 0.00415
56 0.003984
90 0.003989
115 0.0
115 0.003008
110 0.0
110 0.0
115 0.002006
126 0.001996
133 0.001995
143 0.001997
149 0.001979
151 0.00199
155 0.004027
157 0.003983
160 0.00398
164 0.004031
169 0.005977
172 0.005988
174 0.006976
174 0.00597
128 0.006825
69 0.006977
51 0.006969
55 0.006945
76 0.007973
98 0.006982
125 0.005993
125 0.002997
120 0.00502
119 0.003944
123 0.004987
134 0.00201
146 0.002981
151 0.0
159 0.0
162 0.0
163 0.0
165 0.002055
167 0.001996
164 0.001957
110 0.00301
59 0.003958
54 0.00398
70 0.003991
90 0.003902
125 0.003959
133 0.003988
127 0.003957
122 0.005023
125 0.006983
129 0.006983
141 0.003968
152 0.002976
157 0.002981
163 0.001997
165 0.002988
167 0.002025
170 0.002019
174 0.003956
176 0.0
181 0.003208
183 0.0
158 0.003005
70 0.002043
45 0.003029
42 0.002996
58 0.0
85 0.000998
109 0.001995
117 0.001998
112 0.001991
110 0.001
114 0.002992
124 0.00403
135 0.003993
141 0.005984
146 0.005984
149 0.005019
146 0.005991
105 0.005985
69 0.005952
61 0.004974
75 0.004988
97 0.004992
132 0.002996
140 0.005981
134 0.002991
127 0.004986
130 0.004035
135 0.003989
146 0.003985
153 0.003989
162 0.002992
166 0.0
164 0.002993
112 0.0
53 0.0
45 0.0
56 0.0
79 0.000997
100 0.000999
122 0.001004
121 0.001012
116 0.000997
119 0.000997
126 0.000997
138 0.001015
143 0.001998
146 0.000998
105 0.002019
79 0.003999
70 0.004988
91 0.006022
123 0.005993
146 0.005984
149 0.005979
143 0.006981
136 0.004975
140 0.00398
147 0.004985
158 0.003001
167 0.003005
171 0.003009
173 0.0
175 0.003022
175 0.000998
174 0.003714
108 0.003967
59 0.004987
36 0.004952
46 0.00698
67 0.006956
94 0.007027
112 0.007978
111 0.006982
108 0.006982
113 0.003994
118 0.006981
131 0.003984
141 0.001993
147 0.0
153 0.0
154 0.0
152 0.0
110 0.0
89 0.0
67 0.0
84 0.0
106 0.000994
139 0.000965
142 0.001995
136 0.002032
133 0.00399
137 0.005997
144 0.005021
154 0.006028
163 0.007953
168 0.007988
171 0.007977
173 0.007979
168 0.007944
122 0.002973
74 0.005984
45 0.002993
57 0.001983
73 0.00199
107 0.002975
123 0.001998
120 0.0
117 0.000997
121 0.000997
127 0.002005
140 0.00205
148 0.002972
156 0.00298
161 0.004005
164 0.004021
167 0.003995
170 0.003991
172 0.004003
176 0.004026
180 0.004945
181 0.006025
146 0.005981
90 0.007017
48 0.006977
47 0.005978
59 0.006981
93 0.006996
119 0.005984
122 0.005997
116 0.005982
117 0.004995
124 0.003993
133 0.005983
142 0.002989
151 0.005022
159 0.003993
161 0.00402
164 0.00399
167 0.002986
169 0.002992
171 0.002016
175 0.001011
176 0.001996
180 0.001983
182 0.002886
184 0.004023
184 0.005983
156 0.005999
97 0.005983
41 0.00499
43 0.004999
56 0.003984
90 0.001994
116 0.002986
120 0.003005
114 0.002991
114 0.001997
119 0.000984
131 0.002993
140 0.002954
149 0.003933
155 0.005031
161 0.004987
162 0.004988
165 0.004988
167 0.004962
171 0.005031
170 0.005976
146 0.00698
89 0.005992
56 0.005048
59 0.004004
85 0.003988
117 0.006025
136 0.003994
135 0.005985
127 0.004
125 0.006013
133 0.00602
139 0.006076
152 0.005988
158 0.005982
166 0.006016
170 0.002998
170 0.006062
172 0.003028
167 0.001997
139 0.0
70 0.000996
51 0.00095
55 0.0
83 0.0
120 0.001996
133 0.003024
130 0.00499
123 0.005984
125 0.005971
131 0.005985
141 0.007979
150 0.003998
157 0.005976
164 0.005984
165 0.006051
168 0.005017
169 0.005972
172 0.004987
177 0.002994
179 0.005144
182 0.003006
184 0.002046
173 0.001998
85 0.0
46 0.002044
35 0.002001
55 0.002977
74 0.002992
108 0.0
117 0.002989
112 0.000999
109 0.0
112 0.0
122 0.0
134 0.001994
143 0.001034
152 0.000996
156 0.003023
157 0.003991
142 0.007005
87 0.005988
66 0.005977
65 0.006979
87 0.003078
120 0.007977
141 0.004002
140 0.003968
134 0.002999
131 0.002999
133 0.002996
144 0.002977
153 0.003965
156 0.000958
128 0.003028
72 0.000974
61 0.002991
75 0.00096
107 0.0
135 0.001038
145 0.003026
137 0.004023
132 0.004983
134 0.006016
144 0.005969
152 0.006015
162 0.005969
167 0.005987
170 0.006
174 0.005963
174 0.006023
177 0.005989
181 0.005019
184 0.005977
188 0.006978
190 0.005976
194 0.006971
180 0.006958
114 0.004979
40 0.007015
24 0.006942
32 0.006946
59 0.007012
81 0.007014
104 0.00698
102 0.004022
101 0.006005
106 0.002979
117 0.0
124 0.0
135 0.002993
140 0.000965
147 0.000954
152 0.000999
155 0.001821
158 0.0
161 0.003036
164 0.002013
150 0.003025
101 0.0
63 0.000998
61 0.00198
83 0.005027
117 0.006015
137 0.006985
136 0.006981
131 0.006946
128 0.007977
131 0.006978
141 0.006977
152 0.005978
159 0.007964
166 0.004998
168 0.006978
169 0.004946
160 0.006172
126 0.005988
62 0.003992
50 0.004044
60 0.003975
86 0.005995
117 0.004028
131 0.005948
125 0.005018
122 0.00502
123 0.00502
133 0.001982
140 0.005014
152 0.000943
157 0.005986
163 0.002006
160 0.001978
143 0.002989
78 0.0
52 0.0
54 0.000998
77 0.000971
115 0.0
130 0.001001
130 0.001997
123 0.003985
123 0.003991
131 0.005986
141 0.006019
152 0.006023
161 0.005982
163 0.005983
165 0.007979
167 0.006018
169 0.007024
169 0.004973
127 0.003
78 0.004016
43 0.000954
53 0.0
70 0.000967
108 0.000997
123 0.0
121 0.0
113 0.001032
117 0.001957
123 0.001995
136 0.002003
143 0.001962
151 0.001996
156 0.001956
159 0.003007
161 0.003961
164 0.003997
167 0.004986
172 0.004987
170 0.004898
128 0.005029
57 0.004947
45 0.004987
55 0.004987
87 0.005985
109 0.005993
124 0.005989
123 0.005975
116 0.00595
119 0.005938
126 0.005006
139 0.00499
146 0.007015
151 0.00404
137 0.005979
106 0.002996
91 0.006017
109 0.006145
134 0.006023
164 0.006016
164 0.003
157 0.005024
151 0.0
153 0.000933
158 0.000949
168 0.0
172 0.0
178 0.001995
180 0.001995
182 0.002009
183 0.001989
185 0.002026
188 0.001889
193 0.001985
197 0.005046
199 0.005985
202 0.006021
193 0.00698
134 0.005983
33 0.006968
19 0.00598
29 0.006986
57 0.006977
79 0.006977
104 0.006981
103 0.004984
100 0.007022
103 0.004989
109 0.006965
123 0.00596
134 0.002999
139 0.001997
145 0.00206
146 0.0
136 0.0
115 0.0
120 0.003021
137 0.000997
164 0.000999
172 0.000998
170 0.000998
165 0.00096
163 0.000992
164 0.002965
169 0.002996
173 0.002993
180 0.003024
184 0.003026
185 0.003031
189 0.003001
190 0.002998
192 0.003037
194 0.003944
194 0.003982
116 0.005949
34 0.006011
15 0.005995
20 0.006055
40 0.007971
71 0.004996
93 0.006028
99 0.002962
95 0.005985
99 0.006014
104 0.005981
117 0.003029
131 0.0
136 0.002958
144 0.0
150 0.0
152 0.001
157 0.0
160 0.001004
163 0.000998
168 0.000877
170 0.001
175 0.000998
180 0.000851
182 0.001999
170 0.003032
78 0.002997
39 0.003983
28 0.004988
42 0.00598
68 0.006977
98 0.00698
109 0.00694
108 0.006984
106 0.006959
109 0.006979
118 0.00698
125 0.006977
137 0.005984
144 0.005983
150 0.006018
151 0.004988
155 0.00498
158 0.004024
162 0.003986
162 0.003988
126 0.005031
72 0.007038
49 0.003997
56 0.006978
91 0.006024
113 0.004034
130 0.004008
123 0.0
119 0.002043
120 0.0
124 0.003001
135 0.0
146 0.0
150 0.0
150 0.0
122 0.0
87 0.0
56 0.000999
59 0.001965
89 0.001971
127 0.002995
139 0.004977
135 0.004024
127 0.005985
126 0.005981
132 0.005995
144 0.006987
149 0.005019
149 0.007981
112 0.007957
65 0.007983
50 0.007948
61 0.007963
97 0.007983
124 0.003993
131 0.006984
125 0.002989
121 0.00299
124 0.002956
134 0.000963
144 0.001004
149 0.000971
137 0.001995
80 0.002981
61 0.003829
68 0.004001
104 0.003989
127 0.004989
140 0.004912
135 0.005988
131 0.005981
131 0.00698
139 0.005953
145 0.004993
156 0.005025
166 0.0
170 0.002027
173 0.000966
173 0.000964
173 0.0
176 0.002015
179 0.001972
169 0.003001
73 0.003958
29 0.003991
31 0.003957
52 0.003989
73 0.003957
104 0.004987
109 0.005012
104 0.004024
105 0.005025
112 0.004971
122 0.004988
135 0.006983
140 0.006981
149 0.006017
153 0.005968
156 0.006979
159 0.006021
162 0.005975
165 0.005981
170 0.005986
171 0.00498
150 0.003998
76 0.003102
53 0.002008
55 0.002995
77 0.002997
108 0.0
127 0.002997
123 0.003024
120 0.003025
121 0.002993
127 0.002993
141 0.003022
148 0.00112
154 0.001009
161 0.001007
165 0.00101
165 0.001001
167 0.002033
169 0.000967
174 0.002
178 0.001032
180 0.001999
183 0.000999
175 0.000996
96 0.002983
42 0.003995
40 0.003957
56 0.003991
90 0.005981
109 0.004986
116 0.005982
110 0.005018
110 0.006017
116 0.006981
128 0.005982
134 0.005982
144 0.004987
152 0.002994
155 0.004002
154 0.0
138 0.000997
108 0.000962
77 0.0
74 0.000984
95 0.0
135 0.0
149 0.0
145 0.0
134 0.00097
134 0.001979
141 0.003041
148 0.001994
155 0.002954
160 0.00302
151 0.005984
105 0.005027
61 0.005995
57 0.006983
74 0.006968
111 0.004035
129 0.00599
131 0.001996
123 0.002003
122 0.002998
129 0.002994
141 0.002996
147 0.00299
151 0.002998
137 0.002983
80 0.0
