121 0.014627
112 0.001995
114 0.001996
125 0.00103
134 0.002016
142 0.002013
146 0.001052
142 0.001026
134 0.000993
136 0.001038
142 0.001005
150 0.00203
155 0.002992
161 0.001994
169 0.000997
172 0.001956
177 0.001988
182 0.001995
184 0.001995
189 0.002002
194 0.001951
198 0.001995
203 0.001995
203 0.001995
177 0.002029
143 0.001993
131 0.002032
137 0.001994
149 0.002027
157 0.00299
164 0.002992
165 0.00203
156 0.002993
152 0.001995
154 0.001994
156 0.001967
164 0.001997
170 0.002999
177 0.001998
183 0.002027
188 0.002992
193 0.002993
193 0.002992
194 0.001998
195 0.002992
200 0.001985
205 0.001996
207 0.001995
195 0.003036
163 0.003025
135 0.002983
136 0.003032
146 0.002992
155 0.002992
163 0.002992
168 0.002992
164 0.002992
154 0.002974
152 0.002992
153 0.003991
161 0.00399
165 0.002992
170 0.002028
173 0.002992
178 0.002994
182 0.004004
188 0.003989
193 0.003026
196 0.003036
197 0.002996
199 0.00304
205 0.002998
202 0.004021
171 0.003989
136 0.002982
130 0.003024
138 0.002992
147 0.00404
155 0.003988
163 0.004004
164 0.002983
153 0.003026
142 0.003022
141 0.002992
145 0.003959
149 0.003989
150 0.00402
153 0.004018
158 0.004023
159 0.00399
162 0.00399
166 0.003989
173 0.003989
204 0.002992
210 0.002976
193 0.003027
146 0.004987
109 0.003984
99 0.00402
107 0.00402
118 0.004
135 0.003989
147 0.003989
136 0.004038
120 0.004975
114 0.004002
125 0.004028
137 0.00402
149 0.004987
155 0.005019
155 0.002992
160 0.00398
166 0.004034
168 0.004041
171 0.004046
182 0.00399
156 0.00399
107 0.003995
77 0.004987
79 0.004025
92 0.004019
109 0.004987
129 0.004987
139 0.003984
134 0.004032
118 0.003989
111 0.004988
117 0.003984
124 0.004997
136 0.004994
142 0.003971
148 0.004023
158 0.005014
167 0.005985
172 0.005984
167 0.005018
134 0.005022
97 0.005017
81 0.004987
104 0.004988
128 0.004988
145 0.005001
163 0.005021
167 0.004058
163 0.004023
162 0.006015
167 0.005984
181 0.004987
187 0.005027
194 0.006026
197 0.005035
151 0.005
108 0.005985
82 0.005979
23 0.005046
0 0.005033
0 0.004994
0 0.004982
0 0.004986
0 0.005995
0 0.005985
0 0.004986
0 0.005985
0 0.004987
3 0.005985
23 0.006003
53 0.004986
73 0.005032
95 0.004982
111 0.006015
129 0.005984
150 0.005555
135 0.005018
100 0.004976
84 0.00602
99 0.005017
115 0.006012
119 0.021913
139 0.000948
134 0.005033
115 0.005984
99 0.006982
95 0.006969
84 0.005987
81 0.006015
74 0.006031
65 0.004978
62 0.006029
61 0.006026
56 0.005983
6 0.004986
37 0.005978
24 0.005994
23 0.006011
31 0.006982
39 0.006981
47 0.006013
48 0.005984
39 0.005987
36 0.006024
35 0.00605
40 0.006995
47 0.006032
53 0.006017
61 0.00703
69 0.007015
79 0.006982
84 0.007013
86 0.006015
65 0.005978
35 0.006018
32 0.006015
38 0.006025
48 0.007026
56 0.007024
44 0.006025
23 0.007017
11 0.007018
62 0.007109
61 0.008
61 0.007014
64 0.005985
69 0.007021
71 0.007015
74 0.006024
77 0.007019
80 0.006981
77 0.006017
65 0.00697
57 0.007019
55 0.007989
59 0.007979
67 0.007015
73 0.007014
79 0.007012
78 0.007013
77 0.007976
79 0.007987
81 0.007979
85 0.006979
86 0.006981
90 0.007015
93 0.007979
97 0.007939
100 0.007026
103 0.007021
103 0.007029
93 0.007023
83 0.00699
83 0.006962
86 0.007979
91 0.007978
97 0.006981
99 0.007912
103 0.007978
100 0.008011
100 0.006971
101 0.006949
108 0.007012
110 0.006964
113 0.007192
116 0.007979
119 0.007978
122 0.006951
126 0.006993
127 0.006982
119 0.006981
111 0.007015
108 0.00698
111 0.007014
121 0.006988
127 0.007976
131 0.007976
130 0.007939
129 0.007978
127 0.007984
130 0.006981
133 0.007018
135 0.006981
138 0.006982
142 0.006983
153 0.006981
159 0.006979
163 0.006979
152 0.006987
135 0.007003
124 0.007008
124 0.00703
131 0.006981
138 0.007023
147 0.00704
153 0.005984
153 0.006017
146 0.007008
147 0.005991
151 0.006997
154 0.006979
157 0.006981
162 0.006981
165 0.007017
170 0.007021
175 0.005983
176 0.007026
162 0.006982
144 0.00603
131 0.005983
134 0.005995
143 0.005984
150 0.006025
155 0.005981
155 0.006986
151 0.00645
146 0.006024
147 0.006025
149 0.00606
152 0.006026
155 0.006983
162 0.006976
165 0.007003
167 0.006978
169 0.005979
166 0.005952
148 0.006027
130 0.006027
119 0.005982
122 0.00595
127 0.005992
134 0.005983
140 0.005983
140 0.005992
135 0.005978
131 0.005983
133 0.005935
136 0.005979
138 0.005034
140 0.005985
141 0.005986
143 0.006019
146 0.005984
150 0.006021
154 0.005984
139 0.005975
123 0.005954
98 0.005977
102 0.005986
105 0.010971
124 0.0
146 0.005991
157 0.005979
174 0.005967
180 0.005991
187 0.004986
190 0.005985
196 0.00598
185 0.005029
141 0.005023
124 0.004986
121 0.005037
123 0.004986
146 0.004987
158 0.004987
165 0.004984
155 0.004988
148 0.004988
148 0.005025
154 0.004987
160 0.004987
170 0.005028
177 0.005025
183 0.004034
191 0.005017
195 0.004987
190 0.005036
158 0.004986
116 0.004987
108 0.004992
113 0.004987
125 0.004035
139 0.004036
155 0.004029
158 0.005033
148 0.005025
140 0.004022
140 0.004003
147 0.003995
155 0.004029
165 0.003953
170 0.003987
178 0.004997
185 0.004965
191 0.004054
179 0.004021
143 0.004125
110 0.004023
96 0.004038
108 0.004927
122 0.004962
136 0.004984
147 0.004023
143 0.00404
138 0.004026
134 0.003989
139 0.00399
146 0.00399
152 0.00399
160 0.00399
171 0.003956
181 0.004011
188 0.003962
193 0.003981
181 0.003981
138 0.003986
103 0.004048
90 0.002993
94 0.00399
111 0.00399
124 0.004022
131 0.00399
123 0.003949
114 0.003989
110 0.004017
109 0.003946
118 0.002989
124 0.002992
131 0.002955
138 0.002993
145 0.003219
155 0.002993
165 0.002994
170 0.003031
123 0.002968
91 0.002998
80 0.00295
85 0.003957
98 0.003944
114 0.003957
123 0.002994
125 0.002993
117 0.002956
112 0.003028
113 0.003023
119 0.003024
129 0.002955
135 0.002959
140 0.00302
148 0.003001
158 0.002988
170 0.003174
171 0.002962
144 0.002997
107 0.002979
87 0.002993
87 0.002993
100 0.002992
126 0.00297
139 0.00295
140 0.003991
131 0.003004
126 0.002949
128 0.003012
137 0.003042
145 0.00203
153 0.001995
159 0.002994
167 0.002992
175 0.003008
175 0.003
150 0.002961
112 0.00203
91 0.001996
89 0.001995
101 0.003047
117 0.003029
131 0.001994
139 0.001991
135 0.001995
124 0.002029
126 0.001995
135 0.002043
140 0.002026
146 0.002005
154 0.001968
163 0.001944
179 0.001953
187 0.001998
170 0.002019
135 0.002993
105 0.001995
94 0.001985
103 0.001994
123 0.001964
133 0.001962
132 0.00196
121 0.001956
109 0.001986
107 0.001984
110 0.001995
116 0.013963
121 0.000956
139 0.001991
149 0.001995
156 0.001047
163 0.001008
146 0.001952
108 0.000998
76 0.000967
62 0.000997
65 0.000963
77 0.001995
95 0.001993
111 0.001996
110 0.001996
94 0.002027
88 0.001995
92 0.002008
99 0.001964
104 0.001032
110 0.001995
118 0.001994
127 0.000968
131 0.001042
118 0.001011
80 0.000998
47 0.000962
37 0.001033
55 0.000999
72 0.000997
88 0.000951
93 0.001954
85 0.001024
76 0.000996
72 0.000998
77 0.000997
83 0.000993
88 0.001042
93 0.000997
101 0.000999
114 0.000968
114 0.000966
79 0.0
52 0.0
38 0.000998
39 0.000966
52 0.001002
77 0.000996
90 0.000998
94 0.000996
85 0.000987
82 0.000997
86 0.000988
95 0.000963
110 0.000955
122 0.0
132 0.0
143 0.0
151 0.0
156 0.0
129 0.0
94 0.0
75 0.0
70 0.0
86 0.000997
100 0.000997
111 0.00097
107 0.0
99 0.0
95 0.0
97 0.0
100 0.0
106 0.0
113 0.0
121 0.0
129 0.0
139 0.0
137 0.0
96 0.0
67 0.0
57 0.0
64 0.0
73 0.0
88 0.000997
97 0.000997
85 0.0
78 0.000988
68 0.0
71 0.000998
81 0.0
89 0.001
99 0.001006
110 0.0
118 0.0
124 0.0
105 0.000998
65 0.000998
38 0.0
41 0.0
58 0.0
90 0.0
104 0.0
108 0.000995
101 0.000999
92 0.000966
93 0.0
99 0.0
112 0.0
119 0.001028
126 0.000998
144 0.0
153 0.0
142 0.0
103 0.0
76 0.0
69 0.00099
82 0.000997
104 0.0
122 0.000999
135 0.001029
132 0.000997
121 0.000998
116 0.001003
118 0.000999
130 0.000999
138 0.0
141 0.000988
151 0.000973
159 0.000998
167 0.0
148 0.000966
103 0.0
71 0.002013
64 0.000999
79 0.001048
103 0.002009
123 0.000965
124 0.001015
117 0.000998
110 0.002031
108 0.001948
116 0.001037
124 0.0
135 0.000971
144 0.001053
152 0.000998
164 0.001028
173 0.000993
153 0.000991
106 0.0
87 0.0
89 0.001991
100 0.01496
124 0.0
150 0.002033
139 0.002026
134 0.000963
139 0.001998
147 0.001986
156 0.001949
165 0.001992
174 0.00199
182 0.001995
190 0.000968
177 0.000998
139 0.000962
107 0.001995
96 0.001995
109 0.001028
134 0.001979
159 0.002014
167 0.002026
157 0.002016
145 0.002986
144 0.003005
148 0.001996
156 0.001005
166 0.000999
171 0.002962
178 0.002025
192 0.001994
199 0.002994
164 0.001972
118 0.002026
93 0.001985
89 0.00302
98 0.003032
117 0.001981
134 0.002004
140 0.000994
129 0.001982
112 0.002992
103 0.001995
108 0.002982
117 0.003047
125 0.001963
133 0.001987
141 0.00199
148 0.002984
149 0.002999
110 0.001997
63 0.001994
38 0.002028
36 0.002996
50 0.002995
81 0.003012
94 0.00299
94 0.002963
82 0.002993
72 0.001994
74 0.002992
83 0.003013
95 0.002003
103 0.002039
112 0.002001
122 0.003989
130 0.003037
133 0.003989
95 0.003979
43 0.002991
28 0.002996
34 0.003018
50 0.003981
70 0.003989
88 0.003001
92 0.003025
82 0.003024
74 0.003989
73 0.00399
86 0.003994
93 0.003992
103 0.003982
112 0.00299
118 0.002986
125 0.003995
134 0.004
126 0.002983
82 0.002991
42 0.002992
22 0.003977
40 0.002004
58 0.00397
75 0.00399
86 0.002977
78 0.002987
69 0.002989
65 0.004027
70 0.004022
81 0.003034
91 0.003024
100 0.004018
108 0.004987
121 0.004016
131 0.004975
137 0.003985
131 0.00299
94 0.002995
51 0.002983
26 0.004029
26 0.004984
46 0.002987
62 0.002991
75 0.004029
78 0.005038
66 0.003985
58 0.004985
62 0.004973
75 0.004006
85 0.003983
98 0.003986
105 0.00502
111 0.00498
125 0.003983
133 0.004023
138 0.003992
139 0.004025
78 0.003985
47 0.003982
35 0.004994
44 0.003976
68 0.004045
85 0.003989
101 0.004011
101 0.004967
89 0.00505
82 0.004022
87 0.003983
96 0.004029
109 0.004012
115 0.003996
121 0.004987
132 0.004986
147 0.003988
156 0.003978
155 0.003989
118 0.004982
79 0.00503
56 0.004037
65 0.004022
84 0.004021
116 0.003983
128 0.005025
122 0.005991
109 0.00598
104 0.004986
106 0.005024
113 0.004947
120 0.005971
128 0.005981
139 0.005019
149 0.005021
156 0.004885
159 0.003999
140 0.004975
78 0.005026
53 0.005021
54 0.004035
73 0.005031
83 0.005984
91 0.000998
108 0.000994
117 0.0
95 0.005011
91 0.005027
101 0.004
111 0.003988
123 0.004982
132 0.006003
143 0.00497
152 0.005012
160 0.004965
162 0.006016
127 0.006021
62 0.004979
38 0.004977
38 0.005023
66 0.004983
87 0.004997
104 0.005986
104 0.005985
90 0.006016
81 0.004927
79 0.004981
83 0.006984
93 0.00698
109 0.00601
119 0.00501
127 0.005027
139 0.005016
148 0.004978
137 0.007012
92 0.007016
46 0.00602
36 0.005015
44 0.004971
61 0.00598
83 0.007026
100 0.00695
102 0.004986
89 0.006024
86 0.005019
92 0.004983
102 0.006032
113 0.007018
123 0.006982
137 0.007015
147 0.005928
156 0.005018
170 0.006981
153 0.007944
106 0.007005
62 0.007014
61 0.005962
78 0.006028
96 0.006005
115 0.00701
122 0.007021
107 0.005973
95 0.00612
88 0.005021
90 0.007026
96 0.007036
113 0.006039
123 0.006992
133 0.00603
140 0.00702
151 0.006031
126 0.007988
78 0.007979
46 0.006022
43 0.005983
56 0.006981
81 0.007987
95 0.006983
116 0.005981
105 0.006978
89 0.005998
91 0.00699
101 0.006986
116 0.007977
122 0.007979
136 0.006981
142 0.00698
147 0.006981
152 0.007946
138 0.007965
78 0.00702
46 0.006984
57 0.007003
77 0.006981
98 0.006972
116 0.008
117 0.007977
103 0.006975
90 0.007034
93 0.007014
106 0.007973
115 0.007979
130 0.007021
145 0.007969
152 0.006019
158 0.006987
153 0.006975
87 0.006995
44 0.00699
23 0.006974
29 0.006977
45 0.006984
74 0.007976
86 0.007978
87 0.006985
65 0.007973
61 0.006991
70 0.006987
83 0.006985
96 0.006981
108 0.007011
118 0.007014
129 0.006981
140 0.00696
138 0.006941
81 0.007021
43 0.007021
35 0.007962
51 0.007982
79 0.006982
96 0.006983
93 0.006987
81 0.006977
67 0.00698
62 0.006981
66 0.006978
74 0.006988
84 0.00702
95 0.006993
110 0.006982
114 0.005989
89 0.005981
46 0.005988
14 0.00598
9 0.007016
23 0.006989
53 0.00698
75 0.006994
84 0.006978
76 0.006983
60 0.006965
60 0.005951
69 0.005985
87 0.006148
91 0.009974
100 0.001027
110 0.000984
134 0.005982
130 0.006022
95 0.005985
55 0.006974
38 0.006981
57 0.006962
82 0.006943
104 0.005983
116 0.005983
106 0.006012
94 0.006022
91 0.005987
99 0.006011
114 0.005984
126 0.005978
140 0.004989
152 0.005983
168 0.006026
179 0.005987
176 0.006033
121 0.006
86 0.005982
76 0.005988
87 0.005977
105 0.005982
136 0.005971
152 0.00599
148 0.004964
135 0.00602
132 0.00595
140 0.004952
154 0.004994
168 0.005952
178 0.006023
188 0.00597
197 0.006
207 0.005984
204 0.005983
159 0.005983
109 0.00597
86 0.005984
98 0.004955
122 0.004987
146 0.004992
160 0.004986
152 0.004986
136 0.004984
130 0.004999
135 0.004999
144 0.004987
159 0.004986
167 0.005489
178 0.004987
194 0.004977
202 0.004991
187 0.004987
135 0.005012
82 0.004983
73 0.004983
86 0.004995
108 0.005026
135 0.004952
150 0.004987
142 0.004995
128 0.00403
121 0.004019
130 0.004991
141 0.005002
151 0.004992
166 0.004983
175 0.005007
186 0.004994
197 0.004984
207 0.00498
171 0.004976
119 0.004973
87 0.005029
94 0.004965
116 0.003993
139 0.003993
159 0.003985
161 0.003994
149 0.003999
139 0.003991
140 0.004988
149 0.004987
164 0.004988
177 0.004976
187 0.004987
201 0.00498
207 0.004022
215 0.004002
223 0.00399
180 0.00399
130 0.003989
102 0.004074
101 0.003989
119 0.003987
150 0.002993
169 0.003983
178 0.00403
159 0.003995
153 0.003024
157 0.002992
165 0.00403
177 0.003989
184 0.003983
191 0.002998
198 0.003033
202 0.002991
214 0.002961
222 0.003765
216 0.003988
165 0.003994
114 0.004039
88 0.004013
85 0.00401
103 0.003899
118 0.003845
128 0.003012
123 0.002959
105 0.002957
79 0.003
74 0.002959
84 0.00297
92 0.002996
103 0.002968
110 0.002959
120 0.002988
165 0.002997
205 0.003959
244 0.002958
255 0.003012
255 0.002992
255 0.002959
255 0.002959
255 0.002946
255 0.002995
255 0.00296
255 0.002991
255 0.002023
254 0.002031
255 0.003035
255 0.003021
255 0.002989
255 0.002951
255 0.002993
255 0.002991
255 0.002994
255 0.012965
255 0.002985
255 0.003
224 0.002994
172 0.00296
145 0.001961
150 0.002032
166 0.002992
180 0.002989
187 0.002942
176 0.002978
150 0.002983
140 0.002945
141 0.002953
147 0.002992
153 0.002959
161 0.002964
171 0.001998
179 0.001987
185 0.001994
188 0.001996
164 0.001966
93 0.001966
62 0.001998
72 0.00196
92 0.001988
116 0.002005
136 0.002956
139 0.002029
122 0.001962
112 0.001995
109 0.001984
116 0.001965
125 0.001958
138 0.001996
150 0.002
158 0.001994
168 0.001964
173 0.001968
172 0.001994
129 0.001058
63 0.000962
48 0.000965
53 0.00102
69 0.000997
89 0.000999
111 0.000995
111 0.001965
88 0.001964
80 0.001012
81 0.000987
87 0.000999
98 0.000965
110 0.001965
118 0.000962
127 0.000999
136 0.000999
142 0.000966
145 0.000995
87 0.000965
41 0.000963
35 0.000965
50 0.000996
72 0.001009
96 0.001954
119 0.001949
115 0.001963
104 0.000945
97 0.000983
100 0.000966
109 0.000963
129 0.00099
142 0.000963
158 0.000963
171 0.000999
182 0.0
191 0.00096
185 0.000998
125 0.001961
86 0.0
72 0.000997
82 0.001013
120 0.000998
142 0.000965
156 0.000998
142 0.000997
126 0.001041
122 0.001033
124 0.000998
133 0.001033
150 0.000997
158 0.0
167 0.0
177 0.0
188 0.0
189 0.0
161 0.0
90 0.000958
61 0.001011
57 0.0
70 0.0
88 0.0
114 0.0
120 0.001003
103 0.0
86 0.0
81 0.000997
87 0.0
95 0.0
108 0.0
120 0.0
127 0.000972
135 0.0
142 0.0
141 0.0
98 0.0
40 0.0
9 0.000998
13 0.0
31 0.0
49 0.0
65 0.0
58 0.0
35 0.0
27 0.0
27 0.000959
38 0.001959
49 0.0
63 0.0
73 0.0
87 0.000968
98 0.000997
111 0.0
106 0.001992
61 0.001011
0 0.000983
0 0.0
0 0.000994
0 0.000981
19 0.000993
38 0.0
40 0.0
15 0.0
11 0.0
16 0.0
24 0.000949
38 0.000996
50 0.00099
67 0.0
81 0.0
90 0.0
104 0.001
116 0.000999
116 0.0
56 0.001992
8 0.0
3 0.0
20 0.0
46 0.000983
72 0.000994
88 0.0
86 0.0
75 0.0
72 0.000998
74 0.000998
92 0.0
110 0.000999
128 0.000959
137 0.001004
146 0.001018
157 0.001988
168 0.001993
179 0.000968
184 0.000996
152 0.001032
101 0.001005
68 0.00202
69 0.0
97 0.001035
127 0.000999
140 0.000996
132 0.000995
116 0.000982
103 0.000996
106 0.000985
115 0.000987
128 0.000992
139 0.001996
152 0.002018
166 0.002025
174 0.001996
184 0.001015
195 0.000999
202 0.001005
180 0.002012
125 0.002004
78 0.001011
73 0.001018
87 0.00101
108 0.002049
133 0.00298
148 0.001995
135 0.002032
121 0.001997
121 0.002015
131 0.001956
146 0.00299
158 0.003
173 0.000998
181 0.00101
188 0.000972
195 0.001994
204 0.001983
221 0.001995
213 0.001995
145 0.002001
99 0.001992
86 0.001999
97 0.002984
116 0.002993
145 0.001993
162 0.002027
158 0.001979
143 0.002036
132 0.002996
133 0.001002
142 0.002994
155 0.00299
174 0.001995
183 0.001983
194 0.001977
204 0.002992
210 0.003031
220 0.002002
226 0.002012
215 0.001981
160 0.003001
76 0.001035
66 0.003022
78 0.002992
105 0.001985
127 0.002994
144 0.001995
142 0.004005
131 0.003979
127 0.001992
137 0.001994
145 0.001993
161 0.002999
177 0.001997
184 0.004003
191 0.003987
204 0.00198
213 0.001998
221 0.001994
224 0.003988
199 0.004002
133 0.002986
105 0.002038
100 0.002036
115 0.003995
153 0.003024
175 0.004027
181 0.004
165 0.002035
154 0.002004
154 0.002027
157 0.003009
167 0.003983
179 0.00299
185 0.002033
189 0.00204
198 0.003977
216 0.002032
225 0.004006
219 0.003982
157 0.002992
113 0.002993
98 0.003026
107 0.003996
127 0.003979
160 0.002995
179 0.00296
186 0.002993
174 0.003991
154 0.003034
155 0.00399
161 0.004977
175 0.004024
184 0.002983
192 0.003962
201 0.004035
213 0.003997
223 0.00299
231 0.003007
198 0.002982
138 0.00399
88 0.002977
94 0.003989
114 0.003994
146 0.003039
164 0.003993
174 0.003984
163 0.005018
146 0.004986
138 0.003968
144 0.003984
152 0.00399
166 0.002997
176 0.003025
187 0.004029
198 0.00502
210 0.004992
218 0.003987
193 0.003991
134 0.003974
91 0.004987
76 0.004975
94 0.004007
113 0.003992
151 0.004029
159 0.00402
150 0.004023
136 0.005019
126 0.005973
130 0.004982
139 0.003989
150 0.004004
162 0.004996
176 0.005947
190 0.004994
202 0.004044
218 0.005003
214 0.005021
165 0.004985
110 0.005015
83 0.005978
89 0.003981
106 0.003976
128 0.003988
149 0.006022
161 0.004985
144 0.004969
129 0.004967
122 0.004007
130 0.004974
141 0.004976
151 0.005986
160 0.005984
174 0.005022
181 0.004986
190 0.005017
194 0.00599
177 0.006061
103 0.003998
66 0.004001
59 0.004981
75 0.005021
94 0.005003
115 0.006008
126 0.006015
107 0.004988
90 0.004992
85 0.00399
88 0.006094
92 0.004986
107 0.005049
119 0.004981
133 0.006033
142 0.005025
151 0.004977
158 0.006981
131 0.006026
54 0.004992
21 0.004039
17 0.005993
31 0.006023
49 0.005983
78 0.005983
90 0.005976
70 0.005989
56 0.006016
54 0.004982
60 0.007013
70 0.007012
87 0.005014
97 0.004972
108 0.004988
118 0.005963
125 0.006943
136 0.006988
130 0.005982
59 0.006981
1 0.006013
0 0.005995
8 0.006014
28 0.006991
52 0.007012
74 0.005989
70 0.005997
52 0.005979
43 0.007003
44 0.007015
57 0.006018
73 0.007015
89 0.006627
101 0.005979
108 0.005989
115 0.006977
122 0.007015
131 0.006007
118 0.006
66 0.006
17 0.006988
0 0.007984
19 0.007926
37 0.007979
72 0.007004
89 0.006975
83 0.006974
65 0.007978
62 0.007975
70 0.006951
75 0.006
89 0.006951
104 0.007981
114 0.007025
130 0.007979
139 0.007979
152 0.007015
159 0.006981
137 0.007014
66 0.007978
40 0.008009
30 0.006978
41 0.00599
72 0.006976
96 0.006974
113 0.007014
96 0.007975
83 0.00697
78 0.006971
83 0.006975
94 0.006979
109 0.00798
118 0.007978
126 0.006981
132 0.00699
140 0.006033
149 0.007964
152 0.007968
75 0.007013
30 0.007221
13 0.007346
19 0.00603
39 0.007045
71 0.007977
92 0.00796
94 0.007017
78 0.006025
62 0.007104
61 0.00799
71 0.006985
93 0.00699
104 0.00695
120 0.006952
131 0.007616
140 0.006981
152 0.007015
158 0.00797
121 0.006969
39 0.006989
5 0.007019
61 0.006985
70 0.006945
90 0.007017
99 0.007013
103 0.007026
94 0.007012
89 0.006973
88 0.006014
92 0.006977
98 0.006981
104 0.006958
113 0.006014
117 0.005987
121 0.005991
128 0.006987
132 0.007032
134 0.006977
101 0.006966
66 0.00698
45 0.006981
41 0.006934
49 0.006963
65 0.006945
76 0.006972
84 0.006964
82 0.005964
68 0.006025
68 0.006023
73 0.006022
82 0.006018
91 0.005983
99 0.005986
107 0.00596
114 0.00598
125 0.006984
132 0.006982
135 0.00602
130 0.005994
82 0.006022
64 0.006018
62 0.006024
77 0.005984
93 0.005981
107 0.005985
117 0.005989
116 0.005992
105 0.005954
101 0.006031
103 0.005988
110 0.005981
123 0.006023
131 0.005964
136 0.006287
145 0.00603
151 0.005996
155 0.005975
161 0.00599
154 0.005982
114 0.005986
90 0.005973
83 0.004989
94 0.005028
108 0.004987
121 0.004988
129 0.005028
122 0.004987
111 0.005985
106 0.005983
107 0.004987
113 0.005984
123 0.005984
129 0.006017
136 0.005986
146 0.005972
152 0.006027
158 0.005023
148 0.004994
107 0.004981
85 0.004947
78 0.004984
85 0.005006
98 0.004997
112 0.00499
130 0.004988
131 0.004989
116 0.005019
113 0.005025
115 0.004982
121 0.005021
129 0.005031
137 0.004418
142 0.004983
148 0.004947
155 0.00499
161 0.003999
162 0.00397
134 0.004031
84 0.005054
76 0.005032
80 0.005018
92 0.005026
106 0.005029
124 0.004942
127 0.005019
118 0.004988
110 0.004986
109 0.004001
114 0.004
119 0.004984
132 0.004024
137 0.004022
143 0.00399
148 0.003962
153 0.00481
158 0.004595
139 0.004009
103 0.004066
78 0.00402
69 0.004005
77 0.004029
91 0.003994
114 0.00402
120 0.003981
108 0.004032
97 0.004032
94 0.00404
99 0.003991
109 0.004015
120 0.003996
131 0.003987
142 0.003992
153 0.003943
162 0.003262
174 0.004035
159 0.003992
115 0.004021
76 0.002994
63 0.002995
72 0.003953
90 0.003985
111 0.004013
132 0.003959
138 0.003998
121 0.00401
114 0.004001
114 0.004029
120 0.003024
129 0.003046
141 0.002989
150 0.002979
159 0.003038
167 0.003023
173 0.002993
169 0.002996
131 0.002992
77 0.002994
59 0.003024
69 0.003025
87 0.003028
109 0.003643
127 0.002957
127 0.002993
108 0.002988
99 0.002992
100 0.003009
105 0.002958
114 0.002964
125 0.002956
138 0.003983
148 0.003052
159 0.002982
166 0.002035
152 0.002994
102 0.002994
58 0.002958
42 0.002987
49 0.002957
65 0.002949
87 0.002949
107 0.00298
107 0.00303
91 0.002992
83 0.002993
86 0.001995
93 0.001995
100 0.001995
112 0.001995
123 0.001983
132 0.001995
141 0.001961
150 0.001968
152 0.001994
86 0.002962
45 0.001996
27 0.002993
36 0.001996
52 0.001963
73 0.002956
91 0.001938
91 0.002995
76 0.002994
66 0.002975
66 0.001988
69 0.001946
87 0.002027
95 0.001995
109 0.001994
118 0.002029
127 0.001995
139 0.001995
146 0.001987
105 0.001995
60 0.001961
35 0.001965
33 0.001946
44 0.001957
79 0.001995
98 0.002041
101 0.000998
87 0.000998
75 0.001002
76 0.000998
81 0.001994
93 0.00198
104 0.001991
117 0.001969
125 0.002
135 0.001953
152 0.001995
148 0.001994
97 0.000998
57 0.000995
37 0.001003
39 0.000998
55 0.000996
85 0.000954
104 0.001003
110 0.000965
97 0.000964
83 0.001041
75 0.000997
80 0.000997
92 0.000998
102 0.000998
112 0.000997
122 0.001995
130 0.000998
131 0.001011
92 0.000966
46 0.001044
18 0.001
16 0.000978
42 0.000989
65 0.002004
86 0.002074
92 0.001039
79 0.000971
68 0.000962
66 0.000996
70 0.000984
84 0.000998
95 0.000997
106 0.00095
117 0.001998
131 0.000997
127 0.001996
88 0.001996
28 0.000997
9 0.0
14 0.001008
35 0.000997
60 0.0
86 0.000963
88 0.000937
78 0.001183
68 0.000995
70 0.000998
83 0.0
94 0.0
113 0.0
122 0.0
131 0.0
139 0.0
145 0.0
123 0.0
78 0.0
39 0.0
27 0.0
41 0.000997
66 0.0
88 0.0
96 0.0
87 0.0
79 0.0
78 0.0
84 0.0
100 0.000961
110 0.000964
117 0.0
118 0.0
123 0.0
131 0.0
117 0.000997
53 0.000997
29 0.000997
33 0.001007
51 0.000997
83 0.0
109 0.0
124 0.0
125 0.0
114 0.001038
120 0.0
129 0.0
139 0.0
149 0.001045
159 0.000998
167 0.000982
170 0.000984
171 0.0
145 0.001994
101 0.002034
64 0.0
64 0.000998
82 0.0
101 0.0
119 0.0
120 0.001
107 0.000989
97 0.0
101 0.0
111 0.00098
131 0.001016
146 0.001996
159 0.0
172 0.00104
182 0.0
169 0.0
128 0.0
90 0.000997
80 0.000998
88 0.000997
107 0.001
136 0.0
152 0.0
155 0.001986
147 0.002
143 0.002039
145 0.002054
155 0.0
163 0.0
170 0.0
179 0.000998
192 0.001029
203 0.0
188 0.0
142 0.0
110 0.000978
101 0.002016
123 0.002002
145 0.002032
172 0.0
175 0.0
161 0.0
141 0.002038
130 0.002033
127 0.0
132 0.000995
136 0.000977
138 0.000995
143 0.001991
157 0.001995
162 0.001955
107 0.002001
65 0.001058
49 0.002034
57 0.002011
75 0.002
102 0.001001
122 0.000999
130 0.000996
123 0.001996
111 0.003002
110 0.002995
120 0.002992
132 0.000954
141 0.000993
153 0.001004
165 0.001995
174 0.001955
179 0.000997
137 0.001963
85 0.001994
57 0.001995
58 0.003
86 0.002997
105 0.003096
125 0.002028
128 0.001032
123 0.000996
114 0.002993
115 0.002993
126 0.000995
135 0.000989
144 0.001013
154 0.002999
168 0.000954
177 0.001967
185 0.003033
188 0.001983
146 0.001953
89 0.002002
62 0.00299
61 0.003052
84 0.001986
103 0.001999
120 0.002034
133 0.001986
131 0.001992
125 0.002038
127 0.002992
134 0.003037
149 0.001002
160 0.001986
170 0.001986
180 0.00402
188 0.003764
197 0.001999
203 0.001987
210 0.001991
208 0.002036
157 0.003032
109 0.003034
88 0.004026
99 0.002036
119 0.001965
137 0.000999
156 0.003984
168 0.003979
164 0.001994
153 0.001995
149 0.001997
162 0.001999
171 0.001972
182 0.004046
189 0.003029
199 0.001954
202 0.00305
209 0.002997
216 0.004019
223 0.002991
195 0.001997
148 0.002979
122 0.00299
130 0.00299
148 0.003022
167 0.003989
185 0.003958
196 0.002993
189 0.003023
177 0.002982
172 0.003997
178 0.00399
191 0.003032
197 0.00303
205 0.002004
216 0.002034
224 0.001978
229 0.003988
236 0.003956
246 0.001995
243 0.003033
194 0.001031
153 0.004987
136 0.005025
146 0.00299
163 0.002976
182 0.002994
205 0.002988
207 0.002993
198 0.00399
184 0.003985
184 0.002983
191 0.00295
199 0.002993
206 0.003996
214 0.003989
220 0.003993
222 0.002976
226 0.00399
232 0.004019
233 0.00299
194 0.004989
144 0.005032
116 0.002986
120 0.003015
134 0.003006
154 0.004013
173 0.005052
186 0.004991
190 0.003001
179 0.002989
170 0.002959
173 0.003015
179 0.003986
187 0.005021
195 0.004988
205 0.003998
214 0.00398
220 0.00403
226 0.004989
231 0.004989
213 0.003982
150 0.005998
131 0.00442
137 0.004031
151 0.004025
170 0.005022
190 0.006012
205 0.004988
200 0.003974
186 0.002986
175 0.004986
172 0.006015
179 0.00399
188 0.005029
200 0.003987
206 0.002975
214 0.003998
219 0.004987
222 0.00499
210 0.003978
169 0.003973
138 0.004973
130 0.006016
139 0.006015
163 0.004028
186 0.005953
201 0.004987
202 0.00402
192 0.003978
180 0.005988
171 0.005984
173 0.004025
175 0.004032
179 0.004986
185 0.005981
193 0.006028
201 0.004976
206 0.005984
158 0.004991
132 0.004987
124 0.004977
136 0.006982
151 0.005993
176 0.004992
190 0.004994
196 0.005018
188 0.006032
172 0.00598
160 0.004022
160 0.006987
167 0.005031
175 0.004983
181 0.004973
189 0.006982
196 0.006981
184 0.005035
137 0.005035
103 0.004986
90 0.005989
92 0.005995
111 0.005998
136 0.00698
152 0.005019
146 0.005001
134 0.005984
125 0.006985
124 0.007016
122 0.006019
127 0.00595
136 0.005948
141 0.006975
146 0.006963
152 0.006982
104 0.006981
60 0.007027
33 0.005977
35 0.005012
48 0.005029
70 0.007948
81 0.007981
85 0.004962
74 0.005974
62 0.005987
58 0.007016
59 0.007008
69 0.007018
78 0.006983
87 0.005983
95 0.005954
101 0.005988
89 0.006979
29 0.007945
0 0.005948
0 0.00598
0 0.005942
14 0.007977
26 0.007005
45 0.006978
41 0.006981
27 0.005982
24 0.005988
27 0.006018
32 0.006982
40 0.006937
51 0.005984
58 0.005983
66 0.007004
79 0.007978
80 0.007981
31 0.00801
0 0.008014
0 0.006015
0 0.006015
0 0.005946
17 0.007953
32 0.007976
30 0.00597
18 0.005974
12 0.005995
14 0.007015
27 0.005985
40 0.007961
49 0.007437
59 0.006015
67 0.005981
75 0.005969
88 0.007021
90 0.007013
61 0.006979
18 0.007003
61 0.006004
60 0.007983
71 0.006015
85 0.007024
93 0.007014
93 0.006979
88 0.006967
85 0.006978
86 0.007018
90 0.007019
95 0.006925
100 0.006989
102 0.005961
104 0.007981
110 0.007013
116 0.007025
117 0.007979
101 0.006957
83 0.006978
76 0.006971
75 0.007984
80 0.007968
96 0.006994
106 0.006981
109 0.006981
106 0.007053
99 0.007015
100 0.006976
105 0.007014
108 0.007015
112 0.006967
115 0.006945
119 0.007007
124 0.007023
129 0.00698
135 0.006981
134 0.006967
115 0.006973
89 0.006025
87 0.00599
92 0.006019
101 0.005986
114 0.005985
119 0.005994
118 0.006987
113 0.006014
109 0.007011
112 0.006984
117 0.006949
121 0.005987
127 0.006973
130 0.006011
133 0.00601
136 0.006087
140 0.005952
144 0.005951
142 0.006016
124 0.006027
103 0.006016
92 0.006018
95 0.005998
102 0.005984
103 0.004989
112 0.007015
109 0.006032
99 0.006014
91 0.006011
95 0.006022
100 0.006014
107 0.006018
113 0.00601
123 0.006027
129 0.005981
134 0.005983
143 0.006024
151 0.006016
157 0.005987
142 0.00603
93 0.00603
73 0.006027
72 0.005969
84 0.00603
100 0.006025
120 0.006025
129 0.00602
126 0.005952
111 0.005978
110 0.005171
112 0.005019
120 0.005031
131 0.004977
137 0.005036
143 0.005031
147 0.006015
152 0.006013
156 0.005984
161 0.004968
165 0.005025
140 0.005027
103 0.005034
80 0.005034
77 0.004905
91 0.005048
107 0.00503
125 0.004016
136 0.004036
134 0.004023
117 0.005025
111 0.005013
115 0.005013
122 0.005017
126 0.004009
128 0.004008
128 0.004034
131 0.004023
135 0.004991
141 0.004992
145 0.005026
139 0.005035
104 0.005026
66 0.005026
60 0.004986
78 0.003967
93 0.004029
110 0.005028
121 0.003967
118 0.004289
104 0.005031
99 0.004033
102 0.004011
110 0.004024
118 0.004564
128 0.004957
135 0.005028
142 0.004034
146 0.004973
153 0.004021
159 0.003955
156 0.003992
105 0.003991
71 0.004036
57 0.004019
61 0.003993
74 0.003992
93 0.00399
109 0.004945
103 0.004875
94 0.004804
88 0.004032
87 0.00412
90 0.004986
102 0.003004
108 0.002994
116 0.004028
124 0.003991
130 0.004003
136 0.003945
146 0.004001
147 0.004033
120 0.004035
76 0.003988
49 0.003938
41 0.003991
56 0.002995
70 0.002994
87 0.002956
96 0.003023
96 0.002992
82 0.003991
77 0.004037
84 0.00399
91 0.00399
100 0.00399
105 0.003989
115 0.003991
124 0.002993
129 0.002957
135 0.003031
144 0.002976
147 0.002993
114 0.002991
62 0.003029
45 0.003958
53 0.00296
66 0.002965
81 0.003764
97 0.002991
100 0.002955
88 0.002953
77 0.00299
73 0.003031
76 0.002992
88 0.003971
100 0.002993
116 0.003019
124 0.003031
131 0.002997
141 0.004012
149 0.002019
156 0.002996
148 0.002948
109 0.003041
72 0.002992
58 0.002992
62 0.002992
87 0.003028
105 0.002029
123 0.001995
120 0.002983
108 0.003042
100 0.002027
98 0.001995
109 0.001996
117 0.002001
126 0.001996
135 0.002989
148 0.002992
157 0.003027
163 0.003018
167 0.003018
143 0.003035
103 0.001996
76 0.001995
71 0.002032
85 0.002037
103 0.001995
124 0.001027
138 0.002008
129 0.001996
117 0.001996
111 0.002006
113 0.00201
117 0.002027
124 0.000998
130 0.002993
138 0.002022
147 0.001995
155 0.001995
160 0.001995
148 0.001995
80 0.002034
59 0.001996
57 0.001046
75 0.000998
92 0.000998
110 0.000999
122 0.002004
115 0.002047
98 0.002
94 0.00196
96 0.001948
102 0.001995
115 0.002004
121 0.002044
128 0.001997
139 0.000999
145 0.000987
146 0.000997
113 0.000998
66 0.001006
30 0.001995
30 0.000997
42 0.002048
61 0.001996
89 0.001056
89 0.001031
79 0.000997
65 0.000998
64 0.000997
68 0.000997
78 0.000997
87 0.000998
99 0.000981
107 0.000997
115 0.000998
121 0.001996
130 0.000998
98 0.001002
52 0.000993
22 0.000998
17 0.000998
30 0.000998
46 0.001006
63 0.000997
77 0.000997
68 0.000997
55 0.000997
50 0.000997
55 0.000998
65 0.000997
75 0.0
84 0.0
96 0.0
104 0.0
113 0.0
122 0.000998
127 0.000998
94 0.001007
50 0.000998
22 0.000997
26 0.000998
45 0.0
64 0.0
83 0.0
91 0.0
78 0.0
69 0.0
65 0.0
71 0.0
81 0.0
91 0.0
102 0.0
115 0.000999
123 0.000997
131 0.0
138 0.0
124 0.0
81 0.0
39 0.000968
31 0.0
33 0.0
55 0.002052
76 0.001072
93 0.0
82 0.001028
61 0.00099
52 0.0
50 0.0
54 0.001964
58 0.00099
64 0.0
69 0.001014
75 0.0
81 0.002022
87 0.002028
81 0.002038
39 0.001065
0 0.0
0 0.0
0 0.0
16 0.001043
39 0.000993
63 0.0
61 0.0
50 0.000993
42 0.002007
44 0.002027
58 0.002038
68 0.001995
83 0.0
91 0.0
100 0.0
111 0.002041
121 0.002042
125 0.0
91 0.0
42 0.0
13 0.00205
7 0.002048
32 0.001993
53 0.002035
72 0.002043
76 0.0
64 0.0
49 0.0
44 0.002043
52 0.002037
67 0.0
77 0.0
86 0.0
97 0.002035
112 0.0
123 0.002029
130 0.000999
126 0.000998
90 0.000996
45 0.000998
15 0.002025
18 0.002026
45 0.0
67 0.0
85 0.0
91 0.002027
76 0.0
73 0.002043
75 0.001038
89 0.0
101 0.0
115 0.002004
123 0.001995
129 0.001996
142 0.001045
147 0.001994
159 0.0
165 0.002011
114 0.001004
66 0.002992
45 0.003034
52 0.000993
70 0.000964
90 0.001996
112 0.003041
121 0.003028
107 0.001982
98 0.001983
97 0.001996
102 0.001995
120 0.001994
131 0.001995
139 0.001995
152 0.001997
161 0.001998
171 0.001995
180 0.001995
184 0.002023
148 0.001025
102 0.001994
72 0.001996
66 0.003049
91 0.001989
113 0.003025
134 0.002992
139 0.002007
125 0.001997
114 0.001994
112 0.002038
117 0.003028
131 0.001984
141 0.001837
150 0.000991
159 0.002993
171 0.002005
180 0.002985
187 0.003028
186 0.000987
153 0.00099
102 0.00102
69 0.002992
65 0.002992
82 0.001998
101 0.001996
124 0.001986
139 0.001026
127 0.001985
114 0.001999
113 0.003138
120 0.00396
135 0.001996
147 0.001992
157 0.001997
167 0.003033
175 0.002992
185 0.002003
192 0.001003
201 0.00203
181 0.00199
134 0.001994
95 0.002995
83 0.002992
100 0.001995
118 0.001993
137 0.001954
156 0.003956
160 0.00399
144 0.002002
135 0.00196
138 0.001987
147 0.002018
161 0.001992
172 0.004022
181 0.003947
195 0.003016
205 0.001995
215 0.002994
226 0.003991
232 0.003983
200 0.001955
154 0.001983
117 0.001997
122 0.001982
140 0.002004
160 0.00402
179 0.003983
191 0.002992
185 0.002996
175 0.002993
172 0.003977
176 0.00396
189 0.001953
200 0.00199
214 0.00199
223 0.001988
229 0.002028
237 0.004987
246 0.004998
249 0.002992
219 0.002986
176 0.002985
150 0.004987
145 0.005019
162 0.002996
181 0.002985
213 0.00295
217 0.002988
205 0.003005
190 0.003989
185 0.005018
187 0.002981
193 0.002981
201 0.002976
209 0.005031
215 0.004986
226 0.002966
232 0.002992
226 0.003026
183 0.001991
142 0.003001
123 0.004988
124 0.004987
143 0.003023
162 0.002959
181 0.003007
187 0.004976
179 0.005034
167 0.005003
158 0.002996
165 0.004985
177 0.002992
186 0.003962
193 0.004001
199 0.004983
204 0.004986
207 0.002995
171 0.003001
120 0.00398
88 0.004985
81 0.004988
95 0.003996
120 0.004984
142 0.003035
143 0.003978
128 0.004002
113 0.00594
105 0.005985
110 0.003993
118 0.003992
129 0.003955
140 0.005986
148 0.005993
156 0.004987
154 0.004986
104 0.003989
59 0.00403
36 0.004986
38 0.00602
52 0.006014
76 0.004051
93 0.004024
97 0.004014
86 0.006015
74 0.005981
69 0.006019
74 0.005987
85 0.004003
95 0.004002
108 0.003989
118 0.007013
124 0.006983
113 0.004977
74 0.004974
38 0.004986
26 0.005937
33 0.006031
65 0.006012
86 0.006947
96 0.004987
88 0.004986
78 0.004992
72 0.007012
75 0.006981
85 0.004976
97 0.004988
105 0.004978
113 0.006982
123 0.00703
121 0.005977
87 0.006979
45 0.005955
37 0.00499
45 0.00499
62 0.006981
82 0.006993
102 0.004955
98 0.004987
89 0.004987
85 0.007018
91 0.007028
107 0.005971
119 0.007015
135 0.004983
145 0.004993
149 0.004999
155 0.006981
147 0.006982
104 0.005992
85 0.005984
88 0.005987
102 0.005972
124 0.006982
160 0.004972
163 0.007093
149 0.006962
135 0.005029
135 0.005019
143 0.004983
153 0.006967
162 0.00697
173 0.00598
176 0.004983
174 0.005986
153 0.007959
107 0.005984
87 0.007982
90 0.007979
115 0.005984
138 0.004983
163 0.006941
176 0.00798
174 0.00699
162 0.006981
156 0.005953
155 0.005985
159 0.007979
169 0.00502
179 0.007009
190 0.008041
193 0.005018
162 0.005969
124 0.005983
106 0.008011
110 0.008009
135 0.004982
156 0.006983
174 0.006004
178 0.007992
160 0.005026
155 0.007979
160 0.007977
168 0.005985
176 0.005979
185 0.005995
191 0.007978
200 0.006982
204 0.005995
176 0.006982
131 0.006979
102 0.006995
110 0.006006
129 0.006978
143 0.006938
152 0.005978
150 0.005983
139 0.005985
130 0.007979
136 0.007018
142 0.005958
149 0.005989
158 0.006971
163 0.005983
168 0.006004
175 0.006838
175 0.006984
149 0.006981
101 0.00696
70 0.006974
73 0.006979
87 0.006978
103 0.006982
118 0.006981
127 0.006979
114 0.006958
110 0.006972
114 0.006933
123 0.00695
131 0.006972
139 0.005983
143 0.006007
148 0.006968
151 0.006946
156 0.006953
166 0.006981
172 0.006974
169 0.006966
129 0.006971
78 0.006968
75 0.007049
89 0.006965
116 0.005987
134 0.006964
146 0.006032
148 0.006018
142 0.006009
135 0.005999
140 0.005952
167 0.00605
182 0.005948
198 0.005984
212 0.00598
223 0.006028
242 0.005965
250 0.005984
255 0.005992
255 0.007033
255 0.007077
255 0.006976
237 0.00699
210 0.006037
224 0.005983
244 0.005984
255 0.006012
255 0.006024
255 0.005949
255 0.005952
255 0.005978
255 0.006027
255 0.005963
255 0.006022
255 0.005989
255 0.00599
255 0.005976
255 0.005985
255 0.005083
255 0.004977
255 0.005029
255 0.005016
255 0.005023
255 0.006
255 0.006038
255 0.005999
255 0.005984
232 0.00598
237 0.005974
241 0.005979
187 0.006062
187 0.005019
188 0.005991
189 0.004965
192 0.005996
194 0.006025
196 0.006024
201 0.005987
204 0.005029
207 0.005048
209 0.005988
209 0.004987
208 0.004954
206 0.005018
205 0.005031
205 0.005037
204 0.005036
204 0.005025
205 0.004988
204 0.005018
203 0.005027
200 0.004973
198 0.004955
197 0.004825
196 0.004955
195 0.005024
193 0.005019
191 0.005017
189 0.004001
188 0.005029
182 0.005033
164 0.00403
151 0.004981
151 0.004019
152 0.003988
154 0.003953
154 0.005029
153 0.00474
150 0.004981
146 0.005019
144 0.005017
143 0.005026
144 0.004983
143 0.00499
144 0.004993
145 0.003981
147 0.003993
148 0.003977
147 0.003959
139 0.003993
131 0.004022
132 0.00396
135 0.004023
138 0.004028
140 0.004004
141 0.003992
141 0.003944
140 0.003852
140 0.003991
140 0.003031
139 0.004014
139 0.005035
140 0.002992
146 0.003988
148 0.003988
150 0.003994
152 0.004022
148 0.003641
128 0.003956
126 0.003958
133 0.003948
138 0.003984
141 0.00399
144 0.003993
145 0.002993
145 0.002993
144 0.003005
144 0.003953
144 0.003039
145 0.003991
148 0.003989
151 0.003981
154 0.003954
155 0.003989
156 0.004032
144 0.003001
128 0.002994
126 0.003011
130 0.002992
136 0.002994
141 0.002992
145 0.002992
147 0.002992
143 0.00295
138 0.004001
138 0.003976
138 0.003992
139 0.003991
141 0.002992
143 0.003038
145 0.002994
146 0.003023
142 0.003032
127 0.003024
114 0.002995
116 0.00299
123 0.003955
129 0.003961
134 0.003027
136 0.002951
135 0.002055
130 0.003009
129 0.003027
130 0.002965
133 0.002993
135 0.002994
139 0.003027
140 0.002985
142 0.002992
138 0.002983
121 0.003022
110 0.002992
109 0.001995
113 0.001977
121 0.001995
121 0.001995
134 0.001995
137 0.002036
120 0.001963
112 0.00199
112 0.001978
118 0.003008
124 0.002983
130 0.003025
136 0.001996
141 0.002026
145 0.001995
115 0.00203
76 0.002029
59 0.001995
70 0.001991
86 0.001992
101 0.00199
116 0.001984
117 0.002012
109 0.001995
100 0.001996
97 0.000998
102 0.001002
107 0.002035
111 0.001995
120 0.001992
126 0.001959
124 0.001963
89 0.001995
51 0.001961
48 0.001995
56 0.00201
70 0.001986
85 0.002013
100 0.000998
100 0.000999
91 0.000989
80 0.000973
80 0.000997
85 0.00196
89 0.001995
93 0.001954
96 0.001994
100 0.00199
102 0.002042
76 0.001029
33 0.001993
24 0.001049
32 0.000998
58 0.001999
74 0.001002
83 0.000964
81 0.000993
70 0.001014
63 0.002007
62 0.002053
66 0.002042
73 0.001963
81 0.000998
89 0.000998
94 0.000998
100 0.00097
71 0.00096
37 0.0
22 0.000998
29 0.000996
42 0.000997
59 0.000998
74 0.0
81 0.0
78 0.000998
65 0.0
63 0.0
73 0.0
81 0.000966
88 0.0
97 0.000994
106 0.0
117 0.0
123 0.0
109 0.0
76 0.0
61 0.0
78 0.0
101 0.0
137 0.0
154 0.0
159 0.0
152 0.0
145 0.0
143 0.0
151 0.0
160 0.000997
162 0.0
167 0.0
176 0.0
180 0.0
178 0.0
143 0.001013
114 0.001
110 0.0
116 0.0
140 0.000999
158 0.001017
175 0.0
175 0.000998
167 0.000997
155 0.0
155 0.0
159 0.0
164 0.0
171 0.0
179 0.0
182 0.0
180 0.001994
149 0.002037
109 0.0
98 0.0
103 0.0
109 0.001001
109 0.001978
60 0.001
25 0.000999
0 0.001005
0 0.000988
0 0.000991
0 0.001039
0 0.001995
0 0.0
0 0.0
0 0.0
0 0.000997
0 0.001964
0 0.001991
0 0.001988
0 0.000936
0 0.0
0 0.0
0 0.002029
0 0.002031
0 0.0
0 0.0
0 0.000955
0 0.002039
0 0.000952
6 0.003019
19 0.001988
17 0.000964
0 0.0
0 0.0
0 0.002038
0 0.002025
19 0.0
38 0.0
51 0.0
52 0.0
37 0.0
38 0.0
45 0.00296
52 0.002035
60 0.0
68 0.0
78 0.0
85 0.001999
89 0.002025
53 0.000992
22 0.0
9 0.0
24 0.0
39 0.0
54 0.001986
67 0.001993
65 0.0
55 0.0
47 0.0
49 0.002043
54 0.001994
65 0.0
71 0.000971
75 0.0
84 0.0
89 0.0
95 0.001992
93 0.001989
41 0.0
13 0.001996
9 0.0
20 0.00203
35 0.002041
56 0.0
68 0.0
69 0.002003
57 0.001998
54 0.001011
57 0.003012
64 0.002951
75 0.0
82 0.001012
89 0.001994
95 0.002994
103 0.003027
111 0.0
114 0.0
111 0.001965
55 0.0
42 0.0
48 0.00205
64 0.002007
85 0.0
99 0.001015
103 0.001999
101 0.002992
94 0.002961
92 0.001995
97 0.002037
104 0.001994
119 0.001997
125 0.001998
130 0.002996
135 0.002989
143 0.001996
148 0.001998
151 0.001997
156 0.003028
139 0.002994
94 0.00103
85 0.000967
94 0.001995
118 0.001993
131 0.001995
144 0.002989
144 0.002991
131 0.002024
125 0.001999
127 0.003002
133 0.001034
139 0.003027
146 0.002993
156 0.001996
160 0.001017
167 0.001997
169 0.00201
171 0.002011
174 0.00399
178 0.003024
176 0.001995
145 0.001995
119 0.002032
114 0.00402
122 0.003989
145 0.001984
165 0.003995
175 0.001998
170 0.001009
157 0.002004
153 0.003
155 0.002983
165 0.000981
175 0.001978
179 0.001989
184 0.003953
190 0.003989
196 0.002039
200 0.003976
202 0.001987
206 0.002977
207 0.001995
188 0.003989
157 0.003992
145 0.001993
153 0.001998
169 0.002036
186 0.00404
201 0.00502
208 0.001988
196 0.004987
186 0.000975
184 0.002981
190 0.002946
196 0.004977
201 0.004991
207 0.002985
211 0.002955
212 0.004021
215 0.004987
218 0.00502
221 0.002002
211 0.003996
171 0.001996
160 0.002974
168 0.001995
182 0.004989
196 0.004986
214 0.002983
219 0.002986
214 0.002981
201 0.004987
192 0.005015
191 0.002988
195 0.004021
201 0.003017
201 0.002011
202 0.001991
204 0.005025
206 0.005032
207 0.002996
208 0.002998
204 0.002991
169 0.004988
140 0.004986
137 0.003012
155 0.005043
176 0.002992
189 0.002038
193 0.002984
189 0.004988
176 0.00502
166 0.002993
167 0.003998
170 0.003978
177 0.00398
181 0.005991
185 0.005989
190 0.006015
191 0.005018
195 0.003999
196 0.003992
194 0.00398
161 0.006067
132 0.005984
131 0.003017
141 0.003953
158 0.003951
173 0.005999
205 0.005984
204 0.004981
186 0.005977
170 0.003075
170 0.003989
176 0.003971
183 0.005982
191 0.005977
194 0.003993
198 0.003982
203 0.003981
207 0.006019
209 0.005984
204 0.006939
158 0.006953
119 0.003959
123 0.004015
140 0.003979
158 0.007013
177 0.00602
194 0.004022
189 0.003979
173 0.003988
158 0.005948
155 0.005984
161 0.005983
166 0.005998
176 0.004976
181 0.00403
183 0.004995
185 0.007014
186 0.007011
191 0.003975
191 0.004995
157 0.003989
113 0.005984
102 0.005016
117 0.006033
139 0.005978
162 0.004952
173 0.004957
169 0.004028
153 0.006981
139 0.006988
135 0.004995
141 0.005005
148 0.005004
152 0.006981
161 0.004981
160 0.006979
165 0.007029
166 0.003965
170 0.004982
171 0.004988
147 0.007025
104 0.007005
81 0.004987
88 0.005011
105 0.00403
124 0.006944
151 0.004943
151 0.00698
137 0.006948
121 0.007978
114 0.004957
119 0.00502
125 0.005019
130 0.006977
137 0.006981
144 0.004985
146 0.004989
147 0.00498
154 0.005976
140 0.003973
98 0.00795
72 0.007978
74 0.006018
90 0.004972
106 0.00597
130 0.007978
136 0.007982
127 0.005975
113 0.005982
102 0.006015
104 0.004976
110 0.005967
120 0.007964
126 0.007975
130 0.005021
133 0.005003
136 0.005014
142 0.007979
142 0.007979
91 0.006982
53 0.004987
44 0.005032
62 0.004993
78 0.005001
91 0.007011
102 0.006981
95 0.004987
74 0.005015
64 0.005991
63 0.008016
66 0.007976
75 0.005987
83 0.005983
85 0.005989
91 0.004975
94 0.005986
101 0.007972
102 0.007001
79 0.005012
33 0.005973
6 0.006016
3 0.006979
16 0.007015
38 0.006071
55 0.006976
60 0.006953
47 0.006018
29 0.006981
25 0.006981
27 0.007979
33 0.005984
42 0.005988
47 0.006982
54 0.006972
57 0.00701
63 0.006979
69 0.006979
76 0.006976
13 0.006973
0 0.00698
0 0.006978
0 0.00697
0 0.006971
25 0.006017
38 0.005983
40 0.005984
27 0.007029
10 0.006968
8 0.006981
11 0.007007
21 0.006974
25 0.006032
32 0.006924
40 0.00697
48 0.006981
55 0.006951
62 0.006981
59 0.005984
19 0.005984
0 0.006016
0 0.005973
0 0.006017
9 0.006022
27 0.005984
39 0.005984
35 0.005986
21 0.006981
11 0.006978
10 0.006981
21 0.006014
31 0.00598
40 0.006059
53 0.00599
60 0.005995
71 0.005984
80 0.005984
80 0.005988
42 0.005983
1 0.005984
56 0.005979
59 0.005976
69 0.005978
77 0.005034
86 0.00506
89 0.004953
80 0.005976
73 0.004984
74 0.004972
78 0.004987
82 0.004985
86 0.006004
92 0.005992
96 0.005986
98 0.005974
102 0.005974
106 0.005996
99 0.005044
66 0.005988
47 0.004964
50 0.004991
57 0.004993
65 0.004977
75 0.004992
81 0.006022
76 0.006018
70 0.003964
67 0.004983
68 0.005953
73 0.004942
79 0.004991
87 0.004986
89 0.004931
93 0.004809
96 0.004994
100 0.004984
106 0.00503
106 0.004975
86 0.004021
62 0.004022
49 0.004022
51 0.005033
62 0.005017
76 0.004981
84 0.004992
83 0.005028
77 0.003994
72 0.003994
69 0.004988
74 0.004987
82 0.004177
88 0.00402
91 0.004075
96 0.004036
103 0.004988
107 0.004986
113 0.004987
119 0.004988
121 0.005015
105 0.003998
81 0.005024
64 0.003988
65 0.00399
28 0.003984
47 0.003991
66 0.004025
79 0.004984
73 0.003989
60 0.003989
59 0.004987
65 0.004986
72 0.00399
84 0.003989
99 0.00399
108 0.00399
114 0.003989
121 0.003989
129 0.003988
141 0.003963
149 0.003988
143 0.003896
104 0.00399
64 0.003991
50 0.003979
55 0.003953
75 0.002991
91 0.002997
108 0.004028
115 0.00402
100 0.004003
89 0.003986
91 0.004032
99 0.003973
108 0.003963
118 0.004024
126 0.003989
133 0.003993
141 0.00397
151 0.003
157 0.003024
163 0.002992
168 0.00299
137 0.003005
96 0.004001
72 0.003992
76 0.003988
90 0.003957
108 0.003959
128 0.003956
142 0.003989
135 0.002993
124 0.002993
117 0.002985
122 0.002992
130 0.002991
141 0.003007
154 0.003026
162 0.003024
171 0.002995
178 0.002993
185 0.002993
192 0.003965
198 0.002994
172 0.003029
124 0.002992
84 0.003007
85 0.00299
99 0.002996
121 0.002999
139 0.002986
149 0.002994
142 0.002987
127 0.002978
116 0.003983
117 0.001972
122 0.002001
130 0.002994
144 0.002956
152 0.00297
160 0.002986
165 0.002998
171 0.00299
178 0.002961
183 0.002965
165 0.002991
116 0.001989
75 0.002005
68 0.002027
77 0.001995
108 0.001994
126 0.002007
135 0.001962
127 0.001997
111 0.001999
104 0.002015
104 0.001966
110 0.00296
120 0.001995
130 0.001994
138 0.001996
148 0.00196
160 0.002009
167 0.001988
176 0.001997
170 0.001996
116 0.001995
80 0.000997
65 0.000997
71 0.000972
85 0.001997
110 0.001994
129 0.001996
133 0.001996
110 0.00196
99 0.002014
93 0.001959
97 0.001994
108 0.002962
113 0.000964
120 0.001033
130 0.000964
141 0.002005
157 0.002002
166 0.000998
167 0.001995
113 0.001999
85 0.001999
78 0.00193
86 0.001003
111 0.001998
131 0.001
148 0.001995
149 0.000996
134 0.001
123 0.001997
122 0.000996
133 0.001024
140 0.001039
149 0.000996
162 0.001
172 0.000998
181 0.001968
190 0.001988
174 0.001996
133 0.001994
102 0.000931
94 0.000985
107 0.000999
138 0.000976
153 0.000995
162 0.000998
156 0.00102
142 0.002021
139 0.001002
145 0.000993
152 0.000999
161 0.000993
170 0.000985
180 0.0
188 0.0
197 0.0
197 0.0
163 0.000989
118 0.001012
91 0.0
86 0.0
96 0.000856
95 0.0
91 0.000999
82 0.000999
67 0.0
44 0.0
38 0.0
44 0.0
50 0.0
54 0.0
55 0.0
60 0.0
64 0.0
66 0.0
71 0.0
60 0.0
16 0.001023
0 0.0
0 0.0
0 0.0
15 0.0
35 0.0
45 0.0
44 0.0
29 0.0
31 0.0
34 0.0
43 0.0
50 0.000964
65 0.001002
71 0.001008
83 0.001016
88 0.002994
103 0.0
107 0.0
92 0.0
53 0.002001
24 0.001997
14 0.0
28 0.000997
44 0.0
60 0.001995
73 0.0
64 0.003003
54 0.002004
48 0.0
53 0.000979
60 0.000957
75 0.001994
81 0.002004
94 0.0
101 0.0
109 0.0
114 0.002027
122 0.0
111 0.001999
76 0.001961
33 0.0
30 0.001006
40 0.0
56 0.002032
73 0.002027
90 0.0
84 0.0
75 0.0
64 0.001993
69 0.0
76 0.002992
84 0.002992
90 0.0
97 0.0
100 0.0
103 0.001959
107 0.002031
115 0.002026
124 0.0
116 0.0
81 0.0
30 0.000997
28 0.0
39 0.00202
54 0.00301
74 0.0
81 0.00096
73 0.001013
62 0.002005
54 0.002032
58 0.0
68 0.0
85 0.0
93 0.0
102 0.0
105 0.002024
112 0.001996
121 0.0
128 0.0
132 0.001993
138 0.000964
115 0.001991
55 0.0
33 0.0
36 0.0
48 0.0
62 0.0
74 0.002004
75 0.001994
62 0.0
50 0.0
52 0.0
60 0.002
71 0.001996
83 0.0
91 0.000985
106 0.0
115 0.0
121 0.0
131 0.002994
140 0.001996
152 0.0
158 0.0
137 0.001006
93 0.00296
64 0.002983
63 0.002007
78 0.000958
105 0.003002
118 0.0
121 0.0
113 0.003004
105 0.001995
100 0.001995
106 0.001996
114 0.001994
122 0.003005
133 0.002993
146 0.001995
150 0.002157
162 0.002963
170 0.002999
179 0.001984
188 0.003017
186 0.003954
143 0.001991
113 0.001999
103 0.002029
109 0.002991
125 0.002992
148 0.001996
161 0.001997
161 0.002002
146 0.001992
138 0.001984
139 0.003051
144 0.002989
155 0.002
162 0.001998
166 0.00201
171 0.002962
178 0.002993
183 0.002958
191 0.00199
198 0.002995
176 0.002021
137 0.001994
109 0.001998
104 0.004003
115 0.003969
138 0.001956
150 0.001994
164 0.001991
165 0.003991
153 0.003991
140 0.001998
143 0.003992
154 0.001994
163 0.001993
170 0.002991
178 0.003987
186 0.003988
193 0.001974
201 0.002026
208 0.002002
212 0.003985
185 0.003985
129 0.002006
103 0.003981
117 0.001002
131 0.002
148 0.00199
159 0.003989
164 0.003985
151 0.001992
139 0.001983
138 0.001999
142 0.003992
147 0.004987
160 0.002026
167 0.004988
177 0.001996
184 0.001998
192 0.001962
202 0.003953
207 0.003997
195 0.001998
153 0.002003
119 0.002002
111 0.002961
121 0.00403
145 0.004987
161 0.004988
169 0.001998
161 0.001995
148 0.001988
140 0.004996
141 0.005035
148 0.002991
157 0.001998
163 0.001997
172 0.003992
180 0.003967
198 0.004987
207 0.00501
215 0.003
194 0.002998
157 0.00298
135 0.005017
132 0.005018
147 0.001992
162 0.002982
183 0.001994
196 0.004971
197 0.005029
177 0.005984
172 0.006039
178 0.002993
184 0.00299
191 0.002953
197 0.004989
205 0.006017
217 0.002994
224 0.002989
112 0.003024
213 0.00502
172 0.004986
131 0.005031
130 0.004997
141 0.00501
159 0.001993
171 0.002992
175 0.002993
164 0.006031
151 0.00602
143 0.002959
147 0.002961
153 0.003989
162 0.005017
172 0.002994
180 0.005984
190 0.005016
197 0.002022
171 0.002966
135 0.004003
117 0.006015
118 0.006022
138 0.003984
157 0.002997
177 0.002952
186 0.006015
171 0.003989
160 0.005984
157 0.006041
163 0.003007
170 0.003982
178 0.002967
181 0.005951
183 0.006981
195 0.002993
204 0.003957
200 0.003999
163 0.005985
112 0.003988
110 0.005985
120 0.006028
139 0.002992
154 0.003013
163 0.003015
152 0.007013
135 0.006983
125 0.00402
125 0.004018
131 0.003994
137 0.006981
148 0.00399
157 0.006009
163 0.006024
170 0.003987
164 0.003986
127 0.004946
91 0.006126
77 0.005983
84 0.004962
100 0.00499
119 0.005017
136 0.006947
136 0.005015
121 0.007013
112 0.007014
113 0.002955
117 0.003994
123 0.004002
131 0.006939
139 0.006986
148 0.004016
155 0.003974
152 0.004038
96 0.004973
73 0.004972
70 0.006977
82 0.006978
106 0.00498
123 0.004009
135 0.003993
131 0.006983
118 0.006981
108 0.005031
110 0.004983
116 0.004986
129 0.004989
139 0.004979
145 0.00499
155 0.006982
161 0.006978
138 0.003953
102 0.004983
86 0.004988
85 0.006988
97 0.007013
124 0.005989
142 0.005978
148 0.005988
134 0.005984
127 0.005946
126 0.007981
135 0.007978
142 0.00499
150 0.004895
159 0.003988
163 0.006992
175 0.006984
188 0.004019
170 0.003979
114 0.004958
104 0.005988
110 0.005943
126 0.007018
152 0.007972
169 0.005137
171 0.004792
161 0.005018
150 0.006984
150 0.006944
155 0.005983
163 0.005942
181 0.005984
187 0.005971
198 0.005949
203 0.007978
207 0.007978
173 0.004993
137 0.006029
120 0.004992
124 0.007017
141 0.007018
159 0.006017
177 0.004986
178 0.005947
164 0.005948
153 0.006974
151 0.007976
147 0.006975
151 0.005967
157 0.006985
162 0.005954
169 0.006977
175 0.007017
170 0.006949
131 0.006939
84 0.006963
85 0.00698
97 0.00698
121 0.00701
136 0.006994
144 0.00698
136 0.006704
121 0.005982
110 0.006982
113 0.005979
121 0.005972
129 0.005983
137 0.006983
145 0.006984
149 0.006979
156 0.006979
132 0.006968
87 0.006976
59 0.006971
60 0.006982
73 0.005991
90 0.00598
108 0.006977
115 0.005987
99 0.005975
86 0.005983
85 0.005989
90 0.005956
97 0.005984
106 0.006061
117 0.00597
120 0.005982
125 0.005982
133 0.005964
126 0.005988
73 0.005981
35 0.006032
40 0.005992
48 0.006983
68 0.004987
84 0.004985
88 0.005994
72 0.004985
57 0.005978
53 0.006005
55 0.005984
60 0.005983
71 0.006023
77 0.006148
86 0.006003
93 0.005988
100 0.00595
103 0.00595
77 0.006025
25 0.005984
8 0.00597
10 0.005986
25 0.004979
43 0.004983
65 0.005015
61 0.005012
45 0.00498
38 0.004988
36 0.004959
44 0.003987
55 0.004968
71 0.005985
83 0.00597
90 0.005999
96 0.004975
104 0.004963
112 0.005016
93 0.005026
39 0.004981
18 0.004972
18 0.005011
31 0.004987
50 0.004956
78 0.005379
83 0.00498
75 0.00498
62 0.004986
57 0.004989
69 0.005018
79 0.004948
93 0.004992
103 0.003956
110 0.005005
115 0.004985
117 0.004947
123 0.004999
112 0.005002
79 0.004987
47 0.004967
39 0.003989
54 0.004985
72 0.004021
93 0.004973
98 0.004982
89 0.003989
74 0.004019
70 0.004987
72 0.003988
83 0.003987
92 0.003983
100 0.003955
108 0.003964
121 0.003992
128 0.00402
135 0.003927
124 0.004996
81 0.004986
43 0.004985
33 0.003968
40 0.003993
62 0.003987
79 0.004023
92 0.004034
93 0.003998
73 0.003991
66 0.00499
71 0.003992
83 0.004018
93 0.004007
101 0.003953
106 0.003967
109 0.003989
118 0.003958
124 0.00399
131 0.003988
136 0.00401
91 0.004034
50 0.003991
29 0.00399
35 0.003996
48 0.002961
65 0.002962
80 0.004028
84 0.003984
71 0.003976
63 0.003998
60 0.004053
64 0.004025
84 0.00399
93 0.002986
104 0.002953
113 0.002992
122 0.002962
129 0.002994
135 0.00299
145 0.002993
147 0.003028
114 0.002988
69 0.002977
37 0.002985
46 0.003957
62 0.002992
81 0.004015
102 0.002992
102 0.00296
89 0.002994
78 0.002969
78 0.002979
84 0.002989
97 0.002974
105 0.003
120 0.002993
131 0.002045
137 0.002993
141 0.001995
152 0.002961
160 0.001977
158 0.002994
124 0.003008
80 0.002984
47 0.002993
49 0.002963
63 0.002993
89 0.003025
102 0.002992
103 0.002993
89 0.002992
70 0.001995
69 0.001987
79 0.001996
92 0.001998
101 0.001961
109 0.001978
121 0.001982
129 0.002003
144 0.002994
152 0.002993
154 0.002993
124 0.002028
85 0.001963
55 0.001962
58 0.001981
69 0.001971
87 0.001999
106 0.002019
125 0.001992
116 0.001994
101 0.002011
101 0.002028
111 0.00196
120 0.001054
128 0.000997
139 0.002003
151 0.001997
159 0.001994
167 0.002007
174 0.001988
164 0.001995
116 0.00197
61 0.001999
62 0.001945
74 0.00103
88 0.000998
109 0.000999
130 0.000991
124 0.00197
107 0.000968
98 0.001
97 0.002005
107 0.001969
120 0.001958
138 0.001037
146 0.002042
154 0.002051
163 0.002057
172 0.001032
180 0.000999
143 0.000951
90 0.001001
61 0.002011
59 0.000993
76 0.002009
91 0.001986
120 0.002029
122 0.002028
104 0.001998
85 0.002042
79 0.002042
80 0.001959
87 0.001015
100 0.00096
112 0.000966
120 0.001016
129 0.001998
142 0.001991
154 0.002029
129 0.000998
81 0.002042
48 0.000997
38 0.0
53 0.000995
70 0.000987
91 0.0
102 0.000993
101 0.0
84 0.0
76 0.0
87 0.0
98 0.0
110 0.0
124 0.000999
136 0.001011
141 0.000994
153 0.0
160 0.0
155 0.0
115 0.000966
75 0.0
55 0.000998
66 0.000998
90 0.001003
112 0.0
124 0.0
120 0.0
108 0.0
102 0.0
105 0.0
114 0.0
126 0.0
137 0.0
159 0.0
173 0.0
189 0.000997
199 0.0
185 0.0
145 0.001
114 0.0
106 0.0
119 0.000997
142 0.000999
164 0.000999
182 0.0
171 0.0
160 0.0
155 0.002025
160 0.002037
172 0.000966
182 0.0
191 0.0
201 0.000988
208 0.0
213 0.001024
194 0.0
158 0.000999
121 0.0
123 0.0
136 0.003033
153 0.003023
178 0.0
182 0.0
171 0.0
159 0.001998
154 0.00199
162 0.0
172 0.000997
181 0.000975
192 0.000967
200 0.000968
204 0.002036
202 0.002032
147 0.001004
107 0.000963
89 0.0
96 0.002992
114 0.003
133 0.0
147 0.0
143 0.000998
118 0.0
107 0.0
109 0.001989
117 0.002026
123 0.00096
130 0.0
136 0.000959
141 0.003055
147 0.002976
129 0.0
83 0.0
46 0.0
44 0.0
60 0.0
77 0.002051
92 0.002029
99 0.0
87 0.0
76 0.0
73 0.0
77 0.001996
84 0.002013
96 0.001005
105 0.0
117 0.0
120 0.0
113 0.0
74 0.003007
38 0.003027
22 0.0
31 0.0
47 0.0
67 0.002011
79 0.001991
74 0.0
59 0.0
53 0.0
64 0.0
72 0.0
84 0.002941
92 0.002957
107 0.0
113 0.000961
121 0.0
114 0.001993
81 0.001965
44 0.002005
35 0.002032
52 0.0
69 0.0
89 0.001011
92 0.001997
84 0.002031
70 0.000962
69 0.0
77 0.001013
91 0.002995
103 0.003002
112 0.0
124 0.002993
136 0.0
147 0.000998
154 0.0
142 0.003031
101 0.002998
57 0.002991
53 0.0
70 0.00097
91 0.002961
111 0.002995
121 0.0
110 0.003029
96 0.003011
99 0.002982
105 0.00097
116 0.003024
130 0.002957
143 0.000965
150 0.002991
159 0.002992
165 0.002948
170 0.003028
183 0.002025
175 0.003028
126 0.00203
97 0.001988
94 0.002012
108 0.00399
129 0.003031
154 0.002009
164 0.002996
162 0.001991
151 0.002962
145 0.003001
148 0.001996
161 0.002993
174 0.002012
183 0.001993
190 0.002993
195 0.003989
198 0.004028
204 0.00399
216 0.001984
222 0.001999
204 0.001992
162 0.002992
133 0.002997
133 0.002987
149 0.003027
172 0.002988
188 0.00203
191 0.0
178 0.003988
165 0.003989
166 0.001994
174 0.002005
184 0.002999
195 0.003976
203 0.003992
213 0.00399
217 0.00399
220 0.002997
224 0.001993
214 0.003005
175 0.003976
134 0.003989
114 0.001999
122 0.002989
139 0.002993
160 0.00399
177 0.003987
172 0.003989
156 0.003979
147 0.001976
150 0.001978
157 0.00199
165 0.005018
172 0.004986
179 0.001997
182 0.001984
186 0.002988
189 0.003992
193 0.004955
142 0.004988
94 0.004987
75 0.002019
84 0.002022
101 0.002055
116 0.005017
131 0.004987
129 0.001992
116 0.002976
105 0.001991
101 0.004987
105 0.004988
118 0.004987
128 0.004037
136 0.002012
141 0.002957
148 0.002032
153 0.005025
158 0.004982
133 0.002968
86 0.001994
52 0.002003
45 0.005023
66 0.002001
85 0.003986
100 0.004987
106 0.001997
97 0.002952
84 0.001994
79 0.005981
81 0.006031
93 0.002988
104 0.001994
112 0.001966
119 0.004977
128 0.002964
135 0.006017
141 0.005984
131 0.00299
88 0.003001
47 0.002985
30 0.004987
37 0.005026
62 0.002986
81 0.003005
98 0.002979
105 0.005989
86 0.002996
78 0.003
77 0.006005
84 0.005984
96 0.003
105 0.002968
114 0.002985
121 0.005944
129 0.005982
140 0.003
148 0.002998
155 0.00299
107 0.002988
68 0.003011
51 0.005995
54 0.005984
74 0.003987
93 0.003986
108 0.003019
114 0.00602
109 0.005988
94 0.002984
93 0.003008
98 0.003
111 0.003987
119 0.002995
126 0.006019
137 0.006982
149 0.003988
158 0.003991
165 0.003013
146 0.005985
103 0.005974
67 0.003026
66 0.002989
74 0.002993
108 0.003011
126 0.002989
132 0.006984
121 0.006982
106 0.00399
107 0.004021
116 0.004956
125 0.007008
135 0.00701
148 0.003967
156 0.004981
161 0.003996
173 0.003982
178 0.003982
140 0.007031
95 0.006986
72 0.004007
85 0.004981
104 0.003996
122 0.007018
137 0.00695
144 0.002958
131 0.002955
117 0.005003
113 0.004951
120 0.004983
130 0.006996
137 0.006982
149 0.004982
160 0.004978
168 0.004018
174 0.006984
181 0.006948
150 0.00399
107 0.003989
83 0.004986
86 0.004985
97 0.005974
115 0.008015
137 0.007992
140 0.004965
129 0.005984
119 0.005983
118 0.006982
124 0.006981
134 0.007031
144 0.004954
152 0.006983
161 0.004983
164 0.005005
168 0.004993
171 0.006983
151 0.006969
91 0.00399
66 0.006006
64 0.004976
76 0.006982
98 0.007975
114 0.00497
119 0.008021
103 0.004994
93 0.003993
91 0.004986
100 0.008005
116 0.007975
126 0.004996
136 0.005979
143 0.004984
150 0.007974
161 0.007979
169 0.005018
141 0.007946
99 0.00595
79 0.005955
83 0.005982
102 0.007978
117 0.007978
144 0.006019
159 0.005973
156 0.005984
137 0.006992
130 0.007978
132 0.004993
146 0.006957
154 0.005987
162 0.005986
169 0.005984
179 0.006982
187 0.006983
194 0.005989
174 0.006003
130 0.005949
96 0.006972
95 0.007968
107 0.004989
137 0.007946
153 0.005981
158 0.005968
149 0.00601
128 0.007011
124 0.006981
129 0.005988
135 0.006009
143 0.005983
156 0.006979
161 0.00698
169 0.006979
178 0.006983
147 0.005966
99 0.00597
69 0.00599
69 0.006947
84 0.007013
102 0.005986
121 0.005985
133 0.006953
121 0.005985
104 0.005988
97 0.005928
100 0.006017
110 0.006979
118 0.006979
126 0.006021
132 0.007025
137 0.006983
147 0.006982
149 0.006023
114 0.00596
51 0.005989
28 0.005975
28 0.005984
55 0.005979
75 0.005983
91 0.005978
86 0.00597
71 0.00595
61 0.006018
60 0.006028
71 0.005984
81 0.005983
92 0.006006
100 0.005989
109 0.005998
120 0.006029
127 0.006026
105 0.005981
57 0.005979
22 0.006027
11 0.006026
20 0.006017
44 0.006006
62 0.005945
77 0.004977
75 0.005972
62 0.005982
46 0.006017
49 0.00598
63 0.005005
73 0.004944
83 0.004977
93 0.004991
102 0.004996
113 0.004984
122 0.005985
127 0.004991
92 0.005023
23 0.00499
12 0.004987
20 0.005019
44 0.005999
67 0.004986
84 0.005975
83 0.005023
71 0.006024
56 0.005022
56 0.004995
65 0.00499
76 0.004954
95 0.004948
103 0.005019
113 0.005023
125 0.004971
134 0.004985
142 0.004988
132 0.005026
88 0.00502
40 0.004961
32 0.005002
43 0.004989
62 0.005006
98 0.00499
108 0.004983
98 0.004988
76 0.005009
73 0.004989
79 0.005025
88 0.004987
96 0.005022
112 0.004987
118 0.004977
123 0.005023
132 0.004939
142 0.004957
109 0.004983
64 0.005019
31 0.004978
35 0.004986
45 0.003989
59 0.003991
78 0.003991
94 0.00399
84 0.003982
71 0.004021
68 0.00399
81 0.00402
94 0.00399
106 0.004037
115 0.004022
130 0.003945
136 0.004
143 0.003957
152 0.003955
156 0.002992
97 0.004024
46 0.003959
20 0.003959
31 0.003988
51 0.003982
72 0.00399
92 0.00399
85 0.003961
70 0.00399
59 0.003958
60 0.003951
68 0.00303
81 0.003047
96 0.002993
107 0.002992
120 0.004024
131 0.004001
141 0.004021
150 0.00403
140 0.002985
87 0.004015
38 0.002993
14 0.003983
15 0.003022
40 0.002992
65 0.002943
86 0.002961
84 0.003026
67 0.003049
59 0.00299
59 0.002992
67 0.004002
80 0.003023
93 0.00395
103 0.002977
111 0.003034
119 0.003991
126 0.002994
136 0.001999
139 0.003007
97 0.002992
45 0.003043
16 0.002992
19 0.003
39 0.002991
63 0.003024
88 0.003024
103 0.002984
89 0.003012
78 0.00199
64 0.002986
74 0.003001
87 0.002044
102 0.001995
114 0.002994
126 0.002994
136 0.002028
147 0.001991
158 0.002035
169 0.002041
147 0.002025
94 0.001991
45 0.003036
49 0.00295
65 0.003028
85 0.002029
110 0.002992
130 0.002993
118 0.001998
95 0.002993
82 0.001995
84 0.001995
97 0.00199
116 0.001974
131 0.001959
148 0.001995
157 0.00203
168 0.002026
179 0.002026
190 0.002002
162 0.002017
110 0.002031
75 0.002014
64 0.00103
74 0.000999
102 0.000999
139 0.000997
164 0.001995
161 0.002036
142 0.001995
134 0.001991
135 0.001988
145 0.001962
157 0.002035
171 0.003038
186 0.000999
203 0.001013
222 0.000999
236 0.000967
221 0.001986
171 0.000997
140 0.001991
131 0.001995
140 0.001996
171 0.002029
196 0.002031
214 0.000999
224 0.001027
219 0.000999
205 0.001033
202 0.000998
209 0.001996
216 0.001043
227 0.001992
234 0.000999
241 0.000999
254 0.001039
250 0.000997
210 0.000968
170 0.000996
149 0.001995
149 0.002016
175 0.002028
205 0.0
220 0.001029
220 0.001027
206 0.000998
195 0.000998
191 0.0
195 0.0
200 0.0
211 0.0
222 0.0
161 0.000963
186 0.0
160 0.0
134 0.0
117 0.0
113 0.0
119 0.0
134 0.0
145 0.0
152 0.0
149 0.0
139 0.0
131 0.0
131 0.000998
133 0.000997
140 0.000997
144 0.0
147 0.0
153 0.0
156 0.0
136 0.0
108 0.0
89 0.0
83 0.0
87 0.0
105 0.0
119 0.0
125 0.0
116 0.0
107 0.0
104 0.0
103 0.0
107 0.0
114 0.0
122 0.0
128 0.0
142 0.000997
147 0.000997
125 0.0
100 0.002025
84 0.002989
83 0.000996
90 0.0
105 0.0
118 0.003026
126 0.003023
124 0.0
117 0.0
112 0.001007
114 0.000956
120 0.0
126 0.002994
134 0.003025
142 0.0
150 0.0
151 0.0
131 0.002994
110 0.003047
97 0.0
100 0.0
118 0.0
133 0.001006
144 0.001022
146 0.002027
144 0.003017
133 0.000993
136 0.0
145 0.0
156 0.003009
166 0.002029
183 0.0
196 0.0
203 0.0
166 0.0
132 0.0
117 0.003022
120 0.003025
143 0.001003
166 0.0
184 0.0
193 0.003008
184 0.002039
169 0.0
167 0.0
176 0.0
187 0.0
197 0.0
206 0.003029
212 0.003026
224 0.0
208 0.000968
168 0.000995
138 0.003024
130 0.002027
141 0.001029
159 0.000952
185 0.001993
194 0.000967
182 0.0
168 0.0
161 0.003024
162 0.00299
169 0.0
177 0.0
184 0.0
192 0.002997
198 0.003007
204 0.0
174 0.00202
125 0.0
110 0.0
115 0.001012
130 0.002026
151 0.002029
172 0.0
178 0.0
166 0.0
154 0.003026
150 0.003037
156 0.0
165 0.002993
177 0.0
184 0.0
190 0.000965
197 0.002023
202 0.002047
169 0.001022
130 0.0
109 0.0
108 0.002025
118 0.002027
141 0.0
160 0.002958
154 0.0
139 0.0
130 0.0
130 0.003027
133 0.002954
141 0.0
147 0.001007
154 0.0
159 0.001983
165 0.003026
171 0.0
135 0.002992
84 0.000999
68 0.0
72 0.0
84 0.002992
100 0.003021
119 0.000963
114 0.0
98 0.0
84 0.003034
77 0.002993
84 0.003027
91 0.003024
99 0.000967
107 0.0
112 0.0
117 0.002993
122 0.003959
109 0.0
66 0.0
31 0.0
20 0.003948
28 0.003955
55 0.005028
69 0.00399
73 0.002005
59 0.002986
46 0.000974
40 0.003007
44 0.003022
51 0.001988
58 0.0
64 0.002974
70 0.003989
74 0.003989
83 0.00399
87 0.004021
90 0.00399
61 0.002992
16 0.002994
0 0.002992
0 0.003963
0 0.003956
19 0.003013
34 0.002989
40 0.00202
29 0.003995
7 0.001994
9 0.004028
15 0.00402
24 0.003015
34 0.002983
39 0.002985
46 0.004036
51 0.003991
58 0.003026
62 0.00302
67 0.003986
72 0.00399
62 0.002991
20 0.005043
0 0.005021
0 0.002004
0 0.002008
3 0.002038
18 0.004022
30 0.004013
21 0.003013
6 0.002999
0 0.002988
4 0.00497
18 0.00393
25 0.004987
34 0.004987
42 0.002997
48 0.002036
53 0.003028
56 0.004954
61 0.004953
69 0.003006
76 0.00299
85 0.001999
73 0.004025
8 0.002038
57 0.004029
58 0.003989
69 0.002988
77 0.002993
86 0.002975
87 0.004987
81 0.005024
74 0.003
75 0.002993
79 0.00298
84 0.005032
92 0.002983
97 0.00502
100 0.006014
104 0.002994
106 0.002034
107 0.002985
109 0.005985
113 0.004941
118 0.003024
123 0.002025
117 0.002997
95 0.004994
