121 0.007657
112 0.007021
118 0.00702
127 0.00694
136 0.006981
146 0.006981
143 0.007021
139 0.006948
134 0.006938
136 0.006982
145 0.00599
151 0.005974
156 0.005984
166 0.006981
170 0.006996
174 0.006981
178 0.006987
184 0.007016
187 0.006995
192 0.006952
194 0.007026
198 0.006982
206 0.007014
196 0.006991
166 0.006978
134 0.006977
133 0.006007
142 0.005984
152 0.005992
159 0.005993
164 0.005985
164 0.006015
156 0.005984
150 0.005984
154 0.006722
160 0.006022
166 0.006027
171 0.006
179 0.005992
187 0.005986
191 0.005992
192 0.005994
193 0.006023
195 0.005984
195 0.005953
198 0.006029
206 0.005966
207 0.005984
185 0.005978
154 0.005979
135 0.005997
139 0.005986
150 0.00602
157 0.005992
165 0.00598
168 0.005984
164 0.005984
154 0.006033
151 0.005967
157 0.005988
163 0.005983
164 0.005985
171 0.004985
174 0.004995
180 0.004984
184 0.004988
190 0.005031
193 0.005984
196 0.005986
197 0.006015
201 0.004994
205 0.004952
193 0.005003
159 0.005035
131 0.004992
131 0.004996
141 0.004988
150 0.004989
157 0.005001
163 0.005015
164 0.006029
153 0.004984
142 0.005937
143 0.005994
147 0.005995
149 0.005034
153 0.004994
156 0.005002
157 0.004987
160 0.004993
163 0.004989
166 0.004987
173 0.004987
202 0.00494
210 0.004985
175 0.005008
131 0.004582
105 0.00499
100 0.004992
113 0.00499
127 0.004945
140 0.004995
145 0.004987
136 0.003957
120 0.004003
111 0.004035
127 0.004001
142 0.004
155 0.003921
154 0.004024
157 0.003986
164 0.004032
168 0.00399
168 0.004972
173 0.003959
181 0.003957
156 0.00502
107 0.005032
74 0.004025
84 0.003996
99 0.004001
115 0.004016
133 0.004022
138 0.004004
128 0.004004
113 0.003991
110 0.003956
116 0.004034
124 0.004026
136 0.004022
144 0.003995
153 0.002994
162 0.002994
166 0.002992
173 0.003994
148 0.003997
105 0.004007
84 0.003989
86 0.003957
104 0.004024
128 0.004035
145 0.004021
167 0.003977
165 0.003025
161 0.002982
163 0.002979
170 0.003029
183 0.004033
190 0.004012
197 0.003988
198 0.002993
168 0.003024
108 0.003023
82 0.002998
3 0.00296
0 0.00396
0 0.004041
0 0.003996
0 0.002992
0 0.00299
0 0.002988
0 0.002988
0 0.002961
0 0.003018
3 0.002992
23 0.002992
60 0.002963
78 0.00297
100 0.00299
120 0.003009
136 0.003981
149 0.002945
125 0.002963
92 0.003
83 0.002958
94 0.003024
115 0.002993
119 0.013935
139 0.002989
128 0.002947
110 0.002018
97 0.002982
92 0.001995
84 0.001994
77 0.003014
72 0.00295
65 0.002994
62 0.002992
61 0.002993
56 0.001994
0 0.001993
31 0.001992
23 0.001994
25 0.001995
33 0.001995
41 0.001995
48 0.002992
47 0.002998
41 0.001996
37 0.001994
35 0.001995
40 0.002992
48 0.002952
59 0.002993
66 0.001999
74 0.001991
81 0.001992
85 0.001996
79 0.001993
56 0.001997
38 0.001963
32 0.001995
36 0.002027
48 0.001995
56 0.001975
37 0.001989
16 0.001008
2 0.001004
61 0.000943
61 0.001022
62 0.001995
66 0.001995
69 0.001995
71 0.001995
73 0.001995
77 0.001995
80 0.001995
73 0.001972
61 0.000998
55 0.001995
57 0.000987
61 0.000967
69 0.001002
75 0.001959
79 0.001994
78 0.001003
77 0.001
78 0.000998
82 0.000997
85 0.000997
87 0.000996
92 0.001
94 0.0
97 0.001004
102 0.000991
105 0.001005
105 0.000997
96 0.0
86 0.0
82 0.000969
88 0.001014
94 0.001015
98 0.001003
102 0.001005
102 0.000991
100 0.000989
100 0.000993
102 0.000998
105 0.000997
108 0.0
112 0.000999
116 0.000997
119 0.000997
123 0.000988
127 0.001016
127 0.0
119 0.0
111 0.0
108 0.0
111 0.0
116 0.0
123 0.0
129 0.000998
131 0.000997
128 0.000998
128 0.0
131 0.0
133 0.0
135 0.0
138 0.0
142 0.0
153 0.0
157 0.0
161 0.0
161 0.0
146 0.0
124 0.0
124 0.0
131 0.0
138 0.001004
149 0.0
153 0.0
152 0.0
147 0.0
147 0.0
149 0.0
151 0.0
155 0.0
162 0.0
165 0.0
170 0.0
175 0.0
176 0.0
155 0.0
138 0.0
132 0.000998
133 0.001004
140 0.0
149 0.0
154 0.0
155 0.0
148 0.0
146 0.000995
147 0.000996
150 0.0
152 0.0
155 0.0
161 0.0
163 0.0
166 0.0
169 0.001035
170 0.00104
141 0.0
125 0.0
119 0.00102
122 0.001045
129 0.0
136 0.0
141 0.0
142 0.0
136 0.000997
131 0.0
131 0.000998
134 0.000998
139 0.001
140 0.0
141 0.000997
143 0.000964
148 0.0
152 0.0
154 0.0
144 0.001005
127 0.000999
99 0.0
98 0.001
105 0.001995
124 0.0
140 0.0
153 0.000998
169 0.0
177 0.001001
186 0.000998
190 0.00104
196 0.001006
174 0.000972
141 0.001953
124 0.002026
118 0.000945
126 0.001016
141 0.000998
157 0.002036
165 0.002025
160 0.001031
152 0.000947
151 0.000965
155 0.000956
163 0.001995
170 0.001989
177 0.002983
185 0.001963
191 0.002019
197 0.002027
195 0.001978
169 0.003035
135 0.002027
111 0.002027
113 0.002027
128 0.00199
143 0.00199
155 0.002984
158 0.001979
148 0.001988
140 0.001996
140 0.002033
147 0.002993
152 0.002992
163 0.002024
169 0.002026
178 0.001984
185 0.001995
193 0.001995
179 0.002991
143 0.003022
104 0.001982
96 0.002005
104 0.002016
117 0.002035
130 0.002022
144 0.003027
146 0.00203
135 0.002035
135 0.002009
141 0.002025
146 0.003028
152 0.003003
163 0.002025
169 0.002028
176 0.002
185 0.003026
193 0.003004
189 0.00204
152 0.002036
97 0.002008
91 0.002031
96 0.00199
111 0.002992
124 0.002992
132 0.001979
125 0.002008
116 0.002045
110 0.002992
109 0.003032
115 0.001976
122 0.003016
135 0.002999
141 0.002993
147 0.003031
155 0.00402
165 0.003991
170 0.003986
133 0.003023
99 0.002993
82 0.003031
81 0.002992
93 0.003043
106 0.003029
123 0.003025
125 0.004036
114 0.002991
112 0.002992
113 0.004002
119 0.003992
126 0.003027
135 0.003026
140 0.003026
146 0.004023
154 0.004027
167 0.003022
171 0.003995
130 0.002998
99 0.002977
86 0.003034
87 0.004021
100 0.004038
123 0.003031
135 0.003025
141 0.003034
134 0.00404
126 0.005022
125 0.003029
137 0.003975
148 0.003991
156 0.003036
161 0.002987
167 0.003989
175 0.003974
180 0.004022
161 0.003025
122 0.003032
95 0.004032
88 0.00399
97 0.002986
117 0.004001
136 0.003033
141 0.004022
132 0.003992
124 0.004996
126 0.00502
133 0.00402
136 0.004021
142 0.004024
152 0.004987
161 0.004994
174 0.003991
187 0.004984
161 0.003998
123 0.002976
99 0.004027
94 0.004998
103 0.00502
118 0.004019
129 0.004021
135 0.00402
126 0.005018
112 0.004987
107 0.004017
110 0.005033
121 0.0
142 0.002975
149 0.005984
156 0.005974
162 0.004037
155 0.004022
123 0.005021
86 0.005846
64 0.004987
64 0.00502
77 0.005017
100 0.004008
110 0.004001
106 0.004021
94 0.004998
89 0.005017
91 0.004016
97 0.004031
102 0.004031
106 0.00602
115 0.004999
125 0.004031
131 0.004983
118 0.006004
66 0.005016
41 0.005018
40 0.005022
50 0.00602
65 0.005984
87 0.005018
93 0.005035
87 0.005023
79 0.005984
74 0.005983
77 0.006014
83 0.005998
90 0.004975
97 0.005027
105 0.004985
110 0.005982
116 0.005981
91 0.005028
59 0.00503
39 0.005021
38 0.00598
48 0.005984
77 0.005985
90 0.005938
94 0.00495
84 0.005018
79 0.004971
83 0.006984
93 0.005984
105 0.005027
118 0.005022
130 0.006018
141 0.007014
150 0.006981
156 0.007017
129 0.007012
86 0.005016
71 0.004969
71 0.005015
82 0.005974
96 0.006025
109 0.005018
111 0.004983
104 0.006015
96 0.006992
95 0.007015
100 0.007023
106 0.007012
115 0.006017
123 0.006026
131 0.006006
138 0.007011
142 0.007026
108 0.006013
76 0.006027
57 0.005985
60 0.007968
69 0.00698
88 0.008016
95 0.007965
85 0.007014
74 0.00602
68 0.005459
71 0.006982
76 0.006981
87 0.006015
96 0.007018
104 0.007016
113 0.00794
122 0.007979
91 0.007979
65 0.007974
38 0.007016
41 0.005984
58 0.006002
77 0.006982
95 0.007979
110 0.006985
103 0.006975
93 0.007008
90 0.00698
96 0.007979
112 0.007016
120 0.007997
131 0.007983
144 0.007016
153 0.007029
156 0.006983
129 0.007979
93 0.007978
67 0.006949
77 0.007019
94 0.007015
115 0.007978
135 0.007022
130 0.007972
119 0.007982
116 0.006993
118 0.00703
128 0.006981
133 0.007979
141 0.00799
151 0.007982
157 0.006975
164 0.006981
158 0.007962
103 0.007027
68 0.007978
66 0.007937
79 0.00702
95 0.007029
119 0.006983
125 0.006982
121 0.007023
110 0.006981
108 0.006998
114 0.006987
117 0.007979
135 0.006995
147 0.007962
156 0.007979
169 0.006983
173 0.006983
153 0.007208
115 0.006981
90 0.007021
89 0.007024
100 0.006021
118 0.000996
150 0.009009
135 0.006983
134 0.00698
139 0.006023
147 0.007022
156 0.007026
165 0.007015
174 0.007019
182 0.006981
189 0.007025
186 0.007011
125 0.006991
100 0.006984
97 0.006982
115 0.006981
134 0.00703
155 0.005971
167 0.005984
162 0.006031
145 0.006025
144 0.005981
147 0.006084
154 0.006698
166 0.006976
172 0.006976
181 0.006955
193 0.006952
199 0.006966
180 0.006027
133 0.005984
100 0.006025
89 0.006033
98 0.005985
111 0.00603
127 0.006027
137 0.005991
124 0.005993
108 0.005983
103 0.007012
108 0.006983
117 0.005984
124 0.006022
129 0.006029
137 0.006033
148 0.006027
149 0.005979
126 0.006028
51 0.005999
36 0.005983
39 0.005982
55 0.00598
81 0.005925
94 0.005996
94 0.005988
82 0.005952
73 0.005948
74 0.005982
83 0.006004
92 0.005984
107 0.005979
116 0.005992
125 0.006
131 0.006001
133 0.004987
95 0.005029
52 0.005268
30 0.005971
31 0.006027
50 0.005029
70 0.004987
87 0.004983
90 0.004982
78 0.004949
72 0.00503
75 0.004998
86 0.004994
93 0.004962
103 0.006013
112 0.006017
117 0.005018
125 0.00502
134 0.005032
135 0.00503
67 0.004464
31 0.005965
23 0.005977
35 0.005018
58 0.005019
75 0.005019
86 0.005026
82 0.005048
70 0.004987
65 0.004989
70 0.004987
78 0.004987
93 0.004976
102 0.004975
111 0.004976
119 0.003989
131 0.004032
137 0.005022
138 0.005016
109 0.005043
63 0.004987
26 0.004986
26 0.003999
39 0.004022
66 0.003945
77 0.004983
79 0.003984
70 0.004023
58 0.004019
62 0.004033
72 0.00399
80 0.004038
93 0.003992
105 0.003989
111 0.004032
121 0.004037
136 0.003994
141 0.003984
133 0.004983
92 0.00402
54 0.004045
35 0.004022
44 0.005032
61 0.00503
79 0.00404
98 0.003984
101 0.00404
89 0.003992
84 0.003996
91 0.004008
98 0.003981
106 0.003994
114 0.004043
121 0.003989
132 0.003892
143 0.003959
153 0.004025
159 0.003977
118 0.003992
79 0.003991
58 0.003956
71 0.002958
90 0.003987
110 0.003988
126 0.002993
122 0.003029
109 0.003031
104 0.00302
105 0.002992
109 0.003019
120 0.003004
128 0.003026
142 0.002966
151 0.003025
158 0.003002
163 0.004025
140 0.004041
78 0.003992
53 0.00399
50 0.003026
65 0.002992
83 0.002992
91 0.000998
106 0.001031
92 0.002994
91 0.002957
100 0.002995
108 0.003003
123 0.003912
132 0.002025
140 0.001995
148 0.002993
157 0.003049
162 0.002993
127 0.002992
50 0.002959
36 0.003016
44 0.002996
61 0.003007
82 0.003026
104 0.002034
104 0.001995
92 0.001989
81 0.002025
78 0.003135
83 0.002025
93 0.002029
114 0.00296
125 0.001994
128 0.002958
135 0.003006
144 0.002025
137 0.001995
92 0.001995
54 0.002026
37 0.001995
41 0.002043
61 0.003027
83 0.001001
101 0.001995
98 0.002988
89 0.001997
83 0.002038
88 0.001995
99 0.002017
113 0.001994
123 0.001994
134 0.001995
143 0.002993
152 0.001995
170 0.002029
153 0.001975
92 0.000995
62 0.001995
57 0.001995
73 0.001995
91 0.002022
115 0.001995
122 0.00199
114 0.001995
97 0.001995
87 0.002027
90 0.001994
101 0.001995
113 0.001983
123 0.002025
130 0.001994
139 0.001995
149 0.000998
139 0.001
93 0.000874
56 0.001046
40 0.001038
49 0.000998
73 0.000998
103 0.001995
115 0.002027
105 0.001988
93 0.002028
89 0.000998
97 0.000998
114 0.000998
122 0.001003
130 0.000997
140 0.000998
147 0.001003
152 0.000985
125 0.000998
66 0.000982
48 0.000944
54 0.000998
69 0.00101
89 0.000999
116 0.001007
118 0.000998
108 0.000998
93 0.000997
93 0.000997
102 0.000998
118 0.000993
136 0.0
144 0.0
150 0.001001
156 0.0
158 0.000999
106 0.0
54 0.0
27 0.000965
26 0.000997
39 0.000998
68 0.000998
88 0.000984
83 0.0
69 0.000986
62 0.0
63 0.0
75 0.0
90 0.0
103 0.0
117 0.0
127 0.0
137 0.0
141 0.0
81 0.0
43 0.0
31 0.0
43 0.000999
64 0.0
87 0.0
97 0.0
88 0.0
72 0.0
63 0.0
63 0.0
68 0.0
84 0.0
95 0.0
106 0.000999
112 0.000997
110 0.000997
60 0.0
31 0.001
9 0.001053
18 0.0
46 0.0
69 0.0
84 0.0
71 0.0
60 0.0
59 0.000999
67 0.000999
82 0.0
91 0.000997
100 0.001027
104 0.006933
129 0.000998
138 0.000997
122 0.000997
80 0.0
36 0.0
45 0.0
75 0.000986
98 0.000999
116 0.0
111 0.0
98 0.0
90 0.001
95 0.000998
111 0.0
120 0.0
135 0.0
154 0.0
164 0.0
177 0.001002
181 0.001033
138 0.0
97 0.0
77 0.0
80 0.000997
98 0.000997
129 0.001003
147 0.0
151 0.000999
134 0.0
131 0.000983
138 0.001996
148 0.001996
165 0.0
174 0.000998
183 0.0
193 0.000998
204 0.00097
209 0.000999
176 0.000987
124 0.001008
85 0.001012
91 0.001014
113 0.001982
137 0.002028
160 0.000993
155 0.000999
141 0.000991
130 0.001995
132 0.002032
140 0.001986
157 0.000997
165 0.001024
182 0.000964
190 0.000968
198 0.001025
196 0.001995
156 0.002035
91 0.001005
74 0.000984
81 0.000988
101 0.002031
124 0.001996
150 0.000986
147 0.000998
122 0.002034
119 0.001995
123 0.001997
137 0.003001
148 0.001995
162 0.000979
172 0.000987
183 0.000988
192 0.001996
204 0.002046
188 0.00104
134 0.001036
82 0.001982
89 0.001995
109 0.00203
133 0.003023
153 0.003023
164 0.002027
153 0.00198
140 0.002041
139 0.00303
146 0.002023
160 0.001036
172 0.002004
190 0.001047
199 0.001994
207 0.00199
214 0.002993
220 0.003054
198 0.002
144 0.002028
106 0.002028
98 0.002992
113 0.003005
140 0.00195
164 0.002
178 0.001959
165 0.002022
155 0.001988
153 0.003956
162 0.003961
174 0.001978
182 0.002023
188 0.002027
198 0.003989
201 0.003996
209 0.003026
220 0.002991
227 0.001949
185 0.001954
128 0.001991
93 0.002992
84 0.003027
96 0.002019
113 0.002961
125 0.002991
127 0.002992
113 0.00399
84 0.003041
75 0.003021
81 0.003026
88 0.003029
100 0.003026
108 0.00399
117 0.00404
152 0.002026
178 0.003025
231 0.001986
255 0.002991
255 0.002992
255 0.004028
255 0.002992
255 0.004021
255 0.002979
255 0.003022
255 0.003021
255 0.003572
255 0.003999
255 0.003043
255 0.002972
255 0.002972
255 0.003993
255 0.003997
255 0.002953
255 0.003989
255 0.003989
255 0.001963
255 0.002996
245 0.004035
185 0.003989
147 0.003037
146 0.003024
159 0.004028
176 0.003989
188 0.00399
182 0.002986
155 0.003989
142 0.003
141 0.003976
145 0.002992
150 0.003987
158 0.00502
167 0.004024
174 0.00402
183 0.004018
189 0.004986
179 0.00502
108 0.003991
64 0.004987
68 0.003994
85 0.003038
107 0.00303
129 0.004037
141 0.004033
124 0.00398
116 0.004005
109 0.003984
114 0.005021
122 0.005018
136 0.003985
147 0.004987
155 0.004026
164 0.003948
171 0.003993
175 0.004986
149 0.005033
74 0.003977
50 0.003995
49 0.005017
63 0.004986
81 0.00502
107 0.005026
114 0.004992
94 0.004958
81 0.005028
78 0.004034
87 0.005985
94 0.006015
107 0.005026
116 0.005037
124 0.004021
131 0.004987
139 0.005985
149 0.005021
105 0.005984
46 0.004992
35 0.005017
44 0.005023
66 0.005999
86 0.005984
118 0.005013
118 0.004021
107 0.004989
98 0.004975
99 0.005984
106 0.005984
126 0.006018
138 0.005984
154 0.004994
167 0.00502
179 0.005042
188 0.005984
191 0.006012
142 0.004038
95 0.005988
73 0.005017
78 0.005989
98 0.007013
136 0.005965
152 0.005981
148 0.005015
132 0.005028
121 0.004952
122 0.006002
131 0.005987
145 0.005016
155 0.005982
166 0.005984
174 0.006985
183 0.006982
189 0.007013
175 0.007013
106 0.006028
66 0.004994
55 0.005976
65 0.006981
83 0.006976
109 0.005034
120 0.005031
110 0.004991
89 0.006982
81 0.006021
84 0.00603
92 0.007007
103 0.005939
115 0.005976
126 0.005022
134 0.00695
140 0.007978
147 0.004959
117 0.006011
58 0.00601
15 0.006983
3 0.007016
24 0.006981
43 0.007013
62 0.005975
62 0.005971
47 0.00599
31 0.006981
25 0.007433
35 0.005985
45 0.005983
55 0.005986
66 0.006966
78 0.006976
95 0.007979
104 0.007962
111 0.006944
81 0.00702
25 0.007012
0 0.007015
0 0.007979
0 0.006019
12 0.006003
30 0.005981
42 0.007019
28 0.007978
10 0.007974
13 0.007974
18 0.007978
35 0.00701
46 0.00702
58 0.007011
73 0.007979
87 0.007992
98 0.006967
113 0.005975
120 0.006996
91 0.007028
26 0.007014
2 0.007979
14 0.007013
37 0.006981
63 0.006987
83 0.006968
90 0.007943
83 0.00793
71 0.007014
74 0.007006
81 0.007042
101 0.007015
124 0.007013
135 0.006985
143 0.007023
157 0.007023
168 0.007014
177 0.006984
184 0.00698
166 0.007021
119 0.007016
68 0.006973
65 0.00698
84 0.007018
122 0.006965
134 0.007979
136 0.007143
120 0.006996
105 0.006987
102 0.007022
111 0.007029
124 0.007029
139 0.006979
152 0.007012
160 0.007016
169 0.006948
182 0.007012
192 0.007012
199 0.007014
180 0.007013
125 0.00702
84 0.006017
71 0.006027
83 0.006983
108 0.006981
133 0.00603
147 0.007013
145 0.00602
123 0.006019
119 0.006032
127 0.006023
146 0.006019
158 0.006011
169 0.006984
180 0.006018
186 0.007019
195 0.006981
204 0.006993
214 0.007021
221 0.005984
163 0.007024
110 0.007029
86 0.006031
97 0.005959
116 0.006015
139 0.006033
159 0.006027
162 0.005995
143 0.006982
132 0.006015
129 0.006027
135 0.005984
155 0.006398
170 0.005982
181 0.006028
190 0.006039
204 0.006014
210 0.005972
218 0.006019
223 0.006025
222 0.006026
160 0.006015
102 0.005995
69 0.004983
78 0.005987
99 0.006026
121 0.005034
139 0.005133
142 0.004984
131 0.005014
123 0.005026
133 0.006022
142 0.005987
161 0.006017
173 0.006023
181 0.005985
191 0.006025
201 0.006024
210 0.004988
217 0.005034
224 0.006032
199 0.005023
146 0.004985
112 0.005027
100 0.005017
115 0.005019
138 0.005004
162 0.004982
181 0.005029
170 0.006015
156 0.00503
152 0.006019
157 0.006016
167 0.006031
176 0.005016
184 0.00508
189 0.005018
198 0.005029
208 0.004986
220 0.004988
219 0.005022
173 0.005034
125 0.004985
102 0.005022
107 0.005019
127 0.005025
154 0.005017
174 0.005022
186 0.005013
174 0.005033
158 0.005033
152 0.004979
161 0.004036
171 0.004027
183 0.004014
191 0.004014
201 0.004622
213 0.005266
222 0.004892
229 0.004977
214 0.005032
138 0.005018
98 0.005033
88 0.004987
114 0.004029
138 0.004062
160 0.004035
172 0.004029
163 0.003953
146 0.004021
139 0.00402
141 0.004021
148 0.004002
159 0.004022
168 0.003979
180 0.003992
198 0.004989
210 0.003028
216 0.004004
206 0.004048
154 0.004035
91 0.00402
76 0.003996
87 0.004017
107 0.003991
130 0.004031
156 0.003983
160 0.003983
136 0.003989
126 0.003037
128 0.002992
136 0.003246
146 0.004025
162 0.003024
176 0.003057
187 0.003024
199 0.002993
211 0.00299
222 0.002992
201 0.00296
110 0.003991
83 0.003029
83 0.002992
99 0.003025
122 0.00402
149 0.00399
161 0.004021
152 0.003044
134 0.003032
123 0.003054
125 0.002996
133 0.002994
151 0.003043
160 0.002952
170 0.002992
180 0.003036
189 0.003027
194 0.003024
177 0.002992
122 0.003026
74 0.003035
56 0.003012
62 0.002054
79 0.004016
115 0.003005
126 0.002993
115 0.002028
95 0.002992
85 0.001995
88 0.002992
92 0.003034
103 0.002029
115 0.001995
123 0.001995
134 0.001994
146 0.002
158 0.002029
131 0.002993
72 0.002992
29 0.002993
16 0.002992
31 0.003009
49 0.003021
70 0.002977
88 0.001995
89 0.001995
63 0.001996
54 0.001994
60 0.001958
70 0.001964
82 0.001031
94 0.002038
103 0.002001
116 0.00101
125 0.002043
136 0.002025
139 0.001995
98 0.001998
41 0.00199
0 0.001993
0 0.001995
28 0.002025
52 0.001995
69 0.002027
73 0.001995
60 0.001994
43 0.002025
44 0.001995
53 0.002007
66 0.002031
76 0.002001
93 0.001996
105 0.002031
115 0.002027
122 0.001996
129 0.002009
128 0.001995
86 0.001996
17 0.001036
0 0.002026
0 0.00101
19 0.000997
45 0.001015
80 0.001011
87 0.000995
68 0.001
61 0.000997
66 0.000994
73 0.000979
84 0.002005
104 0.002028
114 0.001995
123 0.001994
133 0.000987
143 0.001035
154 0.001001
151 0.000998
83 0.000997
40 0.000998
26 0.000998
34 0.000998
55 0.0
88 0.002038
110 0.000998
111 0.001013
96 0.000966
83 0.0
79 0.001005
90 0.000997
105 0.000998
116 0.000993
124 0.000997
129 0.000998
136 0.000997
147 0.000997
152 0.000998
130 0.0
75 0.0
30 0.0
13 0.000997
31 0.001034
65 0.000997
86 0.000998
95 0.001018
83 0.000997
65 0.0
59 0.000998
66 0.0
79 0.0
93 0.0
104 0.0
120 0.0
134 0.000998
150 0.000962
158 0.001001
138 0.0
77 0.0
25 0.0
1 0.0
66 0.0
77 0.0
90 0.0
99 0.0
103 0.0
91 0.0
88 0.0
90 0.0
96 0.0
103 0.0
109 0.000998
114 0.000998
121 0.000997
124 0.000999
131 0.0
133 0.0
130 0.0
77 0.0
50 0.0
41 0.001009
46 0.000999
60 0.0
73 0.0
83 0.0
84 0.000993
76 0.000999
68 0.0
69 0.000995
73 0.001001
85 0.000968
94 0.000967
105 0.002023
112 0.00104
122 0.0
130 0.0
134 0.0
135 0.001041
113 0.001002
74 0.0
62 0.0
64 0.0
86 0.0
103 0.0
116 0.000997
118 0.001035
107 0.0
101 0.0
102 0.000966
106 0.001995
114 0.00103
125 0.0
132 0.0
139 0.0
148 0.0
152 0.000999
160 0.001042
159 0.000998
125 0.0
97 0.0
83 0.000957
84 0.002027
94 0.001988
112 0.000996
124 0.0
130 0.0
115 0.000997
108 0.001031
106 0.001966
110 0.000997
120 0.000991
127 0.00103
133 0.001003
139 0.001027
146 0.001001
154 0.000953
158 0.001026
139 0.000992
90 0.002062
79 0.001049
81 0.001995
93 0.001996
108 0.001995
127 0.002039
132 0.000987
126 0.001034
116 0.002026
113 0.002005
117 0.000995
124 0.001953
135 0.001
140 0.001042
146 0.001029
153 0.002027
159 0.002011
164 0.000974
147 0.001028
110 0.001007
84 0.001966
76 0.001982
84 0.00099
96 0.000989
120 0.000957
128 0.001036
122 0.00096
112 0.001995
109 0.001995
112 0.001954
117 0.002002
125 0.001996
132 0.002996
137 0.002992
144 0.001995
150 0.001984
158 0.001003
148 0.002001
115 0.001995
84 0.002992
70 0.003027
74 0.002001
86 0.001956
100 0.001961
114 0.002992
120 0.002992
104 0.001955
95 0.001983
97 0.002045
107 0.002031
116 0.001039
126 0.003043
137 0.004043
151 0.002029
158 0.001999
166 0.002035
174 0.003982
159 0.004036
100 0.001999
70 0.000996
67 0.001997
84 0.00199
103 0.002002
125 0.003025
139 0.002992
126 0.001983
115 0.001941
110 0.002011
114 0.003012
120 0.002993
134 0.003
145 0.001978
158 0.002999
164 0.003028
171 0.003024
174 0.004002
148 0.003994
86 0.001993
63 0.002006
59 0.002046
69 0.003991
87 0.003994
117 0.002993
130 0.002991
112 0.002961
99 0.002991
99 0.003021
103 0.003991
112 0.003996
121 0.00399
134 0.002041
141 0.001997
150 0.003004
159 0.003029
166 0.003997
135 0.002
71 0.003989
42 0.002986
45 0.002977
59 0.002974
80 0.004033
100 0.003989
112 0.00303
101 0.00201
87 0.001997
83 0.004031
86 0.004987
95 0.002993
108 0.005033
121 0.002992
130 0.003028
139 0.002952
147 0.00502
152 0.004955
119 0.002992
70 0.003023
36 0.002994
27 0.004027
36 0.005023
59 0.003025
86 0.004986
95 0.002994
82 0.002992
69 0.003005
64 0.003989
67 0.005033
79 0.004
89 0.002993
99 0.002989
109 0.004988
118 0.004989
133 0.003051
145 0.005029
122 0.004019
73 0.004027
40 0.004023
31 0.005018
41 0.004987
65 0.004039
87 0.00304
103 0.003025
101 0.005998
87 0.005984
75 0.003968
79 0.005018
90 0.003978
101 0.004
112 0.003949
122 0.005019
132 0.005026
146 0.004037
154 0.004987
139 0.005022
97 0.006037
57 0.00598
34 0.004989
49 0.005985
77 0.004987
98 0.003883
110 0.004023
102 0.006016
87 0.006077
77 0.003952
75 0.003974
82 0.003989
92 0.006016
102 0.005028
115 0.003985
128 0.005984
133 0.003989
108 0.004011
61 0.004987
25 0.005984
13 0.00603
29 0.003997
49 0.003972
72 0.003027
91 0.004004
92 0.005995
79 0.006019
66 0.005984
68 0.00603
81 0.005021
92 0.00505
101 0.005032
112 0.006029
123 0.005997
131 0.003961
118 0.004043
73 0.00481
28 0.006018
9 0.007013
27 0.006021
51 0.007017
81 0.00498
89 0.004984
81 0.00399
71 0.006037
68 0.005984
74 0.003944
88 0.005037
99 0.004988
113 0.007015
122 0.007019
136 0.006981
142 0.006981
133 0.004973
91 0.004987
49 0.004973
26 0.007016
27 0.007028
48 0.00399
76 0.004816
93 0.004992
96 0.007691
87 0.007021
77 0.007014
81 0.006991
94 0.006015
106 0.006021
117 0.005092
118 0.007031
118 0.007017
127 0.005027
131 0.005021
102 0.004997
53 0.007033
28 0.007976
44 0.007979
67 0.006978
100 0.005975
121 0.005964
126 0.005996
120 0.006976
114 0.007013
120 0.005992
129 0.005968
139 0.006004
149 0.007032
161 0.007971
169 0.007979
172 0.007978
157 0.005988
117 0.006015
78 0.005984
59 0.006981
64 0.006981
82 0.005981
101 0.005979
119 0.005988
120 0.007872
107 0.007965
97 0.008016
104 0.007979
128 0.007015
141 0.005983
153 0.004991
167 0.007014
172 0.007027
182 0.006992
169 0.006995
128 0.006986
90 0.007979
81 0.007972
99 0.00697
121 0.007979
148 0.007979
156 0.006012
150 0.007015
142 0.006019
142 0.006981
146 0.006984
155 0.007021
163 0.006982
170 0.006981
185 0.007986
198 0.006987
203 0.007977
174 0.00798
117 0.007022
102 0.007024
108 0.005975
130 0.006976
152 0.006952
172 0.006965
175 0.006973
154 0.007014
137 0.006986
128 0.006971
131 0.007022
134 0.007026
136 0.006981
143 0.006985
151 0.006972
161 0.006981
155 0.006977
90 0.006984
57 0.006988
50 0.006986
62 0.006988
95 0.006996
115 0.007018
129 0.007026
123 0.00598
111 0.006976
108 0.006017
114 0.005986
123 0.006988
135 0.006995
145 0.00699
156 0.00699
168 0.007015
181 0.006973
156 0.006947
101 0.007013
57 0.006981
58 0.00698
75 0.006997
92 0.006002
111 0.00597
128 0.006983
127 0.005983
119 0.005986
114 0.005979
121 0.006024
132 0.006028
142 0.005967
154 0.005985
163 0.006965
172 0.007039
180 0.007005
186 0.006972
179 0.00698
125 0.00597
76 0.005984
59 0.005971
78 0.006018
98 0.00601
115 0.006022
129 0.006022
135 0.006014
129 0.005978
124 0.006008
130 0.006027
138 0.005989
152 0.005984
164 0.00597
175 0.004996
188 0.006048
194 0.00553
200 0.006024
207 0.005985
213 0.005983
194 0.005973
138 0.004983
99 0.004958
88 0.004969
106 0.004981
126 0.005003
144 0.004985
168 0.005031
167 0.00584
155 0.005987
149 0.006026
156 0.005029
164 0.004987
175 0.005939
185 0.005857
192 0.004984
200 0.005998
206 0.00599
211 0.00499
223 0.006017
208 0.005992
162 0.004988
128 0.005016
119 0.005035
136 0.004954
156 0.005021
173 0.004998
189 0.004989
197 0.004987
184 0.004988
173 0.004998
178 0.005172
186 0.004988
195 0.00498
204 0.005017
213 0.005019
219 0.004988
226 0.004246
231 0.005022
238 0.004987
247 0.004986
141 0.004981
177 0.004951
136 0.003991
142 0.004023
159 0.005032
176 0.004112
199 0.003959
207 0.004026
204 0.00464
192 0.004998
182 0.004985
186 0.004986
193 0.004958
202 0.004887
214 0.004984
220 0.005029
222 0.005029
224 0.004022
231 0.004019
234 0.003988
225 0.003995
175 0.003986
132 0.00399
116 0.003989
124 0.004005
142 0.003992
173 0.00399
186 0.00402
192 0.003977
181 0.002961
173 0.003258
169 0.00399
175 0.003692
182 0.003989
190 0.00401
197 0.00399
209 0.003981
216 0.003996
226 0.003987
231 0.002992
225 0.004021
179 0.003023
142 0.002993
131 0.003949
142 0.003979
159 0.003974
177 0.003977
194 0.002942
206 0.003081
195 0.003024
175 0.004023
172 0.002992
176 0.003032
184 0.003001
191 0.003996
203 0.003981
210 0.00399
216 0.004001
220 0.002966
222 0.003991
197 0.003979
155 0.003992
130 0.002992
139 0.002992
156 0.003005
175 0.003042
190 0.002987
204 0.002947
200 0.00203
187 0.002993
176 0.00395
171 0.003007
173 0.002992
176 0.002979
185 0.002994
193 0.002993
201 0.002992
206 0.002992
198 0.002982
148 0.001988
127 0.00296
126 0.002993
141 0.002989
159 0.002997
181 0.002988
194 0.002992
188 0.002992
172 0.003028
163 0.003024
159 0.002992
160 0.002982
169 0.001985
176 0.001996
185 0.001996
192 0.001997
197 0.001989
169 0.003032
124 0.001986
90 0.00203
92 0.003023
105 0.002031
123 0.003026
141 0.001989
151 0.001996
142 0.001988
131 0.001993
124 0.001993
124 0.001995
124 0.001993
130 0.002033
141 0.002029
146 0.002044
152 0.001959
139 0.002028
89 0.001998
50 0.001996
33 0.002
41 0.001974
54 0.001996
70 0.000996
85 0.001996
82 0.001003
65 0.000998
58 0.001964
59 0.001957
64 0.001995
72 0.000967
80 0.001996
90 0.001976
96 0.001963
100 0.002007
76 0.001994
29 0.000989
0 0.000998
0 0.000941
8 0.000997
26 0.001997
42 0.000961
45 0.001027
35 0.000985
25 0.001997
24 0.000997
28 0.000992
35 0.002005
44 0.001991
52 0.001996
65 0.00103
75 0.001003
83 0.000997
62 0.000998
15 0.00199
0 0.001001
0 0.000995
0 0.00196
0 0.001003
17 0.000997
32 0.000816
27 0.001006
14 0.002043
14 0.000999
20 0.000999
30 0.0
40 0.000976
49 0.0
61 0.0
70 0.000984
80 0.0
88 0.0
90 0.0
46 0.001001
0 0.000998
59 0.000997
65 0.000998
74 0.000997
85 0.0
93 0.0
91 0.0
87 0.0
85 0.0
86 0.0
90 0.0
97 0.0
101 0.000997
104 0.000997
107 0.000998
112 0.001004
116 0.0
117 0.001002
101 0.0
83 0.0
75 0.0
75 0.001003
83 0.001012
96 0.0
108 0.0
107 0.0
102 0.0
99 0.0
100 0.0
105 0.0
108 0.0
112 0.0
115 0.0
119 0.000976
124 0.000956
129 0.000998
135 0.000997
129 0.0
101 0.002052
89 0.001992
88 0.0
96 0.0
105 0.0
114 0.002035
119 0.001998
116 0.0
111 0.0
109 0.0
115 0.0
120 0.0
124 0.001037
127 0.001004
131 0.0
133 0.000966
136 0.000963
140 0.000998
144 0.000997
138 0.0
116 0.0
98 0.0
93 0.0
100 0.0
107 0.001989
103 0.001995
113 0.0
106 0.0
95 0.0
91 0.000999
95 0.000996
102 0.0
109 0.0
116 0.0
128 0.0
133 0.0
138 0.001029
143 0.000989
153 0.0
155 0.000971
130 0.0
93 0.000984
73 0.000994
72 0.000997
90 0.001
105 0.0
128 0.000996
130 0.000968
119 0.002033
111 0.001978
110 0.000994
114 0.001012
123 0.0
131 0.001999
137 0.00298
144 0.0
150 0.0
153 0.0
159 0.0
164 0.000969
165 0.002008
140 0.001996
93 0.001998
77 0.000995
79 0.001018
91 0.001969
107 0.002001
131 0.000967
136 0.0
130 0.000996
112 0.000991
111 0.000996
115 0.002031
122 0.001996
127 0.001963
129 0.000999
129 0.000987
132 0.000981
135 0.001991
141 0.001995
146 0.002
128 0.001995
71 0.002049
59 0.001039
65 0.000993
78 0.001994
93 0.001985
115 0.000979
121 0.000963
114 0.000955
104 0.001985
99 0.001998
104 0.000901
112 0.000961
126 0.002029
133 0.001997
136 0.001018
142 0.001952
146 0.00299
154 0.00201
160 0.001996
146 0.000997
105 0.003023
71 0.00298
58 0.000992
65 0.000983
89 0.00099
101 0.000996
110 0.000959
103 0.003032
94 0.002993
87 0.001989
87 0.002003
93 0.001995
102 0.003024
108 0.004026
119 0.002001
126 0.001034
135 0.001987
142 0.002001
147 0.001981
147 0.002998
120 0.002978
63 0.00099
44 0.002
43 0.001987
56 0.004019
70 0.004023
92 0.001994
97 0.001947
86 0.002004
77 0.001986
78 0.001
84 0.002991
91 0.002992
102 0.001995
109 0.001995
117 0.000984
124 0.003988
129 0.004007
138 0.001975
145 0.001983
127 0.001987
84 0.001984
54 0.001986
45 0.003023
53 0.004009
71 0.001993
87 0.002962
100 0.00199
100 0.003991
88 0.004037
74 0.002998
73 0.001981
84 0.001986
93 0.00199
105 0.001944
116 0.004004
124 0.003982
131 0.004978
144 0.002994
151 0.001975
159 0.002976
148 0.003988
109 0.003989
65 0.002961
60 0.004988
76 0.002031
92 0.002963
110 0.002992
123 0.004987
120 0.004027
103 0.002954
99 0.002955
101 0.002985
109 0.005017
117 0.005017
129 0.002991
140 0.003989
151 0.001996
158 0.003009
165 0.00296
167 0.003993
143 0.003991
92 0.002938
73 0.002946
73 0.002987
85 0.004985
103 0.005022
130 0.00298
139 0.004945
125 0.002972
113 0.003006
110 0.002999
113 0.005014
117 0.004996
126 0.001994
134 0.003037
141 0.003004
147 0.004986
155 0.00503
161 0.002994
121 0.004987
70 0.002976
56 0.003012
60 0.00398
75 0.006014
92 0.006014
116 0.003982
122 0.003996
110 0.003967
98 0.004829
94 0.005019
98 0.003034
108 0.004978
118 0.003145
123 0.003034
131 0.002996
139 0.006001
145 0.005986
139 0.003982
96 0.004003
52 0.00403
30 0.005019
30 0.007035
48 0.004948
73 0.006018
91 0.004985
87 0.004022
75 0.00402
65 0.005985
64 0.00601
71 0.003974
80 0.003986
90 0.003995
99 0.005996
107 0.006029
118 0.004024
127 0.005984
130 0.006025
82 0.004018
40 0.003995
16 0.004005
17 0.006025
30 0.005984
52 0.002991
70 0.004016
78 0.00395
68 0.006984
55 0.006019
51 0.006023
55 0.006018
68 0.00398
77 0.005011
87 0.003958
96 0.007017
104 0.007014
116 0.004995
125 0.003986
125 0.004039
94 0.006015
50 0.006033
18 0.006015
26 0.006032
50 0.004017
71 0.003972
88 0.00502
91 0.007016
78 0.007012
68 0.004979
66 0.004986
72 0.004991
81 0.007025
91 0.006981
107 0.00698
115 0.007012
125 0.005997
134 0.005944
139 0.005014
124 0.007022
81 0.006986
39 0.005036
30 0.005001
37 0.005041
55 0.007019
76 0.007058
93 0.007022
82 0.007018
61 0.004981
52 0.004951
50 0.00497
54 0.007039
58 0.00701
64 0.005007
69 0.004971
75 0.005972
83 0.007989
89 0.007943
68 0.007983
39 0.007052
0 0.00598
0 0.005983
0 0.005974
16 0.007015
39 0.006965
63 0.006005
61 0.006963
50 0.005973
42 0.007983
46 0.007977
61 0.00794
68 0.007979
83 0.00599
91 0.005984
100 0.006001
114 0.006983
124 0.007952
125 0.005983
91 0.00698
42 0.00695
8 0.007295
7 0.008044
39 0.007975
60 0.007975
76 0.007975
76 0.005979
64 0.00598
46 0.00696
46 0.006978
56 0.00697
67 0.006982
77 0.006986
86 0.006984
100 0.00798
112 0.005985
125 0.007977
130 0.007978
117 0.005975
75 0.005981
33 0.006942
14 0.006991
24 0.006988
52 0.006982
75 0.006979
89 0.006972
90 0.007005
73 0.006985
73 0.006969
77 0.007982
89 0.006988
101 0.007015
115 0.006986
127 0.007974
134 0.006968
142 0.006984
152 0.006982
163 0.00698
162 0.006982
95 0.006976
57 0.007035
43 0.006991
56 0.006973
70 0.006988
98 0.006973
118 0.005991
120 0.006937
104 0.00699
97 0.005983
98 0.006974
104 0.005984
122 0.005992
134 0.005983
143 0.006985
155 0.006984
165 0.006986
175 0.006019
182 0.007022
180 0.006987
133 0.006979
89 0.005989
67 0.005953
68 0.005968
97 0.005985
122 0.005994
139 0.005991
136 0.005987
122 0.006985
113 0.005953
112 0.006984
120 0.006969
135 0.006979
143 0.006995
153 0.006013
162 0.005985
175 0.005992
183 0.005986
188 0.00601
180 0.00597
136 0.005985
87 0.005989
65 0.005993
68 0.005992
87 0.005987
108 0.004975
130 0.004987
140 0.006025
123 0.005983
112 0.005947
114 0.004992
123 0.004987
139 0.005989
149 0.005974
160 0.005986
171 0.005973
177 0.005983
187 0.005984
196 0.005984
201 0.006089
167 0.004995
118 0.005989
88 0.005997
85 0.005977
105 0.005984
125 0.004964
146 0.005987
160 0.004953
156 0.004996
141 0.004988
135 0.004987
135 0.00502
151 0.004986
163 0.004983
174 0.005959
185 0.004986
197 0.004953
209 0.00596
221 0.005952
229 0.004964
170 0.004988
184 0.00501
141 0.004962
118 0.005019
127 0.003956
147 0.003604
167 0.00498
184 0.004988
191 0.004988
183 0.005026
174 0.004993
172 0.004988
179 0.004981
193 0.004973
202 0.004983
211 0.005017
226 0.004
233 0.004018
240 0.003976
248 0.003989
244 0.004017
204 0.003986
164 0.003977
145 0.004011
146 0.004729
166 0.003997
188 0.004982
207 0.005024
215 0.004998
201 0.004986
188 0.00399
184 0.003992
190 0.003992
196 0.003993
204 0.003996
211 0.003951
218 0.003952
228 0.004001
234 0.004964
235 0.005013
168 0.003963
132 0.004006
121 0.003951
127 0.003996
150 0.003988
168 0.00399
184 0.003993
187 0.003959
175 0.003976
163 0.00399
159 0.004026
165 0.003991
180 0.004035
187 0.003957
195 0.004039
201 0.002992
207 0.003843
200 0.00299
155 0.002975
108 0.003992
82 0.004015
81 0.003992
101 0.00299
120 0.004025
144 0.003997
139 0.003954
121 0.002993
110 0.002971
105 0.002952
112 0.003018
122 0.002957
132 0.002987
142 0.003991
150 0.002992
156 0.003989
154 0.00399
86 0.003985
49 0.003999
35 0.002996
41 0.002967
57 0.002991
84 0.002955
96 0.003006
94 0.002987
81 0.00299
71 0.003001
69 0.001994
74 0.003024
88 0.001995
102 0.002983
110 0.00396
120 0.002977
126 0.001969
101 0.002957
60 0.003005
32 0.003
26 0.00299
39 0.003027
65 0.002992
86 0.003028
95 0.002992
84 0.002014
75 0.002027
72 0.002
77 0.001979
89 0.001993
99 0.001993
107 0.001993
117 0.001963
126 0.002958
121 0.003009
87 0.001984
40 0.003003
39 0.001993
49 0.001988
70 0.001989
89 0.001996
101 0.001995
95 0.001994
88 0.001998
86 0.001993
94 0.001995
107 0.003038
119 0.001995
138 0.001963
145 0.002009
151 0.001964
156 0.001974
138 0.000998
96 0.000961
84 0.000993
92 0.000967
108 0.002015
131 0.001971
154 0.001995
163 0.001995
144 0.001976
132 0.001964
138 0.001994
148 0.001975
157 0.001996
164 0.001997
176 0.000993
175 0.001996
172 0.000997
153 0.000999
119 0.001
87 0.000998
96 0.001016
123 0.001963
148 0.001
168 0.001964
175 0.001998
171 0.000998
159 0.000995
154 0.00098
156 0.000981
160 0.001011
168 0.000999
179 0.001996
192 0.001991
187 0.001967
148 0.002015
114 0.001991
104 0.000993
115 0.000992
141 0.001993
163 0.001004
178 0.000974
178 0.001018
165 0.001
154 0.000997
160 0.001002
172 0.0
179 0.0
186 0.0
193 0.000998
200 0.0
198 0.0
160 0.0
120 0.0
102 0.0
105 0.0
125 0.0
143 0.0
154 0.001004
146 0.000997
135 0.000962
130 0.001001
136 0.001001
143 0.000999
152 0.001
158 0.0
162 0.0
166 0.0
174 0.0
175 0.0
131 0.0
88 0.001023
70 0.0
73 0.0
87 0.0
108 0.000952
123 0.0
127 0.0
120 0.0
112 0.0
113 0.0
123 0.0
131 0.000962
139 0.001001
143 0.000975
148 0.0
151 0.0
156 0.0
166 0.0
172 0.0
173 0.0
145 0.0
85 0.0
78 0.0
96 0.0
116 0.001991
134 0.001997
148 0.0
148 0.0
140 0.0
135 0.002029
140 0.002027
161 0.0
177 0.0
193 0.0
214 0.0
136 0.0
242 0.001995
250 0.001996
255 0.0
255 0.0
255 0.0
255 0.000999
237 0.000949
210 0.0
217 0.0
237 0.0
255 0.000996
255 0.000988
255 0.001995
255 0.001996
255 0.0
255 0.000987
255 0.0
255 0.001998
255 0.001996
255 0.0
255 0.0
255 0.0
255 0.0
255 0.0
255 0.001984
255 0.002007
255 0.0
255 0.000965
255 0.0
255 0.000983
255 0.000999
136 0.001008
235 0.000995
240 0.0
188 0.0
187 0.0
188 0.000974
189 0.002017
192 0.000992
194 0.0
198 0.0
201 0.000995
204 0.000988
207 0.0
209 0.0
210 0.0
207 0.0
206 0.0
205 0.001983
205 0.00198
204 0.0
204 0.0
204 0.000962
204 0.001997
203 0.001989
200 0.0
199 0.0
197 0.0
195 0.0
194 0.0
193 0.001993
191 0.001996
189 0.0
187 0.002004
176 0.002005
159 0.002947
151 0.002
150 0.002916
151 0.001995
153 0.003016
154 0.001976
152 0.0
149 0.00098
146 0.002965
144 0.002963
143 0.00203
143 0.001997
143 0.002005
144 0.00302
145 0.002992
146 0.001983
148 0.001982
145 0.001995
136 0.00098
131 0.001995
132 0.003023
135 0.002991
139 0.001011
140 0.000989
141 0.001996
142 0.003028
141 0.003022
140 0.002001
140 0.001994
140 0.001995
139 0.000997
146 0.001964
146 0.002997
148 0.003022
150 0.002041
151 0.001993
145 0.001958
131 0.003025
126 0.004022
131 0.001001
136 0.001988
141 0.001999
144 0.002
145 0.001814
145 0.003992
144 0.004009
144 0.001993
145 0.001043
147 0.00203
148 0.002997
149 0.003025
153 0.001005
155 0.002041
154 0.001988
138 0.002
126 0.002008
126 0.003994
130 0.004015
138 0.001995
143 0.001966
147 0.001032
148 0.004012
145 0.003989
139 0.002011
137 0.002
138 0.00098
140 0.001949
141 0.001983
143 0.003955
145 0.004021
147 0.001985
137 0.001982
122 0.001995
115 0.004026
115 0.004029
121 0.002005
127 0.001957
135 0.001993
137 0.001978
134 0.002995
130 0.003021
129 0.003998
130 0.004013
133 0.001942
135 0.001966
138 0.002998
140 0.003982
142 0.00399
141 0.001969
121 0.004007
109 0.002986
110 0.002985
114 0.002981
121 0.005021
121 0.004993
136 0.002018
136 0.002956
125 0.002039
114 0.00502
112 0.004986
116 0.002989
124 0.004007
132 0.001991
137 0.003007
143 0.002993
145 0.005025
115 0.005001
68 0.002034
59 0.002033
67 0.002977
81 0.004987
96 0.005037
114 0.002992
117 0.004976
104 0.003037
98 0.003018
98 0.002949
102 0.005983
107 0.004993
114 0.002998
119 0.003003
125 0.002983
126 0.00501
103 0.004986
56 0.00299
48 0.005028
60 0.003991
75 0.003006
90 0.001964
100 0.006018
100 0.006014
88 0.002983
80 0.003964
79 0.003979
83 0.004987
88 0.004962
91 0.003001
96 0.004991
102 0.00398
100 0.003931
64 0.00394
33 0.005985
24 0.005976
36 0.002982
53 0.003957
69 0.003987
81 0.005984
84 0.006004
72 0.003989
63 0.005012
64 0.003996
69 0.002881
75 0.003982
81 0.005985
89 0.006017
95 0.004032
99 0.00498
83 0.004019
46 0.006016
25 0.006028
25 0.003988
42 0.006017
65 0.004008
77 0.003974
80 0.00304
74 0.003025
65 0.006036
63 0.005994
70 0.004979
78 0.004992
87 0.004024
95 0.006016
102 0.00698
117 0.00698
123 0.006983
97 0.003995
68 0.003981
61 0.003991
78 0.007031
101 0.007014
131 0.004982
149 0.00499
159 0.004958
154 0.007034
148 0.006981
143 0.00703
151 0.007023
160 0.003991
163 0.004005
170 0.004033
176 0.006027
180 0.006576
183 0.003983
155 0.004987
121 0.004989
110 0.00704
113 0.007014
140 0.00704
158 0.007022
175 0.005943
174 0.00502
163 0.005983
155 0.007013
155 0.007008
157 0.004972
162 0.004983
168 0.004987
175 0.006979
180 0.006982
171 0.007967
149 0.007023
109 0.005962
98 0.005971
103 0.005505
109 0.006987
109 0.007285
72 0.005948
36 0.004984
1 0.005009
0 0.008031
0 0.006953
0 0.007025
0 0.006983
0 0.004986
0 0.005969
0 0.005987
0 0.00701
0 0.007981
0 0.005977
0 0.005987
0 0.005993
0 0.007976
0 0.006977
0 0.00797
0 0.007982
0 0.005991
0 0.005982
0 0.005023
0 0.007979
0 0.007979
2 0.00597
15 0.005983
26 0.005978
0 0.007984
0 0.007982
0 0.007937
1 0.00798
19 0.005977
38 0.006001
51 0.005982
52 0.00601
42 0.007979
37 0.007977
45 0.006964
51 0.00698
58 0.006939
65 0.007015
78 0.006948
87 0.007009
86 0.006952
53 0.005992
22 0.005975
9 0.006938
19 0.006949
36 0.007016
49 0.006982
64 0.006945
68 0.006981
59 0.00702
46 0.005986
49 0.006984
57 0.006975
65 0.006971
72 0.005982
75 0.006976
83 0.007021
88 0.007007
95 0.006981
96 0.006978
55 0.006987
19 0.007025
9 0.006977
25 0.006985
42 0.006972
60 0.007013
69 0.006978
69 0.006983
60 0.006971
54 0.006983
57 0.005982
64 0.006025
71 0.005983
79 0.006989
89 0.006966
98 0.005971
106 0.005976
113 0.005957
116 0.006013
101 0.005993
64 0.006015
42 0.007015
48 0.006948
59 0.006979
80 0.006984
94 0.007019
103 0.006982
100 0.006968
93 0.005983
94 0.005983
99 0.005983
106 0.005953
116 0.00602
123 0.005979
130 0.005973
135 0.005988
141 0.005988
147 0.005984
154 0.005968
155 0.006024
126 0.005023
89 0.005992
87 0.005461
98 0.005984
113 0.005984
126 0.006029
144 0.006018
144 0.005976
135 0.004966
127 0.005018
129 0.004972
134 0.004997
141 0.005992
149 0.005986
157 0.005994
161 0.005982
166 0.005979
169 0.005984
170 0.006019
174 0.005984
178 0.004988
180 0.00502
134 0.004985
114 0.004987
115 0.004988
129 0.004996
149 0.004988
165 0.004987
175 0.004986
172 0.005022
161 0.004988
153 0.005022
155 0.006041
162 0.00502
176 0.005018
181 0.004987
187 0.004986
192 0.005025
197 0.00503
200 0.003981
202 0.003948
204 0.00402
207 0.005028
188 0.004986
157 0.005016
144 0.00498
158 0.004982
175 0.004963
191 0.004988
204 0.004988
206 0.004981
196 0.004987
187 0.005026
184 0.004001
188 0.00403
196 0.004033
201 0.004025
206 0.004031
212 0.003959
213 0.003959
216 0.003993
218 0.003983
221 0.004983
211 0.004992
178 0.005029
162 0.005031
165 0.005032
182 0.004983
196 0.004991
211 0.003996
220 0.00396
209 0.003959
197 0.004005
190 0.003989
192 0.003988
195 0.004988
200 0.004021
201 0.003991
204 0.004987
204 0.00399
206 0.00399
207 0.004038
208 0.003954
194 0.00399
156 0.003958
136 0.003957
140 0.00394
155 0.00399
171 0.004026
185 0.004003
194 0.003991
189 0.00402
176 0.004026
166 0.003041
167 0.002937
171 0.003025
178 0.002996
183 0.002994
186 0.002992
190 0.002993
191 0.002992
194 0.002991
195 0.002962
197 0.00298
161 0.003021
132 0.002989
132 0.002992
147 0.003989
164 0.003973
196 0.002959
207 0.003973
204 0.00403
186 0.002998
172 0.004
167 0.003991
173 0.004018
183 0.002993
191 0.002993
196 0.003005
201 0.002998
204 0.002996
208 0.003023
208 0.002947
204 0.001997
158 0.003022
124 0.002992
120 0.002029
135 0.001995
158 0.001996
177 0.002994
194 0.00296
186 0.003026
167 0.003005
155 0.002989
153 0.001955
161 0.003025
166 0.003018
173 0.003023
178 0.00199
183 0.002018
185 0.001995
186 0.001995
192 0.00196
185 0.001955
138 0.001991
105 0.002992
99 0.002993
117 0.002992
139 0.002996
157 0.002992
173 0.002992
172 0.001995
153 0.002027
139 0.002028
137 0.002015
142 0.001984
148 0.002042
153 0.001995
160 0.001995
160 0.002028
165 0.001995
168 0.001995
170 0.001997
170 0.001995
147 0.001995
104 0.001995
80 0.002979
93 0.000997
113 0.002035
133 0.002993
149 0.000999
151 0.00204
137 0.002029
121 0.000998
114 0.000998
117 0.000998
122 0.000998
130 0.002032
141 0.002002
144 0.002021
148 0.002023
150 0.001995
154 0.002027
149 0.001028
98 0.001026
72 0.000968
70 0.001008
84 0.000991
101 0.000991
124 0.001002
136 0.000993
122 0.000994
108 0.001981
100 0.001992
102 0.001993
107 0.002042
119 0.000998
122 0.000998
127 0.001036
132 0.000998
135 0.000997
142 0.000997
135 0.001995
78 0.001995
47 0.001995
44 0.001996
57 0.000997
72 0.002025
91 0.000998
102 0.000998
100 0.000997
81 0.000998
69 0.000998
63 0.000997
66 0.000996
78 0.000998
83 0.001009
85 0.000997
90 0.000998
95 0.0
99 0.0
102 0.000998
93 0.000965
48 0.0
11 0.0
2 0.0
16 0.0
42 0.0
55 0.0
60 0.0
52 0.0
35 0.0
24 0.0
27 0.000997
30 0.0
39 0.0
45 0.0
52 0.0
57 0.0
64 0.0
71 0.0
76 0.0
45 0.0
0 0.0
0 0.0
0 0.0
0 0.0
11 0.000997
31 0.000997
41 0.0
27 0.0
10 0.002042
9 0.0
11 0.00204
21 0.0
25 0.00096
32 0.0
37 0.002038
45 0.001996
52 0.0
62 0.0
62 0.0
4 0.000997
0 0.0
0 0.001994
0 0.002037
1 0.000963
22 0.0
37 0.000997
36 0.002031
25 0.001991
12 0.0
10 0.0
17 0.0
33 0.0
44 0.000947
53 0.001997
58 0.002036
69 0.0
77 0.000998
83 0.0
56 0.003045
11 0.002036
56 0.000987
58 0.001029
66 0.000953
81 0.0
89 0.0
89 0.002031
83 0.002001
75 0.0
74 0.0
76 0.0
81 0.003031
86 0.002026
91 0.0
95 0.0
98 0.0
104 0.0
107 0.000998
99 0.001969
73 0.002027
50 0.0
47 0.0
54 0.000965
62 0.002025
73 0.001963
80 0.0
79 0.0
72 0.001007
66 0.0
68 0.0
73 0.001997
78 0.001963
84 0.0
88 0.0
92 0.0
96 0.002027
99 0.002033
105 0.0
107 0.0
94 0.0
55 0.0
48 0.0
51 0.001983
60 0.001993
73 0.0
82 0.0
84 0.0
79 0.002956
73 0.002964
70 0.0
72 0.0
78 0.0
89 0.0
92 0.0
99 0.0
102 0.003023
105 0.002031
112 0.000952
118 0.00204
120 0.001995
113 0.002265
89 0.001994
65 0.002038
64 0.001993
35 0.00198
55 0.001995
71 0.002003
80 0.001994
75 0.002037
62 0.002001
58 0.001995
62 0.002028
69 0.001951
81 0.001949
96 0.001994
105 0.001995
118 0.001997
123 0.003985
130 0.0
138 0.002946
146 0.002933
149 0.00204
118 0.001996
75 0.001974
53 0.002992
52 0.003008
69 0.001037
87 0.001033
112 0.000994
114 0.001001
102 0.002
91 0.003028
90 0.00399
96 0.002003
104 0.001988
116 0.001999
124 0.002992
130 0.00403
140 0.001996
147 0.001997
160 0.002016
164 0.001989
169 0.002044
151 0.003991
109 0.003989
74 0.001961
73 0.001954
85 0.002059
101 0.002983
120 0.002991
141 0.001995
138 0.001948
119 0.001994
116 0.001996
119 0.002042
129 0.003957
138 0.003956
151 0.001945
160 0.002
169 0.002006
175 0.003987
182 0.003957
190 0.001025
195 0.001986
157 0.002005
112 0.001982
89 0.001994
84 0.004024
93 0.003989
116 0.001993
134 0.001994
146 0.001994
145 0.005028
132 0.003989
116 0.002964
115 0.002012
124 0.001996
133 0.00198
141 0.001987
148 0.001992
156 0.00399
163 0.004025
169 0.002027
175 0.001997
181 0.001988
178 0.004987
133 0.004026
82 0.002987
68 0.004995
83 0.002033
102 0.002996
120 0.002954
133 0.004986
132 0.004987
114 0.00204
105 0.001995
104 0.001997
108 0.004991
116 0.004986
130 0.002993
138 0.004961
151 0.002993
158 0.002992
164 0.002989
174 0.004986
177 0.005019
131 0.001996
92 0.002992
68 0.002992
68 0.005043
79 0.00502
102 0.002991
129 0.006017
130 0.002029
115 0.003002
102 0.003002
96 0.005026
95 0.004988
105 0.003
112 0.003984
118 0.003984
126 0.006016
137 0.005984
153 0.003
166 0.00602
161 0.003006
126 0.00299
94 0.002979
78 0.005944
81 0.006011
105 0.003002
125 0.004009
141 0.003991
151 0.005985
140 0.005979
123 0.002956
122 0.006019
130 0.00399
139 0.003983
146 0.003978
158 0.005984
169 0.005996
178 0.003989
187 0.003994
183 0.003012
148 0.005981
109 0.006983
93 0.00399
107 0.006011
133 0.003985
149 0.00399
160 0.004003
158 0.005986
146 0.005984
137 0.003979
142 0.003987
150 0.004022
159 0.006048
168 0.005984
178 0.004022
188 0.007022
195 0.007017
199 0.004142
176 0.003988
132 0.004987
99 0.007013
86 0.006984
93 0.003975
98 0.004023
92 0.004019
84 0.006022
73 0.005985
44 0.006015
38 0.006961
41 0.004992
47 0.00498
53 0.004975
54 0.006981
59 0.006981
65 0.004985
65 0.00499
69 0.003976
68 0.007012
32 0.007979
0 0.007015
0 0.006982
0 0.004991
8 0.004979
29 0.004985
43 0.006981
44 0.006979
32 0.004983
30 0.004988
31 0.004992
40 0.006982
49 0.006984
65 0.007981
71 0.007975
80 0.004977
88 0.005026
96 0.004988
105 0.007013
105 0.00701
67 0.005002
31 0.00501
13 0.004994
22 0.007978
33 0.006982
60 0.007978
73 0.007717
69 0.004955
57 0.004438
48 0.003969
50 0.006981
58 0.007022
70 0.005993
78 0.005002
88 0.005959
96 0.007979
104 0.007979
115 0.007978
122 0.007986
118 0.004985
89 0.005987
51 0.005016
30 0.007976
36 0.00701
49 0.006021
67 0.006014
84 0.005947
90 0.007979
80 0.007976
65 0.007976
66 0.007993
74 0.005987
79 0.005984
89 0.005984
92 0.007935
99 0.007978
102 0.006009
108 0.005985
111 0.005986
119 0.005969
125 0.00794
81 0.005987
35 0.006975
25 0.006982
33 0.005984
49 0.006986
63 0.006018
79 0.006983
78 0.00698
66 0.006974
56 0.00604
55 0.005982
63 0.007985
77 0.005987
91 0.007007
98 0.007021
105 0.006948
110 0.00602
117 0.006986
127 0.006982
132 0.006982
133 0.0
125 0.006018
83 0.006015
37 0.00699
31 0.005997
43 0.007021
57 0.007015
71 0.006971
75 0.006978
65 0.005983
52 0.007014
50 0.007012
60 0.005979
71 0.006983
79 0.006975
88 0.006982
103 0.005966
112 0.006014
120 0.005978
131 0.00599
140 0.006604
147 0.006977
158 0.006983
148 0.006983
93 0.006982
72 0.006986
60 0.005982
72 0.006018
99 0.006004
115 0.007027
122 0.006011
113 0.005955
105 0.00695
101 0.005985
104 0.006047
112 0.007025
120 0.006982
133 0.00598
142 0.005987
149 0.006016
161 0.005927
168 0.006029
177 0.00602
188 0.005981
186 0.005986
156 0.005994
120 0.006015
102 0.006006
109 0.005984
125 0.006865
142 0.005016
160 0.005021
165 0.005994
152 0.006023
139 0.006036
139 0.005957
144 0.005989
152 0.00597
158 0.005021
166 0.006015
171 0.005985
178 0.006051
183 0.004987
189 0.006296
198 0.005993
188 0.005972
150 0.006033
115 0.004969
104 0.004987
115 0.005108
133 0.006107
146 0.005987
161 0.006017
165 0.005955
153 0.004967
142 0.005022
143 0.004998
151 0.00499
160 0.005035
169 0.005146
178 0.005025
186 0.004983
192 0.004994
199 0.005014
204 0.004989
212 0.004976
185 0.004987
141 0.00498
103 0.004996
112 0.004011
127 0.00502
144 0.005021
159 0.004988
164 0.00499
156 0.005019
141 0.005029
136 0.005031
142 0.004992
147 0.004934
157 0.004996
167 0.003989
175 0.00399
183 0.00396
189 0.003989
202 0.005024
207 0.005022
203 0.004933
167 0.004985
127 0.004989
111 0.006042
121 0.004988
137 0.005021
161 0.004003
171 0.00495
165 0.004952
150 0.005028
140 0.004022
141 0.003991
144 0.003992
154 0.003995
161 0.004031
172 0.005017
180 0.004042
192 0.003989
201 0.003976
215 0.004034
204 0.004034
167 0.004028
135 0.002994
132 0.003991
142 0.003991
157 0.003991
176 0.004022
196 0.003007
197 0.003989
184 0.003027
174 0.003025
174 0.002998
182 0.003616
189 0.00399
197 0.004423
205 0.002992
215 0.002974
222 0.002998
228 0.002992
213 0.003986
172 0.003992
141 0.003943
129 0.004003
141 0.003976
154 0.00399
169 0.003991
175 0.002992
164 0.002992
151 0.002994
143 0.002992
144 0.003025
150 0.00296
162 0.00399
168 0.00402
176 0.003954
190 0.00399
199 0.00402
183 0.003953
144 0.00399
117 0.002993
118 0.002994
132 0.003002
151 0.002992
172 0.002992
186 0.002992
180 0.002989
168 0.002996
157 0.003007
161 0.003991
168 0.002992
175 0.002993
181 0.00299
183 0.001994
193 0.001994
201 0.001996
205 0.002992
163 0.003022
127 0.003032
111 0.002992
120 0.002992
134 0.003026
149 0.002993
161 0.002991
152 0.001995
135 0.002025
126 0.002026
126 0.001995
130 0.002005
137 0.002026
144 0.003028
151 0.001988
163 0.002992
167 0.002992
170 0.002992
141 0.002985
91 0.00303
77 0.002997
81 0.002992
94 0.002993
112 0.001995
136 0.001985
139 0.001995
130 0.001968
112 0.001996
110 0.001995
115 0.001998
122 0.002005
131 0.003037
139 0.002036
146 0.001996
154 0.000997
154 0.000999
120 0.002041
85 0.002031
70 0.001994
82 0.002022
99 0.001995
119 0.002
133 0.000984
131 0.002025
118 0.002026
110 0.00103
107 0.002035
113 0.000998
123 0.000998
131 0.000995
141 0.002024
155 0.00205
161 0.001971
148 0.001995
113 0.002026
88 0.002001
85 0.001995
97 0.000999
117 0.001032
136 0.000988
151 0.000995
143 0.000986
132 0.001
126 0.000997
132 0.000998
140 0.000996
145 0.001996
156 0.001997
163 0.002027
175 0.002028
187 0.001028
182 0.0
145 0.002029
110 0.0
104 0.0
126 0.001995
145 0.001019
162 0.001993
170 0.001974
166 0.001995
150 0.001995
149 0.001027
154 0.0
160 0.0
171 0.0
183 0.000995
192 0.000998
203 0.000998
207 0.00096
185 0.00099
148 0.0
124 0.001042
120 0.000998
136 0.000992
153 0.0
172 0.0
182 0.0
173 0.000997
160 0.000998
150 0.000997
147 0.000999
150 0.0
155 0.0
160 0.000965
167 0.0
175 0.000997
175 0.0
145 0.000998
106 0.0
84 0.0
88 0.0
114 0.0
131 0.001036
142 0.0
140 0.0
126 0.0
112 0.000968
111 0.001002
116 0.000997
123 0.001008
133 0.0
140 0.0
147 0.001967
157 0.002037
145 0.002036
101 0.002037
62 0.0
60 0.0
68 0.0
83 0.002042
102 0.001985
115 0.0
107 0.0
95 0.0
86 0.001994
88 0.0
96 0.00203
103 0.002025
115 0.0
120 0.0
122 0.0
130 0.00202
131 0.002027
87 0.0
50 0.0
35 0.0
40 0.002996
63 0.0
80 0.003026
87 0.002027
78 0.0
62 0.000956
51 0.0
54 0.002037
58 0.001958
67 0.000959
74 0.001004
80 0.0
86 0.001977
98 0.0
102 0.002002
88 0.001995
37 0.000948
10 0.000973
5 0.00095
19 0.002026
37 0.001985
59 0.000965
65 0.0
57 0.0
45 0.002986
35 0.0
40 0.002025
51 0.003026
67 0.0
79 0.0
88 0.0
95 0.002022
103 0.002024
110 0.0
110 0.001006
80 0.0
39 0.001994
16 0.000972
25 0.002025
45 0.002024
71 0.0
83 0.001002
80 0.0
65 0.002029
56 0.002031
62 0.000966
71 0.0
81 0.0
93 0.002994
108 0.0
114 0.002026
116 0.002027
120 0.0
120 0.0
91 0.000963
55 0.001995
39 0.001995
43 0.0
59 0.0
78 0.0
93 0.001998
93 0.0
79 0.003005
71 0.002992
69 0.002996
81 0.0
88 0.0
97 0.0
105 0.002994
113 0.002985
122 0.0
130 0.001984
138 0.001997
98 0.001999
53 0.002007
33 0.002982
36 0.002993
56 0.002008
72 0.001987
88 0.001995
95 0.003038
87 0.003053
70 0.001997
68 0.002985
74 0.0
90 0.002999
98 0.0
103 0.002993
108 0.003038
114 0.001994
122 0.001995
130 0.001995
136 0.00298
132 0.002959
77 0.000962
40 0.002988
26 0.001011
43 0.001994
59 0.002
75 0.003988
86 0.002964
74 0.002005
65 0.001999
60 0.001995
63 0.002995
71 0.002992
86 0.002989
96 0.002998
106 0.001996
118 0.002006
126 0.001999
134 0.003998
142 0.00399
148 0.001984
129 0.001998
83 0.001997
48 0.002977
37 0.003993
50 0.001995
67 0.001988
87 0.000998
104 0.003
95 0.002002
81 0.004025
76 0.004027
82 0.002037
93 0.002025
102 0.003023
112 0.00399
120 0.004987
131 0.002019
138 0.001992
145 0.00299
158 0.001984
160 0.001991
139 0.003973
93 0.003989
50 0.001997
47 0.001994
57 0.003023
74 0.003973
89 0.004985
104 0.002024
100 0.001986
84 0.002992
69 0.001974
76 0.001998
87 0.001986
98 0.005027
107 0.004951
117 0.002015
126 0.00199
135 0.00198
144 0.003982
152 0.004035
149 0.002986
111 0.003006
58 0.002992
55 0.002981
64 0.002987
80 0.006014
100 0.00602
124 0.001984
120 0.002025
107 0.002041
101 0.006
101 0.004953
114 0.002002
121 0.00198
136 0.002988
146 0.003005
156 0.002995
166 0.004987
171 0.00502
173 0.003008
134 0.003034
87 0.002039
61 0.004988
62 0.005023
77 0.004009
95 0.003005
125 0.002991
127 0.003
113 0.002984
100 0.006014
96 0.00598
105 0.002982
117 0.002953
127 0.002981
138 0.004995
146 0.004982
155 0.002012
166 0.003036
181 0.002993
161 0.003027
107 0.003002
68 0.00602
56 0.006001
71 0.00399
85 0.003006
103 0.002992
120 0.004985
122 0.004984
97 0.002997
83 0.002037
80 0.003989
85 0.00398
96 0.00399
107 0.00598
117 0.005983
127 0.00398
136 0.00398
148 0.003948
154 0.004987
129 0.00602
68 0.002992
42 0.002042
48 0.003993
65 0.002984
83 0.003011
100 0.00602
104 0.007019
87 0.003986
76 0.003996
78 0.004
87 0.007015
98 0.006981
110 0.006981
127 0.002992
139 0.006046
149 0.003988
157 0.003985
160 0.004032
133 0.006021
87 0.00614
56 0.003997
57 0.00296
71 0.002998
90 0.005978
112 0.007014
123 0.004985
113 0.007016
101 0.005002
102 0.004978
112 0.004011
122 0.007015
133 0.007015
150 0.004046
162 0.003953
176 0.004932
193 0.00797
199 0.007028
171 0.004032
123 0.007017
105 0.003988
114 0.004987
134 0.004987
164 0.007964
181 0.007977
185 0.004949
171 0.005019
160 0.004977
155 0.007016
160 0.007019
172 0.004988
185 0.007016
198 0.004986
208 0.004986
212 0.004022
210 0.007976
170 0.007992
136 0.004985
121 0.004958
123 0.004953
139 0.007965
160 0.007982
178 0.004955
178 0.007015
164 0.004994
156 0.004988
155 0.005987
170 0.007983
178 0.007974
182 0.005984
192 0.005026
200 0.005021
205 0.007981
193 0.007978
147 0.004994
92 0.007982
93 0.004995
107 0.005984
124 0.005001
143 0.006989
146 0.006983
132 0.005986
118 0.005987
107 0.005991
109 0.007972
119 0.007977
123 0.004988
132 0.007978
138 0.004961
145 0.004976
143 0.004993
97 0.00698
56 0.007015
38 0.005955
44 0.006006
60 0.005985
85 0.008003
96 0.007969
99 0.005946
80 0.007988
72 0.007972
75 0.005989
81 0.005983
93 0.006969
102 0.007012
110 0.00699
118 0.00698
122 0.006981
113 0.005999
60 0.006983
29 0.005989
26 0.006977
41 0.006014
67 0.006965
79 0.006978
80 0.006981
65 0.007018
54 0.007143
53 0.006974
68 0.006439
72 0.005948
86 0.006981
95 0.005987
111 0.006976
119 0.006974
120 0.006943
94 0.006981
44 0.006981
32 0.006965
37 0.006985
52 0.005991
76 0.006987
89 0.005972
90 0.00698
81 0.006981
67 0.006949
74 0.006017
91 0.005977
103 0.005981
110 0.005987
117 0.006021
125 0.005973
140 0.005991
147 0.005983
154 0.006981
130 0.006016
87 0.006034
52 0.006019
64 0.006018
91 0.005984
111 0.005986
120 0.004986
117 0.006013
106 0.005989
95 0.005984
100 0.005022
108 0.005984
122 0.006006
133 0.006011
149 0.006025
155 0.00595
165 0.005995
170 0.005945
179 0.005978
184 0.006019
165 0.005991
113 0.004987
94 0.004988
99 0.004987
113 0.005984
135 0.004955
162 0.005952
163 0.005029
151 0.005985
145 0.005971
145 0.005868
154 0.005982
164 0.005978
179 0.004993
186 0.004982
192 0.004983
196 0.004982
199 0.004985
211 0.004981
220 0.005029
216 0.004994
162 0.005982
133 0.005948
127 0.005978
139 0.004988
153 0.00494
180 0.004988
191 0.004993
186 0.004957
172 0.004986
163 0.004979
171 0.005023
182 0.005023
195 0.004995
203 0.004983
208 0.005019
214 0.004977
218 0.003946
222 0.004992
221 0.005018
203 0.003994
160 0.005028
116 0.003967
118 0.005048
134 0.005032
160 0.00499
177 0.003992
179 0.005035
166 0.004951
152 0.003991
146 0.003973
150 0.003987
159 0.004013
168 0.003998
180 0.003984
181 0.005027
183 0.004991
189 0.004965
193 0.004977
175 0.004947
124 0.005017
85 0.004996
75 0.004033
89 0.003986
107 0.004007
122 0.003993
131 0.004013
121 0.005026
107 0.004022
101 0.00402
105 0.003998
114 0.003991
122 0.004975
130 0.00396
138 0.004955
144 0.003948
150 0.00399
155 0.003952
147 0.003992
99 0.003992
60 0.00399
45 0.003991
56 0.004032
73 0.003987
91 0.003995
104 0.003983
104 0.003953
92 0.003985
80 0.002992
77 0.003989
88 0.003989
100 0.003991
110 0.003996
119 0.00403
125 0.004261
130 0.002991
137 0.003987
141 0.004025
120 0.003989
73 0.004002
38 0.003998
31 0.003985
56 0.003994
75 0.003038
93 0.002994
105 0.00299
96 0.003991
82 0.003021
75 0.00296
79 0.002995
87 0.002954
99 0.002992
109 0.002992
117 0.003024
129 0.003028
139 0.004032
145 0.002044
151 0.002993
135 0.003023
91 0.002997
58 0.002992
50 0.002987
60 0.002991
81 0.00299
99 0.002991
113 0.00299
109 0.002976
95 0.003019
91 0.003025
95 0.002992
104 0.002962
112 0.002992
123 0.002981
131 0.002994
141 0.002942
152 0.001956
162 0.001963
164 0.001961
103 0.00304
72 0.002997
64 0.002993
70 0.001961
93 0.002992
115 0.002994
130 0.001993
129 0.001994
116 0.001995
107 0.001995
110 0.002003
120 0.001997
135 0.001996
144 0.001997
153 0.001996
160 0.001995
169 0.002029
178 0.001995
171 0.002022
124 0.001978
83 0.002002
75 0.001996
90 0.001987
109 0.001982
137 0.002029
145 0.002026
138 0.002031
123 0.000998
113 0.001997
116 0.002024
123 0.001032
131 0.000998
141 0.000991
152 0.001995
161 0.002025
170 0.001991
181 0.002
164 0.000999
121 0.00098
88 0.001033
84 0.001001
89 0.001022
102 0.000997
121 0.001989
137 0.001005
137 0.002008
124 0.001996
118 0.002014
124 0.001993
131 0.000997
142 0.000997
148 0.002028
154 0.002016
162 0.001973
164 0.001953
170 0.002007
172 0.001994
136 0.002017
81 0.002015
64 0.000998
76 0.002029
92 0.000997
109 0.002047
120 0.00205
116 0.00103
97 0.001995
91 0.00199
95 0.000984
104 0.001995
116 0.001025
130 0.001995
138 0.000998
150 0.001033
158 0.000997
167 0.000999
170 0.000998
141 0.000998
88 0.000996
78 0.001201
86 0.001011
102 0.000997
122 0.00099
151 0.000997
159 0.000992
142 0.001
132 0.000999
131 0.000998
138 0.0
146 0.0
157 0.0
165 0.0
172 0.0
179 0.0
187 0.0
192 0.0
159 0.0
99 0.0
93 0.000999
103 0.0
118 0.000997
137 0.000998
158 0.000994
157 0.0
141 0.0
128 0.0
124 0.0
129 0.0
137 0.0
152 0.0
161 0.0
167 0.0
176 0.0
178 0.0
129 0.0
85 0.0
66 0.0
69 0.0
84 0.000989
108 0.0
127 0.0
126 0.002038
110 0.003035
96 0.0
97 0.0
102 0.0
110 0.001998
118 0.001982
128 0.0
134 0.00098
141 0.001001
147 0.0
144 0.002002
65 0.0
33 0.003032
25 0.003023
43 0.0
61 0.0
79 0.0
91 0.00299
86 0.002992
66 0.0
61 0.0
64 0.0
71 0.00299
89 0.000961
97 0.002025
105 0.002028
115 0.0
122 0.000949
128 0.000996
105 0.001997
57 0.001991
15 0.0
13 0.000997
25 0.000995
44 0.001991
74 0.000955
76 0.003026
65 0.003019
49 0.0
47 0.0
53 0.0
63 0.00299
73 0.003015
86 0.0
97 0.0
104 0.0
113 0.003006
126 0.0
106 0.003032
60 0.003033
15 0.0
12 0.0
26 0.001003
44 0.001972
67 0.003023
86 0.0
78 0.001017
64 0.000967
56 0.001997
61 0.000967
72 0.003017
84 0.00302
98 0.0
107 0.0
116 0.0
125 0.002991
134 0.002992
143 0.0
119 0.0
74 0.0
40 0.001993
38 0.0
56 0.002025
76 0.002027
105 0.0
106 0.00101
91 0.0
76 0.001974
73 0.002997
81 0.0
90 0.0
101 0.000967
112 0.002029
122 0.000968
128 0.002022
137 0.001964
137 0.0
92 0.000998
50 0.0
31 0.001998
35 0.002999
47 0.0
66 0.000993
87 0.0
94 0.0
75 0.0
68 0.0
71 0.002982
81 0.002997
96 0.0
109 0.0
119 0.0
130 0.003024
136 0.002976
148 0.0
155 0.0
148 0.000967
61 0.002983
24 0.0
19 0.002993
31 0.002986
58 0.002036
80 0.001978
94 0.002983
85 0.003991
70 0.003039
58 0.0
62 0.002992
70 0.002994
89 0.003019
104 0.002992
112 0.00399
120 0.002969
135 0.002994
146 0.002991
152 0.002993
140 0.002968
87 0.003001
26 0.002031
10 0.001992
19 0.003023
56 0.001983
80 0.00199
93 0.003989
84 0.00399
65 0.002992
58 0.002992
59 0.002982
67 0.002995
80 0.003996
96 0.003032
106 0.002992
114 0.001969
123 0.002995
134 0.002988
142 0.003986
139 0.003975
79 0.002017
32 0.001978
13 0.002985
19 0.003975
39 0.003988
71 0.002987
95 0.003031
104 0.002022
82 0.00399
66 0.002981
64 0.004992
74 0.005014
92 0.003923
104 0.002011
117 0.002993
126 0.004026
136 0.005007
152 0.002998
164 0.003006
171 0.000998
112 0.002041
66 0.001988
45 0.003979
49 0.003985
70 0.003028
93 0.002981
119 0.003
132 0.002992
118 0.004982
95 0.003989
81 0.002991
88 0.002992
111 0.002026
124 0.002988
135 0.003035
148 0.005018
157 0.004983
172 0.002996
184 0.001996
191 0.002983
162 0.006007
110 0.004986
68 0.002028
66 0.002994
92 0.002026
122 0.002052
148 0.004026
164 0.005018
161 0.005065
140 0.002957
134 0.003978
135 0.003023
145 0.00499
157 0.005982
175 0.003047
192 0.00298
218 0.002988
161 0.002985
240 0.002992
221 0.004983
171 0.005992
135 0.002993
131 0.002992
145 0.002978
171 0.005016
196 0.00595
218 0.002946
225 0.003027
208 0.003995
203 0.00301
204 0.004041
209 0.005019
216 0.005025
229 0.002987
236 0.003046
244 0.003995
254 0.005994
250 0.005971
195 0.004028
161 0.00399
147 0.002983
160 0.003991
181 0.002997
205 0.005984
220 0.004991
215 0.003023
203 0.00203
194 0.00281
191 0.005958
195 0.005984
205 0.001978
215 0.003001
228 0.007017
240 0.003001
184 0.002991
160 0.00697
134 0.007025
114 0.002088
114 0.002992
122 0.002943
134 0.006917
145 0.007012
152 0.002991
146 0.002992
132 0.003983
130 0.003032
131 0.003947
135 0.002991
140 0.00702
144 0.007015
149 0.003002
154 0.003967
155 0.00302
136 0.007056
108 0.006988
85 0.002956
85 0.007016
98 0.003989
111 0.003992
122 0.00396
125 0.006984
116 0.007017
105 0.002981
103 0.003989
104 0.004033
107 0.007021
114 0.007033
124 0.004974
135 0.00798
144 0.005012
147 0.002983
125 0.004973
100 0.006461
84 0.007935
83 0.003991
90 0.00497
105 0.004011
118 0.007018
126 0.006982
124 0.004987
114 0.006952
112 0.003975
114 0.00402
120 0.004984
126 0.006978
136 0.007998
142 0.004988
150 0.004978
151 0.00497
123 0.007974
106 0.007947
97 0.004972
106 0.007976
118 0.004988
133 0.003978
144 0.003954
146 0.007022
139 0.00799
133 0.004994
136 0.004989
145 0.004989
160 0.007978
172 0.007965
183 0.005008
199 0.007979
203 0.005008
166 0.004987
132 0.005
116 0.007965
123 0.007975
143 0.004949
166 0.004975
184 0.005021
191 0.00798
179 0.007989
169 0.006015
169 0.00798
176 0.005954
187 0.005942
197 0.005942
207 0.007011
216 0.006981
224 0.005959
208 0.005025
168 0.004988
133 0.007971
132 0.007968
141 0.004963
172 0.007979
185 0.007975
194 0.004986
182 0.005985
168 0.006
162 0.006997
164 0.006983
169 0.005953
177 0.005942
184 0.00594
193 0.006979
199 0.006941
199 0.006021
162 0.006965
118 0.006979
110 0.006976
115 0.005967
136 0.006984
156 0.005987
176 0.005993
175 0.005986
162 0.005982
152 0.006044
151 0.005983
160 0.005984
168 0.005976
179 0.006014
186 0.005972
190 0.00602
200 0.007002
199 0.006981
169 0.005982
130 0.006041
109 0.005985
110 0.006988
125 0.006974
153 0.007015
162 0.006986
150 0.005991
137 0.005986
129 0.005996
130 0.005947
134 0.005984
143 0.005988
149 0.005971
154 0.005978
161 0.005974
167 0.005937
160 0.006022
119 0.006983
77 0.006013
67 0.005979
73 0.004998
90 0.005022
105 0.005979
119 0.005989
114 0.005982
93 0.006015
82 0.005984
76 0.005988
86 0.005978
93 0.005988
102 0.005972
109 0.005997
114 0.005953
119 0.005985
123 0.006021
96 0.006065
52 0.005972
25 0.004987
21 0.004986
32 0.004985
59 0.004985
72 0.005987
69 0.005995
53 0.005981
43 0.00599
42 0.00595
45 0.006048
53 0.00598
61 0.005987
66 0.005993
71 0.005967
76 0.004983
85 0.004995
89 0.005022
88 0.005021
45 0.004988
5 0.004987
0 0.004959
0 0.004963
3 0.004985
24 0.004931
37 0.004991
37 0.005019
23 0.005
8 0.004987
12 0.005018
17 0.004998
28 0.004983
36 0.004977
41 0.005065
47 0.004987
52 0.00496
60 0.004997
64 0.00502
68 0.004967
75 0.004985
51 0.004996
6 0.003998
0 0.005018
0 0.004993
0 0.004984
8 0.003985
24 0.004983
31 0.004986
14 0.003988
3 0.003983
0 0.004986
7 0.00399
20 0.003987
27 0.003957
36 0.003973
44 0.004002
49 0.003998
55 0.003991
57 0.004069
65 0.003974
71 0.003992
80 0.003987
85 0.00399
61 0.005
0 0.003984
56 0.004039
60 0.004962
71 0.003989
81 0.004023
87 0.004029
86 0.003989
79 0.004002
74 0.004027
76 0.003978
81 0.003994
86 0.004023
93 0.003994
98 0.00399
101 0.003989
104 0.002966
106 0.002993
108 0.002972
110 0.003964
