91 0.003989
98 0.003955
104 0.003959
110 0.00399
120 0.003989
129 0.003951
137 0.003959
147 0.003935
152 0.003989
104 0.003987
65 0.00398
44 0.004032
49 0.003991
58 0.003959
69 0.003938
80 0.00399
96 0.00399
103 0.004031
108 0.003992
115 0.003026
121 0.002992
131 0.002992
140 0.002994
153 0.003988
162 0.003041
170 0.004002
165 0.002992
117 0.002993
66 0.00399
53 0.003991
55 0.00399
63 0.002992
74 0.002993
89 0.002993
100 0.00295
109 0.002992
114 0.003048
119 0.002994
126 0.002992
134 0.002992
142 0.002005
153 0.003989
161 0.003018
166 0.003027
139 0.003042
97 0.001995
63 0.002992
61 0.001996
73 0.002992
85 0.002991
99 0.002992
110 0.002993
117 0.002993
122 0.002992
126 0.002979
132 0.001989
138 0.001995
146 0.00197
156 0.001995
168 0.001995
172 0.001995
133 0.001994
90 0.001996
64 0.001997
57 0.001961
65 0.002952
75 0.00296
87 0.001996
100 0.001965
111 0.002011
117 0.001924
121 0.001962
127 0.001959
133 0.001997
140 0.00202
148 0.001959
156 0.000998
134 0.001993
90 0.000997
62 0.000974
51 0.000964
56 0.001957
68 0.001952
85 0.001996
101 0.000953
109 0.001969
113 0.001996
117 0.001996
123 0.000998
132 0.001968
140 0.000963
149 0.000999
157 0.000966
156 0.001999
102 0.000969
57 0.001996
51 0.000997
57 0.001992
68 0.001947
79 0.001994
91 0.001961
104 0.000999
111 0.00096
116 0.000962
122 0.000959
129 0.000966
137 0.000998
151 0.000952
160 0.000967
171 0.00097
154 0.000997
105 0.000997
66 0.000939
51 0.0
55 0.0
65 0.0
76 0.000969
88 0.008961
99 0.000998
111 0.0
115 0.001006
124 0.000996
132 0.000998
140 0.00099
148 0.000982
157 0.000998
168 0.0
177 0.0
184 0.001
165 0.000998
113 0.000998
60 0.000998
58 0.0
69 0.0
80 0.0
92 0.0
104 0.0
113 0.0
121 0.0
126 0.0
131 0.0
138 0.0
145 0.0
157 0.0
165 0.0
176 0.0
182 0.000998
161 0.0
114 0.0
78 0.0
63 0.0
69 0.0
79 0.0
91 0.0
105 0.0
121 0.0
125 0.0
128 0.000997
133 0.001012
141 0.0
148 0.0
155 0.0
163 0.000998
170 0.000999
155 0.0
109 0.0
81 0.0
54 0.0
58 0.001007
71 0.000999
84 0.000987
96 0.000967
110 0.0
116 0.0
120 0.0
124 0.001015
129 0.001026
138 0.0
147 0.0
161 0.0
163 0.000997
124 0.001
82 0.002039
57 0.002042
54 0.000988
59 0.001033
74 0.000988
87 0.000929
99 0.00096
109 0.001044
115 0.001049
124 0.0
128 0.000998
137 0.000999
145 0.000999
152 0.001995
163 0.000997
171 0.000999
152 0.000999
103 0.002042
64 0.002045
49 0.001071
55 0.001048
71 0.000998
80 0.002022
92 0.001997
106 0.001995
113 0.001995
118 0.002042
125 0.00095
132 0.000999
140 0.001995
147 0.001995
157 0.000993
165 0.001069
178 0.001019
168 0.000997
120 0.001002
76 0.001994
55 0.001995
55 0.002043
63 0.001982
73 0.002043
88 0.002021
100 0.001995
109 0.001995
116 0.001031
125 0.001002
132 0.001054
139 0.001999
146 0.002992
153 0.002992
163 0.002001
170 0.002013
177 0.002048
166 0.003072
119 0.003026
80 0.001996
62 0.001995
68 0.002995
79 0.003054
92 0.003057
104 0.002993
118 0.003023
124 0.002992
129 0.002026
134 0.001995
139 0.002029
146 0.00399
153 0.00399
163 0.002993
172 0.003965
177 0.003023
140 0.003037
94 0.003037
65 0.002993
56 0.002994
61 0.003048
74 0.002
81 0.003989
98 0.002992
110 0.003038
118 0.003047
125 0.003989
130 0.003018
137 0.00301
144 0.002992
152 0.003989
159 0.00399
166 0.0
126 0.0
59 0.004074
76 0.004025
93 0.002992
105 0.003054
113 0.002983
119 0.004039
123 0.004056
130 0.003025
137 0.003027
145 0.00402
153 0.005013
161 0.005046
171 0.00399
152 0.004988
104 0.004012
67 0.003985
55 0.004041
64 0.004043
75 0.003955
91 0.002993
103 0.003038
114 0.00399
121 0.005032
124 0.005037
130 0.003991
138 0.005043
149 0.004047
156 0.003993
163 0.003991
171 0.005038
178 0.004987
187 0.004029
177 0.005019
144 0.005024
80 0.003986
59 0.004987
58 0.005041
73 0.005021
83 0.005018
98 0.004035
109 0.004033
118 0.003989
124 0.005019
129 0.005018
137 0.004038
144 0.003998
152 0.00506
159 0.006007
167 0.006015
179 0.005023
186 0.004987
187 0.003975
161 0.00502
111 0.005018
69 0.004988
64 0.006042
77 0.005036
88 0.005017
100 0.00494
112 0.005968
122 0.005984
131 0.006034
135 0.006007
142 0.005034
147 0.004987
154 0.004993
163 0.005983
170 0.005968
179 0.004974
184 0.005984
184 0.005017
143 0.005982
97 0.005979
64 0.005984
68 0.005988
81 0.004986
93 0.005006
106 0.004971
117 0.007007
125 0.006974
131 0.005989
133 0.005999
137 0.005984
145 0.005951
152 0.005984
163 0.005952
169 0.006015
171 0.005043
149 0.005981
87 0.004983
60 0.005985
55 0.006981
65 0.006033
76 0.005991
88 0.006002
100 0.006998
111 0.007013
121 0.006985
125 0.006968
130 0.005984
136 0.006015
144 0.00696
154 0.00693
162 0.006957
169 0.006949
151 0.00596
103 0.006
66 0.005977
53 0.006976
63 0.005999
74 0.006981
86 0.006987
102 0.005988
112 0.006991
118 0.006982
123 0.007951
126 0.007944
132 0.00698
138 0.006982
145 0.007032
155 0.007029
165 0.007005
174 0.006999
172 0.006985
113 0.00599
72 0.005946
57 0.006975
61 0.007953
71 0.007947
86 0.006986
97 0.007005
109 0.006956
117 0.007951
123 0.006971
130 0.006988
136 0.006995
142 0.007949
153 0.006921
161 0.00692
168 0.007943
175 0.007945
184 0.006985
191 0.006933
173 0.007011
121 0.00795
63 0.006989
61 0.007979
70 0.007948
88 0.006981
92 0.007977
104 0.007951
120 0.007927
128 0.007941
133 0.007943
139 0.006927
145 0.007017
152 0.007942
167 0.007014
172 0.007941
181 0.006981
189 0.007052
195 0.006981
171 0.0
111 0.007946
128 0.007026
133 0.00698
137 0.007087
141 0.006979
146 0.006971
153 0.006986
160 0.007104
167 0.006984
175 0.007014
182 0.006982
190 0.006982
150 0.00698
100 0.007018
70 0.007016
64 0.007014
75 0.007051
86 0.006028
99 0.006031
113 0.006026
124 0.005984
132 0.007014
135 0.006981
138 0.007022
145 0.007013
152 0.007014
158 0.007027
165 0.007028
174 0.007015
172 0.005984
132 0.006015
86 0.005982
59 0.006016
57 0.005983
67 0.005984
77 0.005984
97 0.006005
109 0.005998
118 0.007033
123 0.007012
127 0.006999
132 0.005978
139 0.006018
146 0.006015
154 0.005956
164 0.005992
166 0.006031
131 0.006021
62 0.005977
51 0.005997
56 0.006018
67 0.005984
81 0.004986
94 0.00502
106 0.005026
115 0.005001
119 0.005017
124 0.006052
129 0.006027
135 0.005985
146 0.005949
153 0.006051
161 0.006069
168 0.006036
149 0.00504
100 0.005034
61 0.005032
48 0.004987
55 0.00503
70 0.00504
80 0.004989
93 0.00498
111 0.004988
117 0.005031
120 0.004987
125 0.004987
131 0.005015
140 0.00501
148 0.005029
155 0.004972
163 0.004931
169 0.004952
178 0.004998
173 0.00503
93 0.004986
61 0.005027
55 0.004027
63 0.003991
75 0.004037
89 0.003991
103 0.004024
114 0.004025
123 0.005025
128 0.003997
134 0.005017
140 0.004033
151 0.003955
158 0.004024
165 0.00399
172 0.004023
179 0.004022
187 0.003966
191 0.00399
158 0.00402
107 0.00399
72 0.003952
67 0.003991
78 0.003989
98 0.004052
111 0.004
123 0.004024
131 0.004987
134 0.00403
138 0.004023
143 0.003989
148 0.003963
155 0.00399
161 0.00399
170 0.00399
175 0.003978
183 0.004033
161 0.003954
112 0.004042
74 0.002993
61 0.002995
70 0.002955
82 0.002998
93 0.002994
106 0.004002
118 0.004037
128 0.004032
131 0.003981
138 0.00399
144 0.003997
151 0.002994
158 0.003033
165 0.003002
175 0.002994
179 0.002997
153 0.002992
105 0.003007
69 0.001996
60 0.002993
70 0.00198
84 0.002992
100 0.003025
112 0.002963
121 0.002993
127 0.002992
131 0.002992
132 0.0
137 0.0
176 0.001994
123 0.001996
78 0.001993
58 0.001995
60 0.002006
71 0.002926
84 0.002036
95 0.002993
108 0.003019
117 0.002992
122 0.003026
127 0.002996
132 0.001995
141 0.002029
148 0.001959
156 0.001966
163 0.001994
170 0.001995
180 0.001995
183 0.00203
146 0.002001
94 0.002002
64 0.001009
62 0.002031
76 0.001995
88 0.001994
99 0.001995
112 0.002031
120 0.001995
126 0.000992
133 0.001948
137 0.001997
144 0.002029
150 0.001995
157 0.001995
166 0.001996
176 0.001996
184 0.001995
190 0.001996
175 0.000998
124 0.000901
78 0.001031
61 0.00101
69 0.000997
80 0.001997
91 0.001024
103 0.001995
118 0.000997
127 0.002005
130 0.001
136 0.000991
142 0.000998
149 0.000998
156 0.000998
162 0.001013
170 0.00106
176 0.000997
183 0.000993
181 0.001989
140 0.000997
71 0.000997
62 0.0
73 0.0
84 0.000997
95 0.0
108 0.001
120 0.001025
129 0.001022
132 0.000997
135 0.001005
139 0.000998
145 0.000998
156 0.000997
163 0.0
172 0.0
177 0.0
154 0.0
107 0.0
71 0.0
62 0.0
72 0.0
83 0.0
93 0.0
106 0.0
124 0.000997
130 0.0
134 0.0
139 0.0
144 0.0
149 0.0
158 0.0
165 0.0
172 0.00099
177 0.0
154 0.000998
92 0.0
63 0.000984
67 0.00099
82 0.000998
93 0.000998
109 0.0
120 0.000966
125 0.0
132 0.001034
135 0.001006
141 0.0
147 0.0
154 0.0
165 0.0
172 0.0
179 0.000993
185 0.000998
160 0.0
109 0.0
73 0.00094
65 0.000998
72 0.000998
88 0.0
95 0.0
109 0.0
127 0.0
132 0.0
136 0.0
139 0.000998
144 0.000999
154 0.0
160 0.0
167 0.0
174 0.002034
180 0.000997
189 0.00101
195 0.001026
141 0.000997
92 0.000998
67 0.0
67 0.000997
78 0.001011
93 0.0
103 0.0
115 0.001028
124 0.000998
131 0.00104
134 0.001006
138 0.000998
146 0.000999
153 0.000997
160 0.000964
168 0.002045
174 0.001995
179 0.001995
185 0.0
181 0.002
77 0.001995
92 0.001995
103 0.002024
119 0.000995
127 0.001994
131 0.001995
132 0.001012
136 0.001031
141 0.001047
147 0.001995
154 0.001995
164 0.000998
170 0.000998
169 0.002047
127 0.002002
82 0.000983
60 0.002992
61 0.002992
76 0.00201
87 0.002
98 0.002043
110 0.002027
120 0.002053
125 0.002027
129 0.000999
135 0.000966
141 0.002005
148 0.00205
156 0.003041
163 0.002996
170 0.002002
148 0.002027
101 0.002045
66 0.003071
57 0.003027
65 0.004005
80 0.002995
94 0.003052
107 0.003041
120 0.002015
123 0.003045
126 0.003031
130 0.003018
136 0.002992
142 0.002
150 0.00203
157 0.002992
164 0.002992
173 0.00199
143 0.004052
80 0.003026
57 0.003024
59 0.003039
69 0.003989
79 0.003039
92 0.002013
104 0.00199
111 0.003029
120 0.003047
124 0.002991
130 0.001978
137 0.004013
146 0.003022
153 0.002994
159 0.003054
167 0.003989
174 0.004037
181 0.003023
151 0.003026
99 0.003003
64 0.003989
58 0.00399
71 0.002042
83 0.004039
92 0.004011
107 0.00296
117 0.002992
122 0.004021
126 0.00398
131 0.003005
137 0.003028
144 0.003025
151 0.004023
159 0.005011
168 0.004043
176 0.004984
183 0.004037
169 0.004055
120 0.003988
77 0.004037
64 0.004061
69 0.00402
84 0.002993
92 0.003026
102 0.005049
114 0.005054
124 0.00404
129 0.005035
131 0.005036
138 0.004001
145 0.004033
151 0.004023
157 0.00504
164 0.005015
172 0.003053
177 0.003989
176 0.005033
137 0.004987
87 0.004954
60 0.004974
69 0.004978
83 0.004007
90 0.004008
101 0.004012
113 0.004974
122 0.00502
127 0.004021
131 0.00404
136 0.003992
142 0.006045
149 0.005984
160 0.005991
167 0.005984
176 0.00399
182 0.004986
184 0.003991
150 0.005032
98 0.004982
63 0.004018
65 0.004949
75 0.004976
84 0.005985
92 0.005984
112 0.005967
122 0.00599
129 0.004947
132 0.004973
137 0.00502
143 0.006001
150 0.005987
160 0.005027
168 0.006035
174 0.004988
180 0.006032
187 0.006021
198 0.005986
194 0.005863
127 0.005003
82 0.004006
69 0.005984
68 0.000947
75 0.0
103 0.006038
114 0.006011
124 0.007018
129 0.006982
134 0.006996
138 0.006948
145 0.005003
152 0.004986
159 0.004971
165 0.005994
172 0.005981
180 0.005988
187 0.005985
186 0.005965
147 0.005989
98 0.006981
68 0.005966
75 0.006979
86 0.006952
98 0.005976
109 0.005948
119 0.005956
126 0.007006
130 0.007945
132 0.007015
137 0.006017
144 0.005961
150 0.006982
161 0.006036
167 0.006977
173 0.006981
181 0.005972
180 0.006033
141 0.005976
91 0.006976
61 0.007979
66 0.007001
77 0.00703
86 0.007021
94 0.007979
115 0.006027
125 0.007942
131 0.006985
135 0.005978
139 0.006017
145 0.005988
152 0.00698
157 0.007979
167 0.006978
174 0.007011
181 0.007011
188 0.00798
161 0.005983
93 0.007982
72 0.007943
67 0.00693
76 0.006982
88 0.006988
96 0.007012
103 0.007979
120 0.007036
129 0.007011
133 0.007026
137 0.007011
144 0.006983
150 0.007944
157 0.007946
167 0.006974
173 0.006984
182 0.006948
188 0.006929
195 0.00698
196 0.006979
155 0.007016
102 0.007026
71 0.006978
74 0.007042
85 0.006989
92 0.00794
104 0.00698
119 0.007016
129 0.006983
134 0.006978
135 0.007032
139 0.007029
145 0.006996
150 0.006916
156 0.007013
167 0.006992
174 0.007017
180 0.007016
186 0.006996
157 0.006972
107 0.006035
72 0.006018
63 0.007033
70 0.007017
84 0.007035
93 0.007027
104 0.007012
121 0.007025
127 0.006972
131 0.007027
134 0.007027
140 0.006013
145 0.00601
151 0.005987
156 0.006035
163 0.006021
172 0.006018
176 0.006026
153 0.006018
76 0.007008
60 0.005983
64 0.007016
75 0.007016
87 0.005984
97 0.00602
108 0.006019
119 0.00604
126 0.00602
131 0.005978
135 0.005985
141 0.006034
152 0.00603
159 0.006019
166 0.004979
172 0.004987
181 0.006015
182 0.006017
148 0.005983
97 0.005983
67 0.00602
66 0.006021
77 0.006017
87 0.005962
102 0.005991
114 0.00502
123 0.006033
128 0.004988
132 0.005017
136 0.005034
142 0.006017
149 0.005986
155 0.006009
164 0.005979
172 0.006021
178 0.005986
190 0.006017
192 0.010973
187 0.000982
159 0.000955
68 0.004987
79 0.004987
89 0.004988
97 0.00399
107 0.004987
121 0.004987
128 0.003991
132 0.00502
135 0.005018
139 0.004994
146 0.004987
151 0.005017
160 0.00502
167 0.004968
173 0.004966
179 0.005023
180 0.005037
128 0.004943
84 0.004952
69 0.004964
80 0.004976
90 0.004037
100 0.004027
111 0.003974
125 0.003962
130 0.005024
131 0.005013
133 0.004987
136 0.004981
143 0.005025
149 0.004988
161 0.005037
168 0.005026
174 0.003959
166 0.003978
124 0.00402
71 0.004036
62 0.003997
70 0.003992
81 0.003992
90 0.005036
103 0.003992
115 0.004996
126 0.003991
128 0.003171
131 0.003991
134 0.00399
140 0.003999
149 0.004012
157 0.003991
164 0.003991
171 0.00399
176 0.004007
140 0.003956
91 0.003958
60 0.003991
68 0.002993
78 0.002992
86 0.003045
96 0.004037
112 0.003989
122 0.004045
128 0.003045
130 0.002984
133 0.004033
141 0.003996
148 0.003992
158 0.004024
165 0.003029
173 0.002963
179 0.003044
186 0.002992
189 0.002994
134 0.002992
85 0.002993
65 0.002987
68 0.003018
78 0.003029
88 0.002995
101 0.002993
117 0.003021
124 0.001994
129 0.002995
131 0.002992
134 0.00301
141 0.003041
147 0.002994
153 0.002994
159 0.002993
166 0.003005
174 0.002992
182 0.002029
154 0.003021
105 0.002992
74 0.002055
68 0.001997
77 0.002051
91 0.002029
101 0.002035
113 0.001996
122 0.001988
128 0.002027
130 0.002969
133 0.001996
140 0.002996
145 0.00199
151 0.001995
157 0.001995
163 0.002012
172 0.002017
176 0.001995
153 0.002038
104 0.001987
70 0.00203
65 0.003037
78 0.002038
89 0.001995
98 0.000998
109 0.001
119 0.000997
125 0.000998
128 0.00204
132 0.002034
138 0.002058
143 0.002064
150 0.001995
159 0.001996
168 0.001995
177 0.001995
178 0.000998
141 0.000998
92 0.000997
66 0.000997
68 0.000998
79 0.001996
87 0.001996
95 0.001996
106 0.002076
121 0.00104
130 0.001995
133 0.000991
137 0.000999
142 0.000997
150 0.000972
156 0.000964
163 0.000997
172 0.000998
179 0.000998
186 0.001926
192 0.001996
184 0.001998
100 0.000997
70 0.000999
70 0.000998
81 0.000997
90 0.000998
97 0.000998
107 0.000997
123 0.000997
131 0.000998
135 0.0
138 0.000997
142 0.0
151 0.0
158 0.0
167 0.0
172 0.001
180 0.001029
186 0.0
192 0.0
200 0.000997
200 0.000997
158 0.0
105 0.0
76 0.0
82 0.0
93 0.0
105 0.0
115 0.0
126 0.0
134 0.0
138 0.0
139 0.0
142 0.0
147 0.0
152 0.000998
160 0.000924
168 0.000998
174 0.000999
183 0.001021
184 0.0
134 0.0
88 0.0
68 0.0
71 0.001081
83 0.001035
95 0.0
104 0.0
116 0.0
129 0.000997
135 0.000972
136 0.000997
140 0.001023
145 0.000998
152 0.0
157 0.000998
166 0.000997
173 0.001001
180 0.000998
176 0.0
148 0.000998
67 0.0
63 0.0
73 0.0
84 0.00103
93 0.000997
107 0.0
119 0.0
127 0.0
131 0.001057
132 0.001033
137 0.0
142 0.0
153 0.0
161 0.0
168 0.0
176 0.001044
182 0.000998
156 0.000963
105 0.000999
69 0.000997
62 0.001995
71 0.001997
86 0.0
94 0.000985
113 0.001034
124 0.001004
131 0.0
133 0.001964
136 0.002008
143 0.001042
149 0.0
155 0.001031
162 0.001995
170 0.001995
179 0.001018
186 0.001048
186 0.000954
139 0.00101
89 0.00105
67 0.001995
69 0.00199
83 0.001023
92 0.001053
100 0.001996
112 0.002992
123 0.002992
131 0.002054
132 0.000997
138 0.001012
145 0.001032
152 0.000974
158 0.002031
164 0.00203
172 0.001964
178 0.001995
183 0.001994
188 0.003043
164 0.002992
112 0.002992
69 0.001996
71 0.002991
87 0.000996
97 0.000986
107 0.002029
118 0.002992
126 0.002905
130 0.00196
131 0.001996
134 0.001945
139 0.002992
143 0.002992
152 0.002011
161 0.003041
170 0.00199
177 0.002046
172 0.002004
130 0.003026
84 0.003037
64 0.003028
70 0.003043
82 0.003039
91 0.004037
100 0.003989
116 0.003054
127 0.00304
130 0.002041
133 0.002009
137 0.001997
142 0.002992
149 0.003989
159 0.003053
165 0.003023
172 0.003041
180 0.00399
181 0.003989
124 0.00304
70 0.004044
64 0.001998
75 0.00399
85 0.00399
92 0.004987
102 0.004004
118 0.003015
126 0.003021
130 0.003021
132 0.003989
136 0.00399
140 0.0
142 0.001994
147 0.000966
170 0.003031
178 0.003024
184 0.004987
191 0.005012
159 0.003043
104 0.003016
70 0.003008
64 0.00399
73 0.003989
87 0.002999
97 0.004037
113 0.002978
123 0.002992
129 0.001984
131 0.005019
134 0.005052
140 0.003989
146 0.003005
153 0.004038
159 0.004987
166 0.004987
172 0.005035
184 0.00502
189 0.004976
156 0.004046
104 0.004043
70 0.003043
66 0.004999
75 0.004987
91 0.004007
101 0.003998
112 0.003989
123 0.004987
130 0.004987
133 0.005
135 0.005021
140 0.004023
146 0.003998
153 0.005045
159 0.00603
166 0.005984
176 0.004012
183 0.004044
183 0.004038
145 0.004986
94 0.00502
65 0.005979
73 0.004977
88 0.005056
97 0.005005
107 0.005025
120 0.005984
130 0.006025
135 0.005021
137 0.005013
140 0.005013
145 0.00604
152 0.006005
164 0.00503
171 0.004997
181 0.00498
187 0.005003
193 0.00501
198 0.005987
172 0.006016
97 0.004993
66 0.005004
63 0.005004
75 0.006031
87 0.005984
102 0.00596
114 0.007063
128 0.004994
134 0.006025
136 0.006038
140 0.007012
144 0.007008
151 0.006017
158 0.006028
165 0.005011
171 0.007037
178 0.006015
189 0.006031
196 0.007012
199 0.005991
156 0.004992
101 0.006034
71 0.007007
67 0.006987
79 0.006982
96 0.00603
106 0.006009
118 0.006081
129 0.006978
139 0.005004
140 0.006985
142 0.007022
147 0.006007
154 0.005992
160 0.006
165 0.007013
171 0.007033
178 0.005998
185 0.005985
190 0.006014
167 0.006982
83 0.005977
61 0.007011
63 0.007936
79 0.007033
90 0.007031
99 0.006949
115 0.007955
122 0.007956
130 0.005989
131 0.006034
134 0.006013
138 0.006981
148 0.005999
154 0.006935
161 0.00693
172 0.007021
179 0.006982
172 0.006998
107 0.007978
78 0.007979
57 0.006977
65 0.007028
78 0.007026
89 0.007993
108 0.005952
120 0.007977
131 0.006905
133 0.007023
135 0.006995
139 0.006968
144 0.007927
150 0.007981
159 0.007056
167 0.007054
175 0.007016
185 0.006977
164 0.006996
93 0.006977
61 0.007015
58 0.007979
72 0.006963
83 0.006985
92 0.007015
99 0.004014
116 0.00703
125 0.006979
129 0.006981
130 0.006977
135 0.00697
143 0.00701
149 0.007004
156 0.007014
166 0.007012
174 0.007012
179 0.007015
155 0.007014
105 0.006993
62 0.006981
61 0.006969
73 0.006008
93 0.006023
104 0.007024
115 0.006984
125 0.007015
129 0.007019
130 0.007013
132 0.006965
136 0.007187
142 0.007012
150 0.007026
156 0.005998
163 0.005989
173 0.006039
150 0.006059
99 0.006031
63 0.006016
56 0.006016
67 0.005985
79 0.005988
87 0.005984
98 0.006015
113 0.005985
120 0.006009
123 0.00601
125 0.006033
129 0.006017
136 0.006016
143 0.006023
152 0.006036
160 0.00602
166 0.006017
138 0.004975
89 0.00603
56 0.006022
59 0.006013
71 0.00495
87 0.005018
98 0.005987
111 0.006051
120 0.006017
125 0.005985
127 0.005945
130 0.006029
134 0.005969
140 0.005985
150 0.005047
157 0.004997
166 0.004988
174 0.005021
139 0.004987
88 0.005986
61 0.005033
61 0.004988
76 0.004989
87 0.004975
96 0.006055
109 0.006042
121 0.004988
130 0.005021
132 0.005023
137 0.005018
143 0.005019
149 0.004987
157 0.004985
165 0.005021
174 0.006014
181 0.005003
188 0.004955
183 0.003976
133 0.004955
73 0.004992
65 0.004968
83 0.004983
93 0.005021
101 0.004989
113 0.004989
125 0.004926
133 0.005022
136 0.005017
139 0.004989
142 0.003992
147 0.003998
156 0.003993
162 0.003991
172 0.004034
179 0.004021
185 0.004017
192 0.004989
194 0.003972
135 0.004858
85 0.004987
67 0.004029
71 0.003991
85 0.004996
101 0.004989
111 0.003947
128 0.003992
133 0.002941
135 0.003991
135 0.003991
137 0.003992
144 0.004015
150 0.003992
156 0.003992
163 0.003992
169 0.00399
178 0.003027
174 0.003992
97 0.003951
66 0.003017
63 0.002993
74 0.003024
87 0.003035
99 0.003991
109 0.00399
120 0.003024
129 0.003956
132 0.003992
135 0.002994
138 0.002991
148 0.004022
155 0.002941
163 0.002995
171 0.003018
179 0.002994
185 0.003042
138 0.003029
86 0.003042
62 0.002995
64 0.003026
76 0.001989
92 0.001996
105 0.001995
122 0.00305
130 0.002994
134 0.002993
137 0.002993
140 0.002994
146 0.003004
153 0.003046
160 0.003035
167 0.002999
175 0.002993
186 0.002026
189 0.001995
128 0.00202
80 0.002032
62 0.001955
67 0.002061
80 0.002994
95 0.003048
105 0.002036
112 0.005018
127 0.002065
132 0.002992
136 0.002976
139 0.002058
145 0.001965
151 0.002003
158 0.002021
165 0.002029
172 0.002024
182 0.001995
187 0.001995
160 0.001996
106 0.002031
71 0.002062
67 0.002021
84 0.002032
100 0.002036
111 0.001996
123 0.001996
130 0.002038
133 0.000967
134 0.002027
136 0.002001
140 0.001039
146 0.000995
153 0.00101
162 0.001013
172 0.000998
177 0.000971
146 0.001995
95 0.00094
64 0.001958
61 0.001957
77 0.000973
89 0.001975
100 0.00207
111 0.002009
122 0.001948
129 0.001978
132 0.000985
134 0.000983
140 0.000998
145 0.000997
152 0.000999
160 0.001998
169 0.000998
175 0.001997
143 0.001967
92 0.001963
63 0.001996
61 0.000999
81 0.000998
93 0.001006
107 0.000983
120 0.001002
129 0.000997
134 0.000997
135 0.00101
139 0.001006
144 0.000997
151 0.0
158 0.0
166 0.0
179 0.0
186 0.0
161 0.000993
106 0.000998
68 0.0
63 0.000997
74 0.000998
91 0.000998
100 0.000997
111 0.0
123 0.0
134 0.0
140 0.0
143 0.0
147 0.0
152 0.0
159 0.0
166 0.0
173 0.0
184 0.0
186 0.0
146 0.000997
95 0.0
66 0.0
77 0.0
90 0.0
106 0.0
119 0.0
133 0.0
139 0.000963
140 0.0
142 0.000972
144 0.001995
150 0.0
154 0.000997
161 0.001002
175 0.001007
182 0.000996
182 0.002035
140 0.002028
78 0.0
64 0.0
70 0.0
83 0.0
95 0.001062
104 0.000934
120 0.0
130 0.0
135 0.0
136 0.0
138 0.0
143 0.000979
149 0.000998
160 0.0
165 0.000998
174 0.0
168 0.000997
122 0.000999
78 0.000998
61 0.000979
80 0.0
93 0.0
103 0.0
115 0.001047
125 0.001047
134 0.0
135 0.0
137 0.0
141 0.002031
146 0.00099
155 0.0
163 0.001994
176 0.002025
182 0.0
155 0.002042
102 0.001997
68 0.001983
66 0.000974
79 0.001032
92 0.000992
102 0.001032
114 0.00203
129 0.00098
134 0.001023
137 0.000963
140 0.001027
143 0.001995
150 0.002063
157 0.002004
167 0.002027
175 0.001003
183 0.001032
190 0.001995
168 0.002992
97 0.000936
68 0.000987
76 0.000964
89 0.001966
100 0.001011
112 0.00203
124 0.00201
136 0.00205
141 0.002048
142 0.000997
144 0.001995
148 0.003054
156 0.002045
163 0.001074
174 0.002035
181 0.001043
188 0.001007
195 0.000988
198 0.002992
157 0.002993
87 0.000995
66 0.00202
70 0.001948
83 0.003049
97 0.002992
111 0.001952
126 0.002992
136 0.001984
138 0.002049
139 0.001091
141 0.002992
146 0.003003
153 0.00101
159 0.002021
166 0.002019
173 0.004021
180 0.00399
185 0.001948
132 0.002979
75 0.00201
63 0.001995
71 0.001978
85 0.004064
97 0.003995
112 0.002959
124 0.002994
133 0.003063
136 0.004034
137 0.00399
140 0.002046
146 0.00399
155 0.001986
163 0.001968
170 0.002942
178 0.003024
180 0.003008
123 0.002996
79 0.003012
62 0.00298
66 0.003989
79 0.00399
96 0.002991
112 0.003992
128 0.003055
134 0.003039
137 0.002066
138 0.003991
140 0.004001
148 0.002022
155 0.001996
163 0.00297
172 0.004945
180 0.00399
161 0.003027
93 0.004009
62 0.003016
68 0.00203
82 0.002041
94 0.003989
105 0.00399
122 0.002998
132 0.001992
137 0.004033
138 0.005035
140 0.004987
145 0.003969
153 0.005004
162 0.002992
170 0.002989
178 0.002997
185 0.002993
175 0.003995
123 0.004038
68 0.002992
60 0.004004
70 0.002984
83 0.004986
94 0.005022
113 0.004986
123 0.004987
130 0.004005
131 0.003999
133 0.004021
138 0.004987
143 0.004987
151 0.002972
156 0.004985
166 0.003996
174 0.004973
181 0.004984
139 0.004987
90 0.005024
62 0.003958
68 0.004018
83 0.004064
96 0.005985
108 0.005029
125 0.004014
134 0.005003
136 0.004017
136 0.006037
137 0.00601
143 0.005985
150 0.005984
159 0.004021
167 0.003986
174 0.004
177 0.00602
145 0.004987
83 0.005002
64 0.004996
67 0.004958
79 0.005984
92 0.005986
112 0.005984
125 0.006012
134 0.003957
135 0.004929
134 0.004946
134 0.006996
137 0.006985
146 0.004988
153 0.004958
159 0.003989
162 0.006031
134 0.006
65 0.005984
53 0.005985
64 0.00502
77 0.004978
89 0.005035
103 0.006991
116 0.007012
131 0.00502
136 0.00497
138 0.005
140 0.007015
145 0.006988
157 0.006017
163 0.005984
167 0.005984
132 0.005983
88 0.004989
66 0.005993
68 0.006982
82 0.006975
100 0.004974
114 0.004986
129 0.004951
137 0.006981
137 0.004986
137 0.006981
140 0.007015
148 0.006
155 0.006006
163 0.005978
170 0.006974
178 0.006982
187 0.005999
191 0.005981
157 0.005978
104 0.006981
72 0.005
81 0.00703
96 0.007979
114 0.006016
127 0.005998
139 0.006008
145 0.007978
147 0.007997
149 0.006022
153 0.006972
160 0.005985
166 0.006986
177 0.006
185 0.007979
192 0.007979
201 0.00698
208 0.006958
212 0.006981
165 0.007971
136 0.007984
110 0.007045
115 0.006017
127 0.005983
139 0.007976
155 0.005983
167 0.007987
172 0.007977
174 0.007
177 0.006972
181 0.007005
188 0.007973
192 0.007979
200 0.007006
206 0.00599
213 0.005017
221 0.00702
228 0.006948
198 0.007017
170 0.007028
157 0.006961
159 0.006031
168 0.006984
175 0.007978
182 0.007974
189 0.007001
195 0.006986
199 0.006974
201 0.006969
206 0.006982
211 0.006987
216 0.007015
222 0.007027
229 0.006938
234 0.006942
239 0.006967
242 0.007014
226 0.007009
195 0.006976
186 0.006032
190 0.007011
202 0.006997
206 0.007013
211 0.007017
215 0.007032
218 0.006982
219 0.006925
219 0.006975
220 0.007027
223 0.007012
227 0.00601
147 0.005973
234 0.006011
239 0.006025
242 0.005986
229 0.006016
207 0.005977
194 0.006983
198 0.005986
205 0.005983
211 0.006976
215 0.007048
219 0.006017
221 0.006049
221 0.006021
220 0.006002
221 0.00597
222 0.006015
224 0.006009
227 0.006012
147 0.005962
232 0.006986
234 0.005986
223 0.006026
196 0.006032
191 0.005021
196 0.005021
205 0.005984
208 0.004989
211 0.006032
213 0.006039
214 0.006026
214 0.006049
214 0.005986
214 0.005985
216 0.005985
219 0.006024
221 0.005019
223 0.006057
226 0.005952
226 0.004986
208 0.004987
188 0.004987
183 0.004987
190 0.004988
196 0.004907
198 0.005
199 0.005032
201 0.005035
204 0.004979
204 0.004987
203 0.004939
204 0.004938
206 0.006045
208 0.005016
209 0.00498
212 0.004998
214 0.00502
216 0.005005
217 0.004987
210 0.005025
181 0.004984
174 0.005021
184 0.004992
189 0.004988
191 0.004988
192 0.004988
194 0.003992
197 0.005043
197 0.004037
195 0.004023
196 0.004037
198 0.00404
200 0.004023
202 0.00399
255 0.003989
255 0.002999
255 0.003991
255 0.004037
219 0.003989
216 0.004987
194 0.004034
177 0.003992
177 0.004021
183 0.003995
190 0.003962
192 0.003952
194 0.003942
195 0.003991
196 0.003991
195 0.003957
194 0.003923
194 0.00399
196 0.003989
198 0.003997
200 0.002944
201 0.003007
204 0.003992
205 0.003991
207 0.00399
201 0.003938
179 0.003943
163 0.003992
162 0.003989
169 0.00404
174 0.003979
175 0.003027
176 0.002983
178 0.002992
181 0.003029
181 0.003051
179 0.003025
179 0.004024
181 0.003054
183 0.003018
184 0.003014
186 0.003022
189 0.004019
189 0.003028
190 0.002992
175 0.003028
153 0.003038
144 0.002993
152 0.003059
158 0.00303
159 0.003061
160 0.002982
163 0.002994
164 0.003067
165 0.002993
164 0.002961
164 0.002027
165 0.001996
167 0.002068
169 0.002961
172 0.00296
174 0.002999
176 0.003028
177 0.003028
178 0.003014
179 0.002963
174 0.002988
132 0.002993
124 0.001995
136 0.002984
147 0.002053
156 0.001995
157 0.002037
165 0.001996
167 0.002034
165 0.002052
163 0.001996
164 0.001995
167 0.003018
171 0.002038
176 0.002025
181 0.002051
185 0.001996
190 0.001046
197 0.001996
202 0.001995
168 0.002054
126 0.002044
109 0.00203
115 0.001996
131 0.00199
138 0.001995
142 0.002003
145 0.001995
150 0.001996
155 0.000999
154 0.002007
158 0.001997
163 0.001001
168 0.002045
174 0.002031
178 0.002003
183 0.002002
188 0.001995
190 0.001995
191 0.000987
195 0.000998
176 0.000998
94 0.000998
76 0.000998
84 0.000998
97 0.000993
105 0.000998
110 0.000989
114 0.001995
120 0.001987
118 0.000992
122 0.001995
126 0.000997
131 0.000966
135 0.000998
135 0.000992
137 0.000997
141 0.000998
145 0.000998
154 0.001002
154 0.000987
96 0.000998
55 0.0
42 0.0
48 0.0
59 0.0
68 0.0
73 0.001011
81 0.000997
82 0.000997
79 0.000998
79 0.000998
80 0.000997
85 0.0
91 0.0
98 0.0
102 0.0
106 0.0
101 0.0
51 0.0
0 0.0
0 0.001075
0 0.0
0 0.0
9 0.001032
17 0.0
24 0.000968
28 0.000993
28 0.0
24 0.001011
27 0.0
32 0.000998
42 0.0
47 0.0
58 0.000968
62 0.0
35 0.0
0 0.0
0 0.0
0 0.0
0 0.000999
0 0.000998
0 0.0
0 0.0
0 0.002043
0 0.001995
0 0.0
0 0.0
4 0.000967
13 0.000986
21 0.0
31 0.00204
43 0.0
33 0.0
38 0.0
23 0.000974
23 0.000959
28 0.001029
33 0.001029
39 0.0
44 0.0
49 0.000948
53 0.001034
54 0.000998
55 0.000995
59 0.0
68 0.0
74 0.000996
77 0.000998
84 0.001022
90 0.001995
89 0.000998
57 0.0
32 0.0
22 0.001985
25 0.002048
33 0.0
37 0.0
46 0.0
53 0.0
57 0.0
59 0.001037
61 0.001055
67 0.0
71 0.000976
76 0.0
82 0.002039
87 0.002044
94 0.0
100 0.0
89 0.001
59 0.0
38 0.0
34 0.002044
39 0.002029
47 0.001976
53 0.001989
59 0.000954
65 0.001996
69 0.002005
70 0.00204
72 0.000986
78 0.00204
82 0.001041
88 0.001041
94 0.002993
101 0.002025
108 0.000997
109 0.000998
88 0.0
61 0.003017
47 0.001994
49 0.001997
56 0.000998
67 0.000965
75 0.001006
81 0.000972
64 0.002992
64 0.002074
65 0.003036
70 0.001045
76 0.001019
83 0.000994
90 0.002988
99 0.001994
107 0.001982
72 0.003064
23 0.000966
11 0.001038
15 0.001989
24 0.002994
33 0.002992
46 0.001992
55 0.001997
61 0.002021
62 0.003023
63 0.003044
68 0.001034
77 0.002992
89 0.000995
99 0.00206
108 0.001963
101 0.004031
62 0.004007
18 0.00199
13 0.001989
20 0.001992
29 0.002992
37 0.002993
49 0.001995
63 0.003028
70 0.00204
72 0.002996
78 0.000976
84 0.00399
93 0.004037
107 0.00198
117 0.001964
128 0.002012
119 0.004037
76 0.003989
30 0.002014
26 0.002992
37 0.002018
44 0.003023
52 0.003003
64 0.004021
75 0.00399
83 0.003003
88 0.002013
92 0.002023
99 0.004019
107 0.00403
121 0.002022
134 0.003989
147 0.001981
157 0.002031
161 0.0
122 0.004986
71 0.005043
40 0.003018
42 0.001991
52 0.002993
60 0.003973
68 0.003988
85 0.002977
97 0.004987
103 0.002995
106 0.002986
112 0.003015
120 0.00301
130 0.004986
138 0.005025
150 0.002987
159 0.003994
168 0.003989
176 0.004024
184 0.005028
153 0.004987
100 0.004987
61 0.003039
61 0.003048
72 0.002954
83 0.004953
92 0.004987
107 0.002958
115 0.002997
118 0.003021
119 0.005026
122 0.00496
134 0.005033
141 0.006044
153 0.004008
163 0.004007
170 0.004103
178 0.006015
187 0.005986
173 0.004006
120 0.003012
78 0.003989
63 0.005018
68 0.004968
86 0.005028
96 0.005985
112 0.004004
121 0.003971
126 0.00402
128 0.005984
130 0.005984
137 0.004032
144 0.004028
153 0.003994
162 0.005982
172 0.005995
187 0.004982
191 0.005928
136 0.005038
86 0.005005
62 0.004001
63 0.005983
73 0.005959
86 0.005023
95 0.004993
108 0.004964
120 0.005994
126 0.005978
132 0.005984
137 0.005984
147 0.005003
155 0.005
164 0.004032
174 0.005984
182 0.006957
194 0.004985
202 0.004962
178 0.004995
118 0.006979
72 0.006987
58 0.004991
67 0.005984
76 0.006014
88 0.004984
100 0.005002
111 0.005003
119 0.006963
122 0.006975
129 0.004983
133 0.004979
140 0.006006
149 0.006995
163 0.00501
174 0.006989
183 0.006981
196 0.005002
193 0.005985
145 0.006008
91 0.007002
64 0.006985
66 0.005992
78 0.005988
91 0.005987
103 0.006992
124 0.006023
130 0.007029
133 0.00698
136 0.005987
140 0.005961
146 0.005996
154 0.007948
162 0.007973
172 0.00599
180 0.005987
189 0.005989
194 0.006974
125 0.005984
64 0.007988
52 0.007985
58 0.005997
70 0.005982
82 0.007001
98 0.007942
109 0.007976
117 0.005979
121 0.005982
123 0.005971
128 0.007974
137 0.00601
148 0.007946
154 0.007979
166 0.006008
178 0.006972
165 0.006958
111 0.007006
74 0.007967
39 0.005968
42 0.006981
52 0.005984
64 0.007978
84 0.005998
102 0.007966
110 0.007979
115 0.006946
117 0.006981
124 0.006979
134 0.007018
143 0.007025
154 0.007033
163 0.006977
173 0.000999
184 0.006983
137 0.006975
61 0.006986
41 0.007937
38 0.007978
54 0.006977
62 0.006981
77 0.006978
92 0.007025
106 0.00702
114 0.00698
120 0.006965
124 0.006967
134 0.00698
143 0.006978
155 0.007006
164 0.006984
178 0.006964
188 0.006021
197 0.005977
170 0.005974
106 0.007032
55 0.006958
39 0.006962
49 0.006946
67 0.006014
79 0.006967
98 0.006022
112 0.006032
121 0.005976
123 0.005985
128 0.005973
134 0.006016
142 0.006016
154 0.005992
163 0.00594
172 0.006016
188 0.005949
198 0.006969
181 0.007017
121 0.006048
60 0.006037
53 0.006017
64 0.006019
80 0.006017
96 0.006031
117 0.005979
130 0.005946
137 0.006018
138 0.005929
142 0.005984
147 0.004993
154 0.004955
165 0.004971
174 0.005019
181 0.00502
191 0.005966
200 0.005021
191 0.006037
133 0.006034
78 0.00499
54 0.005935
65 0.004979
80 0.004953
94 0.004989
110 0.005018
127 0.004994
132 0.004988
133 0.00502
134 0.00502
135 0.005012
144 0.005033
153 0.005018
167 0.004987
175 0.00499
184 0.004946
169 0.004975
110 0.005037
47 0.005019
37 0.005051
47 0.004977
62 0.005029
76 0.005054
96 0.005025
109 0.00499
120 0.004987
122 0.004948
126 0.005038
132 0.005017
140 0.005017
152 0.004973
163 0.005035
173 0.005019
182 0.00396
179 0.003957
106 0.004952
52 0.00405
33 0.004033
45 0.004046
59 0.00399
72 0.004982
86 0.004059
104 0.00499
113 0.005048
117 0.004989
120 0.003989
126 0.004017
136 0.004057
144 0.00403
161 0.003992
171 0.004024
181 0.003957
175 0.003983
120 0.003991
48 0.003992
30 0.00396
38 0.003007
53 0.003006
66 0.002992
84 0.004003
100 0.003955
116 0.003942
119 0.003943
123 0.004056
129 0.004031
135 0.003962
147 0.00396
156 0.00398
167 0.004025
177 0.003956
188 0.002954
191 0.002996
126 0.003051
53 0.002948
39 0.002998
52 0.002991
68 0.003028
82 0.002992
98 0.002992
116 0.003923
123 0.002999
126 0.003034
128 0.002992
132 0.002991
142 0.003027
153 0.003025
166 0.003063
175 0.001995
185 0.002992
194 0.002992
181 0.003024
101 0.002
58 0.002992
48 0.003029
60 0.001994
78 0.001986
100 0.002027
122 0.002971
134 0.003024
134 0.002994
133 0.002992
135 0.002996
140 0.002992
151 0.002992
160 0.002979
168 0.001995
176 0.001985
185 0.001958
181 0.001995
103 0.002028
42 0.001991
36 0.002006
49 0.002959
65 0.00199
78 0.001956
98 0.001997
111 0.001996
118 0.002072
119 0.001995
122 0.002028
127 0.002037
139 0.002001
152 0.001996
162 0.001995
172 0.001037
178 0.001995
144 0.002025
62 0.001996
30 0.000997
31 0.002023
45 0.001948
61 0.001994
79 0.001011
100 0.001996
114 0.002044
119 0.000997
122 0.000994
126 0.000987
134 0.000997
143 0.000998
156 0.001995
166 0.001043
177 0.000997
187 0.000998
183 0.00098
78 0.002029
34 0.001006
30 0.000998
46 0.000998
60 0.001009
72 0.001028
86 0.000997
106 0.000998
116 0.000998
120 0.000987
123 0.000995
128 0.002015
142 0.0
150 0.002026
164 0.000985
175 0.001007
186 0.0
196 0.0
189 0.0
104 0.0
50 0.0
34 0.000998
44 0.001002
61 0.000997
83 0.0
99 0.000999
115 0.000967
120 0.00097
122 0.0
124 0.0
129 0.0
140 0.0
148 0.0
157 0.0
167 0.0
177 0.0
192 0.0
170 0.0
81 0.0
38 0.0
31 0.000996
45 0.0
61 0.0
78 0.0
93 0.0
107 0.0
115 0.0
118 0.0
123 0.0
133 0.0
142 0.001989
151 0.0
160 0.0
174 0.0
184 0.0
193 0.001054
181 0.002026
93 0.0
40 0.0
28 0.000973
51 0.0
66 0.0
77 0.0
94 0.001029
110 0.001995
121 0.000973
124 0.000979
128 0.0
134 0.002019
143 0.002028
156 0.0
167 0.0
186 0.0
197 0.0
207 0.0
209 0.001961
156 0.002049
65 0.0
39 0.0
46 0.0
62 0.001005
75 0.002036
90 0.000968
107 0.0
126 0.000949
130 0.001023
133 0.000989
138 0.002039
145 0.002019
156 0.0
166 0.0
177 0.0
187 0.002028
197 0.002026
209 0.0
196 0.0
85 0.0
47 0.00095
45 0.000925
61 0.001037
77 0.002033
95 0.000981
111 0.0
123 0.0
129 0.001992
128 0.002029
130 0.0
136 0.0
150 0.0
159 0.0
169 0.0
179 0.003023
188 0.003006
200 0.001994
199 0.00097
140 0.0
72 0.002994
38 0.002028
44 0.001006
61 0.0
84 0.001014
100 0.001987
117 0.003005
126 0.002028
131 0.002028
135 0.002043
139 0.001992
147 0.001994
157 0.001994
167 0.003029
178 0.003989
191 0.001995
205 0.003067
217 0.001994
212 0.001958
147 0.002004
76 0.002037
42 0.002037
47 0.001022
64 0.001017
78 0.000983
89 0.003026
104 0.002993
124 0.001018
134 0.003027
139 0.001993
144 0.000992
151 0.001995
161 0.004028
171 0.003022
184 0.001992
195 0.002019
205 0.002004
215 0.003989
223 0.003022
165 0.001008
76 0.003023
48 0.001986
58 0.001998
78 0.001
93 0.002992
108 0.004026
129 0.002008
139 0.001998
142 0.002011
143 0.004023
145 0.004035
153 0.002014
162 0.00403
174 0.001996
183 0.001996
193 0.002974
203 0.003989
210 0.004023
151 0.001929
84 0.00199
47 0.002008
44 0.004018
61 0.004043
85 0.002
107 0.00399
128 0.001992
136 0.00198
137 0.003044
136 0.005002
138 0.005008
147 0.003009
155 0.002961
164 0.002063
174 0.004034
185 0.004032
193 0.001994
132 0.004988
67 0.004987
32 0.002992
40 0.002992
57 0.002992
73 0.00502
88 0.004987
110 0.003011
122 0.002993
125 0.003011
126 0.004023
127 0.005019
137 0.003988
146 0.003948
160 0.004006
172 0.002986
181 0.004011
160 0.004978
95 0.004988
32 0.003013
28 0.003003
44 0.002968
62 0.004985
77 0.005018
104 0.005011
116 0.004982
124 0.00399
124 0.004007
128 0.003985
135 0.005023
143 0.005024
157 0.002996
169 0.003015
179 0.003997
190 0.005977
186 0.005001
81 0.005995
38 0.006001
36 0.003997
54 0.003962
71 0.004007
85 0.005974
101 0.005986
120 0.00399
125 0.003997
126 0.003994
128 0.00598
133 0.005983
147 0.005984
157 0.005968
172 0.003968
183 0.003985
195 0.003995
196 0.005977
142 0.005955
55 0.00403
34 0.003995
42 0.003987
61 0.005956
76 0.006984
101 0.00703
115 0.006989
126 0.004996
130 0.003974
131 0.00399
136 0.005986
143 0.005983
152 0.005972
163 0.003986
175 0.004993
185 0.005039
195 0.006973
198 0.004953
134 0.00698
66 0.006981
34 0.004994
46 0.004989
64 0.005008
81 0.006991
96 0.007008
116 0.004989
125 0.005977
128 0.004982
128 0.006974
136 0.004957
143 0.006977
152 0.006974
165 0.005019
175 0.002997
186 0.005026
196 0.007953
182 0.006944
93 0.005948
45 0.005985
35 0.005947
49 0.007944
79 0.005922
94 0.006981
112 0.006954
127 0.004956
129 0.004988
131 0.004985
133 0.006958
139 0.006959
151 0.005982
160 0.005943
171 0.006038
182 0.00795
194 0.003995
148 0.007979
79 0.007952
32 0.005984
37 0.006001
55 0.00598
72 0.007971
91 0.008013
108 0.005005
121 0.005025
126 0.006034
128 0.007972
134 0.005996
143 0.007969
149 0.007978
164 0.005982
176 0.006002
187 0.00698
197 0.007974
175 0.007975
61 0.006974
36 0.006971
35 0.006963
52 0.006981
75 0.006973
85 0.006036
107 0.007013
121 0.00801
126 0.005979
128 0.005985
132 0.006952
141 0.007021
150 0.007027
164 0.006972
171 0.006982
186 0.006978
202 0.006975
203 0.006978
121 0.007013
55 0.007014
31 0.006973
44 0.005983
60 0.005992
73 0.006015
87 0.006034
110 0.005976
122 0.007001
127 0.006979
133 0.006974
140 0.00698
148 0.007012
157 0.006993
173 0.00698
184 0.005984
196 0.005992
207 0.00597
215 0.006018
153 0.005982
80 0.00599
42 0.005963
53 0.005977
66 0.006973
87 0.007014
102 0.007041
124 0.006969
134 0.006031
137 0.005987
139 0.006013
144 0.006012
152 0.005984
162 0.005963
172 0.005986
190 0.005983
200 0.005979
210 0.005989
205 0.005952
119 0.004989
61 0.005985
46 0.004956
58 0.004985
78 0.005992
101 0.005948
119 0.005939
135 0.005998
144 0.00599
145 0.005949
146 0.006015
152 0.006011
163 0.005992
173 0.004984
183 0.004994
194 0.004986
204 0.005037
214 0.005021
219 0.005983
161 0.006017
53 0.005977
40 0.006
54 0.005028
74 0.005019
89 0.005003
111 0.005
128 0.004987
138 0.00502
142 0.00502
143 0.004997
147 0.005027
154 0.004991
170 0.005019
181 0.004981
192 0.003959
203 0.004995
214 0.005024
204 0.00502
133 0.004979
64 0.004951
37 0.005019
43 0.004023
68 0.00399
85 0.003954
111 0.004995
128 0.004991
138 0.004989
141 0.005034
142 0.005018
149 0.004995
159 0.004007
167 0.005032
179 0.004019
191 0.003989
206 0.00402
217 0.003991
207 0.003955
132 0.00399
63 0.00399
36 0.003944
43 0.003929
68 0.005023
85 0.004989
100 0.003998
117 0.003975
131 0.004059
140 0.00399
141 0.004022
147 0.004063
154 0.003961
163 0.003965
174 0.004034
185 0.008977
199 0.003965
211 0.002929
220 0.003032
189 0.002992
113 0.002992
44 0.003955
40 0.00399
70 0.004018
89 0.004038
106 0.00399
125 0.00399
138 0.004023
142 0.003991
140 0.003992
143 0.003047
148 0.003025
156 0.002994
166 0.00202
181 0.003025
196 0.002993
207 0.004021
174 0.00303
100 0.003991
45 0.002994
32 0.00296
52 0.002927
72 0.002994
88 0.003026
107 0.002992
124 0.002992
136 0.003046
137 0.003029
139 0.001982
146 0.001994
154 0.002992
164 0.002023
173 0.001993
190 0.003961
199 0.001995
170 0.002027
94 0.002982
38 0.003029
24 0.00294
48 0.002992
74 0.003024
92 0.002027
111 0.002972
125 0.002022
131 0.001995
133 0.002029
135 0.001997
141 0.002006
149 0.001995
159 0.002012
176 0.002989
192 0.002992
200 0.002988
142 0.00303
67 0.003037
28 0.001995
29 0.001995
55 0.001995
74 0.002022
92 0.001996
109 0.002061
124 0.002021
132 0.002033
133 0.001999
139 0.002046
146 0.001012
156 0.00203
167 0.002029
180 0.002031
196 0.001043
205 0.000997
167 0.000998
91 0.001995
36 0.001995
28 0.001995
53 0.001995
78 0.001996
94 0.00203
112 0.001991
125 0.000998
129 0.002042
130 0.000998
133 0.000999
139 0.000999
147 0.000998
158 0.001029
169 0.00099
189 0.001008
190 0.000974
112 0.002049
52 0.00203
29 0.002057
39 0.002034
59 0.002034
85 0.00101
104 0.000999
122 0.000969
131 0.000997
132 0.000998
132 0.001
136 0.000998
147 0.002068
158 0.00202
169 0.0
180 0.0
191 0.0
163 0.0
89 0.0
36 0.0
24 0.000998
38 0.000998
71 0.000997
87 0.000998
112 0.000998
123 0.001002
126 0.000992
126 0.0
128 0.000995
135 0.0
145 0.0
157 0.0
168 0.0
180 0.0
167 0.0
98 0.0
29 0.0
24 0.0
41 0.0
62 0.0
79 0.0
104 0.0
119 0.0
126 0.0
128 0.0
128 0.0
136 0.0
145 0.0
160 0.0
172 0.0
184 0.0
194 0.0
164 0.0
69 0.000997
30 0.000998
30 0.000998
55 0.001026
73 0.0
102 0.0
117 0.0
126 0.0
129 0.002028
130 0.001028
136 0.0
144 0.0
155 0.0
166 0.001995
178 0.003024
194 0.000988
203 0.0
126 0.0
58 0.000965
31 0.000965
40 0.00201
60 0.001994
82 0.001028
99 0.000967
116 0.0
130 0.002043
136 0.002044
138 0.0
142 0.0
154 0.0
165 0.0
176 0.0
189 0.002027
200 0.002028
215 0.0
191 0.0
115 0.0
55 0.002027
38 0.002992
57 0.000935
79 0.000961
107 0.001001
124 0.0
137 0.001021
141 0.001052
142 0.001033
146 0.0
152 0.0
160 0.001002
170 0.002027
181 0.001971
195 0.000941
206 0.0
207 0.0
145 0.0
76 0.0
45 0.002027
51 0.001995
79 0.0
97 0.0
115 0.0
134 0.00204
145 0.001995
147 0.0
147 0.0
153 0.0
161 0.0
171 0.000974
182 0.002997
193 0.002993
209 0.0
213 0.002008
163 0.002028
91 0.002024
50 0.002062
47 0.002054
73 0.002005
98 0.002025
122 0.001999
138 0.002061
147 0.001998
149 0.003023
149 0.002994
152 0.003955
160 0.001962
170 0.001963
181 0.003044
193 0.002992
209 0.002033
200 0.002992
107 0.001995
56 0.002032
46 0.001996
61 0.002989
83 0.003029
105 0.001995
123 0.002018
139 0.002002
149 0.002993
151 0.002993
153 0.001996
160 0.004023
171 0.003011
182 0.002033
193 0.002018
205 0.003991
216 0.004008
225 0.002013
173 0.001996
96 0.001982
51 0.002979
48 0.00304
73 0.001994
97 0.003028
120 0.001991
138 0.002001
148 0.002001
151 0.004039
152 0.004042
156 0.002005
163 0.001995
173 0.001046
183 0.00399
195 0.005019
210 0.002029
224 0.004029
217 0.001972
144 0.002002
74 0.002013
45 0.003956
51 0.004006
77 0.002011
96 0.002014
114 0.002044
132 0.003953
145 0.00404
150 0.001992
149 0.00402
154 0.001993
160 0.002029
169 0.002958
179 0.003989
192 0.005021
202 0.005017
217 0.001996
216 0.001986
155 0.003003
82 0.004987
47 0.005028
60 0.004021
83 0.003996
109 0.002
128 0.003003
143 0.003042
147 0.005007
145 0.004977
144 0.003008
148 0.00299
154 0.003015
163 0.004996
174 0.004987
192 0.005955
203 0.005961
186 0.004015
114 0.002948
52 0.002991
31 0.004987
40 0.005021
67 0.002994
84 0.002961
102 0.00201
119 0.004987
126 0.007031
130 0.006029
130 0.00499
136 0.003959
145 0.002993
156 0.003993
167 0.005994
179 0.00596
190 0.002977
150 0.004014
78 0.003034
31 0.005036
24 0.005001
53 0.004998
70 0.004971
94 0.002994
112 0.004016
123 0.004009
129 0.00598
130 0.005963
134 0.004003
142 0.004019
152 0.003985
162 0.007021
174 0.006982
194 0.006981
205 0.006987
160 0.002994
80 0.003981
31 0.003981
24 0.005997
39 0.00597
64 0.004009
78 0.004015
96 0.003967
112 0.005985
122 0.007036
127 0.005964
130 0.006979
139 0.004011
148 0.003988
157 0.005004
169 0.003989
180 0.006989
192 0.00701
207 0.004043
211 0.00405
158 0.003985
77 0.006014
24 0.003994
38 0.006019
57 0.005982
77 0.004954
94 0.004928
110 0.004982
121 0.006974
126 0.006983
127 0.005005
130 0.004029
137 0.004016
146 0.007014
163 0.004986
174 0.006982
185 0.006984
199 0.005003
208 0.004958
196 0.005986
124 0.006977
57 0.006952
31 0.004981
46 0.005014
67 0.004994
87 0.007025
117 0.00597
132 0.007986
133 0.007975
131 0.005984
133 0.00599
137 0.00596
149 0.007979
156 0.007973
168 0.005986
178 0.005012
189 0.005985
202 0.007966
185 0.004953
110 0.006989
34 0.007967
26 0.004986
42 0.005035
62 0.004988
79 0.007947
94 0.007947
116 0.005985
125 0.005014
126 0.004999
126 0.007979
136 0.00696
145 0.006959
156 0.006984
167 0.005981
180 0.006
191 0.005984
201 0.007969
180 0.007978
81 0.00599
31 0.005984
24 0.006002
40 0.005983
70 0.00603
86 0.006974
109 0.007014
121 0.007008
126 0.00597
127 0.005974
130 0.005987
138 0.00702
148 0.006963
163 0.007005
170 0.006958
185 0.006947
198 0.006952
211 0.006978
220 0.007014
227 0.006949
148 0.006981
64 0.006981
23 0.006966
25 0.006968
43 0.007018
61 0.006917
74 0.006041
95 0.005957
118 0.005966
122 0.006039
124 0.007023
128 0.007028
135 0.006964
144 0.006982
158 0.006935
168 0.007012
178 0.007031
189 0.006974
202 0.005998
212 0.005898
190 0.005992
110 0.005987
45 0.006021
27 0.00601
46 0.005952
67 0.005019
80 0.00593
93 0.007016
109 0.006034
122 0.005835
124 0.005983
125 0.005985
132 0.005984
140 0.005984
151 0.004986
162 0.004987
176 0.005985
187 0.005984
197 0.005017
207 0.005988
210 0.005952
132 0.005996
66 0.005984
38 0.005946
57 0.005961
77 0.005988
92 0.006015
109 0.006023
129 0.005978
134 0.00598
132 0.006051
131 0.005969
135 0.005985
142 0.005987
154 0.005051
164 0.005027
181 0.005024
191 0.005093
200 0.005909
195 0.005934
137 0.005023
58 0.004987
42 0.005977
51 0.004991
69 0.004987
84 0.004989
102 0.00506
118 0.004954
134 0.005022
135 0.004997
136 0.005
142 0.005017
150 0.005039
163 0.004992
173 0.003944
185 0.003991
196 0.004988
205 0.003991
165 0.003963
100 0.004989
51 0.004969
60 0.005024
76 0.00502
88 0.004981
100 0.005044
122 0.003991
135 0.005041
139 0.004949
141 0.004985
144 0.004986
153 0.00505
162 0.005045
179 0.004996
189 0.004988
199 0.003992
209 0.004064
219 0.004024
217 0.003989
158 0.00399
94 0.004988
62 0.005052
64 0.002993
82 0.003998
92 0.003027
110 0.003902
124 0.004032
135 0.004051
139 0.003991
140 0.004065
146 0.003943
153 0.003992
161 0.00402
171 0.003991
181 0.003991
192 0.003023
201 0.002998
213 0.002996
194 0.003026
134 0.003067
86 0.002989
71 0.002992
78 0.002992
97 0.003053
109 0.002977
122 0.004018
137 0.00399
144 0.003991
145 0.002961
146 0.003019
154 0.002941
162 0.002994
170 0.003036
180 0.002992
190 0.003025
201 0.00399
210 0.002995
212 0.003023
169 0.003024
110 0.003992
73 0.003994
80 0.003015
97 0.003023
106 0.003025
119 0.003023
133 0.001954
141 0.002993
144 0.003066
146 0.003021
150 0.003022
156 0.002992
165 0.003054
178 0.003038
191 0.003024
204 0.002954
209 0.002936
171 0.001994
111 0.002009
75 0.001995
72 0.001975
83 0.001996
95 0.001996
105 0.001995
118 0.001996
135 0.002028
143 0.001995
144 0.002994
149 0.002963
157 0.003013
165 0.003046
174 0.001997
187 0.002038
197 0.002033
205 0.002082
214 0.000996
223 0.003003
194 0.00205
108 0.012996
65 0.00195
68 0.001996
79 0.001008
89 0.000997
97 0.000998
114 0.002046
124 0.001997
131 0.001995
134 0.001995
136 0.002043
142 0.00197
154 0.002031
163 0.001994
175 0.000999
184 0.002031
193 0.002027
202 0.002026
203 0.000999
142 0.000998
88 0.000998
65 0.002058
68 0.002044
81 0.001996
101 0.00206
115 0.00205
131 0.002025
135 0.001979
136 0.001044
138 0.0
143 0.000997
151 0.001015
160 0.001058
169 0.000998
177 0.000997
187 0.000998
202 0.000997
200 0.000998
126 0.000992
73 0.0
54 0.000998
59 0.0
73 0.0
89 0.0
99 0.0
113 0.000998
123 0.001005
126 0.000979
129 0.000978
135 0.000998
144 0.000997
154 0.000997
163 0.000987
173 0.0
183 0.0
195 0.0
180 0.0
119 0.0
63 0.0
42 0.0
56 0.000997
69 0.0
83 0.001004
97 0.0
110 0.0
118 0.0
122 0.0
126 0.0
131 0.0
139 0.0
149 0.0
158 0.0
175 0.0
184 0.0
197 0.000962
172 0.0
106 0.000997
52 0.0
35 0.000983
47 0.0
62 0.0
77 0.0
90 0.0
105 0.0
117 0.0
119 0.0
122 0.0
128 0.001995
136 0.003026
147 0.0
157 0.0
167 0.001021
176 0.001994
186 0.002036
185 0.000997
132 0.000997
46 0.0
39 0.000945
51 0.0
67 0.002029
80 0.002028
99 0.001029
112 0.000957
118 0.0
119 0.00203
120 0.002992
127 0.001001
136 0.0
152 0.0
161 0.0
170 0.0
181 0.002022
190 0.002025
160 0.000931
94 0.000992
47 0.00094
36 0.00201
48 0.002043
70 0.0
81 0.0
107 0.0
118 0.001038
122 0.0
123 0.003022
125 0.002041
134 0.000947
143 0.0
152 0.001013
163 0.002001
173 0.002026
187 0.0
196 0.0
130 0.0
65 0.0
35 0.0
38 0.00205
54 0.00202
72 0.0
85 0.0
101 0.00096
115 0.002037
123 0.001985
124 0.0
127 0.0
138 0.0
147 0.0
158 0.0
168 0.002023
178 0.002037
193 0.0
202 0.0
174 0.000974
102 0.0
47 0.003032
32 0.003053
48 0.001997
68 0.002963
83 0.001997
99 0.0
114 0.000979
122 0.003023
124 0.002995
127 0.0
134 0.002041
142 0.002041
153 0.003031
163 0.002991
177 0.001995
189 0.002994
203 0.000997
212 0.000945
188 0.001985
115 0.002979
56 0.003026
38 0.001981
52 0.001981
70 0.002991
83 0.003034
96 0.00399
117 0.002985
127 0.00399
127 0.001992
129 0.00199
135 0.001987
143 0.003031
152 0.00399
166 0.00199
179 0.001983
189 0.002038
198 0.002992
191 0.002992
106 0.002999
40 0.003024
39 0.002989
57 0.002012
75 0.002026
88 0.004039
104 0.004004
123 0.002994
128 0.002028
128 0.002027
130 0.004016
134 0.00399
145 0.001997
158 0.00303
171 0.001993
182 0.002013
194 0.002053
199 0.00399
157 0.003989
64 0.001994
31 0.001998
33 0.002014
51 0.003989
68 0.00399
84 0.002017
107 0.005038
120 0.004993
127 0.001995
127 0.001975
131 0.001979
138 0.00402
148 0.004174
163 0.002987
174 0.001946
185 0.002986
196 0.004023
207 0.005043
186 0.005032
108 0.005027
37 0.002993
32 0.002012
47 0.00202
64 0.005023
76 0.004987
96 0.001982
114 0.002031
126 0.002029
130 0.006021
131 0.00502
137 0.004023
147 0.005992
160 0.002963
171 0.003966
183 0.002943
194 0.005036
205 0.00502
211 0.002018
157 0.001994
83 0.002977
39 0.004987
36 0.006031
65 0.004987
82 0.005834
102 0.00299
121 0.003954
131 0.003
133 0.004995
133 0.005979
136 0.003007
143 0.002966
152 0.003011
161 0.00498
171 0.005019
188 0.005981
199 0.005994
200 0.00399
137 0.003977
66 0.002977
30 0.006017
30 0.005985
54 0.003006
70 0.003019
83 0.003989
101 0.005951
116 0.005985
125 0.007005
125 0.006985
129 0.00401
137 0.004009
147 0.004009
159 0.006004
171 0.005982
187 0.004009
195 0.004025
162 0.003989
89 0.005998
38 0.005984
34 0.006983
53 0.006983
69 0.006979
89 0.003955
106 0.004001
120 0.003984
125 0.005984
126 0.006023
129 0.00401
136 0.004989
145 0.004919
156 0.006982
176 0.004013
188 0.00697
198 0.0
155 0.004032
81 0.004027
35 0.004991
30 0.007018
44 0.005974
68 0.003976
83 0.003976
101 0.003958
117 0.006979
128 0.003993
129 0.007019
132 0.006968
142 0.005037
152 0.004995
163 0.005022
174 0.006948
186 0.006989
201 0.005002
210 0.004975
183 0.004989
82 0.007979
30 0.004996
40 0.007987
53 0.007978
75 0.004984
90 0.00503
108 0.005008
123 0.006982
130 0.006973
132 0.00503
134 0.004979
139 0.005984
151 0.00796
164 0.006004
179 0.007973
187 0.007986
200 0.006948
211 0.005954
215 0.005014
160 0.007976
65 0.007007
35 0.005019
41 0.005981
61 0.004983
84 0.006981
107 0.005947
123 0.007928
132 0.007943
132 0.005974
131 0.005975
134 0.006
142 0.007979
154 0.007941
164 0.005991
176 0.005995
187 0.006983
198 0.006015
182 0.006015
110 0.005947
40 0.006975
32 0.006942
46 0.005975
65 0.006021
80 0.00595
103 0.007997
115 0.007978
129 0.005989
130 0.006974
130 0.006941
140 0.006987
146 0.004989
162 0.007937
174 0.00701
191 0.006917
198 0.00598
198 0.005967
112 0.006984
50 0.006985
30 0.005984
45 0.006018
64 0.005951
83 0.006981
108 0.006932
124 0.007024
131 0.007018
133 0.006932
135 0.006977
141 0.006949
151 0.006981
162 0.005986
177 0.005993
189 0.005994
197 0.005983
214 0.005986
158 0.005947
78 0.006946
33 0.006984
30 0.006981
45 0.00698
62 0.005971
81 0.005984
98 0.005984
121 0.005952
129 0.00595
131 0.005939
136 0.005963
143 0.005936
152 0.005984
163 0.005984
179 0.005954
191 0.005994
204 0.005935
214 0.004988
208 0.006019
112 0.005968
49 0.005946
30 0.00597
55 0.005984
72 0.006023
87 0.005985
105 0.005947
121 0.00504
129 0.005951
129 0.005954
130 0.004998
135 0.004934
143 0.005025
157 0.004977
167 0.004939
186 0.004987
198 0.005007
209 0.005937
199 0.005986
130 0.00602
51 0.004959
36 0.004915
49 0.004947
71 0.004988
90 0.004985
114 0.004989
132 0.004938
138 0.004941
137 0.00498
138 0.004955
143 0.004924
151 0.004989
164 0.00503
174 0.00596
185 0.004009
196 0.003991
206 0.003991
167 0.005013
91 0.004989
31 0.004986
39 0.005
59 0.004986
75 0.003943
91 0.004989
115 0.004959
127 0.004
130 0.003976
129 0.003992
130 0.004048
138 0.003995
151 0.003992
168 0.003966
181 0.004024
193 0.004961
200 0.00505
158 0.004963
62 0.004992
30 0.005019
35 0.005032
53 0.003954
72 0.00399
93 0.004073
117 0.004066
132 0.004051
135 0.003992
136 0.003955
141 0.004989
149 0.004027
162 0.003989
173 0.003987
186 0.003027
198 0.003038
209 0.003991
216 0.003048
116 0.003034
52 0.002992
33 0.003017
49 0.002989
68 0.003072
83 0.004035
98 0.003957
123 0.003965
134 0.004023
137 0.003997
138 0.003029
143 0.002996
156 0.002972
165 0.002987
181 0.003041
193 0.003006
205 0.003962
216 0.002939
226 0.004025
163 0.002993
83 0.002991
40 0.002952
36 0.002992
54 0.003028
85 0.002992
101 0.002992
125 0.002994
135 0.002993
138 0.003005
137 0.003023
140 0.002002
149 0.00302
159 0.002009
169 0.004042
180 0.003026
191 0.002982
209 0.001995
217 0.001965
165 0.002989
88 0.002992
44 0.002033
39 0.001999
57 0.001992
85 0.000998
104 0.00203
124 0.002008
139 0.002995
143 0.001996
140 0.001964
143 0.001996
152 0.001996
161 0.002012
172 0.002015
183 0.002032
195 0.00205
210 0.001977
206 0.001995
139 0.002028
68 0.001997
35 0.001996
50 0.001028
70 0.000998
93 0.001996
112 0.002033
129 0.002057
137 0.002028
137 0.002055
137 0.001987
142 0.002035
150 0.002028
161 0.002027
173 0.000999
194 0.001008
205 0.000995
172 0.002026
74 0.002017
35 0.001997
33 0.002024
49 0.002042
70 0.002019
94 0.002025
113 0.00202
131 0.002016
139 0.002037
140 0.000997
143 0.000998
150 0.000998
163 0.002045
174 0.000997
187 0.001
200 0.000998
212 0.000997
223 0.000997
173 0.002026
89 0.000998
39 0.000997
38 0.0
58 0.0
75 0.0
97 0.0
116 0.0
129 0.0
134 0.000997
136 0.0
139 0.000997
146 0.0
157 0.0
167 0.0
188 0.0
200 0.0
213 0.0
226 0.0
184 0.0
99 0.0
44 0.0
31 0.000998
51 0.0
70 0.0
86 0.0
104 0.0
131 0.0
137 0.0
137 0.0
140 0.0
147 0.0
156 0.0
167 0.0
178 0.000998
194 0.0
205 0.000998
213 0.0
226 0.000937
157 0.000976
63 0.0
38 0.0
46 0.000961
67 0.002986
89 0.00298
114 0.000965
133 0.000998
143 0.000998
142 0.002992
134 0.001997
130 0.000997
138 0.00204
151 0.0
164 0.0
176 0.0
189 0.003024
201 0.003025
199 0.001005
132 0.0
61 0.0
29 0.002027
34 0.002198
61 0.000999
86 0.001995
111 0.0
128 0.001014
137 0.000974
136 0.003028
135 0.003022
140 0.000964
147 0.0
157 0.0
170 0.003041
182 0.003049
198 0.00099
178 0.002993
79 0.0
34 0.000997
27 0.0
43 0.001986
63 0.002031
86 0.000994
106 0.0
122 0.001003
130 0.002036
131 0.002042
131 0.00095
139 0.003036
151 0.0
163 0.0
174 0.0
186 0.003042
198 0.003023
210 0.0
180 0.0
98 0.0
36 0.002028
16 0.002053
33 0.0
55 0.002033
75 0.0
94 0.0
109 0.0
117 0.003025
120 0.003023
121 0.002995
129 0.001016
138 0.000984
148 0.0
159 0.002956
170 0.003009
190 0.003041
201 0.003042
203 0.0
139 0.0
64 0.001999
27 0.002033
29 0.002042
54 0.000967
72 0.002991
87 0.000952
104 0.002992
120 0.002966
126 0.002992
126 0.002987
131 0.002043
139 0.001975
150 0.001988
160 0.003023
170 0.003024
186 0.001993
196 0.001979
205 0.001992
208 0.00408
153 0.002992
41 0.003022
25 0.002992
45 0.001957
65 0.002039
82 0.001
100 0.002993
117 0.003041
127 0.001995
125 0.001034
125 0.0
129 0.003989
137 0.003989
154 0.003989
165 0.00399
180 0.002014
191 0.002031
202 0.00201
193 0.003042
124 0.002944
40 0.003007
24 0.003009
36 0.002991
57 0.003991
72 0.004013
101 0.004006
117 0.004036
128 0.002991
129 0.002048
129 0.002019
135 0.003985
143 0.003989
156 0.002958
169 0.002969
181 0.002977
194 0.005013
205 0.004987
153 0.002991
77 0.003989
34 0.004039
35 0.002073
55 0.002015
73 0.002041
87 0.004022
105 0.005056
126 0.002042
133 0.001995
135 0.002992
136 0.005037
146 0.00202
156 0.005036
167 0.00401
183 0.001995
194 0.002978
202 0.014961
217 0.003951
219 0.004987
130 0.002995
58 0.002989
30 0.003033
37 0.005023
65 0.00298
78 0.004987
93 0.004987
116 0.003015
127 0.002978
129 0.002986
129 0.005984
133 0.005983
143 0.00296
152 0.00296
163 0.003015
175 0.004978
193 0.003012
204 0.005015
214 0.004996
166 0.004007
88 0.003983
40 0.002937
33 0.006024
49 0.005985
72 0.003047
88 0.003039
105 0.002952
121 0.005985
127 0.003995
125 0.006014
127 0.005984
137 0.002956
145 0.002992
155 0.003945
166 0.006032
177 0.005979
190 0.003964
201 0.002947
190 0.004014
119 0.005998
29 0.003045
27 0.005984
43 0.005986
66 0.002994
79 0.004001
98 0.003023
114 0.00702
122 0.006035
123 0.007013
125 0.004007
130 0.004036
140 0.003991
157 0.004
169 0.004019
181 0.005955
194 0.005934
207 0.003022
181 0.003978
105 0.003948
44 0.00602
27 0.007054
45 0.004003
63 0.00204
76 0.003981
104 0.003946
119 0.00398
128 0.007053
128 0.007025
132 0.002993
140 0.003957
149 0.003945
160 0.00697
172 0.007026
188 0.005005
199 0.004962
211 0.004986
224 0.003986
170 0.003975
87 0.00701
38 0.006981
35 0.00401
52 0.003978
69 0.004994
83 0.007978
100 0.007979
122 0.004989
132 0.004954
134 0.004999
138 0.004987
145 0.004022
154 0.006982
163 0.006981
178 0.004986
190 0.005022
201 0.005027
213 0.007979
223 0.007964
190 0.004993
108 0.005022
52 0.00511
44 0.00594
64 0.004974
89 0.006992
106 0.006939
124 0.005983
137 0.006
141 0.004952
140 0.007977
141 0.00798
148 0.005983
156 0.005968
165 0.005954
183 0.006006
194 0.004983
206 0.00605
217 0.007973
195 0.007948
118 0.004981
56 0.005984
35 0.005013
51 0.007978
72 0.007979
89 0.004989
108 0.006034
134 0.005986
137 0.00601
135 0.005987
134 0.006948
139 0.00702
148 0.005977
159 0.006031
170 0.005985
186 0.006978
193 0.007978
208 0.00699
165 0.006966
64 0.006982
27 0.006968
32 0.005981
55 0.006983
72 0.007033
88 0.005991
106 0.006035
122 0.006015
131 0.007997
130 0.006992
134 0.005998
138 0.005944
143 0.025896
153 0.003007
185 0.006951
198 0.00602
209 0.006981
203 0.006982
108 0.006973
47 0.006952
27 0.007018
39 0.005979
65 0.006026
80 0.005988
110 0.005988
125 0.006
133 0.00597
134 0.005986
135 0.006021
143 0.00595
152 0.00599
163 0.006017
175 0.006963
187 0.005984
203 0.005988
214 0.00599
171 0.005953
90 0.005994
39 0.005978
31 0.005986
47 0.006025
71 0.004985
85 0.006014
103 0.005938
121 0.006022
133 0.005955
136 0.005051
136 0.005975
146 0.005951
155 0.005984
167 0.005947
178 0.005937
191 0.005986
203 0.006022
219 0.005975
227 0.005949
198 0.006011
117 0.005985
56 0.005022
42 0.004972
67 0.005022
92 0.005005
108 0.004936
126 0.004966
138 0.004988
140 0.004988
137 0.005997
139 0.003998
145 0.005945
153 0.006025
163 0.005046
178 0.004981
192 0.004936
207 0.005007
214 0.005006
170 0.004952
90 0.004939
40 0.005997
33 0.004995
51 0.004955
67 0.005994
77 0.003991
95 0.003991
116 0.004008
123 0.004026
124 0.004989
130 0.004932
140 0.003981
152 0.003922
167 0.004979
186 0.004041
200 0.004016
210 0.003936
205 0.00399
140 0.004025
54 0.004002
39 0.003992
64 0.00394
83 0.00399
100 0.004949
119 0.004053
137 0.004021
148 0.004987
147 0.004987
147 0.004986
150 0.004988
157 0.004037
170 0.003997
187 0.004042
203 0.004032
213 0.00399
223 0.00399
184 0.004023
100 0.00417
36 0.003989
36 0.003988
54 0.003984
74 0.004008
89 0.002992
106 0.003992
135 0.003034
142 0.003046
144 0.002953
146 0.003995
152 0.003993
162 0.003055
173 0.004023
188 0.004036
200 0.003994
212 0.003999
223 0.004024
234 0.002993
197 0.002993
108 0.002942
40 0.002992
38 0.003034
57 0.004006
78 0.003956
95 0.004022
119 0.004012
135 0.003976
142 0.002968
142 0.002027
140 0.002992
147 0.004022
155 0.003026
168 0.002945
179 0.002962
191 0.003036
203 0.002978
213 0.002946
212 0.004024
148 0.003035
74 0.002994
39 0.002992
42 0.002987
77 0.00203
96 0.002995
121 0.003034
138 0.001995
143 0.003048
141 0.001996
139 0.001995
143 0.002039
144 0.014963
157 0.0
171 0.002014
182 0.001994
202 0.002046
210 0.000997
144 0.003026
69 0.002958
31 0.001039
33 0.000998
53 0.001996
81 0.001995
99 0.001996
118 0.002042
133 0.001995
140 0.001995
139 0.002026
141 0.00203
151 0.001993
162 0.003017
174 0.001997
187 0.002053
200 0.002012
212 0.00199
172 0.001995
91 0.002031
39 0.002043
30 0.000996
62 0.001997
82 0.002011
99 0.002028
124 0.002028
137 0.001976
142 0.002001
141 0.002042
144 0.001996
152 0.002992
162 0.000962
172 0.001041
184 0.000998
204 0.000998
216 0.001995
227 0.000998
178 0.002029
90 0.003041
33 0.00203
24 0.001958
40 0.000972
68 0.0
84 0.0
101 0.0
118 0.0
131 0.001
131 0.0
132 0.000965
139 0.000997
147 0.000998
158 0.001014
171 0.000999
183 0.000998
200 0.000997
211 0.000997
194 0.001002
117 0.0
31 0.0
34 0.0
53 0.0
81 0.0
100 0.0
119 0.000997
132 0.0
135 0.000998
133 0.001003
133 0.000963
139 0.0
147 0.0
165 0.0
177 0.0
189 0.0
202 0.0
174 0.0
96 0.0
36 0.0
20 0.0
41 0.0
62 0.0
79 0.0
97 0.0
122 0.001001
126 0.000997
124 0.000964
126 0.0
132 0.003025
141 0.001998
154 0.0
170 0.0
183 0.0
194 0.002025
170 0.002034
68 0.000997
17 0.003027
29 0.0
51 0.0
68 0.0
85 0.003024
105 0.003028
123 0.0
125 0.0
125 0.0
129 0.002982
136 0.002983
149 0.0
167 0.003027
184 0.0
196 0.000951
203 0.000954
158 0.003035
76 0.003001
21 0.000958
26 0.000998
46 0.000977
66 0.001994
81 0.002012
106 0.001002
125 0.003037
132 0.0
133 0.0
136 0.001017
144 0.00306
154 0.003028
170 0.000965
182 0.000962
195 0.000965
207 0.002025
213 0.002029
142 0.0
47 0.002995
27 0.0
44 0.000989
66 0.000998
83 0.003035
101 0.003034
125 0.0
135 0.0
136 0.0
135 0.003026
138 0.002999
147 0.0
160 0.003046
176 0.001035
189 0.000972
201 0.000996
213 0.002994
207 0.003044
112 0.000958
52 0.00097
37 0.000967
51 0.002991
75 0.002996
96 0.002185
129 0.002989
142 0.002026
143 0.0
140 0.000988
140 0.000973
145 0.002079
153 0.002046
168 0.000998
171 0.017952
178 0.001028
201 0.002993
209 0.002992
123 0.002992
54 0.002992
29 0.0
44 0.0
67 0.000968
85 0.002911
103 0.003026
126 0.000954
135 0.0
136 0.0
134 0.002967
136 0.003001
149 0.004
161 0.002996
178 0.0
191 0.0
202 0.000968
179 0.003044
103 0.003009
34 0.00197
30 0.000961
49 0.002985
69 0.003026
87 0.003989
119 0.00399
133 0.003989
137 0.0
135 0.0
138 0.0
145 0.002993
154 0.002983
169 0.002021
182 0.001988
194 0.001994
204 0.003998
196 0.004054
72 0.003991
28 0.004021
30 0.001997
52 0.002986
71 0.002992
87 0.00399
105 0.00399
125 0.002986
130 0.002994
130 0.001994
132 0.003982
137 0.00404
153 0.003989
165 0.003989
182 0.001961
195 0.003945
206 0.003
183 0.002021
104 0.005019
43 0.004019
28 0.003986
46 0.002988
66 0.003989
82 0.005004
108 0.002983
121 0.003994
124 0.004014
124 0.003034
126 0.003015
132 0.001997
143 0.004021
157 0.004987
174 0.002007
187 0.002017
199 0.003002
194 0.005027
82 0.002013
39 0.005039
36 0.005038
62 0.002018
82 0.002997
101 0.002996
122 0.005018
138 0.004982
141 0.003033
140 0.002987
140 0.002989
145 0.004994
161 0.003002
172 0.005993
184 0.00594
199 0.00299
202 0.002035
147 0.002011
74 0.004989
34 0.005986
39 0.002998
61 0.002949
79 0.002992
94 0.005988
122 0.002976
131 0.005986
131 0.005984
129 0.003003
133 0.003008
141 0.003025
153 0.006032
163 0.00602
180 0.002992
188 0.003025
156 0.003972
84 0.005966
25 0.004023
36 0.006015
56 0.005984
78 0.002986
97 0.002992
115 0.002967
128 0.006031
130 0.00598
130 0.002992
133 0.002027
141 0.003032
151 0.007013
172 0.003984
185 0.003989
197 0.006982
199 0.006983
116 0.003015
52 0.003991
30 0.00399
41 0.006027
61 0.006988
81 0.002992
98 0.003015
117 0.003994
134 0.003984
134 0.004051
136 0.00698
143 0.007015
156 0.003983
166 0.004007
178 0.004007
189 0.006995
201 0.007009
216 0.003968
227 0.002991
220 0.003984
90 0.004006
42 0.003988
38 0.007028
56 0.006984
79 0.002993
93 0.003958
111 0.004948
129 0.007017
139 0.006946
141 0.003994
143 0.003959
148 0.00399
164 0.00396
174 0.003957
186 0.007978
199 0.006982
215 0.003973
226 0.005017
236 0.004989
204 0.007962
150 0.018964
78 0.002992
51 0.004974
69 0.004992
102 0.005986
120 0.005008
143 0.007982
151 0.007984
151 0.005956
151 0.005039
152 0.004984
157 0.00798
166 0.007985
179 0.004987
190 0.004946
203 0.005986
223 0.004957
229 0.004979
157 0.007978
106 0.008015
51 0.007943
53 0.004021
74 0.005034
94 0.006014
119 0.007998
138 0.007966
151 0.005019
153 0.005985
148 0.005023
151 0.00502
157 0.004977
172 0.006986
184 0.006983
196 0.005986
208 0.005991
219 0.005215
180 0.006981
102 0.006982
49 0.005945
39 0.005984
69 0.005984
89 0.005986
105 0.005986
132 0.006967
144 0.006972
145 0.006019
145 0.006024
147 0.005961
152 0.006984
164 0.006964
177 0.005983
190 0.006953
208 0.00695
187 0.006951
88 0.006965
41 0.006952
36 0.006987
54 0.005984
