143 0.009974
146 0.006013
155 0.005948
167 0.005954
154 0.005981
81 0.005993
53 0.005954
48 0.005982
56 0.006951
67 0.006948
85 0.005984
96 0.005987
111 0.005971
109 0.00595
109 0.00598
114 0.005993
121 0.006004
130 0.005984
142 0.006024
151 0.005984
158 0.006955
121 0.006952
56 0.005948
40 0.005995
48 0.006017
59 0.006026
67 0.00602
85 0.005983
97 0.005974
102 0.006949
102 0.007033
105 0.005958
111 0.006982
121 0.000996
142 0.007008
154 0.006981
162 0.006014
128 0.007018
70 0.007019
40 0.007013
34 0.007004
40 0.007012
49 0.006981
64 0.007018
78 0.007018
92 0.005979
94 0.006982
97 0.00601
102 0.00601
109 0.006024
118 0.007979
128 0.007969
139 0.006969
145 0.007008
154 0.006976
148 0.006971
91 0.007016
47 0.006986
34 0.006975
42 0.006987
55 0.005984
68 0.005984
82 0.007943
92 0.007936
95 0.006995
97 0.006981
100 0.006982
106 0.006981
115 0.00698
125 0.006982
141 0.007979
150 0.006981
158 0.006981
169 0.006983
149 0.007937
71 0.007946
38 0.0
46 0.004987
58 0.006949
71 0.006975
86 0.006984
102 0.006948
101 0.006017
100 0.007024
105 0.007014
115 0.007978
121 0.007979
134 0.007019
143 0.00688
152 0.006981
161 0.007979
171 0.007978
136 0.007026
54 0.007982
43 0.007022
46 0.007021
61 0.006981
80 0.007974
92 0.007978
110 0.006976
111 0.006982
108 0.006939
107 0.007949
111 0.007987
121 0.006967
134 0.007978
149 0.007947
158 0.007978
162 0.007979
171 0.0
61 0.007015
40 0.006973
39 0.007948
57 0.0
91 0.007975
104 0.007975
106 0.007978
103 0.007969
105 0.007984
107 0.007979
118 0.00799
127 0.007979
140 0.006981
150 0.006933
162 0.007022
164 0.006982
112 0.006986
38 0.006971
32 0.006989
43 0.007985
47 0.007971
58 0.007979
78 0.007978
91 0.007979
100 0.006975
98 0.007015
100 0.006956
107 0.007024
116 0.007017
133 0.006984
142 0.007017
155 0.006985
165 0.007976
166 0.007974
109 0.007978
45 0.007983
32 0.007975
40 0.006981
51 0.006982
62 0.007001
87 0.006982
96 0.006881
100 0.007012
100 0.006982
103 0.006983
110 0.007945
116 0.007978
127 0.007979
144 0.006981
154 0.007015
163 0.006982
172 0.006983
139 0.00698
74 0.006979
40 0.006946
36 0.006963
47 0.00698
59 0.007027
72 0.007015
87 0.006018
102 0.006984
103 0.007018
102 0.007012
103 0.006944
114 0.006982
124 0.006967
135 0.006962
148 0.006947
157 0.00698
167 0.00702
175 0.00702
173 0.006026
93 0.006015
50 0.006982
39 0.007016
47 0.007009
70 0.007009
86 0.007015
103 0.006982
113 0.006966
111 0.006981
107 0.006996
108 0.005984
115 0.005984
127 0.005984
137 0.005973
148 0.005951
157 0.007022
171 0.007018
176 0.006962
127 0.006977
56 0.006992
39 0.006975
45 0.006023
58 0.006016
73 0.005943
95 0.005981
109 0.005984
113 0.005984
108 0.00597
106 0.006975
111 0.007013
120 0.007101
133 0.006991
143 0.00699
152 0.006982
161 0.006981
169 0.006035
112 0.005984
54 0.006018
30 0.005943
29 0.005984
48 0.006019
60 0.005984
75 0.005986
93 0.005995
95 0.005986
93 0.006027
94 0.006982
99 0.00602
110 0.005984
121 0.006023
131 0.006019
140 0.005984
155 0.005986
158 0.005985
109 0.006032
38 0.006016
24 0.0
37 0.005983
48 0.005016
65 0.005067
80 0.004987
90 0.004987
91 0.006019
93 0.005988
99 0.005984
108 0.005979
119 0.005984
133 0.005988
143 0.00597
152 0.006017
160 0.005021
169 0.00537
149 0.005986
81 0.006021
27 0.005986
30 0.005022
41 0.004985
51 0.004978
63 0.004988
83 0.00498
94 0.004941
98 0.00603
97 0.006029
99 0.005984
107 0.006019
117 0.005035
135 0.005008
139 0.010967
157 0.000997
168 0.002997
180 0.004969
140 0.005024
73 0.005038
38 0.005986
34 0.005984
48 0.005984
60 0.004987
84 0.00499
99 0.004986
106 0.004988
106 0.004992
105 0.004979
110 0.004985
117 0.004021
129 0.004987
140 0.004986
151 0.004022
163 0.003973
172 0.005028
185 0.005011
176 0.004989
108 0.004986
55 0.004987
38 0.004965
49 0.00497
63 0.005023
77 0.005021
94 0.004986
109 0.004027
115 0.00399
114 0.011968
108 0.0
116 0.004984
126 0.004991
137 0.004989
148 0.004953
161 0.004988
171 0.005019
181 0.005019
187 0.004986
142 0.004987
61 0.005022
42 0.005044
56 0.003989
73 0.004
90 0.00396
110 0.003958
124 0.003958
123 0.003992
117 0.005021
115 0.005023
120 0.005029
129 0.005023
145 0.004987
156 0.005003
174 0.004025
185 0.003984
194 0.004
153 0.00399
83 0.00398
44 0.003949
47 0.00399
60 0.004992
70 0.01097
86 0.0
119 0.004024
128 0.003972
122 0.003993
120 0.00396
125 0.003998
135 0.00399
146 0.00399
162 0.003961
174 0.003997
185 0.003958
197 0.005022
174 0.003986
85 0.00399
53 0.004022
52 0.00398
65 0.003992
78 0.00399
95 0.003956
113 0.004027
123 0.003956
119 0.00402
116 0.003993
118 0.003991
124 0.002993
138 0.00399
148 0.004037
164 0.003946
174 0.004005
165 0.003934
101 0.003958
49 0.004016
29 0.003976
36 0.003992
48 0.003991
60 0.00399
75 0.004023
96 0.004012
102 0.003989
99 0.004031
100 0.003992
106 0.003991
116 0.00396
127 0.002939
138 0.003002
150 0.002992
160 0.002992
167 0.002998
170 0.002999
116 0.002958
24 0.002992
13 0.003991
21 0.003991
32 0.003969
43 0.003964
58 0.003989
74 0.00396
83 0.00399
82 0.003037
82 0.003024
88 0.002996
96 0.002992
111 0.012966
124 0.0
143 0.002992
152 0.003952
160 0.003962
167 0.00396
174 0.003946
161 0.003939
86 0.003991
29 0.002992
12 0.002994
17 0.002958
36 0.003023
46 0.002967
66 0.003041
80 0.002993
85 0.002983
84 0.003987
85 0.003957
93 0.002992
102 0.003975
114 0.003956
126 0.002995
137 0.002992
154 0.002992
161 0.002963
170 0.002993
177 0.002969
181 0.003032
138 0.002988
64 0.002992
17 0.003958
19 0.003991
32 0.002992
40 0.0
56 0.001979
82 0.001993
91 0.002993
92 0.002973
90 0.002993
94 0.002982
102 0.002975
114 0.002993
131 0.001995
143 0.002031
154 0.001995
163 0.001995
172 0.003002
184 0.003024
192 0.001995
189 0.003022
119 0.002986
55 0.002989
31 0.002977
34 0.002977
55 0.002992
72 0.003024
89 0.001994
106 0.001995
115 0.001995
107 0.002045
105 0.001995
111 0.001994
121 0.001995
134 0.001991
147 0.003065
159 0.00299
174 0.002992
183 0.001995
192 0.001994
201 0.001995
194 0.001995
78 0.001992
47 0.001998
49 0.001974
66 0.001996
84 0.001994
104 0.002994
125 0.001989
136 0.003024
128 0.001994
120 0.001995
119 0.001996
132 0.002015
144 0.001995
156 0.001997
171 0.002013
182 0.001995
192 0.001995
200 0.00199
173 0.000998
77 0.002995
44 0.000997
41 0.001995
53 0.001996
80 0.001995
97 0.002002
114 0.001996
122 0.001986
117 0.001995
113 0.002034
116 0.001991
124 0.001993
139 0.001996
150 0.000997
162 0.001029
171 0.001961
188 0.001995
186 0.001984
122 0.001993
49 0.001993
34 0.002005
40 0.00199
53 0.001995
67 0.001995
81 0.001995
102 0.002065
108 0.001995
107 0.000998
106 0.001017
112 0.001011
122 0.001
134 0.000997
149 0.001998
159 0.001995
169 0.001947
178 0.001994
186 0.002029
137 0.001995
70 0.000999
38 0.000997
42 0.001013
57 0.000983
65 0.01496
91 0.0
105 0.000991
111 0.001028
109 0.001978
107 0.001996
110 0.001995
122 0.000997
133 0.000957
145 0.001995
161 0.000987
170 0.001029
178 0.001014
186 0.001045
149 0.000997
87 0.000992
55 0.000999
54 0.000991
66 0.000947
84 0.000997
98 0.000998
114 0.001995
124 0.000979
120 0.000994
116 0.001014
119 0.000997
131 0.000994
141 0.000986
151 0.000996
161 0.000992
169 0.000998
178 0.000997
184 0.000998
184 0.000997
94 0.001043
60 0.000997
57 0.001005
68 0.000995
85 0.000998
96 0.0
111 0.0
120 0.0
119 0.000998
113 0.00099
114 0.000999
121 0.000998
138 0.000998
147 0.000997
156 0.001
164 0.000986
171 0.001018
177 0.000995
182 0.000994
152 0.0
89 0.0
49 0.0
51 0.0
61 0.001005
75 0.000984
84 0.0
98 0.0
106 0.0
104 0.001001
104 0.000997
107 0.000997
115 0.000981
121 0.015958
127 0.0
146 0.0
158 0.0
164 0.0
170 0.0
175 0.0
179 0.0
185 0.0
156 0.000944
92 0.0
54 0.0
49 0.0
61 0.001033
68 0.0
81 0.001003
95 0.000997
104 0.0
107 0.0
104 0.0
106 0.0
113 0.0
123 0.0
137 0.0
144 0.0
155 0.0
163 0.0
172 0.0
177 0.0
183 0.000966
188 0.0
191 0.0
148 0.000997
104 0.000998
59 0.0
60 0.0
73 0.0
89 0.0
98 0.000996
118 0.0
121 0.0
116 0.0
111 0.0
116 0.0
125 0.0
135 0.000998
149 0.0
158 0.0
166 0.0
173 0.0
178 0.000997
186 0.0
191 0.001
182 0.000987
103 0.0
63 0.0
56 0.0
67 0.001045
81 0.000967
95 0.0
106 0.0
118 0.0
121 0.000999
115 0.0
115 0.0
117 0.016954
125 0.001004
145 0.0
152 0.0
164 0.0
172 0.0
181 0.0
186 0.0
191 0.0
195 0.001029
195 0.0
137 0.001016
75 0.000998
47 0.0
53 0.0
67 0.0
78 0.000998
85 0.001957
102 0.0
108 0.000999
112 0.000998
109 0.000998
112 0.0
120 0.001014
131 0.000991
146 0.000995
157 0.0
167 0.0
175 0.00098
182 0.002052
190 0.00094
193 0.000998
198 0.0
200 0.016924
208 0.0
107 0.001007
59 0.001002
49 0.001011
62 0.00099
79 0.001022
93 0.002011
105 0.001995
122 0.000988
122 0.000984
114 0.000958
108 0.000996
112 0.000998
125 0.000999
137 0.000987
152 0.001002
163 0.0
171 0.000991
178 0.00198
183 0.001006
191 0.000998
196 0.001031
159 0.000996
54 0.001001
39 0.001005
46 0.002007
63 0.001964
79 0.001953
99 0.0
113 0.001013
119 0.002032
114 0.001993
108 0.000997
114 0.000997
134 0.000983
145 0.002001
156 0.002028
165 0.001991
175 0.000997
181 0.000986
186 0.000988
192 0.002018
183 0.002036
85 0.000998
35 0.001041
23 0.001022
42 0.000998
56 0.000994
66 0.002005
79 0.001974
95 0.002003
97 0.000989
94 0.000996
92 0.001995
97 0.001994
109 0.000993
122 0.00101
133 0.000995
151 0.001002
159 0.00103
166 0.00198
172 0.002026
180 0.001997
182 0.002993
137 0.000997
25 0.001994
28 0.002018
50 0.000948
64 0.001035
86 0.001005
98 0.000997
100 0.002019
95 0.002004
89 0.002991
94 0.001947
105 0.001964
116 0.003021
128 0.003023
139 0.003015
151 0.001995
155 0.002027
165 0.002002
171 0.00201
136 0.000976
66 0.001994
28 0.003032
30 0.002001
47 0.002035
64 0.001983
78 0.002994
93 0.002994
104 0.003029
104 0.002993
93 0.001964
96 0.001981
102 0.002993
114 0.0
130 0.002993
145 0.001981
153 0.001994
160 0.001991
165 0.002965
171 0.003985
177 0.002035
144 0.002034
36 0.000998
18 0.00099
25 0.001989
40 0.003015
52 0.003026
65 0.002029
78 0.002035
87 0.001045
89 0.003029
85 0.002989
87 0.002031
95 0.002001
115 0.001957
126 0.002041
137 0.003023
146 0.003023
154 0.003021
161 0.001995
166 0.001981
172 0.001971
173 0.003005
120 0.002988
38 0.001984
22 0.018949
27 0.0
49 0.001994
57 0.002998
68 0.003948
83 0.002955
93 0.001997
92 0.00204
90 0.00203
94 0.002995
102 0.002999
118 0.001996
135 0.003032
150 0.002027
158 0.002028
165 0.002032
170 0.003027
175 0.003955
182 0.00199
183 0.002022
126 0.002005
60 0.003028
34 0.003033
44 0.003046
67 0.004023
83 0.002993
97 0.003024
110 0.001986
111 0.002995
104 0.003983
99 0.003024
104 0.002025
115 0.001966
128 0.004034
141 0.00402
155 0.003025
167 0.004036
174 0.002028
180 0.002029
185 0.002037
179 0.003046
114 0.003036
44 0.003045
35 0.003
47 0.003006
65 0.00402
79 0.003987
95 0.00299
112 0.00399
113 0.000996
108 0.0
106 0.001994
112 0.003025
124 0.003984
141 0.002988
145 0.019947
157 0.000997
172 0.003988
178 0.003991
185 0.003025
192 0.00402
124 0.001991
58 0.00299
32 0.002994
36 0.004001
50 0.004059
66 0.002975
75 0.002999
88 0.003004
101 0.004034
106 0.005073
104 0.003026
106 0.005027
118 0.003024
130 0.003024
143 0.002981
155 0.004014
166 0.004023
176 0.002985
183 0.002982
191 0.00302
194 0.002992
150 0.004023
77 0.004024
36 0.005028
46 0.005019
64 0.00402
76 0.002991
87 0.004026
102 0.004032
112 0.004021
114 0.002993
110 0.002994
112 0.002982
121 0.004025
125 0.020954
154 0.001004
165 0.004953
178 0.003986
186 0.004018
194 0.00406
189 0.005018
125 0.005016
52 0.003984
42 0.004991
53 0.004019
70 0.005023
90 0.004025
112 0.004983
126 0.005022
128 0.003958
122 0.003964
121 0.00399
125 0.00502
136 0.004986
152 0.004031
165 0.003976
177 0.00402
188 0.005985
201 0.004013
198 0.005028
127 0.004234
60 0.004024
55 0.003009
70 0.004023
91 0.005016
111 0.004881
131 0.004986
144 0.000961
153 0.0
136 0.003988
129 0.003953
136 0.004985
148 0.004985
165 0.003979
177 0.003977
189 0.003993
199 0.005017
209 0.005003
151 0.003988
81 0.004022
52 0.004008
56 0.004983
88 0.005018
106 0.006036
126 0.005016
145 0.003992
143 0.003985
133 0.004023
127 0.005035
129 0.005005
142 0.004024
155 0.004008
167 0.005024
179 0.005984
195 0.00501
201 0.020909
197 0.000996
93 0.003002
44 0.006029
35 0.003999
47 0.005028
63 0.005027
84 0.004017
98 0.004976
113 0.003973
118 0.006018
111 0.005023
111 0.006037
116 0.006018
131 0.003945
145 0.00406
157 0.005016
168 0.006022
178 0.006016
190 0.005045
198 0.00498
172 0.004018
90 0.005043
26 0.003998
32 0.005981
48 0.00502
68 0.004023
80 0.004009
96 0.004984
107 0.006026
109 0.006026
103 0.004987
104 0.004996
111 0.005025
123 0.006032
136 0.021942
149 0.0
170 0.005977
183 0.004023
191 0.005028
197 0.00501
204 0.006025
185 0.006025
78 0.004991
37 0.005019
33 0.005027
47 0.006032
77 0.005027
91 0.006024
108 0.006982
121 0.004993
116 0.00502
110 0.005024
110 0.007027
116 0.007032
132 0.004987
145 0.005019
158 0.004985
170 0.005983
186 0.004953
194 0.006003
201 0.00602
205 0.00502
149 0.005
76 0.005018
47 0.005019
50 0.006014
68 0.007037
76 0.022907
103 0.0
149 0.005986
148 0.005984
135 0.005986
125 0.007017
124 0.007018
134 0.005019
146 0.004975
158 0.004
170 0.005973
180 0.006016
192 0.005983
200 0.006014
189 0.006012
110 0.00598
56 0.005986
41 0.007022
51 0.007019
77 0.006017
97 0.005993
117 0.005019
134 0.006001
136 0.007012
118 0.005994
110 0.005976
116 0.006014
127 0.006982
141 0.006056
153 0.007023
163 0.007016
175 0.005985
184 0.006017
187 0.0
46 0.006985
18 0.006003
28 0.006057
56 0.005969
70 0.005983
85 0.006038
97 0.007009
99 0.007017
92 0.005987
89 0.00602
94 0.005977
105 0.007016
122 0.007974
135 0.007036
146 0.006981
160 0.005985
166 0.005978
173 0.005985
159 0.00702
83 0.006985
15 0.005994
9 0.005983
20 0.006019
40 0.007985
51 0.007968
63 0.007014
77 0.007015
85 0.007016
82 0.007019
82 0.00605
88 0.007027
99 0.000995
107 0.000997
129 0.005986
141 0.006018
153 0.007976
161 0.007985
167 0.007012
172 0.007011
180 0.007017
185 0.006027
189 0.007978
157 0.0
55 0.007975
18 0.005986
25 0.005986
41 0.006969
59 0.007973
66 0.007973
84 0.006952
94 0.007016
93 0.006983
91 0.007048
94 0.007014
107 0.007972
120 0.007976
138 0.00699
150 0.007968
157 0.006988
169 0.007978
176 0.007992
181 0.00698
186 0.007017
193 0.007013
199 0.006984
206 0.007016
172 0.007983
92 0.007974
41 0.006981
43 0.006983
54 0.007015
82 0.007987
99 0.007979
116 0.007155
131 0.007979
121 0.006976
110 0.007009
107 0.007001
116 0.007981
129 0.007976
142 0.00702
156 0.007015
168 0.00798
181 0.006959
188 0.006976
194 0.006985
199 0.008043
205 0.006981
190 0.00698
115 0.006989
46 0.007973
37 0.007978
50 0.006982
69 0.007016
81 0.008976
98 0.0
119 0.000963
124 0.007016
108 0.007013
105 0.007014
111 0.006981
121 0.006968
140 0.007014
153 0.007977
165 0.007977
178 0.006973
186 0.006972
192 0.006966
196 0.006975
200 0.006978
204 0.007014
148 0.006994
53 0.006964
32 0.007019
31 0.006994
41 0.00798
58 0.00798
80 0.007026
89 0.006982
104 0.006982
105 0.006986
99 0.006992
98 0.006972
106 0.007023
123 0.007016
136 0.006984
149 0.006977
149 0.024899
160 0.0
181 0.006981
187 0.00698
192 0.006965
195 0.006995
199 0.006981
201 0.007012
132 0.007012
43 0.007016
24 0.006985
30 0.006978
47 0.00598
63 0.006983
79 0.005983
94 0.006977
103 0.006951
103 0.005978
97 0.006002
97 0.006023
106 0.00602
122 0.00702
136 0.006976
149 0.006967
162 0.007017
172 0.00698
182 0.00698
188 0.00699
192 0.005988
197 0.005984
204 0.005989
143 0.006022
70 0.005984
54 0.0
35 0.0
60 0.006979
80 0.006966
96 0.006968
119 0.006979
128 0.005944
121 0.005965
110 0.005978
105 0.005981
115 0.006017
127 0.006015
145 0.005985
157 0.005956
168 0.006966
175 0.006993
182 0.006983
191 0.006981
198 0.00597
185 0.005983
109 0.006014
51 0.005975
35 0.006015
52 0.006017
79 0.006017
95 0.005984
114 0.006026
124 0.005973
121 0.005986
106 0.005981
102 0.005024
107 0.005994
118 0.005942
121 0.000999
152 0.006028
163 0.006018
174 0.005975
180 0.005986
186 0.005975
190 0.005982
146 0.005986
48 0.005952
19 0.005991
20 0.00598
35 0.005979
60 0.006014
70 0.005021
84 0.004957
94 0.007017
91 0.004982
86 0.005012
87 0.004981
96 0.005015
112 0.005992
125 0.006021
137 0.006012
145 0.009975
155 0.000997
164 0.0
172 0.005936
179 0.005973
176 0.004985
113 0.004987
44 0.004975
13 0.004987
18 0.005984
34 0.005984
46 0.005984
54 0.005989
75 0.00602
83 0.00602
84 0.00598
80 0.004964
83 0.004985
92 0.004986
104 0.004985
117 0.004988
130 0.004986
145 0.004961
154 0.00496
163 0.005979
172 0.006018
177 0.006023
181 0.005025
187 0.00502
192 0.011008
183 0.001961
25 0.00499
23 0.005053
44 0.005044
61 0.004978
72 0.004978
94 0.005032
101 0.005022
99 0.005985
93 0.005036
94 0.005013
103 0.004988
115 0.004986
129 0.00499
143 0.00498
158 0.005006
168 0.004996
175 0.004985
183 0.005021
186 0.004984
191 0.006002
197 0.005019
201 0.004987
141 0.00499
72 0.004985
45 0.004986
48 0.004987
74 0.004987
94 0.004952
111 0.004983
137 0.005033
134 0.005024
120 0.005029
110 0.005019
113 0.004992
123 0.00396
138 0.003983
152 0.003988
165 0.004983
178 0.004951
181 0.010958
186 0.0
198 0.00502
202 0.005022
166 0.004033
89 0.004043
37 0.003991
38 0.003992
55 0.00395
75 0.00399
92 0.003954
114 0.005
126 0.003953
123 0.004988
107 0.004992
106 0.004992
114 0.004022
126 0.004014
144 0.00399
157 0.003994
167 0.003995
176 0.003949
183 0.003953
190 0.003951
195 0.004012
182 0.004023
104 0.00502
43 0.004041
23 0.005024
29 0.004018
51 0.003992
65 0.00399
74 0.003953
78 0.000997
99 0.002036
93 0.004025
96 0.003991
106 0.00402
118 0.003992
131 0.004055
143 0.004021
158 0.003996
167 0.003951
172 0.00395
177 0.00396
182 0.003978
182 0.027891
188 0.000964
79 0.003979
35 0.004
26 0.004026
37 0.00399
53 0.00399
70 0.003991
79 0.003985
93 0.003992
102 0.003991
101 0.003991
97 0.00399
99 0.003985
115 0.004024
128 0.003992
141 0.003992
152 0.004024
162 0.002992
170 0.001
180 0.002957
184 0.002956
190 0.004007
186 0.003975
123 0.003948
49 0.003992
50 0.003982
66 0.00396
86 0.003989
101 0.00399
118 0.003955
129 0.002986
127 0.002948
118 0.002997
109 0.002997
113 0.002993
123 0.00399
140 0.00301
154 0.003029
164 0.00399
171 0.004019
175 0.003023
179 0.00398
185 0.002962
187 0.002984
145 0.002994
80 0.002988
46 0.002989
49 0.003006
73 0.002992
91 0.002992
94 0.0
102 0.000997
113 0.002993
106 0.002992
108 0.002994
116 0.002989
128 0.002989
141 0.00299
154 0.002975
166 0.002992
173 0.003982
178 0.003027
181 0.00399
185 0.003955
185 0.001973
108 0.002961
50 0.002992
29 0.002988
35 0.00299
49 0.002989
63 0.002992
72 0.003991
89 0.004023
95 0.003022
94 0.002992
92 0.001995
93 0.002002
103 0.002999
115 0.003011
127 0.002993
138 0.003001
149 0.00299
161 0.002958
166 0.002992
172 0.002992
176 0.001997
182 0.003031
170 0.001995
103 0.001995
38 0.002022
30 0.001989
43 0.001981
60 0.002992
72 0.002986
88 0.00299
100 0.002989
101 0.002992
95 0.003027
92 0.001995
98 0.001992
108 0.001998
124 0.001992
136 0.001995
147 0.001994
155 0.001995
161 0.001981
169 0.00304
173 0.002992
181 0.002997
158 0.002028
92 0.001995
50 0.002028
42 0.001999
61 0.001998
79 0.001995
93 0.001993
105 0.001991
118 0.002002
116 0.002001
108 0.003029
107 0.002992
115 0.001994
126 0.001996
138 0.001995
150 0.001994
163 0.001997
171 0.001985
176 0.001994
180 0.001994
185 0.001979
193 0.00106
180 0.001005
91 0.002009
49 0.001996
40 0.002046
51 0.002039
66 0.001997
80 0.001995
87 0.001998
99 0.00205
107 0.001996
106 0.001998
102 0.001995
105 0.001996
118 0.001995
130 0.001027
141 0.000997
152 0.000998
161 0.001982
171 0.002042
176 0.002025
181 0.001994
184 0.001966
189 0.00194
198 0.002046
160 0.001997
71 0.001995
43 0.000996
44 0.000998
59 0.000998
74 0.001031
87 0.000998
96 0.001993
108 0.001995
111 0.002009
107 0.002007
105 0.002043
112 0.002051
126 0.001995
138 0.001003
150 0.001007
162 0.000997
171 0.001005
180 0.001029
186 0.000998
190 0.000984
193 0.002015
197 0.00101
208 0.001995
199 0.001995
129 0.002021
62 0.001006
54 0.001029
67 0.000997
87 0.001011
104 0.000991
123 0.001013
136 0.000998
139 0.001009
130 0.000993
118 0.002033
122 0.002035
131 0.000998
148 0.000998
161 0.000999
172 0.000997
181 0.000999
188 0.001003
194 0.000967
198 0.001
203 0.001005
207 0.002031
151 0.000997
83 0.001995
53 0.001015
60 0.001
79 0.000998
99 0.000997
115 0.000999
131 0.000967
142 0.000977
134 0.000999
121 0.000998
118 0.001
126 0.000997
137 0.0
151 0.002035
167 0.001004
177 0.001002
186 0.001028
191 0.001048
197 0.000968
203 0.000984
199 0.000986
133 0.00099
38 0.000963
30 0.000998
42 0.0
60 0.0
79 0.0
89 0.0
102 0.001004
108 0.0
105 0.001015
98 0.001008
100 0.001001
108 0.000994
129 0.000998
142 0.0
154 0.0
165 0.0
176 0.0
181 0.0
186 0.0
190 0.0
196 0.0
174 0.0
93 0.0
37 0.0
25 0.001004
42 0.0
59 0.0
71 0.000998
85 0.0
97 0.0
102 0.0
99 0.0
95 0.0
100 0.0
109 0.0
122 0.0
145 0.0
158 0.0
168 0.0
176 0.0
184 0.0
188 0.0
193 0.0
199 0.0
203 0.0
124 0.0
57 0.0
32 0.0
50 0.0
72 0.0
88 0.000998
100 0.000997
118 0.0
120 0.0
112 0.0
104 0.0
103 0.0
114 0.0
128 0.0
142 0.0
163 0.0
174 0.0
178 0.000997
182 0.000997
188 0.002027
194 0.002025
165 0.0
89 0.0
44 0.0
36 0.000983
51 0.00099
79 0.0
103 0.001026
125 0.0
131 0.0
126 0.000997
111 0.000999
106 0.000997
112 0.000997
126 0.0
140 0.0
153 0.000994
165 0.001016
178 0.000997
184 0.001
192 0.0
185 0.0
116 0.0
48 0.000998
22 0.000994
27 0.001034
49 0.000994
60 0.000997
74 0.0
87 0.001993
100 0.0
96 0.00103
91 0.001032
95 0.0
104 0.0
116 0.0
130 0.000998
141 0.001009
154 0.0
161 0.00097
164 0.000998
172 0.001982
165 0.0
97 0.00103
40 0.001046
21 0.0
34 0.0
50 0.0
62 0.001032
70 0.000999
82 0.000966
97 0.0
98 0.0
95 0.001994
100 0.0
110 0.001997
122 0.002028
139 0.0
150 0.0
159 0.0
165 0.000998
170 0.001044
177 0.0
182 0.0
186 0.000969
149 0.000995
69 0.001001
49 0.001994
61 0.001995
83 0.0
94 0.0
104 0.0
117 0.001037
122 0.001
115 0.0
110 0.0
113 0.0
122 0.001001
141 0.000998
152 0.001999
161 0.001996
171 0.000994
176 0.0
181 0.0
187 0.000998
188 0.001013
125 0.000968
80 0.000997
67 0.0
78 0.000991
104 0.000997
114 0.002029
124 0.002007
137 0.002028
134 0.001023
126 0.00103
123 0.001995
127 0.001995
140 0.000997
151 0.000964
161 0.000966
169 0.000996
179 0.000967
182 0.001996
186 0.001997
192 0.001016
187 0.000998
136 0.000983
84 0.001995
65 0.002013
75 0.000958
88 0.000967
97 0.000956
102 0.001004
116 0.001001
121 0.001994
119 0.001995
115 0.000964
119 0.000967
128 0.001993
138 0.001996
148 0.002032
160 0.001964
167 0.002039
174 0.000991
178 0.001985
184 0.001011
188 0.002992
192 0.002993
199 0.000998
193 0.001001
138 0.000966
85 0.001995
66 0.001995
76 0.001993
87 0.001021
93 0.000995
100 0.000998
110 0.000989
117 0.002983
116 0.003031
114 0.001046
118 0.000996
125 0.000998
135 0.002026
145 0.002055
158 0.001011
165 0.001034
172 0.001002
181 0.000959
185 0.002038
189 0.002993
193 0.002992
199 0.001017
203 0.000953
209 0.000985
215 0.00204
213 0.001982
136 0.000972
89 0.002035
76 0.000991
93 0.001984
106 0.001
113 0.000971
118 0.002978
127 0.001987
131 0.000953
126 0.000952
122 0.001008
125 0.003013
132 0.003
145 0.002065
155 0.001993
169 0.001011
176 0.001015
181 0.001003
185 0.002992
189 0.002992
193 0.001008
196 0.000997
201 0.000991
207 0.002992
198 0.003001
124 0.001994
88 0.001998
89 0.002014
105 0.002004
120 0.00195
131 0.002993
144 0.002992
150 0.001981
142 0.00195
134 0.00195
131 0.002992
134 0.003011
147 0.001002
158 0.001998
175 0.000987
182 0.00104
188 0.001949
193 0.00399
196 0.00399
199 0.001995
204 0.00195
202 0.002001
150 0.003957
91 0.003026
62 0.000983
68 0.000958
91 0.002049
101 0.000972
108 0.001967
117 0.002959
122 0.002992
118 0.001992
113 0.002998
113 0.019956
114 0.0
169 0.002
175 0.001998
180 0.002011
183 0.003036
187 0.003989
194 0.001987
181 0.001995
119 0.002994
67 0.003026
50 0.004024
62 0.001956
76 0.002018
91 0.003024
99 0.003032
109 0.002025
112 0.004025
110 0.004032
107 0.001989
110 0.001995
119 0.002989
130 0.004036
141 0.005034
154 0.000952
165 0.00399
174 0.002993
178 0.00399
182 0.003034
186 0.004046
190 0.003989
196 0.003024
203 0.002024
194 0.001984
133 0.004025
79 0.005034
62 0.002953
78 0.003991
98 0.002982
106 0.003013
113 0.003014
122 0.004032
124 0.004027
116 0.001983
113 0.003021
116 0.003024
124 0.003991
135 0.004023
149 0.002975
161 0.00402
171 0.00302
175 0.002995
179 0.002938
182 0.004986
186 0.004026
192 0.00299
195 0.002991
156 0.002988
98 0.00399
71 0.003991
76 0.002024
99 0.004988
118 0.002995
131 0.002995
142 0.002977
142 0.004986
132 0.005021
121 0.002988
122 0.002977
128 0.00301
138 0.00399
149 0.004026
162 0.002959
172 0.004986
178 0.003024
182 0.003993
186 0.002996
190 0.003925
167 0.005036
105 0.004986
56 0.00301
54 0.003977
67 0.002984
84 0.004023
96 0.005035
112 0.005033
118 0.005038
111 0.004022
103 0.004024
100 0.003024
106 0.005019
116 0.005032
131 0.002977
141 0.002983
147 0.004998
156 0.003968
160 0.004027
167 0.004982
171 0.004987
136 0.003976
71 0.003988
33 0.004
28 0.00503
40 0.004987
56 0.002987
63 0.002989
69 0.003995
79 0.004991
86 0.00503
85 0.006025
84 0.006016
91 0.003976
101 0.00399
113 0.003975
124 0.004987
134 0.004989
145 0.004008
152 0.004021
157 0.004029
161 0.005977
165 0.005993
173 0.006015
180 0.006021
144 0.003982
79 0.003988
42 0.003994
38 0.004992
50 0.00502
68 0.003991
73 0.003992
78 0.00399
89 0.005022
98 0.006028
99 0.005984
98 0.006017
106 0.003993
116 0.003989
127 0.003989
138 0.006038
148 0.004984
159 0.003992
166 0.003989
171 0.003997
175 0.00598
183 0.004008
188 0.005982
193 0.005982
200 0.004024
205 0.003986
212 0.00399
217 0.006027
187 0.006983
98 0.003989
67 0.003984
68 0.004985
83 0.005985
107 0.00399
113 0.005992
121 0.006027
129 0.003989
124 0.004053
118 0.003978
117 0.006027
122 0.006029
135 0.003988
147 0.002027
156 0.003954
164 0.005063
174 0.003988
178 0.006017
181 0.005984
186 0.004358
189 0.004022
194 0.003997
200 0.006948
177 0.007
99 0.004965
70 0.004982
70 0.004975
85 0.005985
112 0.004988
123 0.005988
134 0.005984
139 0.005003
130 0.00502
123 0.003983
122 0.005972
128 0.006981
141 0.00496
153 0.004981
163 0.004987
172 0.006016
182 0.004985
187 0.005984
191 0.005984
194 0.004973
196 0.005984
203 0.005028
188 0.005984
124 0.006983
62 0.004993
54 0.005004
65 0.004987
80 0.007013
98 0.004987
105 0.005984
114 0.006003
115 0.004986
111 0.005984
108 0.004986
110 0.005982
118 0.007039
133 0.005989
144 0.006016
154 0.004979
163 0.004988
174 0.004986
179 0.005978
183 0.006982
186 0.007022
191 0.004986
195 0.005986
199 0.00599
206 0.006982
191 0.007015
95 0.006003
51 0.005984
42 0.006032
64 0.005994
78 0.006024
86 0.007013
92 0.00702
104 0.004991
105 0.006024
101 0.005018
98 0.006977
101 0.007013
112 0.005983
124 0.005984
136 0.00598
153 0.00598
162 0.005982
168 0.006984
173 0.006981
178 0.006003
182 0.00598
185 0.005985
189 0.006981
194 0.007014
204 0.004988
180 0.005952
68 0.005988
43 0.005982
47 0.00598
65 0.007026
84 0.006999
101 0.005981
114 0.005959
121 0.006001
116 0.007026
105 0.007035
97 0.006032
101 0.006027
120 0.005984
133 0.005994
145 0.005984
159 0.007977
164 0.007979
171 0.005944
175 0.005949
179 0.004997
184 0.007012
179 0.006981
98 0.007018
49 0.006982
38 0.006017
55 0.006981
75 0.006957
93 0.007968
101 0.008014
114 0.005968
112 0.005983
103 0.005971
97 0.007979
99 0.007959
111 0.005976
124 0.005978
144 0.00599
154 0.005972
163 0.00601
168 0.007933
172 0.007979
179 0.006988
183 0.006979
163 0.005979
70 0.007968
38 0.007979
20 0.006024
32 0.005984
57 0.005953
65 0.006005
73 0.005996
85 0.00796
86 0.007979
83 0.007006
80 0.00603
84 0.006989
93 0.007979
109 0.007962
122 0.005981
133 0.006021
149 0.005991
155 0.005987
162 0.006975
165 0.007014
169 0.006981
174 0.006982
177 0.006002
136 0.005989
48 0.007015
21 0.007022
25 0.006984
45 0.006972
61 0.006983
68 0.006982
78 0.006973
87 0.007979
87 0.007979
81 0.007011
82 0.005963
90 0.005969
104 0.007983
117 0.007008
132 0.006946
142 0.006978
150 0.00697
155 0.006988
159 0.006983
163 0.007979
169 0.007979
173 0.006978
107 0.006978
55 0.006977
39 0.007015
48 0.007013
71 0.006982
81 0.006982
99 0.00698
111 0.006982
110 0.006956
104 0.007963
97 0.007952
100 0.006981
112 0.006986
125 0.006948
137 0.006977
147 0.007012
154 0.007014
161 0.006982
164 0.007015
168 0.002994
174 0.006976
168 0.005981
114 0.008031
60 0.00702
37 0.006979
48 0.006977
65 0.006979
78 0.007014
84 0.007013
100 0.007013
103 0.007017
97 0.006969
95 0.006979
98 0.00698
108 0.006016
119 0.005986
134 0.006018
144 0.006995
152 0.006979
158 0.006982
163 0.006983
170 0.006983
173 0.007015
177 0.006972
183 0.006949
189 0.005985
165 0.006052
95 0.00603
39 0.005984
35 0.00598
48 0.006978
62 0.007015
70 0.007013
79 0.007015
89 0.005983
93 0.00696
92 0.006022
91 0.006018
96 0.006016
105 0.006017
121 0.006029
133 0.006015
143 0.006017
152 0.007031
159 0.005995
167 0.007013
170 0.006009
176 0.00602
181 0.006015
186 0.006023
191 0.006014
197 0.006014
206 0.005981
209 0.005981
159 0.005982
83 0.005988
44 0.006013
47 0.007012
65 0.007017
82 0.006016
87 0.005994
96 0.006016
104 0.006016
103 0.006014
96 0.005984
96 0.006014
103 0.006014
114 0.006025
126 0.005989
145 0.007015
155 0.006022
165 0.006014
169 0.006016
173 0.006015
176 0.006015
180 0.006014
185 0.004995
193 0.006002
195 0.006017
145 0.004999
80 0.005018
48 0.004993
62 0.005016
88 0.005984
103 0.006034
117 0.005985
130 0.005984
131 0.006016
117 0.006014
110 0.005982
111 0.005987
118 0.006037
131 0.005039
154 0.004986
166 0.005026
177 0.00499
183 0.004985
188 0.005022
191 0.006016
194 0.005961
200 0.005982
196 0.006019
135 0.006019
67 0.006018
37 0.006017
46 0.005022
66 0.005021
85 0.004987
93 0.005018
104 0.005017
109 0.004988
106 0.005019
99 0.006013
99 0.006021
107 0.004993
119 0.004986
141 0.004972
154 0.005023
164 0.005019
175 0.00502
181 0.004988
185 0.005017
188 0.00502
191 0.00502
197 0.005046
196 0.005023
131 0.005046
60 0.005038
25 0.004983
36 0.005022
53 0.005046
68 0.004021
80 0.004988
90 0.005023
98 0.005019
97 0.004021
93 0.004021
92 0.004024
99 0.004991
110 0.005042
133 0.004985
148 0.004979
160 0.004017
169 0.00502
178 0.005019
182 0.004977
186 0.003984
191 0.005023
198 0.00399
184 0.004028
106 0.003942
48 0.004024
35 0.004996
52 0.005019
74 0.005022
92 0.004983
111 0.004986
124 0.005017
123 0.005019
111 0.004036
101 0.004023
103 0.004024
114 0.004021
128 0.003981
154 0.00399
166 0.004026
175 0.004989
180 0.005025
185 0.00502
191 0.005017
189 0.005019
130 0.005019
60 0.004014
26 0.003937
33 0.004026
52 0.003991
84 0.003013
99 0.00399
114 0.004021
117 0.005035
104 0.005045
95 0.003988
95 0.004021
103 0.003991
117 0.004022
138 0.004023
152 0.003948
164 0.004022
176 0.00396
183 0.004027
188 0.00402
150 0.003989
49 0.003992
16 0.00399
15 0.003994
31 0.003997
51 0.004035
67 0.00399
79 0.004022
92 0.003996
95 0.004002
90 0.00397
89 0.004023
94 0.003989
111 0.004028
125 0.003999
140 0.002995
153 0.002992
164 0.00404
174 0.003951
181 0.003982
185 0.004022
192 0.00397
198 0.003992
200 0.004022
139 0.003999
42 0.003989
18 0.004029
23 0.002996
40 0.002992
56 0.003027
69 0.00402
79 0.004031
90 0.004023
94 0.003959
90 0.004022
91 0.00402
99 0.004025
114 0.004026
129 0.003053
144 0.003037
157 0.003042
168 0.003991
180 0.004025
186 0.002992
195 0.003952
199 0.003943
205 0.004026
210 0.004025
216 0.003991
225 0.003975
233 0.002992
202 0.002992
108 0.002992
52 0.002992
38 0.003
51 0.003024
82 0.003937
94 0.00394
105 0.003991
114 0.003955
114 0.003972
104 0.003989
100 0.002992
103 0.002983
112 0.003036
126 0.002992
140 0.002992
158 0.003026
173 0.002997
182 0.002993
186 0.002992
188 0.003046
191 0.002053
196 0.003034
203 0.003037
157 0.002993
85 0.002992
51 0.002993
47 0.003042
67 0.002992
96 0.003001
119 0.00301
135 0.002993
140 0.003023
129 0.002993
114 0.002031
108 0.002034
114 0.001995
126 0.002015
141 0.002028
156 0.00203
173 0.003042
185 0.002991
194 0.002973
198 0.003025
201 0.003005
206 0.003024
199 0.002992
97 0.001999
44 0.002028
27 0.002029
33 0.002028
50 0.001996
74 0.001996
89 0.002993
104 0.002993
104 0.002993
97 0.002033
90 0.002028
90 0.002945
101 0.003029
113 0.003025
127 0.003023
140 0.003061
153 0.002161
166 0.002026
174 0.001966
179 0.001959
185 0.002028
184 0.001989
124 0.002024
52 0.001994
14 0.001995
17 0.002008
33 0.001999
51 0.001995
64 0.001995
79 0.002026
92 0.001991
87 0.001956
81 0.00196
81 0.002022
87 0.001995
98 0.001995
117 0.001995
131 0.002019
144 0.002035
154 0.002992
163 0.002006
170 0.002009
177 0.002036
185 0.001991
167 0.002027
89 0.002031
34 0.001995
16 0.001995
30 0.002034
50 0.000998
70 0.000967
85 0.002017
100 0.000997
104 0.002003
93 0.002002
84 0.00199
87 0.001995
97 0.001978
110 0.00203
126 0.00204
144 0.002031
154 0.001019
161 0.000999
168 0.000997
172 0.000998
180 0.000999
128 0.001005
43 0.001001
22 0.002027
27 0.002003
48 0.001987
70 0.001997
94 0.001998
112 0.000985
120 0.000998
110 0.000998
96 0.000998
91 0.001003
100 0.000992
118 0.001988
133 0.002025
148 0.002007
159 0.001997
167 0.002027
175 0.000998
179 0.000997
185 0.00103
179 0.001004
110 0.001034
20 0.000996
14 0.000998
34 0.000987
54 0.002038
68 0.001995
80 0.002032
92 0.001028
95 0.000998
89 0.001995
84 0.001999
87 0.000997
96 0.002025
118 0.002002
133 0.000993
145 0.001005
159 0.001003
167 0.001013
173 0.000999
178 0.0
182 0.000997
187 0.000998
193 0.001996
198 0.0
152 0.000998
35 0.0
16 0.00096
22 0.001007
47 0.000997
60 0.000976
69 0.000998
80 0.000997
90 0.000997
91 0.001009
88 0.000998
88 0.000998
94 0.001011
114 0.000998
129 0.000998
143 0.000996
159 0.0
169 0.0
176 0.0
182 0.0
187 0.0
193 0.000998
198 0.000997
203 0.000997
209 0.000984
222 0.000995
192 0.0
101 0.001002
39 0.0
34 0.0
49 0.0
71 0.0
89 0.0
106 0.0
119 0.0
121 0.0
112 0.0
100 0.001
104 0.001001
116 0.000997
135 0.0
150 0.0
165 0.0
176 0.0
185 0.0
193 0.0
197 0.0
199 0.0
203 0.0
215 0.0
176 0.000974
119 0.0
52 0.0
44 0.0
57 0.0
80 0.0
102 0.0
128 0.0
147 0.0
148 0.0
119 0.0
109 0.0
110 0.0
119 0.0
138 0.000997
155 0.000997
169 0.0
182 0.0
192 0.0
199 0.0
203 0.0
209 0.0
157 0.0
75 0.0
32 0.0
28 0.0
45 0.002049
66 0.002028
88 0.0
102 0.000986
114 0.0
116 0.002028
108 0.0
99 0.0
105 0.000974
120 0.0
136 0.0
152 0.0
166 0.002028
177 0.002029
188 0.0
194 0.0
198 0.0
204 0.002033
206 0.002051
115 0.0
30 0.000979
13 0.0
20 0.000983
39 0.000983
62 0.00103
72 0.001039
89 0.0
96 0.000954
97 0.0
92 0.002031
91 0.002033
99 0.0
116 0.002001
136 0.0
152 0.0
165 0.00101
176 0.0
184 0.002048
190 0.00203
195 0.00101
201 0.0
207 0.0
208 0.001025
142 0.000989
30 0.001995
18 0.002005
37 0.0
60 0.0
80 0.0
94 0.002036
109 0.002027
115 0.0
106 0.0
96 0.0
94 0.001034
101 0.002027
125 0.000996
142 0.001001
158 0.001002
173 0.000995
182 0.0
188 0.002025
192 0.002027
198 0.0
207 0.0
176 0.0
86 0.002037
35 0.002038
30 0.000991
51 0.000974
76 0.000986
105 0.000994
127 0.0
139 0.001022
131 0.001991
110 0.0
104 0.0
108 0.0
120 0.002015
137 0.002032
166 0.002026
180 0.001994
194 0.0
198 0.000986
204 0.001
209 0.002042
214 0.002036
209 0.0
123 0.0
46 0.000963
15 0.002028
17 0.002046
50 0.002031
70 0.002027
90 0.000966
105 0.0
111 0.0
104 0.001031
96 0.002005
94 0.000974
102 0.0
116 0.0
132 0.002031
158 0.0
171 0.002027
181 0.001991
190 0.0
195 0.0
200 0.0
206 0.001993
173 0.002027
59 0.0
21 0.0
17 0.000967
32 0.001996
65 0.0
80 0.001996
94 0.001982
109 0.0
106 0.0
98 0.000978
93 0.002935
97 0.002021
113 0.000966
128 0.0
144 0.000997
159 0.002985
178 0.001995
185 0.001998
191 0.002058
197 0.0
202 0.0
206 0.001011
154 0.00199
70 0.002007
25 0.001991
29 0.001998
49 0.002019
72 0.002991
105 0.001999
123 0.002031
131 0.001981
114 0.001971
102 0.001995
99 0.000996
106 0.002033
119 0.003033
142 0.001992
157 0.002001
170 0.002006
180 0.003025
192 0.002001
198 0.002
204 0.002007
154 0.000995
73 0.000999
33 0.001989
28 0.003043
43 0.003014
75 0.001987
97 0.001989
119 0.001988
137 0.003023
124 0.001994
107 0.002029
99 0.003022
107 0.000998
120 0.001008
136 0.001993
151 0.002946
164 0.001995
175 0.001042
179 0.001006
184 0.001977
184 0.002956
70 0.000962
21 0.002992
9 0.002965
29 0.001993
50 0.002018
68 0.001995
82 0.001985
98 0.002983
104 0.002985
95 0.000992
88 0.001031
88 0.001987
105 0.001993
120 0.002013
136 0.00296
150 0.003018
165 0.001006
173 0.001986
178 0.002013
183 0.00394
190 0.003022
175 0.00103
90 0.001992
27 0.001962
7 0.001965
22 0.000998
42 0.002996
56 0.002995
69 0.001996
82 0.001992
90 0.001995
89 0.004002
84 0.003998
87 0.001994
95 0.001993
119 0.003046
134 0.002002
148 0.00204
161 0.003006
170 0.003
178 0.002041
183 0.001003
188 0.000979
194 0.002994
186 0.003994
81 0.001998
27 0.001975
19 0.002038
38 0.001996
58 0.001965
71 0.002998
83 0.00401
100 0.001028
103 0.001973
99 0.002001
95 0.00399
97 0.003992
110 0.001997
123 0.003006
149 0.001979
163 0.002036
175 0.002992
184 0.004026
191 0.003957
197 0.001989
201 0.001985
207 0.001983
211 0.003955
152 0.00401
53 0.001946
29 0.001988
48 0.002945
73 0.001978
94 0.001987
111 0.004002
128 0.004018
132 0.001991
119 0.001991
107 0.002969
106 0.003989
114 0.004952
133 0.002018
149 0.001995
174 0.001952
185 0.002024
193 0.00196
198 0.004035
203 0.003987
209 0.00197
214 0.001996
170 0.002988
84 0.004026
40 0.005017
37 0.002974
57 0.002993
98 0.001994
118 0.002024
138 0.001989
147 0.003982
135 0.004009
115 0.001973
111 0.002013
119 0.002007
132 0.005024
148 0.005045
171 0.002996
184 0.002995
200 0.002012
206 0.002023
211 0.003
215 0.003961
221 0.004026
195 0.001995
101 0.001986
42 0.002961
24 0.004025
33 0.005027
61 0.002993
82 0.002993
107 0.002003
120 0.002039
121 0.002994
113 0.004023
104 0.003984
107 0.002026
117 0.002048
132 0.001993
147 0.005036
163 0.005021
180 0.00296
190 0.002991
201 0.002026
205 0.001984
210 0.002984
214 0.003988
221 0.005044
201 0.004984
80 0.003994
33 0.003011
23 0.002983
37 0.004987
59 0.005022
87 0.002993
107 0.004027
124 0.002945
121 0.003008
110 0.001986
103 0.003965
104 0.005
117 0.003976
132 0.002998
149 0.002992
165 0.004987
179 0.004987
197 0.003993
203 0.005001
211 0.002005
214 0.002025
219 0.002995
226 0.005964
193 0.006024
73 0.00399
36 0.00399
34 0.00297
51 0.004988
75 0.005029
116 0.006021
139 0.005032
154 0.001996
138 0.003961
116 0.002993
106 0.006019
108 0.006016
124 0.004025
142 0.003977
159 0.003939
175 0.005984
188 0.00604
202 0.006015
207 0.005986
212 0.00296
217 0.002961
187 0.002992
92 0.004988
37 0.006017
23 0.004017
38 0.003974
62 0.003994
86 0.005985
108 0.005984
136 0.005985
130 0.006024
105 0.00395
97 0.002953
100 0.00303
111 0.005036
126 0.006017
150 0.003984
165 0.00399
177 0.003988
186 0.006003
193 0.005984
202 0.006038
207 0.006016
145 0.003996
55 0.00495
12 0.003989
5 0.007018
19 0.006982
48 0.004025
65 0.004024
80 0.003988
95 0.006018
101 0.006022
88 0.00605
82 0.007028
88 0.003944
99 0.003976
114 0.003975
131 0.006984
145 0.006984
162 0.004984
171 0.004023
177 0.00397
182 0.005984
189 0.006004
174 0.006046
86 0.006015
13 0.004952
3 0.003965
15 0.004002
37 0.006019
56 0.007023
74 0.005021
90 0.004985
99 0.004983
94 0.006014
86 0.006006
85 0.006015
95 0.006003
114 0.00399
130 0.003987
146 0.004951
160 0.00698
170 0.007022
180 0.004989
185 0.004991
189 0.004983
194 0.007014
201 0.007016
99 0.00602
35 0.006024
14 0.004934
28 0.005001
51 0.004039
75 0.007016
94 0.006981
118 0.004988
121 0.004988
108 0.004992
93 0.007016
91 0.004993
102 0.006944
118 0.006944
139 0.004986
154 0.004972
166 0.004975
175 0.007045
180 0.006983
187 0.00496
194 0.004986
194 0.005025
131 0.004982
27 0.004969
17 0.004961
38 0.007979
62 0.007979
85 0.00504
104 0.005011
123 0.005017
126 0.007014
112 0.006981
95 0.004987
95 0.005006
104 0.005062
130 0.005003
147 0.004988
161 0.007014
173 0.007013
184 0.005928
189 0.004995
194 0.004986
199 0.007974
204 0.00798
155 0.004029
64 0.005985
17 0.00502
16 0.004969
36 0.004956
56 0.007958
72 0.00696
90 0.004958
100 0.005984
98 0.005993
88 0.007969
86 0.007963
92 0.005988
105 0.005988
119 0.004986
146 0.00499
159 0.006004
170 0.00798
178 0.007014
185 0.00598
190 0.005999
198 0.005937
189 0.007967
106 0.007973
36 0.005978
9 0.005996
125 0.005989
125 0.005987
124 0.004987
124 0.008011
124 0.007977
124 0.005958
124 0.006968
124 0.005002
124 0.007008
124 0.007985
124 0.004986
124 0.005984
124 0.005948
124 0.006013
124 0.005989
138 0.007974
149 0.007978
157 0.005985
167 0.005985
177 0.005978
185 0.006976
134 0.007979
0 0.005983
0 0.005985
0 0.006977
0 0.006948
15 0.00603
47 0.007982
71 0.007977
81 0.005995
70 0.005973
54 0.005986
51 0.007979
63 0.007981
82 0.005998
106 0.005992
130 0.005981
164 0.005988
178 0.00698
190 0.006973
196 0.006973
202 0.00698
210 0.006016
205 0.005984
68 0.007998
12 0.007978
0 0.005974
0 0.005986
20 0.005984
75 0.005991
105 0.006949
135 0.006974
123 0.00698
90 0.006981
80 0.006981
82 0.006017
102 0.006971
124 0.00795
148 0.005982
169 0.006951
195 0.00697
204 0.006942
211 0.005941
224 0.006981
208 0.00698
94 0.006982
3 0.006982
0 0.006982
0 0.006975
13 0.006979
48 0.006959
63 0.006977
97 0.005984
100 0.006981
89 0.006015
75 0.006981
78 0.006975
92 0.00698
112 0.005966
134 0.006966
162 0.007014
179 0.00698
191 0.006982
200 0.006982
212 0.007008
221 0.006951
139 0.006979
25 0.006979
49 0.006975
46 0.006979
61 0.006041
70 0.006967
80 0.00697
91 0.007016
101 0.007023
106 0.00697
102 0.005983
101 0.006017
105 0.006995
110 0.006981
123 0.006977
135 0.006982
147 0.006959
152 0.006984
161 0.006973
166 0.006982
169 0.007014
173 0.00698
180 0.005984
157 0.005988
95 0.006014
60 0.005996
51 0.005958
58 0.006979
76 0.006909
87 0.006974
93 0.006965
105 0.007015
112 0.00698
110 0.005962
105 0.005982
108 0.005996
116 0.006951
126 0.005987
137 0.005986
147 0.005989
159 0.006943
166 0.007001
169 0.006986
174 0.007031
177 0.006983
181 0.00698
187 0.005963
187 0.005985
135 0.005978
83 0.005985
63 0.004991
64 0.00596
83 0.005983
99 0.005982
112 0.005984
125 0.007031
134 0.006022
128 0.005974
114 0.005985
113 0.005984
119 0.006018
130 0.005981
141 0.005982
152 0.005986
164 0.005974
171 0.005983
175 0.005983
178 0.005982
180 0.004976
183 0.005988
188 0.005985
190 0.005989
140 0.00594
86 0.005985
65 0.006004
66 0.00595
84 0.005988
102 0.005984
118 0.006008
133 0.006022
144 0.005023
130 0.004963
118 0.004991
115 0.005984
121 0.005986
131 0.006004
144 0.005979
156 0.005982
168 0.005982
176 0.005996
181 0.005982
184 0.005019
187 0.005017
190 0.004987
193 0.004924
195 0.004991
147 0.004988
84 0.005989
56 0.005982
52 0.005999
67 0.005936
83 0.005986
96 0.005979
106 0.005017
116 0.005033
117 0.00502
109 0.004992
104 0.004986
109 0.00499
117 0.004997
128 0.005983
140 0.004987
155 0.004984
163 0.004995
170 0.004951
174 0.005045
178 0.00504
183 0.004994
187 0.004983
162 0.004959
96 0.004971
58 0.004984
46 0.004982
52 0.004977
71 0.005031
84 0.004952
95 0.004999
106 0.004967
115 0.005008
110 0.005025
105 0.005958
104 0.004936
113 0.004996
123 0.004987
134 0.004953
146 0.004987
156 0.004983
167 0.004962
172 0.004994
177 0.005019
180 0.00502
186 0.004961
158 0.004992
95 0.003988
58 0.003975
58 0.004946
70 0.004992
86 0.004988
102 0.004964
120 0.004987
132 0.004981
132 0.005018
121 0.005019
110 0.005001
112 0.003996
121 0.003982
137 0.003986
149 0.004488
159 0.004984
167 0.004049
173 0.004982
180 0.004994
185 0.003986
189 0.004022
159 0.004029
76 0.003943
64 0.003992
69 0.003957
89 0.003958
106 0.005001
122 0.005006
138 0.004957
147 0.003984
134 0.004981
120 0.005008
115 0.005076
118 0.005024
134 0.003986
146 0.00399
157 0.004028
168 0.003957
174 0.003982
179 0.003993
182 0.003958
162 0.003961
88 0.003956
61 0.003936
56 0.003977
64 0.002952
87 0.003954
99 0.004001
111 0.003984
120 0.003975
115 0.003977
106 0.003953
101 0.003991
103 0.003956
113 0.003955
124 0.003991
135 0.003957
148 0.003947
154 0.003947
158 0.003957
162 0.003957
142 0.002943
86 0.004006
52 0.003946
42 0.004001
48 0.003977
65 0.003991
76 0.003975
83 0.004028
98 0.003987
99 0.007974
96 0.002962
92 0.002996
95 0.003981
102 0.002986
112 0.003957
122 0.003993
133 0.00401
143 0.003947
149 0.003938
154 0.004052
159 0.003958
161 0.002991
164 0.002947
169 0.002959
143 0.002958
86 0.002963
54 0.003955
47 0.003957
55 0.003955
71 0.003955
80 0.003949
86 0.004022
99 0.002991
102 0.002949
100 0.003015
99 0.002991
102 0.002985
109 0.002986
118 0.003011
128 0.003944
137 0.00404
148 0.003994
154 0.004
159 0.003985
165 0.002957
168 0.002985
172 0.002946
176 0.002995
181 0.002989
185 0.003003
189 0.00298
195 0.002996
192 0.002993
115 0.002995
76 0.002995
63 0.003026
75 0.003972
87 0.002969
97 0.003001
102 0.002989
112 0.002983
115 0.003003
113 0.002992
110 0.002991
109 0.002995
114 0.001986
124 0.003986
134 0.002993
148 0.002937
156 0.002944
162 0.002963
167 0.00299
170 0.002993
174 0.002983
177 0.002992
180 0.002992
184 0.002992
189 0.00296
192 0.003989
149 0.00298
82 0.002994
75 0.002027
83 0.001994
97 0.001997
112 0.002024
128 0.002985
138 0.002968
142 0.002973
134 0.002984
123 0.002988
119 0.002995
124 0.002993
139 0.001939
149 0.001982
159 0.001997
167 0.001955
174 0.001993
178 0.002971
181 0.002993
183 0.002989
187 0.002985
183 0.002993
119 0.002993
76 0.002987
73 0.001995
84 0.001939
99 0.002002
113 0.002007
125 0.001995
139 0.001996
139 0.002027
128 0.001989
119 0.001995
117 0.002053
124 0.00199
137 0.003002
151 0.002028
160 0.00198
167 0.001971
172 0.001993
177 0.002006
183 0.001994
181 0.001979
132 0.002007
81 0.001983
59 0.001979
60 0.00199
77 0.001994
94 0.002016
104 0.001932
114 0.001996
119 0.002013
116 0.001993
108 0.002014
106 0.002007
110 0.002016
118 0.001985
129 0.001997
142 0.002006
155 0.001985
164 0.000992
169 0.000999
173 0.00203
177 0.002019
178 0.001998
112 0.001993
67 0.001957
50 0.001965
52 0.001996
65 0.000999
83 0.001996
95 0.001993
108 0.001999
112 0.001995
109 0.002005
103 0.00199
102 0.000995
108 0.002001
117 0.001992
128 0.001985
139 0.000989
148 0.001021
159 0.001024
166 0.001001
171 0.001962
175 0.002
179 0.001998
151 0.001983
91 0.001995
54 0.001985
53 0.001994
66 0.001996
81 0.001996
94 0.000967
109 0.001999
121 0.00101
116 0.000999
109 0.000995
106 0.002048
109 0.000997
117 0.002035
131 0.001977
142 0.002
151 0.001994
160 0.002009
166 0.00098
172 0.000999
176 0.000957
182 0.001
179 0.002005
127 0.000968
80 0.002021
63 0.001982
71 0.002007
87 0.000992
104 0.001995
119 0.002018
134 0.001993
142 0.001986
127 0.001003
114 0.001003
115 0.001963
121 0.000996
132 0.000991
143 0.002003
157 0.00199
164 0.001997
170 0.000999
175 0.001996
179 0.001979
184 0.000999
142 0.002005
77 0.001011
62 0.001012
66 0.000996
81 0.000995
98 0.000997
113 0.000998
131 0.001996
138 0.002002
132 0.000999
120 0.0
114 0.0
120 0.001011
129 0.000998
144 0.001005
154 0.001001
163 0.000989
169 0.001002
174 0.001002
179 0.0
182 0.0
186 0.0
165 0.000984
74 0.0
55 0.0
58 0.0
78 0.001
92 0.001016
103 0.00097
113 0.000992
121 0.000996
119 0.000997
113 0.000997
109 0.000998
112 0.0
125 0.0
136 0.0
146 0.0
158 0.0
165 0.0
170 0.0
174 0.0
177 0.0
182 0.001
185 0.000994
152 0.0
92 0.0
54 0.0
59 0.0
74 0.0
93 0.0
102 0.0
111 0.0
119 0.0
118 0.0
111 0.0
108 0.0
111 0.0
120 0.0
137 0.0
148 0.0
157 0.0
166 0.0
172 0.0
175 0.0
178 0.0
180 0.0
184 0.00102
189 0.0
163 0.0
100 0.0
59 0.0
65 0.0
80 0.0
103 0.0
116 0.0
127 0.0
134 0.0
127 0.0
113 0.001005
109 0.000996
113 0.0
122 0.0
144 0.0
151 0.0
159 0.0
168 0.0
172 0.001997
175 0.0
177 0.0
181 0.001019
180 0.002993
132 0.002995
70 0.0
58 0.0
75 0.0
92 0.0
107 0.0
119 0.001997
131 0.001998
131 0.001005
120 0.000998
112 0.001016
113 0.000997
119 0.00299
132 0.0
143 0.0
159 0.0
167 0.0
172 0.0
176 0.001997
179 0.00199
183 0.0
187 0.0
180 0.0
121 0.001993
72 0.001991
54 0.0
66 0.002027
87 0.000998
99 0.0
108 0.0
118 0.001989
121 0.00198
113 0.0
108 0.000998
109 0.0
115 0.001995
125 0.002002
140 0.0
153 0.001949
163 0.000953
169 0.000994
171 0.001
176 0.003007
181 0.00298
179 0.0
127 0.0
80 0.0
63 0.001995
65 0.001994
84 0.0
102 0.002026
116 0.0
127 0.001005
130 0.000999
124 0.003001
118 0.001995
117 0.001001
123 0.000949
133 0.000967
142 0.0
152 0.00203
159 0.001996
169 0.00204
174 0.002962
180 0.0
163 0.0
111 0.001052
80 0.002982
73 0.002032
86 0.001008
102 0.001009
117 0.0
131 0.00302
145 0.00201
142 0.00203
131 0.002025
125 0.0
129 0.0
137 0.0
146 0.002027
155 0.001962
167 0.001008
173 0.001005
179 0.0
186 0.002983
182 0.002988
102 0.002025
80 0.002024
83 0.000959
96 0.0
112 0.0
126 0.00203
141 0.001999
149 0.0
140 0.0
128 0.0
123 0.00302
125 0.002025
138 0.003042
147 0.001991
157 0.0
164 0.0
170 0.0
176 0.003023
177 0.001997
119 0.0
84 0.0
75 0.0
82 0.001994
96 0.001994
121 0.002026
136 0.002042
146 0.001011
137 0.0
126 0.001001
121 0.002036
122 0.002992
131 0.0
141 0.0
150 0.0
158 0.001991
164 0.001996
172 0.001954
177 0.001963
169 0.0
114 0.0
75 0.0
62 0.002025
67 0.001966
85 0.000963
98 0.0
108 0.001
118 0.00303
123 0.003024
114 0.00304
109 0.002026
110 0.0
117 0.0
126 0.0
135 0.002034
144 0.002007
155 0.000994
160 0.00098
165 0.0
170 0.002992
172 0.0
125 0.002984
78 0.003023
57 0.0
63 0.00096
76 0.002036
90 0.001996
100 0.00299
114 0.0
120 0.0
118 0.0
111 0.003023
108 0.00199
113 0.002001
121 0.002993
135 0.0
144 0.000979
153 0.0
160 0.002991
166 0.002986
172 0.00301
176 0.0
146 0.0
92 0.002039
63 0.001986
70 0.002023
86 0.002993
107 0.001999
121 0.000997
134 0.002998
137 0.002993
127 0.002989
114 0.0
113 0.002019
119 0.001996
127 0.001985
145 0.002057
153 0.003013
161 0.003039
168 0.001992
173 0.001984
178 0.002006
156 0.002
99 0.003959
63 0.002022
63 0.002003
74 0.0
91 0.0
113 0.0
127 0.0
132 0.002992
126 0.002959
114 0.002025
112 0.0
116 0.001992
125 0.002951
134 0.003046
147 0.000996
155 0.001994
161 0.00203
169 0.002021
174 0.002028
170 0.003989
121 0.003999
71 0.003008
63 0.002978
71 0.002987
84 0.002991
97 0.002961
109 0.002014
117 0.002999
122 0.002049
116 0.002016
113 0.002994
116 0.003989
122 0.003958
134 0.003005
142 0.002995
149 0.00306
155 0.003994
161 0.003991
167 0.002978
172 0.001972
162 0.003023
98 0.001996
84 0.001983
87 0.002992
99 0.003956
115 0.002985
124 0.002998
133 0.002993
139 0.00396
137 0.004007
129 0.001995
128 0.002043
132 0.002968
144 0.001955
152 0.001953
158 0.003948
164 0.003989
170 0.003991
174 0.002997
179 0.002984
182 0.003928
164 0.003959
117 0.002019
106 0.003003
116 0.003043
128 0.002041
139 0.001991
149 0.003965
158 0.003998
155 0.000956
147 0.002987
141 0.003002
141 0.004017
146 0.004021
156 0.003989
162 0.002024
171 0.001994
175 0.00198
179 0.002986
182 0.004023
183 0.004023
143 0.003004
115 0.00296
108 0.001995
113 0.002983
124 0.004987
137 0.002055
145 0.00204
154 0.001958
150 0.001992
147 0.001992
143 0.003989
145 0.004739
154 0.002998
163 0.002037
171 0.002988
177 0.00398
182 0.005024
188 0.001989
191 0.002992
197 0.001994
186 0.001982
139 0.002014
104 0.004987
96 0.003983
107 0.003
118 0.002986
126 0.002994
132 0.003977
138 0.004005
142 0.00299
139 0.002031
134 0.002992
137 0.001994
144 0.002992
151 0.004987
158 0.005021
168 0.002025
173 0.00299
178 0.001964
182 0.005018
185 0.005035
189 0.001987
193 0.002034
172 0.001954
124 0.001994
97 0.002002
92 0.004017
100 0.004018
114 0.002939
120 0.002027
124 0.003023
131 0.004988
134 0.005027
130 0.002992
127 0.003
131 0.003945
137 0.003027
144 0.002025
153 0.005019
160 0.004999
168 0.001996
173 0.002019
178 0.002999
181 0.006024
184 0.00502
187 0.005019
194 0.003004
167 0.004987
108 0.002993
90 0.002977
92 0.001987
104 0.004987
117 0.005022
129 0.003027
136 0.003025
142 0.003023
139 0.006027
132 0.006038
128 0.004039
133 0.005986
143 0.002994
151 0.002944
160 0.002939
167 0.005983
172 0.004988
179 0.001995
182 0.003045
185 0.002012
189 0.00496
192 0.004987
148 0.002947
98 0.004987
90 0.003988
101 0.003989
116 0.003025
129 0.006984
141 0.005985
154 0.00298
151 0.002961
140 0.001995
131 0.005985
130 0.006012
140 0.005984
149 0.005021
161 0.002998
169 0.003944
175 0.003004
179 0.006026
184 0.006017
189 0.002988
184 0.00304
136 0.002965
92 0.005978
73 0.005922
86 0.006095
101 0.005961
118 0.002974
129 0.00398
138 0.002994
137 0.006018
130 0.006086
120 0.003958
122 0.003946
128 0.003984
138 0.006028
147 0.006027
162 0.006015
169 0.006016
176 0.002958
180 0.002995
184 0.003031
188 0.005986
188 0.006983
125 0.00397
76 0.003993
57 0.003989
60 0.006022
74 0.006031
96 0.005962
105 0.005977
117 0.003028
120 0.003991
115 0.003986
110 0.006019
109 0.006984
116 0.004987
125 0.003992
136 0.00401
146 0.006982
156 0.006948
168 0.007021
174 0.00702
179 0.003983
182 0.003992
186 0.003988
191 0.005984
177 0.007028
97 0.004991
61 0.003009
54 0.004987
65 0.007022
81 0.007014
105 0.007015
115 0.007012
127 0.003957
126 0.00399
119 0.003994
114 0.006036
115 0.005946
125 0.004951
134 0.004983
145 0.004979
156 0.006937
166 0.006985
178 0.006992
183 0.007018
187 0.003983
190 0.004026
195 0.003988
196 0.00694
154 0.007938
81 0.003949
63 0.004984
68 0.004988
84 0.007946
103 0.007946
130 0.007019
144 0.007023
147 0.003989
134 0.005019
121 0.005009
119 0.006981
124 0.007022
136 0.003995
148 0.00399
159 0.005006
169 0.007017
177 0.007018
185 0.004022
191 0.007968
195 0.007962
177 0.004995
114 0.004989
70 0.004984
58 0.007014
66 0.007018
90 0.005
108 0.004983
124 0.005957
139 0.007013
140 0.005982
121 0.007975
114 0.007973
117 0.004987
125 0.005023
136 0.004985
147 0.007012
161 0.007972
169 0.004991
175 0.005997
180 0.004956
188 0.005942
155 0.006009
70 0.007644
42 0.007997
40 0.004956
54 0.005005
71 0.004984
86 0.007019
99 0.006976
114 0.005012
114 0.005048
106 0.005985
97 0.006002
101 0.005019
113 0.007978
121 0.008019
136 0.00594
147 0.005987
155 0.004947
163 0.007982
168 0.00798
172 0.004985
174 0.004965
130 0.004921
41 0.00399
29 0.004941
37 0.007956
54 0.007923
74 0.005997
85 0.005985
96 0.006004
103 0.007957
98 0.007996
92 0.004988
91 0.005988
97 0.005025
114 0.004991
126 0.005018
141 0.0068
150 0.007946
156 0.005984
162 0.005983
166 0.004986
170 0.007974
175 0.007949
151 0.005996
88 0.004991
48 0.004971
44 0.005999
61 0.006022
85 0.006983
98 0.006981
111 0.005952
118 0.005985
114 0.005977
101 0.007941
99 0.006974
104 0.005983
113 0.005976
124 0.004994
142 0.005996
152 0.005965
162 0.006941
167 0.006985
172 0.005971
178 0.005986
168 0.005984
92 0.00698
58 0.007026
51 0.00595
63 0.005962
83 0.005985
112 0.005984
130 0.006956
139 0.006989
127 0.007015
112 0.006979
109 0.006981
112 0.006015
124 0.006981
137 0.006979
148 0.006002
157 0.005984
167 0.005983
176 0.006983
180 0.006974
162 0.007016
100 0.006978
48 0.006981
43 0.006017
51 0.006022
75 0.006977
91 0.006993
103 0.00498
116 0.005977
120 0.006006
108 0.006983
102 0.006985
106 0.006974
116 0.007015
131 0.006961
139 0.006979
148 0.005992
159 0.00699
164 0.006985
168 0.006017
172 0.005985
176 0.005987
108 0.005958
57 0.005988
37 0.00602
42 0.00602
58 0.007023
78 0.00698
85 0.006948
98 0.006967
105 0.006985
105 0.006984
97 0.006977
96 0.004985
104 0.00598
115 0.005983
127 0.005985
138 0.005983
148 0.00597
159 0.006975
163 0.006975
168 0.006973
174 0.007008
180 0.006977
167 0.006982
78 0.006982
56 0.005971
66 0.005987
82 0.005979
98 0.005988
108 0.005984
122 0.005983
129 0.005966
128 0.006976
121 0.006986
119 0.006977
123 0.006975
138 0.005968
153 0.005991
162 0.00597
170 0.005983
177 0.005982
182 0.005986
186 0.005981
189 0.005966
194 0.005981
198 0.005983
168 0.006958
104 0.005989
87 0.005984
102 0.005985
119 0.006023
133 0.006016
146 0.005979
157 0.005987
156 0.005984
146 0.006015
139 0.005987
138 0.00499
144 0.005016
157 0.005952
169 0.006032
179 0.006018
186 0.005953
190 0.006016
194 0.00601
197 0.00597
201 0.004986
203 0.004984
170 0.005984
118 0.005021
91 0.004986
92 0.004976
111 0.005018
129 0.005984
138 0.006025
148 0.006039
151 0.005949
144 0.005933
135 0.005991
134 0.005956
139 0.005984
146 0.005015
155 0.005022
166 0.005017
176 0.004984
182 0.004988
186 0.005018
188 0.006011
191 0.005962
195 0.005956
178 0.005982
123 0.005986
85 0.00598
75 0.005954
83 0.004995
101 0.004983
116 0.004988
126 0.004987
133 0.006007
132 0.004987
125 0.004987
120 0.005985
123 0.005948
129 0.005947
138 0.004989
147 0.004986
155 0.004962
165 0.004986
172 0.004987
177 0.004992
180 0.004983
183 0.004986
186 0.004983
187 0.004954
130 0.004925
87 0.005018
71 0.00498
76 0.004988
89 0.004988
111 0.004937
120 0.004988
132 0.00498
133 0.004987
126 0.004992
120 0.005019
119 0.004021
126 0.005
135 0.004955
145 0.005013
153 0.004993
161 0.005021
171 0.005014
176 0.004991
180 0.004995
184 0.004998
188 0.005007
184 0.003998
137 0.004023
82 0.00399
73 0.00399
81 0.003987
96 0.004987
112 0.003987
134 0.004993
145 0.005047
145 0.00502
128 0.005003
120 0.004958
120 0.003989
126 0.005021
135 0.004022
149 0.003958
158 0.003982
166 0.003985
172 0.003987
180 0.003958
186 0.004982
183 0.004949
119 0.005006
79 0.004988
67 0.004987
73 0.004988
89 0.004987
111 0.003981
127 0.003992
142 0.00399
147 0.003986
124 0.003968
114 0.00399
114 0.003991
123 0.004956
133 0.004946
143 0.005004
153 0.004051
161 0.004042
170 0.003994
176 0.003959
169 0.003957
113 0.004009
51 0.004002
48 0.004027
60 0.004066
82 0.004021
96 0.003999
109 0.004032
120 0.00399
118 0.002993
106 0.011968
98 0.0
99 0.00399
107 0.000997
114 0.000997
131 0.001995
143 0.003989
152 0.003991
158 0.003989
161 0.003996
121 0.004001
63 0.002993
30 0.002993
35 0.002996
49 0.003989
65 0.003989
82 0.00399
92 0.004012
97 0.003992
92 0.00399
88 0.004024
89 0.002994
95 0.003989
104 0.003029
119 0.002987
129 0.002992
138 0.003723
144 0.003988
153 0.003961
158 0.004042
163 0.003026
117 0.003977
65 0.002982
43 0.003989
44 0.004035
57 0.004022
77 0.003957
86 0.003955
94 0.003036
106 0.003024
106 0.002983
103 0.002992
103 0.002992
110 0.003992
120 0.002993
130 0.004007
140 0.003992
149 0.003989
159 0.003966
164 0.003959
169 0.002952
175 0.002994
179 0.003008
184 0.002993
189 0.002992
161 0.003045
109 0.002027
81 0.003029
79 0.002992
89 0.00204
107 0.002991
116 0.003019
123 0.002996
133 0.002984
132 0.002992
128 0.001997
126 0.001995
131 0.002992
139 0.003023
147 0.002991
156 0.002999
163 0.002992
171 0.002988
176 0.002993
180 0.002991
185 0.003012
187 0.002984
190 0.002992
195 0.002031
193 0.002045
136 0.002033
103 0.001995
96 0.001995
104 0.002029
117 0.002022
134 0.003014
143 0.001967
154 0.003033
149 0.003036
141 0.003022
136 0.002024
137 0.00202
145 0.001995
154 0.001996
162 0.002001
169 0.002001
175 0.001995
182 0.001967
186 0.002026
189 0.001996
192 0.002019
196 0.001965
198 0.00201
168 0.002038
113 0.002001
100 0.002044
104 0.002027
115 0.002039
130 0.003003
146 0.002961
156 0.002993
158 0.001995
146 0.002002
138 0.002037
136 0.001996
141 0.002042
151 0.001995
160 0.001991
168 0.002992
176 0.002026
182 0.001999
187 0.002012
190 0.001994
196 0.002025
181 0.001996
130 0.002026
95 0.002993
83 0.002027
92 0.001996
105 0.001997
117 0.002043
128 0.001999
139 0.001961
143 0.001984
133 0.001998
120 0.002056
122 0.000958
128 0.002029
137 0.002044
146 0.002044
158 0.001063
165 0.001997
171 0.001029
177 0.000998
182 0.001993
179 0.000986
130 0.000997
68 0.000999
63 0.002042
72 0.000997
86 0.001997
99 0.00203
113 0.001034
123 0.000999
127 0.001028
120 0.000998
111 0.002017
108 0.001998
116 0.002029
129 0.002021
139 0.00198
149 0.001008
156 0.002022
163 0.000998
169 0.000994
174 0.001966
171 0.000997
123 0.000998
74 0.001029
52 0.002021
63 0.002036
82 0.002028
95 0.000999
106 0.001995
117 0.000997
120 0.000996
111 0.002042
104 0.001996
104 0.002029
109 0.001048
119 0.001997
133 0.001987
147 0.001034
158 0.002031
164 0.000999
168 0.000997
172 0.000954
177 0.001004
152 0.000956
92 0.001962
58 0.000984
51 0.001956
60 0.001996
81 0.00201
99 0.002057
113 0.001999
121 0.001996
119 0.001997
110 0.00199
104 0.001994
107 0.001994
115 0.001029
125 0.0
137 0.000998
148 0.000996
159 0.001017
168 0.000998
172 0.000996
176 0.00103
178 0.000997
182 0.002029
182 0.000998
110 0.0
63 0.0
48 0.0
53 0.0
67 0.000992
83 0.001001
102 0.000997
112 0.000998
117 0.0
109 0.0
101 0.0
100 0.0
106 0.0
119 0.0
131 0.0
142 0.0
152 0.0
159 0.0
169 0.001004
173 0.0
176 0.0
179 0.000998
184 0.000997
179 0.0
123 0.0
60 0.0
49 0.0
55 0.0
70 0.0
86 0.0
104 0.0
115 0.0
118 0.0
110 0.0
103 0.0
102 0.0
108 0.0
122 0.0
133 0.0
144 0.000998
153 0.0
162 0.0
171 0.0
175 0.0
178 0.0
182 0.0
186 0.0
162 0.0
97 0.0
51 0.0
46 0.0
57 0.0
77 0.0
94 0.000997
104 0.0
114 0.0
113 0.002026
104 0.0
99 0.0
102 0.000965
107 0.0
121 0.002041
133 0.0
143 0.0
153 0.001002
165 0.0
169 0.000999
174 0.0
177 0.0
179 0.003024
184 0.0
189 0.001006
182 0.0
98 0.0
53 0.002025
38 0.000974
46 0.0
71 0.0
82 0.0
91 0.0
100 0.003029
103 0.003038
96 0.0
91 0.0
91 0.0
98 0.001995
108 0.003023
122 0.0
134 0.000996
149 0.000965
156 0.000947
162 0.0
166 0.00303
169 0.003023
174 0.0
177 0.0
182 0.0
183 0.002024
134 0.002027
56 0.0
34 0.0
43 0.000974
58 0.0
72 0.000991
82 0.002997
92 0.003043
102 0.0
98 0.0
91 0.0
89 0.002993
92 0.002027
103 0.0
115 0.0
134 0.0
144 0.0
152 0.0
158 0.003017
164 0.002997
169 0.0
172 0.0
176 0.0
180 0.001995
185 0.003024
147 0.0
79 0.0
34 0.0
38 0.000997
52 0.0
69 0.003018
83 0.003025
98 0.0
109 0.0
108 0.0
99 0.001994
92 0.003044
95 0.0
103 0.0
122 0.0
134 0.0
145 0.0
155 0.003026
162 0.002972
169 0.0
173 0.001005
177 0.0
182 0.002025
183 0.002026
138 0.002957
63 0.0
41 0.003024
53 0.0
71 0.0
88 0.0
104 0.002987
120 0.003025
127 0.0
116 0.0
105 0.0
101 0.002039
106 0.001991
119 0.000967
136 0.002028
152 0.000998
162 0.0
169 0.00096
175 0.002039
180 0.003028
186 0.000985
189 0.0
154 0.0
88 0.003055
53 0.003022
52 0.002992
68 0.002999
96 0.000958
115 0.0
134 0.0
145 0.002995
136 0.002994
113 0.000972
108 0.0
112 0.0
121 0.003028
133 0.002028
154 0.001997
165 0.001965
175 0.0
181 0.001019
187 0.0
193 0.003025
184 0.003024
98 0.0
58 0.0
47 0.0
55 0.003042
73 0.003028
108 0.003056
130 0.00203
149 0.001006
141 0.0
123 0.000943
111 0.003017
111 0.002989
121 0.0
134 0.0
147 0.0
158 0.002991
169 0.002988
181 0.002999
188 0.00296
193 0.000982
157 0.0
88 0.000967
53 0.003019
47 0.002044
66 0.0
86 0.0
108 0.000976
131 0.004019
149 0.003027
139 0.003038
118 0.003025
108 0.0
113 0.00099
123 0.0
135 0.003024
147 0.003041
163 0.0
172 0.0
181 0.0
189 0.002031
189 0.001997
89 0.002993
53 0.002982
50 0.0
65 0.0
86 0.0
110 0.003005
135 0.003039
156 0.0
146 0.0
123 0.000996
108 0.002994
107 0.002992
121 0.003032
134 0.002993
151 0.0
163 0.0
172 0.0
181 0.003025
182 0.003031
102 0.002999
52 0.0
37 0.002008
43 0.003031
61 0.003022
96 0.003031
119 0.002992
138 0.0
129 0.0
109 0.00204
96 0.003007
95 0.002991
107 0.002002
120 0.002008
133 0.003005
145 0.002995
155 0.002989
170 0.002987
158 0.004022
68 0.002991
30 0.000966
22 0.0
32 0.002993
50 0.002994
74 0.002989
91 0.003006
105 0.000972
106 0.003999
85 0.002995
79 0.003022
83 0.00402
97 0.003015
110 0.001002
123 0.002991
134 0.002991
143 0.00402
151 0.003991
154 0.002994
103 0.002049
43 0.00299
13 0.002998
24 0.002004
41 0.002992
56 0.003991
71 0.002948
84 0.003977
89 0.003013
84 0.00399
77 0.004039
77 0.00399
85 0.002995
97 0.003002
118 0.002987
129 0.002034
138 0.004023
144 0.00399
150 0.002999
156 0.000997
158 0.001028
115 0.00399
56 0.00402
23 0.0
28 0.002988
43 0.002993
65 0.002993
74 0.002996
84 0.003026
92 0.002948
90 0.001978
85 0.001998
85 0.002041
92 0.003997
103 0.004026
119 0.002008
130 0.002994
140 0.002992
152 0.002992
157 0.003963
161 0.004955
165 0.00503
169 0.001993
175 0.002999
178 0.000982
134 0.003989
78 0.004025
51 0.003022
56 0.001994
70 0.002984
90 0.002981
98 0.001989
106 0.003995
113 0.004987
109 0.002989
105 0.002974
105 0.002981
112 0.005024
121 0.00399
136 0.002974
146 0.002043
154 0.001994
164 0.002044
169 0.001993
173 0.00399
176 0.003989
180 0.002994
184 0.001983
189 0.002953
194 0.004987
164 0.005031
95 0.002989
74 0.002994
75 0.002959
95 0.002988
107 0.002986
114 0.005989
121 0.004031
128 0.002014
125 0.002024
120 0.002009
119 0.004026
122 0.004942
133 0.003033
143 0.002996
153 0.003011
166 0.002991
171 0.001995
176 0.003943
179 0.004992
184 0.002989
186 0.001995
188 0.002972
192 0.00494
197 0.004987
195 0.001983
146 0.001997
99 0.001996
78 0.002959
86 0.003002
99 0.005019
110 0.004988
118 0.003002
125 0.002986
130 0.002994
128 0.00502
123 0.005939
121 0.002991
126 0.002046
140 0.003004
149 0.002992
157 0.003048
165 0.00502
171 0.005034
177 0.001991
181 0.002989
184 0.002997
187 0.004985
190 0.004947
195 0.002983
200 0.00297
172 0.003997
115 0.002979
82 0.002995
75 0.006015
83 0.005057
100 0.00299
111 0.002999
119 0.002995
126 0.005985
131 0.005037
129 0.005035
121 0.001998
121 0.006024
128 0.003005
137 0.002995
147 0.002991
157 0.006017
165 0.005984
174 0.002989
180 0.002996
184 0.002976
187 0.004984
190 0.004976
195 0.002992
201 0.005988
157 0.003018
106 0.002995
81 0.002992
78 0.00499
87 0.006018
106 0.00299
117 0.002995
127 0.002993
137 0.006015
140 0.006025
130 0.002994
123 0.005985
126 0.002944
134 0.001985
144 0.00202
154 0.006024
164 0.005991
175 0.002967
181 0.00301
186 0.003035
190 0.006014
194 0.006016
199 0.003019
157 0.005985
94 0.002028
76 0.002028
78 0.003957
91 0.006022
107 0.007028
125 0.002989
139 0.003045
149 0.002993
146 0.005986
133 0.006029
124 0.001998
128 0.005985
140 0.002987
150 0.002974
161 0.002994
170 0.006014
178 0.006022
185 0.003986
191 0.003992
196 0.003988
199 0.006011
164 0.006018
93 0.002952
70 0.005984
80 0.003022
97 0.002932
114 0.003009
131 0.006018
147 0.005992
154 0.003962
141 0.004026
127 0.003815
123 0.006987
126 0.006951
138 0.002982
153 0.006994
167 0.003001
176 0.00399
183 0.002964
189 0.006983
195 0.006006
195 0.004011
142 0.00399
87 0.002991
65 0.00749
