116 0.032912
116 0.000964
132 0.000971
141 0.000963
134 0.000997
126 0.000998
127 0.0
134 0.0
144 0.0
157 0.000967
167 0.000967
177 0.000967
182 0.000968
187 0.000968
197 0.000972
190 0.000952
137 0.000968
88 0.000966
69 0.0
74 0.0
91 0.0
115 0.0
136 0.0
149 0.0
153 0.0
144 0.000998
134 0.000994
135 0.000997
146 0.000996
156 0.001015
165 0.000997
176 0.0
183 0.0
192 0.0
199 0.0
192 0.0
149 0.0
90 0.0
53 0.0
61 0.000976
84 0.000989
103 0.000997
123 0.000956
135 0.00101
134 0.0
122 0.0
117 0.0
118 0.0
128 0.0
139 0.0
151 0.0
166 0.0
173 0.0
181 0.0
187 0.0
177 0.0
129 0.0
51 0.000982
28 0.0
33 0.0
50 0.000997
74 0.0
93 0.0
109 0.0
109 0.0
102 0.0
100 0.0
103 0.0
112 0.0
128 0.0
137 0.000998
152 0.0
158 0.0
165 0.0
172 0.000955
171 0.0
117 0.0
53 0.0
20 0.0
22 0.0
40 0.0
57 0.001003
73 0.000968
94 0.0
99 0.0
95 0.0
90 0.0
94 0.0
104 0.0
115 0.00103
132 0.0
138 0.0
147 0.0
155 0.000964
163 0.0
171 0.0
168 0.0
116 0.0
51 0.000965
11 0.0
22 0.000997
41 0.000997
64 0.0
81 0.0
93 0.0
94 0.001009
90 0.000998
87 0.0
89 0.0
98 0.0
113 0.000963
129 0.00101
141 0.000993
150 0.001006
156 0.001006
164 0.0
170 0.0
162 0.000997
121 0.00101
45 0.0
24 0.0
28 0.000998
45 0.002003
71 0.001009
95 0.000997
106 0.001031
106 0.000999
96 0.0
94 0.000999
100 0.001042
108 0.000997
126 0.0
134 0.000997
143 0.0
152 0.000964
163 0.0
170 0.0
171 0.001031
145 0.002049
77 0.000998
47 0.000998
44 0.000997
57 0.002032
77 0.001995
102 0.001023
115 0.000996
126 0.000987
114 0.000955
109 0.000963
109 0.001005
116 0.000999
131 0.0
142 0.000998
151 0.000997
160 0.002038
168 0.002026
176 0.000998
174 0.000999
144 0.00099
69 0.000993
42 0.000948
48 0.000997
64 0.000997
91 0.001029
110 0.000986
124 0.000998
124 0.001995
115 0.001995
108 0.001024
109 0.00104
116 0.000954
132 0.001049
144 0.002034
154 0.001995
162 0.001986
172 0.001034
177 0.000997
157 0.000966
103 0.002028
46 0.001995
22 0.001031
32 0.001007
44 0.000975
73 0.000986
93 0.001995
103 0.001995
100 0.001995
90 0.000995
91 0.00103
97 0.001029
107 0.002026
119 0.001999
134 0.000997
143 0.000996
151 0.001995
161 0.001985
169 0.002026
156 0.001995
106 0.001995
44 0.002026
9 0.00103
16 0.000995
33 0.001995
52 0.002992
75 0.000988
87 0.000985
91 0.000965
83 0.000953
83 0.001994
89 0.002027
100 0.003024
115 0.001992
125 0.001997
138 0.001963
146 0.001995
153 0.002027
161 0.002026
166 0.00203
168 0.001995
74 0.001038
24 0.000996
11 0.001994
21 0.002031
43 0.001995
62 0.002042
81 0.001995
93 0.002992
94 0.002986
87 0.00199
84 0.001999
91 0.002026
100 0.002004
113 0.002031
132 0.002031
141 0.001994
147 0.001996
156 0.001036
165 0.001997
172 0.003022
170 0.002992
123 0.00198
60 0.001993
24 0.002022
28 0.002026
48 0.002027
70 0.002992
91 0.003028
105 0.002026
108 0.002031
103 0.003031
95 0.002992
96 0.002992
103 0.003025
114 0.002986
128 0.003024
150 0.001982
159 0.00203
166 0.002969
171 0.002991
178 0.002991
181 0.001994
155 0.001995
94 0.003991
49 0.003028
38 0.003022
57 0.00298
70 0.002977
107 0.002992
124 0.002991
133 0.003024
123 0.002992
110 0.001995
114 0.002029
120 0.001991
130 0.001995
142 0.002992
154 0.004008
165 0.002983
171 0.002992
179 0.003022
185 0.003031
191 0.002992
161 0.002992
97 0.003024
39 0.00203
33 0.002029
46 0.002013
69 0.002992
90 0.003991
114 0.002987
125 0.002988
114 0.002992
109 0.003027
108 0.003022
113 0.002986
124 0.003034
141 0.001994
153 0.002021
158 0.002995
165 0.004033
171 0.003988
177 0.002988
180 0.002996
158 0.003028
104 0.004027
44 0.003053
32 0.003989
46 0.003981
71 0.003027
90 0.003014
108 0.002953
120 0.004022
120 0.004026
110 0.003025
105 0.002996
114 0.002992
122 0.003016
135 0.003989
148 0.00399
158 0.003989
169 0.002984
177 0.002987
184 0.002992
186 0.00399
171 0.00496
95 0.003933
60 0.003989
38 0.003955
52 0.003985
71 0.003958
95 0.003992
115 0.003993
122 0.002996
118 0.003975
110 0.002973
106 0.004951
112 0.004986
123 0.003988
135 0.00399
149 0.003949
158 0.003988
165 0.00399
175 0.003986
181 0.003971
168 0.002992
120 0.002946
68 0.003005
45 0.004951
49 0.005023
70 0.003989
91 0.003989
123 0.003983
130 0.003988
131 0.003989
116 0.003989
110 0.003984
114 0.002987
122 0.003989
134 0.003958
143 0.004986
155 0.005018
167 0.004015
175 0.003987
175 0.003988
137 0.004013
97 0.003947
49 0.004023
48 0.003958
61 0.003992
81 0.003957
111 0.004016
129 0.004982
135 0.00502
125 0.003989
118 0.003987
118 0.003988
126 0.003988
137 0.004025
148 0.004956
158 0.004011
169 0.003984
179 0.003991
184 0.003988
169 0.003955
114 0.004023
52 0.004987
29 0.004023
45 0.004987
71 0.004035
92 0.004946
108 0.004987
115 0.004986
107 0.004987
102 0.004986
99 0.004987
106 0.004987
114 0.004987
130 0.003989
140 0.00402
153 0.003957
160 0.003965
169 0.003984
168 0.004981
131 0.005951
49 0.004979
20 0.004987
16 0.004953
36 0.003997
55 0.004985
73 0.004986
95 0.00402
103 0.00499
96 0.003995
91 0.003957
96 0.003997
105 0.005002
116 0.005983
134 0.004986
144 0.004986
153 0.004006
161 0.004989
166 0.004966
176 0.003989
164 0.004956
90 0.004021
40 0.003948
26 0.003992
35 0.005986
55 0.006015
81 0.00502
98 0.005021
111 0.004987
114 0.005982
108 0.005017
102 0.003988
109 0.004996
123 0.003985
133 0.004956
146 0.004956
156 0.005985
163 0.005986
170 0.00497
176 0.004981
184 0.005019
182 0.005983
150 0.005985
91 0.005162
43 0.005995
50 0.00602
70 0.005983
92 0.004982
118 0.004961
131 0.005955
128 0.004937
117 0.004957
113 0.004951
116 0.005977
123 0.005946
135 0.004985
152 0.005996
163 0.005025
171 0.004986
178 0.003989
184 0.005985
189 0.005991
164 0.004976
111 0.004988
62 0.004987
46 0.00601
55 0.005984
85 0.004986
112 0.00599
133 0.00503
138 0.006002
132 0.005986
120 0.006968
118 0.005977
124 0.005943
133 0.005943
150 0.004985
158 0.006022
168 0.006021
181 0.004975
187 0.005984
193 0.004987
193 0.005984
163 0.00598
99 0.006984
49 0.006976
42 0.005968
59 0.005952
70 0.005946
96 0.006009
113 0.005983
124 0.005983
119 0.005984
110 0.005991
113 0.005984
120 0.005981
130 0.006982
143 0.006982
157 0.005984
165 0.006017
173 0.006014
177 0.006966
184 0.006991
192 0.004986
161 0.005984
99 0.005983
44 0.005993
40 0.005982
53 0.006947
72 0.006981
96 0.005949
114 0.005946
123 0.006022
120 0.005993
114 0.007027
111 0.00602
118 0.006003
130 0.006004
140 0.00602
149 0.005978
160 0.007017
169 0.007012
175 0.00602
183 0.00598
192 0.006021
196 0.007012
181 0.007024
115 0.006016
57 0.006981
55 0.006008
71 0.006982
84 0.007034
109 0.006982
126 0.006941
135 0.006977
131 0.00599
121 0.006022
116 0.006995
123 0.006985
136 0.00602
155 0.007978
164 0.007964
173 0.007015
180 0.007027
184 0.007013
193 0.007981
196 0.007979
179 0.006007
134 0.00601
85 0.005999
63 0.007016
68 0.007022
97 0.006982
115 0.006981
140 0.006019
148 0.007027
142 0.007018
130 0.007979
125 0.007979
129 0.006015
139 0.006004
149 0.005027
161 0.007022
170 0.007013
183 0.006981
189 0.00702
198 0.007022
193 0.007021
155 0.007013
96 0.007979
61 0.007979
58 0.00702
75 0.007012
95 0.007022
113 0.007021
132 0.006979
140 0.006967
130 0.007979
123 0.006947
123 0.006981
131 0.007014
142 0.007985
153 0.007978
167 0.006982
177 0.006977
183 0.00699
191 0.00797
195 0.007011
178 0.007978
124 0.007978
54 0.006981
40 0.006982
50 0.006947
68 0.007979
93 0.007981
109 0.007039
123 0.006981
122 0.007025
112 0.007949
107 0.007966
115 0.00698
125 0.007979
132 0.007975
147 0.006981
158 0.00701
164 0.007979
170 0.007979
180 0.006972
183 0.007018
163 0.00702
90 0.007979
44 0.007946
30 0.007978
50 0.007031
73 0.007015
90 0.007024
104 0.006981
109 0.007979
108 0.007978
100 0.007012
100 0.007034
106 0.006993
120 0.007974
130 0.007975
147 0.007957
159 0.007016
168 0.007015
173 0.006981
180 0.007012
183 0.007998
160 0.007977
105 0.007019
44 0.006974
36 0.006976
47 0.006983
65 0.006985
94 0.006019
110 0.006981
115 0.006944
114 0.007939
103 0.007025
104 0.007012
110 0.006981
123 0.006929
134 0.006984
144 0.007005
149 0.007012
159 0.006976
170 0.006975
178 0.006988
153 0.00702
105 0.007013
59 0.006018
45 0.005984
55 0.006981
79 0.005985
102 0.006993
120 0.006981
133 0.007039
133 0.006991
115 0.00701
115 0.007012
124 0.007017
134 0.007014
145 0.007014
154 0.006014
163 0.005959
173 0.00599
179 0.005963
185 0.006021
170 0.007026
122 0.007015
49 0.00703
51 0.00702
65 0.006981
94 0.007015
115 0.006024
129 0.006018
136 0.006982
130 0.00597
119 0.005991
118 0.005991
124 0.00598
136 0.005982
153 0.006012
162 0.005984
168 0.007008
179 0.007031
184 0.007016
185 0.00698
161 0.00698
100 0.005984
46 0.005984
44 0.005983
58 0.005979
76 0.005982
104 0.005982
118 0.006019
123 0.00602
114 0.005984
110 0.006978
113 0.007017
122 0.005984
132 0.006982
148 0.005983
157 0.005985
164 0.005984
170 0.00595
181 0.006016
185 0.006018
171 0.005971
118 0.004988
54 0.006022
45 0.006025
55 0.005984
72 0.005981
94 0.005982
109 0.005988
119 0.005974
120 0.005992
110 0.006019
111 0.006016
117 0.005984
130 0.005984
141 0.006034
151 0.005032
158 0.005014
166 0.005984
172 0.005998
176 0.00499
182 0.005985
187 0.00598
130 0.006015
74 0.006021
53 0.005984
60 0.005986
76 0.005985
93 0.004964
109 0.004978
121 0.004985
122 0.004954
114 0.004987
108 0.004979
110 0.005999
123 0.006079
134 0.005981
145 0.00602
154 0.006018
156 0.005021
156 0.004989
153 0.004975
157 0.004986
160 0.004988
141 0.005951
90 0.005974
52 0.005978
56 0.005986
72 0.006024
91 0.006017
115 0.005021
129 0.005019
127 0.00499
116 0.004985
106 0.00499
109 0.004969
117 0.004986
126 0.004984
138 0.005988
152 0.006043
159 0.005984
164 0.004987
173 0.004981
178 0.005021
163 0.004985
113 0.004994
65 0.00499
50 0.004986
60 0.004989
75 0.004982
93 0.004981
117 0.004987
123 0.005985
119 0.004987
109 0.004986
109 0.004982
116 0.004985
126 0.004984
135 0.005015
149 0.004986
157 0.004976
162 0.004984
168 0.004985
177 0.004987
183 0.005021
167 0.004986
89 0.004033
49 0.004025
40 0.003991
50 0.004992
67 0.004985
88 0.004986
103 0.004989
113 0.004988
114 0.004952
107 0.005023
106 0.005029
112 0.005028
121 0.005021
136 0.00502
145 0.004989
155 0.00497
162 0.004984
167 0.004986
173 0.003986
177 0.003974
185 0.003987
172 0.003991
124 0.004023
65 0.004981
42 0.005022
48 0.00502
63 0.004991
81 0.003991
95 0.003992
107 0.003976
116 0.003999
113 0.003995
107 0.003993
112 0.004021
121 0.004034
132 0.003984
145 0.004026
156 0.005021
167 0.004989
175 0.003946
179 0.004026
182 0.003996
192 0.003997
197 0.003998
188 0.003995
106 0.003994
64 0.00399
54 0.004041
65 0.00403
88 0.003985
105 0.004987
122 0.003999
131 0.003994
132 0.003955
125 0.003989
120 0.004157
122 0.003995
137 0.004022
148 0.004025
157 0.00402
167 0.004027
176 0.004012
182 0.003987
186 0.002991
191 0.003945
197 0.003988
190 0.003972
150 0.004037
102 0.004008
73 0.004021
82 0.004022
100 0.004017
119 0.004017
141 0.003988
152 0.00399
150 0.002987
138 0.00296
132 0.002994
132 0.003002
140 0.002994
151 0.004005
168 0.004019
177 0.00403
183 0.004021
190 0.002999
198 0.003956
200 0.00396
177 0.002992
127 0.002957
89 0.002982
74 0.00399
85 0.004009
102 0.003974
132 0.004033
147 0.004007
152 0.004029
146 0.003044
133 0.002959
132 0.002974
136 0.002982
144 0.003018
153 0.002973
167 0.00296
175 0.003007
181 0.004006
194 0.003023
191 0.004023
159 0.00402
105 0.003023
56 0.003989
55 0.003952
67 0.003958
83 0.002991
100 0.002956
122 0.003003
128 0.002957
124 0.002984
112 0.003003
113 0.003034
117 0.002992
128 0.001994
141 0.001999
150 0.002952
159 0.003013
165 0.003037
172 0.003051
172 0.003019
142 0.002962
85 0.002969
33 0.002992
38 0.002993
54 0.003009
70 0.001995
91 0.002958
106 0.002991
108 0.003006
103 0.00299
97 0.00296
98 0.003008
105 0.002949
115 0.002987
126 0.002992
143 0.002993
150 0.002992
157 0.002028
166 0.00301
167 0.002954
141 0.001959
87 0.001994
40 0.001993
27 0.001994
42 0.002994
60 0.002953
76 0.002957
103 0.002999
107 0.00303
103 0.001994
97 0.002991
99 0.003986
106 0.001963
115 0.00205
126 0.001959
137 0.001989
148 0.002957
157 0.001956
162 0.002977
173 0.002049
161 0.002992
120 0.00301
69 0.00298
41 0.002037
49 0.001995
66 0.001999
83 0.001995
101 0.001963
119 0.00196
121 0.001998
111 0.001997
107 0.003023
108 0.002995
116 0.002977
129 0.002989
141 0.001993
150 0.001964
159 0.001996
165 0.002001
173 0.002
175 0.001995
147 0.001991
98 0.001995
51 0.001982
59 0.001995
73 0.001995
92 0.002029
119 0.002006
136 0.000972
138 0.000992
127 0.001969
123 0.002012
124 0.001995
130 0.001994
141 0.001994
160 0.002026
169 0.001994
176 0.002005
186 0.001963
197 0.00201
192 0.001014
154 0.001019
97 0.001959
67 0.001967
68 0.001995
83 0.001988
103 0.001977
136 0.001995
148 0.000997
145 0.001001
135 0.001993
128 0.00101
128 0.002033
134 0.000997
144 0.000998
156 0.001009
167 0.001012
176 0.002001
184 0.002
192 0.002026
164 0.002025
106 0.000979
61 0.001995
50 0.001005
64 0.000996
77 0.000991
101 0.000996
120 0.000997
137 0.001
136 0.000996
128 0.001011
125 0.000997
132 0.000998
141 0.001994
154 0.002016
167 0.002014
176 0.001995
184 0.001001
194 0.001009
197 0.001006
150 0.001001
87 0.001009
51 0.000964
54 0.000966
73 0.000997
93 0.000993
113 0.001009
132 0.000984
132 0.002005
122 0.001
115 0.001027
115 0.001007
124 0.001018
135 0.000997
147 0.000998
164 0.000997
172 0.001006
180 0.000992
186 0.000998
182 0.000941
137 0.0
63 0.000998
19 0.0
16 0.0
38 0.001049
58 0.001014
79 0.001004
112 0.001033
123 0.000985
112 0.000998
99 0.000996
92 0.00198
89 0.0
89 0.0
104 0.0
134 0.0
163 0.0
195 0.00101
215 0.001005
246 0.000997
255 0.000984
255 0.000995
255 0.000996
208 0.000996
107 0.0
86 0.0
95 0.0
122 0.0
151 0.001015
186 0.000991
208 0.0
225 0.000997
222 0.001029
219 0.0
231 0.0
250 0.0
255 0.0
255 0.0
255 0.0
255 0.0
255 0.0
255 0.0
255 0.0
255 0.0
255 0.0
255 0.001013
255 0.00101
215 0.0
167 0.0
172 0.0
190 0.0
215 0.0
237 0.0
197 0.0
201 0.0
193 0.0
187 0.0
187 0.0
194 0.000995
199 0.0
210 0.0
217 0.0
223 0.0
228 0.0
231 0.0
235 0.000961
238 0.0
185 0.000998
174 0.000992
142 0.0
131 0.000996
130 0.0
134 0.000943
140 0.000995
146 0.0
154 0.0
158 0.0
157 0.000997
153 0.000995
149 0.001041
151 0.000997
155 0.0
159 0.0
162 0.0
166 0.001996
168 0.001003
170 0.000998
172 0.0
174 0.0
173 0.000999
160 0.000996
127 0.00103
122 0.001003
125 0.0
132 0.0
138 0.0
144 0.001019
149 0.001
150 0.0
147 0.000997
143 0.000979
142 0.001994
144 0.001994
149 0.000987
152 0.001001
156 0.0
159 0.0
161 0.0
163 0.001002
164 0.000997
159 0.0
138 0.0
120 0.0
114 0.001973
115 0.000998
125 0.001995
132 0.000997
140 0.0
144 0.001006
143 0.0
139 0.000996
135 0.00099
135 0.0
137 0.000992
141 0.00097
144 0.001964
147 0.001967
152 0.00196
154 0.001942
156 0.001001
177 0.0
135 0.0
99 0.000997
87 0.001027
94 0.001003
108 0.001005
123 0.00099
139 0.000968
150 0.001996
148 0.00104
139 0.001962
134 0.001966
135 0.00096
140 0.0
148 0.000997
155 0.000993
161 0.000992
169 0.000985
174 0.000994
176 0.000965
164 0.002002
89 0.001002
72 0.001997
72 0.001965
87 0.000962
102 0.000948
117 0.000956
130 0.001994
134 0.001996
127 0.001
117 0.001106
115 0.001005
119 0.001993
131 0.000997
139 0.001995
146 0.001994
154 0.000985
160 0.00099
164 0.001024
161 0.00196
121 0.002009
66 0.001029
54 0.001013
58 0.001021
71 0.001982
96 0.000997
110 0.002029
118 0.001992
115 0.002037
104 0.001044
99 0.000989
103 0.001952
110 0.003029
121 0.00102
129 0.0
138 0.002007
144 0.002035
152 0.001969
156 0.002097
151 0.001987
91 0.000999
56 0.000998
46 0.001
52 0.00201
65 0.001995
85 0.001014
100 0.001011
110 0.001996
111 0.00298
95 0.001997
91 0.002993
95 0.00299
107 0.00099
117 0.000994
127 0.000993
135 0.002003
141 0.001996
148 0.000954
152 0.000995
155 0.001989
138 0.003034
64 0.001936
49 0.002992
52 0.002992
69 0.001005
85 0.000997
99 0.000999
111 0.001991
113 0.001995
103 0.000965
96 0.002
95 0.001992
102 0.003014
118 0.000996
128 0.003004
136 0.002989
145 0.001965
150 0.001012
153 0.001989
156 0.001998
158 0.002991
119 0.001
75 0.000997
57 0.000993
59 0.001994
82 0.000997
98 0.002989
114 0.003018
126 0.001988
122 0.001998
110 0.001979
103 0.003005
104 0.003003
116 0.001989
126 0.000997
136 0.001994
145 0.002989
157 0.00101
162 0.002987
166 0.002983
169 0.001992
145 0.001992
97 0.001995
72 0.002974
70 0.00301
83 0.001989
100 0.001988
116 0.00199
131 0.003989
138 0.001999
128 0.003988
119 0.002976
119 0.001987
126 0.001994
136 0.001998
147 0.003
155 0.002951
164 0.002006
170 0.001951
173 0.002024
177 0.002992
170 0.001981
122 0.002028
83 0.00399
71 0.003993
79 0.003018
94 0.002978
110 0.003001
124 0.003991
136 0.003987
138 0.001983
128 0.002022
120 0.002948
125 0.001979
134 0.003001
145 0.00299
156 0.004004
166 0.002973
173 0.002945
177 0.002992
180 0.003989
184 0.003999
185 0.001995
153 0.002985
103 0.003025
73 0.001951
80 0.001963
93 0.003025
108 0.004029
127 0.002995
136 0.002993
137 0.002992
130 0.004021
122 0.003988
123 0.003002
130 0.003016
140 0.002992
156 0.003002
163 0.002985
169 0.005022
173 0.003987
178 0.003
181 0.002992
184 0.002991
174 0.004021
127 0.004021
80 0.00299
72 0.003964
81 0.003989
106 0.003995
120 0.003037
132 0.004986
139 0.005034
132 0.002999
122 0.002982
119 0.002993
124 0.00402
132 0.004037
145 0.003003
154 0.002995
161 0.00299
170 0.002976
174 0.003014
178 0.005019
181 0.005017
165 0.002989
116 0.002972
85 0.002979
78 0.004002
86 0.00398
107 0.002973
122 0.003002
138 0.002994
151 0.002998
144 0.003998
134 0.005027
131 0.005023
138 0.00402
147 0.002967
157 0.002989
165 0.004992
173 0.003987
182 0.00301
187 0.003025
190 0.00301
185 0.003991
137 0.003993
94 0.004993
77 0.004987
86 0.003993
103 0.003985
119 0.00402
133 0.005019
144 0.004999
148 0.002989
141 0.003029
134 0.003014
138 0.002997
145 0.002995
151 0.004987
160 0.005017
171 0.002988
176 0.003072
179 0.003003
182 0.005073
186 0.005027
178 0.002969
129 0.00399
91 0.004023
84 0.003026
99 0.003006
113 0.00503
126 0.006004
144 0.002987
151 0.004003
148 0.003987
140 0.005981
133 0.006023
136 0.003989
144 0.004002
152 0.003976
166 0.004015
172 0.003011
176 0.005018
181 0.005018
185 0.003073
187 0.003994
180 0.004029
138 0.004025
90 0.006014
69 0.005986
72 0.004979
86 0.004022
110 0.003989
121 0.00399
129 0.004023
130 0.005017
122 0.00503
116 0.003975
118 0.004008
125 0.004983
135 0.005984
143 0.006015
153 0.005017
159 0.004921
166 0.00496
169 0.004026
172 0.004026
174 0.006022
155 0.005984
88 0.00398
66 0.004002
66 0.003993
77 0.004984
93 0.005993
113 0.004989
126 0.00499
133 0.004992
127 0.004986
121 0.004029
119 0.006031
124 0.00602
135 0.004984
144 0.00501
151 0.003994
159 0.006018
165 0.007016
172 0.00499
177 0.004991
175 0.004989
142 0.004982
97 0.004983
79 0.005983
82 0.006019
99 0.004986
115 0.004984
131 0.005019
145 0.00602
150 0.006025
143 0.006018
137 0.005014
138 0.004977
145 0.004989
153 0.00499
163 0.005982
170 0.005973
178 0.005002
183 0.004993
187 0.005992
191 0.007016
186 0.006982
130 0.00598
87 0.006017
75 0.006008
87 0.006016
102 0.004989
119 0.006018
135 0.007002
146 0.004989
143 0.004978
137 0.005979
133 0.005984
133 0.007014
142 0.006015
150 0.006021
165 0.005969
170 0.005985
177 0.004974
183 0.007981
187 0.007017
183 0.004988
148 0.00598
95 0.005945
69 0.00697
68 0.006981
87 0.005992
102 0.00602
127 0.006017
137 0.005018
138 0.004968
133 0.007014
127 0.006016
127 0.006015
134 0.006016
143 0.006001
151 0.00702
159 0.007013
168 0.005986
173 0.005985
180 0.006026
182 0.00698
165 0.005964
111 0.006014
64 0.007977
60 0.006019
70 0.006022
85 0.005017
100 0.007012
113 0.006997
125 0.005969
124 0.006011
113 0.006018
111 0.005002
114 0.005019
122 0.007027
134 0.007979
142 0.005974
148 0.005973
154 0.005982
160 0.008001
162 0.007979
166 0.005983
158 0.005989
98 0.007011
53 0.005979
49 0.005996
59 0.005946
75 0.007979
91 0.006985
109 0.006016
117 0.005994
115 0.005998
105 0.007983
101 0.007979
102 0.005984
114 0.007982
123 0.00599
131 0.005992
138 0.005985
145 0.00702
150 0.007979
156 0.005986
155 0.007003
127 0.006981
78 0.007978
53 0.00798
57 0.007014
81 0.00798
97 0.00595
113 0.006025
122 0.007026
121 0.007971
113 0.007978
109 0.005986
110 0.005981
116 0.007002
128 0.007977
138 0.007983
145 0.007013
155 0.007989
160 0.007014
165 0.005987
164 0.006005
109 0.007975
62 0.007979
47 0.006024
52 0.006962
66 0.00698
83 0.007977
99 0.007979
115 0.00697
115 0.00798
108 0.006974
104 0.006996
106 0.006016
116 0.007978
122 0.007976
137 0.006964
146 0.006946
153 0.00698
158 0.007012
162 0.008015
166 0.006985
149 0.007979
75 0.006985
46 0.00702
42 0.006017
58 0.007978
74 0.007006
93 0.006986
107 0.006981
112 0.006985
109 0.006979
103 0.007024
101 0.006979
109 0.006985
118 0.006993
127 0.006996
139 0.00695
146 0.00699
153 0.006982
160 0.006983
163 0.006965
168 0.006982
169 0.007028
143 0.007016
85 0.006984
45 0.007979
50 0.006967
64 0.006969
81 0.006989
100 0.006975
111 0.00698
113 0.00701
108 0.006982
103 0.006989
104 0.007019
110 0.006982
122 0.006979
138 0.006966
149 0.00698
157 0.00698
164 0.006959
169 0.006008
174 0.006972
182 0.006982
186 0.00698
179 0.006982
135 0.007015
84 0.007018
64 0.006971
76 0.007009
96 0.006985
111 0.006983
125 0.005981
133 0.005971
130 0.005985
120 0.005982
117 0.005987
119 0.006031
127 0.007014
136 0.007021
148 0.007015
157 0.006985
164 0.006981
169 0.006986
172 0.006987
173 0.006971
175 0.005994
161 0.006001
112 0.005985
70 0.006014
56 0.006014
61 0.007034
76 0.006016
103 0.006984
119 0.006983
128 0.006982
124 0.006981
117 0.005965
111 0.00598
113 0.005982
123 0.005983
133 0.006018
142 0.00602
150 0.006017
156 0.005965
165 0.005986
169 0.005986
173 0.005986
169 0.005953
134 0.006978
82 0.005997
57 0.005856
59 0.005982
72 0.006017
88 0.006013
104 0.006018
120 0.006015
124 0.005986
116 0.005989
108 0.005988
108 0.005001
115 0.005021
123 0.005972
132 0.005985
144 0.005994
150 0.006023
156 0.006017
160 0.00602
163 0.006021
157 0.005981
117 0.005983
62 0.005975
51 0.004988
58 0.004937
73 0.004971
89 0.004985
110 0.005018
122 0.006019
123 0.006043
115 0.005966
107 0.00602
107 0.005984
112 0.00597
125 0.005983
134 0.004988
142 0.004987
148 0.004995
153 0.005003
159 0.005022
154 0.005022
121 0.006018
74 0.006022
53 0.006018
63 0.005992
79 0.005985
102 0.005985
119 0.004993
127 0.004986
125 0.004982
116 0.004984
108 0.005021
110 0.005024
117 0.00502
125 0.00502
135 0.005993
148 0.005983
155 0.006019
161 0.005983
159 0.004976
123 0.004985
69 0.004985
44 0.004989
46 0.005024
59 0.00502
76 0.004986
93 0.004985
108 0.005019
112 0.004986
102 0.00599
94 0.004999
96 0.004983
103 0.004981
113 0.004989
121 0.00496
132 0.004985
138 0.004981
143 0.005022
147 0.005023
145 0.00502
67 0.004988
30 0.004978
22 0.004986
35 0.004982
52 0.004991
66 0.003964
82 0.003991
93 0.00502
90 0.005024
84 0.00502
80 0.005018
83 0.00503
99 0.004955
110 0.004994
122 0.004984
129 0.00498
135 0.003986
140 0.003998
145 0.003998
132 0.00399
80 0.003986
38 0.004982
24 0.005032
30 0.005011
53 0.004984
68 0.005
81 0.00399
92 0.003969
88 0.003993
79 0.00399
79 0.003993
84 0.004029
97 0.00399
108 0.004027
118 0.004033
127 0.004023
137 0.004988
142 0.003985
147 0.004018
150 0.003995
132 0.003988
79 0.003959
44 0.003956
35 0.004025
49 0.003989
64 0.00398
77 0.004
91 0.004041
101 0.003956
96 0.003957
89 0.003945
89 0.003983
98 0.00398
108 0.003985
119 0.004018
129 0.00399
138 0.004006
143 0.004029
147 0.003975
150 0.003991
155 0.003995
159 0.003957
157 0.003955
104 0.002951
61 0.002977
45 0.004001
50 0.004021
63 0.004033
84 0.004021
99 0.004021
112 0.004022
113 0.004027
95 0.00398
91 0.003956
97 0.003957
111 0.003
122 0.002962
132 0.003988
140 0.004031
146 0.002994
153 0.003992
158 0.003033
162 0.003026
168 0.004025
148 0.003955
97 0.00399
67 0.003945
65 0.003959
77 0.002947
94 0.002954
111 0.00296
127 0.003045
135 0.002992
128 0.004021
117 0.004051
113 0.004025
122 0.003985
131 0.003952
141 0.002963
151 0.003008
157 0.003989
162 0.002976
166 0.002995
169 0.002993
173 0.002969
173 0.002964
142 0.002993
87 0.003027
52 0.003005
60 0.002999
75 0.004
94 0.003956
109 0.002993
121 0.002945
123 0.002995
116 0.002993
106 0.003026
107 0.00302
115 0.002992
127 0.002993
145 0.002996
153 0.00395
159 0.003958
165 0.003957
170 0.00199
174 0.002967
176 0.003004
172 0.002995
115 0.002992
72 0.002991
57 0.003044
62 0.003027
87 0.002994
104 0.003977
120 0.00301
131 0.003021
127 0.002999
116 0.002963
109 0.002993
112 0.001995
123 0.002992
133 0.00311
143 0.003011
151 0.002992
163 0.002962
167 0.001997
171 0.002987
175 0.002987
176 0.002999
148 0.002998
96 0.002992
68 0.002993
67 0.002994
81 0.002993
99 0.002026
117 0.001994
139 0.001991
140 0.002009
131 0.001942
121 0.001995
119 0.00201
126 0.001965
136 0.002011
146 0.002027
155 0.002002
164 0.002997
170 0.003026
175 0.002992
183 0.002043
176 0.001989
132 0.001985
87 0.001998
71 0.002009
79 0.001995
96 0.001995
113 0.001999
130 0.002044
149 0.001995
148 0.002002
139 0.002009
127 0.001984
130 0.001995
139 0.002002
148 0.002027
160 0.00204
168 0.001995
175 0.001995
180 0.001995
184 0.001995
183 0.001995
146 0.001994
90 0.002023
59 0.002002
68 0.001993
85 0.001996
102 0.000978
123 0.001997
134 0.001995
136 0.001996
128 0.002005
118 0.001995
117 0.002006
124 0.001044
133 0.001995
150 0.00202
158 0.001986
165 0.002004
170 0.000979
177 0.000999
180 0.000998
166 0.000998
108 0.001009
63 0.001008
49 0.001996
59 0.001996
74 0.002008
101 0.001997
115 0.001997
123 0.002002
120 0.001956
110 0.000993
108 0.000999
112 0.000998
120 0.001003
129 0.000997
142 0.000998
151 0.000997
158 0.000997
167 0.001961
171 0.001928
175 0.002006
171 0.002003
107 0.002
62 0.001995
46 0.001031
52 0.000998
66 0.001006
87 0.000997
103 0.000998
116 0.001005
118 0.001028
109 0.001029
104 0.000999
106 0.000983
118 0.002001
128 0.002015
138 0.002027
146 0.000997
153 0.000999
163 0.000999
167 0.000997
171 0.000997
174 0.001
150 0.001001
91 0.000997
57 0.001
52 0.00199
64 0.002004
80 0.000998
96 0.0
112 0.000998
123 0.000997
119 0.000997
109 0.000998
103 0.000999
109 0.001001
120 0.000981
130 0.000971
142 0.000994
149 0.000997
154 0.000998
159 0.0
163 0.0
168 0.0
162 0.0
117 0.000998
59 0.000999
56 0.000981
69 0.0
85 0.000994
109 0.000997
124 0.0
132 0.0
130 0.0
118 0.0
109 0.0
113 0.0
122 0.0
138 0.0
147 0.0
155 0.0
160 0.0
166 0.0
171 0.000997
170 0.000997
136 0.000997
87 0.000999
67 0.0
73 0.0
88 0.0
117 0.0
134 0.0
144 0.0
143 0.0
134 0.0
123 0.0
124 0.0
132 0.0
143 0.0
151 0.0
162 0.0
169 0.0
179 0.0
178 0.0
147 0.0
96 0.0
72 0.0
74 0.0
88 0.0
104 0.0
121 0.0
143 0.00099
147 0.000999
140 0.001004
125 0.002007
127 0.001012
135 0.00096
147 0.0
157 0.0
165 0.001023
171 0.00103
179 0.0
182 0.0
163 0.0
103 0.00103
66 0.000997
61 0.000991
75 0.001992
91 0.00097
112 0.0
126 0.0
130 0.001999
125 0.002028
113 0.0
112 0.0
117 0.0
127 0.001029
138 0.001031
153 0.000996
161 0.000964
169 0.000985
174 0.0
176 0.0
151 0.002028
92 0.001006
53 0.0
54 0.0
66 0.0
80 0.002026
94 0.002027
117 0.000942
121 0.000998
115 0.000992
107 0.0
107 0.0
114 0.001035
124 0.000993
135 0.000998
148 0.001005
153 0.001003
162 0.002001
167 0.002026
175 0.001992
165 0.001995
94 0.0
60 0.0
53 0.0
62 0.001033
77 0.001029
99 0.0
115 0.0
123 0.000965
129 0.000998
121 0.001
112 0.002014
117 0.002001
130 0.0
140 0.0
149 0.0
156 0.001049
163 0.001029
170 0.0
174 0.0
178 0.0
178 0.001036
151 0.000999
70 0.001994
57 0.000998
70 0.0
86 0.0
102 0.0
119 0.001035
131 0.001029
130 0.0
120 0.0
112 0.0
112 0.001032
119 0.001031
134 0.001983
143 0.001992
154 0.0
161 0.0
167 0.0
171 0.001995
174 0.00203
163 0.0
113 0.0
76 0.0
65 0.001048
72 0.001039
100 0.001962
118 0.001972
140 0.0
144 0.0
138 0.0
126 0.0
120 0.001993
124 0.002044
137 0.0
146 0.000998
155 0.0
164 0.001029
175 0.001013
180 0.002001
184 0.002016
167 0.002014
111 0.0
77 0.001018
71 0.002027
80 0.001995
102 0.000966
119 0.000998
137 0.000996
148 0.001996
141 0.000998
131 0.001997
127 0.002
134 0.001032
141 0.002029
152 0.002001
161 0.001995
170 0.001995
178 0.000968
184 0.001065
188 0.001031
175 0.002993
87 0.000989
67 0.002998
69 0.002957
88 0.000998
104 0.000965
120 0.002
136 0.001995
142 0.001995
135 0.002026
125 0.000982
122 0.000983
126 0.001995
141 0.002003
150 0.002988
159 0.002992
168 0.001
175 0.000998
180 0.000965
184 0.002027
172 0.001995
96 0.001993
63 0.001996
58 0.001993
68 0.001994
94 0.000993
108 0.002992
123 0.003022
131 0.000993
125 0.000992
113 0.000997
111 0.002979
116 0.002992
131 0.000966
140 0.000965
148 0.001993
158 0.002
170 0.001002
174 0.002986
178 0.002997
175 0.002031
133 0.000999
79 0.00098
57 0.003028
57 0.002993
74 0.001018
89 0.000985
104 0.000959
118 0.003042
124 0.000995
115 0.001987
108 0.002035
111 0.001994
118 0.002003
127 0.002113
136 0.003025
145 0.002992
155 0.001029
161 0.001019
165 0.001012
169 0.002993
164 0.001995
118 0.003936
71 0.004031
54 0.00196
62 0.001999
77 0.001999
94 0.002992
110 0.002992
125 0.002011
126 0.001993
117 0.000986
108 0.002956
112 0.00198
119 0.00399
128 0.00399
140 0.001995
148 0.001999
154 0.00202
160 0.003023
165 0.002985
169 0.002002
151 0.002024
99 0.001993
65 0.002991
65 0.002992
81 0.003988
98 0.00399
120 0.003022
135 0.002028
138 0.001997
130 0.004022
120 0.00399
118 0.002016
124 0.00201
133 0.002002
142 0.00403
156 0.002997
163 0.003991
168 0.003989
175 0.004023
177 0.002025
146 0.002013
92 0.001995
67 0.00399
68 0.004006
89 0.001994
107 0.002
126 0.001979
152 0.002972
154 0.002993
147 0.003978
139 0.00399
141 0.00299
146 0.002025
152 0.001994
160 0.004004
169 0.004023
179 0.001993
184 0.002002
187 0.001996
192 0.002997
169 0.002988
108 0.004022
71 0.003989
65 0.002996
77 0.002989
92 0.002026
107 0.003989
121 0.00399
130 0.002011
129 0.00299
121 0.002993
117 0.003002
124 0.002988
133 0.003989
144 0.004011
155 0.002988
163 0.002995
169 0.003001
173 0.004022
176 0.004988
181 0.003024
178 0.002994
134 0.003009
60 0.003016
54 0.002998
64 0.004987
79 0.003995
100 0.002998
115 0.002991
125 0.001988
126 0.004953
119 0.004987
112 0.002029
113 0.00299
118 0.002991
130 0.002032
138 0.002992
144 0.004987
149 0.005018
154 0.002995
157 0.002986
160 0.003005
164 0.003989
161 0.003976
101 0.001998
55 0.002982
40 0.00299
55 0.002976
72 0.002981
88 0.00499
103 0.004993
113 0.002988
111 0.002993
103 0.003007
98 0.004987
99 0.005019
109 0.002994
117 0.00299
127 0.002999
142 0.002996
149 0.002985
154 0.005018
156 0.00492
163 0.002988
166 0.002995
156 0.002977
111 0.005025
67 0.004986
52 0.002994
60 0.003992
78 0.003994
107 0.002979
122 0.003974
129 0.005018
125 0.00502
113 0.003024
109 0.00298
112 0.00296
119 0.005004
130 0.006018
142 0.003993
150 0.004016
157 0.003988
166 0.003003
170 0.003973
173 0.005023
167 0.005019
110 0.003024
72 0.003026
63 0.002972
72 0.005022
88 0.005024
110 0.002976
128 0.00203
141 0.002993
141 0.002985
131 0.003992
126 0.006016
128 0.005986
138 0.003993
148 0.003972
157 0.003975
165 0.005985
172 0.005984
180 0.00399
183 0.003944
185 0.003932
137 0.002993
86 0.003985
65 0.005
68 0.004999
88 0.004031
105 0.003941
121 0.00398
136 0.005983
143 0.005984
136 0.003987
126 0.003001
122 0.003989
130 0.003993
138 0.003987
148 0.003995
156 0.005019
163 0.00502
172 0.004992
178 0.003987
180 0.004022
162 0.005984
102 0.006031
51 0.003001
45 0.004973
64 0.003985
81 0.004024
98 0.00399
112 0.006022
119 0.006014
112 0.004009
102 0.003994
101 0.002996
107 0.005989
117 0.006018
130 0.004989
140 0.004987
153 0.003988
160 0.004989
164 0.003965
168 0.005984
169 0.006016
119 0.004004
62 0.004005
38 0.003993
38 0.006018
50 0.006983
73 0.004982
89 0.004983
111 0.004984
113 0.004956
105 0.004988
98 0.006044
98 0.006021
106 0.004988
116 0.004977
127 0.00499
136 0.006027
142 0.007019
151 0.004972
156 0.004985
162 0.004971
163 0.004991
144 0.003998
84 0.007012
44 0.006981
35 0.00497
47 0.004985
65 0.003963
81 0.00603
96 0.006023
110 0.004023
107 0.003968
91 0.003965
90 0.004972
96 0.004972
107 0.005984
117 0.006024
131 0.00398
139 0.005018
146 0.004965
150 0.006982
154 0.007015
158 0.004994
152 0.004967
70 0.003988
43 0.004987
43 0.004951
56 0.007012
74 0.006983
100 0.004983
117 0.004989
125 0.004985
120 0.007013
108 0.007016
100 0.004988
105 0.005039
122 0.004983
133 0.006016
142 0.005018
149 0.006982
153 0.006981
159 0.004985
162 0.005
146 0.004992
85 0.007031
7 0.007015
0 0.005017
0 0.005993
0 0.003984
0 0.005988
0 0.00599
0 0.007029
0 0.00697
0 0.005984
0 0.005986
1 0.005019
8 0.007014
17 0.007012
51 0.005029
76 0.004986
108 0.005983
120 0.006001
147 0.005992
168 0.007987
172 0.007979
136 0.005968
94 0.005984
78 0.005986
82 0.007025
92 0.006993
100 0.004997
108 0.005986
116 0.00499
109 0.005983
93 0.00599
83 0.007979
89 0.007979
93 0.005987
89 0.005982
89 0.006014
96 0.006977
102 0.006972
105 0.005965
108 0.004989
100 0.006006
87 0.005985
60 0.00595
33 0.007979
31 0.007971
36 0.005984
46 0.005977
56 0.005985
70 0.007957
75 0.007978
79 0.00698
75 0.006018
74 0.006981
80 0.004994
85 0.004985
94 0.006984
102 0.007986
106 0.00798
115 0.005982
120 0.005984
128 0.005982
126 0.007979
107 0.007974
74 0.005972
72 0.006981
87 0.006965
92 0.006977
98 0.006957
102 0.007953
105 0.007977
101 0.00698
96 0.005987
91 0.005979
93 0.007979
102 0.007975
106 0.005986
116 0.006992
126 0.006968
128 0.006031
129 0.006983
135 0.007979
140 0.007978
114 0.007023
81 0.007016
72 0.007017
73 0.007954
82 0.007942
98 0.006989
107 0.007977
115 0.005983
115 0.006965
110 0.006978
107 0.007021
110 0.006983
118 0.006948
124 0.006996
133 0.006951
141 0.007955
152 0.007978
165 0.006025
137 0.006978
92 0.006974
47 0.006965
16 0.006976
15 0.006987
17 0.007015
16 0.006977
21 0.006979
59 0.006977
72 0.006999
69 0.007979
78 0.005988
102 0.007016
76 0.006965
75 0.006967
91 0.006932
111 0.00699
110 0.007014
114 0.00698
121 0.006973
135 0.006991
137 0.007016
137 0.006973
102 0.006975
78 0.007951
78 0.00694
87 0.006977
102 0.006993
113 0.006916
125 0.007941
133 0.00698
129 0.006995
124 0.006981
122 0.006995
125 0.007026
132 0.006982
142 0.007029
150 0.006978
156 0.006967
162 0.005991
167 0.006026
171 0.006006
162 0.005987
135 0.007022
120 0.006986
118 0.007017
130 0.007014
141 0.006977
155 0.007015
168 0.006976
168 0.006016
161 0.006976
155 0.007017
150 0.006018
151 0.00602
156 0.005974
166 0.005987
179 0.005989
191 0.006982
206 0.006983
217 0.007013
218 0.006959
184 0.006959
172 0.006972
166 0.006983
169 0.00602
180 0.005957
188 0.005988
197 0.005982
204 0.006016
206 0.006019
196 0.006978
191 0.00701
196 0.006979
200 0.006969
209 0.00599
216 0.006008
222 0.006026
231 0.005953
235 0.005979
231 0.005978
201 0.006036
180 0.006003
174 0.004976
185 0.006023
196 0.005984
211 0.006982
220 0.007015
224 0.005982
219 0.005984
210 0.005985
204 0.006018
208 0.005986
212 0.006012
216 0.00602
221 0.005984
161 0.006021
234 0.00602
225 0.005986
189 0.005976
166 0.005977
160 0.005018
163 0.004985
172 0.00598
179 0.006019
185 0.006017
189 0.006015
188 0.005984
175 0.005984
173 0.005987
173 0.005978
200 0.005986
208 0.005021
215 0.005022
225 0.005024
240 0.00502
248 0.006024
246 0.005977
200 0.006052
154 0.005981
128 0.006016
137 0.005975
160 0.005979
178 0.005967
193 0.005005
200 0.004986
199 0.004955
188 0.005023
183 0.004953
186 0.004986
195 0.005022
209 0.005994
228 0.00603
239 0.006017
252 0.00598
255 0.006018
255 0.005017
255 0.005998
218 0.005985
172 0.00503
164 0.005026
173 0.005018
187 0.004983
199 0.004995
219 0.004993
88 0.005034
88 0.004974
224 0.006036
222 0.005973
228 0.006038
237 0.006017
190 0.005018
194 0.005023
198 0.005021
202 0.004988
204 0.004953
208 0.004988
210 0.004987
211 0.004986
193 0.004987
172 0.004987
165 0.004995
166 0.004988
174 0.004988
181 0.004249
186 0.00402
190 0.005002
193 0.004967
187 0.005021
184 0.004984
185 0.005033
188 0.005023
191 0.005021
196 0.004978
200 0.005025
204 0.005025
207 0.004987
209 0.004005
210 0.004033
212 0.003939
209 0.004027
188 0.005024
170 0.005023
170 0.004982
176 0.005023
182 0.004989
188 0.004985
193 0.005011
196 0.005017
194 0.004021
188 0.005031
185 0.004997
185 0.005029
188 0.005019
193 0.003989
196 0.004022
199 0.004026
200 0.004023
202 0.004992
204 0.005036
205 0.005026
206 0.004987
201 0.004987
181 0.004986
167 0.004985
170 0.005039
178 0.00402
184 0.004024
189 0.003988
193 0.004021
195 0.004026
188 0.004031
182 0.005008
181 0.005019
255 0.004971
255 0.004983
209 0.004988
212 0.004987
217 0.003999
219 0.003993
221 0.003992
222 0.004039
223 0.004027
206 0.004989
180 0.004034
172 0.003991
174 0.004079
182 0.004014
195 0.005028
200 0.00399
207 0.003989
206 0.004023
198 0.004023
191 0.003994
189 0.003989
192 0.004023
195 0.004042
198 0.003989
202 0.003996
204 0.00399
208 0.004021
209 0.004025
211 0.004026
201 0.00499
173 0.002993
160 0.003991
160 0.004023
165 0.003991
177 0.004026
183 0.003992
188 0.003945
192 0.003985
184 0.004036
175 0.004037
171 0.002966
173 0.002952
176 0.003032
179 0.002992
181 0.004052
184 0.004048
187 0.004034
189 0.004032
190 0.003974
191 0.004024
165 0.003978
142 0.003989
134 0.004024
138 0.004023
143 0.004
149 0.00298
154 0.002993
159 0.002992
158 0.003956
149 0.003991
140 0.004007
138 0.004008
140 0.004048
143 0.004023
146 0.003974
160 0.003989
163 0.003005
166 0.002992
170 0.003033
169 0.002994
121 0.004023
94 0.004006
85 0.003996
87 0.004002
102 0.003981
110 0.002995
120 0.002994
124 0.003029
112 0.002992
99 0.003031
95 0.00301
96 0.002992
102 0.002992
107 0.002992
113 0.002982
119 0.002994
128 0.002996
133 0.002992
125 0.002993
72 0.003944
50 0.002991
46 0.004029
52 0.002992
62 0.00304
76 0.002993
87 0.002959
94 0.003021
87 0.002995
69 0.002993
68 0.002992
74 0.001972
82 0.003023
89 0.003023
97 0.002992
104 0.001995
111 0.003033
119 0.002992
106 0.002996
62 0.002985
37 0.002995
33 0.003023
43 0.002992
54 0.002989
72 0.003024
83 0.003023
82 0.001995
70 0.001995
61 0.002998
61 0.002003
66 0.002959
74 0.001965
84 0.003002
98 0.003019
105 0.002992
112 0.001995
118 0.001984
87 0.001994
45 0.001995
24 0.002027
23 0.001995
35 0.002039
48 0.001994
62 0.002992
77 0.002991
75 0.003024
62 0.00298
56 0.002026
58 0.002031
67 0.001995
75 0.001996
85 0.001998
94 0.001995
105 0.001995
112 0.001993
118 0.001974
110 0.001998
44 0.001995
25 0.003009
27 0.002992
43 0.002992
57 0.002026
72 0.001995
87 0.001995
90 0.002028
79 0.002027
67 0.001992
68 0.002002
74 0.002012
90 0.00201
101 0.00204
111 0.002993
119 0.001995
128 0.001995
134 0.002035
132 0.002034
89 0.001995
51 0.001995
36 0.001955
42 0.002001
54 0.001998
78 0.001017
94 0.001026
102 0.002039
94 0.002025
80 0.001998
79 0.000998
84 0.000998
93 0.002009
104 0.001996
118 0.001996
128 0.001993
136 0.001994
148 0.001996
154 0.002029
150 0.002011
103 0.00199
53 0.001037
43 0.001011
49 0.000996
62 0.000969
76 0.000998
95 0.002011
107 0.002012
107 0.002004
91 0.002005
88 0.002027
92 0.00203
101 0.001002
117 0.000998
127 0.001023
137 0.000998
147 0.001995
154 0.000996
161 0.001988
165 0.000995
168 0.001996
97 0.00203
61 0.001995
49 0.001029
55 0.000998
73 0.000999
87 0.000997
102 0.000997
116 0.001012
118 0.001028
102 0.002041
96 0.001029
97 0.001024
111 0.002011
123 0.002
134 0.002006
144 0.002031
154 0.000998
161 0.000999
167 0.00103
172 0.000997
173 0.001
117 0.001008
76 0.00198
60 0.000987
71 0.001991
86 0.000998
103 0.002038
121 0.000998
137 0.000997
133 0.000997
118 0.000998
112 0.001009
113 0.000997
126 0.000994
137 0.000998
147 0.002001
163 0.0
168 0.002031
174 0.000998
180 0.002036
180 0.0
132 0.0
88 0.0
73 0.00101
76 0.001003
94 0.000998
110 0.000998
127 0.00101
150 0.000997
148 0.000998
135 0.0
128 0.0
130 0.0
139 0.0
149 0.0
160 0.0
169 0.0
179 0.000999
186 0.000998
192 0.001006
194 0.000998
147 0.000998
95 0.000997
71 0.0
72 0.0
84 0.0
100 0.0
117 0.0
134 0.0
143 0.0
135 0.0
123 0.0
120 0.000997
128 0.001032
137 0.0
149 0.0
161 0.000997
169 0.0
177 0.0
183 0.0
187 0.0
156 0.0
99 0.0
67 0.0
64 0.000998
76 0.001014
93 0.001007
109 0.0
126 0.0
135 0.0
128 0.0
114 0.0
110 0.0
113 0.0
125 0.0
135 0.0
152 0.0
159 0.0
167 0.0
174 0.0
177 0.0
131 0.000998
79 0.0
55 0.00096
54 0.000964
71 0.0
89 0.001989
107 0.000986
132 0.002028
134 0.002
117 0.0
109 0.0
112 0.000999
120 0.0
130 0.002029
143 0.0
149 0.0
161 0.0
167 0.001997
174 0.001964
156 0.00203
96 0.00302
53 0.00101
51 0.000999
61 0.001007
78 0.001997
97 0.001995
123 0.0
133 0.0
130 0.0
116 0.002002
108 0.001995
113 0.002026
123 0.002031
137 0.000964
144 0.0
157 0.0
165 0.002026
171 0.0
174 0.000939
112 0.0
61 0.0
42 0.001994
45 0.001996
70 0.002027
89 0.002035
113 0.0
125 0.0
121 0.00095
106 0.001998
98 0.001968
103 0.000966
112 0.0
124 0.0
137 0.001995
147 0.002019
160 0.002031
166 0.00203
172 0.0
134 0.0
68 0.0
32 0.002026
24 0.00199
37 0.001018
54 0.000999
73 0.0
91 0.001987
103 0.00198
92 0.002029
80 0.002041
81 0.0
89 0.0
102 0.0
114 0.002026
127 0.002028
141 0.0
150 0.001002
159 0.000948
164 0.002003
160 0.00202
61 0.002035
24 0.001037
17 0.0
30 0.0
47 0.0
65 0.002046
83 0.002026
98 0.0
92 0.000962
80 0.0
74 0.002005
78 0.001991
98 0.001033
113 0.001982
129 0.0
140 0.0
148 0.0
156 0.002028
161 0.001994
169 0.0
161 0.0
98 0.0
43 0.001996
21 0.001991
31 0.001996
49 0.001016
68 0.000997
93 0.0
105 0.0
101 0.002031
86 0.002042
78 0.0
85 0.0
95 0.001016
109 0.001974
123 0.001748
141 0.001041
150 0.002029
158 0.00095
163 0.0
170 0.0
173 0.002043
161 0.002012
75 0.000966
35 0.0
26 0.0
36 0.001989
54 0.001988
88 0.00201
106 0.001995
116 0.002035
107 0.0
93 0.0
89 0.0
96 0.002
108 0.00199
124 0.0
135 0.0
144 0.0
151 0.002
162 0.0
167 0.002028
173 0.002027
174 0.0
135 0.0
69 0.0
36 0.001977
31 0.001994
49 0.0
69 0.0
90 0.0
108 0.001987
121 0.0
111 0.002026
100 0.002026
97 0.001986
105 0.001993
116 0.001993
127 0.002024
136 0.001981
148 0.0
155 0.000995
160 0.0
165 0.002992
163 0.0
110 0.001995
55 0.002026
33 0.00201
42 0.001995
60 0.001995
80 0.002989
102 0.002946
124 0.0
126 0.0
119 0.000986
109 0.002017
111 0.001034
119 0.002026
129 0.002004
143 0.001988
152 0.001993
160 0.001995
166 0.002989
173 0.002957
172 0.001994
123 0.001992
56 0.002026
26 0.00296
31 0.002034
49 0.001946
69 0.002028
96 0.002021
110 0.001988
111 0.002004
102 0.003001
93 0.002985
93 0.002127
101 0.001993
111 0.001995
123 0.002989
139 0.002007
147 0.003
153 0.003015
161 0.002004
161 0.002029
120 0.001988
48 0.002977
9 0.002973
3 0.002003
17 0.002953
38 0.001995
60 0.002993
88 0.001991
93 0.002993
84 0.003035
71 0.002
72 0.001993
81 0.001991
94 0.002994
106 0.003974
120 0.00101
130 0.001995
138 0.002008
143 0.00303
153 0.001995
136 0.002993
65 0.002992
1 0.001966
0 0.001993
1 0.001998
20 0.003983
41 0.003995
69 0.001998
83 0.000991
84 0.000994
72 0.003003
61 0.001034
69 0.002992
81 0.002991
97 0.002004
110 0.002008
120 0.002
128 0.002952
134 0.002992
143 0.001998
146 0.001998
120 0.001992
48 0.003963
0 0.001999
0 0.004017
10 0.003989
39 0.001017
60 0.001994
78 0.001994
84 0.002997
77 0.003977
62 0.002004
62 0.001875
71 0.002991
83 0.003996
103 0.002035
113 0.004015
123 0.003989
134 0.001996
141 0.001991
146 0.00195
142 0.001993
91 0.003988
29 0.003992
1 0.001996
8 0.001998
28 0.002007
66 0.001994
86 0.001027
98 0.003974
95 0.00399
78 0.002002
71 0.001985
77 0.001982
88 0.003991
99 0.004033
115 0.002007
124 0.001995
133 0.002999
146 0.002962
151 0.002962
141 0.004987
80 0.00399
15 0.001994
6 0.001994
17 0.002004
37 0.003992
59 0.003989
90 0.001954
103 0.001994
102 0.002956
83 0.002992
81 0.002994
88 0.004986
99 0.00502
115 0.002961
127 0.001986
137 0.002977
144 0.003992
152 0.00502
159 0.003009
140 0.002945
68 0.001984
0 0.002006
65 0.001995
73 0.005025
84 0.004986
99 0.002992
108 0.00202
112 0.002993
109 0.004987
103 0.004982
100 0.002052
104 0.002962
111 0.001996
122 0.002053
128 0.001996
133 0.004019
136 0.004024
141 0.003004
144 0.002994
138 0.002975
105 0.005033
74 0.004981
61 0.002992
65 0.002991
75 0.001934
93 0.002971
103 0.00298
109 0.005023
108 0.004987
101 0.002994
98 0.001995
102 0.002993
108 0.00402
115 0.004027
124 0.002991
130 0.002986
134 0.00299
140 0.003003
143 0.002993
146 0.004986
137 0.004987
89 0.001992
68 0.001994
64 0.001995
70 0.005048
80 0.004986
95 0.001982
106 0.002001
112 0.00299
109 0.00398
103 0.003994
102 0.006019
106 0.005022
114 0.003983
121 0.002991
128 0.002025
133 0.005028
137 0.005383
143 0.002981
146 0.003026
148 0.004009
143 0.002992
108 0.003033
80 0.004987
70 0.004987
52 0.002984
67 0.003039
83 0.002992
98 0.004994
112 0.005019
114 0.002027
106 0.002994
99 0.002976
103 0.002985
111 0.002977
121 0.004987
130 0.004987
141 0.004004
146 0.003994
152 0.003025
156 0.005983
160 0.00595
163 0.00299
138 0.003001
87 0.002995
51 0.003025
56 0.002992
70 0.004988
86 0.00502
107 0.004003
119 0.004003
122 0.003991
117 0.005983
108 0.006014
105 0.003985
111 0.003989
120 0.003003
134 0.003986
142 0.00398
147 0.005984
153 0.006014
159 0.003024
163 0.004024
164 0.00399
143 0.002994
93 0.00598
64 0.006017
59 0.004004
70 0.003955
97 0.003986
114 0.003974
126 0.003991
129 0.005984
123 0.00599
111 0.003989
110 0.00399
116 0.002988
124 0.006028
132 0.007023
143 0.004021
150 0.004019
160 0.00401
163 0.004986
166 0.003987
155 0.005984
108 0.006003
65 0.004938
61 0.004032
69 0.003023
84 0.006993
102 0.005984
124 0.003024
133 0.003971
128 0.004023
120 0.00399
117 0.003986
120 0.005982
127 0.005983
138 0.003986
145 0.004972
151 0.005009
158 0.006995
163 0.007013
168 0.004027
155 0.004019
74 0.004971
54 0.003973
54 0.00399
66 0.005984
82 0.005978
104 0.003996
118 0.004001
124 0.00501
121 0.007011
112 0.006957
107 0.003988
112 0.004021
124 0.004995
133 0.004999
140 0.004015
148 0.005958
154 0.005992
161 0.003993
157 0.003985
118 0.00401
69 0.006012
47 0.006964
49 0.003988
63 0.00402
90 0.004983
105 0.004979
113 0.004976
112 0.005976
104 0.007013
96 0.003994
99 0.003989
107 0.002989
115 0.005985
124 0.006981
135 0.00401
141 0.00402
150 0.004986
153 0.004986
145 0.004987
99 0.007024
55 0.005999
37 0.003989
43 0.00499
58 0.002973
79 0.007986
95 0.007972
105 0.003993
104 0.004982
90 0.004987
87 0.004954
91 0.004991
100 0.006983
109 0.007022
121 0.003994
128 0.004976
135 0.004988
139 0.006999
146 0.007983
141 0.004971
101 0.004964
44 0.004985
40 0.004988
50 0.00499
65 0.007014
82 0.007015
104 0.004989
110 0.003987
105 0.003967
92 0.007961
88 0.007976
93 0.004987
102 0.004971
119 0.004989
127 0.005037
134 0.005013
140 0.006977
146 0.006981
148 0.004986
123 0.004986
75 0.004987
49 0.007975
46 0.007978
61 0.004986
78 0.004988
107 0.004926
118 0.005078
117 0.004988
107 0.00795
97 0.007997
100 0.006027
108 0.005981
118 0.004974
130 0.00798
137 0.007976
144 0.005986
149 0.005986
156 0.007974
153 0.005986
110 0.005996
62 0.005986
40 0.007983
45 0.007981
59 0.004963
75 0.00602
91 0.005983
105 0.007978
109 0.007001
100 0.006039
90 0.007949
95 0.005993
103 0.005984
114 0.005953
127 0.007964
135 0.007968
141 0.005983
147 0.005084
151 0.005985
156 0.007979
141 0.007979
72 0.006979
40 0.007
41 0.006084
52 0.006013
68 0.005985
87 0.007977
100 0.007955
105 0.006981
97 0.006977
92 0.005987
90 0.00698
97 0.007027
106 0.006951
124 0.00698
134 0.006005
141 0.006018
147 0.006018
153 0.006976
156 0.00798
159 0.00599
149 0.005952
99 0.006949
51 0.006974
44 0.008019
52 0.005966
77 0.007013
97 0.006962
106 0.006979
112 0.006979
105 0.006932
97 0.006976
95 0.006979
101 0.006948
111 0.005984
125 0.006968
135 0.00705
143 0.005989
152 0.007979
157 0.005988
161 0.006972
163 0.006981
163 0.006981
127 0.006982
68 0.006847
55 0.00698
54 0.006948
70 0.006982
87 0.006981
104 0.005983
125 0.007014
120 0.005969
110 0.005984
106 0.006981
108 0.006977
117 0.006979
128 0.006985
138 0.006039
146 0.006021
156 0.006981
161 0.006984
165 0.006002
171 0.006985
175 0.005984
163 0.005984
113 0.005984
73 0.005984
61 0.005985
71 0.006989
87 0.006984
104 0.006986
121 0.006981
133 0.006972
136 0.006979
121 0.006016
116 0.006015
121 0.005985
129 0.005986
139 0.005949
148 0.006016
158 0.005982
165 0.005983
170 0.005981
174 0.007019
178 0.006988
179 0.006981
136 0.00702
78 0.005969
65 0.006016
70 0.006006
86 0.005986
104 0.005985
125 0.005985
139 0.005964
142 0.005983
135 0.005986
125 0.006984
121 0.006987
130 0.006014
141 0.005986
150 0.005954
159 0.005984
165 0.005984
170 0.005983
176 0.005982
180 0.005981
179 0.005987
148 0.005982
95 0.004987
65 0.005984
71 0.006006
93 0.005982
111 0.005983
127 0.005978
139 0.00602
140 0.005988
132 0.005982
121 0.00595
121 0.006009
126 0.006046
135 0.005989
143 0.006015
156 0.006018
163 0.005971
170 0.004985
174 0.005943
177 0.004986
163 0.004987
112 0.004988
68 0.005941
62 0.005984
72 0.005984
88 0.005984
106 0.006016
133 0.006016
138 0.005944
130 0.004986
120 0.005981
117 0.004947
121 0.004985
128 0.004986
139 0.004956
147 0.00499
154 0.004955
160 0.004955
165 0.004974
170 0.005989
156 0.005985
90 0.005987
62 0.004976
58 0.005978
69 0.005986
85 0.004993
108 0.004996
124 0.005011
134 0.004984
131 0.004984
122 0.004993
112 0.004987
116 0.004988
125 0.004987
133 0.006003
142 0.006003
150 0.004986
156 0.004984
164 0.004993
163 0.005002
132 0.005021
83 0.004986
61 0.00496
67 0.005023
83 0.004958
106 0.00494
122 0.004984
132 0.004983
130 0.005954
122 0.004999
111 0.004991
111 0.004988
117 0.005004
124 0.004963
133 0.004993
146 0.005018
153 0.004994
159 0.003987
144 0.004037
94 0.003996
59 0.004992
51 0.005013
63 0.005036
81 0.00499
98 0.004995
116 0.004993
127 0.004967
119 0.004989
109 0.004988
105 0.004987
110 0.003953
118 0.004991
127 0.003998
136 0.003992
146 0.004973
152 0.004995
155 0.005001
129 0.004983
73 0.00498
35 0.005029
40 0.004981
60 0.004955
77 0.003955
94 0.003966
106 0.004013
107 0.004008
94 0.00395
87 0.004992
89 0.003987
97 0.005006
107 0.00488
124 0.005021
132 0.005001
141 0.004032
146 0.004986
147 0.004002
115 0.003958
60 0.00399
25 0.004015
27 0.003989
40 0.003992
55 0.002996
69 0.00399
90 0.00395
92 0.004987
81 0.004949
76 0.00495
79 0.003987
89 0.003994
100 0.00399
114 0.003973
123 0.004017
131 0.003959
136 0.003992
142 0.00399
148 0.003955
126 0.003996
56 0.005001
30 0.00399
27 0.003987
37 0.004001
51 0.003999
63 0.003991
80 0.003994
87 0.003939
85 0.00399
79 0.003987
78 0.003986
86 0.003989
96 0.00299
111 0.002991
121 0.00454
130 0.003997
137 0.003962
143 0.003943
148 0.003974
151 0.003966
156 0.003033
157 0.003984
87 0.002942
50 0.002993
40 0.002991
51 0.003984
65 0.003988
79 0.003988
92 0.003986
102 0.002993
100 0.002997
94 0.003943
90 0.003988
93 0.003009
109 0.002954
120 0.00296
128 0.003951
138 0.002954
145 0.002968
150 0.002979
153 0.002993
158 0.003994
163 0.003944
163 0.003989
129 0.00399
82 0.003976
57 0.003993
65 0.00396
80 0.003992
101 0.003017
116 0.002957
126 0.002961
123 0.00296
111 0.003
103 0.00299
107 0.002992
115 0.002999
125 0.002993
142 0.002984
150 0.003997
156 0.002989
162 0.003957
166 0.003956
171 0.00294
169 0.002986
139 0.002988
84 0.002994
71 0.002995
75 0.003004
90 0.00299
118 0.002987
136 0.003994
147 0.002995
141 0.003955
129 0.002962
122 0.002994
124 0.002968
132 0.002996
145 0.003004
155 0.003007
163 0.002989
169 0.003001
177 0.002988
181 0.002993
184 0.003004
159 0.001956
105 0.003001
74 0.001993
68 0.001999
77 0.001994
100 0.002025
116 0.00296
133 0.002959
143 0.001991
135 0.002997
124 0.001992
120 0.001992
128 0.002994
137 0.002959
147 0.002981
157 0.001979
164 0.001991
171 0.002005
175 0.001999
180 0.002003
183 0.002033
155 0.003013
99 0.003021
68 0.002999
64 0.003002
77 0.002987
93 0.001993
110 0.001993
126 0.001996
137 0.001995
133 0.002003
122 0.001996
117 0.00204
124 0.001994
133 0.002003
143 0.003002
156 0.00296
163 0.002991
169 0.001983
174 0.000993
178 0.003017
182 0.002
179 0.001995
136 0.002002
84 0.002034
61 0.001993
70 0.001996
86 0.001998
108 0.002005
124 0.001001
136 0.00196
137 0.001995
128 0.002018
118 0.002005
118 0.00196
125 0.001996
135 0.00205
151 0.002015
159 0.001993
166 0.002012
172 0.002006
177 0.001005
182 0.00101
182 0.001014
159 0.002003
103 0.002
66 0.002001
65 0.001979
77 0.001987
105 0.001988
122 0.000996
135 0.00197
140 0.001006
132 0.001004
123 0.001995
121 0.000997
126 0.001
135 0.000996
146 0.001988
154 0.002003
162 0.002006
172 0.000985
177 0.002026
181 0.001998
180 0.001998
131 0.00105
87 0.001009
71 0.000992
74 0.001022
88 0.002038
111 0.00198
129 0.001991
143 0.001048
146 0.002008
137 0.001991
129 0.001995
128 0.001009
136 0.001993
144 0.001016
153 0.001003
161 0.001978
167 0.002001
174 0.001008
180 0.000983
183 0.002
144 0.000979
96 0.001001
77 0.001994
77 0.001994
95 0.001987
113 0.000997
131 0.000997
147 0.001018
154 0.000996
147 0.001
138 0.000992
133 0.001997
139 0.001983
147 0.001999
155 0.001998
163 0.001992
172 0.001995
178 0.00102
183 0.001009
183 0.001001
154 0.000995
87 0.001008
71 0.002026
73 0.002032
98 0.000997
116 0.001997
134 0.000997
146 0.001963
145 0.000984
135 0.0
127 0.0
127 0.001006
133 0.001012
143 0.000993
152 0.000998
159 0.000997
170 0.0
175 0.000991
179 0.001051
169 0.0
96 0.0
61 0.0
53 0.0
61 0.0
77 0.0
99 0.000955
117 0.0
129 0.001004
125 0.000997
114 0.000998
109 0.00094
113 0.000994
125 0.000995
135 0.0
143 0.0
151 0.0
158 0.0
165 0.0
169 0.0
170 0.0
96 0.000996
54 0.001004
40 0.000997
47 0.000995
67 0.0
83 0.0
100 0.0
113 0.0
116 0.0
104 0.0
97 0.0
98 0.0
112 0.0
122 0.0
133 0.0
142 0.0
150 0.000999
156 0.0
160 0.0
164 0.001033
166 0.0
128 0.0
71 0.0
44 0.0
49 0.002042
64 0.001023
81 0.0
97 0.0
113 0.0
114 0.000991
106 0.001006
97 0.0
96 0.001002
103 0.001
117 0.000995
127 0.0
142 0.0
149 0.0
154 0.0
158 0.0
161 0.0
166 0.001993
160 0.003042
96 0.000998
59 0.0
49 0.0
56 0.002993
72 0.003022
102 0.003037
118 0.002998
127 0.0
118 0.0
106 0.0
101 0.001993
106 0.001992
120 0.0
130 0.0
139 0.000966
148 0.002037
155 0.002025
163 0.00298
167 0.002995
170 0.0
149 0.0
97 0.001001
67 0.001983
61 0.001992
75 0.0
93 0.0
112 0.0
130 0.002039
140 0.002028
130 0.001998
119 0.001999
118 0.0
125 0.000996
134 0.0
143 0.003011
152 0.002987
161 0.0
166 0.0
170 0.0
174 0.002025
176 0.002029
124 0.001981
75 0.001997
55 0.001003
62 0.000996
78 0.001004
97 0.003011
114 0.00299
131 0.000996
132 0.0
123 0.0
112 0.00304
110 0.002025
123 0.002028
133 0.001989
146 0.0
153 0.001002
159 0.0
165 0.002042
170 0.001992
174 0.001012
163 0.0
110 0.0
67 0.002001
51 0.001963
65 0.003027
82 0.002994
105 0.0
121 0.0
129 0.0
126 0.001992
114 0.001989
108 0.0
113 0.000998
122 0.0
132 0.002028
142 0.002031
154 0.001998
160 0.001998
166 0.0
170 0.0
170 0.0
144 0.002992
88 0.001959
53 0.0
53 0.0
66 0.000982
84 0.002004
103 0.003022
127 0.001992
129 0.00199
114 0.0
106 0.0
106 0.0
113 0.001993
122 0.003006
136 0.0
144 0.0
152 0.0
158 0.003025
164 0.002989
167 0.001986
138 0.001991
74 0.0
57 0.0
60 0.0
74 0.001992
92 0.002003
117 0.001019
132 0.000988
136 0.00095
130 0.002992
119 0.003025
115 0.003015
122 0.002991
131 0.00299
144 0.0
151 0.000957
158 0.001991
164 0.001993
168 0.002001
168 0.0
128 0.001004
73 0.000965
49 0.002992
57 0.0
74 0.002992
92 0.002993
115 0.0
126 0.0
125 0.0
114 0.002014
106 0.001988
108 0.0
116 0.0
126 0.0
136 0.002026
149 0.0
155 0.003029
161 0.002993
165 0.0
146 0.0
88 0.0
53 0.002992
44 0.001964
58 0.0
75 0.0
92 0.0
110 0.002992
121 0.001009
113 0.003005
103 0.002993
102 0.000999
109 0.0
118 0.0
129 0.002987
138 0.002992
148 0.0
153 0.001962
158 0.001994
163 0.003987
134 0.001994
77 0.001969
47 0.002986
44 0.002991
57 0.001995
74 0.001972
91 0.003018
108 0.002972
116 0.002992
109 0.002015
97 0.002992
94 0.003029
104 0.001992
114 0.002991
124 0.002992
137 0.00302
143 0.001993
148 0.001996
152 0.00299
157 0.002961
149 0.002991
101 0.001971
60 0.002992
46 0.002949
60 0.003009
77 0.002996
95 0.00199
117 0.002991
122 0.00299
113 0.002984
100 0.004005
94 0.003028
102 0.00201
112 0.001994
123 0.002041
133 0.002993
145 0.0
150 0.003983
155 0.002993
161 0.00299
151 0.000946
101 0.0
62 0.003992
50 0.004019
61 0.002013
77 0.002955
96 0.001996
113 0.00399
127 0.001998
119 0.00402
106 0.004006
102 0.002041
109 0.002003
120 0.001992
130 0.003988
140 0.00399
150 0.002044
156 0.001994
159 0.002015
164 0.003878
161 0.001995
113 0.003993
66 0.00402
46 0.001994
54 0.001993
68 0.002003
85 0.003987
101 0.004019
118 0.001997
117 0.001996
106 0.002
97 0.003988
102 0.002009
112 0.004018
124 0.004032
138 0.003033
145 0.003
151 0.00299
156 0.003989
160 0.003946
165 0.002031
164 0.002994
126 0.002993
74 0.004033
47 0.002993
56 0.002044
71 0.003951
87 0.005015
107 0.002009
117 0.002008
116 0.003013
106 0.004977
99 0.005017
102 0.001998
111 0.002038
122 0.002016
140 0.003002
148 0.002989
155 0.003991
159 0.003989
165 0.002991
171 0.001999
175 0.001995
159 0.004987
104 0.004985
60 0.003004
55 0.001992
65 0.002009
91 0.001938
107 0.001961
121 0.004006
126 0.003986
114 0.001993
104 0.002992
104 0.001978
110 0.00399
121 0.005033
135 0.00299
143 0.001993
151 0.002992
161 0.002992
165 0.003001
169 0.005041
172 0.004034
160 0.00299
108 0.002984
69 0.002995
58 0.004987
65 0.005017
86 0.001995
104 0.003998
121 0.002994
137 0.003021
128 0.002008
114 0.005008
108 0.005022
114 0.00299
123 0.002992
133 0.003014
143 0.005038
152 0.004991
161 0.002992
166 0.002993
171 0.001995
172 0.001983
136 0.003002
90 0.005063
72 0.004987
80 0.002945
96 0.003989
114 0.002993
134 0.005979
150 0.005984
155 0.003002
145 0.002992
132 0.002992
128 0.001999
134 0.001984
142 0.005019
152 0.004985
162 0.00301
168 0.001985
174 0.001994
179 0.005016
181 0.005016
146 0.003044
91 0.002962
65 0.002982
70 0.002987
87 0.002998
104 0.005988
123 0.005986
141 0.001992
141 0.003001
131 0.002996
120 0.005964
118 0.005959
126 0.002992
135 0.002992
143 0.002023
157 0.001978
163 0.002991
167 0.004986
172 0.004991
169 0.003017
125 0.002996
73 0.003
51 0.006016
51 0.006009
71 0.002999
89 0.002974
106 0.00298
128 0.003989
127 0.002992
117 0.005949
110 0.00597
113 0.002996
123 0.003028
134 0.002993
145 0.00602
155 0.005987
167 0.003991
172 0.002991
177 0.002994
171 0.002031
120 0.00399
74 0.005007
57 0.007011
63 0.003061
78 0.00396
94 0.002957
110 0.005984
122 0.00602
124 0.003988
115 0.002994
107 0.003016
112 0.003001
122 0.003999
134 0.005981
144 0.006981
156 0.002991
163 0.002954
169 0.003988
172 0.006021
176 0.006018
159 0.006982
94 0.002999
71 0.002989
74 0.002028
88 0.00399
102 0.003995
117 0.006984
130 0.007007
127 0.002973
114 0.003991
107 0.002934
107 0.005973
113 0.005976
126 0.002991
136 0.003987
149 0.002031
155 0.002957
161 0.003973
166 0.006982
165 0.005986
117 0.003959
85 0.003991
75 0.003971
82 0.006982
95 0.006987
117 0.003997
133 0.003991
145 0.002998
134 0.002994
123 0.003955
121 0.006999
124 0.006927
136 0.003019
146 0.00399
154 0.003989
161 0.007021
167 0.006981
174 0.004002
178 0.003022
145 0.003016
102 0.004018
81 0.003987
79 0.006019
88 0.006957
107 0.00399
120 0.003986
133 0.004021
138 0.007012
131 0.006977
118 0.003964
116 0.003957
126 0.00299
136 0.003978
145 0.003995
153 0.007028
159 0.006977
166 0.003951
170 0.004975
174 0.004024
174 0.007015
141 0.007002
89 0.003999
76 0.003996
86 0.002948
99 0.004005
111 0.00401
127 0.007979
131 0.007017
125 0.003967
116 0.004976
112 0.004987
117 0.007988
123 0.007013
136 0.00399
145 0.003989
158 0.002992
162 0.004004
166 0.004029
172 0.007978
174 0.008016
175 0.004943
144 0.004992
101 0.003996
78 0.007
76 0.007013
90 0.004953
102 0.004989
123 0.002965
132 0.002986
129 0.003979
118 0.007941
112 0.00798
112 0.004987
120 0.004976
129 0.003976
141 0.007997
146 0.008014
155 0.004987
160 0.004985
167 0.003982
171 0.003996
174 0.003994
141 0.007979
112 0.007019
81 0.003964
80 0.004991
90 0.005984
109 0.007982
119 0.007966
138 0.004991
144 0.004984
125 0.003974
118 0.004033
118 0.004992
127 0.007978
138 0.007325
148 0.004991
155 0.004988
162 0.004986
170 0.007975
174 0.007972
177 0.004023
179 0.004991
124 0.004986
89 0.004987
78 0.003003
86 0.007975
100 0.007971
115 0.005019
129 0.003954
141 0.004985
142 0.00802
126 0.00699
118 0.005985
119 0.005978
132 0.005949
143 0.00499
152 0.005947
162 0.007987
168 0.007965
173 0.007971
177 0.004989
181 0.005019
180 0.004984
126 0.006985
86 0.006984
72 0.005987
83 0.006984
97 0.005986
111 0.005993
126 0.006001
137 0.007991
136 0.007978
121 0.005002
115 0.005983
117 0.005938
127 0.006983
138 0.006974
147 0.005982
161 0.006982
167 0.005985
172 0.005955
177 0.005991
183 0.006983
180 0.007968
143 0.005968
94 0.005985
72 0.005973
75 0.006977
88 0.006989
104 0.005976
129 0.006984
142 0.005978
140 0.005986
128 0.00599
116 0.006999
118 0.006994
128 0.006979
134 0.006009
143 0.005985
155 0.006985
162 0.006898
168 0.005967
175 0.006974
179 0.006088
175 0.005981
132 0.005984
79 0.006982
70 0.007018
75 0.005979
95 0.005968
113 0.006011
129 0.007016
139 0.007027
138 0.006898
120 0.006981
114 0.005982
117 0.005937
125 0.005981
139 0.006024
146 0.007033
156 0.00596
163 0.005978
168 0.005979
173 0.005979
172 0.006981
141 0.006982
73 0.006981
67 0.005986
76 0.006027
90 0.004988
115 0.005973
132 0.006982
142 0.005992
139 0.00598
127 0.005982
119 0.005997
121 0.00601
128 0.005984
143 0.006012
154 0.00695
158 0.006981
166 0.005984
171 0.007015
174 0.006982
155 0.005976
98 0.006006
72 0.005943
55 0.00601
63 0.00606
85 0.006021
108 0.006002
127 0.005967
132 0.005984
122 0.005992
110 0.006129
107 0.005979
115 0.005982
125 0.00597
132 0.006979
146 0.005974
154 0.007025
163 0.005983
171 0.005981
175 0.005944
150 0.004998
93 0.006066
62 0.005984
56 0.005966
71 0.005983
82 0.005892
105 0.005994
122 0.006021
132 0.005981
128 0.005984
113 0.005984
113 0.006003
121 0.005949
131 0.005987
141 0.006015
150 0.006016
158 0.004984
162 0.005986
164 0.005017
166 0.004979
164 0.005041
109 0.00599
55 0.004972
48 0.00598
59 0.006012
76 0.005991
94 0.005986
110 0.006019
122 0.005975
117 0.005986
103 0.005988
96 0.00499
100 0.005022
108 0.005022
125 0.005021
136 0.004979
145 0.006005
151 0.005952
157 0.005989
161 0.006026
154 0.006022
92 0.005984
59 0.005986
52 0.005985
61 0.006035
78 0.004983
108 0.004992
124 0.005015
131 0.00498
121 0.004986
110 0.004986
107 0.005014
113 0.00502
127 0.004987
138 0.004992
147 0.004985
155 0.005017
161 0.005019
168 0.005984
171 0.005985
139 0.004961
82 0.005984
53 0.005982
49 0.005018
61 0.00502
83 0.004985
102 0.004988
118 0.004985
126 0.005019
122 0.004975
104 0.004975
103 0.005041
112 0.004994
122 0.004991
133 0.004983
142 0.006011
150 0.00503
157 0.004993
162 0.004974
165 0.004946
164 0.004988
130 0.004987
53 0.003989
44 0.004985
56 0.005019
72 0.005044
90 0.00399
106 0.004934
116 0.005038
112 0.003982
101 0.004026
95 0.004954
98 0.005076
107 0.005019
128 0.004983
137 0.00502
147 0.004971
153 0.004994
157 0.004957
162 0.00402
165 0.003986
162 0.004005
114 0.003992
67 0.004984
48 0.004979
51 0.004988
78 0.004992
96 0.004988
117 0.004987
126 0.004982
122 0.004952
109 0.003991
102 0.004034
108 0.003994
117 0.003992
130 0.004939
140 0.003953
150 0.005036
161 0.004989
167 0.004971
173 0.004984
175 0.003976
155 0.003991
102 0.004003
71 0.004022
66 0.003982
78 0.003981
96 0.003992
114 0.004028
130 0.003999
137 0.004979
124 0.00501
109 0.003993
110 0.004996
118 0.004988
129 0.004003
139 0.004024
151 0.003991
159 0.004
165 0.00399
170 0.004007
174 0.00402
141 0.003988
87 0.00399
59 0.003989
62 0.003959
77 0.004964
95 0.004987
114 0.004991
135 0.004006
139 0.003997
129 0.00299
116 0.004012
111 0.004034
120 0.003989
130 0.003982
144 0.003031
153 0.004026
160 0.003976
166 0.00399
169 0.003988
174 0.004006
173 0.003984
131 0.002997
77 0.002975
53 0.003952
61 0.003988
79 0.003993
101 0.003996
118 0.00402
130 0.00404
129 0.004022
116 0.004013
105 0.003989
108 0.003989
113 0.003949
122 0.00395
133 0.002982
145 0.002953
150 0.002972
154 0.003985
161 0.002992
164 0.004107
153 0.003999
99 0.00399
58 0.00399
45 0.004038
55 0.003961
72 0.003957
90 0.003991
117 0.00396
123 0.003989
118 0.002971
104 0.003024
101 0.003025
106 0.003026
114 0.003031
125 0.002993
136 0.003992
143 0.003028
148 0.002973
154 0.00399
163 0.003048
162 0.002982
129 0.002994
61 0.003022
42 0.003
46 0.003053
60 0.002992
78 0.002996
101 0.002997
111 0.005981
120 0.002995
113 0.003991
97 0.002991
99 0.003955
107 0.002996
121 0.002997
132 0.003004
140 0.003025
147 0.002961
152 0.003027
158 0.003026
160 0.003026
140 0.002992
87 0.001955
49 0.001963
56 0.002992
72 0.002992
98 0.002991
118 0.001993
132 0.002992
134 0.003009
123 0.003034
106 0.002998
106 0.002992
113 0.003027
122 0.003028
140 0.002989
148 0.002988
156 0.00201
164 0.002995
168 0.002065
158 0.001995
107 0.002992
67 0.003004
56 0.00305
66 0.002992
82 0.002992
100 0.00298
128 0.001995
135 0.001946
128 0.00203
114 0.00203
112 0.001995
118 0.001995
126 0.002023
135 0.002997
148 0.00302
157 0.003
164 0.003034
169 0.002025
164 0.001995
112 0.002018
64 0.002041
47 0.002046
55 0.003033
71 0.003037
88 0.002042
106 0.001957
122 0.002003
122 0.003012
111 0.002048
102 0.001941
106 0.002007
115 0.003012
126 0.003011
139 0.001995
146 0.002029
153 0.001998
158 0.001993
163 0.002026
154 0.00203
99 0.001029
53 0.002002
38 0.001997
42 0.001996
69 0.001994
85 0.001995
106 0.002063
113 0.001998
108 0.002025
97 0.002025
93 0.002038
99 0.001995
109 0.000996
121 0.001999
131 0.002031
140 0.001959
150 0.002038
155 0.002038
160 0.002002
160 0.001994
126 0.002029
71 0.002025
43 0.003006
44 0.00299
58 0.00202
75 0.002031
91 0.002033
107 0.002032
110 0.002015
98 0.0
90 0.000998
92 0.002035
101 0.001018
112 0.001993
124 0.002026
134 0.002043
144 0.001027
149 0.001032
154 0.000999
160 0.002028
154 0.001996
103 0.002028
63 0.002027
53 0.002027
66 0.002028
82 0.002033
100 0.002038
119 0.002028
134 0.002026
129 0.002028
115 0.001958
107 0.000998
113 0.00196
123 0.000998
136 0.001001
149 0.000998
156 0.001986
162 0.001991
167 0.002041
171 0.002039
169 0.001995
128 0.001965
78 0.002026
57 0.000998
66 0.001996
83 0.001109
101 0.000998
124 0.002044
134 0.002022
130 0.000997
116 0.002029
108 0.001976
112 0.002041
122 0.000997
133 0.0
143 0.002038
156 0.0
163 0.000966
167 0.0
172 0.000999
175 0.0
176 0.0
142 0.000997
84 0.000997
54 0.000997
57 0.000998
71 0.001021
87 0.001
113 0.000949
125 0.000998
125 0.0
109 0.000999
101 0.0
103 0.0
111 0.0
121 0.0
133 0.002008
145 0.0
152 0.000998
158 0.000998
165 0.000997
169 0.0
172 0.0
162 0.0
107 0.0
65 0.0
51 0.0
56 0.0
77 0.0
94 0.00101
110 0.0
124 0.000998
122 0.0
110 0.0
104 0.0
109 0.0
118 0.000969
128 0.0
139 0.0
149 0.0
158 0.0
163 0.0
168 0.0
172 0.0
157 0.0
103 0.0
67 0.0
59 0.0
70 0.0
87 0.0
106 0.000998
123 0.0
138 0.0
