96 0.034946
97 0.002963
100 0.003989
102 0.002962
100 0.003991
103 0.002988
109 0.002992
113 0.002992
117 0.002857
115 0.003988
104 0.00399
80 0.00395
75 0.004038
76 0.004933
83 0.00694
88 0.006985
90 0.006982
92 0.007936
99 0.006026
101 0.005991
107 0.005984
116 0.006023
123 0.004996
118 0.002992
104 0.004005
92 0.003025
87 0.00403
87 0.002006
89 0.000998
88 0.0
88 0.0
46 0.001995
51 0.002954
67 0.004939
82 0.006024
89 0.007976
99 0.006976
97 0.006024
59 0.006014
29 0.006014
41 0.005988
54 0.005984
66 0.005983
69 0.004987
66 0.004986
65 0.005001
70 0.004979
83 0.00503
98 0.00402
106 0.004986
115 0.004021
117 0.002988
84 0.001995
60 0.0
75 0.000956
93 0.0
105 0.000998
109 0.0
107 0.000998
115 0.000998
121 0.000998
123 0.001953
129 0.00199
141 0.001996
156 0.001995
157 0.004024
113 0.004059
90 0.003989
95 0.003989
114 0.005976
132 0.005952
134 0.005991
129 0.005984
125 0.005985
131 0.006026
144 0.006982
149 0.006018
155 0.007974
162 0.005928
155 0.006022
105 0.006968
74 0.005997
82 0.004026
91 0.004971
98 0.004028
101 0.005034
91 0.005032
86 0.005035
92 0.00399
102 0.002991
107 0.001995
113 0.001991
117 0.001984
115 0.000989
61 0.001012
38 0.001039
39 0.0
50 0.0
58 0.000968
64 0.002017
58 0.002953
56 0.003958
62 0.00399
71 0.004989
77 0.005985
84 0.005985
88 0.005985
91 0.005984
93 0.007023
58 0.006948
16 0.007022
15 0.006949
23 0.007947
32 0.00798
34 0.007956
33 0.005976
28 0.005028
32 0.005027
41 0.00403
49 0.002992
52 0.003033
59 0.002025
63 0.0
66 0.00101
71 0.001995
79 0.001995
82 0.001998
29 0.001996
0 0.002033
4 0.004987
18 0.004015
28 0.005984
33 0.006874
35 0.006981
43 0.006981
54 0.007022
69 0.006982
79 0.007016
90 0.007011
101 0.00594
109 0.006981
124 0.005031
130 0.004166
139 0.004029
124 0.003032
71 0.002016
56 0.001041
62 0.002035
69 0.001038
77 0.000998
79 0.001995
79 0.00101
83 0.001995
93 0.000998
101 0.001995
110 0.001029
117 0.000981
124 0.000997
131 0.000999
139 0.0
149 0.0
151 0.0
114 0.000998
72 0.000996
69 0.003033
78 0.002991
83 0.00399
89 0.006996
91 0.007979
90 0.007977
93 0.007021
100 0.007946
109 0.007976
113 0.00698
118 0.007021
118 0.006982
121 0.006946
125 0.007021
130 0.007021
136 0.006981
135 0.00698
78 0.007024
50 0.006034
57 0.006977
67 0.005071
76 0.004038
80 0.004035
84 0.003977
84 0.003986
97 0.000997
112 0.002171
122 0.002033
141 0.001003
150 0.002037
157 0.000999
166 0.002013
174 0.001
181 0.0
137 0.0
105 0.002999
103 0.002992
111 0.002992
117 0.002992
128 0.005027
126 0.005031
122 0.004986
127 0.005023
140 0.005017
146 0.006981
155 0.006942
163 0.00698
165 0.006935
169 0.005983
176 0.00399
181 0.002992
187 0.001996
155 0.001996
119 0.001034
101 0.001014
105 0.000998
115 0.000999
122 0.000998
123 0.000997
115 0.000981
111 0.000997
117 0.000997
123 0.000997
127 0.000998
133 0.0
137 0.0
139 0.0
144 0.0
148 0.0
150 0.0
149 0.0
119 0.0
69 0.0
66 0.000966
81 0.000969
94 0.00299
102 0.002992
106 0.002961
109 0.002959
112 0.000998
130 0.003986
139 0.003949
152 0.00396
160 0.004956
166 0.004994
172 0.005004
184 0.004991
189 0.004952
156 0.004986
131 0.004953
121 0.007027
132 0.007979
137 0.007873
148 0.007978
149 0.00499
143 0.005017
141 0.006024
147 0.005984
153 0.006015
161 0.006024
166 0.004992
170 0.00399
176 0.004034
178 0.003989
179 0.004008
126 0.00303
100 0.004022
93 0.002987
99 0.002941
102 0.003026
102 0.003035
98 0.003039
93 0.002992
88 0.002025
90 0.002042
99 0.002012
106 0.00102
120 0.000996
125 0.001995
132 0.001024
137 0.00204
147 0.000998
123 0.0
77 0.001947
72 0.002992
84 0.004986
92 0.005018
103 0.004979
104 0.004909
100 0.005023
101 0.004987
113 0.004987
120 0.004987
135 0.006982
143 0.007937
152 0.005984
158 0.004981
164 0.006025
167 0.006017
150 0.005025
97 0.00501
81 0.005002
79 0.004963
85 0.005017
87 0.005027
89 0.005984
83 0.00502
83 0.006015
88 0.005022
90 0.005987
96 0.005985
90 0.004985
87 0.004984
87 0.004037
94 0.003025
100 0.002995
98 0.000993
61 0.0
17 0.0
10 0.0
8 0.0
12 0.0
20 0.0
24 0.0
23 0.000998
17 0.001995
19 0.001927
28 0.002044
44 0.003004
54 0.003001
63 0.003032
73 0.002993
82 0.004013
92 0.004987
100 0.004949
115 0.004955
83 0.006017
31 0.006982
24 0.007967
31 0.007979
41 0.007028
51 0.00698
57 0.006986
56 0.007019
58 0.006025
73 0.004976
88 0.003024
96 0.001997
107 0.002019
114 0.001984
119 0.003038
128 0.002988
135 0.002038
133 0.00204
85 0.001021
49 0.0
44 0.0
53 0.0
56 0.000997
59 0.002032
59 0.001898
56 0.001995
64 0.00203
72 0.001995
82 0.002992
89 0.002979
99 0.002992
104 0.003039
107 0.002993
111 0.002993
123 0.002989
112 0.002953
44 0.002992
20 0.002995
15 0.002964
15 0.002992
16 0.004025
25 0.003984
22 0.003981
25 0.003993
34 0.004031
44 0.005024
62 0.004904
80 0.00698
86 0.006972
96 0.006016
106 0.005036
113 0.005033
123 0.003028
133 0.003026
110 0.002038
30 0.0
29 0.000998
36 0.001995
48 0.003945
50 0.00399
49 0.003989
45 0.00399
49 0.004027
82 0.004983
117 0.004875
119 0.005025
115 0.005019
115 0.006988
117 0.006978
97 0.006996
98 0.007013
89 0.007013
20 0.00699
0 0.006989
0 0.006982
0 0.004984
0 0.006021
0 0.005033
0 0.004995
4 0.00517
5 0.005046
18 0.005027
40 0.005026
45 0.006032
64 0.005022
90 0.00602
100 0.00502
120 0.005023
123 0.005035
122 0.005102
105 0.00503
52 0.002028
42 0.002052
66 0.0
91 0.0
102 0.0
111 0.0
117 0.0
121 0.0
100 0.002005
72 0.003006
72 0.00399
78 0.003888
90 0.003996
100 0.004036
106 0.00398
117 0.00399
106 0.004041
57 0.00399
23 0.004988
16 0.005013
21 0.004009
28 0.005017
34 0.005016
43 0.005032
42 0.006974
47 0.006984
62 0.00702
70 0.007026
64 0.007016
68 0.006976
76 0.007013
80 0.007029
98 0.00594
105 0.005977
43 0.005989
50 0.007011
37 0.006013
36 0.006981
38 0.006015
39 0.006981
37 0.006989
32 0.006974
26 0.005984
26 0.00501
30 0.004032
36 0.001995
44 0.0
46 0.0
49 0.0
57 0.0
63 0.0
66 0.0
49 0.0
27 0.001004
34 0.002989
41 0.002979
53 0.002993
65 0.002992
68 0.00399
68 0.003988
72 0.00399
83 0.004027
91 0.003959
99 0.003999
109 0.004029
118 0.004035
123 0.004976
129 0.005022
131 0.005027
139 0.005018
122 0.004992
103 0.004986
91 0.004992
95 0.004985
96 0.004986
99 0.006032
100 0.00704
101 0.006024
101 0.006018
104 0.006025
111 0.006016
115 0.005023
122 0.004023
125 0.004987
129 0.004019
134 0.004976
139 0.004975
143 0.005029
146 0.004981
150 0.004986
155 0.003989
127 0.000989
111 0.001998
105 0.0
111 0.0
114 0.0
118 0.0
119 0.000845
118 0.001002
122 0.000998
128 0.000995
136 0.000998
144 0.000998
150 0.002955
155 0.00402
157 0.003954
160 0.004031
167 0.003978
171 0.004987
174 0.005974
180 0.006028
186 0.00601
164 0.00698
143 0.007016
141 0.00701
149 0.007021
156 0.007052
158 0.007025
158 0.007019
158 0.007979
156 0.007977
166 0.006971
168 0.007134
173 0.006993
176 0.006981
179 0.004996
181 0.004987
183 0.002998
185 0.002996
188 0.001995
190 0.001006
193 0.000998
194 0.000998
197 0.0
203 0.000993
155 0.000997
141 0.001013
139 0.000997
142 0.001045
146 0.000992
144 0.000997
142 0.000998
134 0.003999
136 0.005013
137 0.006018
142 0.006976
147 0.006008
149 0.006018
150 0.003975
152 0.004987
153 0.003039
155 0.003988
158 0.003959
162 0.001995
148 0.0
111 0.00198
90 0.001993
89 0.004001
96 0.003963
100 0.004001
107 0.005019
104 0.004984
103 0.004986
109 0.005993
118 0.006983
122 0.007016
133 0.006953
138 0.00698
144 0.006983
147 0.006001
149 0.005018
154 0.003976
156 0.004031
126 0.002027
97 0.001995
90 0.0
92 0.0
99 0.000997
103 0.001986
101 0.002787
95 0.001995
94 0.001998
98 0.002007
107 0.001982
97 0.002997
108 0.002994
117 0.002996
120 0.002988
123 0.003024
131 0.003024
113 0.002993
41 0.00399
12 0.004987
6 0.004994
13 0.005025
16 0.005026
19 0.004876
15 0.005986
7 0.005987
11 0.006033
20 0.006014
29 0.005993
40 0.005985
47 0.005988
54 0.005985
59 0.005984
68 0.006015
79 0.006023
67 0.007011
24 0.007012
0 0.005984
0 0.005983
0 0.006016
0 0.00597
0 0.006015
0 0.006981
0 0.005985
0 0.006982
15 0.006001
32 0.006972
54 0.005985
66 0.006143
80 0.006013
89 0.006014
103 0.005985
118 0.005017
108 0.00602
35 0.004994
0 0.005016
0 0.005014
8 0.003978
21 0.001031
27 0.0
28 0.0
23 0.0
30 0.0
50 0.0
61 0.0
78 0.0
90 0.0
96 0.0
106 0.000997
112 0.000998
122 0.00301
88 0.00303
21 0.002992
53 0.003025
54 0.002993
57 0.002992
61 0.002961
64 0.002993
63 0.00399
64 0.002981
70 0.00399
80 0.002992
86 0.003966
96 0.004021
103 0.003989
108 0.004985
115 0.006011
125 0.005984
131 0.005994
110 0.007021
85 0.007974
66 0.007014
70 0.007979
76 0.006973
83 0.005012
89 0.003044
89 0.001998
90 0.003025
98 0.000998
106 0.001993
118 0.001052
128 0.001007
132 0.000998
137 0.001
141 0.000998
147 0.0
147 0.0
126 0.0
83 0.001997
69 0.001859
71 0.002027
77 0.001995
107 0.001951
131 0.002006
130 0.003028
116 0.002993
111 0.002949
112 0.004033
112 0.003989
115 0.004
116 0.004987
116 0.006982
120 0.007978
126 0.00502
146 0.006021
124 0.005026
68 0.00503
51 0.004989
57 0.003978
63 0.003988
72 0.003995
77 0.004028
74 0.004022
77 0.003976
87 0.004015
104 0.004986
120 0.004985
133 0.003963
137 0.003985
142 0.004025
150 0.003989
160 0.002987
160 0.004104
104 0.003035
55 0.003021
51 0.003024
62 0.001998
74 0.0
79 0.0
81 0.001048
80 0.002994
81 0.002953
95 0.002944
104 0.002994
118 0.003036
130 0.00299
136 0.002956
146 0.002992
153 0.003
163 0.002993
172 0.002961
140 0.003964
82 0.004032
49 0.003983
50 0.003982
58 0.004987
61 0.005984
70 0.006025
70 0.005985
70 0.005987
76 0.00605
93 0.006051
106 0.005987
123 0.006984
131 0.006984
142 0.007014
156 0.006939
164 0.00698
179 0.007015
181 0.007013
131 0.006982
91 0.007012
86 0.007012
98 0.007016
110 0.006973
119 0.007945
128 0.007943
126 0.007972
130 0.007949
141 0.007024
153 0.007972
170 0.006973
179 0.007979
187 0.006931
197 0.007013
199 0.006982
208 0.00597
217 0.004992
201 0.004027
146 0.002026
106 0.002001
108 0.001035
116 0.001999
123 0.000995
127 0.001992
127 0.002028
125 0.001995
128 0.001998
137 0.00208
152 0.002027
164 0.0
170 0.0
178 0.0
185 0.000962
189 0.000998
195 0.000997
203 0.000998
197 0.000997
132 0.001005
104 0.000998
100 0.000979
107 0.00099
118 0.001032
131 0.002003
132 0.001998
127 0.001018
135 0.001995
146 0.001995
162 0.001965
173 0.003026
186 0.004024
194 0.005002
202 0.004973
208 0.005052
218 0.005989
225 0.005984
188 0.007986
141 0.006978
124 0.006986
133 0.00602
147 0.005157
155 0.004987
161 0.004994
155 0.004991
151 0.00502
155 0.005987
166 0.004151
179 0.005984
186 0.00503
192 0.004967
196 0.005022
198 0.004022
202 0.00299
207 0.002027
182 0.002988
114 0.002029
92 0.002968
92 0.000989
103 0.001996
108 0.001994
111 0.001946
107 0.001991
100 0.00203
107 0.001047
116 0.000982
129 0.000998
136 0.001048
145 0.0
151 0.000997
155 0.0
161 0.00103
163 0.001001
138 0.001043
72 0.000948
54 0.000998
57 0.000995
73 0.0
85 0.000997
91 0.0
86 0.00101
77 0.0
86 0.0
98 0.000982
116 0.000997
129 0.000995
135 0.001004
145 0.000998
152 0.000997
161 0.001981
113 0.001995
76 0.002014
55 0.003026
66 0.003993
75 0.003026
88 0.004032
89 0.004013
81 0.005028
75 0.006032
77 0.006019
88 0.00602
98 0.007941
106 0.007979
119 0.005972
125 0.004039
129 0.003989
128 0.0
70 0.001098
32 0.001004
14 0.002043
26 0.0
33 0.0
40 0.001017
38 0.00099
32 0.0
38 0.000998
47 0.0
59 0.000997
70 0.0
81 0.000998
89 0.000996
94 0.001005
104 0.002
113 0.0
94 0.000998
41 0.000994
8 0.002003
11 0.00206
26 0.00401
33 0.00402
42 0.004983
42 0.006985
38 0.007976
50 0.006978
70 0.006979
81 0.006991
95 0.006977
103 0.006979
112 0.004987
120 0.005168
130 0.003989
137 0.00399
95 0.001974
41 0.002045
41 0.00201
67 0.0
77 0.001057
97 0.0
101 0.0
120 0.0
142 0.0
142 0.0
151 0.0
167 0.0
168 0.0
157 0.0
147 0.0
149 0.0
153 0.0
139 0.0
62 0.000997
20 0.002979
21 0.003992
40 0.004022
73 0.006024
84 0.006021
75 0.006017
71 0.005996
78 0.005972
102 0.005984
111 0.005985
118 0.005977
124 0.006899
129 0.007979
133 0.006976
139 0.00601
142 0.004985
115 0.004987
70 0.005019
23 0.00499
30 0.005009
40 0.00502
59 0.004998
63 0.006025
54 0.005023
51 0.003995
64 0.001958
86 0.003023
144 0.0
176 0.000998
193 0.001047
206 0.000997
215 0.000992
224 0.001969
234 0.003005
208 0.002992
138 0.004002
109 0.006033
112 0.005952
119 0.006981
124 0.005989
125 0.005988
118 0.005966
117 0.006026
123 0.005987
137 0.005988
146 0.006165
160 0.005983
166 0.006981
171 0.006017
174 0.006987
181 0.005024
184 0.006982
126 0.005996
82 0.005972
53 0.006022
59 0.006022
68 0.005984
81 0.004015
84 0.006025
79 0.00518
81 0.00497
88 0.004975
104 0.005021
113 0.003991
126 0.002997
135 0.002038
141 0.001944
151 0.001989
157 0.002029
164 0.000997
149 0.000998
67 0.000966
40 0.0
41 0.0
53 0.001996
63 0.002994
75 0.003027
77 0.002992
76 0.003078
81 0.003022
92 0.002994
118 0.003
130 0.002993
145 0.003029
157 0.00303
162 0.003019
174 0.004955
189 0.005985
187 0.007015
139 0.005989
86 0.006982
74 0.006018
86 0.004995
99 0.003993
108 0.004024
113 0.003989
111 0.004028
112 0.004048
127 0.002991
139 0.003989
158 0.002014
172 0.000976
177 0.0
183 0.0
186 0.0
194 0.001011
199 0.000997
171 0.000999
98 0.001029
74 0.000855
78 0.000998
86 0.000979
90 0.000998
94 0.001026
91 0.002033
89 0.003039
102 0.004038
116 0.003949
128 0.003999
139 0.003992
144 0.004021
149 0.004022
155 0.005083
159 0.005944
170 0.006014
158 0.005977
114 0.005979
60 0.005986
57 0.007025
70 0.006997
81 0.006974
88 0.006977
87 0.007013
83 0.007104
88 0.006972
104 0.007016
115 0.006019
132 0.006029
145 0.00798
152 0.006017
159 0.006015
170 0.005975
178 0.00608
176 0.005984
141 0.006018
82 0.006019
75 0.00502
82 0.005984
90 0.004982
97 0.00502
98 0.002041
95 0.001991
99 0.001995
115 0.002993
132 0.000997
139 0.0
148 0.0
158 0.001005
162 0.002035
169 0.001882
178 0.002047
186 0.001997
163 0.002995
103 0.005021
71 0.007022
69 0.00598
76 0.006979
77 0.007013
84 0.00697
86 0.006982
84 0.00701
90 0.006016
101 0.006977
118 0.006014
129 0.007027
140 0.006012
147 0.005978
151 0.006017
161 0.004983
172 0.005018
184 0.003993
182 0.005035
135 0.004007
96 0.005101
97 0.004022
107 0.003017
120 0.00303
131 0.001938
131 0.002992
128 0.002992
131 0.003037
148 0.001039
164 0.000998
172 0.000986
182 0.001001
188 0.000998
198 0.000993
207 0.000997
215 0.001995
229 0.000998
218 0.002031
177 0.0
124 0.0
119 0.0
125 0.0
130 0.002958
134 0.002948
133 0.002987
127 0.002992
127 0.002998
137 0.00296
147 0.002996
155 0.003009
163 0.004977
167 0.004984
173 0.005022
180 0.004965
186 0.005578
194 0.005988
197 0.007015
182 0.007013
111 0.006981
83 0.006981
73 0.007117
81 0.006974
82 0.006021
87 0.005989
84 0.007022
79 0.005986
84 0.006003
94 0.004992
107 0.006017
121 0.006201
127 0.006016
138 0.006017
151 0.006018
186 0.006017
205 0.003986
207 0.004988
154 0.003991
99 0.003988
89 0.004022
93 0.003029
102 0.001995
109 0.001002
112 0.0
116 0.000942
121 0.001993
133 0.002993
148 0.003991
156 0.003995
167 0.004988
173 0.005021
180 0.004987
185 0.005023
191 0.00499
164 0.00501
108 0.004894
74 0.00702
73 0.007025
76 0.007015
84 0.00695
88 0.007036
83 0.007014
76 0.006949
80 0.007019
89 0.00696
103 0.007013
111 0.007014
119 0.006983
124 0.006959
127 0.006023
133 0.004987
134 0.003975
76 0.00399
24 0.005019
8 0.002994
15 0.004042
27 0.002991
34 0.004019
35 0.003
30 0.003025
28 0.000998
42 0.000997
52 0.000997
69 0.0
82 0.0
88 0.0
99 0.0
107 0.000961
116 0.001988
84 0.001996
44 0.001995
11 0.002045
21 0.002013
31 0.001821
46 0.001995
51 0.002973
47 0.002997
46 0.004035
57 0.004025
74 0.00399
94 0.004026
102 0.003995
116 0.005022
126 0.004984
133 0.004996
129 0.00502
91 0.00502
30 0.00498
23 0.00503
32 0.006024
45 0.006009
54 0.006069
55 0.005992
49 0.006019
54 0.006019
72 0.006025
85 0.006017
102 0.006021
111 0.006023
120 0.006014
125 0.005983
137 0.006027
131 0.007013
61 0.006981
25 0.006977
14 0.007015
26 0.006978
33 0.006985
43 0.006987
43 0.00698
38 0.006984
47 0.006984
54 0.006978
75 0.007015
87 0.007016
102 0.006947
113 0.007113
121 0.006981
134 0.006992
108 0.007014
53 0.004986
29 0.005982
37 0.003969
51 0.006018
69 0.005982
74 0.005985
71 0.004022
73 0.002993
82 0.004019
105 0.002998
119 0.003988
136 0.000998
149 0.000982
154 0.000996
165 0.002032
151 0.000998
106 0.0
50 0.0
43 0.0
47 0.0
55 0.00102
63 0.000973
64 0.001013
61 0.002982
67 0.002959
90 0.002994
110 0.003997
122 0.003973
133 0.005037
140 0.005016
149 0.005019
162 0.004884
167 0.005006
115 0.005018
54 0.004986
45 0.004967
55 0.005019
61 0.004991
72 0.005016
74 0.004986
73 0.005953
74 0.005978
87 0.005017
101 0.001996
114 0.002992
125 0.001996
129 0.000997
140 0.002011
143 0.0
116 0.002004
59 0.0
29 0.001005
34 0.001991
47 0.002033
55 0.001995
66 0.001962
61 0.002029
59 0.001997
75 0.001996
87 0.002026
105 0.001992
120 0.003991
129 0.004024
141 0.003959
114 0.004028
70 0.003991
28 0.005024
31 0.005049
46 0.004994
61 0.005026
75 0.00502
78 0.004985
76 0.00502
85 0.00502
108 0.004953
125 0.005018
147 0.006988
164 0.006972
172 0.005992
160 0.005161
91 0.003991
71 0.002987
80 0.002994
102 0.002996
117 0.002978
124 0.003024
118 0.001993
115 0.001031
127 0.003125
142 0.0
158 0.0
170 0.0
177 0.0
183 0.000998
133 0.001854
68 0.003024
46 0.00302
59 0.003989
71 0.005035
86 0.004982
88 0.006061
85 0.006022
88 0.005019
98 0.006022
118 0.005982
137 0.006016
147 0.006015
160 0.005982
166 0.005985
119 0.006017
44 0.006016
32 0.005972
47 0.007013
59 0.007015
76 0.005984
87 0.007022
83 0.005982
81 0.006982
93 0.005986
106 0.005018
128 0.003993
146 0.00203
154 0.002993
166 0.0
169 0.0
131 0.0
55 0.0
39 0.0
54 0.0
72 0.00105
88 0.0
93 0.000998
87 0.0
87 0.000976
103 0.000998
114 0.000997
135 0.003024
149 0.003042
161 0.002992
172 0.002984
179 0.002992
147 0.003021
69 0.002961
53 0.004028
69 0.005989
98 0.006972
118 0.005983
124 0.004985
114 0.005024
115 0.004986
130 0.004026
154 0.002974
165 0.002994
182 0.001991
194 0.003989
202 0.00197
163 0.003989
97 0.001993
69 0.002992
82 0.002994
99 0.002989
126 0.002996
128 0.002163
117 0.002992
114 0.001004
122 0.001997
141 0.001029
160 0.0
166 0.0
177 0.0
182 0.0
131 0.0
42 0.0
27 0.001004
28 0.0
50 0.00101
64 0.000997
69 0.004019
57 0.003993
55 0.004022
69 0.004985
84 0.005908
100 0.00698
108 0.007011
119 0.005975
127 0.005981
99 0.005984
44 0.006091
0 0.005983
0 0.005006
1 0.005983
24 0.004982
30 0.003995
24 0.001991
21 0.0
39 0.0
51 0.000994
74 0.000998
92 0.00099
99 0.001011
116 0.000998
112 0.000997
33 0.001002
0 0.002052
0 0.001993
6 0.000998
21 0.001996
38 0.001986
33 0.001991
26 0.001991
37 0.001995
64 0.00298
80 0.002983
101 0.002994
109 0.002992
122 0.002959
128 0.003034
90 0.00403
0 0.002994
50 0.00399
55 0.004007
66 0.00402
72 0.004024
74 0.003959
71 0.005027
72 0.004881
81 0.006974
93 0.006967
100 0.006962
108 0.007065
111 0.00694
116 0.007972
121 0.006918
124 0.007977
90 0.006996
53 0.007974
39 0.007011
47 0.006983
52 0.006971
60 0.007012
62 0.005985
61 0.006011
65 0.005982
72 0.004068
86 0.003983
96 0.004987
103 0.00399
109 0.004985
113 0.003995
119 0.004977
123 0.005018
103 0.004987
57 0.005016
49 0.003025
57 0.004987
67 0.000996
74 0.002009
78 0.000999
76 0.001994
79 0.000997
90 0.0
105 0.0
112 0.0
121 0.0
125 0.0
132 0.000997
139 0.001997
126 0.001961
76 0.004003
40 0.003984
47 0.004023
60 0.00399
70 0.004024
75 0.004019
73 0.004024
73 0.003992
83 0.004
99 0.005022
108 0.005021
121 0.005949
129 0.007033
132 0.007928
139 0.006934
145 0.007935
149 0.005935
91 0.006983
54 0.00698
38 0.006939
50 0.004976
55 0.003989
65 0.003024
66 0.002984
65 0.001994
69 0.003989
81 0.001994
96 0.00303
110 0.002993
117 0.002989
126 0.002992
131 0.002992
138 0.002996
151 0.00204
154 0.001996
99 0.0
52 0.0
51 0.0
63 0.0
78 0.001037
88 0.001963
90 0.001995
87 0.002047
91 0.001992
110 0.001995
121 0.002983
137 0.005023
148 0.006025
152 0.006013
159 0.006021
167 0.006031
162 0.006027
110 0.006021
74 0.006103
58 0.005954
71 0.005893
80 0.006024
90 0.006978
91 0.005974
88 0.005975
93 0.004987
103 0.005973
120 0.00602
134 0.003984
140 0.002988
147 0.002993
153 0.005029
157 0.002979
165 0.003988
169 0.002987
125 0.00399
58 0.003989
47 0.004024
59 0.00403
69 0.003991
82 0.004018
86 0.001994
82 0.003984
84 0.001984
100 0.002001
112 0.000955
129 0.0
138 0.0
147 0.000935
156 0.000987
158 0.000999
172 0.0
167 0.0
130 0.000998
70 0.001996
62 0.001995
80 0.000963
99 0.00189
109 0.000988
112 0.001996
108 0.003023
111 0.00399
125 0.004034
145 0.005029
155 0.007011
166 0.00796
176 0.005986
179 0.00698
187 0.005964
190 0.007039
140 0.005965
77 0.004021
68 0.003024
82 0.001943
99 0.0
108 0.0
110 0.0
103 0.001961
104 0.0
115 0.000958
130 0.0
144 0.000996
155 0.001044
159 0.001043
165 0.001994
172 0.0
160 0.0
100 0.0
55 0.0
48 0.0
65 0.002025
75 0.002994
88 0.001985
87 0.005027
82 0.005043
87 0.004985
105 0.00602
117 0.006033
134 0.006016
141 0.006016
149 0.006028
156 0.006965
164 0.006986
138 0.005978
78 0.006969
47 0.00599
54 0.006949
71 0.005992
89 0.007021
101 0.005983
97 0.005984
90 0.006019
102 0.003984
114 0.005955
133 0.003995
143 0.004986
153 0.003957
162 0.001994
167 0.002011
139 0.002026
77 0.001994
44 0.000951
49 0.001994
69 0.0
80 0.0
90 0.0
85 0.0
78 0.003029
87 0.003045
102 0.003009
117 0.004991
132 0.004958
138 0.004989
145 0.004987
153 0.00598
147 0.007092
74 0.006947
38 0.007005
25 0.006983
45 0.006925
54 0.006994
66 0.006985
64 0.005983
58 0.005017
62 0.005009
71 0.004963
90 0.004986
104 0.005981
114 0.003007
121 0.004953
127 0.001995
134 0.002133
108 0.002994
38 0.002001
21 0.001002
28 0.0
49 0.0
62 0.0
72 0.000997
69 0.001995
64 0.003033
79 0.001997
91 0.004028
111 0.005047
127 0.004948
133 0.004953
142 0.00502
149 0.004983
128 0.004984
53 0.004985
31 0.004981
38 0.005018
55 0.004944
71 0.00502
78 0.00502
73 0.006015
69 0.008006
78 0.006975
98 0.003001
111 0.003026
127 0.001999
137 0.001994
142 0.001997
151 0.0
146 0.0
73 0.0
22 0.0
23 0.0
40 0.000985
56 0.0
70 0.0
68 0.00103
63 0.0
68 0.002
86 0.003026
98 0.001995
114 0.002029
123 0.004986
130 0.003986
139 0.005021
135 0.006985
93 0.007945
35 0.006987
19 0.006024
31 0.007034
53 0.004989
65 0.006982
70 0.00502
62 0.005008
64 0.004951
82 0.004986
95 0.004974
114 0.002997
126 0.002991
132 0.003006
140 0.00299
133 0.002045
90 0.001963
33 0.001995
32 0.000998
52 0.000998
71 0.003039
87 0.002995
84 0.002993
76 0.003027
86 0.002962
99 0.003025
119 0.002993
129 0.004048
140 0.007013
148 0.006876
153 0.006981
142 0.004982
61 0.004976
29 0.004038
29 0.004024
46 0.003989
59 0.00205
67 0.003989
62 0.00399
59 0.003989
68 0.003995
80 0.004016
101 0.004031
118 0.001993
125 0.002046
134 0.00095
142 0.0
148 0.000955
111 0.001009
59 0.002009
16 0.0
24 0.0
36 0.001045
53 0.002987
59 0.003991
57 0.005039
55 0.004991
68 0.006982
81 0.003991
103 0.004971
117 0.006024
125 0.004026
131 0.00399
141 0.003988
146 0.004022
95 0.00399
49 0.003992
25 0.004044
46 0.001974
59 0.003998
79 0.001984
78 0.001995
72 0.001998
78 0.001982
90 0.001995
113 0.002001
131 0.0
139 0.001002
145 0.0
155 0.002034
160 0.001997
103 0.001845
37 0.001896
30 0.002995
50 0.002028
65 0.005025
78 0.00502
80 0.005028
73 0.004987
76 0.005018
94 0.005986
107 0.006017
126 0.005977
133 0.005975
142 0.007999
150 0.006968
157 0.007988
128 0.006004
46 0.005968
23 0.005967
32 0.005995
44 0.005959
62 0.005983
69 0.005941
66 0.005945
62 0.007054
76 0.006047
90 0.004988
111 0.005029
121 0.005021
133 0.005023
141 0.00301
148 0.005011
148 0.001009
69 0.001
32 0.001984
27 0.001986
43 0.001997
59 0.0
77 0.0
79 0.000989
72 0.000997
81 0.001996
95 0.002037
119 0.00203
137 0.001995
145 0.001996
153 0.002035
159 0.001968
167 0.001954
121 0.001996
55 0.001995
30 0.003947
48 0.003946
62 0.003948
83 0.004993
87 0.00497
80 0.00599
81 0.006981
91 0.006945
113 0.006981
132 0.007024
141 0.006938
151 0.006994
154 0.006952
163 0.005975
159 0.006939
112 0.006936
33 0.006969
21 0.006988
40 0.006018
57 0.00798
72 0.005985
74 0.007794
66 0.007979
70 0.006986
90 0.007979
103 0.007999
121 0.007018
136 0.005987
142 0.007018
151 0.005987
157 0.007012
143 0.005984
57 0.004935
27 0.004987
31 0.004988
49 0.005014
75 0.002988
87 0.002986
82 0.002993
75 0.002994
86 0.004025
105 0.002995
125 0.003989
140 0.002995
150 0.004047
162 0.003025
167 0.002998
123 0.003121
47 0.001
35 0.00203
56 0.0
75 0.001027
100 0.00095
102 0.000966
94 0.000966
95 0.0
110 0.000999
128 0.0
148 0.0
157 0.0
166 0.0
174 0.002043
171 0.0
102 0.0
31 0.001001
25 0.001003
49 0.000998
64 0.000998
80 0.002013
82 0.003964
76 0.004085
74 0.005971
94 0.005984
108 0.005992
124 0.005979
140 0.005982
145 0.005957
155 0.006021
154 0.005983
76 0.005988
15 0.005981
14 0.005983
38 0.005991
57 0.006015
69 0.003987
66 0.004985
60 0.002991
64 0.004986
84 0.005949
98 0.004968
117 0.003989
129 0.001993
135 0.002987
144 0.001976
92 0.000982
38 0.000991
6 0.0
12 0.0
39 0.0
63 0.0
67 0.0
58 0.0
59 0.000998
71 0.001995
96 0.002005
109 0.003021
124 0.004013
135 0.004989
141 0.004997
133 0.004986
67 0.004953
18 0.004986
17 0.004956
36 0.004986
55 0.006018
70 0.006966
66 0.006969
58 0.006982
67 0.006985
85 0.007016
103 0.007149
113 0.007964
124 0.005985
132 0.005986
138 0.00598
143 0.004987
69 0.003991
20 0.003
2 0.000986
18 0.003026
32 0.000997
46 0.002992
48 0.001996
45 0.001993
52 0.0
65 0.0
89 0.00102
104 0.000998
115 0.000998
123 0.001
131 0.000998
136 0.001
149 0.000997
149 0.000997
70 0.002007
8 0.001878
9 0.001996
31 0.001964
40 0.002001
56 0.002016
57 0.002992
55 0.003991
68 0.004016
93 0.004983
107 0.005984
124 0.006965
134 0.006983
142 0.006976
149 0.006989
157 0.006981
167 0.006981
182 0.007015
164 0.007016
73 0.007014
41 0.005967
49 0.00698
69 0.006992
81 0.006988
96 0.005979
92 0.005986
90 0.003971
104 0.003991
124 0.002993
142 0.0
155 0.002028
166 0.001994
170 0.002004
179 0.001029
183 8.7e-05
197 0.000997
192 0.000966
122 0.001
61 0.001034
55 0.001004
68 0.000998
85 0.000997
95 0.000998
101 0.001014
98 0.001004
102 0.001964
123 0.001996
138 0.001995
158 0.001994
170 0.002037
176 0.002987
184 0.004033
192 0.003993
198 0.003981
212 0.00402
193 0.006982
136 0.005988
71 0.006966
62 0.007012
76 0.007034
94 0.006979
105 0.006983
112 0.007019
108 0.004987
112 0.006981
131 0.004984
146 0.006979
167 0.002991
182 0.002993
188 0.00299
196 0.002994
205 0.002002
212 0.002003
224 0.000982
228 0.002025
166 0.0
99 0.0
83 0.000998
97 0.0
119 0.000998
131 0.000991
138 0.000998
132 0.001024
131 0.000998
143 0.000998
165 0.003006
177 0.002993
193 0.004006
199 0.00203
207 0.002993
213 0.003928
217 0.004006
228 0.003996
226 0.003994
143 0.004023
77 0.003948
73 0.003993
94 0.003957
107 0.003961
124 0.003991
124 0.004985
117 0.007971
119 0.004986
131 0.006018
152 0.004963
164 0.003954
179 0.004025
185 0.004027
192 0.00399
199 0.001995
205 0.004022
185 0.000998
92 0.001996
60 0.001993
62 0.001997
76 0.001993
99 0.001992
112 0.002001
109 0.001992
100 0.001997
104 0.0
118 0.001995
140 0.002034
152 0.002028
166 0.000996
173 0.002996
182 0.003999
181 0.003024
105 0.002995
63 0.003015
53 0.005023
77 0.004986
94 0.006025
113 0.005987
111 0.005982
98 0.006014
103 0.005988
115 0.005985
137 0.005979
147 0.005949
160 0.005952
170 0.006978
173 0.005987
130 0.005984
58 0.006994
25 0.005982
33 0.006978
53 0.004984
70 0.006982
78 0.006981
74 0.007013
68 0.006985
82 0.003988
95 0.003987
115 0.002994
124 0.004022
136 0.002989
145 0.001994
123 0.001993
41 0.001994
13 0.001974
25 0.001995
47 0.002042
60 0.001994
70 0.001994
66 0.001024
65 0.0
79 0.002044
102 0.001995
115 0.001996
131 0.001994
139 0.001995
151 0.001006
154 0.001998
105 0.002959
53 0.003026
49 0.003991
65 0.003989
86 0.002994
99 0.003023
105 0.006001
101 0.006012
107 0.00602
131 0.00602
153 0.006014
164 0.005989
177 0.005951
186 0.006969
192 0.006
206 0.005984
205 0.005972
138 0.00598
94 0.00798
93 0.004959
106 0.005977
120 0.004992
130 0.004988
132 0.004984
130 0.004987
137 0.004986
157 0.001995
168 0.00199
183 0.000988
191 0.0
196 0.0
201 0.0
209 0.0
215 0.0
193 0.000997
145 0.001008
94 0.001958
97 0.001993
105 0.003027
114 0.003986
121 0.004987
122 0.003998
121 0.005012
130 0.006018
140 0.00598
153 0.006982
165 0.005985
171 0.004996
178 0.002003
185 0.002155
190 0.002012
200 0.001988
210 0.001987
198 0.0
119 0.000983
88 0.000989
84 0.0
96 0.0
101 0.000997
113 0.000999
115 0.002015
112 0.003028
121 0.002988
137 0.004983
150 0.005994
161 0.006021
171 0.00598
175 0.005982
181 0.007945
187 0.004987
193 0.006016
202 0.003996
178 0.005977
103 0.004001
80 0.003992
87 0.003991
99 0.003031
111 0.00302
114 0.003991
110 0.002998
109 0.000997
121 0.001
135 0.002041
146 0.0
155 0.002991
162 0.0
166 0.001029
172 0.000997
178 0.001992
187 0.002026
194 0.00394
137 0.004987
87 0.005989
54 0.006014
64 0.005977
71 0.006023
80 0.006949
83 0.006018
83 0.006976
82 0.005985
89 0.005985
107 0.005987
125 0.004982
133 0.004987
145 0.004984
149 0.004992
155 0.003993
161 0.004987
172 0.001981
170 0.003024
96 0.001993
60 0.002024
54 0.001033
70 0.000966
83 0.001999
98 0.001004
100 0.0
97 0.0
103 0.0
115 0.0
136 0.0
153 0.000997
160 0.001996
169 0.00181
172 0.001992
179 0.002031
185 0.002011
154 0.002959
75 0.003029
54 0.004001
64 0.005041
81 0.004956
91 0.00495
99 0.006967
96 0.006981
95 0.005986
101 0.006983
120 0.00698
132 0.006976
149 0.006981
161 0.004001
166 0.004992
172 0.001986
181 0.000988
170 0.001992
89 0.0
43 0.0
45 0.001017
64 0.001995
81 0.002025
90 0.002024
90 0.002948
86 0.002031
91 0.003026
105 0.003026
122 0.004981
136 0.005984
150 0.006982
156 0.007972
162 0.006984
169 0.004976
176 0.006986
159 0.003992
74 0.004976
45 0.003989
50 0.002995
66 0.001991
89 0.001955
101 0.002013
98 0.002015
91 0.002028
100 0.00399
117 0.001994
135 0.003958
151 0.000996
162 0.000995
171 0.001981
176 0.000998
185 0.000997
188 0.001016
135 0.000999
68 0.000998
50 0.001995
63 0.002973
88 0.002992
102 0.002993
108 0.005031
99 0.006901
98 0.006976
109 0.005029
131 0.004995
143 0.004985
159 0.004987
168 0.004989
172 0.005028
179 0.004985
185 0.005983
139 0.002991
65 0.002989
34 0.002995
43 0.002996
68 0.002025
81 0.003026
90 0.002998
82 0.001028
80 0.001996
88 0.0
110 0.000962
123 0.001025
140 0.002992
151 0.002982
154 0.003003
162 0.00399
166 0.003991
122 0.004025
36 0.004042
19 0.003997
35 0.004992
59 0.006974
71 0.005984
77 0.006981
71 0.007017
66 0.006116
76 0.004986
98 0.005044
112 0.004994
128 0.004984
136 0.005084
142 0.004986
150 0.002988
152 0.004987
80 0.002993
35 0.004989
22 0.002957
48 0.003012
62 0.00296
79 0.00098
73 0.000987
66 0.000975
70 0.0
92 0.001996
106 0.001997
124 0.002978
135 0.004021
140 0.003991
148 0.004021
139 0.003996
71 0.006948
13 0.006982
12 0.007978
40 0.007939
56 0.005992
67 0.007011
65 0.004983
58 0.004992
65 0.004944
87 0.003003
109 0.00299
118 0.002955
129 0.002983
133 0.002993
145 0.002011
122 0.001994
50 0.0
9 0.001994
21 0.002111
36 0.002992
53 0.002048
61 0.002028
60 0.0
57 0.0
67 0.001992
85 0.003024
108 0.002993
120 0.002991
134 0.004975
142 0.004981
143 0.00502
141 0.004993
64 0.006984
41 0.006019
36 0.005987
49 0.005993
70 0.00598
85 0.005983
95 0.00598
148 0.005983
172 0.006019
186 0.003986
191 0.006018
193 0.004986
191 0.004009
182 0.00298
177 0.002982
175 0.002026
136 0.0
80 0.001983
36 0.0
52 0.0
65 0.0
90 0.000999
102 0.000962
98 0.0
94 0.001
101 0.00298
122 0.004037
143 0.00398
153 0.003997
163 0.004021
170 0.005957
177 0.005983
178 0.005982
131 0.007971
60 0.005984
40 0.007977
54 0.005015
62 0.004988
75 0.005021
85 0.002003
84 0.002993
89 0.000973
108 0.0
121 0.0
135 0.000966
145 0.0
153 0.000947
160 0.0
166 0.0
139 0.000963
83 0.0
31 0.0
39 0.001969
55 0.0
63 0.0
74 0.0
82 0.0
87 0.000998
94 0.001996
116 0.001962
131 0.001994
141 0.001962
153 0.002992
158 0.003036
166 0.003027
179 0.004027
172 0.00502
84 0.00494
37 0.00499
46 0.004983
74 0.00498
86 0.004995
109 0.004989
113 0.004963
115 0.004967
128 0.004984
146 0.006031
161 0.006005
172 0.005953
180 0.00598
187 0.005987
199 0.006015
205 0.006025
143 0.007985
77 0.005024
60 0.006977
78 0.003955
92 0.002049
102 0.001991
115 0.002
116 0.002004
119 0.002005
139 0.0
153 0.000965
173 0.0
184 0.00201
191 0.000996
198 0.002004
204 0.0
213 0.002029
219 0.0
177 0.0
83 0.0
65 0.001012
80 0.001028
93 0.000997
104 0.001995
114 0.002993
117 0.004958
117 0.005035
132 0.005023
155 0.005993
166 0.004985
180 0.005985
187 0.006966
192 0.006021
198 0.005016
205 0.005023
211 0.003978
219 0.002012
227 0.002991
225 0.001022
149 0.00203
63 0.002026
55 0.003042
79 0.002021
87 0.00305
101 0.0
108 0.000986
107 0.0
107 0.0
119 0.0
138 0.0
160 0.0
170 0.0
179 0.0
187 0.0
192 0.001008
206 0.000997
209 0.002025
138 0.002989
73 0.003027
72 0.003034
96 0.002964
120 0.003055
131 0.003043
131 0.002954
125 0.002988
130 0.004059
146 0.003028
163 0.00399
178 0.003945
186 0.003986
193 0.004021
198 0.005984
203 0.006977
170 0.00802
90 0.005965
53 0.006999
52 0.00497
72 0.003994
81 0.003988
93 0.004013
92 0.004018
86 0.003993
92 0.005001
109 0.002016
125 0.004021
140 0.002996
146 0.003049
153 0.003025
157 0.0
122 0.000998
37 0.00095
18 0.002029
29 0.000956
51 0.001997
63 0.002051
75 0.001999
72 0.003951
72 0.005037
90 0.005981
115 0.005992
128 0.005971
143 0.005984
156 0.005987
165 0.005979
142 0.006981
93 0.006977
51 0.006982
59 0.007979
80 0.004987
98 0.007023
115 0.007979
116 0.007009
114 0.007012
120 0.006981
143 0.004988
165 0.001989
174 0.002992
186 0.000983
197 0.002037
204 0.0
180 0.000997
101 0.002005
81 0.001995
95 0.002038
112 0.001997
123 0.001992
132 0.002039
130 0.003992
132 0.003991
150 0.004981
176 0.00403
217 0.004981
229 0.004987
226 0.004987
226 0.004958
229 0.004979
208 0.004974
128 0.004987
101 0.005009
104 0.004952
115 0.005983
123 0.007985
128 0.004019
125 0.002977
123 0.001995
133 0.002961
152 0.001997
162 0.001999
174 0.001998
178 0.00099
186 0.00205
192 0.003024
201 0.003004
197 0.003021
123 0.002029
91 0.002027
92 0.002026
104 0.002027
118 0.002027
128 0.001995
129 0.000998
125 0.000997
135 0.001995
147 0.005003
165 0.005984
177 0.004983
182 0.005986
189 0.005971
192 0.00598
199 0.005986
208 0.005975
213 0.006001
157 0.005987
86 0.005985
78 0.005984
91 0.006974
96 0.006976
102 0.00702
109 0.006962
107 0.006985
109 0.007015
116 0.007015
134 0.006985
146 0.006014
155 0.007971
161 0.004976
167 0.005016
171 0.004987
178 0.004983
184 0.004986
192 0.00499
135 0.004983
86 0.00498
58 0.004986
65 0.003978
77 0.005015
85 0.006955
93 0.003991
92 0.007017
93 0.004977
101 0.004023
120 0.003994
130 0.003988
144 0.004023
154 0.001993
158 0.004
167 0.002949
177 0.0
182 0.0
196 0.0
188 0.0
139 0.0
71 0.001995
70 0.003
81 0.004001
94 0.005995
104 0.00698
106 0.005977
103 0.005948
107 0.007095
120 0.005991
136 0.006975
150 0.004939
159 0.007017
167 0.006977
171 0.006981
178 0.007019
182 0.007018
189 0.006982
199 0.005001
203 0.006951
140 0.002033
62 0.0
51 0.0
63 0.0
77 0.0
84 0.0
92 0.0
90 0.0
90 0.000997
103 0.001006
115 0.001001
134 0.002002
148 0.002003
153 0.001996
161 0.002026
165 0.001995
173 0.001959
181 0.001959
189 0.00197
197 0.001995
201 0.001962
163 0.002017
69 0.003023
44 0.00403
53 0.006017
71 0.005996
80 0.006016
89 0.00698
86 0.005986
84 0.005985
93 0.005978
113 0.00501
125 0.004988
142 0.00399
150 0.003993
159 0.002033
166 0.003986
173 0.001982
180 0.004984
189 0.004021
197 0.004019
187 0.003988
132 0.00399
54 0.002029
51 0.000995
67 0.0
91 0.0
106 0.0
107 0.0
100 0.002953
104 0.00498
114 0.004987
136 0.004978
155 0.00502
163 0.004989
173 0.005001
179 0.007988
182 0.004981
189 0.007946
195 0.005986
130 0.007976
60 0.007974
40 0.006977
53 0.005019
76 0.00199
88 0.004985
98 0.003004
90 0.002002
89 0.001029
102 0.0
123 0.0
135 0.0
151 0.0
159 0.000854
164 0.000998
171 0.001963
176 0.003032
153 0.002992
58 0.002962
25 0.002949
30 0.003982
46 0.007991
64 0.005977
79 0.007012
79 0.005982
71 0.006015
73 0.00598
91 0.00303
105 0.006017
125 0.002992
134 0.004982
144 0.002989
152 0.002988
159 0.002991
136 0.002993
80 0.002984
17 0.002995
26 0.002998
43 0.002123
68 0.001992
80 0.001993
75 0.0
67 0.002058
77 0.001992
89 0.000965
113 0.001974
129 0.002996
139 0.002952
147 0.002999
156 0.00303
143 0.004987
54 0.00399
18 0.005011
19 0.005019
47 0.004989
62 0.004986
76 0.005048
73 0.00399
63 0.005021
74 0.005937
87 0.006943
106 0.006
123 0.006736
131 0.006982
139 0.005982
145 0.005982
139 0.005983
46 0.007977
5 0.006003
1 0.007979
22 0.006016
35 0.004987
53 0.003992
53 0.001991
49 0.002991
56 0.002001
68 0.002045
91 0.0
110 0.0
118 0.00095
127 0.0
134 0.002042
142 0.0
107 0.002061
29 0.0
0 0.001998
6 0.002029
23 0.002027
46 0.001994
54 0.0
53 0.000998
49 0.001028
59 0.001998
79 0.00302
103 0.003985
114 0.004026
129 0.004012
138 0.00402
143 0.004023
154 0.003987
129 0.00395
35 0.004054
9 0.004002
25 0.003987
55 0.004968
74 0.006975
81 0.005985
74 0.004983
72 0.00698
86 0.004981
105 0.007035
124 0.004984
139 0.007072
149 0.006974
154 0.00599
161 0.00502
170 0.001994
144 0.001979
42 0.0
7 0.0
13 0.0
40 0.000997
60 0.001954
67 0.002807
64 0.00301
60 0.001965
72 0.002992
96 0.003943
111 0.003966
131 0.002997
141 0.006
145 0.006017
153 0.006979
159 0.00798
154 0.005977
56 0.007978
12 0.005981
4 0.006965
32 0.005985
45 0.005984
64 0.004966
65 0.002992
61 0.004991
68 0.001993
92 0.001995
108 0.001996
129 0.002997
139 0.002003
149 0.000115
157 0.001997
163 0.0
169 0.0
125 0.0
32 0.0
18 0.0
33 0.0
64 0.0
87 0.000997
90 0.001995
80 0.001966
82 0.003026
96 0.003994
118 0.006018
141 0.006982
150 0.007979
160 0.006967
165 0.004954
170 0.006982
179 0.004976
152 0.006978
46 0.00498
8 0.00399
21 0.004994
48 0.003988
69 0.004987
74 0.004022
67 0.003993
65 0.003987
75 0.006016
100 0.005986
114 0.00603
134 0.005988
141 0.005982
150 0.005984
155 0.001986
162 0.003976
170 0.001996
82 0.002982
23 0.001992
0 0.0
25 0.00096
39 0.0
57 0.002007
63 0.002051
58 0.00304
58 0.003959
80 0.005799
91 0.005977
120 0.006989
135 0.007978
141 0.005981
150 0.007974
154 0.004991
163 0.006982
169 0.005962
119 0.005979
22 0.005991
13 0.00303
32 0.005969
61 0.001964
77 0.005011
84 0.003
74 0.002981
76 0.003001
98 0.002013
127 0.001994
140 0.001997
157 0.00198
163 0.0
170 0.000967
179 0.0
161 0.002994
95 0.004983
15 0.004976
16 0.006019
34 0.00597
61 0.007023
75 0.006963
79 0.007014
69 0.006985
71 0.006981
93 0.007031
115 0.006018
133 0.007003
145 0.005985
152 0.007979
160 0.004999
170 0.00302
161 0.002027
58 0.001991
0 0.000977
67 0.000965
82 0.000811
91 0.001981
98 0.0
98 0.00203
94 0.0
98 0.001983
110 0.0
119 0.000942
131 0.000998
138 0.0
143 0.002966
145 0.001995
152 0.00299
147 0.002026
94 0.003991
73 0.005023
74 0.005023
91 0.004985
99 0.004994
108 0.004977
103 0.004973
101 0.004974
109 0.005968
118 0.005975
132 0.005961
141 0.005966
146 0.005968
152 0.005987
158 0.007972
160 0.005951
114 0.007842
87 0.005939
79 0.00798
91 0.007979
101 0.007977
114 0.004021
114 0.003993
110 0.003026
111 0.002946
117 0.002981
130 0.002997
141 0.002983
145 0.001998
150 0.000997
154 0.002025
154 0.0
119 0.00196
72 0.002025
67 0.002029
61 0.0
72 0.002041
87 0.000997
89 0.003958
86 0.004041
85 0.006008
98 0.006036
110 0.006025
126 0.007027
135 0.00599
140 0.006987
147 0.005032
148 0.005994
115 0.004991
50 0.002997
44 0.002992
57 0.002993
76 0.001994
88 0.002
93 0.001996
88 0.004982
91 0.002031
103 0.004987
119 0.002022
132 0.004986
145 0.00495
151 0.005025
159 0.004993
165 0.004987
126 0.003985
67 0.001979
60 0.004021
81 0.001999
101 0.000959
112 0.001013
114 0.001994
110 0.002031
113 0.001949
131 0.003012
143 0.002051
159 0.0
165 0.002015
174 0.0
182 0.003038
170 0.0
115 0.0
75 0.00203
78 0.001911
99 0.002992
113 0.004984
123 0.004991
120 0.004988
113 0.003987
117 0.004988
133 0.004986
143 0.004985
156 0.004988
163 0.004952
170 0.002992
173 0.001995
127 0.001964
74 0.00096
69 0.000996
82 0.0
98 0.001965
108 0.002993
112 0.003033
107 0.003958
109 0.001995
122 0.002994
132 0.002992
147 0.002995
154 0.002988
160 0.004031
166 0.003947
160 0.003959
111 0.003987
67 0.00399
68 0.00399
87 0.006015
105 0.005985
113 0.005956
113 0.005984
110 0.004988
113 0.005953
128 0.004987
138 0.004988
152 0.004983
163 0.007966
170 0.004982
177 0.00702
179 0.004972
140 0.005024
88 0.004986
85 0.005134
102 0.004987
121 0.001981
130 0.003037
131 0.001999
124 0.0
128 0.001994
144 0.0
153 0.001017
164 0.0
174 0.0
178 0.000953
182 0.000998
136 0.000962
104 0.001005
96 0.001995
106 0.000998
124 0.000947
140 0.002049
141 0.001956
135 0.001994
139 0.00405
157 0.00597
172 0.005982
185 0.005981
191 0.005985
198 0.005939
200 0.006023
151 0.005988
102 0.005949
99 0.005988
112 0.00594
120 0.00594
134 0.004981
141 0.004975
139 0.004973
140 0.002985
154 0.002963
163 0.002995
174 0.0
179 0.003023
184 0.002987
177 0.002993
118 0.003027
94 0.003991
96 0.003026
104 0.00303
114 0.002027
125 0.0
124 0.002028
122 0.0
129 0.000998
137 0.000997
148 0.000997
155 0.000997
166 0.001996
172 0.002026
148 0.002061
98 0.002031
92 0.003001
103 0.003949
118 0.00494
133 0.005979
135 0.005981
134 0.005979
137 0.005985
148 0.005976
160 0.007983
171 0.004966
182 0.007978
188 0.007014
164 0.00798
123 0.007014
108 0.00698
115 0.007015
130 0.003036
139 0.004952
149 0.003005
149 0.002024
152 0.003015
164 0.001994
172 0.001997
185 0.002
195 0.00302
201 0.003004
176 0.001995
147 0.001991
130 0.0
139 0.002028
147 0.002033
162 0.002002
169 0.000968
168 0.003034
170 0.0
182 0.0
191 0.0
200 0.0
209 0.001996
216 0.001996
198 0.002996
169 0.004023
145 0.003952
153 0.003854
161 0.003989
174 0.003951
178 0.004031
175 0.004989
176 0.005971
185 0.007976
191 0.004998
198 0.005984
205 0.005987
209 0.005019
214 0.005029
209 0.005017
161 0.004989
134 0.002973
136 0.005018
144 0.002952
152 0.001981
155 0.000949
155 0.0
154 0.00204
157 0.003025
166 0.002985
175 0.00497
180 0.005984
184 0.005983
187 0.005984
191 0.005983
192 0.004995
149 0.007966
124 0.003989
111 0.008011
118 0.004985
123 0.006983
132 0.007016
134 0.007021
132 0.00695
132 0.005984
139 0.006013
149 0.002024
154 0.005027
162 0.003007
166 0.002004
169 0.0
173 0.000996
180 0.0
178 0.001008
132 0.000941
108 0.000956
102 0.0
111 0.003018
117 0.002008
126 0.002035
126 0.00303
124 0.002998
128 0.004027
137 0.004991
146 0.004023
154 0.004045
159 0.003998
164 0.003991
169 0.003968
171 0.003994
176 0.00399
181 0.003991
157 0.005003
105 0.004984
92 0.006994
95 0.005994
105 0.003967
111 0.002997
116 0.003994
113 0.00202
111 0.003001
118 0.002995
127 0.004987
136 0.002004
143 0.002984
149 0.001977
152 0.00203
156 0.003046
159 0.003032
165 0.001996
158 0.000947
112 0.002995
73 0.001997
65 0.001035
76 0.0
87 0.001019
96 0.001026
102 0.0
101 0.000997
102 0.002005
111 0.002017
117 0.001998
127 0.002009
135 0.002866
139 0.002994
156 0.003996
169 0.002994
174 0.004049
173 0.003997
146 0.00398
94 0.002992
63 0.00405
66 0.005023
79 0.004987
94 0.00597
98 0.007019
95 0.006934
93 0.006981
97 0.006979
109 0.006018
117 0.006008
129 0.004972
138 0.005985
141 0.005983
147 0.005971
152 0.005
135 0.004988
89 0.00502
60 0.002026
64 0.003033
81 0.002039
92 0.002992
102 0.003026
96 0.0
93 0.003026
99 0.0
109 0.0
117 0.001015
127 0.000998
135 0.001994
138 0.003041
144 0.00396
142 0.003957
87 0.005983
44 0.006972
45 0.003975
54 0.001994
68 0.00203
78 0.002989
78 0.000969
74 0.002992
76 0.002032
83 0.002037
98 0.001989
106 0.001991
116 0.001995
122 0.0
127 0.002994
121 0.0
87 0.003026
44 0.002048
34 0.002028
50 0.004029
58 0.004027
71 0.00394
71 0.003957
67 0.00399
74 0.003948
83 0.003963
99 0.003989
107 0.003956
117 0.004985
123 0.006016
126 0.005953
133 0.003987
104 0.00502
59 0.004011
43 0.004988
57 0.005207
67 0.004997
83 0.005021
87 0.005029
85 0.004955
87 0.002038
96 0.005024
113 0.002009
127 0.002999
134 0.00201
141 0.002975
145 0.003
153 0.001
128 0.002027
82 0.0
63 0.002993
77 0.003023
87 0.002993
103 0.002997
107 0.002956
104 0.002001
104 0.001011
111 0.002045
124 0.000979
139 0.000998
146 0.000998
153 0.001
156 0.000986
161 0.001996
168 0.003023
173 0.002993
138 0.004994
77 0.005025
66 0.005994
78 0.004957
89 0.005993
96 0.005944
102 0.005985
100 0.00596
101 0.005983
111 0.00602
124 0.005985
135 0.005992
142 0.00597
149 0.007008
154 0.008012
159 0.001989
163 0.00397
169 0.0
177 0.000987
182 0.00098
166 0.0
121 0.0
75 0.0
71 0.0
80 0.0
89 0.004
98 0.005999
100 0.005984
99 0.005988
102 0.005971
110 0.005996
126 0.006935
139 0.006978
144 0.005985
151 0.006967
157 0.005011
167 0.006946
174 0.005019
176 0.004967
183 0.005051
182 0.001994
145 0.002989
79 0.000949
72 0.0
82 0.0
95 0.0
106 0.0
107 0.0
104 0.0
105 0.0
117 0.0
131 0.001986
140 0.0
148 0.0
153 0.0
156 0.0
161 0.002023
163 0.002009
172 0.002043
168 0.001926
116 0.001997
70 0.004031
64 0.00502
75 0.004989
87 0.004988
95 0.005982
99 0.00798
96 0.005991
95 0.007981
106 0.004987
122 0.004969
131 0.004983
141 0.002983
148 0.002995
151 0.002991
156 0.0
160 0.001994
167 0.001004
170 0.001994
125 0.0
70 0.0
52 0.0
62 0.0
74 0.001984
85 0.002032
89 0.003005
88 0.004029
88 0.003976
94 0.003035
111 0.004029
126 0.004979
132 0.005994
139 0.005979
144 0.003988
148 0.003989
154 0.004126
159 0.004939
168 0.002994
133 0.003989
75 0.002961
53 0.002988
66 0.002044
77 0.003027
91 0.002993
98 0.0
96 0.002993
94 0.0
101 0.003022
120 0.0
134 0.0
141 0.000998
150 0.000995
156 0.000965
159 0.000998
164 0.001995
172 0.003986
161 0.003984
86 0.00399
56 0.00399
54 0.004021
72 0.004988
78 0.00485
90 0.004987
89 0.004991
85 0.004988
89 0.00502
101 0.004987
114 0.004964
127 0.006021
134 0.005873
144 0.005993
149 0.005999
154 0.006977
158 0.004989
160 0.006978
104 0.004987
45 0.003986
40 0.003982
56 0.002014
70 0.001994
79 0.00299
81 0.001995
77 0.003011
76 0.002993
87 0.003984
101 0.00299
115 0.00203
127 0.001994
131 0.002989
129 0.003026
133 0.003024
126 0.002995
56 0.0
33 0.002992
40 0.0
57 0.0
69 0.0
85 0.002951
82 0.003987
78 0.003994
84 0.004008
100 0.004987
110 0.005984
121 0.005988
126 0.00599
135 0.005982
135 0.006951
104 0.005983
40 0.00499
29 0.00502
39 0.002992
49 0.004033
63 0.0
66 0.003021
62 0.0
67 0.0
77 0.0
96 0.0
104 0.0
114 0.0
122 0.0
126 0.0
91 0.0
33 0.0
26 0.0
41 0.0
50 0.0
66 0.0
72 0.0
71 0.000774
77 0.000997
87 0.000997
108 0.001028
121 0.000983
132 0.001996
141 0.001961
150 0.001995
129 0.002001
74 0.002006
63 0.001966
77 0.003009
94 0.002992
106 0.002992
115 0.002993
115 0.001961
119 0.003028
136 0.002997
148 0.003991
164 0.003997
175 0.003993
181 0.003985
190 0.003959
175 0.003992
120 0.004988
104 0.006982
113 0.00696
124 0.007035
135 0.006979
142 0.007012
144 0.007021
146 0.003988
152 0.006979
168 0.001993
177 0.004987
188 0.002993
196 0.002991
200 0.002989
208 0.0
208 0.001022
181 0.0
135 0.000964
131 0.00299
140 0.0
147 0.003026
155 0.0
160 0.002991
160 0.000999
162 0.001997
173 0.003049
185 0.001962
194 0.000958
200 0.002948
206 0.003031
210 0.005987
217 0.005947
224 0.005984
210 0.006982
169 0.004983
151 0.006982
153 0.002991
164 0.002997
169 0.002992
177 0.003012
176 0.002974
175 0.0
183 0.0
193 0.003001
202 0.0
208 0.003024
212 0.0
215 0.001991
219 0.002991
222 0.002
206 0.003015
158 0.0
144 0.0
145 0.001
152 0.002991
156 0.003965
161 0.004058
159 0.004957
157 0.006956
160 0.004972
170 0.004994
176 0.003977
183 0.002989
204 0.002953
207 0.003004
210 0.005984
215 0.003003
220 0.006015
178 0.005984
138 0.005984
109 0.005983
114 0.005988
124 0.003996
135 0.003011
138 0.002993
134 0.0
134 0.0
141 0.0
156 0.0
164 0.001027
174 0.0
180 0.000963
185 0.0
192 0.001008
199 0.0
202 0.000997
155 0.0
108 0.002839
104 0.003898
120 0.003979
132 0.005967
143 0.005984
140 0.006024
132 0.005988
134 0.006017
146 0.005971
155 0.005976
168 0.005985
171 0.007018
171 0.006027
175 0.006978
180 0.006982
183 0.005995
128 0.005981
90 0.005992
70 0.005974
76 0.005972
91 0.003999
104 0.003984
106 0.003995
102 0.003016
102 0.00599
111 0.002984
122 0.005985
134 0.002032
143 0.00401
149 0.003989
152 0.004024
159 0.003984
123 0.002962
84 0.003989
57 0.0
67 0.000992
78 0.002999
94 0.00303
102 0.004986
99 0.004988
95 0.005985
103 0.006976
113 0.006015
130 0.006015
137 0.005947
150 0.006111
162 0.006016
164 0.005971
113 0.005988
82 0.007978
85 0.004068
100 0.005985
118 0.003023
132 0.00598
133 0.005984
132 0.005024
140 0.002958
155 0.0
164 0.003025
176 0.0
184 0.0
187 0.0
180 0.0
124 0.002981
104 0.002992
109 0.002992
126 0.002987
136 0.005989
145 0.00497
144 0.004969
139 0.006972
144 0.005987
152 0.005969
165 0.00594
175 0.007981
180 0.005939
186 0.005964
148 0.005984
118 0.005978
106 0.005982
115 0.006044
131 0.00599
145 0.002997
147 0.005984
143 0.002972
145 0.003046
156 0.002981
171 0.003009
178 0.00299
187 0.002024
194 0.00399
184 0.00299
145 0.003988
125 0.002988
131 0.004023
148 0.002971
156 0.002969
162 0.003992
158 0.00399
156 0.002988
164 0.0
172 0.003036
182 0.0
186 0.000996
190 0.001997
187 0.001976
146 0.001028
121 0.0
118 0.0
129 0.000967
142 0.00101
147 0.00299
145 0.002959
140 0.004981
146 0.004978
152 0.004952
161 0.004988
167 0.005019
169 0.005956
176 0.006983
164 0.00698
132 0.006984
87 0.007015
89 0.007012
105 0.006984
118 0.003975
124 0.006982
121 0.002972
118 0.003027
124 0.00298
141 0.002993
148 0.003027
159 0.002999
168 0.002996
172 0.002043
181 0.002995
163 0.004021
96 0.002972
79 0.005022
93 0.004008
105 0.004987
120 0.003025
124 0.002992
122 0.002997
124 0.002993
137 0.003002
154 0.0
163 0.003026
174 0.0
181 0.0
185 0.000998
192 0.002961
196 0.004963
163 0.005992
101 0.005985
97 0.005935
108 0.005985
117 0.004992
128 0.004989
130 0.004972
127 0.004987
129 0.005092
142 0.003006
154 0.005019
165 0.002976
170 0.005014
176 0.005017
180 0.00502
186 0.005019
193 0.004988
183 0.005021
117 0.002011
96 0.005024
104 0.003001
113 0.003982
123 0.00304
132 0.002988
132 0.003006
131 0.0
139 0.003015
152 0.0
163 0.002993
174 0.003041
179 0.003034
187 0.000999
191 0.002008
199 0.002041
208 0.002046
213 0.002016
173 0.002026
119 0.002025
115 0.002002
134 0.002004
141 0.002024
152 0.001951
152 0.00397
150 0.00399
151 0.003991
164 0.003995
172 0.003959
182 0.00499
186 0.004987
190 0.00599
193 0.006031
196 0.004972
201 0.003974
206 0.007032
206 0.003999
157 0.006983
94 0.006014
85 0.004985
96 0.005048
101 0.005014
108 0.004984
107 0.002982
103 0.00502
102 0.002995
114 0.003043
123 0.000966
135 0.000995
139 0.0
147 0.0
152 0.0
155 0.0
161 0.000994
168 0.004022
173 0.0
136 0.001997
60 0.001996
40 0.003003
47 0.003022
57 0.003058
68 0.002992
72 0.003985
69 0.004987
64 0.006977
72 0.006976
82 0.006934
101 0.006997
112 0.005958
122 0.006979
129 0.004977
136 0.006982
143 0.00399
155 0.003993
161 0.003018
109 0.003004
39 0.002981
28 0.003968
46 0.002956
63 0.003027
77 0.0
81 0.002998
73 0.0
71 0.000998
84 0.001007
97 0.00105
116 0.000968
127 0.002028
137 0.002045
143 0.00396
150 0.004027
154 0.004021
165 0.003959
152 0.003984
61 0.003993
8 0.003986
8 0.004036
29 0.00598
45 0.00599
55 0.005997
55 0.006952
48 0.007977
52 0.005035
70 0.007973
84 0.004976
103 0.007979
115 0.007967
121 0.00594
130 0.006022
138 0.001993
145 0.005987
137 0.002041
83 0.005021
0 0.003045
0 0.003
4 0.002991
28 0.003007
41 0.00299
48 0.002996
40 0.0
42 0.000964
59 0.000993
79 0.002944
99 0.0
114 0.003023
129 0.003063
137 0.003984
148 0.0
157 0.001997
137 0.002994
57 0.00203
4 0.00203
2 0.004046
32 0.003001
49 0.002998
73 0.003022
73 0.002992
63 0.00399
68 0.002992
82 0.003028
109 0.003959
131 0.003989
143 0.004006
154 0.005985
161 0.005982
168 0.005981
93 0.005984
33 0.005971
62 0.006971
70 0.005985
80 0.005984
94 0.006992
99 0.006021
97 0.006982
92 0.00698
94 0.006979
105 0.007023
117 0.002989
124 0.005991
132 0.004989
135 0.007016
141 0.003038
141 0.004009
113 0.00415
62 0.004989
52 0.003041
62 0.004013
77 0.004953
86 0.003023
90 0.002998
86 0.004018
85 0.003
92 0.00499
103 0.002994
112 0.003961
123 0.003991
128 0.003991
133 0.003009
140 0.001016
130 0.003988
76 0.001
54 0.003023
55 0.0
72 0.0
78 0.0
91 0.0
90 0.0
86 0.0
90 0.000859
98 0.001054
112 0.0
124 0.001997
130 0.002992
137 0.005
142 0.005983
141 0.005968
93 0.005982
59 0.005981
61 0.005982
