167 0.014994
166 0.003989
165 0.001994
100 0.0
63 0.0
56 0.001012
69 0.001024
93 0.0
104 0.00093
112 0.000925
126 0.000969
130 0.001004
128 0.000951
125 0.0
125 0.000997
138 0.0
143 0.0
149 0.000998
152 0.000997
154 0.000966
155 0.000966
158 0.0
158 0.000963
158 0.001025
161 0.001039
162 0.001041
163 0.000999
149 0.000966
109 0.001013
74 0.001965
66 0.001031
82 0.000998
94 0.001
109 0.001995
126 0.000956
133 0.000966
134 0.001951
131 0.001996
127 0.000997
131 0.000964
137 0.000941
144 0.001996
148 0.001965
152 0.000997
155 0.000997
157 0.000957
157 0.001027
159 0.002019
160 0.002035
162 0.002004
154 0.001946
103 0.001002
73 0.002004
51 0.002006
59 0.002025
81 0.000986
93 0.000998
103 0.000969
113 0.001994
118 0.00296
116 0.001995
114 0.002007
119 0.002028
125 0.002033
132 0.002009
139 0.001992
142 0.002002
144 0.002007
147 0.001995
148 0.00104
150 0.001956
151 0.003
151 0.003002
154 0.002033
157 0.002991
139 0.001994
91 0.002051
53 0.002027
46 0.002027
55 0.002015
68 0.001962
76 0.00298
84 0.001994
93 0.003004
102 0.003005
107 0.002033
107 0.002991
115 0.001997
123 0.001954
133 0.002027
138 0.002992
143 0.002961
148 0.003036
151 0.003036
151 0.003034
155 0.003031
155 0.002987
157 0.003002
158 0.002987
159 0.00203
152 0.002012
117 0.002025
70 0.002991
48 0.003986
55 0.002983
69 0.003032
81 0.003024
89 0.00396
98 0.003989
111 0.002995
113 0.003018
109 0.002051
112 0.003006
118 0.003988
129 0.003986
135 0.003958
141 0.002955
144 0.002985
146 0.003025
149 0.004
151 0.003857
152 0.002991
154 0.003988
158 0.003006
160 0.003038
158 0.003026
140 0.003988
97 0.00399
64 0.003989
59 0.00399
70 0.00399
91 0.00399
104 0.003989
119 0.002982
126 0.003989
122 0.002992
117 0.002992
119 0.003989
125 0.004989
134 0.004987
143 0.003985
147 0.003506
150 0.002991
153 0.003026
154 0.00395
155 0.003026
155 0.004987
157 0.005017
161 0.004031
159 0.00403
143 0.004007
99 0.004958
61 0.004945
56 0.004024
63 0.004022
77 0.003995
91 0.004985
107 0.003989
114 0.004986
116 0.004974
113 0.004026
114 0.004019
122 0.004026
134 0.005006
143 0.005028
150 0.003989
152 0.004027
152 0.003977
152 0.005997
157 0.005026
158 0.004986
157 0.004988
159 0.004987
162 0.005001
162 0.005518
155 0.00596
120 0.005983
60 0.004929
52 0.004988
56 0.005028
71 0.004917
89 0.005027
100 0.004994
107 0.004986
112 0.00499
115 0.003989
116 0.005991
119 0.005985
124 0.005985
138 0.004987
148 0.004987
154 0.004991
157 0.005977
158 0.00499
160 0.006036
162 0.00499
161 0.005987
160 0.005936
159 0.005988
160 0.005982
159 0.006013
119 0.00499
74 0.005031
55 0.005047
58 0.005978
77 0.005044
83 0.006949
89 0.00599
107 0.005988
118 0.006042
121 0.005996
121 0.005986
124 0.006021
129 0.005984
136 0.006533
142 0.006016
146 0.005931
153 0.005982
157 0.005983
161 0.005983
161 0.005971
163 0.00599
164 0.005012
164 0.005984
168 0.005987
172 0.006937
171 0.005982
145 0.005955
98 0.005983
61 0.006023
65 0.005983
78 0.006972
88 0.006983
99 0.005982
111 0.006035
120 0.007063
123 0.006981
120 0.007062
120 0.006971
124 0.006973
134 0.006945
146 0.006009
148 0.006983
152 0.006981
151 0.00699
152 0.006009
154 0.005937
154 0.00697
156 0.007961
160 0.00797
162 0.007019
162 0.007013
146 0.006974
90 0.007053
62 0.007018
67 0.006948
81 0.007025
93 0.007945
109 0.007007
119 0.007118
124 0.007947
123 0.007942
116 0.007013
117 0.007014
129 0.006985
136 0.00698
141 0.007023
145 0.007944
148 0.007945
149 0.006946
151 0.005973
152 0.007978
155 0.007976
158 0.007953
156 0.007961
141 0.00701
62 0.007978
53 0.007015
58 0.006979
75 0.007943
86 0.007982
95 0.007011
106 0.007014
117 0.006963
117 0.006991
113 0.006943
115 0.006981
122 0.006986
130 0.007975
139 0.007978
142 0.00795
146 0.007013
148 0.007001
149 0.006983
152 0.006982
154 0.006966
155 0.00698
158 0.006932
160 0.00698
125 0.006949
62 0.007013
43 0.006977
47 0.007979
58 0.007979
72 0.007948
78 0.007025
92 0.006982
100 0.006981
103 0.00697
103 0.006979
104 0.007015
114 0.006957
126 0.006981
135 0.00699
139 0.006947
143 0.006981
145 0.007034
148 0.005984
151 0.006991
153 0.005984
153 0.006981
155 0.006982
157 0.006982
162 0.006981
147 0.006982
83 0.006981
49 0.006984
44 0.006981
53 0.00699
64 0.005984
74 0.005984
80 0.005985
91 0.005985
99 0.005984
102 0.005984
104 0.006982
111 0.006981
123 0.007014
133 0.006981
141 0.005984
145 0.005984
147 0.005983
149 0.005985
151 0.005984
153 0.005983
156 0.006017
156 0.006002
160 0.005984
162 0.006028
166 0.006938
166 0.004996
147 0.00502
100 0.005984
60 0.005984
52 0.005984
65 0.005984
80 0.005984
91 0.005971
101 0.005984
112 0.005984
119 0.005983
117 0.005984
117 0.004957
123 0.004986
132 0.004979
139 0.004975
146 0.004961
151 0.004981
153 0.005984
155 0.005987
155 0.00594
157 0.005972
160 0.005958
164 0.004933
166 0.004988
152 0.004955
112 0.004985
74 0.004954
62 0.004945
75 0.004988
90 0.004952
103 0.004961
116 0.003964
130 0.004991
130 0.004987
125 0.005013
127 0.004919
134 0.004987
141 0.004954
148 0.004028
153 0.004938
157 0.004956
158 0.004985
160 0.004956
160 0.005016
161 0.005019
161 0.004995
164 0.004944
165 0.004943
143 0.004991
96 0.004927
60 0.003958
52 0.003966
67 0.003948
81 0.003951
89 0.003964
97 0.003947
112 0.00499
117 0.004955
116 0.004958
117 0.004956
124 0.004987
135 0.003937
142 0.003962
148 0.003998
152 0.003959
152 0.003987
153 0.003947
155 0.003931
156 0.003948
158 0.003957
161 0.004986
164 0.002992
166 0.003988
156 0.003959
111 0.003949
63 0.00396
48 0.003995
56 0.003989
69 0.00399
79 0.004006
92 0.003989
101 0.003989
107 0.003985
110 0.00399
112 0.00399
117 0.002992
126 0.002991
134 0.002993
140 0.002992
145 0.003989
148 0.003983
149 0.003991
152 0.003989
156 0.003992
159 0.002993
159 0.002993
164 0.002991
167 0.002992
169 0.002992
168 0.002993
145 0.003002
76 0.003991
48 0.002993
50 0.003019
74 0.002993
86 0.002992
94 0.002996
105 0.002991
115 0.0029
114 0.002992
112 0.002992
115 0.001993
120 0.00399
133 0.001994
141 0.001995
145 0.002999
149 0.002993
150 0.002949
152 0.002993
153 0.002993
154 0.002993
156 0.002992
159 0.002992
161 0.002993
157 0.001995
112 0.002991
68 0.001995
56 0.001994
70 0.002991
87 0.001995
101 0.002994
115 0.002963
125 0.002992
124 0.002985
118 0.003009
115 0.001993
120 0.002006
132 0.002
140 0.002006
147 0.001996
148 0.001993
149 0.001994
150 0.001995
150 0.001995
153 0.001995
156 0.001995
158 0.000997
151 0.001982
116 0.001995
57 0.001995
44 0.001994
63 0.001995
78 0.001995
89 0.002037
100 0.001996
110 0.001995
115 0.001962
112 0.000942
110 0.001986
115 0.000994
123 0.001
133 0.001
142 0.000999
147 0.001995
151 0.001968
153 0.001996
156 0.000997
157 0.001992
160 0.001972
164 0.001003
166 0.000998
167 0.000997
153 0.000955
103 0.000975
48 0.000997
45 0.000991
62 0.000998
72 0.000977
78 0.001995
86 0.001995
97 0.001996
103 0.001005
104 0.000998
106 0.000997
112 0.000998
122 0.000997
138 0.000993
147 0.000997
152 0.000999
154 0.000997
156 0.000998
158 0.00099
159 0.001002
162 0.0
164 0.0
167 0.0
170 0.0
172 0.0
164 0.0
105 0.000967
50 0.000965
47 0.001028
59 0.0
75 0.00099
84 0.001031
92 0.001028
102 0.0
110 0.0
113 0.0
114 0.0
120 0.0
134 0.000997
146 0.000972
154 0.0
159 0.0
162 0.0
163 0.0
167 0.0
167 0.0
167 0.0
169 0.0
172 0.0
173 0.0
176 0.0
165 0.000967
123 0.0
74 0.0
58 0.0
65 0.0
86 0.0
99 0.0
115 0.0
125 0.0
129 0.0
126 0.0
119 0.0
126 0.0
135 0.000945
143 0.000967
152 0.0
154 0.0
157 0.0
158 0.0
158 0.0
159 0.0
162 0.0
166 0.0
158 0.0
122 0.0
74 0.001009
54 0.000967
63 0.0
78 0.0
91 0.0
103 0.000968
115 0.000949
123 0.000998
121 0.000997
116 0.000951
123 0.000998
132 0.0
140 0.00099
147 0.000994
152 0.0
155 0.0
157 0.0
159 0.001011
158 0.000998
161 0.0
164 0.000996
166 0.001005
142 0.0
89 0.0
51 0.000968
45 0.000997
57 0.001008
71 0.001017
77 0.00107
83 0.002027
94 0.002014
105 0.000961
106 0.001098
108 0.000996
116 0.000998
127 0.000996
138 0.000998
147 0.002927
153 0.000999
157 0.0
159 0.000978
161 0.002019
163 0.001941
165 0.000993
167 0.001006
172 0.000994
171 0.000999
148 0.000998
94 0.001945
55 0.001971
53 0.000998
64 0.001998
73 0.002055
78 0.001994
84 0.00205
93 0.00196
104 0.000921
107 0.000997
110 0.000993
117 0.001002
129 0.000995
141 0.001977
149 0.001996
156 0.001994
159 0.001996
162 0.002044
163 0.003023
165 0.003017
166 0.002036
167 0.001994
168 0.001999
172 0.001045
174 0.000997
160 0.001986
113 0.002003
58 0.001995
54 0.002002
65 0.001995
81 0.002993
90 0.002993
103 0.001994
116 0.002995
120 0.001999
114 0.001994
114 0.000999
122 0.001995
134 0.001995
147 0.001964
152 0.002984
157 0.001992
158 0.003044
161 0.002992
161 0.001994
163 0.002992
168 0.001994
169 0.000994
161 0.001995
122 0.002992
75 0.003989
57 0.001994
66 0.002993
84 0.002992
96 0.003981
106 0.003993
126 0.004012
130 0.00402
124 0.001991
123 0.001996
131 0.002001
141 0.002985
150 0.002992
159 0.002992
162 0.002992
165 0.002992
165 0.003989
168 0.00399
170 0.003988
172 0.00399
173 0.002991
174 0.003031
168 0.002068
127 0.003025
72 0.002988
48 0.00299
54 0.002991
68 0.002984
78 0.003989
83 0.003989
98 0.004023
107 0.004025
110 0.002022
110 0.003025
115 0.002993
124 0.003984
135 0.004987
147 0.003029
153 0.004023
154 0.003989
156 0.004021
159 0.00399
163 0.004032
165 0.004027
166 0.00393
168 0.00304
171 0.002991
172 0.003989
171 0.003989
146 0.004057
70 0.003052
46 0.003008
48 0.002992
58 0.004045
70 0.004005
73 0.005016
81 0.005018
94 0.00402
96 0.004021
98 0.003989
101 0.005036
110 0.005043
128 0.003977
140 0.004022
147 0.002991
153 0.004987
160 0.003975
161 0.004987
164 0.004986
165 0.003989
165 0.003977
166 0.00403
169 0.005038
171 0.004987
173 0.004001
173 0.003988
151 0.004039
99 0.005984
49 0.00407
56 0.006032
70 0.00496
83 0.004016
90 0.004028
101 0.004021
110 0.004986
111 0.005024
108 0.003993
109 0.004037
117 0.004029
131 0.005984
147 0.004987
153 0.005995
155 0.005984
157 0.003986
159 0.004933
159 0.004987
161 0.005997
163 0.005017
170 0.003989
172 0.004933
171 0.004942
145 0.005983
67 0.00499
59 0.005946
67 0.005983
86 0.004986
97 0.004947
108 0.004955
119 0.005982
126 0.005941
122 0.005018
118 0.006026
123 0.00503
143 0.004944
152 0.004986
158 0.005982
161 0.005933
165 0.005066
166 0.005021
166 0.005025
168 0.006
169 0.005951
170 0.005992
173 0.006065
176 0.005982
151 0.006016
96 0.006013
56 0.005983
50 0.006952
60 0.005978
74 0.006028
84 0.005032
90 0.00502
101 0.005952
108 0.005984
111 0.005022
108 0.006047
118 0.00603
130 0.006026
140 0.005989
148 0.007017
153 0.007008
155 0.005965
157 0.006015
160 0.007036
162 0.008015
165 0.007978
171 0.006014
171 0.00603
174 0.006017
175 0.006036
176 0.005986
165 0.007019
119 0.006982
56 0.005985
49 0.005985
58 0.006032
71 0.00798
82 0.007978
85 0.006031
93 0.006015
104 0.00703
107 0.006076
109 0.005988
114 0.006983
124 0.007024
141 0.00602
148 0.00601
155 0.006032
157 0.007062
160 0.007977
161 0.007018
161 0.007013
166 0.007013
168 0.006015
171 0.005984
172 0.007979
173 0.007979
177 0.006982
179 0.00698
176 0.00698
136 0.007916
98 0.007979
52 0.007942
55 0.007023
80 0.007023
91 0.007006
96 0.007006
102 0.007979
112 0.007948
114 0.007001
112 0.007013
115 0.007045
123 0.007979
135 0.007978
148 0.006982
154 0.00703
159 0.007016
161 0.006985
162 0.006977
164 0.00699
166 0.007984
167 0.007963
168 0.007028
170 0.007018
172 0.006984
174 0.007978
176 0.00793
179 0.006981
157 0.007009
106 0.006983
61 0.006983
62 0.006981
76 0.006981
92 0.006985
107 0.00701
117 0.006978
125 0.007978
125 0.007017
121 0.007979
115 0.007035
126 0.007975
142 0.006981
149 0.006937
154 0.006949
157 0.006997
160 0.006988
162 0.006979
162 0.006974
164 0.006987
166 0.006982
167 0.007026
170 0.006981
167 0.006973
126 0.007019
74 0.006981
51 0.005984
55 0.006023
67 0.005957
84 0.005993
93 0.005952
104 0.006991
112 0.007012
114 0.006945
108 0.006993
112 0.006976
126 0.006994
137 0.006967
147 0.005984
152 0.005984
156 0.005945
159 0.005984
162 0.005985
163 0.005978
164 0.005943
166 0.005984
169 0.006079
170 0.005979
172 0.006991
171 0.006976
142 0.005984
85 0.005984
46 0.005984
42 0.005984
55 0.00599
67 0.005984
72 0.006016
77 0.006018
93 0.005995
97 0.005966
96 0.00498
98 0.004985
107 0.004997
118 0.004909
130 0.005032
139 0.00499
145 0.005984
147 0.005973
150 0.005983
152 0.006014
156 0.005985
159 0.006019
161 0.005984
165 0.005971
166 0.004971
167 0.005034
170 0.005025
172 0.004987
151 0.004984
96 0.004978
47 0.005033
37 0.005032
54 0.005984
66 0.006011
71 0.005979
79 0.005971
89 0.005037
93 0.004986
94 0.004986
94 0.004956
100 0.004987
112 0.004953
126 0.004987
136 0.004952
148 0.004986
151 0.005029
154 0.005035
159 0.004973
160 0.00399
164 0.003969
167 0.003951
170 0.005019
172 0.004953
174 0.004988
176 0.004987
178 0.004987
180 0.004987
175 0.005001
135 0.004988
62 0.004987
47 0.004987
52 0.004982
66 0.003919
77 0.004026
84 0.003969
92 0.003989
101 0.003991
104 0.003963
104 0.00399
109 0.004023
119 0.004023
136 0.004024
145 0.005011
152 0.005002
153 0.004939
156 0.003941
160 0.003957
161 0.003972
162 0.004027
167 0.003972
170 0.003951
172 0.003964
173 0.00399
177 0.003994
179 0.003989
180 0.003954
171 0.00292
131 0.00399
69 0.003987
58 0.003991
67 0.004025
95 0.003951
108 0.003995
121 0.00403
126 0.003944
124 0.003966
117 0.002955
116 0.002942
123 0.002961
135 0.002956
146 0.003008
153 0.002992
157 0.003978
163 0.003948
166 0.003982
167 0.003956
167 0.004042
170 0.00399
172 0.00396
172 0.003989
174 0.002993
172 0.003959
157 0.002993
92 0.002935
51 0.002993
51 0.002997
65 0.002993
78 0.002992
88 0.002965
98 0.002992
109 0.002993
111 0.003947
108 0.003944
108 0.003954
113 0.003953
129 0.002994
138 0.002993
147 0.003017
150 0.002987
153 0.002963
157 0.002969
160 0.002993
160 0.003024
160 0.002984
162 0.002983
164 0.001986
165 0.001987
170 0.002002
171 0.001995
120 0.002945
62 0.001999
40 0.002967
43 0.002974
55 0.002991
68 0.003975
72 0.002998
76 0.002026
84 0.001995
89 0.001991
89 0.002025
89 0.001995
102 0.002046
116 0.001995
130 0.001996
139 0.001986
145 0.002006
149 0.002058
151 0.002026
153 0.001981
159 0.001996
163 0.001995
165 0.001995
168 0.001995
170 0.001962
170 0.001993
171 0.00203
173 0.001993
173 0.001997
160 0.00195
85 0.001991
43 0.001995
36 0.001025
48 0.000985
62 0.001003
72 0.000997
78 0.001996
90 0.001996
94 0.001998
93 0.001995
95 0.001994
100 0.001996
114 0.001995
128 0.002021
138 0.002
144 0.000965
149 0.000925
152 0.000995
153 0.001004
155 0.000998
156 0.000976
160 0.001028
163 0.001
164 0.001934
166 0.001928
168 0.001995
171 0.000996
173 0.000986
174 0.000966
123 0.000994
72 0.000996
53 0.000996
63 0.000993
80 0.000998
95 0.000994
105 0.000984
118 0.002034
122 0.000983
118 0.0
110 0.0
113 0.0
131 0.001
142 0.001007
151 0.000998
155 0.000998
158 0.000998
157 0.001036
159 0.001008
162 0.0
162 0.000998
163 0.0
165 0.0
168 0.0
172 0.0
165 0.0
103 0.0
58 0.0
48 0.000999
58 0.0
73 0.0
89 0.0
97 0.0
111 0.000996
113 0.000995
113 0.0
110 0.0
116 0.0
131 0.0
142 0.0
150 0.0
153 0.0
156 0.0
157 0.0
157 0.0
158 0.0
161 0.000987
162 0.000993
168 0.000965
171 0.00101
175 0.0
158 0.0
106 0.001002
48 0.0
43 0.0
53 0.0
66 0.000998
74 0.001003
80 0.0
89 0.0
95 0.000975
94 0.000989
92 0.000997
100 0.001028
114 0.001058
132 0.0
140 0.0
146 0.0
150 0.000984
150 0.000978
152 0.0
153 0.0
156 0.0
158 0.0
161 0.0
165 0.000988
169 0.001976
163 0.000823
122 0.0
61 0.0
38 0.002011
39 0.000999
53 0.0
59 0.0
64 0.0
73 0.0
79 0.0
82 0.000996
82 0.000997
86 0.0
97 0.0
112 0.0
125 0.000965
133 0.000997
140 0.0
142 0.001012
148 0.000996
150 0.0
155 0.0
160 0.001994
162 0.000998
165 0.000998
168 0.000997
171 0.000997
173 0.00102
174 0.000968
146 0.000997
63 0.002002
34 0.000969
40 0.001041
52 0.001058
59 0.002027
62 0.002057
68 0.000946
78 0.000998
84 0.0
84 0.001993
85 0.002054
93 0.000994
110 0.001995
126 0.000954
136 0.000998
145 0.000996
150 0.001994
155 0.001997
163 0.000999
166 0.001031
167 0.001035
171 0.000998
174 0.001992
175 0.002993
178 0.002958
178 0.002004
182 0.000994
184 0.000967
177 0.000995
137 0.001995
74 0.001997
44 0.001003
52 0.000948
65 0.001995
76 0.00199
80 0.003026
92 0.002992
97 0.003027
97 0.001995
95 0.000997
98 0.000998
110 0.00295
125 0.002993
141 0.000998
148 0.000968
153 0.000997
155 0.001996
157 0.001994
160 0.002978
162 0.003019
166 0.002016
169 0.001996
173 0.001996
176 0.003067
178 0.003023
167 0.003
124 0.000996
68 0.001018
48 0.00199
53 0.00399
78 0.003989
88 0.004026
102 0.001991
113 0.001994
117 0.001994
114 0.003007
111 0.002992
119 0.001995
131 0.000997
143 0.002993
152 0.002992
158 0.00399
162 0.003959
163 0.004041
166 0.002024
169 0.001965
171 0.001936
173 0.00399
174 0.003989
176 0.003017
179 0.001004
181 0.003031
176 0.004027
137 0.004029
51 0.003023
43 0.003024
59 0.001996
75 0.003019
82 0.002983
86 0.004013
96 0.004024
106 0.00199
107 0.003005
106 0.003037
110 0.004967
121 0.004038
141 0.004056
150 0.005074
156 0.005021
161 0.003024
162 0.003014
164 0.003007
166 0.00402
169 0.003989
170 0.002992
172 0.002984
174 0.002988
175 0.00299
179 0.003009
181 0.00403
184 0.005021
158 0.00402
96 0.00403
49 0.004044
40 0.005018
50 0.005041
71 0.004036
79 0.00399
84 0.003
97 0.003039
102 0.002992
105 0.00502
106 0.005025
114 0.003996
126 0.004038
139 0.003991
147 0.005038
154 0.005017
160 0.004022
163 0.003028
165 0.003053
168 0.002994
171 0.004035
174 0.00502
178 0.005985
182 0.003943
183 0.004033
185 0.004036
186 0.005035
188 0.005019
189 0.004011
175 0.004021
124 0.004023
47 0.004038
48 0.003997
64 0.004993
82 0.00503
96 0.005032
106 0.005023
115 0.004993
119 0.00602
117 0.006018
114 0.004019
117 0.004031
128 0.003995
143 0.003989
150 0.004954
153 0.005985
156 0.005984
158 0.004024
160 0.004022
161 0.005017
163 0.006015
165 0.006024
168 0.005042
171 0.005047
174 0.00502
175 0.005035
157 0.004023
108 0.005989
60 0.007043
47 0.006015
64 0.004958
84 0.004968
100 0.005033
114 0.006047
124 0.006027
125 0.005023
119 0.005025
114 0.004978
123 0.005032
137 0.006027
147 0.007013
153 0.00703
157 0.005023
159 0.005037
161 0.005018
162 0.00702
163 0.005983
164 0.00499
164 0.00503
168 0.005036
170 0.00606
169 0.006023
143 0.006981
84 0.007031
36 0.005985
37 0.006017
51 0.006014
67 0.006966
77 0.006973
87 0.006015
95 0.005025
97 0.004969
95 0.004991
98 0.006049
111 0.007942
125 0.007981
138 0.00599
145 0.005982
149 0.006033
151 0.006995
153 0.007016
155 0.006062
158 0.007034
160 0.006042
162 0.006982
164 0.007014
168 0.007979
172 0.007968
167 0.00602
126 0.007016
62 0.006015
33 0.007949
38 0.007971
50 0.005985
63 0.006976
67 0.006014
75 0.006016
82 0.006026
86 0.007021
88 0.007972
91 0.007013
100 0.00702
113 0.007021
129 0.007994
138 0.007987
144 0.007016
150 0.007978
154 0.006039
156 0.00603
159 0.00603
164 0.007973
167 0.007982
169 0.00601
170 0.007016
175 0.006977
177 0.006971
175 0.007985
147 0.007947
54 0.007947
38 0.007972
45 0.006983
60 0.007017
72 0.00703
78 0.007984
85 0.007025
96 0.007985
98 0.006993
96 0.006973
98 0.006971
107 0.006982
124 0.007979
135 0.007979
145 0.006951
150 0.007024
152 0.006993
155 0.006974
157 0.006955
161 0.006997
163 0.006982
164 0.006981
168 0.006969
171 0.006988
176 0.006979
177 0.006981
166 0.006979
102 0.006933
58 0.006963
49 0.007018
61 0.006979
83 0.006981
97 0.006981
110 0.006981
119 0.006962
122 0.006982
111 0.007013
110 0.006978
121 0.006986
134 0.00594
145 0.006024
151 0.00603
155 0.005984
157 0.005985
159 0.005953
161 0.006999
164 0.006942
165 0.006987
170 0.007028
174 0.006982
176 0.007016
166 0.006027
122 0.005964
65 0.005984
42 0.006031
49 0.005988
66 0.006029
79 0.005979
86 0.005962
96 0.005999
108 0.005994
108 0.00597
105 0.005984
112 0.006
124 0.005982
137 0.006034
147 0.005981
154 0.005983
157 0.006014
158 0.005981
160 0.005936
162 0.005984
166 0.006021
168 0.006011
170 0.004986
173 0.005992
175 0.004974
178 0.00495
179 0.004993
171 0.004992
103 0.005949
51 0.005955
36 0.005998
55 0.006032
70 0.006019
76 0.00595
80 0.005017
94 0.004972
101 0.005001
102 0.00503
103 0.004985
108 0.005156
121 0.004989
134 0.004954
145 0.005005
154 0.006042
156 0.004987
158 0.005025
160 0.004988
164 0.005002
165 0.004934
168 0.004993
172 0.004993
175 0.004992
177 0.00496
179 0.004021
180 0.003989
185 0.004987
185 0.004034
168 0.00399
115 0.004022
50 0.005008
43 0.004989
56 0.004958
72 0.004949
84 0.005032
92 0.004991
100 0.005023
109 0.004977
112 0.004987
112 0.004022
117 0.003985
128 0.00399
141 0.00399
149 0.003959
155 0.005007
157 0.00499
159 0.005004
163 0.004987
164 0.004966
166 0.004985
170 0.003919
173 0.004031
176 0.00399
177 0.003991
181 0.003997
184 0.00399
184 0.00399
179 0.003978
145 0.003941
78 0.004048
57 0.005019
64 0.003939
95 0.00399
109 0.003995
121 0.004022
129 0.00399
131 0.003992
125 0.003989
121 0.003992
124 0.003991
133 0.00399
143 0.003961
152 0.003944
155 0.002992
161 0.002992
162 0.003
163 0.00399
164 0.00399
166 0.002991
169 0.003951
171 0.003992
175 0.003959
173 0.003952
150 0.002994
82 0.002993
51 0.002993
60 0.002993
76 0.003004
91 0.002998
102 0.002992
113 0.002985
119 0.002983
117 0.002992
113 0.003955
115 0.003958
121 0.003979
135 0.00394
143 0.002968
150 0.002992
153 0.00305
154 0.002944
156 0.002998
159 0.002992
160 0.002989
162 0.002992
166 0.003959
168 0.003958
168 0.002955
146 0.002956
71 0.002993
33 0.00296
38 0.002993
52 0.002992
65 0.002992
71 0.002996
81 0.002987
91 0.002988
94 0.002996
94 0.001989
95 0.001995
104 0.001994
120 0.001995
133 0.002055
140 0.002028
144 0.003004
146 0.002992
150 0.002993
153 0.00298
155 0.002962
158 0.002983
160 0.002991
162 0.001973
165 0.00199
171 0.001992
172 0.002009
146 0.001995
88 0.001996
41 0.001995
30 0.001941
43 0.001999
56 0.001999
61 0.001994
65 0.001995
74 0.002
84 0.002025
89 0.00199
90 0.001994
98 0.002029
109 0.001995
121 0.001995
132 0.001985
140 0.002009
145 0.000996
150 0.001991
152 0.000984
154 0.001009
156 0.001012
161 0.001998
162 0.001995
164 0.002007
166 0.001961
170 0.001995
173 0.001994
175 0.001993
147 0.000996
89 0.000998
45 0.000966
37 0.001
47 0.001003
72 0.000998
80 0.000997
91 0.000998
100 0.001995
103 0.001995
100 0.001995
98 0.000999
109 0.001003
122 0.000996
133 0.001019
140 0.001002
145 0.000996
148 0.001013
151 0.000998
152 0.001003
154 0.001015
157 0.000995
159 0.000997
163 0.000995
168 0.000997
163 0.0
132 0.000973
78 0.000997
49 0.001004
58 0.000998
75 0.000997
93 0.000997
106 0.000997
116 0.000998
120 0.0
116 0.0
111 0.0
117 0.0
127 0.0
138 0.0
147 0.0
154 0.0
155 0.001
158 0.000997
160 0.000997
163 0.000998
164 0.0
167 0.0
171 0.0
174 0.0
172 0.0
142 0.0
82 0.0
40 0.0
48 0.0
68 0.0
76 0.0
81 0.0
91 0.0
103 0.00097
104 0.000998
104 0.0
107 0.0
116 0.0
136 0.0
144 0.0
149 0.0
153 0.0
157 0.001073
159 0.000999
163 0.0
164 0.000997
166 0.000997
169 0.000998
173 0.001003
178 0.0
182 0.002051
170 0.0
120 0.0
61 0.0
39 0.000998
44 0.0
62 0.0
69 0.000998
74 0.0
82 0.00099
90 0.000993
98 0.0
99 0.001004
103 0.000998
117 0.0
130 0.0
142 0.002036
150 0.002027
155 0.0
158 0.0
161 0.0
162 0.00097
164 0.000984
169 0.000962
172 0.00103
175 0.000998
177 0.0
179 0.000999
184 0.002046
187 0.002029
189 0.0
168 0.0
110 0.0
59 0.001974
46 0.002021
61 0.0
81 0.000988
89 0.0
98 0.0
107 0.0
112 0.001009
110 0.000999
110 0.0
117 0.000988
129 0.0
140 0.002003
148 0.00203
155 0.001002
159 0.001995
161 0.000989
164 0.000975
166 0.001007
167 0.00104
170 0.002034
174 0.001035
176 0.0
180 0.002021
183 0.001997
183 0.002001
145 0.0
77 0.002004
56 0.001988
69 0.002019
87 0.000986
103 0.000986
117 0.002922
128 0.001985
132 0.000997
127 0.001
122 0.002032
124 0.003029
133 0.002994
149 0.001994
155 0.001995
161 0.001059
164 0.000962
165 0.002042
168 0.001995
170 0.002025
171 0.000958
172 0.001008
176 0.001019
179 0.003026
180 0.002964
154 0.003029
101 0.002985
49 0.001001
47 0.000982
63 0.000999
81 0.002985
92 0.002028
106 0.001958
116 0.002032
120 0.002028
118 0.003046
116 0.002016
122 0.002993
133 0.002995
144 0.002034
150 0.001031
155 0.001008
156 0.018949
157 0.001048
163 0.001048
165 0.001988
167 0.001974
168 0.002994
172 0.002002
176 0.002996
179 0.002992
172 0.00107
131 0.000957
70 0.002033
39 0.003989
39 0.003989
59 0.00198
73 0.00201
78 0.001953
87 0.003999
102 0.001992
107 0.003032
106 0.003027
110 0.002039
120 0.002002
131 0.00199
141 0.00299
147 0.004028
154 0.001981
156 0.002025
160 0.001952
161 0.003993
164 0.00199
166 0.003974
169 0.003989
172 0.001991
173 0.001976
176 0.001984
179 0.003989
182 0.004028
180 0.003993
134 0.002025
72 0.002992
41 0.002992
51 0.002034
70 0.003024
81 0.003959
89 0.003982
101 0.002029
108 0.003007
108 0.003053
106 0.005018
107 0.005019
117 0.00299
128 0.003013
136 0.003011
144 0.003058
146 0.003031
150 0.003989
152 0.003989
154 0.003045
157 0.00299
161 0.003016
162 0.005018
167 0.004984
173 0.002987
175 0.003016
177 0.001962
149 0.002997
96 0.002982
56 0.004994
50 0.005033
70 0.003976
90 0.004036
106 0.004068
118 0.005035
126 0.005028
127 0.002981
121 0.002988
117 0.002031
129 0.003033
139 0.00405
148 0.004967
152 0.004983
156 0.003023
160 0.002992
162 0.003988
163 0.005933
164 0.005927
167 0.003943
170 0.003974
175 0.003992
170 0.003955
133 0.003983
76 0.004987
46 0.00502
47 0.004987
68 0.00508
84 0.00404
96 0.006082
106 0.00604
115 0.00402
115 0.003979
109 0.003988
113 0.003979
123 0.004017
134 0.006004
141 0.006026
148 0.004026
151 0.003982
153 0.003978
156 0.005993
157 0.006037
158 0.005027
159 0.005004
164 0.004985
166 0.005025
161 0.004979
123 0.005029
64 0.005984
31 0.005975
33 0.004054
49 0.004037
63 0.005037
69 0.007042
76 0.007016
89 0.004988
94 0.007016
95 0.005032
98 0.004989
108 0.005023
121 0.005959
133 0.005984
142 0.005001
147 0.005036
148 0.005038
150 0.007046
150 0.007014
152 0.004995
155 0.006981
159 0.005015
163 0.005036
168 0.004984
169 0.005984
144 0.005983
64 0.005033
33 0.004986
33 0.006032
45 0.007015
59 0.006981
67 0.005984
77 0.006981
88 0.00504
92 0.005029
92 0.004983
94 0.006942
102 0.007979
120 0.005936
131 0.006023
139 0.005985
144 0.007028
148 0.007033
152 0.00599
156 0.007032
158 0.006015
161 0.006016
163 0.005013
165 0.007016
169 0.007978
173 0.006028
175 0.005967
175 0.00603
152 0.007979
74 0.00798
40 0.005979
44 0.006982
67 0.00598
80 0.00599
89 0.005954
99 0.007027
108 0.00702
109 0.002984
99 0.007034
100 0.007016
114 0.007992
127 0.007983
137 0.006019
145 0.007982
149 0.006007
150 0.005986
152 0.005988
156 0.007943
158 0.007979
162 0.007015
166 0.006951
170 0.006983
167 0.007012
137 0.007979
66 0.007942
43 0.007986
59 0.007978
75 0.005984
89 0.006981
107 0.006999
116 0.007015
118 0.006981
113 0.00695
110 0.00696
118 0.006993
131 0.007926
142 0.007994
151 0.007944
156 0.007978
158 0.006019
160 0.007014
163 0.007016
165 0.007978
166 0.006949
170 0.00698
174 0.006985
176 0.006994
168 0.007062
80 0.006936
41 0.006981
37 0.006981
53 0.006977
67 0.006975
73 0.006972
79 0.007027
91 0.007027
100 0.00698
99 0.005974
98 0.006978
104 0.006972
124 0.005971
135 0.006981
144 0.006981
152 0.007008
154 0.006977
158 0.006958
160 0.006982
161 0.006982
163 0.006992
167 0.00699
169 0.006981
171 0.007016
178 0.005984
182 0.006031
176 0.006015
110 0.005952
52 0.006014
35 0.005983
41 0.007009
55 0.006981
69 0.006981
72 0.006993
80 0.006962
90 0.006968
96 0.005999
96 0.006026
101 0.005984
116 0.005973
129 0.005981
141 0.006046
148 0.005984
152 0.006023
156 0.005984
159 0.005978
161 0.006012
162 0.005985
168 0.005989
170 0.006004
172 0.005984
173 0.00603
178 0.005984
181 0.006008
183 0.005974
182 0.005984
150 0.005984
68 0.005941
43 0.005981
47 0.004984
76 0.004987
87 0.004952
96 0.004986
108 0.005017
117 0.005984
112 0.006028
106 0.006014
108 0.006014
120 0.006021
137 0.005981
147 0.005943
152 0.004987
158 0.004986
160 0.004987
161 0.00502
164 0.003982
166 0.004982
168 0.005036
172 0.005049
177 0.004039
180 0.005017
173 0.005988
135 0.004994
79 0.005024
55 0.005019
68 0.004988
89 0.004987
106 0.004987
125 0.004987
134 0.004955
134 0.004987
126 0.004986
120 0.005018
129 0.003992
140 0.00402
149 0.004955
160 0.004987
163 0.004987
165 0.004987
167 0.005019
169 0.005031
171 0.005036
171 0.004987
174 0.005035
176 0.004987
182 0.003988
182 0.003922
123 0.00399
63 0.00399
39 0.003996
44 0.003992
59 0.004039
78 0.004025
84 0.00399
93 0.002992
102 0.004022
104 0.004006
101 0.003938
101 0.003939
119 0.003992
132 0.003998
142 0.003965
147 0.003995
150 0.00399
153 0.003962
157 0.004038
158 0.003989
161 0.003992
164 0.003987
166 0.002973
169 0.002953
173 0.00296
179 0.002992
175 0.002991
143 0.00399
75 0.00399
37 0.003996
34 0.003991
46 0.00399
58 0.003958
61 0.003989
65 0.002968
78 0.002941
85 0.003002
86 0.002992
89 0.003026
99 0.002991
112 0.002992
127 0.003992
138 0.003991
144 0.003992
148 0.003989
150 0.003993
152 0.002992
156 0.002993
160 0.003018
164 0.002992
166 0.002992
169 0.002992
173 0.003999
177 0.002992
177 0.002992
158 0.003991
101 0.002027
51 0.002992
40 0.002996
55 0.00292
73 0.003028
83 0.003027
94 0.002994
103 0.003025
104 0.002993
98 0.002992
96 0.002992
106 0.002992
122 0.001995
134 0.001998
144 0.002003
151 0.001994
155 0.002013
158 0.003025
160 0.001972
163 0.002992
165 0.002992
169 0.002954
176 0.001971
177 0.001995
163 0.001995
112 0.001995
62 0.002046
48 0.001985
66 0.001996
85 0.001995
96 0.001995
109 0.001995
118 0.002032
118 0.001995
111 0.000998
111 0.001996
123 0.001997
139 0.001995
152 0.001995
159 0.001996
165 0.001995
166 0.001999
169 0.001995
172 0.001996
174 0.001995
175 0.000998
179 0.000997
182 0.000997
185 0.000997
183 0.000998
151 0.001996
57 0.001995
44 0.001994
52 0.001996
72 0.001956
78 0.001995
83 0.000984
93 0.000996
102 0.000995
106 0.000999
106 0.001995
108 0.002029
120 0.001969
144 0.0
155 0.000999
162 0.000998
167 0.002005
171 0.000996
174 0.001021
176 0.000997
178 0.000998
181 0.000998
181 0.000998
182 0.000998
183 0.001996
189 0.000997
192 0.001995
186 0.001992
118 0.001995
64 0.0
49 0.0
55 0.000997
66 0.000998
77 0.000992
81 0.000997
89 0.000997
100 0.000964
105 0.000998
106 0.000998
111 0.0
129 0.0
145 0.0
156 0.0
163 0.0
168 0.0
170 0.0
171 0.000998
174 0.000999
178 0.000997
183 0.000998
184 0.000997
186 0.000997
188 0.0
192 0.0
194 0.0
193 0.0
166 0.0
85 0.0
56 0.0
58 0.0
74 0.0
98 0.0
112 0.001006
119 0.0
128 0.0
125 0.0
118 0.0
120 0.0
130 0.0
142 0.0
155 0.0
162 0.0
165 0.0
169 0.0
172 0.0
173 0.0
175 0.0
177 0.000998
183 0.002041
188 0.0
187 0.0
165 0.0
112 0.000999
69 0.00105
65 0.0
88 0.000997
112 0.000997
120 0.000998
136 0.0
141 0.002048
138 0.002025
129 0.0
132 0.0
143 0.0
155 0.002026
165 0.00203
172 0.0
175 0.002028
177 0.0
177 0.0
179 0.000998
180 0.000998
181 0.001974
184 0.0
186 0.000998
191 0.001
184 0.002024
137 0.002026
60 0.0
46 0.002036
64 0.0
79 0.0
88 0.000992
97 0.001995
108 0.002024
113 0.0
112 0.000946
109 0.000966
112 0.000997
124 0.000998
144 0.002038
153 0.000999
156 0.0
159 0.0
162 0.0
163 0.002024
165 0.000987
168 0.0
170 0.0
171 0.0
173 0.002008
175 0.001978
182 0.002015
183 0.002026
154 0.0
90 0.0
41 0.0
31 0.001032
41 0.000993
61 0.002026
69 0.0
73 0.000965
83 0.001995
92 0.001996
95 0.0
94 0.002024
100 0.003021
118 0.0
132 0.0
141 0.000998
148 0.002993
152 0.002993
155 0.000957
158 0.002002
161 0.001998
163 0.001995
168 0.001995
171 0.001996
174 0.001965
177 0.002003
179 0.001046
183 0.001064
187 0.002016
187 0.002992
151 0.000992
85 0.00102
42 0.001996
37 0.002993
58 0.001984
71 0.002992
77 0.002995
90 0.0
100 0.002003
103 0.001998
102 0.001995
102 0.001995
113 0.00103
128 0.001021
142 0.002039
150 0.002992
159 0.001962
162 0.002995
163 0.003055
162 0.002038
164 0.001016
169 0.000999
173 0.002992
176 0.002994
183 0.001988
186 0.002012
187 0.002005
190 0.003997
187 0.001985
157 0.002992
96 0.002992
50 0.001036
55 0.00201
71 0.00104
90 0.003004
107 0.00399
126 0.002011
133 0.001988
131 0.001995
121 0.003955
119 0.002024
129 0.00399
141 0.003989
153 0.002026
157 0.002948
160 0.002016
163 0.002984
165 0.003993
167 0.002992
168 0.003018
170 0.001998
176 0.003989
180 0.001958
183 0.00399
167 0.004987
113 0.003989
50 0.001995
42 0.001994
53 0.002996
69 0.004987
79 0.003989
96 0.002985
110 0.002978
114 0.00302
105 0.001998
105 0.001996
113 0.004022
125 0.003917
140 0.002028
147 0.002002
150 0.003012
151 0.004986
152 0.004988
154 0.002988
156 0.002997
161 0.002996
163 0.003068
168 0.002992
171 0.004005
169 0.004039
111 0.003978
50 0.00303
29 0.003003
32 0.004987
45 0.004986
60 0.002991
65 0.003004
82 0.002986
88 0.002995
88 0.002983
87 0.005038
90 0.004036
104 0.00395
119 0.003994
131 0.00302
138 0.004986
144 0.005022
150 0.003019
152 0.003032
157 0.002967
159 0.003
162 0.002989
164 0.004987
169 0.005984
175 0.004014
177 0.00399
175 0.003988
139 0.005983
71 0.005984
28 0.004028
32 0.004008
53 0.004065
60 0.003994
66 0.002984
74 0.004987
82 0.004987
87 0.00398
86 0.003985
87 0.003968
96 0.005984
111 0.005985
128 0.003971
139 0.003988
150 0.004003
155 0.003991
159 0.004019
163 0.005984
168 0.005995
171 0.003971
174 0.005017
176 0.003961
179 0.003949
181 0.006
183 0.005989
186 0.003992
190 0.006
192 0.003996
163 0.003986
97 0.004952
51 0.006981
45 0.005984
60 0.005019
75 0.005035
83 0.005033
90 0.006983
99 0.005983
107 0.004009
105 0.006015
107 0.003985
117 0.004959
132 0.004991
146 0.007017
157 0.006981
162 0.004943
165 0.004985
167 0.004971
167 0.006981
169 0.007023
172 0.003988
176 0.006082
180 0.00499
182 0.004951
184 0.00499
188 0.007012
190 0.006982
194 0.005019
185 0.005009
139 0.005018
81 0.006981
58 0.006981
74 0.007046
95 0.006943
116 0.005007
131 0.004987
139 0.004986
137 0.006982
128 0.006982
124 0.005989
134 0.005948
147 0.005971
160 0.006982
169 0.006989
176 0.006984
176 0.00699
178 0.006981
180 0.006036
182 0.005038
183 0.006983
185 0.007956
186 0.005952
188 0.005991
191 0.005974
193 0.007992
189 0.00798
115 0.007979
60 0.007979
47 0.005995
62 0.006
81 0.005992
102 0.007978
109 0.007978
124 0.005967
128 0.005979
124 0.005987
119 0.005984
123 0.007938
138 0.005979
149 0.007979
159 0.007979
162 0.005973
164 0.005997
168 0.00698
170 0.006992
172 0.007978
174 0.006982
176 0.005986
180 0.006978
184 0.008012
188 0.006939
190 0.006981
192 0.006982
193 0.006972
171 0.00698
110 0.006933
55 0.007034
41 0.007977
52 0.006984
72 0.006973
90 0.006031
106 0.007978
124 0.006997
128 0.006981
124 0.006981
122 0.006964
126 0.006981
138 0.006974
149 0.007018
158 0.006931
165 0.006975
169 0.006976
172 0.006967
175 0.008007
178 0.006953
179 0.006989
181 0.006986
185 0.006947
187 0.006936
189 0.006979
192 0.007027
194 0.006982
196 0.006986
195 0.006979
162 0.006025
100 0.005999
47 0.005992
57 0.006983
80 0.007033
101 0.00694
116 0.006983
127 0.006985
132 0.007008
130 0.006988
123 0.00698
122 0.006973
131 0.006018
142 0.005984
156 0.005999
164 0.005984
169 0.006019
172 0.006015
172 0.006009
174 0.005982
174 0.006982
173 0.00603
175 0.006994
176 0.006017
178 0.006021
184 0.00594
181 0.005997
149 0.005984
93 0.005983
60 0.005984
66 0.005981
88 0.00598
110 0.005973
127 0.006029
139 0.006016
143 0.004961
138 0.005986
130 0.00597
134 0.005993
144 0.005982
155 0.005977
162 0.005984
167 0.005991
169 0.005935
171 0.005006
172 0.005033
175 0.005019
176 0.005026
177 0.005018
180 0.004955
183 0.006
185 0.006012
173 0.005998
128 0.006014
58 0.005936
45 0.005984
59 0.005983
80 0.005985
98 0.005033
116 0.004993
129 0.004992
135 0.004991
130 0.005001
128 0.005021
135 0.004987
144 0.00502
155 0.004915
163 0.005033
169 0.005028
170 0.004987
173 0.004958
177 0.004981
178 0.005036
180 0.004987
181 0.005003
182 0.004986
185 0.004985
189 0.005023
187 0.00502
156 0.004058
94 0.00497
48 0.003991
41 0.003992
63 0.00404
83 0.004037
103 0.004994
112 0.004988
119 0.005041
121 0.005015
118 0.00502
119 0.005051
128 0.005022
137 0.004029
146 0.00399
152 0.00399
158 0.004025
159 0.004012
164 0.003991
167 0.003992
170 0.00399
171 0.00399
174 0.004021
178 0.003956
178 0.005043
181 0.004038
184 0.004004
185 0.004
172 0.003989
99 0.004022
41 0.00396
45 0.003958
67 0.003991
89 0.003951
103 0.003989
114 0.004019
123 0.002993
123 0.002969
119 0.002992
118 0.003992
122 0.003023
135 0.004059
145 0.003957
154 0.003945
159 0.003975
163 0.003989
166 0.003991
167 0.00399
168 0.004031
170 0.002984
173 0.002992
174 0.002992
176 0.002992
182 0.002992
186 0.002975
178 0.003947
137 0.002992
82 0.002992
55 0.004033
60 0.003998
90 0.002999
108 0.002994
119 0.002934
131 0.003003
135 0.002997
127 0.002995
122 0.002997
127 0.003973
137 0.002992
146 0.002992
153 0.002992
158 0.001991
164 0.002979
167 0.001997
168 0.002992
168 0.002996
170 0.002992
174 0.003003
176 0.002993
176 0.002992
164 0.002992
121 0.003023
71 0.003018
50 0.002041
66 0.002999
87 0.001994
105 0.001911
119 0.002023
131 0.002043
132 0.003011
124 0.00296
120 0.002972
127 0.002992
135 0.001996
144 0.001996
150 0.002015
157 0.001994
161 0.001995
164 0.002001
167 0.001994
170 0.001995
173 0.002028
173 0.002006
173 0.001956
176 0.001957
176 0.001996
169 0.001999
133 0.001995
74 0.001997
35 0.001995
41 0.001993
62 0.001993
80 0.002007
96 0.002002
104 0.001999
109 0.001999
106 0.002029
103 0.000998
107 0.000997
115 0.000998
123 0.000997
134 0.000964
138 0.001995
142 0.001995
144 0.001995
148 0.001981
150 0.001995
152 0.001955
155 0.001995
157 0.001995
160 0.001122
164 0.000998
167 0.002037
165 0.001994
132 0.000998
70 0.000997
26 0.001995
30 0.001006
49 0.001002
66 0.000957
78 0.001997
89 0.001005
98 0.000997
100 0.000997
98 0.000997
103 0.000998
110 0.000998
119 0.001002
127 0.001996
137 0.000985
141 0.002007
144 0.000998
147 0.0
150 0.0
152 0.0
156 0.000998
160 0.001006
164 0.000997
166 0.001002
169 0.000998
172 0.000997
172 0.001002
149 0.000998
91 0.000989
32 0.0
29 0.0
47 0.0
68 0.0
84 0.0
98 0.0
107 0.0
108 0.0
103 0.00098
105 0.000843
111 0.0
121 0.000991
132 0.0
137 0.0
141 0.0
145 0.0
149 0.0
152 0.0
154 0.0
156 0.0
161 0.0
163 0.0
166 0.0
170 0.0
172 0.000952
170 0.000998
150 0.000998
98 0.000997
46 0.0
45 0.000998
67 0.001023
86 0.000999
106 0.001006
115 0.001989
116 0.0
109 0.0
102 0.0
103 0.002025
110 0.002028
122 0.0
130 0.0
136 0.0
140 0.002032
143 0.002027
146 0.001992
146 0.000982
149 0.0
153 0.0
157 0.0
161 0.002028
165 0.001994
156 0.0
118 0.0
74 0.0
55 0.001994
62 0.002053
95 0.001995
112 0.002039
127 0.001004
129 0.0
123 0.000956
114 0.000993
111 0.001031
117 0.00099
131 0.0
140 0.0
145 0.001981
150 0.002002
153 0.002014
155 0.001993
156 0.0
159 0.0
162 0.0
165 0.002027
166 0.00203
145 0.000961
92 0.0
46 0.0
35 0.001996
46 0.001995
75 0.001023
88 0.001996
103 0.0
110 0.0
107 0.000996
101 0.001995
100 0.001995
111 0.0
122 0.0
131 0.0
137 0.0
142 0.002026
147 0.000968
148 0.002028
148 0.002042
152 0.000951
154 0.0
157 0.0
162 0.002001
163 0.001988
121 0.002001
61 0.001976
28 0.002028
26 0.002032
51 0.000948
62 0.002964
70 0.002992
84 0.002023
92 0.002006
95 0.002001
93 0.002993
96 0.002992
109 0.00101
121 0.001974
131 0.001029
138 0.00202
144 0.001995
146 0.003
149 0.002993
152 0.001994
155 0.001996
158 0.001995
161 0.002992
164 0.003023
170 0.001991
174 0.004011
166 0.001988
79 0.000969
35 0.002007
29 0.002922
43 0.002963
64 0.002005
74 0.002002
83 0.002037
93 0.003007
100 0.002993
101 0.001984
100 0.00199
106 0.002973
125 0.0
136 0.001999
144 0.002993
148 0.00399
153 0.002005
156 0.001994
157 0.001993
158 0.002992
160 0.002987
164 0.002038
167 0.001991
169 0.001994
175 0.0
179 0.001995
182 0.003991
177 0.00399
121 0.001975
67 0.001989
45 0.002009
52 0.003987
73 0.003906
95 0.001029
106 0.001989
118 0.001998
119 0.001982
113 0.00201
108 0.002026
113 0.004026
125 0.004023
140 0.001993
147 0.001998
153 0.002016
156 0.003989
158 0.00399
161 0.001984
163 0.000998
167 0.001981
171 0.002989
173 0.002021
176 0.004019
168 0.004021
107 0.001991
60 0.002028
47 0.002002
58 0.004987
77 0.004024
98 0.001965
110 0.003016
123 0.002027
122 0.002994
115 0.003008
116 0.004019
124 0.004021
138 0.002045
147 0.002008
154 0.002019
156 0.003975
158 0.004981
163 0.002035
165 0.003006
168 0.002028
169 0.002014
173 0.003006
177 0.004024
179 0.004963
170 0.002978
124 0.002997
61 0.00299
34 0.005985
37 0.004988
60 0.003979
72 0.003977
86 0.002947
99 0.003
106 0.002999
106 0.004945
105 0.00502
113 0.003001
124 0.00299
136 0.002991
145 0.004986
152 0.005988
157 0.004011
160 0.004009
165 0.002924
167 0.002993
171 0.003947
174 0.00504
176 0.005986
180 0.003023
184 0.00399
187 0.004
187 0.005984
163 0.006015
80 0.004036
41 0.005985
53 0.003958
73 0.003984
85 0.003937
92 0.002993
103 0.006019
113 0.005984
114 0.003035
113 0.003021
116 0.004004
124 0.005984
135 0.005984
150 0.00602
155 0.006032
162 0.003962
164 0.004981
167 0.005018
170 0.006042
173 0.00602
175 0.003981
177 0.005019
183 0.005011
187 0.006982
188 0.006984
160 0.007
104 0.006972
58 0.004987
61 0.004017
80 0.003997
100 0.006026
115 0.006981
132 0.004955
138 0.004984
134 0.004039
126 0.007016
126 0.007015
142 0.007008
154 0.007008
163 0.005029
168 0.004016
172 0.004994
173 0.006984
174 0.007015
175 0.003987
176 0.005018
179 0.005001
181 0.006981
183 0.006981
144 0.006982
89 0.006987
54 0.004037
64 0.005952
85 0.004988
102 0.007031
113 0.006977
131 0.006027
136 0.005967
133 0.005982
129 0.007929
132 0.007978
146 0.006926
155 0.007014
165 0.006982
169 0.005945
172 0.005952
175 0.006985
178 0.00798
181 0.006003
182 0.005976
185 0.00596
191 0.007979
197 0.007978
195 0.00798
135 0.007982
77 0.005954
56 0.003958
63 0.005924
81 0.005015
97 0.007978
101 0.007973
116 0.004987
127 0.005983
132 0.005965
132 0.007937
139 0.00596
153 0.007968
162 0.007963
168 0.006982
175 0.006968
177 0.006981
179 0.007029
182 0.007023
184 0.006018
186 0.005983
188 0.005962
192 0.007983
196 0.006013
201 0.007983
201 0.008004
180 0.006945
125 0.006948
61 0.006964
55 0.007013
73 0.006982
95 0.006979
101 0.006001
110 0.005998
126 0.00695
128 0.006017
124 0.008008
126 0.006956
138 0.006936
148 0.006992
153 0.006975
161 0.006981
165 0.006982
169 0.006978
171 0.00695
175 0.006948
178 0.006981
178 0.006963
182 0.007006
187 0.006981
189 0.005983
180 0.005984
140 0.005981
88 0.006011
66 0.006024
75 0.006952
96 0.006964
119 0.006032
140 0.005975
145 0.006017
142 0.007
135 0.006975
134 0.005946
143 0.005984
153 0.005989
161 0.005983
166 0.006024
171 0.005982
172 0.005973
173 0.005986
173 0.005974
174 0.007002
178 0.006995
183 0.005969
183 0.006028
173 0.005986
129 0.005995
73 0.005981
51 0.006035
60 0.005977
89 0.005958
105 0.005982
124 0.005946
133 0.005986
136 0.005937
133 0.004977
131 0.004985
140 0.004976
148 0.004987
157 0.005957
165 0.006029
168 0.006031
173 0.005954
177 0.005984
183 0.005941
185 0.005977
185 0.005
185 0.004991
183 0.00503
185 0.004952
187 0.005013
185 0.005
162 0.006011
103 0.004988
53 0.004989
58 0.005979
91 0.005977
104 0.004985
110 0.004943
120 0.004986
128 0.005018
131 0.004987
131 0.004953
134 0.004986
142 0.004987
150 0.005018
160 0.004981
167 0.004986
173 0.004001
177 0.003994
180 0.004998
184 0.004991
185 0.004952
189 0.005
192 0.004937
193 0.00503
192 0.005017
194 0.004987
194 0.00502
188 0.003989
133 0.003999
86 0.003997
74 0.003965
89 0.003958
111 0.00395
125 0.003941
133 0.005021
141 0.004988
146 0.005025
144 0.004987
140 0.003989
143 0.00399
155 0.003989
161 0.003956
167 0.003961
172 0.003961
173 0.003964
174 0.003955
177 0.00498
177 0.003988
176 0.003989
177 0.003989
179 0.004021
182 0.003952
176 0.003993
137 0.003931
99 0.003943
87 0.003998
99 0.00402
116 0.003959
133 0.003957
143 0.003989
151 0.003033
152 0.002994
146 0.002992
140 0.003956
145 0.003932
155 0.003965
160 0.003956
165 0.003996
165 0.00399
166 0.004014
169 0.003948
169 0.003989
171 0.003991
173 0.002991
176 0.00295
177 0.002995
169 0.002992
120 0.002992
69 0.003001
49 0.002984
58 0.002985
78 0.002961
93 0.003948
102 0.00399
110 0.002971
115 0.003001
115 0.002991
112 0.003212
117 0.002992
130 0.002994
139 0.002992
147 0.002984
152 0.002992
158 0.00298
162 0.002989
166 0.003025
169 0.002986
170 0.001995
171 0.003029
174 0.003025
177 0.003015
174 0.002981
157 0.003008
102 0.003001
55 0.002993
42 0.002021
61 0.002
80 0.002992
90 0.001995
97 0.001995
108 0.002025
113 0.00296
112 0.001967
115 0.001954
121 0.002008
130 0.001996
139 0.003054
147 0.003
152 0.003009
155 0.002993
156 0.001971
158 0.001996
161 0.001995
165 0.001998
167 0.002003
169 0.002001
172 0.002039
174 0.001998
176 0.001994
174 0.001991
163 0.002005
96 0.000997
52 0.001994
45 0.001965
60 0.001995
89 0.001962
97 0.002012
105 0.001976
115 0.001997
115 0.001979
111 0.001992
112 0.00199
118 0.001983
131 0.000997
138 0.000998
145 0.000997
148 0.000998
152 0.001021
154 0.002021
156 0.001017
159 0.001986
160 0.002003
162 0.001998
165 0.001994
166 0.002024
166 0.001998
152 0.001996
107 0.000997
62 0.001038
72 0.000999
91 0.001049
105 0.001049
121 0.001039
129 0.001968
129 0.001987
122 0.00199
115 0.001982
121 0.001087
130 0.002028
139 0.001031
149 0.000998
152 0.001019
154 0.001976
156 0.000998
156 0.001029
156 0.001122
158 0.000986
161 0.001021
161 0.000992
157 0.000997
124 0.0
72 0.0
44 0.0
60 0.0
80 0.0
90 0.0
103 0.0
111 0.00103
111 0.000971
107 0.001
104 0.001039
111 0.000996
119 0.000998
128 0.0
140 0.0
142 0.0
144 0.0
147 0.0
152 0.0
157 0.0
158 0.0
157 0.0
159 0.0
163 0.001004
165 0.0
155 0.0
63 0.0
32 0.0
35 0.0
51 0.0
67 0.0
77 0.0
86 0.0
95 0.0
100 0.0
99 0.0
101 0.002036
108 0.002031
125 0.000998
133 0.001992
140 0.001017
145 0.001001
147 0.0
149 0.002037
152 0.002024
156 0.0
158 0.0
160 0.0
161 0.002031
163 0.002026
167 0.001999
164 0.001998
109 0.000962
50 0.001007
27 0.000995
35 0.001967
55 0.001948
75 0.0
84 0.0
96 0.0
102 0.002004
102 0.001995
100 0.001995
99 0.002039
108 0.0
116 0.0
124 0.0
133 0.002036
139 0.001986
145 0.0
148 0.0
151 0.0
152 0.002026
156 0.002026
156 0.002027
156 0.002018
159 0.0
163 0.0
165 0.0
160 0.001991
122 0.002006
49 0.0
33 0.0
44 0.0
65 0.002031
81 0.002029
103 0.001923
115 0.002025
116 0.0
109 0.0
103 0.0
103 0.002016
115 0.001996
130 0.0
137 0.0
142 0.0
147 0.00203
158 0.0
161 0.00203
165 0.00203
166 0.001998
170 0.0
173 0.0
174 0.001005
165 0.002037
122 0.00205
55 0.0
42 0.0
54 0.0
83 0.0
97 0.0
109 0.001995
118 0.002029
123 0.000968
122 0.0
126 0.000968
135 0.002026
144 0.003052
157 0.0
163 0.0
167 0.0
172 0.0
174 0.0
176 0.00202
177 0.001991
178 0.0
178 0.001994
180 0.0
181 0.001985
181 0.002954
167 0.001029
116 0.001992
62 0.001994
50 0.0
70 0.0
88 0.002999
98 0.002991
110 0.000948
118 0.0
120 0.0
121 0.003022
118 0.003055
126 0.001972
136 0.001998
144 0.001988
156 0.00299
159 0.003001
163 0.003029
166 0.003021
167 0.001972
169 0.002986
172 0.002031
173 0.004018
174 0.004058
176 0.002991
177 0.002003
179 0.001984
180 0.001988
167 0.003016
114 0.002982
61 0.002961
47 0.002978
65 0.00206
85 0.002032
98 0.003981
105 0.003956
117 0.002989
120 0.002998
119 0.002001
119 0.002983
125 0.002003
136 0.003965
143 0.00305
152 0.002991
157 0.002004
160 0.002993
162 0.002005
165 0.004028
167 0.004048
167 0.001993
168 0.002027
171 0.003032
172 0.001997
172 0.002033
172 0.004021
174 0.00399
175 0.00105
170 0.002997
146 0.002994
92 0.00402
57 0.003994
62 0.001997
83 0.00199
107 0.001985
115 0.002026
123 0.003005
125 0.003956
123 0.004025
117 0.00204
120 0.002024
127 0.000956
136 0.004984
143 0.004036
150 0.001963
153 0.003954
156 0.002992
158 0.002054
159 0.003008
161 0.004039
163 0.005046
164 0.002979
166 0.001996
169 0.00299
169 0.004024
166 0.003978
136 0.002028
81 0.004025
76 0.002949
92 0.003022
110 0.002989
124 0.005041
137 0.005022
143 0.003025
140 0.003036
131 0.002954
128 0.003973
132 0.004017
144 0.002989
153 0.004987
158 0.002997
161 0.003002
164 0.002992
166 0.005986
167 0.006016
169 0.001992
170 0.002012
172 0.002
172 0.005029
173 0.005013
160 0.002034
100 0.004987
62 0.002031
68 0.002017
89 0.002967
105 0.005984
116 0.005983
129 0.00299
132 0.00402
129 0.003987
124 0.002983
124 0.005988
130 0.006011
144 0.006033
150 0.005997
157 0.003955
160 0.002941
161 0.003941
163 0.00591
164 0.005985
166 0.003937
167 0.003961
167 0.004956
170 0.006058
172 0.005985
171 0.005985
149 0.005985
74 0.00406
43 0.001976
46 0.003982
66 0.006983
85 0.007012
98 0.003972
107 0.00396
114 0.003989
115 0.005986
113 0.006002
116 0.005968
125 0.006017
138 0.004981
146 0.004987
152 0.004966
155 0.006978
158 0.007008
162 0.004019
164 0.003998
165 0.003982
166 0.007054
167 0.006981
170 0.006029
171 0.006033
174 0.003992
175 0.004992
172 0.004995
151 0.007013
95 0.00702
48 0.004989
54 0.004997
76 0.004017
94 0.007024
105 0.006981
119 0.007045
123 0.00798
123 0.005018
123 0.004993
129 0.00499
135 0.006984
144 0.007025
154 0.004982
158 0.004971
161 0.005013
164 0.007024
166 0.004987
167 0.007977
167 0.00792
169 0.005035
169 0.004996
169 0.004991
171 0.007947
173 0.007998
172 0.00598
168 0.004989
150 0.005009
103 0.007009
70 0.004986
84 0.007979
103 0.007948
116 0.007946
131 0.005952
137 0.005977
137 0.005929
128 0.007966
124 0.007985
130 0.006006
138 0.004987
147 0.005928
156 0.005958
159 0.005969
160 0.006989
161 0.007975
163 0.005937
164 0.005989
165 0.005983
166 0.007001
168 0.006997
168 0.005953
165 0.005953
145 0.005953
71 0.005948
61 0.005942
76 0.007979
102 0.007978
113 0.006967
124 0.006026
132 0.00695
132 0.006986
128 0.006993
125 0.005985
128 0.006001
135 0.005988
148 0.005975
154 0.005921
157 0.006959
158 0.007965
160 0.005976
162 0.00595
162 0.006949
163 0.007947
165 0.006969
168 0.006945
171 0.006948
171 0.006951
153 0.006952
84 0.005984
51 0.005982
52 0.006979
69 0.005948
90 0.006023
99 0.005987
108 0.00698
114 0.006983
116 0.006015
115 0.006027
116 0.00598
127 0.006979
137 0.006984
144 0.006984
148 0.006999
153 0.006931
155 0.006962
157 0.006986
160 0.007015
161 0.007028
164 0.005991
164 0.006045
166 0.005981
169 0.005986
171 0.006014
172 0.005959
166 0.006949
113 0.006983
62 0.006969
45 0.00697
55 0.006973
77 0.00697
92 0.005964
102 0.005985
109 0.005979
115 0.005961
115 0.00599
116 0.006018
122 0.005943
129 0.004963
140 0.004976
147 0.005976
152 0.006025
154 0.005971
153 0.006014
151 0.005993
152 0.005986
158 0.006018
165 0.005989
167 0.005948
170 0.006018
170 0.005982
168 0.005984
169 0.004969
170 0.004992
167 0.004947
142 0.003053
74 0.004987
59 0.005051
81 0.005956
99 0.006
109 0.005961
117 0.006004
124 0.005982
126 0.004981
119 0.004919
115 0.004979
119 0.004974
124 0.004992
129 0.00493
138 0.004988
143 0.004956
147 0.004987
149 0.004947
153 0.004956
156 0.00594
156 0.005044
157 0.004973
157 0.004979
155 0.005061
151 0.004994
118 0.00497
54 0.004987
44 0.004976
59 0.00399
79 0.005045
94 0.004989
107 0.004954
116 0.003954
114 0.003965
107 0.003997
101 0.003949
103 0.005012
115 0.004954
127 0.004987
137 0.005029
139 0.00494
139 0.004985
138 0.003961
135 0.003944
128 0.003985
126 0.003947
125 0.00399
129 0.004007
131 0.003958
132 0.004003
88 0.00399
28 0.003959
0 0.003959
4 0.003965
22 0.005016
39 0.004947
50 0.003958
65 0.003993
71 0.00396
72 0.003991
68 0.003991
71 0.003976
88 0.002989
101 0.002992
115 0.003953
122 0.002959
128 0.003957
130 0.003998
135 0.004011
138 0.003994
140 0.003955
143 0.004
147 0.004011
150 0.003996
159 0.003958
160 0.002988
117 0.003033
52 0.003018
18 0.002995
18 0.004059
33 0.002979
54 0.003958
64 0.003933
74 0.002914
84 0.00293
89 0.002983
86 0.002991
89 0.004027
103 0.003941
113 0.00299
125 0.002986
133 0.003039
139 0.002992
141 0.003022
144 0.003002
147 0.002989
149 0.002977
151 0.003025
157 0.003027
160 0.002989
164 0.002011
167 0.001985
172 0.001965
174 0.003004
168 0.002988
102 0.002954
44 0.002994
24 0.002987
32 0.002997
66 0.002989
80 0.002992
91 0.002006
101 0.001922
104 0.002001
101 0.00201
99 0.001993
104 0.001996
118 0.002985
129 0.003016
136 0.003017
142 0.002993
148 0.003002
151 0.001998
154 0.00196
155 0.00204
159 0.001995
163 0.00199
166 0.001998
168 0.001993
171 0.001973
175 0.001995
176 0.002
171 0.001982
93 0.002034
51 0.002027
45 0.000963
60 0.000998
88 0.002029
104 0.001994
118 0.002029
127 0.002001
126 0.001998
115 0.00195
114 0.002001
122 0.001983
142 0.001995
150 0.000997
156 0.000997
160 0.001009
162 0.002008
163 0.001002
164 0.001984
166 0.001987
168 0.001983
172 0.002007
177 0.001991
179 0.001996
171 0.001036
126 0.000998
71 0.001011
47 0.000999
60 0.000992
83 0.001995
103 0.001022
119 0.001985
131 0.001976
134 0.001995
129 0.001997
123 0.001981
132 0.000999
142 0.000998
152 0.000998
159 0.001967
163 0.000968
169 0.0
174 0.000998
177 0.001996
179 0.001992
182 0.00096
183 0.001016
184 0.001
189 0.0
191 0.0
185 0.000971
143 0.000998
65 0.001036
49 0.001021
58 0.000983
78 0.001001
95 0.000997
110 0.001018
121 0.0
126 0.0
123 0.0
121 0.0
126 0.0
133 0.0
145 0.0
152 0.0
157 0.0
161 0.001023
166 0.0
171 0.000996
177 0.0
181 0.0
181 0.0
181 0.0
182 0.0
183 0.0
187 0.0
186 0.0
165 0.0
106 0.0
53 0.0
39 0.000967
59 0.001012
86 0.0
101 0.0
110 0.0
116 0.0
118 0.0
115 0.0
114 0.0
123 0.0
132 0.0
145 0.000956
151 0.000998
161 0.003038
167 0.0
168 0.002966
170 0.003024
172 0.0
173 0.0
176 0.0
178 0.002026
180 0.001984
183 0.0
186 0.0
184 0.0
170 0.001993
80 0.000953
55 0.002029
61 0.002041
91 0.001006
108 0.000997
120 0.0
130 0.002992
135 0.00301
129 0.001963
122 0.0
124 0.0
131 0.003026
148 0.0
154 0.002027
160 0.00203
164 0.000958
165 0.0
168 0.0
170 0.002026
170 0.002037
173 0.000985
177 0.000984
179 0.001
179 0.003022
144 0.001009
91 0.003003
62 0.001964
70 0.0
91 0.0
109 0.000999
124 0.002956
135 0.003023
140 0.0
135 0.0
131 0.0
134 0.001982
147 0.0
156 0.0
162 0.002029
166 0.001991
169 0.00098
171 0.0
171 0.0
170 0.002989
170 0.00203
171 0.0
173 0.0
176 0.0
175 0.0
160 0.0
105 0.002022
55 0.002021
48 0.0
65 0.00103
86 0.0
101 0.002025
111 0.001985
121 0.0
124 0.0
121 0.0
122 0.0
129 0.0
138 0.003033
146 0.003
155 0.000972
158 0.0
161 0.0
163 0.00203
167 0.001995
169 0.0
170 0.001006
172 0.0
174 0.0
177 0.0
177 0.002959
175 0.003025
123 0.0
65 0.0
43 0.000988
53 0.002987
74 0.003041
97 0.000973
107 0.0
116 0.0
124 0.000899
122 0.002005
121 0.002992
124 0.003011
135 0.0
145 0.0
153 0.0
158 0.002992
163 0.003018
168 0.002978
169 0.002962
172 0.002028
173 0.002001
174 0.00199
174 0.003988
175 0.004053
176 0.00198
179 0.002982
178 0.001986
169 0.003019
128 0.003065
66 0.002996
59 0.0
92 0.002998
108 0.003
120 0.003
131 0.003991
136 0.00399
136 0.003982
128 0.002992
127 0.002992
133 0.002991
141 0.003989
151 0.00399
158 0.000997
162 0.00298
164 0.002996
165 0.002
167 0.002992
168 0.004007
169 0.003986
173 0.002011
174 0.002017
176 0.002992
173 0.004005
156 0.003984
95 0.003003
74 0.004042
96 0.001993
114 0.001992
128 0.001992
140 0.004008
148 0.004007
147 0.002996
139 0.002047
137 0.002026
140 0.00406
146 0.003991
156 0.000932
162 0.004956
165 0.001962
167 0.003004
168 0.00199
170 0.003989
171 0.00398
171 0.001046
174 0.003
176 0.002994
175 0.004019
171 0.004943
133 0.002034
72 0.005028
67 0.003009
84 0.00299
103 0.002022
115 0.005014
125 0.003959
134 0.003019
135 0.003011
131 0.002979
127 0.003995
129 0.00503
140 0.001992
150 0.006027
156 0.002963
160 0.002963
162 0.002972
164 0.005032
165 0.005024
165 0.002003
166 0.003023
166 0.003016
166 0.005019
169 0.004968
170 0.00199
166 0.005976
122 0.003007
71 0.002947
53 0.003013
63 0.005985
84 0.007034
103 0.00201
110 0.003894
118 0.004009
123 0.005986
124 0.005986
121 0.005985
122 0.006013
129 0.006021
142 0.002985
149 0.002983
155 0.003021
157 0.006025
158 0.006051
160 0.002992
162 0.003956
163 0.003958
165 0.006052
165 0.003985
166 0.006018
168 0.005995
170 0.003986
166 0.00296
137 0.003015
84 0.005983
53 0.006018
60 0.004021
81 0.00302
96 0.004022
106 0.007021
120 0.003991
122 0.007014
120 0.006981
116 0.00399
118 0.004011
126 0.003998
134 0.005985
140 0.005984
145 0.004024
148 0.004038
149 0.004054
151 0.006982
153 0.00404
155 0.006982
156 0.007003
156 0.004011
158 0.004005
160 0.003947
162 0.005983
161 0.006982
145 0.005082
105 0.004018
73 0.003954
69 0.005986
96 0.005019
110 0.006982
122 0.007045
134 0.005019
136 0.00498
132 0.004972
124 0.006983
122 0.006996
131 0.003967
138 0.003988
143 0.00399
147 0.007015
152 0.003983
154 0.007952
156 0.007985
157 0.004989
159 0.004985
160 0.004986
164 0.007031
167 0.007055
164 0.005022
151 0.005949
112 0.005946
77 0.007011
78 0.005018
101 0.007946
110 0.008013
125 0.004954
132 0.004985
134 0.005987
131 0.00798
123 0.007953
125 0.007977
131 0.004988
139 0.004991
145 0.005958
150 0.004979
152 0.006017
154 0.007946
157 0.007997
158 0.005987
158 0.005978
159 0.005001
163 0.007981
164 0.007983
165 0.005026
160 0.004992
133 0.004932
60 0.005001
52 0.005988
75 0.006933
92 0.00697
101 0.005961
110 0.004993
118 0.005958
119 0.007982
116 0.007993
116 0.005983
118 0.005978
125 0.004958
138 0.004983
144 0.002965
149 0.007958
150 0.00697
153 0.005986
155 0.004933
157 0.004973
158 0.006949
159 0.006989
160 0.006
163 0.005982
163 0.005987
153 0.00696
97 0.006963
55 0.007015
47 0.007012
62 0.00598
81 0.005978
93 0.005904
104 0.006965
111 0.006998
113 0.005984
111 0.005994
110 0.005983
116 0.005931
124 0.005984
133 0.005995
139 0.00701
146 0.006982
147 0.006981
149 0.005937
152 0.006972
153 0.006972
153 0.006022
155 0.005986
155 0.005973
158 0.005936
158 0.005971
158 0.005985
150 0.006017
96 0.005976
62 0.006943
59 0.006954
75 0.006981
92 0.006978
107 0.006967
116 0.006968
122 0.005932
118 0.005976
113 0.006016
115 0.006025
119 0.005991
127 0.006027
136 0.006019
139 0.006004
142 0.006016
143 0.004971
146 0.005969
148 0.006012
150 0.006015
152 0.005982
155 0.006004
158 0.005983
158 0.006019
153 0.006011
120 0.006039
84 0.005977
72 0.005975
82 0.005979
99 0.005983
117 0.005017
132 0.004988
138 0.005982
134 0.006003
127 0.00599
125 0.006014
129 0.005978
138 0.005981
142 0.006032
147 0.005984
150 0.005987
152 0.004989
155 0.00601
156 0.006039
156 0.005001
157 0.004981
162 0.003987
164 0.005017
162 0.004987
132 0.005992
84 0.005994
57 0.004933
60 0.00496
76 0.004976
93 0.004988
106 0.00502
117 0.005019
119 0.004987
113 0.004957
109 0.005028
112 0.005023
121 0.005034
129 0.004979
137 0.003986
142 0.003991
145 0.00499
149 0.005025
151 0.004988
153 0.004965
152 0.004977
153 0.00499
155 0.004979
158 0.00502
161 0.004923
157 0.004953
130 0.004976
78 0.003998
47 0.003953
51 0.003959
74 0.00399
89 0.003957
98 0.004974
105 0.005009
110 0.004988
109 0.004988
107 0.004946
111 0.004971
118 0.005002
126 0.003966
133 0.003958
142 0.003989
146 0.00399
148 0.004022
150 0.004016
153 0.003988
154 0.003992
156 0.00299
158 0.00397
161 0.003983
163 0.005041
167 0.003991
167 0.003989
132 0.00399
79 0.004004
49 0.003989
55 0.00399
73 0.003926
86 0.003959
96 0.00399
105 0.003978
112 0.00297
112 0.002995
109 0.00299
110 0.00299
120 0.00399
128 0.003989
134 0.003963
142 0.003989
145 0.00399
147 0.003989
149 0.003944
150 0.003958
151 0.002967
152 0.002994
154 0.002982
154 0.002989
155 0.002947
158 0.002992
161 0.00299
158 0.003989
143 0.004009
103 0.00402
63 0.003003
53 0.003989
69 0.003027
84 0.003955
94 0.002989
102 0.002992
110 0.002986
108 0.002991
101 0.002993
100 0.002975
105 0.003027
113 0.003026
119 0.003961
124 0.002992
129 0.001995
130 0.001994
132 0.001957
133 0.001983
138 0.001994
142 0.002022
147 0.003046
152 0.002992
153 0.003031
151 0.002986
135 0.002947
93 0.002992
58 0.002984
63 0.002956
79 0.003034
95 0.002931
115 0.002026
123 0.001997
123 0.001995
118 0.001986
113 0.002012
116 0.002012
123 0.001963
133 0.001968
141 0.00199
147 0.002001
151 0.001986
154 0.002991
158 0.00203
158 0.001995
159 0.001997
159 0.001982
162 0.001995
165 0.001992
165 0.00199
162 0.001992
141 0.002003
78 0.001973
57 0.001997
63 0.001026
90 0.001002
101 0.001014
109 0.000997
117 0.002044
119 0.001994
115 0.001998
113 0.002022
118 0.002022
124 0.001961
136 0.001993
143 0.001972
150 0.000998
153 0.000997
155 0.000997
158 0.000998
160 0.001995
162 0.001995
165 0.002031
167 0.001996
168 0.002006
172 0.001997
175 0.00098
169 0.001994
105 0.000998
62 0.000998
51 0.000997
63 0.000997
81 0.001871
95 0.001995
104 0.00203
110 0.000999
114 0.000977
110 0.0
108 0.000951
113 0.001031
124 0.000997
132 0.000999
137 0.00097
142 0.000991
144 0.000997
147 0.0
150 0.000997
152 0.000998
153 0.000968
155 0.0
155 0.0
156 0.0
161 0.0
164 0.0
160 0.0
141 0.0
94 0.000974
54 0.000998
58 0.000997
74 0.001014
89 0.001
100 0.000998
111 0.0
119 0.0
114 0.0
108 0.0
110 0.0
118 0.0
127 0.0
136 0.0
143 0.000999
147 0.0
150 0.0
154 0.0
156 0.0
159 0.0
161 0.0
166 0.0
166 0.0
163 0.0
130 0.0
99 0.0
63 0.0
69 0.0
90 0.0
100 0.000961
116 0.0
126 0.000994
127 0.0
120 0.003026
115 0.002987
123 0.0
130 0.0
137 0.0
144 0.002025
149 0.002001
152 0.000991
156 0.00101
159 0.000974
161 0.003012
164 0.0
165 0.002996
167 0.003024
171 0.0
171 0.0
162 0.0
125 0.002962
74 0.003023
51 0.0
63 0.0
80 0.0
92 0.001969
107 0.000959
112 0.00304
113 0.003033
109 0.0
110 0.0
114 0.0
124 0.003025
132 0.003026
142 0.0
149 0.0
153 0.0
158 0.0
160 0.0
163 0.002033
165 0.001988
166 0.0
167 0.0
170 0.000966
171 0.001988
173 0.002028
172 0.0
153 0.0
103 0.000967
63 0.0
74 0.0
85 0.003025
92 0.003025
104 0.0
111 0.000997
115 0.0
112 0.000954
108 0.002024
114 0.002028
128 0.0
143 0.001041
163 0.0
170 0.000942
174 0.000963
171 0.002999
167 0.002035
168 0.000967
171 0.0
172 0.0
172 0.003023
175 0.003034
177 0.0
170 0.0
150 0.0
109 0.0
66 0.0
48 0.003989
60 0.003029
80 0.000997
93 0.000997
108 0.0
117 0.002007
121 0.003041
121 0.000969
118 0.0
126 0.000928
134 0.000966
142 0.0
150 0.003023
154 0.003025
158 0.0
161 0.000964
162 0.001
163 0.003001
166 0.002989
170 0.000988
172 0.000992
158 0.000955
117 0.0
81 0.0
69 0.002992
80 0.002992
101 0.0
115 0.0
130 0.0
135 0.002988
130 0.002992
118 0.001004
116 0.001004
127 0.000998
135 0.000997
140 0.0
144 0.003961
146 0.003027
147 0.00299
147 0.0
146 0.002989
146 0.003993
154 0.002993
160 0.000998
156 0.0
83 0.0
32 0.002027
13 0.002039
23 0.003018
45 0.00399
69 0.003033
81 0.001993
91 0.00198
95 0.003959
92 0.003988
85 0.002978
89 0.00096
102 0.003958
114 0.003025
123 0.002989
130 0.001995
135 0.00399
136 0.00399
140 0.003006
140 0.003003
143 0.003013
149 0.003914
154 0.003948
150 0.000943
94 0.004037
24 0.002995
8 0.001997
13 0.003007
32 0.004023
49 0.004052
65 0.003008
77 0.003004
86 0.002994
86 0.003984
81 0.005026
84 0.004018
92 0.004017
105 0.001988
116 0.002012
127 0.003003
135 0.003989
141 0.004009
145 0.002941
147 0.002956
150 0.003987
154 0.005033
157 0.005029
155 0.00502
121 0.004993
42 0.002986
16 0.00299
19 0.003006
36 0.004025
55 0.005824
76 0.002996
92 0.003002
102 0.003005
104 0.005019
101 0.004982
103 0.003982
112 0.005021
124 0.001976
133 0.003006
141 0.002992
147 0.005004
152 0.005984
158 0.003004
161 0.002964
163 0.002047
166 0.00502
169 0.004985
177 0.005008
180 0.004988
164 0.001996
109 0.002044
57 0.002012
43 0.00502
51 0.004993
80 0.002001
100 0.001998
115 0.002996
126 0.005953
132 0.006014
125 0.006021
121 0.005993
130 0.002982
140 0.003011
150 0.003006
158 0.005026
165 0.005025
170 0.004987
173 0.003011
176 0.00303
178 0.004002
179 0.005984
181 0.002949
185 0.005952
189 0.006009
189 0.002966
169 0.002064
117 0.002992
75 0.005984
67 0.006041
89 0.002969
115 0.003076
136 0.002976
151 0.006021
161 0.002988
154 0.005984
146 0.005984
146 0.002991
155 0.002992
165 0.003007
174 0.005981
181 0.005984
187 0.003984
191 0.004
193 0.003022
193 0.006984
195 0.002988
198 0.006015
201 0.006019
199 0.002982
181 0.002919
129 0.003959
81 0.006015
70 0.005988
91 0.003993
115 0.004032
135 0.003949
150 0.006982
163 0.003992
160 0.006975
152 0.007009
151 0.003003
158 0.003023
167 0.002984
176 0.005969
182 0.007045
188 0.003971
191 0.003995
194 0.003957
195 0.003969
195 0.003989
195 0.007032
195 0.006982
199 0.003992
200 0.003991
193 0.003961
151 0.007979
91 0.007974
61 0.00501
70 0.004989
91 0.003991
123 0.004954
138 0.004987
148 0.006954
148 0.006944
141 0.003944
137 0.004954
141 0.003949
152 0.007979
158 0.00698
166 0.004947
172 0.005003
176 0.004987
180 0.004987
182 0.004997
183 0.00499
186 0.007981
185 0.007979
186 0.004019
189 0.004021
192 0.004011
191 0.007014
177 0.007978
101 0.004952
58 0.004967
60 0.005016
80 0.004973
102 0.004979
125 0.007932
137 0.007929
142 0.004982
138 0.004946
132 0.004946
129 0.007979
139 0.007978
150 0.005983
159 0.005953
170 0.005982
171 0.005993
174 0.005976
176 0.007982
176 0.00799
179 0.006017
182 0.005051
182 0.004966
183 0.007979
189 0.007983
191 0.004988
192 0.006023
167 0.005986
107 0.005984
62 0.005992
56 0.007014
73 0.006963
97 0.005999
114 0.005989
130 0.004977
141 0.007978
137 0.007975
126 0.006016
121 0.005956
133 0.00597
144 0.005987
154 0.005984
161 0.006981
165 0.006969
167 0.005964
168 0.005983
168 0.005983
170 0.006982
171 0.007003
171 0.005986
172 0.00698
178 0.006967
180 0.006971
180 0.005967
149 0.006981
95 0.00695
62 0.005994
59 0.005989
76 0.005984
108 0.006966
130 0.006986
149 0.006018
151 0.005996
133 0.005973
126 0.005965
131 0.005952
142 0.005954
152 0.006016
158 0.006017
166 0.00598
168 0.006949
170 0.00599
172 0.005984
176 0.006028
177 0.006026
178 0.006016
182 0.005978
184 0.005981
184 0.005956
174 0.005999
131 0.005984
61 0.005986
48 0.005985
60 0.004964
80 0.004974
100 0.006013
127 0.006033
137 0.006018
135 0.005974
124 0.005995
120 0.005985
126 0.006031
138 0.006026
153 0.005031
160 0.005988
165 0.004925
169 0.005018
170 0.005015
169 0.005017
169 0.005065
169 0.005021
170 0.005989
172 0.005964
175 0.006014
178 0.005016
179 0.004991
174 0.00495
134 0.004972
70 0.004988
40 0.005017
51 0.004972
73 0.005022
97 0.004922
110 0.004991
125 0.004977
131 0.004033
127 0.006018
120 0.005995
123 0.004975
131 0.005012
144 0.004985
156 0.005017
163 0.005038
164 0.004962
166 0.005003
169 0.004984
171 0.004986
173 0.005024
174 0.004022
179 0.003958
181 0.003957
182 0.004007
184 0.004029
187 0.004998
167 0.005026
110 0.004997
53 0.004987
38 0.004991
51 0.004997
70 0.004975
85 0.003986
99 0.004024
114 0.004007
118 0.004004
115 0.003992
111 0.004068
118 0.003988
131 0.004017
144 0.003994
157 0.00496
162 0.003972
164 0.00499
166 0.003989
166 0.00402
169 0.003993
171 0.003957
172 0.003988
177 0.003993
181 0.003958
185 0.003991
187 0.003023
187 0.003992
166 0.003006
107 0.003028
57 0.002979
44 0.002987
55 0.003017
74 0.004029
92 0.004036
106 0.004015
122 0.003963
120 0.003989
115 0.00399
116 0.003957
125 0.003973
140 0.003969
155 0.002992
163 0.002992
167 0.00299
166 0.004041
166 0.003001
169 0.003042
169 0.002986
166 0.002992
168 0.003991
171 0.003005
