103 0.007979
74 0.00794
50 0.00794
65 0.006981
91 0.006981
105 0.006979
114 0.006981
117 0.006943
117 0.006944
114 0.006986
116 0.006988
121 0.006983
129 0.007014
134 0.007971
146 0.007993
153 0.00698
159 0.007022
162 0.00702
165 0.007107
169 0.006941
173 0.006981
179 0.006988
156 0.00695
102 0.006978
65 0.006974
53 0.006983
62 0.006981
83 0.007024
97 0.006032
103 0.006025
110 0.005944
114 0.005988
117 0.006029
118 0.007021
121 0.007015
127 0.007021
133 0.006991
141 0.006981
150 0.006981
158 0.006982
163 0.005983
167 0.005984
171 0.006026
174 0.005941
178 0.005954
183 0.006021
186 0.005984
161 0.006025
105 0.005984
70 0.005984
61 0.006029
78 0.005983
102 0.005978
113 0.004988
120 0.005975
123 0.006982
123 0.005983
122 0.006017
123 0.005984
126 0.006024
132 0.006024
139 0.005987
147 0.006017
155 0.005974
160 0.006014
163 0.006021
167 0.005029
170 0.005035
174 0.005027
159 0.004986
109 0.005018
74 0.005027
64 0.006018
70 0.006014
86 0.006025
116 0.006023
126 0.006029
129 0.005983
126 0.006021
123 0.005027
123 0.005032
127 0.005023
136 0.004987
144 0.004986
151 0.005031
156 0.005023
163 0.006026
166 0.005991
169 0.005029
174 0.005028
177 0.005018
182 0.004986
173 0.005027
122 0.005028
71 0.004987
61 0.004997
67 0.004992
82 0.005018
105 0.005037
111 0.004989
115 0.00402
118 0.00499
119 0.003992
120 0.00404
123 0.004053
128 0.00399
138 0.00399
145 0.003958
151 0.004947
156 0.004985
163 0.004986
167 0.00497
170 0.00495
174 0.004943
178 0.00399
181 0.003988
183 0.00399
148 0.003946
82 0.004003
61 0.003958
59 0.003973
71 0.004576
99 0.005057
107 0.003989
112 0.00493
117 0.00402
118 0.003989
118 0.003989
118 0.003943
122 0.003957
130 0.003946
137 0.004024
144 0.003946
150 0.004022
158 0.003991
162 0.004023
165 0.004028
169 0.003988
172 0.003011
176 0.00299
180 0.003964
177 0.003002
110 0.00399
71 0.00399
56 0.003994
59 0.00402
87 0.003991
101 0.004024
108 0.004025
113 0.00401
115 0.003015
115 0.002976
116 0.003056
119 0.002998
124 0.002992
134 0.002992
141 0.003025
148 0.002023
157 0.003003
161 0.003989
165 0.00402
168 0.002993
172 0.003001
176 0.003028
179 0.002943
183 0.002998
182 0.002992
120 0.00298
75 0.002992
55 0.002992
62 0.003033
78 0.00203
92 0.002033
99 0.002037
107 0.001995
112 0.002059
116 0.001993
119 0.002986
122 0.003033
128 0.003005
136 0.00299
144 0.002958
155 0.003029
161 0.002942
165 0.001996
167 0.001995
172 0.001939
175 0.001957
178 0.001952
180 0.001962
183 0.001992
186 0.001994
188 0.001995
191 0.002027
192 0.001995
150 0.003029
95 0.00203
67 0.001996
63 0.001996
77 0.002025
98 0.001959
113 0.001994
122 0.001995
127 0.002959
126 0.001995
123 0.001994
124 0.001996
129 0.001962
135 0.001997
142 0.002036
151 0.002052
156 0.001994
160 0.001996
164 0.001995
167 0.000998
171 0.000997
174 0.000997
178 0.000997
181 0.001996
183 0.001002
186 0.001996
188 0.001995
181 0.001996
113 0.001995
77 0.000997
65 0.001
70 0.00099
88 0.000997
115 0.000997
129 0.000997
133 0.000998
130 0.000996
126 0.001996
125 0.001995
128 0.002012
136 0.001946
144 0.002005
150 0.000955
155 0.001005
160 0.001003
164 0.001056
169 0.000997
172 0.000998
174 0.000996
177 0.000964
179 0.000951
182 0.001995
159 0.000997
108 0.0
72 0.000996
58 0.0
62 0.0
81 0.0
99 0.000998
108 0.000997
113 0.000997
116 0.001053
118 0.001
119 0.000999
122 0.000998
126 0.000986
132 0.000997
139 0.0
145 0.0
152 0.000997
158 0.000961
163 0.000999
165 0.0
168 0.0
170 0.0
173 0.0
169 0.0
127 0.0
82 0.0
59 0.0
56 0.0
73 0.000999
99 0.0
107 0.0
112 0.0
115 0.0
115 0.0
115 0.0
116 0.0
120 0.0
126 0.0
133 0.0
139 0.0
146 0.000998
151 0.0
154 0.0
156 0.001008
159 0.000997
162 0.0
136 0.0
92 0.0
63 0.000998
56 0.000997
64 0.0
82 0.0
99 0.000999
115 0.000986
117 0.0
114 0.000993
112 0.000994
114 0.0
120 0.0
127 0.0
135 0.001048
140 0.001005
146 0.001038
150 0.001013
154 0.000999
157 0.000998
161 0.001
157 0.001997
119 0.000998
67 0.0
52 0.0
55 0.0
68 0.000998
83 0.001011
94 0.0
99 0.0
105 0.000999
107 0.000995
108 0.000974
110 0.001995
115 0.001995
124 0.000997
131 0.00104
138 0.0
143 0.002033
146 0.001978
150 0.000997
153 0.000998
160 0.001045
160 0.00103
128 0.000999
83 0.002033
56 0.001942
52 0.001044
63 0.000971
76 0.002037
84 0.002001
88 0.002992
94 0.000989
101 0.002045
107 0.002032
107 0.001996
111 0.000992
117 0.001995
124 0.002026
134 0.000997
139 0.001051
144 0.001995
148 0.002994
152 0.001996
156 0.000998
159 0.002037
162 0.003027
166 0.002025
170 0.002004
167 0.002045
113 0.002034
71 0.002046
53 0.002052
59 0.001998
77 0.002027
94 0.002992
103 0.003032
108 0.002002
109 0.003023
108 0.001995
109 0.002021
113 0.002027
119 0.002981
126 0.003008
135 0.002039
140 0.002033
144 0.001996
147 0.002
150 0.003032
154 0.001964
158 0.003023
162 0.003027
160 0.002985
125 0.002986
71 0.003027
55 0.003026
64 0.002028
83 0.002033
100 0.001979
109 0.002992
115 0.003031
117 0.002028
115 0.004026
117 0.003
122 0.002993
129 0.003028
137 0.003024
144 0.004025
151 0.002993
155 0.003026
158 0.003025
162 0.003022
166 0.003028
168 0.003037
174 0.002982
179 0.003019
176 0.001997
149 0.004028
82 0.003992
56 0.004018
55 0.003023
69 0.003024
84 0.003023
93 0.003989
97 0.004022
105 0.003025
113 0.004022
115 0.002984
117 0.003019
121 0.003023
128 0.005023
135 0.004024
145 0.003991
151 0.003993
155 0.003975
161 0.003989
165 0.003989
171 0.00402
174 0.004021
179 0.004039
184 0.004021
150 0.002978
94 0.004989
60 0.004988
53 0.003989
66 0.004018
85 0.004024
98 0.004023
104 0.004989
113 0.004023
116 0.004035
118 0.003991
119 0.005001
123 0.003929
127 0.00402
136 0.004023
143 0.003989
150 0.004983
157 0.004021
161 0.004008
165 0.00502
172 0.004026
176 0.005023
180 0.004986
185 0.003991
189 0.00402
176 0.004988
120 0.005975
72 0.005986
53 0.005018
58 0.005011
78 0.005018
109 0.005004
130 0.00399
131 0.00503
126 0.004987
120 0.004024
120 0.004003
125 0.004991
133 0.006022
141 0.006026
151 0.005017
157 0.005017
162 0.005017
165 0.004987
171 0.005036
177 0.004988
181 0.005018
142 0.00502
103 0.005023
55 0.004988
48 0.006021
60 0.006018
89 0.005022
105 0.00502
114 0.005005
120 0.006028
119 0.00502
118 0.005987
118 0.005988
126 0.006018
131 0.006023
140 0.006021
150 0.005995
156 0.006017
163 0.005005
167 0.005018
172 0.004972
176 0.006019
183 0.005024
181 0.006022
134 0.005984
64 0.005025
42 0.005014
44 0.005984
61 0.007012
80 0.007011
94 0.005984
101 0.006021
107 0.006021
111 0.006982
115 0.006017
118 0.006015
122 0.006005
129 0.005983
136 0.006017
145 0.006017
152 0.005968
160 0.005987
165 0.007023
171 0.006036
175 0.005984
180 0.006013
163 0.005984
105 0.006018
60 0.007016
44 0.006981
56 0.005977
78 0.006047
96 0.006019
106 0.006982
111 0.006983
115 0.005985
115 0.006027
115 0.007009
118 0.007017
123 0.007016
134 0.006985
142 0.006981
150 0.006005
155 0.006018
160 0.006139
164 0.007976
171 0.007973
176 0.007027
156 0.007029
70 0.007017
47 0.006983
50 0.007023
69 0.006974
92 0.006982
109 0.007017
121 0.005984
122 0.006984
118 0.007979
115 0.007974
117 0.007009
123 0.007015
138 0.006864
147 0.00701
153 0.00702
158 0.007979
162 0.007978
168 0.007023
175 0.007007
178 0.007926
160 0.007979
102 0.007925
57 0.007979
41 0.007979
72 0.007975
88 0.007981
92 0.007944
102 0.007972
105 0.007979
110 0.007986
111 0.00697
113 0.00703
119 0.007996
124 0.007979
134 0.007034
142 0.00703
154 0.00702
158 0.006977
163 0.006993
168 0.007029
174 0.006997
169 0.006981
100 0.006979
68 0.007973
41 0.007972
48 0.007971
66 0.007943
83 0.007007
95 0.006986
104 0.006996
111 0.006983
114 0.006981
116 0.006984
119 0.007027
125 0.007051
132 0.006981
141 0.006977
148 0.006994
155 0.007025
162 0.00702
169 0.007011
176 0.006995
179 0.005978
183 0.006019
187 0.006982
191 0.006
147 0.00702
85 0.005982
50 0.006983
45 0.007022
60 0.007002
92 0.007016
111 0.00701
119 0.007023
119 0.007013
117 0.006989
116 0.006032
118 0.005979
125 0.006024
133 0.006028
142 0.005995
149 0.006033
156 0.006032
163 0.006934
169 0.00598
174 0.007018
178 0.007052
182 0.00698
180 0.005982
136 0.005988
66 0.006991
48 0.007019
53 0.00603
74 0.006025
99 0.006026
120 0.005984
129 0.006021
126 0.005983
122 0.005998
122 0.006032
126 0.005994
134 0.005982
147 0.005982
155 0.005983
162 0.005026
169 0.005992
174 0.004999
180 0.005069
184 0.004983
188 0.004988
192 0.005036
189 0.004992
139 0.006016
77 0.006031
40 0.005984
41 0.005968
60 0.005989
82 0.005988
96 0.00602
108 0.006004
113 0.004995
115 0.005039
117 0.004978
119 0.005019
124 0.004987
132 0.005002
141 0.004991
153 0.005013
161 0.005022
169 0.004943
174 0.004988
182 0.004953
186 0.00399
187 0.02593
193 0.0
184 0.004991
125 0.004986
67 0.005024
42 0.00502
46 0.005018
68 0.004995
91 0.005019
105 0.003957
118 0.00396
120 0.005023
121 0.00505
121 0.005036
123 0.004978
129 0.004986
137 0.004989
146 0.005011
158 0.004987
166 0.004988
172 0.00399
176 0.00399
182 0.00402
185 0.003991
189 0.003991
185 0.003991
134 0.004022
76 0.00399
47 0.003989
47 0.003955
76 0.004979
103 0.004023
124 0.004022
138 0.004993
136 0.00399
128 0.003956
122 0.003991
126 0.00396
135 0.003958
145 0.003991
155 0.004025
164 0.003991
171 0.003987
175 0.003985
179 0.004022
182 0.004026
185 0.00396
147 0.003024
84 0.00402
40 0.003032
39 0.003028
55 0.003992
79 0.004029
97 0.004036
113 0.003953
117 0.004027
118 0.003989
116 0.003007
117 0.004024
123 0.004029
131 0.003002
140 0.002993
152 0.00402
160 0.003023
165 0.002995
170 0.003025
175 0.003033
181 0.003025
176 0.002998
124 0.002997
45 0.002991
35 0.003027
45 0.003027
65 0.00298
87 0.002988
97 0.002999
105 0.002029
113 0.002023
117 0.001997
119 0.001996
121 0.002062
125 0.002026
137 0.001996
144 0.003003
152 0.002992
159 0.003023
167 0.002991
172 0.003031
176 0.002997
179 0.002992
182 0.003036
184 0.002028
144 0.001989
55 0.001995
39 0.002012
45 0.002033
68 0.00203
91 0.001995
110 0.002003
118 0.003017
119 0.002991
117 0.003012
115 0.002994
118 0.002956
123 0.001995
135 0.002983
142 0.002028
148 0.002027
152 0.002026
156 0.001964
161 0.001998
165 0.001995
169 0.002045
157 0.002026
106 0.001957
51 0.002045
40 0.001996
64 0.001995
89 0.000967
108 0.000957
121 0.000999
124 0.000998
118 0.001996
114 0.002124
115 0.002015
122 0.002038
131 0.002053
143 0.002027
151 0.002031
161 0.001996
167 0.001
172 0.000997
175 0.000998
180 0.000998
185 0.001038
142 0.001969
82 0.000997
48 0.002006
39 0.000997
48 0.00202
77 0.002041
96 0.000986
106 0.002001
111 0.000988
114 0.000955
115 0.000992
117 0.000952
122 0.00097
131 0.000966
141 0.000972
149 0.000998
154 0.000997
162 0.000998
171 0.000997
180 0.002001
187 0.001031
184 0.001006
134 0.001035
76 0.000964
44 0.000978
48 0.000998
66 0.001004
88 0.001026
103 0.000966
116 0.00101
121 0.000997
121 0.0
122 0.001032
124 0.0
130 0.0
138 0.0
150 0.0
157 0.000998
164 0.0
170 0.0
176 0.0
182 0.000989
188 0.000947
179 0.000998
123 0.0
71 0.000998
49 0.0
52 0.0
83 0.0
108 0.0
128 0.0
139 0.0
138 0.0
126 0.0
121 0.0
127 0.000997
136 0.000998
151 0.000997
160 0.0
165 0.000934
173 0.001006
177 0.0
181 0.0
186 0.0
186 0.0
103 0.0
57 0.0
42 0.0
55 0.0
88 0.0
107 0.0
120 0.0
126 0.000997
124 0.001017
121 0.000998
120 0.000984
124 0.00099
136 0.000997
146 0.0
158 0.0
165 0.001044
171 0.00103
177 0.0
181 0.0
186 0.0
173 0.000969
114 0.00103
50 0.0
39 0.000992
58 0.0
73 0.000998
96 0.0
105 0.001017
111 0.000997
115 0.000985
116 0.0
117 0.0
121 0.001075
127 0.00103
139 0.0
148 0.0
162 0.0
168 0.0
174 0.0
179 0.001025
184 0.001003
189 0.000952
168 0.001008
104 0.0
56 0.001996
39 0.002036
51 0.0
75 0.0
106 0.00099
117 0.000997
121 0.000997
120 0.001027
118 0.001029
118 0.0
123 0.000996
131 0.000965
140 0.002029
149 0.002041
159 0.000982
165 0.000997
174 0.000999
178 0.000999
182 0.001005
187 0.001992
180 0.001966
105 0.00205
59 0.001
44 0.001022
52 0.001995
76 0.002026
111 0.000998
130 0.001045
135 0.000994
126 0.000998
119 0.000998
119 0.002021
124 0.003024
138 0.001995
149 0.002041
157 0.001016
164 0.003026
170 0.003024
175 0.000948
180 0.000962
185 0.001024
153 0.000992
89 0.001972
49 0.001996
37 0.002039
54 0.000998
78 0.002031
99 0.001993
113 0.002047
120 0.002992
119 0.002958
116 0.00198
116 0.001999
124 0.001984
133 0.002025
143 0.001997
152 0.002984
159 0.003025
167 0.002025
172 0.001992
177 0.001964
182 0.003023
185 0.004024
123 0.003033
54 0.002992
36 0.00199
47 0.001998
69 0.001959
89 0.003024
102 0.003026
112 0.001998
116 0.001972
117 0.001996
118 0.003025
120 0.003976
130 0.002981
138 0.002996
150 0.00302
158 0.003017
165 0.003023
171 0.004023
176 0.00399
183 0.003018
187 0.003028
192 0.00205
174 0.00402
111 0.004013
44 0.004021
42 0.004004
68 0.002985
94 0.003024
114 0.002992
127 0.004019
129 0.004021
124 0.003041
119 0.001994
120 0.003023
125 0.004042
134 0.004986
150 0.003989
159 0.004022
167 0.002989
173 0.00298
177 0.003031
181 0.004022
185 0.003989
184 0.00298
135 0.002981
75 0.003022
45 0.004989
44 0.004995
81 0.004985
107 0.004987
133 0.00402
139 0.004021
133 0.003023
124 0.00399
120 0.004022
125 0.003026
135 0.00299
146 0.002995
156 0.003959
164 0.005023
174 0.00402
178 0.004986
182 0.005021
188 0.004018
189 0.004039
145 0.00402
79 0.005979
42 0.004968
34 0.00402
46 0.005021
69 0.005018
96 0.005023
113 0.003984
116 0.005019
116 0.005018
115 0.004026
117 0.00403
123 0.00403
132 0.004987
141 0.004988
153 0.005019
161 0.005027
167 0.004988
172 0.006013
180 0.005019
186 0.005984
186 0.005014
114 0.004009
59 0.003955
36 0.003967
37 0.005017
56 0.005017
88 0.003981
103 0.005014
112 0.005033
116 0.006018
116 0.004985
117 0.005954
119 0.006019
128 0.005023
136 0.005021
146 0.004989
154 0.005982
161 0.006009
169 0.004022
173 0.006011
179 0.004962
184 0.005981
190 0.004971
194 0.005984
178 0.005984
91 0.005017
49 0.004996
39 0.00504
51 0.006011
77 0.006981
111 0.00496
129 0.005987
136 0.00601
125 0.006017
119 0.006041
119 0.006981
124 0.00698
137 0.006011
144 0.006019
156 0.004998
163 0.006016
169 0.005996
174 0.004963
178 0.004993
182 0.005985
187 0.006031
149 0.005977
86 0.006031
50 0.007015
41 0.007015
62 0.006021
89 0.006046
113 0.005006
131 0.007981
137 0.007982
129 0.005986
122 0.006036
123 0.004998
131 0.00598
141 0.005983
152 0.006981
161 0.007015
169 0.005976
174 0.006016
179 0.006023
183 0.007011
187 0.006983
192 0.007032
154 0.007016
57 0.006019
36 0.006003
39 0.005981
58 0.006982
81 0.007016
104 0.005993
114 0.005987
118 0.005972
118 0.007016
117 0.00799
119 0.005976
123 0.006976
137 0.007014
147 0.007013
156 0.006986
163 0.007979
169 0.007979
176 0.006982
181 0.006018
185 0.005964
191 0.007979
176 0.008001
110 0.007029
59 0.006969
39 0.006979
55 0.006987
80 0.007014
102 0.007979
122 0.007978
127 0.006991
125 0.007018
122 0.007077
121 0.007981
125 0.007016
135 0.007944
145 0.006981
156 0.006972
164 0.006976
170 0.006976
175 0.007978
180 0.007979
186 0.006993
190 0.006985
194 0.006982
170 0.007979
84 0.006995
45 0.006972
46 0.006987
77 0.006957
115 0.007017
136 0.007016
147 0.007011
142 0.00696
129 0.007026
120 0.007992
122 0.00696
130 0.006978
140 0.006977
151 0.006997
161 0.006991
169 0.007013
175 0.007015
180 0.007011
184 0.006983
182 0.007028
131 0.00702
59 0.006981
39 0.007022
43 0.006993
65 0.006021
93 0.006037
122 0.006982
135 0.006034
128 0.007015
120 0.007015
117 0.005985
121 0.006023
130 0.005993
144 0.006977
154 0.007012
161 0.006988
167 0.006982
172 0.00697
179 0.006977
184 0.007024
156 0.007021
90 0.007013
46 0.007013
33 0.006015
42 0.006027
73 0.005994
97 0.00598
112 0.005987
121 0.00596
124 0.006029
122 0.006017
121 0.006015
124 0.007027
129 0.006991
137 0.006971
145 0.006011
152 0.006019
159 0.006033
163 0.006021
166 0.006005
170 0.005995
176 0.006
133 0.006028
72 0.006014
34 0.005978
35 0.006011
52 0.006028
77 0.005962
96 0.006015
110 0.005952
112 0.004997
110 0.004994
108 0.005001
109 0.005033
117 0.005018
126 0.005985
137 0.005019
144 0.006011
149 0.006027
154 0.006019
157 0.006026
162 0.005991
167 0.004999
170 0.004965
135 0.004956
81 0.005025
43 0.005027
51 0.005025
73 0.005036
106 0.004981
122 0.005029
129 0.004982
125 0.004985
117 0.004022
111 0.005038
115 0.003957
123 0.004988
133 0.004989
147 0.004971
153 0.004983
156 0.00503
161 0.005022
164 0.005019
169 0.004954
164 0.004951
117 0.004987
59 0.004998
45 0.003955
51 0.003959
70 0.004005
104 0.004023
115 0.00402
120 0.004028
118 0.003961
114 0.004025
114 0.003996
119 0.004988
127 0.004987
139 0.004027
148 0.003957
154 0.004001
158 0.003945
163 0.004039
167 0.003989
172 0.003991
155 0.003992
101 0.00405
61 0.003995
45 0.004124
49 0.004016
72 0.00403
89 0.003989
99 0.003957
106 0.004048
113 0.004021
114 0.00404
116 0.004015
120 0.004027
127 0.004022
135 0.004019
144 0.004024
151 0.003981
160 0.003947
164 0.003991
167 0.003023
174 0.005022
179 0.002985
180 0.003029
139 0.002992
72 0.00399
51 0.003029
52 0.003028
69 0.003987
91 0.004025
112 0.003982
120 0.003019
123 0.003002
122 0.002992
120 0.002992
123 0.00303
128 0.003025
136 0.002992
148 0.003025
155 0.002986
160 0.003003
164 0.002992
168 0.003023
173 0.002029
178 0.002
165 0.002991
112 0.003956
70 0.002995
55 0.003038
61 0.003008
91 0.003012
115 0.003033
132 0.003041
139 0.002958
136 0.002993
127 0.002993
124 0.003033
132 0.003022
142 0.002028
152 0.00303
161 0.003991
167 0.001995
171 0.001995
174 0.001954
177 0.001995
181 0.001995
185 0.001995
142 0.001998
86 0.001999
47 0.00201
54 0.002008
73 0.002037
96 0.002992
111 0.001994
121 0.002031
123 0.002004
122 0.002041
120 0.002041
122 0.002028
130 0.002001
138 0.001946
152 0.001993
159 0.002039
164 0.000997
168 0.002026
172 0.001053
179 0.001995
181 0.001997
142 0.001998
86 0.001956
53 0.002051
48 0.002028
64 0.001997
98 0.001995
110 0.002047
118 0.001999
122 0.001995
122 0.002004
122 0.001002
124 0.002018
129 0.000965
137 0.002047
146 0.001962
154 0.000964
163 0.002006
169 0.000997
174 0.000998
178 0.002005
182 0.000998
187 0.001007
181 0.000984
107 0.000986
63 0.002036
47 0.002043
54 0.001965
76 0.000998
109 0.000963
128 0.000998
131 0.000999
127 0.000998
122 0.000999
121 0.000997
126 0.000997
136 0.000998
146 0.000963
154 0.000986
161 0.00103
165 0.001413
170 0.0
174 0.000998
181 0.0
181 0.0
136 0.0
80 0.000998
51 0.001007
51 0.000998
73 0.000998
100 0.000997
120 0.000997
133 0.001032
131 0.000979
124 0.000997
120 0.0
125 0.0
134 0.0
145 0.000987
155 0.0
164 0.0
168 0.0
171 0.0
174 0.0
178 0.0
184 0.0
149 0.0
71 0.0
43 0.0
41 0.0
56 0.0
79 0.000998
101 0.0
110 0.001022
115 0.0
117 0.0
117 0.0
119 0.0
124 0.0
135 0.0
144 0.000998
155 0.0
161 0.0
166 0.0
169 0.001036
173 0.000997
180 0.0
184 0.0
150 0.0
59 0.0
40 0.0
45 0.001042
64 0.001033
87 0.001043
106 0.000954
114 0.0
117 0.0
119 0.000998
119 0.000998
120 0.0
125 0.0
139 0.0
148 0.000891
156 0.000997
162 0.001062
167 0.001006
173 0.0
177 0.000997
180 0.000995
185 0.000989
191 0.000997
176 0.001016
135 0.000998
45 0.0
44 0.0
63 0.0
92 0.001031
116 0.001011
135 0.0
135 0.0
129 0.0
122 0.002029
120 0.001995
126 0.0
136 0.0
153 0.0
160 0.0
164 0.001004
168 0.001997
171 0.002065
177 0.000994
182 0.000993
187 0.000999
163 0.002002
99 0.002027
46 0.001994
41 0.002044
75 0.001033
102 0.001029
122 0.000911
133 0.001996
133 0.002029
124 0.000986
120 0.000988
122 0.001975
129 0.003023
139 0.003031
153 0.000997
162 0.000997
171 0.000987
175 0.000991
179 0.000992
184 0.001996
189 0.002
193 0.000999
151 0.001012
81 0.001995
41 0.003026
32 0.003003
51 0.002048
84 0.001996
103 0.002025
111 0.002027
115 0.000954
117 0.002993
117 0.002992
119 0.001014
124 0.000999
132 0.001992
142 0.001009
152 0.002992
161 0.002995
172 0.002027
177 0.002043
184 0.000954
190 0.001987
195 0.001991
171 0.003023
102 0.003024
42 0.002028
34 0.001999
47 0.002032
74 0.003032
99 0.003025
121 0.003033
125 0.002992
123 0.000982
121 0.001027
121 0.00206
126 0.003989
134 0.00399
147 0.001962
156 0.00197
164 0.001963
171 0.003025
177 0.003033
185 0.002992
190 0.003039
196 0.001038
178 0.001994
112 0.002995
58 0.003989
39 0.004007
54 0.003009
84 0.002016
114 0.001988
137 0.004002
148 0.004008
136 0.004018
124 0.003989
120 0.001993
127 0.002993
138 0.002978
151 0.003991
161 0.003989
170 0.003022
176 0.003001
180 0.002992
184 0.004026
189 0.004024
158 0.00399
89 0.003989
36 0.001988
33 0.002983
51 0.003021
79 0.004986
104 0.004989
125 0.002992
128 0.002984
122 0.002992
116 0.003964
114 0.004019
124 0.004023
134 0.004988
149 0.003033
158 0.004018
164 0.00402
169 0.005018
174 0.004987
179 0.004987
185 0.003043
152 0.003011
83 0.002987
39 0.006011
31 0.00296
51 0.00399
76 0.004028
96 0.00303
105 0.004022
109 0.003987
110 0.004986
110 0.00502
112 0.003975
117 0.004042
126 0.003993
135 0.005985
150 0.004032
157 0.00498
162 0.00498
168 0.005022
174 0.004011
180 0.003974
175 0.005976
119 0.005946
48 0.004021
31 0.003997
39 0.003992
62 0.004977
98 0.003979
109 0.005018
113 0.004987
113 0.005008
111 0.003983
112 0.004964
116 0.006018
123 0.00602
136 0.004955
144 0.004979
151 0.003983
159 0.004032
163 0.003983
168 0.005018
173 0.005972
179 0.00499
145 0.004988
84 0.004986
46 0.005977
39 0.005978
62 0.004985
89 0.004988
111 0.005016
127 0.004991
123 0.005018
116 0.006997
113 0.007025
117 0.004977
126 0.004988
136 0.004989
145 0.00602
152 0.005984
159 0.004986
162 0.005002
166 0.005035
174 0.006022
179 0.006014
159 0.007029
97 0.007014
43 0.006011
36 0.006021
49 0.005018
72 0.005001
92 0.007013
104 0.007013
111 0.006016
112 0.005023
110 0.004985
112 0.004995
118 0.004987
126 0.007019
135 0.00699
146 0.005988
152 0.005982
157 0.006013
161 0.007007
164 0.006982
171 0.005989
177 0.005977
142 0.00598
81 0.004958
44 0.007029
38 0.007986
53 0.007978
74 0.006002
89 0.005985
97 0.005951
103 0.007013
108 0.006985
111 0.005984
113 0.005986
120 0.005977
127 0.005993
136 0.005994
144 0.007946
152 0.007978
160 0.006978
164 0.006974
169 0.006953
173 0.007978
177 0.00798
183 0.006004
188 0.005981
184 0.005975
124 0.00595
67 0.005974
42 0.007978
43 0.007979
71 0.006977
96 0.006989
112 0.00698
121 0.007979
123 0.007955
119 0.006983
117 0.007015
121 0.006982
129 0.007011
139 0.005961
150 0.007015
157 0.006976
162 0.006981
167 0.006982
171 0.006989
175 0.007979
181 0.00798
186 0.00698
190 0.006976
117 0.007007
65 0.006978
43 0.006966
55 0.007014
82 0.007015
116 0.006982
134 0.006985
139 0.00698
133 0.007015
124 0.006984
121 0.006961
128 0.007019
139 0.007015
150 0.006991
160 0.006983
168 0.007011
173 0.007013
177 0.007011
181 0.007014
186 0.007013
191 0.006988
196 0.007011
183 0.006977
76 0.007019
41 0.005967
38 0.006986
57 0.006971
82 0.006017
100 0.005983
109 0.007021
117 0.007021
118 0.006989
118 0.006987
119 0.007021
122 0.006992
136 0.007014
146 0.007101
158 0.006979
166 0.006013
172 0.006021
177 0.006016
182 0.006019
190 0.006015
196 0.006029
181 0.006984
116 0.006013
60 0.00599
38 0.007015
54 0.007011
89 0.006016
108 0.006018
120 0.006017
125 0.00603
125 0.006017
123 0.006024
123 0.006017
126 0.006018
134 0.005992
143 0.004965
159 0.005023
166 0.005017
175 0.005018
180 0.005018
185 0.005986
190 0.005975
195 0.006019
190 0.006015
132 0.005981
71 0.005964
43 0.006017
44 0.005031
86 0.006016
114 0.005025
142 0.004976
146 0.005018
139 0.005021
128 0.005032
123 0.004992
128 0.005013
139 0.005018
151 0.006032
161 0.006015
170 0.006128
179 0.005986
184 0.005018
188 0.004989
194 0.005026
192 0.004994
141 0.005026
73 0.005015
38 0.005019
36 0.00502
57 0.005032
84 0.004955
105 0.004987
122 0.005023
122 0.004036
119 0.00502
116 0.005031
119 0.005986
127 0.005028
136 0.005019
147 0.00502
159 0.004992
165 0.005025
170 0.004972
175 0.005019
184 0.005035
188 0.004985
156 0.00499
68 0.005017
34 0.004025
30 0.003959
45 0.003957
71 0.004025
96 0.003992
107 0.005019
114 0.004987
116 0.004958
116 0.004986
117 0.005019
122 0.00399
133 0.004025
142 0.003983
151 0.00402
159 0.004033
166 0.004021
172 0.003992
177 0.004024
182 0.003991
191 0.003991
186 0.004025
130 0.005021
68 0.004031
35 0.004047
41 0.004033
66 0.004026
94 0.004021
115 0.003992
129 0.003993
127 0.003991
121 0.004002
116 0.003992
120 0.003992
129 0.003018
139 0.003016
152 0.002992
159 0.003026
165 0.002995
169 0.003957
173 0.003992
180 0.004024
184 0.004024
159 0.004
61 0.003028
38 0.003982
41 0.004002
64 0.003989
100 0.003963
119 0.00399
130 0.003994
128 0.002999
122 0.003012
117 0.003004
119 0.003028
126 0.002995
145 0.002992
154 0.002992
162 0.003
167 0.002992
171 0.002991
176 0.003014
181 0.003991
187 0.003039
184 0.002024
128 0.002992
50 0.002994
30 0.002993
48 0.003025
72 0.003003
90 0.003032
100 0.003027
107 0.002988
112 0.003024
112 0.002971
113 0.002993
116 0.001995
123 0.001998
134 0.001979
144 0.001956
158 0.002025
164 0.001995
170 0.002023
175 0.001989
181 0.001995
188 0.002027
154 0.00203
87 0.001995
45 0.002036
35 0.001995
53 0.002992
78 0.002992
106 0.003003
114 0.002992
118 0.001995
118 0.001995
118 0.001992
119 0.002013
124 0.001995
133 0.001995
142 0.001995
150 0.001995
160 0.001995
166 0.001995
174 0.002033
179 0.002
184 0.000998
190 0.000998
179 0.000998
98 0.002044
54 0.001995
42 0.001995
54 0.002001
81 0.001961
117 0.002027
135 0.001995
136 0.001995
126 0.001995
120 0.001027
120 0.001991
126 0.000998
141 0.00099
152 0.000997
161 0.001003
167 0.000998
172 0.000997
177 0.000997
182 0.000976
190 0.000997
165 0.000998
98 0.000997
51 0.000997
36 0.001995
44 0.001996
77 0.001996
100 0.002041
115 0.000999
123 0.000998
124 0.001
118 0.000998
118 0.000998
125 0.000997
134 0.001002
144 0.000997
154 0.000997
162 0.000998
169 0.001112
173 0.000997
177 0.000999
183 0.000998
188 0.0
112 0.0
56 0.0
33 0.0
42 0.0
64 0.000997
87 0.000997
102 0.000998
114 0.001018
118 0.000998
119 0.000997
119 0.001006
121 0.000992
130 0.000997
140 0.000992
153 0.000998
162 0.000997
169 0.0
175 0.0
180 0.0
186 0.0
191 0.0
196 0.0
194 0.0
142 0.0
48 0.0
36 0.0
55 0.000998
84 0.0
109 0.0
126 0.0
134 0.000998
129 0.000998
124 0.000998
122 0.0
125 0.0
133 0.0
150 0.0
160 0.0
169 0.0
175 0.0
182 0.0
185 0.000997
191 0.0
190 0.002012
140 0.000998
62 0.0
44 0.000998
46 0.0
90 0.0
117 0.0
138 0.002042
145 0.002041
135 0.0
125 0.0
122 0.0
126 0.001039
136 0.000992
148 0.001009
162 0.0
170 0.0
179 0.0
184 0.000968
188 0.0
193 0.000996
185 0.00203
99 0.0
47 0.0
30 0.0
37 0.000997
60 0.000998
93 0.0
108 0.000998
119 0.000999
119 0.000998
117 0.000998
116 0.002015
119 0.001023
130 0.0
141 0.0
150 0.0
158 0.002031
164 0.002027
171 0.0
176 0.0
182 0.0
135 0.0
71 0.0
36 0.001966
31 0.001981
54 0.0
78 0.0
97 0.0
108 0.001033
114 0.001995
116 0.000963
115 0.001995
118 0.000998
124 0.002009
132 0.000994
142 0.001995
151 0.002037
160 0.001995
166 0.001996
170 0.001029
175 0.001995
180 0.002063
188 0.000992
150 0.002039
67 0.001963
39 0.001005
39 0.000957
60 0.003023
89 0.002994
117 0.002016
129 0.000961
129 0.000968
123 0.003024
117 0.002035
118 0.00199
127 0.002025
141 0.002037
150 0.001993
157 0.001998
162 0.002995
167 0.002992
172 0.002022
177 0.001034
180 0.001996
144 0.002992
82 0.003026
45 0.002993
45 0.003035
70 0.001993
103 0.000996
120 0.000969
128 0.001988
126 0.002992
120 0.002991
117 0.001995
120 0.001029
128 0.002033
139 0.002994
149 0.002992
160 0.002992
165 0.003033
170 0.001989
175 0.002002
180 0.001992
176 0.004028
121 0.002992
50 0.001966
33 0.001985
39 0.002011
59 0.002992
81 0.002992
101 0.002992
108 0.003034
112 0.001984
112 0.001959
113 0.001969
116 0.003989
123 0.004037
135 0.001991
145 0.002023
153 0.001992
159 0.003027
164 0.00304
173 0.002992
179 0.00399
170 0.002005
109 0.001991
57 0.003054
37 0.003996
42 0.003996
69 0.002023
91 0.001992
103 0.000965
112 0.003987
116 0.004987
118 0.00499
118 0.005023
122 0.002986
128 0.002975
138 0.002993
147 0.004015
155 0.00399
163 0.002992
168 0.002999
172 0.003025
176 0.004987
182 0.004029
187 0.005024
144 0.00502
67 0.00299
45 0.002998
50 0.002991
73 0.004987
101 0.005036
130 0.002992
139 0.003
135 0.002993
126 0.004991
120 0.004987
124 0.003986
134 0.005019
145 0.004986
157 0.003045
164 0.003
169 0.003024
172 0.004987
177 0.00503
183 0.00299
189 0.002999
172 0.004014
71 0.004003
43 0.003987
42 0.005019
60 0.00502
94 0.003995
111 0.004005
122 0.00399
125 0.005019
123 0.00503
119 0.005027
120 0.002993
126 0.003986
142 0.004022
152 0.003991
160 0.005017
165 0.005984
171 0.003991
175 0.004008
180 0.003985
186 0.005027
168 0.005019
84 0.003998
46 0.004002
37 0.004986
63 0.004987
85 0.005016
100 0.005986
110 0.006017
118 0.003989
120 0.003996
120 0.003989
121 0.006016
125 0.005985
135 0.003988
145 0.003983
154 0.004997
166 0.004988
171 0.004984
176 0.005959
180 0.005984
186 0.00499
192 0.004021
192 0.004997
141 0.005985
76 0.005984
40 0.005021
45 0.004986
67 0.005
108 0.004985
123 0.004951
129 0.007016
126 0.007016
121 0.004987
119 0.004987
123 0.003993
130 0.006018
140 0.006016
152 0.003991
159 0.005992
164 0.00598
171 0.005018
175 0.005017
181 0.005018
183 0.006996
143 0.007019
68 0.00499
44 0.004988
46 0.004979
67 0.006982
103 0.00798
123 0.005984
134 0.005985
127 0.005989
121 0.005991
118 0.005974
122 0.007007
131 0.007014
146 0.004955
155 0.004999
161 0.006002
166 0.007984
168 0.006985
173 0.005993
178 0.005984
170 0.005986
112 0.005983
60 0.005977
39 0.006982
42 0.00699
68 0.00695
90 0.005987
103 0.005979
112 0.007967
114 0.007958
114 0.005991
113 0.005969
118 0.006014
126 0.005883
135 0.005985
147 0.007975
152 0.00797
159 0.006011
163 0.005981
167 0.006022
171 0.007985
176 0.00798
170 0.00698
77 0.00798
45 0.006018
39 0.005984
51 0.007013
78 0.007976
92 0.00797
100 0.005992
107 0.005984
112 0.00698
114 0.007011
115 0.00701
118 0.006972
130 0.006979
139 0.006975
148 0.00698
156 0.00698
162 0.007978
168 0.007012
174 0.006975
178 0.006972
181 0.006978
185 0.007014
189 0.007011
194 0.006978
194 0.007978
142 0.006979
63 0.007006
45 0.006987
45 0.007011
65 0.007017
99 0.006969
116 0.007011
123 0.006941
125 0.006968
121 0.007012
117 0.007012
119 0.00702
126 0.007014
136 0.006978
145 0.006977
153 0.006981
161 0.007011
165 0.007013
171 0.00695
175 0.006957
178 0.006979
181 0.006966
185 0.00701
192 0.007001
186 0.007021
108 0.006015
61 0.006022
44 0.006977
52 0.007024
76 0.007022
113 0.007013
133 0.006971
141 0.006985
136 0.007009
127 0.00602
120 0.006022
124 0.006018
138 0.005989
150 0.005988
159 0.005973
166 0.006014
170 0.006019
174 0.005988
177 0.00599
181 0.006988
186 0.007015
180 0.006014
84 0.005969
48 0.006023
42 0.006017
57 0.006017
81 0.005983
101 0.006016
114 0.006017
122 0.006018
122 0.006017
120 0.004995
119 0.005019
121 0.005019
133 0.00502
144 0.004998
156 0.006013
163 0.00598
168 0.006038
171 0.006022
175 0.005982
182 0.005984
185 0.006021
148 0.006014
87 0.005005
49 0.005023
45 0.004984
63 0.004993
94 0.005023
108 0.005013
117 0.005019
120 0.005019
120 0.005021
119 0.005986
120 0.004988
125 0.006025
133 0.004978
141 0.005016
156 0.005017
163 0.005015
168 0.005026
172 0.005018
176 0.004989
179 0.005021
183 0.005021
187 0.005038
139 0.004986
79 0.004993
48 0.005017
52 0.003991
76 0.003984
103 0.003991
122 0.003992
134 0.004986
130 0.00503
122 0.00502
117 0.004973
118 0.004987
127 0.00502
138 0.005045
147 0.004952
159 0.003931
162 0.003954
166 0.003991
169 0.00399
175 0.004052
172 0.003991
126 0.004015
72 0.003992
46 0.003999
48 0.00499
68 0.004989
94 0.004038
122 0.003978
128 0.003992
124 0.004027
119 0.003993
116 0.004005
120 0.004022
129 0.003992
140 0.003993
149 0.003959
159 0.004029
163 0.003992
166 0.003993
172 0.003022
177 0.003958
181 0.004013
149 0.003958
71 0.003991
41 0.003998
37 0.003961
51 0.003953
72 0.003979
94 0.004024
103 0.004001
108 0.003005
111 0.002998
111 0.002998
113 0.00303
118 0.002992
129 0.004173
139 0.003989
148 0.003978
156 0.00402
162 0.004027
168 0.004024
172 0.003033
176 0.002992
184 0.00303
179 0.003029
125 0.002994
69 0.002992
42 0.003026
45 0.002993
66 0.002989
89 0.004007
105 0.003038
114 0.002028
118 0.002992
117 0.002993
116 0.003012
119 0.003003
125 0.003
134 0.003025
144 0.002991
155 0.003001
161 0.00298
166 0.002994
170 0.002992
173 0.003031
177 0.001994
181 0.002024
188 0.001995
161 0.002025
98 0.002992
56 0.002026
43 0.001995
61 0.003025
90 0.002992
115 0.003022
133 0.00199
139 0.001999
129 0.001995
122 0.001996
121 0.001996
129 0.002039
140 0.001954
151 0.002027
160 0.002041
168 0.001995
172 0.002033
175 0.000998
178 0.002992
182 0.001995
188 0.002026
191 0.001998
123 0.001995
66 0.002038
40 0.002033
40 0.002027
58 0.002006
91 0.001996
108 0.002037
119 0.001995
122 0.001995
121 0.001996
118 0.00099
119 0.001995
128 0.002006
138 0.001987
148 0.002022
156 0.002028
164 0.001987
170 0.001946
174 0.001964
178 0.001955
182 0.000986
186 0.001975
192 0.001996
192 0.001044
112 0.000998
57 0.000975
36 0.000953
39 0.000999
58 0.000986
91 0.000998
98 0.01496
114 0.0
121 0.000998
122 0.000997
121 0.000997
123 0.0
128 0.000996
140 0.002
150 0.0
159 0.000997
166 0.000997
172 0.001005
178 0.000998
183 0.002031
187 0.000998
191 0.0
195 0.0
201 0.0
206 0.0
154 0.0
83 0.0
45 0.0
38 0.0
54 0.0
94 0.0
121 0.0
140 0.0
146 0.000998
138 0.000998
124 0.000995
122 0.000971
131 0.0
142 0.0
154 0.0
163 0.0
170 0.000997
177 0.0
180 0.0
183 0.0
186 0.0
190 0.0
194 0.0
146 0.0
62 0.0
37 0.0
39 0.0
62 0.0
94 0.0
130 0.0
147 0.0
148 0.0
138 0.001004
125 0.0
125 0.000998
138 0.0
150 0.002037
162 0.002027
173 0.0
180 0.000949
184 0.000967
189 0.00103
193 0.000998
198 0.0
206 0.0
204 0.0
88 0.0
39 0.0
25 0.0
36 0.003025
74 0.0
101 0.00095
119 0.00101
130 0.002039
130 0.002033
126 0.001995
122 0.0
123 0.0
136 0.0
147 0.0
158 0.0
168 0.001993
176 0.001995
184 0.0
190 0.0
194 0.000967
198 0.002028
202 0.00202
200 0.0
108 0.002032
34 0.0
22 0.0
35 0.000967
65 0.003025
95 0.001998
123 0.0
133 0.0
131 0.0
124 0.00202
119 0.001025
120 0.000997
131 0.002038
146 0.0
156 0.000957
165 0.001008
172 0.002041
178 0.001995
184 0.0
188 0.0
192 0.0
195 0.001987
163 0.002008
68 0.0
27 0.003025
40 0.000981
71 0.000989
104 0.000952
130 0.003026
146 0.002992
142 0.001993
126 0.001987
115 0.002017
115 0.002029
122 0.001995
140 0.001983
156 0.002028
167 0.001997
172 0.000986
177 0.001965
181 0.003041
185 0.003023
181 0.001994
120 0.001998
53 0.001998
22 0.002005
22 0.002045
53 0.002007
92 0.002993
118 0.001996
125 0.001992
121 0.002001
113 0.003017
109 0.003043
113 0.000995
122 0.001001
134 0.001998
146 0.003034
155 0.002993
163 0.000996
169 0.002992
174 0.003035
182 0.002001
170 0.001989
103 0.002002
43 0.00399
18 0.004
28 0.001988
53 0.001996
78 0.001028
94 0.002992
104 0.002981
109 0.003011
109 0.003001
109 0.000981
113 0.001996
120 0.001982
130 0.003989
140 0.003989
152 0.001994
159 0.002991
164 0.000998
169 0.004023
174 0.002993
183 0.003055
186 0.003031
122 0.001995
57 0.001991
26 0.001999
26 0.003989
48 0.00399
86 0.002004
105 0.001993
118 0.001977
120 0.004025
116 0.004029
110 0.004033
112 0.005019
123 0.002992
133 0.002998
143 0.002991
151 0.003989
158 0.00402
164 0.001996
168 0.002003
172 0.00203
177 0.004013
184 0.002961
153 0.004025
84 0.004026
33 0.002952
32 0.002966
52 0.00299
83 0.005021
109 0.005017
131 0.001997
131 0.002992
122 0.002996
114 0.004016
115 0.00203
123 0.00403
135 0.005022
151 0.002968
159 0.002979
164 0.002955
168 0.005019
171 0.004984
176 0.003013
182 0.002993
188 0.003031
181 0.004025
72 0.003005
33 0.004963
24 0.004969
45 0.003995
71 0.003956
91 0.00296
102 0.004986
108 0.004987
110 0.005036
110 0.003011
110 0.002989
113 0.003015
126 0.002993
136 0.002992
147 0.006016
155 0.005999
163 0.004003
167 0.003957
171 0.003989
176 0.005026
182 0.004976
184 0.003028
132 0.003931
66 0.002942
27 0.003993
38 0.003992
63 0.00603
88 0.005986
108 0.003946
115 0.003967
118 0.003986
118 0.006015
118 0.006015
119 0.003986
125 0.003994
135 0.002982
152 0.004994
161 0.003987
167 0.006017
172 0.006018
179 0.003991
183 0.004007
188 0.003985
192 0.005984
197 0.005982
165 0.003993
93 0.004028
46 0.004988
41 0.004984
67 0.00499
99 0.005993
124 0.005995
144 0.004993
142 0.004025
130 0.004017
122 0.006025
120 0.006034
129 0.004957
140 0.003955
151 0.003984
166 0.004993
171 0.003979
175 0.006983
179 0.006983
185 0.004983
190 0.004988
185 0.004982
127 0.006019
63 0.006014
31 0.003988
39 0.003995
66 0.004991
113 0.004024
132 0.004991
139 0.007018
134 0.006983
122 0.00497
120 0.004991
124 0.004993
134 0.007015
146 0.006986
161 0.005969
169 0.005989
175 0.005021
183 0.005011
187 0.005021
192 0.004985
196 0.007019
165 0.007018
68 0.004997
30 0.004989
24 0.004986
40 0.007013
76 0.00797
96 0.00599
111 0.007947
116 0.005983
116 0.005982
115 0.005982
116 0.007979
121 0.007009
132 0.006975
142 0.005984
153 0.005983
162 0.006953
171 0.007973
176 0.005999
184 0.007983
190 0.005952
195 0.005983
168 0.005983
72 0.007982
34 0.007973
27 0.005981
43 0.005978
72 0.005024
98 0.007013
114 0.007015
124 0.005983
120 0.007966
117 0.006022
118 0.005978
123 0.006029
135 0.007971
145 0.007997
154 0.005987
162 0.005997
168 0.005986
174 0.007013
178 0.007029
185 0.006966
190 0.00798
160 0.006983
91 0.00698
44 0.006982
33 0.007979
46 0.00798
86 0.005984
115 0.00602
139 0.00698
140 0.00702
130 0.006993
119 0.006982
117 0.007024
126 0.006985
142 0.006979
154 0.006981
162 0.006996
168 0.007016
173 0.006985
177 0.006968
182 0.006981
189 0.00701
176 0.007021
87 0.006978
33 0.006981
34 0.006976
48 0.00698
78 0.006985
109 0.005987
123 0.006979
127 0.007012
120 0.005986
116 0.005983
115 0.00698
121 0.006979
130 0.006974
149 0.006982
158 0.00696
164 0.006981
171 0.006967
175 0.006977
180 0.005987
186 0.006014
155 0.006979
85 0.005974
38 0.005991
25 0.00601
36 0.006016
78 0.006983
96 0.007015
107 0.006949
114 0.005996
115 0.006965
115 0.006019
116 0.00599
122 0.005965
130 0.006
140 0.005965
151 0.006025
160 0.006016
171 0.005972
176 0.006031
183 0.005965
188 0.005969
194 0.005984
182 0.005991
114 0.006022
43 0.006016
30 0.005981
42 0.005988
69 0.006016
109 0.005987
122 0.004987
127 0.006016
124 0.004987
121 0.005016
120 0.004936
124 0.005016
133 0.004985
147 0.005016
156 0.004983
164 0.006018
170 0.006016
178 0.004986
183 0.005961
188 0.005987
193 0.004985
159 0.004995
90 0.004986
46 0.004986
37 0.004986
62 0.004987
95 0.004989
123 0.004987
143 0.004986
144 0.004971
130 0.004987
121 0.004949
123 0.004989
132 0.004995
145 0.005017
156 0.005018
166 0.005015
173 0.005019
178 0.00502
182 0.004987
187 0.005016
191 0.004957
145 0.003988
74 0.004023
35 0.004041
32 0.003985
55 0.004027
85 0.004987
108 0.00396
124 0.003991
129 0.005017
124 0.005039
118 0.005019
119 0.004961
127 0.004977
139 0.004987
150 0.004986
162 0.004978
168 0.004059
173 0.003993
177 0.004019
183 0.004017
187 0.00402
141 0.003993
71 0.003991
25 0.003985
34 0.004029
57 0.004017
83 0.004003
103 0.00399
113 0.004986
116 0.004979
116 0.003001
115 0.005024
117 0.003992
123 0.004042
132 0.00402
149 0.004002
158 0.004004
164 0.00402
169 0.003949
175 0.004022
180 0.003029
185 0.003989
191 0.003035
186 0.003026
103 0.002992
47 0.004022
29 0.003023
53 0.003995
82 0.004002
105 0.003984
120 0.002992
124 0.002994
119 0.002984
114 0.002993
113 0.003039
117 0.002992
129 0.002992
139 0.002992
148 0.003025
158 0.003977
163 0.003026
167 0.002968
170 0.003023
177 0.002987
172 0.002994
117 0.002975
60 0.00399
34 0.002992
42 0.003055
68 0.002992
95 0.003028
125 0.002996
127 0.002991
121 0.002977
114 0.003008
111 0.001995
118 0.002994
128 0.002051
140 0.001964
149 0.003004
156 0.003007
162 0.002996
166 0.002999
171 0.00301
176 0.002007
179 0.001995
139 0.001995
74 0.001995
31 0.003035
31 0.002988
48 0.002992
72 0.002985
89 0.00299
101 0.002993
108 0.001997
109 0.001964
108 0.002031
111 0.001986
117 0.001997
125 0.001962
138 0.001995
147 0.001959
154 0.001966
160 0.002034
164 0.002022
169 0.001996
177 0.001995
171 0.002045
115 0.001965
60 0.002037
35 0.002004
36 0.002043
62 0.001998
85 0.001995
99 0.002025
108 0.002042
113 0.001999
116 0.001995
115 0.002011
118 0.001958
124 0.001996
133 0.001995
142 0.001974
151 0.001996
160 0.002057
166 0.002039
170 0.001965
173 0.002031
177 0.001995
182 0.002053
188 0.001
182 0.001961
122 0.000949
65 0.001983
41 0.000999
44 0.002052
76 0.001991
105 0.001003
126 0.002067
138 0.001992
135 0.001995
124 0.002029
117 0.001978
122 0.001962
132 0.002011
143 0.000998
153 0.000994
160 0.000972
165 0.000998
169 0.001051
173 0.000982
177 0.000998
182 0.000999
185 0.002025
108 0.00198
58 0.0
37 0.002045
48 0.001963
74 0.0
99 0.0
115 0.0
126 0.0
124 0.0
119 0.001033
116 0.000998
118 0.000998
132 0.001036
144 0.001032
157 0.0
163 0.0
168 0.000989
171 0.0
175 0.0
181 0.0
187 0.0
178 0.0
117 0.0
61 0.0
34 0.0
48 0.0
80 0.0
98 0.0
107 0.0
114 0.0
116 0.0
116 0.0
117 0.0
120 0.0
127 0.0
143 0.0
153 0.0
161 0.0
169 0.0
173 0.0
178 0.0
183 0.000995
187 0.000954
193 0.002035
176 0.002047
88 0.0
47 0.0
43 0.000998
65 0.000999
84 0.000988
111 0.001029
123 0.001999
126 0.0
123 0.0
120 0.0
120 0.002038
125 0.003029
136 0.0
147 0.00098
161 0.0
167 0.001029
170 0.0
175 0.002039
179 0.00199
185 0.001986
190 0.000974
171 0.0
107 0.002001
59 0.000995
44 0.000999
60 0.000974
100 0.000998
133 0.000956
147 0.001
145 0.00105
133 0.002013
124 0.002029
122 0.0
129 0.0
141 0.0
153 0.002044
162 0.002027
170 0.0
175 0.003032
179 0.001995
184 0.0
189 0.001008
157 0.002034
91 0.002025
42 0.000968
39 0.001015
57 0.0
84 0.002993
109 0.002046
130 0.0
133 0.002029
124 0.001001
120 0.000962
122 0.0
129 0.003025
140 0.002031
155 0.0
161 0.001019
169 0.000993
173 0.002029
177 0.001995
183 0.0
182 0.002028
104 0.0
53 0.000986
34 0.000982
39 0.003034
61 0.002959
93 0.00096
108 0.00095
116 0.0
120 0.002994
120 0.002992
119 0.0
123 0.002961
133 0.0
143 0.001004
153 0.001994
161 0.001994
168 0.003023
174 0.001996
179 0.001996
183 0.001996
189 0.003044
193 0.002993
139 0.001995
59 0.004026
37 0.001992
48 0.001979
75 0.001979
102 0.004108
120 0.003024
131 0.001979
129 0.001999
124 0.002005
121 0.00399
121 0.002993
131 0.002001
145 0.003033
158 0.001994
164 0.001993
169 0.001988
173 0.001997
178 0.004034
182 0.004027
189 0.002006
180 0.001999
120 0.001028
64 0.004025
41 0.001016
60 0.004023
91 0.002993
125 0.001997
142 0.001993
143 0.001995
134 0.004025
124 0.004024
122 0.002007
128 0.002
139 0.001994
151 0.003989
167 0.001993
172 0.003999
176 0.004023
181 0.001988
185 0.001998
190 0.001995
191 0.004024
148 0.003985
61 0.001996
34 0.001991
35 0.001981
55 0.003989
99 0.001994
114 0.004022
123 0.004019
123 0.002961
119 0.00296
117 0.002026
119 0.005016
126 0.004027
140 0.00204
150 0.001995
159 0.002028
166 0.004018
173 0.002995
178 0.003992
182 0.00502
190 0.002999
162 0.003002
93 0.002999
46 0.005041
31 0.005024
48 0.002975
74 0.001972
97 0.002943
111 0.00498
122 0.003993
122 0.004957
120 0.005986
121 0.002993
126 0.003032
134 0.00301
145 0.00499
155 0.004948
166 0.003034
172 0.003024
177 0.002983
180 0.004993
187 0.003049
192 0.005024
197 0.004996
164 0.003014
91 0.003009
46 0.003999
35 0.003001
50 0.006021
80 0.006017
117 0.004021
135 0.003958
140 0.003022
128 0.003992
122 0.003957
121 0.006018
127 0.006019
141 0.003024
152 0.003033
161 0.00402
168 0.004982
173 0.005985
178 0.003984
181 0.00394
186 0.002991
186 0.004006
133 0.003978
70 0.005984
39 0.006016
44 0.003955
71 0.004004
102 0.003983
128 0.006022
143 0.006021
140 0.00402
128 0.002981
121 0.003983
125 0.003979
136 0.004018
149 0.006007
160 0.005979
171 0.003975
175 0.003978
179 0.003984
182 0.006001
187 0.005991
193 0.00399
193 0.004972
143 0.003986
41 0.004991
25 0.004993
34 0.006937
59 0.007018
93 0.00498
108 0.00396
117 0.003986
119 0.006031
117 0.006016
115 0.004993
117 0.003975
130 0.004981
140 0.004996
151 0.003984
159 0.007014
166 0.007016
173 0.004958
177 0.004934
182 0.004992
188 0.00703
187 0.007017
110 0.005011
51 0.004049
28 0.005002
46 0.00502
74 0.005023
98 0.006953
114 0.007006
123 0.004991
122 0.004994
119 0.004987
118 0.00701
120 0.007017
130 0.005955
140 0.004995
154 0.007016
165 0.004938
171 0.005983
176 0.005942
180 0.007994
183 0.007979
190 0.004955
194 0.004986
196 0.005021
154 0.007014
82 0.006984
34 0.005964
42 0.007028
82 0.005977
112 0.004996
135 0.00598
144 0.007972
136 0.007964
123 0.006008
117 0.005985
120 0.005954
132 0.007986
141 0.00798
155 0.005994
166 0.007981
170 0.006003
173 0.005006
177 0.006031
182 0.007014
187 0.007974
147 0.006018
78 0.005951
38 0.005959
31 0.007979
57 0.007977
88 0.005986
128 0.007985
138 0.006028
134 0.006009
123 0.005982
116 0.007014
119 0.006983
132 0.006964
140 0.006016
152 0.005947
161 0.007979
169 0.007978
173 0.00604
179 0.007975
184 0.005984
191 0.006979
184 0.00698
120 0.006983
54 0.007025
24 0.006983
25 0.006978
44 0.005973
80 0.00698
98 0.006954
110 0.005981
113 0.007921
112 0.006023
111 0.005992
112 0.006935
121 0.007014
131 0.007026
142 0.00697
151 0.006981
159 0.006976
166 0.007027
171 0.007015
177 0.006978
185 0.006986
186 0.006981
112 0.006981
52 0.006015
28 0.006018
32 0.00599
54 0.006028
90 0.006016
107 0.005983
114 0.006939
119 0.006982
116 0.005984
114 0.007012
116 0.00698
126 0.006977
136 0.006016
146 0.005987
155 0.005954
162 0.006024
168 0.005954
172 0.006026
176 0.005976
180 0.005978
189 0.005947
184 0.006018
128 0.005979
52 0.005986
35 0.005983
44 0.004989
72 0.006978
103 0.005987
135 0.005966
143 0.005986
137 0.005979
124 0.005983
115 0.005983
120 0.006017
131 0.00602
146 0.004982
156 0.00598
163 0.006021
168 0.004983
171 0.004994
177 0.004935
182 0.004985
187 0.006008
180 0.006021
76 0.006014
37 0.006015
30 0.006017
55 0.005984
84 0.006014
107 0.005015
123 0.005026
129 0.004988
122 0.005023
116 0.004979
115 0.004975
119 0.005008
137 0.004988
148 0.005018
158 0.005015
167 0.006016
171 0.004996
174 0.005983
179 0.004999
184 0.005021
182 0.00502
124 0.004962
60 0.004956
29 0.004988
39 0.004954
64 0.004986
87 0.004986
105 0.004987
113 0.003956
115 0.003995
115 0.00398
115 0.003994
116 0.004024
124 0.003997
135 0.003961
145 0.003958
161 0.00502
167 0.005015
173 0.00505
177 0.005019
183 0.004027
188 0.003989
194 0.004944
173 0.003955
104 0.003989
39 0.003992
31 0.003955
45 0.004009
92 0.003959
112 0.003995
125 0.00502
127 0.004985
121 0.004958
117 0.003954
117 0.004041
123 0.00399
131 0.003953
145 0.003988
154 0.004024
161 0.003995
169 0.00399
173 0.00399
177 0.00397
183 0.00402
164 0.003987
100 0.003947
51 0.003998
36 0.004022
47 0.003024
85 0.003952
113 0.003991
134 0.002991
137 0.003993
126 0.002993
116 0.00298
115 0.004047
125 0.003942
137 0.002985
148 0.002995
157 0.002987
164 0.002994
168 0.003998
172 0.003971
179 0.00396
184 0.003965
160 0.003979
92 0.003033
43 0.002987
28 0.002991
44 0.002979
72 0.002992
94 0.003003
109 0.002994
117 0.003033
115 0.002962
109 0.003009
111 0.002992
117 0.001964
127 0.002025
138 0.003021
150 0.001995
156 0.001956
160 0.00298
164 0.002993
168 0.003019
173 0.002991
169 0.003003
90 0.003027
34 0.003009
27 0.001955
40 0.002029
63 0.001996
81 0.002032
95 0.002024
102 0.001996
105 0.002014
106 0.001964
107 0.002042
110 0.002956
120 0.001989
132 0.002993
142 0.002973
150 0.002012
155 0.001994
160 0.001965
166 0.00199
171 0.002043
177 0.001995
173 0.001995
122 0.001964
51 0.002036
33 0.001995
52 0.001995
76 0.00201
94 0.001969
105 0.00201
111 0.00195
112 0.001987
110 0.002949
110 0.001997
113 0.001046
120 0.002031
132 0.001999
144 0.001946
153 0.002004
157 0.001998
161 0.002054
164 0.002027
168 0.00197
175 0.000961
170 0.000999
121 0.000998
68 0.001989
44 0.002001
51 0.002041
84 0.000965
114 0.000997
128 0.001997
129 0.001998
122 0.002037
115 0.002022
112 0.000962
118 0.000969
128 0.002056
138 0.001033
147 0.000999
154 0.002033
158 0.001038
163 0.001004
168 0.000999
173 0.000964
174 0.002019
136 0.001032
65 0.001985
42 0.001016
45 0.0
63 0.000963
87 0.0
105 0.0
120 0.0
119 0.000997
113 0.000964
111 0.001013
115 0.001071
123 0.000978
133 0.001034
146 0.000979
153 0.0
157 0.0
161 0.0
167 0.0
171 0.0
176 0.0
176 0.0
130 0.0
73 0.000967
43 0.0
39 0.000989
60 0.0
80 0.0
93 0.0
101 0.000961
110 0.000964
112 0.0
112 0.0
114 0.0
120 0.0
129 0.0
138 0.0
148 0.0
158 0.001992
163 0.0
167 0.0
171 0.000971
177 0.0
181 0.0
188 0.000956
168 0.002951
107 0.001026
50 0.000951
42 0.000894
54 0.00095
75 0.002044
96 0.003031
111 0.000954
116 0.000942
117 0.000953
115 0.0
116 0.0
120 0.003001
127 0.003027
140 0.000983
146 0.000996
155 0.001994
161 0.0
165 0.002027
170 0.0
173 0.0
178 0.000964
182 0.0
186 0.0
178 0.002004
125 0.002991
75 0.000935
52 0.0
61 0.001006
83 0.003022
109 0.001988
127 0.0
137 0.000979
127 0.0
120 0.0
119 0.0
125 0.001998
135 0.00303
146 0.003045
157 0.001015
163 0.001001
167 0.000957
171 0.003024
175 0.002026
183 0.0
190 0.002025
174 0.0
114 0.0
63 0.0
41 0.003041
42 0.003025
62 0.0
80 0.000955
91 0.001965
99 0.002033
102 0.003035
101 0.0
100 0.003023
104 0.000998
112 0.0
121 0.000956
131 0.002033
138 0.003033
146 0.0
151 0.0
155 0.001016
158 0.001999
163 0.002033
169 0.001949
166 0.001994
102 0.0
66 0.0
53 0.0
57 0.002962
72 0.002992
94 0.0
104 0.000964
110 0.0
113 0.002031
114 0.002027
114 0.0
117 0.001994
125 0.0
133 0.0
141 0.001022
149 0.003026
155 0.003031
162 0.002002
166 0.001005
170 0.002
173 0.002993
177 0.002993
183 0.003037
186 0.003029
135 0.0
87 0.0
67 0.0
65 0.002994
78 0.004022
107 0.001991
125 0.001992
137 0.0
139 0.003975
134 0.004025
124 0.003027
124 0.003025
132 0.001993
140 0.00299
149 0.001994
157 0.002992
163 0.00403
167 0.002996
171 0.002993
174 0.002034
178 0.002012
181 0.004025
153 0.001996
103 0.003024
75 0.003023
71 0.002002
84 0.001998
108 0.002995
132 0.004032
149 0.004034
153 0.003
145 0.001974
135 0.002996
129 0.004022
136 0.001987
146 0.003989
157 0.00399
167 0.001995
173 0.003056
177 0.001994
179 0.002992
182 0.003997
187 0.002998
191 0.001984
173 0.003004
116 0.004038
66 0.001999
64 0.004023
75 0.004029
103 0.00203
121 0.002027
132 0.002031
136 0.004994
133 0.004988
127 0.002025
125 0.002002
128 0.001991
135 0.003987
149 0.001994
158 0.003981
165 0.004021
171 0.001998
174 0.001996
178 0.001996
183 0.00502
187 0.004988
150 0.002026
95 0.003016
65 0.00202
58 0.004988
76 0.001996
98 0.005019
116 0.004023
128 0.001993
129 0.001993
125 0.002993
121 0.005017
119 0.005021
123 0.002963
130 0.002958
139 0.002992
147 0.005021
158 0.002992
162 0.004985
165 0.004944
170 0.002991
173 0.002022
177 0.002023
171 0.00502
121 0.005038
66 0.002959
53 0.003044
58 0.002963
77 0.005987
117 0.002975
133 0.005028
135 0.005018
128 0.005019
115 0.001996
112 0.002993
116 0.002026
124 0.005024
135 0.00598
147 0.003993
155 0.004007
162 0.00302
165 0.00399
168 0.002972
172 0.005979
176 0.006016
136 0.00398
81 0.002988
52 0.003989
45 0.005985
54 0.005986
83 0.004013
104 0.004012
122 0.002984
121 0.003987
115 0.003998
110 0.006015
109 0.005998
116 0.003039
124 0.003991
134 0.00401
143 0.006036
151 0.007027
158 0.00396
162 0.003962
167 0.002966
171 0.003992
175 0.003993
176 0.006015
135 0.00601
67 0.003988
44 0.003995
42 0.003994
55 0.006957
76 0.007028
99 0.003984
109 0.004031
113 0.00399
112 0.004002
109 0.00399
109 0.006022
115 0.00603
127 0.004987
136 0.003992
144 0.003995
150 0.00701
155 0.00703
159 0.003982
163 0.004988
170 0.004979
174 0.004988
165 0.004988
113 0.007012
67 0.007135
45 0.004996
51 0.003989
70 0.004983
102 0.007972
114 0.00702
126 0.004959
124 0.004989
112 0.004986
110 0.004985
113 0.004986
121 0.007018
131 0.007013
141 0.007026
150 0.004987
155 0.004989
158 0.00399
163 0.007986
165 0.00798
170 0.005942
127 0.007978
77 0.004986
52 0.006005
50 0.004958
70 0.007965
95 0.007996
116 0.005987
130 0.005014
131 0.005021
122 0.007976
115 0.007951
114 0.005953
123 0.007978
137 0.004987
147 0.005002
154 0.005995
160 0.007979
165 0.007978
167 0.005955
170 0.006026
174 0.006002
179 0.007988
148 0.007955
90 0.005984
45 0.007957
46 0.005981
61 0.005983
82 0.004988
102 0.00698
110 0.00698
113 0.005974
113 0.005998
112 0.005979
112 0.006988
116 0.006993
124 0.005817
139 0.007979
148 0.005991
154 0.00598
159 0.00598
164 0.006969
167 0.007013
171 0.006018
176 0.006018
176 0.005933
113 0.006986
68 0.006969
46 0.006981
56 0.006988
76 0.005988
96 0.005985
108 0.005987
117 0.007049
117 0.006984
115 0.006983
114 0.006953
117 0.00698
123 0.006984
132 0.006958
147 0.007021
154 0.00698
159 0.005983
165 0.00599
168 0.006
171 0.005987
174 0.006022
177 0.005984
182 0.006989
184 0.00696
148 0.006983
91 0.006971
49 0.006009
54 0.006019
75 0.006975
110 0.005972
128 0.006005
137 0.005985
134 0.005984
124 0.006017
115 0.00601
115 0.005979
123 0.00599
133 0.00599
146 0.006937
155 0.006982
160 0.006016
164 0.00599
167 0.005983
170 0.005953
175 0.006024
178 0.006017
130 0.005982
79 0.005952
52 0.005983
49 0.005981
79 0.005981
104 0.005026
122 0.005003
134 0.005017
131 0.004969
123 0.00498
118 0.005988
119 0.005992
129 0.006022
139 0.005983
150 0.005989
158 0.00599
167 0.005981
170 0.006018
173 0.005032
177 0.004996
181 0.004993
185 0.00499
177 0.005017
122 0.004987
58 0.005022
42 0.004931
46 0.006016
65 0.005022
100 0.005991
111 0.005023
117 0.005018
118 0.004956
116 0.004951
115 0.004991
118 0.005025
124 0.005028
136 0.005983
146 0.00495
154 0.004996
162 0.005053
170 0.004989
173 0.00501
176 0.004986
181 0.005021
185 0.004984
189 0.004987
164 0.003957
102 0.003962
58 0.004021
43 0.004
54 0.004018
79 0.004027
115 0.005023
126 0.005019
129 0.005017
124 0.004968
118 0.004984
117 0.004987
122 0.003952
130 0.003942
140 0.003954
152 0.003995
159 0.003991
167 0.004036
170 0.004026
172 0.003992
175 0.004051
179 0.004023
184 0.005031
160 0.004039
101 0.004046
60 0.003958
46 0.004021
61 0.004008
88 0.004019
129 0.004031
143 0.003976
142 0.00402
132 0.003991
123 0.004
120 0.00396
126 0.00399
137 0.002994
149 0.003022
158 0.002956
167 0.003942
171 0.002986
175 0.00402
178 0.003989
182 0.003054
185 0.003991
158 0.002995
78 0.003989
46 0.00399
39 0.003996
51 0.002991
75 0.002953
105 0.002994
117 0.002976
121 0.004048
115 0.002999
111 0.00299
111 0.002992
115 0.002993
127 0.003979
137 0.003025
146 0.002
152 0.001993
157 0.003002
161 0.002994
164 0.002962
172 0.002981
171 0.00304
127 0.002992
72 0.003027
41 0.003028
40 0.003025
56 0.002992
79 0.002979
96 0.00302
106 0.002039
111 0.003052
110 0.003003
107 0.001996
110 0.002026
116 0.002025
124 0.001994
133 0.002992
141 0.002992
149 0.003023
153 0.003034
157 0.00301
159 0.001964
162 0.001994
168 0.00196
173 0.001995
126 0.001996
73 0.002005
46 0.001995
43 0.00203
59 0.001991
93 0.002034
112 0.001965
123 0.003006
123 0.001994
117 0.001947
109 0.002047
109 0.001995
120 0.002028
130 0.001996
139 0.002008
146 0.002033
150 0.002026
154 0.002027
156 0.000997
159 0.001995
163 0.00199
167 0.002021
138 0.00202
71 0.001995
44 0.001999
128 0.001983
128 0.001995
128 0.002012
128 0.002033
128 0.002008
128 0.000996
128 0.000997
128 0.001994
128 0.001999
128 0.001999
128 0.000997
128 0.000997
128 0.000998
128 0.00203
128 0.001987
130 0.002029
137 0.002028
144 0.000965
152 0.000967
152 0.001001
98 0.000963
0 0.000999
0 0.000997
0 0.000998
28 0.000997
52 0.000966
64 0.000998
73 0.002043
80 0.001988
83 0.001001
84 0.0
88 0.0
96 0.0
116 0.0
129 0.0
144 0.000966
153 0.001014
160 0.000998
165 0.000997
170 0.000996
176 0.001038
183 0.0
190 0.0
179 0.0
109 0.0
14 0.0
5 0.0
22 0.0
65 0.0
90 0.0
103 0.0
109 0.0
109 0.0
106 0.0
104 0.0
108 0.0
117 0.000968
137 0.0
149 0.0
159 0.0
167 0.0
172 0.0
177 0.001007
181 0.0
185 0.0
194 0.0
177 0.0
108 0.0
32 0.000959
20 0.0
42 0.0
79 0.000999
119 0.002999
138 0.001003
139 0.000997
129 0.000998
116 0.0
115 0.002018
122 0.001978
142 0.0
157 0.000944
174 0.0
180 0.0
184 0.000979
188 0.002027
193 0.00203
200 0.000968
203 0.0
154 0.0
74 0.002024
24 0.0
14 0.000965
35 0.000964
89 0.0
108 0.0
120 0.0
123 0.002042
120 0.002031
116 0.0
117 0.0
124 0.000969
136 0.003033
150 0.003041
166 0.0
175 0.000952
184 0.000998
189 0.0
195 0.0
201 0.003033
203 0.003028
124 0.0
50 0.0
14 0.0
13 0.003017
36 0.003034
78 0.000996
100 0.002015
116 0.002031
121 0.0
119 0.0
117 0.0
119 0.002025
126 0.002028
141 0.000993
153 0.0
165 0.000982
175 0.003024
181 0.00403
189 0.003041
192 0.002996
199 0.0
204 0.0
206 0.000973
151 0.002027
70 0.002034
16 0.0
18 0.0
45 0.000984
82 0.003024
112 0.003047
139 0.002988
135 0.001995
122 0.0
114 0.0
117 0.0
127 0.001986
140 0.002028
158 0.0
168 0.0
174 0.000968
178 0.003032
182 0.002044
189 0.003032
194 0.003023
133 0.0
60 0.000957
20 0.0
15 0.003022
36 0.003028
86 0.0
116 0.0
136 0.001006
139 0.002059
130 0.001997
115 0.002026
117 0.001988
131 0.000998
147 0.000976
161 0.000964
172 0.001998
179 0.002029
184 0.0
188 0.000966
193 0.0
200 0.002999
186 0.002994
59 0.003028
15 0.003026
11 0.0
36 0.0
69 0.0
94 0.00404
109 0.004026
117 0.0
115 0.000998
113 0.0
112 0.004026
116 0.003034
134 0.003024
148 0.003025
160 0.002983
172 0.002993
177 0.00299
182 0.002027
188 0.002992
196 0.003
178 0.002992
102 0.00201
36 0.001995
9 0.003983
29 0.002996
60 0.003025
88 0.004014
107 0.001992
114 0.002994
115 0.00299
115 0.003025
113 0.003022
118 0.001973
127 0.00299
140 0.002993
152 0.004023
170 0.002012
177 0.004026
183 0.003988
188 0.003013
192 0.001992
198 0.001993
204 0.004024
191 0.005044
90 0.001991
31 0.002996
12 0.002993
24 0.004012
80 0.002992
109 0.003943
127 0.003941
130 0.003003
122 0.002989
114 0.002996
111 0.002945
116 0.004021
132 0.002999
146 0.002989
157 0.002999
166 0.005019
174 0.002959
178 0.005018
183 0.005026
188 0.004984
168 0.002997
96 0.002993
37 0.004021
15 0.003959
33 0.003002
66 0.002995
100 0.00203
133 0.002037
135 0.001993
127 0.004985
118 0.004956
117 0.001995
125 0.001997
136 0.001999
154 0.004985
178 0.005022
208 0.001997
223 0.001996
229 0.00299
232 0.002996
234 0.001997
231 0.006021
162 0.005033
54 0.001998
21 0.002012
24 0.002022
49 0.005022
82 0.005983
107 0.002001
117 0.003993
122 0.003001
122 0.002987
120 0.003004
123 0.003019
131 0.005994
143 0.004998
161 0.002992
172 0.002987
181 0.002991
186 0.004992
192 0.005017
200 0.004004
207 0.003993
137 0.002991
58 0.002982
18 0.002983
15 0.006016
35 0.00602
76 0.003001
97 0.00298
109 0.003009
116 0.006017
119 0.006028
117 0.003987
117 0.003991
128 0.002975
140 0.003138
153 0.003991
165 0.006046
174 0.005967
182 0.003969
187 0.004017
194 0.003993
201 0.006988
199 0.006982
109 0.003991
42 0.004034
16 0.003989
39 0.003998
72 0.003956
99 0.006951
115 0.006013
124 0.003981
122 0.003996
118 0.002992
118 0.006027
123 0.006016
137 0.003987
150 0.003976
169 0.002994
177 0.002989
182 0.002994
187 0.007011
195 0.006983
198 0.003983
144 0.003992
69 0.003983
27 0.007014
23 0.006987
56 0.004035
93 0.004986
134 0.00399
140 0.005002
134 0.004986
125 0.006956
119 0.006995
125 0.003967
137 0.003977
151 0.004006
163 0.006959
171 0.007011
178 0.003985
184 0.003989
194 0.003987
193 0.003991
140 0.005015
51 0.007873
24 0.007983
31 0.00498
61 0.004987
100 0.005002
130 0.004992
148 0.007018
145 0.00698
123 0.006979
117 0.007021
126 0.005954
141 0.003986
157 0.004983
170 0.007978
179 0.007978
184 0.004987
188 0.004987
193 0.004987
200 0.007975
192 0.007978
54 0.007975
20 0.006957
22 0.004976
46 0.004024
80 0.005985
113 0.007961
126 0.007974
127 0.005989
121 0.006065
115 0.005955
114 0.007962
124 0.007992
147 0.00797
157 0.007976
171 0.005986
177 0.005973
181 0.004983
186 0.007977
193 0.007976
202 0.005954
173 0.005995
92 0.005985
22 0.006984
14 0.006984
50 0.007981
79 0.007954
98 0.005996
109 0.004966
115 0.006932
116 0.006953
115 0.006961
117 0.005986
123 0.005977
134 0.005984
151 0.006986
164 0.006978
179 0.006946
186 0.006977
190 0.005985
197 0.005979
203 0.006017
208 0.007976
212 0.007033
170 0.006984
85 0.00598
31 0.006017
18 0.006984
41 0.006979
100 0.006979
123 0.006983
134 0.005947
133 0.005985
125 0.005979
117 0.00599
119 0.005993
128 0.006949
142 0.006963
160 0.00698
171 0.00698
180 0.006982
188 0.007012
193 0.006968
197 0.007016
204 0.005986
205 0.006022
151 0.005988
52 0.007017
22 0.006021
33 0.005987
67 0.006031
105 0.005987
133 0.006019
148 0.005992
138 0.006013
125 0.005982
120 0.006949
124 0.006979
143 0.005997
159 0.006018
173 0.006019
184 0.005987
190 0.005987
194 0.005988
198 0.006019
208 0.005972
210 0.005021
156 0.004987
50 0.005984
14 0.005015
14 0.005021
38 0.005026
73 0.006023
108 0.005984
123 0.006031
127 0.006007
124 0.00602
117 0.005963
120 0.006015
129 0.006024
147 0.00598
161 0.005955
170 0.006985
182 0.006014
188 0.005012
195 0.00498
200 0.005015
207 0.004987
178 0.004994
91 0.004987
30 0.005019
8 0.00497
26 0.005989
59 0.005984
90 0.006019
108 0.004972
120 0.005031
124 0.004973
122 0.004982
121 0.004981
128 0.004982
139 0.004984
152 0.005028
166 0.005018
181 0.004985
189 0.004995
195 0.005006
200 0.003994
205 0.005035
213 0.004996
219 0.005003
194 0.004953
54 0.004989
15 0.004987
14 0.005027
40 0.005025
94 0.004989
124 0.004973
143 0.004996
146 0.005023
138 0.00403
128 0.003994
123 0.003995
130 0.003986
153 0.003988
167 0.004993
179 0.004943
186 0.005028
191 0.004988
197 0.004948
202 0.004965
208 0.004985
211 0.00402
163 0.004025
55 0.003992
17 0.003989
33 0.004027
73 0.004001
114 0.003989
145 0.004039
161 0.004014
148 0.004984
132 0.003025
123 0.003988
125 0.003989
137 0.00402
161 0.004021
176 0.004023
191 0.004027
195 0.004021
199 0.003988
203 0.005018
208 0.004032
215 0.004021
173 0.003028
80 0.00402
18 0.004035
0 0.002992
23 0.003969
60 0.002988
110 0.003994
125 0.004017
127 0.003978
120 0.002991
113 0.003999
112 0.003004
121 0.002985
135 0.003024
150 0.003034
163 0.002966
175 0.003
181 0.003029
189 0.002991
196 0.004024
203 0.002958
186 0.003957
103 0.003957
16 0.004055
0 0.003055
12 0.002977
44 0.002996
78 0.003028
104 0.003042
115 0.003023
117 0.003025
115 0.002983
114 0.002994
118 0.002993
128 0.002992
146 0.001994
159 0.001998
170 0.002028
178 0.002003
183 0.002028
190 0.002004
196 0.002036
205 0.003002
157 0.003025
72 0.003023
18 0.002985
6 0.001995
25 0.001992
75 0.00202
107 0.002032
128 0.00203
135 0.003029
129 0.001996
114 0.002998
114 0.001995
125 0.002025
139 0.002025
153 0.001961
165 0.002995
173 0.001996
179 0.002028
184 0.001987
188 0.002056
194 0.001995
187 0.00204
69 0.001986
19 0.00199
11 0.001995
38 0.001994
78 0.000998
110 0.001996
131 0.000988
134 0.000998
122 0.000999
111 0.000998
108 0.001957
116 0.002009
141 0.002007
156 0.002027
169 0.00203
174 0.00203
178 0.002997
182 0.001033
187 0.001027
196 0.001028
169 0.001032
88 0.000965
24 0.001
1 0.000999
77 0.002051
93 0.001995
108 0.001994
114 0.001993
117 0.002049
117 0.002027
116 0.002028
116 0.001962
119 0.000991
125 0.000997
132 0.001996
138 0.002062
146 0.001015
149 0.002035
153 0.002028
156 0.002027
159 0.0
160 0.0
133 0.0
83 0.001032
68 0.00096
69 0.000997
81 0.001031
96 0.0
111 0.000998
116 0.000997
119 0.000996
119 0.001017
118 0.000999
120 0.000998
124 0.000997
130 0.0
138 0.0
144 0.0
148 0.0
151 0.0
155 0.0
158 0.0
162 0.0
164 0.0
138 0.000998
99 0.0
76 0.001
72 0.000998
88 0.0
106 0.0
120 0.0
129 0.0
128 0.0
123 0.0
121 0.0
123 0.0
129 0.0
136 0.0
143 0.001001
148 0.0
152 0.0
154 0.0
157 0.0
160 0.0
159 0.0
128 0.0
83 0.0
61 0.002991
61 0.00204
84 0.0
107 0.0
123 0.001007
132 0.003024
132 0.00302
124 0.0
120 0.003023
122 0.0
133 0.0
142 0.0
151 0.003024
157 0.002991
162 0.0
164 0.000961
167 0.0
171 0.002995
175 0.003029
161 0.0
94 0.002996
62 0.000998
56 0.0
70 0.0
91 0.002026
106 0.003008
117 0.0
120 0.0
121 0.0
120 0.003026
120 0.003031
124 0.0
134 0.004036
145 0.0
153 0.0
159 0.000984
163 0.002992
166 0.002951
169 0.003037
174 0.0
179 0.0
167 0.0
117 0.002031
73 0.002
56 0.004023
69 0.003023
95 0.000952
109 0.0
118 0.000999
122 0.003033
124 0.002029
123 0.000995
123 0.0
126 0.0
133 0.003031
140 0.003023
154 0.003027
161 0.003051
168 0.0
170 0.0
173 0.0
176 0.003021
180 0.003036
184 0.0
159 0.000979
104 0.000964
68 0.003021
58 0.002998
82 0.003002
107 0.003
131 0.000998
141 0.000951
140 0.0
133 0.003038
127 0.002985
126 0.001011
132 0.000968
141 0.000946
150 0.001962
158 0.002
167 0.003009
170 0.002027
173 0.0
176 0.0
180 0.0
179 0.002996
140 0.003025
77 0.0
59 0.0
63 0.0
83 0.003024
110 0.003992
142 0.00203
148 0.002993
138 0.0
129 0.0
126 0.0
130 0.003023
139 0.002987
155 0.0
163 0.0
168 0.002996
171 0.002993
173 0.002991
177 0.004055
180 0.00403
177 0.0
129 0.002991
77 0.002994
53 0.005033
53 0.00399
75 0.002996
99 0.002991
116 0.002999
126 0.003004
130 0.003033
124 0.002997
121 0.004022
122 0.00299
130 0.001974
140 0.00199
149 0.001992
157 0.004024
163 0.003988
167 0.002985
171 0.003007
174 0.00298
180 0.003985
152 0.002974
96 0.005015
60 0.004023
50 0.002994
64 0.002992
87 0.002992
107 0.005042
119 0.005018
127 0.002988
126 0.002024
123 0.001983
123 0.002029
127 0.003978
135 0.00402
143 0.004037
154 0.00199
161 0.002999
166 0.003
169 0.004019
171 0.003986
176 0.002992
180 0.002994
177 0.002993
96 0.002992
61 0.002992
53 0.004986
64 0.004985
97 0.002998
120 0.002991
135 0.003005
140 0.003994
135 0.003989
125 0.002992
121 0.001999
124 0.001995
139 0.003009
148 0.002938
156 0.00503
160 0.005018
164 0.002997
166 0.002991
169 0.00399
173 0.006017
174 0.00502
120 0.002999
74 0.001991
53 0.002997
67 0.004016
91 0.003988
115 0.005028
132 0.004944
139 0.003002
132 0.002978
124 0.002026
120 0.00502
123 0.005017
134 0.003949
145 0.002026
154 0.002981
163 0.003001
166 0.002028
168 0.006005
171 0.006003
174 0.006008
179 0.002994
150 0.002992
93 0.002994
56 0.006024
46 0.006018
61 0.003001
82 0.002992
109 0.002992
117 0.00396
120 0.003959
119 0.005984
117 0.00599
117 0.002983
121 0.004037
129 0.002989
138 0.005958
146 0.005989
155 0.002991
159 0.002995
165 0.003984
169 0.004017
174 0.003993
176 0.007019
142 0.006972
74 0.002992
51 0.00299
52 0.003009
68 0.006022
91 0.006023
113 0.002984
122 0.00399
123 0.00402
120 0.003987
118 0.003991
119 0.006014
124 0.006014
136 0.003989
144 0.003996
151 0.003991
156 0.007012
160 0.007013
164 0.003031
168 0.006981
174 0.003967
158 0.00399
109 0.004992
69 0.005978
56 0.006979
68 0.004006
92 0.004003
116 0.004008
134 0.006984
141 0.007046
133 0.004984
121 0.007005
119 0.003023
125 0.00402
135 0.004008
145 0.007039
153 0.007015
159 0.004009
162 0.003972
164 0.003991
168 0.006982
172 0.007974
165 0.003991
100 0.00704
58 0.004981
54 0.00399
67 0.004016
90 0.006982
111 0.006983
128 0.004001
130 0.005008
125 0.00499
119 0.007973
116 0.007975
121 0.007975
132 0.00798
145 0.00797
152 0.004987
157 0.00502
160 0.004012
163 0.007975
167 0.007978
171 0.004994
168 0.004955
125 0.004974
66 0.007977
50 0.007979
65 0.007979
84 0.00798
101 0.004979
111 0.005936
117 0.004987
117 0.006977
116 0.006981
115 0.004988
117 0.005983
122 0.004987
134 0.007976
142 0.007978
154 0.007977
158 0.006983
161 0.005985
164 0.005951
168 0.004987
173 0.006961
161 0.006987
110 0.005997
68 0.005983
53 0.004981
62 0.00698
82 0.006985
110 0.007978
119 0.006981
122 0.005981
120 0.004987
117 0.00502
116 0.006988
120 0.007979
126 0.005976
135 0.005019
144 0.005987
152 0.006982
156 0.006977
