134 0.005983
139 0.005985
142 0.005974
145 0.006982
148 0.006983
150 0.005984
124 0.005984
102 0.006984
98 0.005984
96 0.005985
106 0.005984
114 0.005984
119 0.005984
126 0.005985
126 0.005982
124 0.005973
124 0.005983
126 0.005986
129 0.004987
135 0.005982
138 0.005959
141 0.006032
144 0.006023
145 0.005978
103 0.005984
76 0.005983
80 0.005985
90 0.005984
95 0.005984
102 0.005984
108 0.004987
115 0.004987
119 0.004989
118 0.004983
116 0.004987
117 0.005029
127 0.005019
136 0.005018
143 0.005985
145 0.00602
150 0.005992
155 0.005045
137 0.004987
99 0.005028
92 0.005012
98 0.004987
107 0.004979
120 0.004987
125 0.004987
128 0.004986
129 0.004988
123 0.004985
118 0.00399
119 0.00399
123 0.003986
129 0.004993
134 0.004988
139 0.005022
143 0.004974
147 0.00502
130 0.004995
99 0.004986
74 0.004988
73 0.003989
77 0.003986
76 0.003989
75 0.003989
79 0.0
56 0.004987
79 0.004988
82 0.004989
71 0.003985
61 0.004018
60 0.003991
55 0.00399
23 0.00399
0 0.00399
0 0.003992
0 0.00399
0 0.003991
2 0.003991
9 0.002992
15 0.002992
15 0.002993
15 0.002992
16 0.003991
21 0.003991
35 0.00399
43 0.003991
51 0.003991
57 0.003955
57 0.00399
67 0.003969
42 0.002991
0 0.002993
0 0.003032
0 0.002979
0 0.002994
2 0.00403
9 0.002994
21 0.003988
27 0.003991
27 0.002993
29 0.002993
44 0.004042
55 0.003014
65 0.002992
77 0.002992
85 0.004019
92 0.002992
90 0.002992
48 0.002993
0 0.00399
63 0.00399
69 0.002992
77 0.001994
86 0.002993
89 0.002992
90 0.002985
89 0.002991
87 0.002992
89 0.002993
96 0.002994
98 0.002992
100 0.002991
103 0.002992
106 0.00299
106 0.002994
78 0.002993
58 0.003044
54 0.002993
63 0.002958
69 0.002994
72 0.002992
76 0.002991
78 0.002963
77 0.002993
75 0.00304
75 0.001997
76 0.001995
82 0.001995
86 0.001995
89 0.001995
94 0.001995
97 0.001995
92 0.001995
66 0.001994
48 0.001994
48 0.001995
56 0.001994
61 0.001994
64 0.001995
67 0.001998
68 0.001995
66 0.001996
64 0.001996
66 0.001996
70 0.001996
73 0.001995
77 0.001995
81 0.000988
84 0.000998
87 0.000998
87 0.000997
52 0.000991
46 0.000998
52 0.000998
60 0.001994
67 0.001995
70 0.000997
74 0.000996
75 0.001995
74 0.000992
73 0.000999
75 0.000997
79 0.000997
39 0.000998
45 0.000998
50 0.000998
55 0.000998
64 0.000987
66 0.0
26 0.000999
54 0.0
49 0.000998
57 0.00096
64 0.001003
67 0.000997
73 0.000995
76 0.000997
76 0.000963
74 0.000998
75 0.000998
79 0.0
82 0.0
87 0.0
90 0.0
93 0.0
96 0.0
99 0.0
104 0.001049
106 0.000998
109 0.000998
106 0.001
69 0.000998
55 0.0
58 0.0
65 0.0
69 0.0
71 0.0
74 0.0
76 0.0
76 0.0
75 0.0
76 0.0
79 0.000998
84 0.0
87 0.0
88 0.015957
91 0.0
99 0.0
73 0.0
72 0.0
71 0.0
72 0.0
75 0.0
80 0.000952
83 0.000959
86 0.0
89 0.0
91 0.0
51 0.001002
56 0.001007
64 0.0
68 0.002014
74 0.000962
71 0.000973
20 0.000963
45 0.000997
43 0.00096
53 0.0
55 0.0
56 0.0
58 0.00096
61 0.000981
63 0.001041
60 0.000996
61 0.00096
65 0.000995
69 0.000959
72 0.000955
76 0.000987
80 0.000991
83 0.000992
86 0.000997
91 0.000945
94 0.000938
99 0.001993
102 0.001994
106 0.000977
106 0.001
80 0.000998
52 0.001987
45 0.001985
52 0.000969
58 0.000976
61 0.000972
61 0.00098
64 0.000982
65 0.001992
62 0.001992
61 0.001016
62 0.001996
66 0.001991
71 0.001994
75 0.001998
78 0.001019
82 0.001006
85 0.001007
88 0.001968
91 0.001994
96 0.002996
99 0.002974
102 0.001998
105 0.001969
108 0.001995
83 0.001995
55 0.002003
47 0.001984
55 0.001024
60 0.001944
62 0.001993
62 0.003003
66 0.002035
65 0.00301
62 0.002999
62 0.002034
64 0.002004
69 0.001977
73 0.002984
76 0.00298
31 0.001981
40 0.001991
47 0.002992
55 0.002992
65 0.001995
70 0.002992
77 0.002992
85 0.002003
71 0.00202
12 0.001989
49 0.002974
47 0.002995
55 0.002994
57 0.001994
57 0.002998
58 0.003011
62 0.002994
64 0.002983
62 0.002992
61 0.003003
64 0.002967
70 0.002039
75 0.002993
79 0.002986
84 0.002005
88 0.003002
92 0.002956
96 0.003996
102 0.002997
104 0.003979
107 0.003952
112 0.002947
115 0.003
118 0.003997
114 0.003033
85 0.003989
64 0.003992
61 0.003984
67 0.003987
72 0.003992
72 0.003015
74 0.003991
79 0.003998
80 0.002986
79 0.003014
80 0.003018
83 0.003024
88 0.004995
93 0.003994
97 0.003992
101 0.003979
105 0.003953
111 0.003988
115 0.004009
117 0.003997
121 0.002968
125 0.003009
128 0.003014
131 0.003987
135 0.004995
129 0.003979
99 0.003992
81 0.003984
78 0.003988
87 0.003993
89 0.00399
89 0.003989
90 0.004029
93 0.003986
93 0.002988
90 0.00403
89 0.00499
91 0.004987
77 0.004026
83 0.004011
89 0.00403
96 0.004987
104 0.000997
107 0.0
74 0.004992
77 0.005985
83 0.005024
82 0.004967
78 0.004997
78 0.00598
84 0.005992
91 0.005007
97 0.00498
104 0.004985
115 0.003996
119 0.00603
125 0.005977
130 0.005996
137 0.005041
141 0.004993
146 0.005039
151 0.005976
156 0.00595
161 0.005017
134 0.005004
86 0.004989
66 0.004977
72 0.005981
78 0.005955
77 0.00595
76 0.005996
77 0.005992
82 0.005995
87 0.00598
84 0.005993
87 0.004998
92 0.004988
98 0.004991
112 0.004982
119 0.005998
126 0.006987
135 0.006993
140 0.005985
145 0.005979
151 0.005969
155 0.005984
164 0.005973
171 0.005975
176 0.006013
179 0.005987
183 0.005991
130 0.005987
95 0.006026
88 0.006981
93 0.006977
103 0.005994
102 0.005985
99 0.006021
102 0.006978
108 0.006982
107 0.00599
104 0.005979
107 0.00696
110 0.006966
120 0.006027
125 0.006988
129 0.007014
136 0.005978
138 0.006014
143 0.005987
148 0.006986
151 0.006976
156 0.006981
160 0.007026
166 0.006981
172 0.00696
172 0.006978
136 0.007979
96 0.00798
85 0.006986
91 0.006981
101 0.006982
105 0.006984
103 0.006997
107 0.007982
113 0.007028
108 0.007037
106 0.006986
110 0.007021
119 0.007971
126 0.007973
131 0.006963
136 0.006994
140 0.006979
145 0.006981
148 0.007943
151 0.007975
157 0.007977
165 0.008011
167 0.007968
173 0.007975
176 0.00798
149 0.007959
102 0.006989
82 0.006969
83 0.006993
92 0.007949
93 0.00794
88 0.006997
91 0.007015
97 0.006977
97 0.007972
94 0.007953
94 0.007964
99 0.00797
108 0.007948
113 0.007936
117 0.007003
121 0.007026
128 0.00797
137 0.006967
143 0.006976
147 0.006959
153 0.007017
157 0.006984
163 0.006982
168 0.006982
174 0.007011
176 0.007945
160 0.007979
90 0.007028
83 0.007015
88 0.006981
97 0.006981
95 0.007029
96 0.006981
102 0.006983
106 0.007022
107 0.007018
104 0.007012
107 0.005985
114 0.005985
119 0.005985
126 0.005956
133 0.005953
139 0.007013
146 0.007012
152 0.007023
156 0.007019
162 0.006991
164 0.007026
169 0.006983
175 0.006984
179 0.005956
183 0.005974
188 0.006023
175 0.006018
111 0.00599
92 0.005984
103 0.005932
112 0.006042
113 0.006019
111 0.00602
113 0.006984
119 0.005985
116 0.006001
111 0.005986
112 0.00597
117 0.006025
126 0.005984
133 0.005941
139 0.006023
139 0.02689
144 0.0
148 0.000992
112 0.0
111 0.004988
118 0.00499
120 0.004988
116 0.005014
114 0.005044
114 0.004989
124 0.005018
130 0.005031
135 0.005024
139 0.005036
144 0.005037
149 0.004988
151 0.004986
156 0.005033
161 0.004989
163 0.005007
167 0.005027
172 0.005031
178 0.005017
183 0.004987
167 0.004958
117 0.00398
85 0.003983
81 0.00399
89 0.00402
96 0.005022
92 0.004988
89 0.005026
92 0.005022
97 0.005031
96 0.003992
93 0.003989
95 0.004015
102 0.004018
106 0.003991
112 0.003991
117 0.003992
122 0.003992
127 0.004031
135 0.004019
153 0.004023
179 0.004989
210 0.004031
221 0.00398
232 0.004027
239 0.004039
243 0.003988
248 0.004024
227 0.003992
165 0.00399
154 0.003971
167 0.00399
184 0.003991
203 0.003026
238 0.003022
255 0.002994
255 0.003958
255 0.004019
255 0.004011
255 0.00399
254 0.003972
255 0.003953
255 0.004029
255 0.00402
255 0.003961
255 0.003966
255 0.002928
255 0.002991
255 0.003027
255 0.002992
252 0.002994
242 0.002992
235 0.003991
229 0.002992
224 0.003992
186 0.003992
126 0.003028
92 0.002993
86 0.003031
87 0.002993
80 0.002994
69 0.002993
66 0.003036
66 0.002992
58 0.002992
50 0.002992
46 0.001996
48 0.002991
52 0.001989
56 0.002035
61 0.003025
66 0.002993
69 0.00299
73 0.002993
78 0.002992
81 0.002991
85 0.002023
89 0.002992
96 0.00203
98 0.002013
104 0.001961
110 0.003027
90 0.00203
35 0.001995
3 0.002992
65 0.002964
68 0.002956
70 0.002993
68 0.002993
67 0.003028
71 0.002995
72 0.001995
72 0.001995
73 0.001997
76 0.001996
80 0.001994
84 0.002021
90 0.001996
95 0.001995
97 0.001997
101 0.001995
104 0.000998
107 0.001997
110 0.00199
114 0.001995
116 0.001995
121 0.002
124 0.002006
127 0.001995
133 0.001996
129 0.001995
102 0.001992
81 0.001997
77 0.001007
82 0.000996
85 0.000997
84 0.000993
82 0.000999
85 0.001995
86 0.001997
85 0.002035
83 0.001978
84 0.001995
88 0.000997
92 0.000999
96 0.000997
99 0.000995
104 0.000998
107 0.000998
109 0.000985
114 0.000998
117 0.000998
119 0.014959
122 0.0
81 0.000993
79 0.000997
84 0.000994
88 0.000998
87 0.0
89 0.000999
92 0.000998
93 0.0
92 0.0
62 0.0
68 0.0
76 0.0
86 0.0
93 0.000998
99 0.000998
109 0.001003
115 0.001004
122 0.000998
126 0.0
134 0.0
141 0.0
145 0.0
152 0.0
158 0.0
165 0.0
169 0.0
135 0.0
68 0.0
63 0.0
70 0.0
76 0.0
74 0.0
72 0.0
77 0.0
84 0.0
85 0.0
83 0.000997
86 0.000996
91 0.0
105 0.000999
115 0.0
122 0.0
129 0.0
135 0.000997
141 0.000998
149 0.0
153 0.0
157 0.0
164 0.0
168 0.0
175 0.0
181 0.001029
186 0.000951
194 0.0
159 0.0
107 0.0
83 0.000998
83 0.00097
94 0.0
96 0.0
93 0.0
92 0.000993
96 0.000997
98 0.0
96 0.000999
95 0.0
100 0.0
106 0.0
112 0.001041
118 0.001028
124 0.0
130 0.000998
134 0.001031
138 0.000997
144 0.000998
152 0.001997
157 0.001996
162 0.000992
167 0.000998
173 0.000999
177 0.000998
147 0.000998
99 0.000999
75 0.0
81 0.0
90 0.001047
94 0.000986
93 0.002031
99 0.001994
100 0.001025
97 0.000994
95 0.000999
96 0.00198
101 0.001982
111 0.000961
116 0.00099
122 0.000964
128 0.001962
135 0.001997
143 0.001948
147 0.002007
153 0.000977
159 0.000997
163 0.000946
168 0.001984
176 0.001998
185 0.001005
188 0.001015
160 0.000975
104 0.002994
75 0.002991
75 0.002995
79 0.002998
78 0.00198
74 0.001991
75 0.00201
82 0.00201
84 0.001985
81 0.000996
83 0.000983
88 0.001028
96 0.001996
103 0.003003
113 0.002035
118 0.00299
125 0.002991
132 0.002004
138 0.002992
146 0.00202
152 0.002992
159 0.004043
164 0.002992
172 0.00302
178 0.00303
185 0.003047
176 0.001997
121 0.002992
83 0.003008
71 0.001993
77 0.001995
82 0.002049
80 0.004027
77 0.003027
85 0.002978
88 0.00303
87 0.002992
84 0.003978
89 0.002994
98 0.003033
107 0.002997
115 0.003024
125 0.001976
130 0.002005
135 0.002992
141 0.003989
146 0.003
150 0.002988
154 0.002993
158 0.003986
167 0.003017
173 0.004033
179 0.003989
158 0.003004
101 0.003024
69 0.003024
62 0.00399
71 0.004945
76 0.003988
76 0.0
76 0.000996
86 0.003989
87 0.003026
83 0.004029
81 0.004989
90 0.00303
98 0.003018
104 0.003988
112 0.004988
118 0.004991
126 0.004005
133 0.004027
139 0.003961
144 0.004956
154 0.00299
160 0.004054
167 0.004987
138 0.002994
90 0.002992
65 0.00399
62 0.003989
70 0.004993
73 0.004995
73 0.004027
75 0.00401
83 0.003999
88 0.004024
86 0.004012
88 0.00499
95 0.004987
106 0.003983
114 0.004032
124 0.003979
129 0.004978
135 0.004991
145 0.003996
152 0.003996
157 0.00399
166 0.003978
174 0.004026
182 0.005985
188 0.005984
197 0.005047
172 0.005024
120 0.005034
92 0.005987
90 0.006005
95 0.004988
99 0.005
96 0.003989
101 0.003988
108 0.003991
109 0.004988
107 0.005984
109 0.004984
114 0.005027
121 0.005031
129 0.00597
135 0.005982
142 0.004986
147 0.004989
151 0.004965
157 0.005024
160 0.006023
166 0.00595
170 0.005984
177 0.004981
182 0.004993
187 0.004995
163 0.005996
113 0.005982
83 0.004994
86 0.005044
95 0.005014
94 0.005021
92 0.005026
98 0.007023
103 0.007009
101 0.006001
98 0.006033
99 0.006013
106 0.006003
113 0.005979
124 0.004971
130 0.004975
136 0.005984
145 0.005983
149 0.005983
153 0.005983
158 0.005984
163 0.005984
170 0.004986
174 0.004985
181 0.005983
186 0.006977
165 0.006982
102 0.005984
83 0.005983
90 0.005984
94 0.005985
92 0.005982
91 0.006977
97 0.007978
101 0.006983
100 0.006957
97 0.006981
98 0.006982
104 0.006983
114 0.005984
122 0.005984
132 0.005984
139 0.006016
144 0.00599
150 0.007023
155 0.007009
161 0.006019
166 0.006966
170 0.007003
179 0.007951
181 0.007924
189 0.006987
195 0.007008
207 0.006034
199 0.005975
142 0.005981
101 0.006981
88 0.007011
96 0.006955
101 0.006983
98 0.006985
95 0.007941
98 0.007976
106 0.007009
107 0.006984
105 0.007018
108 0.00697
114 0.00702
121 0.007916
128 0.007978
136 0.006981
141 0.006944
147 0.006953
152 0.007954
157 0.007946
162 0.006982
169 0.006955
178 0.007015
183 0.007012
188 0.007009
194 0.006981
201 0.007008
198 0.00702
145 0.006971
99 0.006957
84 0.007011
90 0.008027
98 0.006959
100 0.006984
95 0.006989
99 0.006931
102 0.00701
99 0.007008
95 0.006953
96 0.006982
104 0.007011
111 0.00701
118 0.007033
124 0.006972
124 0.024907
131 0.0
145 0.006982
151 0.007011
155 0.006986
159 0.007014
166 0.006984
164 0.007041
104 0.007015
71 0.007016
63 0.007033
71 0.006983
79 0.006988
82 0.007016
87 0.006981
100 0.005985
100 0.005984
92 0.005984
91 0.005984
95 0.007012
103 0.007012
112 0.007008
121 0.006981
127 0.007009
135 0.006975
144 0.007014
150 0.005984
170 0.005985
192 0.005986
212 0.005985
240 0.005952
224 0.005984
164 0.006022
142 0.006012
141 0.005988
151 0.005993
161 0.007009
164 0.006983
172 0.005985
187 0.005984
195 0.005985
198 0.005984
204 0.006023
212 0.006016
231 0.006004
244 0.005948
255 0.006011
255 0.006014
255 0.005016
255 0.005971
255 0.005027
255 0.004991
255 0.005985
255 0.005985
255 0.006017
254 0.006022
240 0.005986
248 0.006013
255 0.006014
255 0.005038
255 0.004984
207 0.005016
212 0.005016
211 0.004994
209 0.004945
212 0.004988
216 0.00499
218 0.005015
218 0.004988
220 0.004971
221 0.005984
222 0.005021
223 0.005013
226 0.00496
214 0.004953
184 0.004949
157 0.004958
153 0.004946
152 0.004984
150 0.004989
146 0.003948
145 0.004981
145 0.003943
143 0.003949
139 0.003953
136 0.004975
138 0.00496
141 0.00496
141 0.004982
140 0.00496
140 0.004952
141 0.003976
141 0.00402
145 0.003985
146 0.00399
129 0.003995
99 0.00396
83 0.003961
80 0.004006
84 0.004004
79 0.00399
69 0.004986
67 0.004005
67 0.004995
67 0.003963
65 0.003997
65 0.003986
67 0.003989
69 0.003996
72 0.004015
77 0.003956
80 0.003975
84 0.003958
88 0.00296
90 0.004004
93 0.003952
96 0.002949
99 0.002942
97 0.002955
75 0.002957
50 0.00399
40 0.003999
42 0.003918
43 0.003977
41 0.003966
43 0.002959
47 0.002955
49 0.003005
49 0.002963
49 0.002966
52 0.002944
56 0.002957
62 0.002945
66 0.002997
74 0.003993
78 0.003977
81 0.003989
87 0.003982
90 0.002983
95 0.002989
99 0.002982
104 0.002945
108 0.002951
113 0.002949
116 0.002961
105 0.002993
70 0.00398
68 0.002988
74 0.003988
80 0.003005
80 0.001994
80 0.002944
84 0.002991
86 0.00299
86 0.002988
87 0.002989
90 0.002943
94 0.002999
102 0.00298
107 0.002983
110 0.002999
115 0.001991
119 0.002031
123 0.001995
127 0.00199
130 0.001979
137 0.001995
134 0.001995
114 0.002994
99 0.002992
99 0.003004
105 0.001995
108 0.001994
108 0.001996
110 0.002025
114 0.002034
115 0.001997
115 0.001995
115 0.001996
117 0.002031
121 0.001996
125 0.001995
131 0.001996
134 0.001026
138 0.000997
141 0.000987
146 0.000998
149 0.002017
151 0.001996
155 0.001969
159 0.002009
162 0.001995
166 0.000998
168 0.001957
118 0.000998
103 0.000967
104 0.000999
115 0.000998
116 0.000998
115 0.001005
116 0.000998
121 0.000997
126 0.000997
126 0.001037
128 0.001996
131 0.001998
138 0.000998
143 0.000998
148 0.000999
153 0.001
159 0.000998
162 0.000998
166 0.000998
171 0.000998
174 0.000998
179 0.000997
182 0.0
185 0.000998
191 0.000998
194 0.000998
183 0.000996
146 0.000998
125 0.000999
128 0.001
137 0.000985
142 0.001006
142 0.000997
143 0.001001
146 0.001
147 0.0
143 0.0
143 0.0
145 0.0
148 0.0
153 0.0
156 0.0
159 0.0
162 0.000999
165 0.0
168 0.0
170 0.0
174 0.0
178 0.0
180 0.0
160 0.0
129 0.0
111 0.0
119 0.0
130 0.0
135 0.0
137 0.0
143 0.000998
146 0.000998
146 0.000997
140 0.0
143 0.0
149 0.0
154 0.0
161 0.001048
166 0.000998
172 0.0
177 0.0
181 0.0
185 0.000999
189 0.000997
195 0.0
194 0.000998
131 0.0
102 0.000997
99 0.000997
108 0.001025
113 0.001
115 0.001038
116 0.0
119 0.0
123 0.0
122 0.000997
118 0.000998
117 0.000999
122 0.000996
129 0.0
133 0.0
138 0.0
142 0.000997
148 0.000975
153 0.0
158 0.0
162 0.0
166 0.001027
170 0.001041
110 0.000997
71 0.001027
60 0.0
67 0.0
72 0.0
73 0.002036
73 0.001993
77 0.000998
79 0.000966
78 0.000997
73 0.001995
73 0.001996
80 0.001031
86 0.001008
94 0.00099
100 0.000953
107 0.001003
113 0.001034
118 0.001048
126 0.001
132 0.000999
135 0.000965
103 0.001995
54 0.002011
30 0.001995
38 0.001995
46 0.000998
50 0.0
55 0.000998
61 0.003032
63 0.002031
59 0.000997
57 0.000969
60 0.00098
65 0.001991
73 0.00204
84 0.001999
92 0.001995
100 0.000998
106 0.000971
113 0.002018
120 0.003037
124 0.003035
76 0.001994
38 0.001028
25 0.001028
33 0.003047
44 0.001995
51 0.017918
55 0.001023
64 0.001997
64 0.002009
60 0.002029
59 0.001987
65 0.002991
73 0.002992
84 0.001996
91 0.002027
97 0.001995
104 0.002992
116 0.001995
123 0.002992
130 0.00399
104 0.002012
56 0.001972
32 0.001955
31 0.002992
42 0.003035
53 0.002035
57 0.002037
64 0.002033
69 0.003019
67 0.002993
65 0.002989
69 0.00399
79 0.002992
88 0.002992
96 0.002029
104 0.003027
112 0.002994
121 0.001957
129 0.002011
135 0.002017
142 0.00303
154 0.001992
160 0.004033
126 0.003988
64 0.00299
50 0.003024
57 0.001986
68 0.003995
75 0.004001
81 0.003029
90 0.003029
99 0.002029
105 0.003988
114 0.003003
127 0.003988
146 0.003984
165 0.00299
172 0.002988
180 0.002997
185 0.003989
190 0.003983
201 0.002989
208 0.002964
213 0.003029
220 0.00396
229 0.003954
235 0.004971
234 0.004977
182 0.003004
145 0.002995
131 0.003004
135 0.004
145 0.003991
148 0.003002
151 0.003019
159 0.003006
161 0.004998
157 0.00396
155 0.003989
158 0.004973
163 0.004981
171 0.004001
175 0.003982
180 0.003998
184 0.004987
190 0.004967
191 0.003007
192 0.002968
192 0.003985
203 0.003999
204 0.003981
167 0.004992
120 0.004927
90 0.004014
91 0.003964
97 0.004002
100 0.005014
99 0.004984
105 0.004021
108 0.004025
103 0.004995
99 0.003985
104 0.003973
113 0.004987
122 0.004987
130 0.004019
138 0.003995
146 0.004034
150 0.005995
153 0.005001
161 0.004986
165 0.004991
168 0.005021
118 0.004976
78 0.004971
64 0.005983
69 0.005995
79 0.003988
82 0.004002
85 0.003995
93 0.005986
98 0.005969
100 0.004989
99 0.004989
102 0.004998
117 0.004997
126 0.004986
134 0.005984
141 0.006012
150 0.004994
157 0.005005
163 0.005015
167 0.005026
173 0.006987
182 0.004995
186 0.004979
191 0.00501
131 0.004987
88 0.005005
71 0.005991
74 0.00598
81 0.004998
78 0.004986
77 0.005987
82 0.006983
87 0.007009
87 0.006975
83 0.005973
85 0.005981
96 0.005968
105 0.006004
114 0.004979
121 0.00697
127 0.006967
138 0.005994
146 0.00599
154 0.005992
163 0.006982
170 0.006995
178 0.005991
185 0.005976
196 0.005995
204 0.006002
207 0.006058
171 0.007004
120 0.006971
92 0.006016
99 0.005953
108 0.005988
112 0.007975
111 0.007982
119 0.005996
124 0.005991
124 0.00599
123 0.006955
128 0.004989
140 0.007966
146 0.00798
155 0.006986
162 0.006981
167 0.00702
172 0.007971
178 0.007941
185 0.006974
190 0.005989
198 0.005982
203 0.005982
209 0.00602
216 0.007943
222 0.007965
226 0.006981
188 0.006979
137 0.00697
110 0.007961
112 0.007987
124 0.00702
128 0.005935
129 0.005988
135 0.006028
139 0.006987
131 0.006979
129 0.006997
134 0.00697
139 0.006992
146 0.006993
156 0.007987
162 0.007972
166 0.006948
172 0.006991
182 0.006984
187 0.007008
191 0.006973
196 0.006981
202 0.006966
185 0.006989
136 0.006988
103 0.006974
96 0.006958
103 0.006978
112 0.006986
113 0.006983
116 0.006991
122 0.006965
121 0.006982
117 0.006957
115 0.006941
120 0.006976
131 0.006995
138 0.006955
144 0.006961
150 0.006978
157 0.007023
163 0.006999
171 0.00594
175 0.005997
180 0.005982
185 0.005977
190 0.007019
192 0.006942
144 0.006981
95 0.006987
73 0.007005
75 0.006947
82 0.00598
84 0.006968
82 0.005982
89 0.005976
92 0.005964
89 0.005942
84 0.005977
86 0.005966
94 0.005968
101 0.005944
109 0.006967
115 0.006974
121 0.006011
129 0.006015
136 0.006027
146 0.006
150 0.005978
155 0.00598
162 0.005975
168 0.005952
175 0.005971
185 0.006005
176 0.005976
123 0.00599
76 0.004989
60 0.004979
67 0.006018
70 0.005955
67 0.005985
69 0.005975
75 0.005954
76 0.005982
71 0.005975
70 0.005994
75 0.005986
82 0.004974
89 0.005989
99 0.004997
108 0.004974
116 0.004947
121 0.004953
124 0.004966
130 0.004978
134 0.004991
139 0.005017
146 0.005996
147 0.005982
153 0.005979
151 0.005026
105 0.004977
37 0.004998
34 0.004979
48 0.005011
54 0.004979
54 0.004995
58 0.003978
63 0.004971
62 0.00498
57 0.004018
58 0.004025
65 0.003984
77 0.00399
92 0.004986
100 0.004983
112 0.00497
120 0.00499
127 0.004985
133 0.004961
140 0.004961
149 0.004965
156 0.003985
164 0.003998
157 0.004021
106 0.003999
49 0.003957
50 0.003948
61 0.003937
63 0.003991
63 0.004991
69 0.004958
77 0.004918
76 0.003972
73 0.003995
75 0.003988
83 0.003935
92 0.003981
108 0.003956
116 0.003997
128 0.003999
135 0.003949
143 0.002948
151 0.003989
158 0.003948
166 0.002958
173 0.003951
179 0.003947
186 0.003977
193 0.003951
177 0.003972
115 0.00398
84 0.011937
63 0.000951
72 0.004002
77 0.002935
75 0.002947
78 0.002932
84 0.00297
87 0.002951
85 0.002961
84 0.003038
93 0.00395
103 0.003953
114 0.00398
123 0.003986
132 0.003948
140 0.002942
146 0.002937
153 0.002925
162 0.002957
167 0.002954
172 0.002938
179 0.002987
190 0.002985
197 0.003013
204 0.002998
213 0.002992
180 0.001995
117 0.002949
80 0.002952
75 0.002948
87 0.002952
91 0.002916
90 0.002955
92 0.002972
99 0.002991
97 0.002994
93 0.002992
95 0.002022
101 0.002041
109 0.002034
119 0.002052
127 0.001993
136 0.002994
143 0.002032
150 0.002996
156 0.002992
164 0.003028
169 0.002993
175 0.002024
183 0.002022
189 0.001995
195 0.002023
202 0.001995
209 0.002034
164 0.002035
103 0.001996
73 0.001997
72 0.002029
89 0.001995
91 0.001999
91 0.002007
97 0.001995
98 0.002024
93 0.001972
89 0.001996
90 0.001995
101 0.001995
111 0.001993
118 0.001956
124 0.001995
137 0.001999
144 0.000999
150 0.000998
157 0.001002
163 0.000998
169 0.001035
174 0.001996
181 0.001998
179 0.001957
126 0.001999
76 0.001995
59 0.000997
71 0.001026
78 0.001026
78 0.000998
80 0.000997
89 0.000998
89 0.000997
84 0.000992
83 0.001997
88 0.000998
99 0.000998
109 0.000999
118 0.001
132 0.001047
138 0.000997
145 0.000998
151 0.000998
160 0.000997
166 0.000998
172 0.001028
178 0.000997
185 0.000998
194 0.0
199 0.0
164 0.0
67 0.0
50 0.0
55 0.0
63 0.0
64 0.000998
60 0.000998
66 0.000997
72 0.001007
73 0.000998
69 0.000998
72 0.0
79 0.0
96 0.0
106 0.0
115 0.0
124 0.0
135 0.0
144 0.0
151 0.0
157 0.0
163 0.0
172 0.0
177 0.0
183 0.0
196 0.0
204 0.0
177 0.0
106 0.0
53 0.0
50 0.000999
60 0.000998
65 0.0
64 0.0
66 0.001997
74 0.002022
77 0.0
71 0.001025
75 0.0
82 0.0
92 0.0
102 0.001027
112 0.000999
123 0.0
131 0.0
139 0.0
146 0.002025
151 0.000959
157 0.000951
168 0.001998
176 0.0
184 0.0
191 0.0
164 0.0
99 0.000992
58 0.001031
56 0.0
67 0.0
76 0.0
78 0.000999
83 0.001025
92 0.000999
89 0.001028
84 0.0
85 0.001028
99 0.0
110 0.002031
120 0.001996
133 0.0
141 0.0
149 0.0
156 0.001025
164 0.001046
175 0.001025
180 0.001025
183 0.0
174 0.000969
163 0.0
152 0.001996
142 0.001996
61 0.001036
0 0.00102
0 0.000991
0 0.002042
0 0.001989
0 0.001042
0 0.001024
0 0.000999
0 0.00097
0 0.00096
0 0.001995
0 0.002023
0 0.002033
8 0.001987
19 0.001991
26 0.001996
33 0.001996
45 0.002993
52 0.002027
64 0.001984
71 0.001004
87 0.001013
114 0.003023
140 0.002029
158 0.001972
162 0.00097
161 0.000986
161 0.002053
151 0.001994
17 0.002025
0 0.001993
47 0.002037
50 0.00203
50 0.00103
47 0.00298
45 0.003021
44 0.00099
41 0.000996
40 0.001007
41 0.002005
47 0.001995
63 0.002038
72 0.002031
82 0.003027
93 0.001964
101 0.001966
108 0.002034
114 0.003021
120 0.002992
128 0.00103
133 0.002027
139 0.001041
145 0.002949
153 0.000978
159 0.003996
165 0.003984
157 0.00196
123 0.001968
99 0.001968
95 0.002992
101 0.003021
109 0.001924
110 0.001962
110 0.001047
115 0.002992
117 0.001992
115 0.003991
114 0.003964
119 0.001991
125 0.001967
130 0.001991
135 0.004004
140 0.004012
144 0.001993
148 0.002025
152 0.001995
154 0.003023
160 0.002999
163 0.003993
167 0.003987
172 0.00299
158 0.003004
132 0.002025
118 0.004004
118 0.003989
127 0.00202
132 0.002013
132 0.001957
134 0.004986
139 0.002985
137 0.003981
136 0.003996
138 0.00299
142 0.002997
147 0.002998
152 0.004007
155 0.003962
160 0.003029
163 0.003989
166 0.00299
169 0.005032
173 0.003
175 0.004974
179 0.004986
182 0.002953
184 0.003004
171 0.002991
143 0.003987
127 0.003984
126 0.00202
130 0.003994
131 0.003987
131 0.003028
132 0.003991
135 0.003027
135 0.004986
133 0.004987
133 0.003019
136 0.003027
140 0.002997
143 0.004988
147 0.006019
151 0.004018
154 0.003989
157 0.003988
161 0.003996
163 0.003998
166 0.005007
168 0.004996
172 0.004006
174 0.003975
176 0.002995
159 0.00499
133 0.005985
118 0.004025
120 0.003995
125 0.003984
124 0.004003
123 0.00398
125 0.005967
128 0.005955
127 0.003979
124 0.004
125 0.003964
129 0.005989
133 0.005996
138 0.004991
141 0.004959
143 0.004987
147 0.00496
148 0.003981
150 0.005997
153 0.005978
155 0.0
186 0.004996
186 0.003995
147 0.006923
103 0.006006
86 0.004992
93 0.004957
102 0.004974
103 0.005022
107 0.004998
112 0.005982
112 0.005984
104 0.00399
103 0.005979
109 0.005009
117 0.006972
124 0.006985
134 0.004984
139 0.004981
142 0.004976
150 0.00498
155 0.004983
160 0.006968
166 0.005989
150 0.006006
92 0.005999
68 0.005999
67 0.005984
77 0.006947
84 0.007015
82 0.006017
86 0.004998
93 0.004989
91 0.004983
87 0.005
89 0.006971
99 0.007966
108 0.005979
114 0.005982
121 0.005992
128 0.006967
134 0.006978
141 0.005998
146 0.005984
155 0.005985
159 0.004987
163 0.005039
171 0.007944
176 0.00797
183 0.005976
185 0.005976
141 0.005971
65 0.007963
49 0.007978
49 0.005981
56 0.005997
51 0.005985
49 0.005994
54 0.006987
61 0.00797
61 0.007966
58 0.00599
61 0.007019
68 0.006001
79 0.007943
88 0.007985
96 0.005981
102 0.005986
112 0.00598
118 0.006981
124 0.006941
133 0.007957
139 0.007968
146 0.006963
153 0.006994
159 0.006954
169 0.007976
173 0.00798
184 0.007018
190 0.006016
200 0.006977
176 0.006979
90 0.006967
58 0.006988
57 0.006973
70 0.006972
73 0.00699
71 0.006982
67 0.00795
73 0.007965
79 0.006989
77 0.00699
77 0.007021
83 0.007019
91 0.006984
100 0.006993
108 0.00697
117 0.006916
123 0.006981
129 0.006979
138 0.006973
143 0.006948
149 0.005947
157 0.00695
164 0.006982
172 0.006974
178 0.007008
186 0.006977
194 0.006982
198 0.007015
130 0.006994
79 0.006958
62 0.006979
68 0.006919
80 0.005934
87 0.005956
89 0.005963
98 0.006
97 0.005984
91 0.005977
87 0.006971
92 0.006993
103 0.006988
113 0.006983
121 0.006946
128 0.005984
136 0.005943
143 0.00595
152 0.005984
158 0.00599
164 0.005976
171 0.005994
176 0.005953
183 0.005986
187 0.005995
140 0.005968
83 0.006951
57 0.00594
59 0.005997
72 0.005947
78 0.00597
79 0.005937
86 0.005982
89 0.005925
86 0.005983
82 0.005989
85 0.005969
92 0.005963
103 0.004991
113 0.005008
121 0.004943
129 0.008013
139 0.002976
149 0.005981
154 0.005977
160 0.005941
165 0.005021
171 0.005012
179 0.00499
187 0.004975
192 0.005032
154 0.004968
84 0.004955
39 0.004955
40 0.004988
49 0.00499
49 0.004997
46 0.004976
50 0.00499
58 0.005986
59 0.004994
54 0.00499
54 0.004962
60 0.004945
69 0.005022
80 0.004945
97 0.005026
105 0.004984
114 0.005013
122 0.004972
130 0.004976
137 0.003952
143 0.003945
153 0.004925
159 0.004948
167 0.004943
174 0.004929
183 0.004943
114 0.005003
52 0.004979
24 0.004988
32 0.003988
41 0.004023
44 0.003983
43 0.003982
51 0.004025
57 0.003938
57 0.003947
54 0.003988
55 0.004958
67 0.004979
78 0.004982
92 0.005003
101 0.004976
110 0.003989
118 0.003979
126 0.003965
136 0.003949
142 0.003986
149 0.003998
156 0.00396
162 0.003943
177 0.004007
169 0.003946
85 0.003955
45 0.002952
41 0.002959
54 0.003996
67 0.003975
74 0.003943
79 0.004001
87 0.003967
89 0.003991
85 0.003954
82 0.002959
88 0.003953
104 0.003936
113 0.002928
122 0.002992
130 0.003014
138 0.003004
145 0.003923
151 0.003995
159 0.003974
164 0.00398
170 0.003954
164 0.003954
105 0.003947
49 0.003992
43 0.002949
54 0.002956
66 0.002979
69 0.002953
72 0.003975
79 0.003966
81 0.002973
77 0.003019
76 0.003939
84 0.002991
94 0.002961
104 0.002953
114 0.002958
121 0.002942
127 0.002989
133 0.002993
139 0.002994
147 0.002991
152 0.002989
158 0.002993
165 0.002987
160 0.00199
99 0.001974
49 0.001991
34 0.002991
43 0.00199
52 0.003004
53 0.002972
52 0.002978
60 0.002971
65 0.002993
64 0.002993
61 0.001995
67 0.001996
74 0.001984
84 0.001988
97 0.001987
105 0.001996
112 0.001993
119 0.001976
127 0.001938
134 0.000972
140 0.000989
147 0.002965
153 0.001994
163 0.00196
131 0.001976
67 0.001994
30 0.001995
35 0.00195
47 0.001978
55 0.001993
55 0.001995
61 0.00099
67 0.000988
67 0.000993
63 0.000997
64 0.000962
70 0.000989
81 0.001947
93 0.001923
101 0.001955
109 0.001944
116 0.002
121 0.000998
128 0.001001
135 0.000984
141 0.000999
146 0.001001
155 0.001007
120 0.001018
62 0.001005
31 0.001013
41 0.001003
55 0.001956
62 0.001988
63 0.001996
73 0.000988
75 0.001001
70 0.00101
65 0.000997
72 0.000992
82 0.001002
93 0.000991
102 0.001003
113 0.001
121 0.001981
128 0.0
134 0.000966
141 0.0
148 0.000964
155 0.0
161 0.001012
170 0.001007
135 0.000999
70 0.000982
35 0.000997
37 0.000988
48 0.000997
52 0.0
52 0.0
56 0.0
64 0.0
64 0.0
61 0.0
64 0.0
71 0.0
84 0.001
93 0.000981
102 0.0
107 0.0
112 0.0
120 0.0
126 0.0
134 0.0
142 0.0
149 0.0
163 0.0
171 0.0
142 0.0
76 0.0
32 0.0
38 0.000991
51 0.0
58 0.0
59 0.0
65 0.0
73 0.0
75 0.0
72 0.000998
74 0.000992
84 0.000964
99 0.0
110 0.002
122 0.002022
137 0.0
147 0.0
156 0.0
164 0.001038
171 0.002036
181 0.0
187 0.001038
198 0.0
204 0.000952
179 0.0
113 0.000999
74 0.002041
74 0.0
92 0.0
107 0.0
113 0.0
118 0.002029
125 0.002039
119 0.002046
112 0.002023
110 0.0
121 0.001012
133 0.0
143 0.001028
150 0.001029
156 0.0
161 0.000963
168 0.0
174 0.000998
182 0.000998
140 0.001995
90 0.002032
68 0.0
78 0.0
91 0.0
99 0.002037
106 0.002024
120 0.000996
123 0.0
120 0.0
116 0.001026
120 0.00104
137 0.001013
146 0.001954
158 0.0
168 0.0
177 0.001021
185 0.002021
193 0.002038
204 0.000983
210 0.001
217 0.0
179 0.001993
111 0.002035
71 0.002025
78 0.001996
91 0.001996
92 0.001975
92 0.001989
100 0.001995
109 0.001995
108 0.001005
107 0.001005
109 0.001007
116 0.00203
128 0.002028
147 0.002997
155 0.003004
168 0.00097
175 0.002948
183 0.001994
189 0.001995
197 0.001995
206 0.001996
214 0.001966
216 0.001994
164 0.003036
105 0.002992
81 0.002962
92 0.002994
101 0.000971
100 0.00099
104 0.000997
114 0.002993
120 0.002992
118 0.001991
118 0.001945
123 0.000971
132 0.001969
144 0.002992
161 0.001995
170 0.002987
178 0.002993
190 0.000999
198 0.002037
204 0.000995
210 0.003021
217 0.003034
226 0.000976
233 0.001968
241 0.001967
248 0.00399
253 0.001997
196 0.003977
139 0.003997
119 0.001996
128 0.001992
140 0.002989
142 0.004025
143 0.003028
149 0.002964
154 0.002037
154 0.001993
150 0.00399
150 0.0
161 0.004002
169 0.003991
182 0.002963
189 0.00196
195 0.00197
202 0.004985
209 0.005024
216 0.002023
222 0.002992
227 0.002996
232 0.003987
240 0.002985
247 0.003971
252 0.003981
204 0.00199
153 0.00301
137 0.001983
146 0.004987
162 0.00499
171 0.002997
173 0.002991
177 0.002992
180 0.005046
172 0.002962
167 0.004019
170 0.003951
180 0.00302
186 0.002993
193 0.003956
199 0.004988
204 0.004986
209 0.003029
214 0.002033
218 0.002978
221 0.005047
227 0.002991
232 0.005006
226 0.005939
174 0.004934
121 0.00399
119 0.004008
131 0.003031
143 0.004988
148 0.004987
151 0.003028
157 0.003022
156 0.003027
147 0.00299
146 0.003024
150 0.004998
157 0.004961
164 0.003987
169 0.003981
177 0.003989
182 0.006014
188 0.005985
195 0.003991
198 0.003969
205 0.004013
223 0.003957
231 0.003954
205 0.006006
151 0.005993
121 0.004017
123 0.004025
134 0.003929
144 0.005974
149 0.006023
151 0.003986
156 0.004002
155 0.00398
144 0.003989
142 0.003982
144 0.006937
150 0.007004
162 0.004987
166 0.004991
169 0.004941
175 0.005984
181 0.006017
187 0.004023
192 0.003988
195 0.003981
199 0.006012
197 0.003989
148 0.006977
100 0.007024
83 0.005015
92 0.005021
101 0.005012
104 0.005983
104 0.005995
109 0.004985
108 0.00499
102 0.004989
95 0.005983
96 0.004988
103 0.006996
110 0.007
116 0.004997
120 0.004991
126 0.004958
130 0.00698
133 0.006981
139 0.004986
143 0.004993
145 0.004944
150 0.007023
109 0.005995
60 0.00502
41 0.006969
47 0.006964
65 0.005024
71 0.004938
73 0.005006
78 0.006978
80 0.006981
72 0.00599
67 0.004978
68 0.006002
79 0.00594
87 0.005961
94 0.00798
101 0.007946
109 0.005979
114 0.004991
118 0.005915
123 0.007017
129 0.006981
131 0.004996
136 0.006025
112 0.005958
30 0.005988
18 0.005994
25 0.00799
36 0.007977
42 0.004988
42 0.004975
49 0.00598
50 0.007943
46 0.008003
38 0.004983
41 0.006981
47 0.006976
60 0.006948
67 0.00597
76 0.007998
80 0.007944
86 0.00602
95 0.006954
97 0.005955
103 0.007951
108 0.00698
115 0.00697
119 0.006944
118 0.00695
30 0.006972
0 0.006971
0 0.00798
6 0.00798
16 0.006015
17 0.005967
19 0.00699
24 0.007978
27 0.006981
21 0.006977
21 0.00695
23 0.004991
41 0.006981
49 0.006973
55 0.006981
61 0.006944
70 0.006953
75 0.00694
80 0.007
89 0.007013
100 0.006987
104 0.007007
108 0.006964
113 0.006964
126 0.006988
130 0.006969
68 0.006946
27 0.006981
19 0.00703
29 0.006954
46 0.006982
51 0.006961
51 0.006026
56 0.005983
61 0.006937
58 0.006981
57 0.006981
64 0.007039
74 0.006986
82 0.00698
91 0.006945
100 0.006989
107 0.00598
113 0.006001
117 0.005984
123 0.005958
129 0.005976
135 0.005982
143 0.005999
151 0.005964
146 0.006954
101 0.006937
66 0.00598
68 0.00601
84 0.00599
96 0.005969
100 0.005985
103 0.005983
111 0.006012
109 0.005986
105 0.005969
108 0.005984
116 0.00598
124 0.004985
131 0.005016
140 0.005016
146 0.004985
149 0.006031
155 0.006011
159 0.006008
165 0.006012
169 0.005984
175 0.006016
180 0.005019
184 0.005024
181 0.005017
134 0.004994
86 0.004993
87 0.004987
98 0.004992
109 0.004987
112 0.004993
112 0.00494
117 0.005922
119 0.005991
116 0.005972
115 0.006033
118 0.004962
124 0.005001
134 0.004989
139 0.00495
144 0.005003
149 0.005014
153 0.00495
156 0.00496
163 0.003986
166 0.004988
170 0.004952
173 0.004921
177 0.004945
183 0.004945
185 0.004941
135 0.004931
98 0.004942
90 0.004962
99 0.004953
111 0.00499
116 0.004953
116 0.003974
121 0.003953
125 0.004987
122 0.004946
120 0.004985
122 0.004954
130 0.005006
135 0.004966
141 0.004956
146 0.004964
151 0.004952
156 0.003988
162 0.003973
166 0.003958
169 0.003996
173 0.003949
176 0.003986
179 0.004024
185 0.003925
189 0.003987
194 0.003994
192 0.003986
142 0.004959
98 0.003956
104 0.003956
119 0.003946
126 0.003939
124 0.003953
125 0.003989
129 0.00399
127 0.003986
121 0.003993
120 0.003977
123 0.003947
129 0.002992
136 0.002956
143 0.00299
148 0.00295
151 0.002983
154 0.003938
157 0.003933
159 0.003958
163 0.003963
167 0.003951
170 0.003955
175 0.002957
169 0.002954
110 0.002957
84 0.002985
96 0.002954
106 0.002994
110 0.002946
110 0.003964
113 0.003983
115 0.003008
111 0.003952
106 0.003953
104 0.002958
108 0.002987
114 0.002978
122 0.002985
127 0.003001
131 0.002987
136 0.002983
140 0.002989
142 0.002946
145 0.002977
150 0.002967
152 0.001984
155 0.002986
158 0.001994
160 0.0
123 0.001973
74 0.002985
54 0.003003
62 0.002975
70 0.002976
73 0.002945
69 0.002999
70 0.002006
72 0.001994
69 0.001954
64 0.002941
62 0.001995
67 0.001961
72 0.00196
79 0.001993
84 0.001984
89 0.001995
94 0.001995
98 0.003001
103 0.002027
107 0.001996
111 0.001959
115 0.002016
118 0.001957
125 0.001983
128 0.001996
138 0.001979
116 0.001995
56 0.000969
25 0.000991
20 0.000989
30 0.000996
37 0.000996
36 0.000989
35 0.002007
38 0.001977
39 0.001993
33 0.001967
31 0.001997
35 0.001026
42 0.000972
50 0.000997
57 0.000975
65 0.000998
71 0.000965
77 0.001004
81 0.000997
85 0.000998
93 0.001958
99 0.001029
108 0.001989
110 0.001001
74 0.000966
27 0.000983
8 0.001003
14 0.000987
26 0.001004
32 0.001039
34 0.001005
39 0.001944
43 0.001987
37 0.0
34 0.0
38 0.0
46 0.0
56 0.0
64 0.001037
71 0.001002
81 0.001016
87 0.000983
93 0.000981
99 0.000997
110 0.001013
94 0.000999
43 0.0
8 0.0
8 0.0
20 0.0
27 0.0
31 0.0
39 0.0
45 0.0
46 0.0
43 0.0
45 0.0
52 0.0
62 0.0
76 0.0
83 0.0
91 0.0
99 0.0
107 0.0
116 0.0
123 0.0
130 0.0
137 0.0
110 0.0
40 0.0
20 0.000997
23 0.0
33 0.000983
39 0.00097
38 0.001
44 0.000986
51 0.001999
55 0.002011
52 0.0
55 0.0
68 0.0
79 0.0
88 0.0
96 0.002042
104 0.001965
116 0.0
123 0.0
131 0.0
138 0.001015
145 0.001034
152 0.000979
163 0.0
170 0.0
122 0.001017
75 0.0
59 0.001986
67 0.001996
81 0.0
85 0.0
87 0.0
93 0.001975
101 0.001982
101 0.0
100 0.0
104 0.001009
116 0.000957
125 0.000988
133 0.000992
143 0.001995
151 0.002025
159 0.0
166 0.0
172 0.0
178 0.00199
182 0.00196
190 0.0
197 0.001995
205 0.0
212 0.000997
204 0.000968
149 0.001064
110 0.001065
104 0.000963
116 0.001019
125 0.000997
127 0.001995
129 0.002057
136 0.0
134 0.002028
129 0.0
131 0.0
139 0.0
146 0.002042
154 0.002011
163 0.0
167 0.001989
172 0.0
177 0.001969
182 0.001996
186 0.0
193 0.002028
199 0.0
205 0.000978
192 0.0
143 0.002031
111 0.002025
109 0.001989
120 0.001984
128 0.001996
130 0.003029
133 0.003034
138 0.002018
137 0.002954
132 0.00099
134 0.001039
140 0.001036
147 0.002992
154 0.002035
162 0.002001
167 0.000993
172 0.000997
177 0.003023
180 0.003021
185 0.002008
190 0.002992
196 0.002011
200 0.001985
204 0.002009
188 0.002993
133 0.002994
96 0.001989
98 0.001028
109 0.00199
113 0.002993
112 0.003019
112 0.002995
120 0.00304
121 0.003022
116 0.001983
118 0.001987
123 0.001979
132 0.003991
139 0.00401
148 0.001987
152 0.002014
157 0.001979
162 0.003992
167 0.003965
175 0.003004
180 0.003006
186 0.001032
192 0.001015
197 0.002003
202 0.004029
206 0.003991
150 0.001984
105 0.001994
92 0.001947
100 0.004025
112 0.00399
115 0.004027
115 0.004039
120 0.001989
120 0.002001
115 0.001996
110 0.003989
111 0.00399
120 0.001996
125 0.002017
132 0.001999
139 0.003995
142 0.00399
150 0.003989
153 0.00399
158 0.002002
162 0.001983
165 0.00298
170 0.004999
175 0.004987
155 0.002994
105 0.002983
77 0.002049
75 0.003986
86 0.003989
98 0.003989
99 0.00403
107 0.002006
108 0.002976
102 0.00299
98 0.004986
100 0.005033
108 0.002982
116 0.002986
125 0.002981
131 0.00497
136 0.004994
145 0.004993
149 0.004996
156 0.003032
160 0.003037
166 0.003024
171 0.004986
176 0.004988
178 0.005024
122 0.002997
76 0.002982
59 0.002993
64 0.005017
77 0.002974
76 0.005983
78 0.005977
83 0.003991
85 0.003988
82 0.00399
79 0.005993
80 0.005987
89 0.003002
97 0.002992
104 0.003002
111 0.004996
121 0.002996
128 0.005979
133 0.005983
140 0.003989
145 0.003956
150 0.003962
155 0.005984
160 0.005984
159 0.004001
107 0.004008
63 0.003987
48 0.005944
60 0.00399
66 0.005985
67 0.005979
71 0.003988
76 0.003987
77 0.003989
75 0.006018
73 0.005998
78 0.003995
86 0.004992
96 0.004946
103 0.00698
116 0.003986
123 0.006968
129 0.006972
138 0.004979
144 0.003988
149 0.003992
155 0.005993
162 0.005991
169 0.003984
175 0.003999
147 0.004984
91 0.006986
59 0.004991
68 0.006984
80 0.007945
84 0.004996
84 0.004987
90 0.00498
94 0.006994
91 0.006977
87 0.004989
91 0.004989
100 0.005001
108 0.006943
117 0.001963
129 0.006985
136 0.00697
143 0.004981
147 0.004964
152 0.004987
157 0.004959
162 0.00698
168 0.006981
162 0.005956
113 0.005995
77 0.006024
76 0.006012
90 0.005019
98 0.007036
100 0.006971
109 0.004996
111 0.004982
107 0.004994
101 0.006952
104 0.007962
111 0.005972
120 0.006016
129 0.004978
140 0.005973
147 0.005986
153 0.007976
157 0.007971
165 0.005987
170 0.005022
174 0.00501
181 0.007939
185 0.007973
156 0.005958
101 0.005957
70 0.005989
74 0.005977
81 0.005981
83 0.007931
82 0.007978
88 0.005007
92 0.006947
91 0.006951
87 0.006982
88 0.006982
96 0.006986
105 0.005983
112 0.005975
125 0.00599
131 0.005946
139 0.007953
144 0.007961
149 0.005961
153 0.005982
159 0.00698
166 0.006957
172 0.00697
175 0.006978
131 0.006978
94 0.006955
58 0.006949
68 0.006982
73 0.007979
76 0.007983
75 0.006956
82 0.006973
88 0.006942
85 0.006945
84 0.00693
86 0.00695
92 0.006979
100 0.006978
118 0.006933
126 0.006972
133 0.006941
139 0.006944
145 0.00597
153 0.00694
156 0.006955
162 0.006943
168 0.006939
173 0.006967
179 0.006985
186 0.00697
123 0.006971
68 0.00696
62 0.006982
72 0.005963
82 0.005995
83 0.005989
86 0.005993
92 0.005983
92 0.005974
87 0.005981
84 0.006949
86 0.006948
98 0.006963
104 0.006976
118 0.005985
124 0.005977
131 0.005974
138 0.006006
144 0.005973
149 0.005986
154 0.005998
158 0.006025
167 0.005977
161 0.005977
79 0.005985
58 0.004982
63 0.004975
77 0.005962
85 0.005974
89 0.005983
97 0.00597
100 0.005984
96 0.005945
90 0.005976
93 0.006008
100 0.005983
116 0.004999
125 0.004982
134 0.004987
143 0.004953
149 0.004998
157 0.005957
162 0.004986
167 0.004948
172 0.005976
177 0.005977
183 0.004978
147 0.005046
67 0.004918
57 0.004973
64 0.004984
72 0.004981
73 0.00494
73 0.004943
81 0.004935
86 0.004959
84 0.004984
82 0.004987
84 0.004961
92 0.003992
111 0.004979
121 0.004985
130 0.004995
137 0.004959
146 0.004955
153 0.004987
162 0.005984
166 0.014989
175 0.004986
182 0.004987
189 0.004953
167 0.003984
97 0.003986
72 0.004984
78 0.00503
88 0.004982
92 0.004987
92 0.004952
99 0.004987
107 0.00499
107 0.004017
104 0.004016
104 0.003944
113 0.003949
126 0.004971
138 0.004954
146 0.003991
154 0.004026
161 0.003994
168 0.003989
177 0.003991
184 0.004959
190 0.00399
194 0.003965
202 0.003995
204 0.004004
146 0.003962
101 0.003952
102 0.00393
114 0.003939
121 0.003983
123 0.003954
126 0.00397
130 0.003957
130 0.002959
126 0.002961
122 0.002969
127 0.00296
140 0.002993
150 0.003989
158 0.003938
163 0.003957
166 0.003954
171 0.003948
178 0.00399
183 0.002942
189 0.003016
187 0.002985
150 0.003017
108 0.002971
110 0.002992
129 0.003991
134 0.001961
138 0.003953
144 0.003992
149 0.003948
145 0.003959
141 0.002966
143 0.002956
150 0.002994
157 0.002994
165 0.002982
171 0.002972
176 0.002981
181 0.003949
185 0.002982
190 0.002964
196 0.002946
197 0.001993
147 0.001993
110 0.001995
100 0.001995
109 0.001962
117 0.00198
117 0.00298
118 0.002977
124 0.002996
124 0.002007
120 0.001976
118 0.001976
121 0.001997
131 0.001998
138 0.001995
144 0.001955
147 0.00197
152 0.001949
161 0.002002
165 0.002003
168 0.000956
172 0.000987
177 0.001973
174 0.001996
133 0.001961
83 0.002032
77 0.001962
83 0.002018
89 0.00198
89 0.001948
89 0.001958
95 0.000978
97 0.001025
95 0.00203
95 0.000998
98 0.001009
105 0.001021
116 0.001966
122 0.00201
129 0.00195
135 0.001985
139 0.001999
147 0.001986
152 0.001001
157 0.000998
162 0.000978
166 0.001004
170 0.001025
176 0.001996
183 0.001995
190 0.001034
195 0.000999
179 0.00199
125 0.00198
88 0.001971
95 0.001002
107 0.00101
107 0.000983
105 0.000991
109 0.000985
115 0.00103
112 0.000998
111 0.00096
113 0.0
117 0.001018
123 0.001992
135 0.000996
140 0.0
145 0.0
151 0.0
155 0.0
160 0.000998
166 0.001008
169 0.001029
174 0.000997
178 0.000998
183 0.000996
187 0.001008
197 0.0
185 0.0
138 0.0
105 0.0
110 0.0
124 0.0
133 0.0
133 0.0
137 0.0
143 0.0
140 0.000998
136 0.0
135 0.0
140 0.0
145 0.0
152 0.0
158 0.0
161 0.0
164 0.0
167 0.0
171 0.0
176 0.0
181 0.0
186 0.000998
158 0.000998
107 0.000962
99 0.0
108 0.001046
117 0.002033
122 0.0
124 0.0
128 0.0
130 0.002024
127 0.002026
120 0.0
121 0.0
130 0.0
137 0.0
143 0.0
146 0.002036
151 0.003009
155 0.000954
157 0.0
159 0.000997
162 0.001995
167 0.001995
172 0.0
175 0.0
118 0.000948
80 0.0
71 0.0
78 0.002021
86 0.002022
89 0.000998
88 0.0
90 0.000965
93 0.002021
92 0.002022
86 0.0
86 0.0
93 0.002035
102 0.0
108 0.0
113 0.0
118 0.002032
123 0.002022
129 0.0
134 0.0
138 0.0
141 0.002037
144 0.002022
151 0.001018
153 0.00202
98 0.00097
58 0.0
46 0.0
53 0.002033
62 0.002033
65 0.0
64 0.0
67 0.0
70 0.002036
66 0.002017
60 0.0
62 0.002022
70 0.0
76 0.000969
83 0.0
89 0.002021
94 0.002036
101 0.0
106 0.0
109 0.0
112 0.002029
117 0.001984
124 0.0
124 0.003017
65 0.0
32 0.0
28 0.0
38 0.002029
48 0.002038
54 0.00096
58 0.002003
63 0.0
62 0.001997
56 0.003017
52 0.001985
59 0.002035
71 0.002003
79 0.001997
85 0.002002
91 0.003023
97 0.002992
105 0.001999
110 0.00199
114 0.001995
121 0.002969
127 0.003029
132 0.001995
91 0.004015
33 0.002023
21 0.002025
28 0.001989
38 0.002986
44 0.003018
46 0.002001
50 0.001987
55 0.002019
54 0.003019
49 0.00302
51 0.002019
59 0.002994
69 0.003989
79 0.001995
86 0.002007
94 0.001038
102 0.004029
108 0.002993
115 0.002001
122 0.00201
127 0.001997
132 0.003003
138 0.00299
82 0.00302
38 0.00399
25 0.001994
35 0.002001
45 0.001993
50 0.00399
51 0.004011
60 0.001993
63 0.002001
60 0.001017
56 0.003965
60 0.004013
74 0.002989
84 0.002992
95 0.001993
104 0.00199
113 0.00198
119 0.004026
126 0.004029
136 0.002006
141 0.002014
147 0.00201
152 0.003997
159 0.004004
162 0.004987
111 0.005024
56 0.001983
50 0.00198
61 0.002004
72 0.004019
78 0.004019
82 0.001999
88 0.001963
88 0.002964
84 0.003984
80 0.004946
87 0.005024
96 0.004987
107 0.00296
114 0.002963
121 0.002022
126 0.005015
133 0.005019
140 0.002006
142 0.019947
145 0.0
153 0.000991
161 0.004994
138 0.004987
86 0.004986
57 0.002985
65 0.002956
79 0.002999
89 0.004988
94 0.004995
101 0.002001
104 0.002034
98 0.001998
93 0.005014
93 0.005995
105 0.004987
115 0.004987
122 0.005015
131 0.003001
137 0.002994
145 0.003003
151 0.004991
156 0.004986
164 0.002949
168 0.002976
175 0.002964
171 0.00598
87 0.002992
59 0.005984
59 0.005984
74 0.002957
80 0.002979
82 0.002992
86 0.004976
91 0.005013
91 0.002993
86 0.00401
85 0.003952
90 0.005994
104 0.003957
113 0.005985
120 0.006033
129 0.003037
137 0.002992
142 0.002988
148 0.006982
153 0.00698
160 0.004006
166 0.003999
172 0.003955
164 0.005987
77 0.003993
54 0.005984
58 0.006021
75 0.003999
80 0.003985
82 0.003987
86 0.005972
92 0.007005
91 0.00495
87 0.003967
88 0.004001
95 0.006968
111 0.003993
119 0.006003
127 0.00603
138 0.002992
145 0.003999
150 0.003979
157 0.006977
163 0.006985
169 0.004988
174 0.004982
181 0.004993
187 0.006983
143 0.003989
86 0.007026
60 0.007973
68 0.00498
79 0.003998
85 0.003998
86 0.006982
90 0.006975
92 0.004987
87 0.004983
80 0.004954
81 0.00697
95 0.005993
105 0.007021
114 0.007012
123 0.005985
131 0.004988
138 0.00503
144 0.004993
150 0.007979
155 0.006959
164 0.004989
171 0.004994
156 0.004978
71 0.004973
53 0.005978
60 0.006996
77 0.007984
83 0.005992
88 0.005024
96 0.004962
97 0.007969
92 0.007961
89 0.00498
93 0.004998
103 0.004991
121 0.005003
131 0.004988
139 0.006981
151 0.007979
158 0.005984
165 0.005982
169 0.005985
175 0.007969
181 0.007967
184 0.005983
184 0.005988
144 0.005997
54 0.005986
42 0.006013
55 0.007952
65 0.006982
67 0.006021
69 0.005999
77 0.005996
82 0.00797
80 0.007967
78 0.005978
82 0.005995
91 0.005952
109 0.005972
119 0.006008
131 0.007981
140 0.008017
150 0.00697
154 0.00597
164 0.006949
169 0.006968
174 0.006984
180 0.005961
187 0.00599
194 0.005973
184 0.005984
97 0.006978
60 0.006984
56 0.007026
71 0.006963
77 0.006973
78 0.006966
81 0.006997
88 0.006979
89 0.006957
85 0.006976
83 0.005987
97 0.006952
109 0.006955
120 0.006985
131 0.006954
141 0.006967
149 0.006946
160 0.006948
168 0.006973
174 0.007018
178 0.007023
181 0.008939
185 0.0
202 0.005985
203 0.00599
153 0.005997
89 0.006029
63 0.00599
71 0.005978
85 0.005976
93 0.006972
98 0.00698
106 0.007017
114 0.006964
110 0.006
102 0.005957
109 0.005998
119 0.005986
129 0.005986
140 0.005983
148 0.006011
155 0.005986
160 0.005982
169 0.005951
174 0.005976
181 0.005985
187 0.005997
187 0.005961
134 0.006021
84 0.006019
67 0.005978
73 0.005995
90 0.005996
96 0.005963
98 0.005986
105 0.005991
109 0.005016
103 0.004987
96 0.004949
103 0.004977
113 0.004986
124 0.004983
135 0.005963
142 0.005992
153 0.005952
160 0.005983
164 0.005016
171 0.005015
177 0.004988
184 0.004985
190 0.004988
197 0.004962
152 0.004946
89 0.00399
59 0.003989
59 0.00399
77 0.005984
81 0.004987
80 0.004988
85 0.004986
92 0.004979
92 0.004988
88 0.005
92 0.004993
101 0.004989
111 0.004939
120 0.004985
130 0.00497
138 0.004989
146 0.003991
154 0.003961
161 0.00399
167 0.003985
172 0.003983
180 0.003992
186 0.004947
196 0.004995
204 0.004995
206 0.004959
157 0.00395
97 0.004958
68 0.003999
76 0.003991
87 0.00399
92 0.003949
91 0.003988
97 0.00399
102 0.004987
97 0.004986
95 0.002991
99 0.004021
107 0.003981
116 0.003993
129 0.003985
137 0.003955
144 0.003952
149 0.00399
156 0.003996
164 0.003956
171 0.003986
176 0.004013
182 0.00399
187 0.003982
194 0.002956
201 0.00295
175 0.003006
110 0.003006
77 0.00298
78 0.003929
92 0.004002
104 0.003981
109 0.003941
116 0.003948
117 0.002969
111 0.00399
106 0.002952
105 0.00295
116 0.002984
126 0.002982
135 0.002987
141 0.00298
148 0.002987
155 0.003961
161 0.003957
167 0.003964
172 0.003954
176 0.002948
181 0.003014
185 0.00298
135 0.002979
84 0.002984
67 0.003028
74 0.003005
86 0.002977
93 0.002966
96 0.002997
106 0.002991
105 0.002002
98 0.002046
95 0.001956
99 0.001998
107 0.001982
119 0.003009
127 0.002988
133 0.002981
139 0.002978
146 0.002968
154 0.002967
158 0.001973
165 0.002042
169 0.001994
174 0.001994
180 0.001969
159 0.00205
80 0.001997
53 0.001972
51 0.001983
62 0.001955
70 0.002
69 0.00202
76 0.001989
79 0.001989
77 0.001961
73 0.002
74 0.00199
79 0.002001
92 0.002011
99 0.00202
107 0.000995
114 0.001993
121 0.001986
124 0.000971
133 0.0
147 0.001966
152 0.001936
157 0.001973
164 0.00201
148 0.00198
86 0.000955
45 0.000985
37 0.001984
46 0.001991
60 0.000998
59 0.001986
64 0.001001
71 0.001004
69 0.001007
62 0.001987
61 0.001991
69 0.001977
78 0.001964
88 0.001963
96 0.001988
103 0.000954
113 0.000995
119 0.000965
127 0.001996
131 0.001031
136 0.0
141 0.001959
146 0.001985
157 0.002031
165 0.002023
136 0.000961
74 0.001018
43 0.001036
50 0.000991
63 0.000995
70 0.001021
72 0.000993
80 0.000976
80 0.002001
75 0.001993
68 0.00099
73 0.001982
80 0.0
90 0.0
98 0.0
108 0.0
115 0.000981
121 0.0
127 0.001001
132 0.001006
139 0.000998
146 0.0
148 0.001
93 0.0
46 0.0
27 0.0
34 0.0
50 0.0
53 0.0
56 0.000963
65 0.0
67 0.0
62 0.0
60 0.0
67 0.0
81 0.0
89 0.0
99 0.0
108 0.0
121 0.0
129 0.0
133 0.0
143 0.0
149 0.0
157 0.0
151 0.000998
99 0.000999
41 0.000998
33 0.002996
44 0.0
51 0.0
55 0.0
65 0.0
75 0.0
80 0.001984
78 0.002015
82 0.0
87 0.000995
98 0.00102
109 0.0
122 0.001987
137 0.000997
146 0.0
150 0.0
152 0.0
159 0.0
164 0.00199
168 0.001999
124 0.0
84 0.0
71 0.0
81 0.001969
96 0.001987
105 0.0
109 0.00096
124 0.0
126 0.000988
120 0.000989
118 0.002998
123 0.003015
140 0.0
150 0.0
159 0.0
167 0.0
174 0.002013
181 0.002001
191 0.0
198 0.001986
154 0.0
113 0.001003
101 0.00101
108 0.001976
123 0.002
132 0.000968
136 0.001018
145 0.000997
147 0.00299
143 0.003037
136 0.0
141 0.002978
155 0.0
165 0.0
173 0.0
182 0.001994
190 0.001996
200 0.0
206 0.0
174 0.000998
127 0.001995
111 0.001995
123 0.000986
145 0.001993
157 0.0
168 0.0
178 0.0
179 0.002988
175 0.002983
175 0.0
182 0.0
192 0.0
201 0.001988
205 0.001958
214 0.0
222 0.001985
229 0.0
202 0.0
163 0.0
148 0.002982
151 0.002991
169 0.0
176 0.0
180 0.001993
189 0.001996
194 0.001984
191 0.003004
186 0.0
190 0.001979
192 0.018907
199 0.000997
224 0.001001
232 0.001985
234 0.00198
238 0.001998
243 0.003951
236 0.002997
173 0.001972
145 0.00402
158 0.002004
166 0.000962
169 0.0
169 0.002977
173 0.002993
179 0.000969
180 0.00096
177 0.002964
174 0.003032
176 0.00399
181 0.002993
191 0.003965
196 0.003953
202 0.001994
208 0.001986
215 0.001989
221 0.003023
225 0.003011
166 0.001995
234 0.001995
238 0.002991
242 0.003991
246 0.00399
255 0.003988
255 0.004
255 0.001982
201 0.001996
198 0.001997
167 0.004
145 0.003988
143 0.001996
150 0.001992
154 0.001985
154 0.003978
154 0.003975
156 0.003982
158 0.004007
159 0.002984
159 0.002987
159 0.002001
161 0.004982
164 0.004949
168 0.002007
170 0.001999
172 0.001969
174 0.005002
176 0.004992
178 0.005017
179 0.004025
182 0.001996
184 0.00202
185 0.003002
187 0.003988
190 0.003992
192 0.002997
194 0.002021
181 0.002985
156 0.004975
147 0.004951
155 0.005015
160 0.004996
163 0.001997
162 0.002012
163 0.001997
166 0.004987
168 0.004982
167 0.002965
167 0.002986
169 0.002992
171 0.004989
174 0.005005
178 0.005023
180 0.004967
183 0.002021
184 0.001958
186 0.001955
188 0.005988
189 0.005974
192 0.00294
194 0.002967
196 0.002966
196 0.002967
198 0.004987
190 0.002989
164 0.004995
154 0.004992
158 0.003981
165 0.003945
170 0.002956
222 0.005992
223 0.005954
57 0.002994
232 0.002984
57 0.003002
229 0.005959
57 0.002957
234 0.00598
239 0.004984
191 0.002998
193 0.00396
195 0.00399
197 0.005983
198 0.006013
201 0.002991
202 0.003021
203 0.003014
205 0.005975
189 0.003004
165 0.005979
159 0.005984
166 0.002995
174 0.003993
179 0.003991
181 0.005974
182 0.00598
185 0.002992
185 0.003989
183 0.003975
181 0.005997
183 0.003961
185 0.005995
187 0.005984
190 0.003987
192 0.003963
193 0.003989
195 0.006983
197 0.006981
198 0.003985
200 0.004007
193 0.003024
165 0.005984
156 0.003995
162 0.005987
170 0.006977
176 0.005
178 0.003964
180 0.004997
182 0.006974
180 0.006992
176 0.00402
177 0.003979
178 0.004017
180 0.006988
183 0.004008
185 0.007982
185 0.007969
189 0.004981
190 0.005005
192 0.004939
194 0.006976
178 0.006983
151 0.004975
150 0.004996
157 0.003995
164 0.003977
171 0.004986
174 0.005014
177 0.007941
174 0.007982
170 0.00396
169 0.004949
214 0.004988
217 0.006977
222 0.007005
227 0.00398
231 0.003989
234 0.004986
240 0.005029
189 0.005973
188 0.00798
156 0.00797
143 0.004994
145 0.004992
153 0.005007
160 0.007976
166 0.00797
170 0.005951
172 0.004989
169 0.005979
163 0.00599
162 0.005985
164 0.007971
165 0.007969
167 0.00597
169 0.006007
170 0.004995
172 0.00798
173 0.007937
175 0.004994
163 0.005983
138 0.005982
129 0.008978
133 0.0
142 0.002992
154 0.000981
155 0.005979
149 0.007967
148 0.007961
148 0.006956
151 0.006016
153 0.006009
156 0.005993
158 0.005949
160 0.006987
161 0.006966
152 0.005985
127 0.005977
117 0.00598
122 0.005977
130 0.006948
137 0.00697
140 0.006962
144 0.006983
138 0.006979
134 0.006943
131 0.006994
133 0.007007
136 0.005978
138 0.005933
140 0.005946
142 0.006982
143 0.006015
144 0.005983
137 0.006023
111 0.005969
95 0.006981
101 0.006951
106 0.006976
103 0.006979
106 0.006976
109 0.006011
106 0.005974
95 0.00598
90 0.00601
89 0.005986
93 0.006006
97 0.005985
103 0.005974
106 0.005986
107 0.00601
110 0.00701
95 0.007013
44 0.006971
33 0.006931
35 0.005984
44 0.006015
49 0.006021
51 0.005982
52 0.006013
44 0.005983
37 0.00594
35 0.005972
38 0.005984
41 0.005988
45 0.004992
48 0.004959
48 0.004983
51 0.006017
52 0.005986
31 0.005941
0 0.005986
51 0.005932
55 0.006012
58 0.005992
59 0.005029
60 0.004972
61 0.004991
58 0.00499
55 0.005022
54 0.005004
55 0.00504
57 0.005017
59 0.004986
61 0.004972
63 0.00601
65 0.006013
67 0.005017
64 0.005029
40 0.004989
30 0.004969
29 0.005031
34 0.005014
37 0.004989
37 0.004987
39 0.00496
38 0.004986
36 0.004981
35 0.004959
37 0.003994
39 0.003962
43 0.004986
45 0.004984
47 0.004992
50 0.004986
52 0.005021
55 0.004992
57 0.005952
36 0.004986
21 0.003988
20 0.00396
24 0.00398
29 0.003991
32 0.003992
34 0.003993
36 0.004954
36 0.004974
34 0.004988
33 0.004988
37 0.004038
42 0.004004
47 0.004958
49 0.003951
53 0.00395
56 0.00399
59 0.003962
62 0.004003
66 0.004006
62 0.003987
44 0.003959
33 0.00399
34 0.004946
42 0.004009
46 0.003954
0 0.003961
0 0.003978
0 0.008007
25 0.004018
26 0.003962
31 0.003967
38 0.003953
45 0.003987
49 0.003946
53 0.003962
57 0.002966
61 0.002964
65 0.002991
70 0.003
75 0.00302
81 0.002982
82 0.003987
58 0.003953
34 0.00399
27 0.003989
31 0.002993
35 0.002993
37 0.00298
41 0.00298
45 0.003001
47 0.002977
47 0.00299
49 0.002992
56 0.003941
61 0.00395
67 0.00395
73 0.002994
79 0.002992
85 0.002995
93 0.00303
98 0.003019
103 0.003018
107 0.002984
111 0.003029
116 0.003018
122 0.002988
126 0.003008
131 0.001995
121 0.001997
95 0.001987
78 0.001995
82 0.001994
86 0.001996
86 0.001994
86 0.002994
90 0.002989
92 0.001993
92 0.003036
92 0.002968
95 0.002005
99 0.00199
103 0.002029
109 0.002012
115 0.002032
119 0.002039
124 0.002005
128 0.001994
132 0.001979
135 0.001996
138 0.001049
142 0.002
146 0.002024
149 0.001969
153 0.001996
157 0.002032
162 0.002045
166 0.001993
151 0.001987
123 0.001976
109 0.001996
109 0.002021
114 0.001027
118 0.000999
117 0.001024
117 0.000993
119 0.000997
118 0.001997
115 0.002022
115 0.002023
119 0.001995
123 0.001995
127 0.001981
130 0.000998
134 0.001001
139 0.000969
141 0.001994
144 0.001997
146 0.000997
148 0.002005
154 0.002022
157 0.002028
161 0.001999
164 0.001996
151 0.001036
128 0.000999
116 0.000998
120 0.000998
127 0.000994
131 0.000997
132 0.000998
135 0.002029
135 0.002044
131 0.002031
130 0.002031
133 0.00199
136 0.0
141 0.0
144 0.000995
148 0.000997
151 0.000998
154 0.001005
157 0.000997
159 0.000997
163 0.0
166 0.001026
168 0.00101
171 0.001025
162 0.0
136 0.0
116 0.0
113 0.0
110 0.0
115 0.0
115 0.0
116 0.0
123 0.0
120 0.00099
116 0.000998
115 0.0
120 0.0
127 0.0
136 0.0
141 0.0
148 0.0
156 0.0
162 0.0
166 0.0
172 0.0
178 0.0
182 0.001011
188 0.001006
193 0.001011
170 0.0
114 0.0
78 0.0
74 0.0
82 0.001998
88 0.0
86 0.000978
91 0.001027
94 0.0
90 0.00097
87 0.003037
87 0.002999
94 0.0
103 0.0
110 0.0
115 0.003003
122 0.001994
131 0.0
135 0.000953
144 0.000996
148 0.001002
154 0.0
158 0.002994
164 0.001002
165 0.0
71 0.0
50 0.002992
60 0.0
62 0.0
68 0.0
73 0.0
69 0.0
64 0.002963
62 0.001996
70 0.000992
79 0.0
88 0.0
97 0.002975
104 0.002993
113 0.0
118 0.0
126 0.0
133 0.001
140 0.001004
146 0.002965
151 0.001997
125 0.002004
54 0.0
32 0.000961
38 0.000943
52 0.001998
61 0.003001
68 0.00097
75 0.002972
74 0.0
66 0.0
64 0.0
68 0.003019
76 0.003008
90 0.0
99 0.0
106 0.0
113 0.001984
120 0.002004
129 0.0
137 0.002006
144 0.0
151 0.0
150 0.0
97 0.002956
42 0.002981
19 0.0
26 0.000965
39 0.0
41 0.002975
44 0.002923
53 0.000962
60 0.002987
52 0.000961
52 0.000973
58 0.000998
67 0.002983
77 0.001984
92 0.0
100 0.0
109 0.0
118 0.003012
125 0.002985
135 0.0
145 0.002992
155 0.0
142 0.0
81 0.000955
29 0.001985
12 0.002957
24 0.000999
32 0.0
36 0.0
39 0.00301
47 0.002993
53 0.0
48 0.002984
47 0.0
53 0.001963
64 0.0
74 0.003013
84 0.003006
97 0.0
107 0.002987
115 0.003006
122 0.00296
129 0.002932
138 0.00297
147 0.002994
156 0.002031
112 0.001976
45 0.002
11 0.002993
10 0.00401
26 0.001993
34 0.001995
38 0.002988
45 0.002979
50 0.003992
48 0.00398
39 0.003985
42 0.003997
52 0.002995
64 0.002994
75 0.001995
85 0.003987
95 0.004016
106 0.001996
114 0.002005
120 0.001986
129 0.003988
139 0.003991
87 0.003989
30 0.003991
2 0.001998
13 0.002992
30 0.002997
39 0.003989
47 0.004008
61 0.002995
63 0.002013
56 0.002012
54 0.003998
59 0.00397
79 0.003985
90 0.004
104 0.002985
115 0.002994
125 0.002993
135 0.004986
143 0.00498
155 0.002966
163 0.002985
170 0.003002
180 0.003964
153 0.004011
38 0.003992
12 0.004976
22 0.003026
32 0.001996
37 0.001979
40 0.005019
48 0.004987
55 0.003002
53 0.003012
50 0.003
53 0.00504
63 0.00499
83 0.004992
94 0.004985
109 0.002996
120 0.001988
130 0.002986
140 0.004983
149 0.004997
159 0.001981
167 0.003012
177 0.002001
185 0.005022
155 0.004987
42 0.005015
20 0.005984
31 0.001973
42 0.003012
46 0.021881
48 0.00202
60 0.004988
66 0.004997
63 0.002979
59 0.002036
61 0.00202
70 0.004994
91 0.002989
103 0.005996
115 0.005987
130 0.003
139 0.002992
148 0.002992
156 0.005972
162 0.005973
173 0.002984
180 0.002987
190 0.003008
186 0.006964
69 0.003977
29 0.005972
28 0.005978
48 0.00298
60 0.004004
63 0.003034
70 0.005987
76 0.005984
70 0.002993
62 0.003985
64 0.003986
74 0.006972
94 0.003997
108 0.006971
119 0.006955
135 0.002992
144 0.003991
153 0.003035
161 0.006015
171 0.005978
178 0.00295
133 0.003985
64 0.003987
29 0.00696
40 0.003993
56 0.006977
65 0.006982
80 0.003996
88 0.003033
87 0.003987
80 0.006978
77 0.007016
86 0.005
99 0.003987
113 0.005054
125 0.006971
144 0.003998
154 0.006969
163 0.006961
179 0.003988
186 0.003998
195 0.003993
204 0.006978
187 0.007019
79 0.00399
26 0.004959
16 0.004981
27 0.007932
44 0.003995
46 0.006982
54 0.007004
65 0.003978
65 0.003978
61 0.00496
61 0.004958
73 0.007977
87 0.004975
99 0.00496
112 0.004953
125 0.00499
144 0.004996
155 0.004988
164 0.007975
174 0.007963
183 0.004985
192 0.004994
202 0.004955
164 0.007945
106 0.007974
27 0.004984
18 0.004999
32 0.005019
49 0.004977
51 0.004992
63 0.007952
69 0.007943
68 0.005011
64 0.002992
64 0.005985
78 0.006951
92 0.006956
106 0.00503
119 0.004979
132 0.005978
150 0.005015
160 0.004993
171 0.007963
176 0.007968
186 0.004986
194 0.004987
201 0.005983
214 0.006945
186 0.006946
98 0.005966
38 0.005982
25 0.005992
52 0.005999
62 0.00599
70 0.007021
78 0.006999
81 0.005017
75 0.006016
66 0.005959
68 0.006947
78 0.006934
93 0.005984
110 0.005984
122 0.006026
144 0.005982
150 0.005931
162 0.006981
171 0.006971
182 0.006015
193 0.00602
197 0.006971
124 0.006967
53 0.006945
26 0.006952
41 0.006956
54 0.00597
74 0.00598
85 0.005964
97 0.006018
91 0.00601
80 0.005963
83 0.00602
92 0.005974
101 0.006935
120 0.005971
133 0.005972
148 0.006967
155 0.005983
178 0.005981
182 0.005958
194 0.00598
203 0.005983
212 0.005985
151 0.005983
92 0.003989
28 0.004989
15 0.005991
29 0.00595
41 0.005973
42 0.005972
57 0.005973
62 0.004989
59 0.005984
54 0.005986
58 0.00601
62 0.009973
71 0.0
92 0.000994
126 0.005966
143 0.00598
154 0.004941
170 0.004988
177 0.004958
186 0.004981
196 0.004037
197 0.005017
102 0.004952
31 0.005025
7 0.005028
13 0.00595
26 0.005985
33 0.005985
35 0.004986
52 0.004984
55 0.005045
51 0.004985
47 0.005024
53 0.004992
72 0.004946
85 0.004995
100 0.004963
113 0.004979
126 0.004961
141 0.006002
151 0.005994
165 0.004985
174 0.004987
182 0.004964
193 0.004976
192 0.005014
94 0.004935
29 0.004966
11 0.004958
23 0.005989
40 0.00499
49 0.005996
55 0.005012
69 0.003962
65 0.003988
57 0.00398
54 0.004018
64 0.005037
84 0.004959
98 0.004949
110 0.004936
123 0.00496
135 0.003963
144 0.004986
159 0.004983
169 0.004023
185 0.004001
178 0.003933
112 0.003997
49 0.004986
27 0.004028
43 0.00498
61 0.004962
69 0.004986
78 0.003989
89 0.004025
92 0.003989
83 0.003987
85 0.003993
95 0.003987
110 0.003988
124 0.003989
136 0.003978
151 0.003988
163 0.00402
173 0.003025
182 0.002992
190 0.002992
203 0.004992
215 0.003965
214 0.003962
144 0.003943
64 0.004028
29 0.003984
30 0.004017
49 0.004018
54 0.002992
54 0.002965
63 0.002987
75 0.002992
74 0.003988
68 0.003027
73 0.00399
87 0.002994
102 0.003958
115 0.00302
129 0.003022
146 0.002959
155 0.002967
165 0.002993
174 0.002993
183 0.002994
192 0.002992
203 0.002991
217 0.002993
187 0.003028
98 0.002991
38 0.003019
23 0.003026
40 0.001996
50 0.002038
53 0.001994
59 0.00299
69 0.001993
73 0.003019
63 0.002994
63 0.003003
71 0.00298
85 0.002989
100 0.001999
114 0.002018
125 0.001996
140 0.001997
150 0.001991
157 0.002023
164 0.002019
172 0.002026
188 0.002038
191 0.002039
104 0.001952
39 0.00203
18 0.001983
29 0.002036
46 0.002029
60 0.002028
68 0.001996
79 0.002025
82 0.002043
75 0.001023
68 0.001009
77 0.001033
94 0.001992
109 0.001986
123 0.000957
134 0.001033
144 0.002047
160 0.002033
168 0.002046
176 0.001996
186 0.002046
197 0.002035
152 0.001036
67 0.000998
16 0.001995
22 0.000997
38 0.000951
49 0.000998
54 0.002037
67 0.001978
75 0.002026
73 0.002022
65 0.002036
63 0.001027
78 0.000997
92 0.001028
110 0.002022
122 0.00103
133 0.000998
143 0.000997
152 0.002023
164 0.002024
168 0.014961
173 0.0
185 0.0
104 0.0
3 0.0
0 0.0
16 0.000969
26 0.001003
28 0.0
39 0.001008
51 0.000999
52 0.000998
47 0.0
46 0.000996
52 0.000998
64 0.0
88 0.0
102 0.0
119 0.0
130 0.0
141 0.0
152 0.0
163 0.0
171 0.0
186 0.0
166 0.0
79 0.0
16 0.0
6 0.0
24 0.0
37 0.0
44 0.0
55 0.0
63 0.0
59 0.0
51 0.0
52 0.000998
61 0.000998
73 0.000997
89 0.000998
111 0.000961
125 0.000968
135 0.00097
144 0.001992
154 0.0
168 0.000961
170 0.001009
136 0.000996
37 0.003023
7 0.00304
22 0.0
42 0.0
61 0.0
74 0.0
83 0.0
79 0.003021
70 0.003019
69 0.000995
82 0.000992
95 0.000969
110 0.002023
124 0.001985
142 0.000998
152 0.0
170 0.0
180 0.0
190 0.0
200 0.002989
181 0.003036
68 0.0
13 0.0
4 0.0
19 0.00302
33 0.003041
41 0.000952
52 0.00097
69 0.000998
66 0.0
60 0.001003
62 0.002033
72 0.003019
93 0.0
108 0.0
121 0.0
136 0.003019
151 0.003029
166 0.0
177 0.0
186 0.003002
200 0.0
200 0.0
132 0.0
48 0.001993
7 0.001988
