68 0.023967
72 0.008003
83 0.007952
98 0.007979
120 0.006982
130 0.006971
135 0.00699
129 0.006995
126 0.006963
129 0.006984
136 0.006954
143 0.006985
148 0.00698
152 0.005997
159 0.005994
159 0.006982
106 0.006982
59 0.00701
45 0.006982
50 0.007036
69 0.007012
88 0.007014
103 0.006023
115 0.006947
124 0.00598
128 0.005984
124 0.005984
122 0.006035
125 0.007022
133 0.006982
139 0.006981
145 0.005983
154 0.005988
159 0.005985
125 0.005984
68 0.006021
47 0.005993
47 0.006981
58 0.006982
74 0.006981
88 0.005981
100 0.006029
112 0.006024
123 0.00697
124 0.005984
122 0.005984
122 0.005981
126 0.004987
135 0.006941
142 0.006977
150 0.005982
155 0.005984
162 0.006028
166 0.005841
154 0.005989
75 0.005954
48 0.00598
55 0.006026
67 0.005983
84 0.005087
98 0.005963
109 0.005991
122 0.005025
129 0.005945
129 0.00599
124 0.006022
126 0.006017
132 0.006027
141 0.005983
151 0.006037
157 0.005984
162 0.006025
166 0.005984
169 0.005984
167 0.005984
109 0.004987
61 0.005094
48 0.004964
53 0.004985
66 0.004961
91 0.004963
105 0.004991
120 0.005029
129 0.005984
130 0.005027
126 0.004997
126 0.004983
132 0.006015
138 0.006028
147 0.005986
155 0.004985
161 0.004905
167 0.005028
170 0.005026
157 0.004987
91 0.005017
56 0.004985
50 0.004989
58 0.003989
75 0.004023
91 0.00399
106 0.005036
116 0.004992
124 0.00502
121 0.004987
116 0.004987
117 0.004987
122 0.004987
130 0.004992
138 0.004987
146 0.004985
154 0.004958
159 0.004991
161 0.004987
115 0.004987
64 0.00498
48 0.003989
56 0.003998
74 0.004964
86 0.004955
98 0.004988
111 0.005061
119 0.004987
123 0.004985
121 0.004983
119 0.004984
121 0.004954
127 0.003953
140 0.003994
146 0.003948
153 0.003992
159 0.003991
164 0.003996
167 0.003986
162 0.003984
85 0.003947
55 0.003948
47 0.003991
54 0.003992
75 0.003007
87 0.004049
100 0.003995
113 0.003991
121 0.00399
122 0.003939
119 0.003997
116 0.004009
122 0.002969
129 0.002977
135 0.002999
144 0.002959
155 0.00399
162 0.003954
166 0.00399
171 0.003986
175 0.00395
177 0.004006
178 0.004011
171 0.003975
107 0.00395
55 0.003966
51 0.003943
60 0.003997
86 0.003954
99 0.002992
111 0.003006
123 0.002993
133 0.002953
132 0.002992
127 0.003012
125 0.002992
127 0.002984
137 0.003955
145 0.003956
153 0.00299
164 0.004052
169 0.002992
171 0.003956
174 0.002993
176 0.002992
178 0.002963
179 0.002989
178 0.002992
134 0.003027
64 0.002987
54 0.002992
61 0.002992
88 0.002992
103 0.002991
118 0.001995
131 0.001995
138 0.004027
138 0.002029
133 0.001993
126 0.002968
126 0.002
135 0.002993
142 0.003029
147 0.002995
157 0.002985
161 0.002992
166 0.002992
168 0.003031
169 0.002984
145 0.002989
79 0.002031
50 0.001995
49 0.001985
69 0.001993
87 0.002001
104 0.001997
125 0.00203
135 0.001995
142 0.001997
141 0.002992
137 0.001995
136 0.002999
138 0.001994
142 0.001987
150 0.002005
156 0.001995
160 0.001992
164 0.001949
169 0.001995
171 0.001995
155 0.001995
86 0.001995
47 0.000998
46 0.001996
55 0.001995
72 0.002004
88 0.000997
104 0.000997
117 0.000997
126 0.001994
129 0.001995
125 0.001995
123 0.001995
126 0.001994
134 0.001995
140 0.001962
148 0.001946
156 0.001988
163 0.001994
166 0.001995
171 0.002
172 0.001002
156 0.001006
88 0.000989
51 0.000998
46 0.000998
55 0.000997
75 0.000997
89 0.000994
105 0.000982
118 0.000994
126 0.000998
137 0.001015
139 0.000997
140 0.000998
140 0.000998
145 0.001028
150 0.000999
154 0.000998
160 0.00099
165 0.000995
166 0.000994
167 0.000997
169 0.000997
171 0.001008
158 0.000998
73 0.000967
48 0.000966
51 0.000942
64 0.000983
79 0.000997
99 0.001
110 0.000998
118 0.000993
123 0.0
124 0.0
117 0.0
114 0.000997
117 0.000998
127 0.0
141 0.000999
148 0.0
155 0.000997
160 0.000996
163 0.000998
161 0.000987
161 0.001028
139 0.0
57 0.000998
42 0.0
56 0.0
81 0.0
98 0.0
110 0.0
121 0.0
130 0.0
130 0.0
125 0.0
122 0.0
123 0.0
130 0.0
139 0.0
147 0.0
150 0.0
153 0.0
158 0.0
154 0.0
94 0.000975
53 0.000996
44 0.0
52 0.0
66 0.0
80 0.0
93 0.0
108 0.0
114 0.0
114 0.0
112 0.0
111 0.0
112 0.0
118 0.0
124 0.0
131 0.0
137 0.0
140 0.001
149 0.0
113 0.0
59 0.000998
41 0.000997
42 0.0
49 0.0
60 0.0
69 0.000997
78 0.001
90 0.0
100 0.0
102 0.001003
96 0.0
96 0.000999
100 0.000982
109 0.000966
116 0.001044
125 0.000998
134 0.001002
141 0.000992
146 0.001
154 0.0
156 0.000963
154 0.0
67 0.0
49 0.0
47 0.001995
55 0.001995
68 0.000998
77 0.001012
85 0.001033
96 0.001995
102 0.001997
107 0.001009
108 0.001
106 0.000998
111 0.0
116 0.000999
129 0.000998
137 0.001004
144 0.001014
149 0.000997
157 0.0
161 0.002036
166 0.001995
173 0.000933
177 0.001017
185 0.000999
187 0.000998
175 0.001
106 0.001995
67 0.001995
61 0.0
70 0.000986
80 0.001995
95 0.001994
106 0.00202
117 0.000997
124 0.000997
121 0.000991
116 0.000976
115 0.001002
119 0.001997
125 0.001991
137 0.000998
143 0.00102
149 0.002028
151 0.001992
155 0.003029
156 0.002032
158 0.002027
160 0.002026
155 0.001983
102 0.002009
50 0.001985
44 0.001995
52 0.001952
67 0.00103
77 0.002051
87 0.001993
98 0.003027
106 0.002999
112 0.00199
107 0.002992
107 0.002031
110 0.002029
117 0.002027
125 0.002028
133 0.001988
140 0.003025
145 0.003038
152 0.001997
156 0.003023
159 0.003027
162 0.001984
111 0.002992
54 0.002026
46 0.002041
51 0.002048
63 0.003034
74 0.00399
83 0.00303
93 0.002991
109 0.001996
115 0.003024
117 0.00303
114 0.002032
116 0.003
121 0.002035
129 0.002039
137 0.002036
145 0.003029
149 0.003913
158 0.003042
162 0.002038
164 0.002996
168 0.003026
171 0.004014
172 0.003032
135 0.004023
64 0.003032
53 0.002027
53 0.002031
63 0.003024
76 0.003026
88 0.004023
100 0.001974
109 0.003005
116 0.004021
119 0.004012
114 0.003025
116 0.00399
123 0.002974
130 0.002959
138 0.003025
145 0.003989
152 0.00399
158 0.003022
162 0.003026
165 0.004039
171 0.004014
173 0.004021
177 0.00402
177 0.003998
175 0.003021
122 0.002996
68 0.003028
55 0.004026
59 0.003989
73 0.004035
89 0.004049
104 0.004029
115 0.004995
122 0.00503
127 0.004022
122 0.003978
117 0.00399
118 0.003995
125 0.00302
132 0.003989
140 0.003999
150 0.00295
155 0.002993
160 0.002979
163 0.003994
164 0.005006
167 0.004021
169 0.005018
166 0.004986
98 0.004027
59 0.004015
52 0.003977
58 0.004988
70 0.005034
92 0.004042
104 0.004028
115 0.004029
124 0.005023
131 0.004987
127 0.005024
123 0.005019
125 0.00402
131 0.004028
137 0.003991
142 0.004987
149 0.005018
158 0.004028
161 0.003978
165 0.004025
169 0.00502
171 0.004029
156 0.005984
92 0.005984
55 0.005008
52 0.005021
61 0.005021
74 0.005984
88 0.004987
103 0.004071
114 0.00502
122 0.005026
127 0.005024
123 0.005022
122 0.00502
123 0.004986
131 0.004022
138 0.003987
144 0.003986
150 0.006019
155 0.005984
159 0.004993
163 0.004987
167 0.005021
166 0.006016
121 0.005006
65 0.005984
49 0.005977
52 0.005032
63 0.005006
77 0.005024
91 0.005984
101 0.005981
114 0.005019
120 0.006031
121 0.006023
117 0.005972
118 0.005027
122 0.005989
130 0.005991
138 0.005018
145 0.00502
150 0.004979
155 0.005984
159 0.005984
164 0.006036
167 0.006017
168 0.006018
155 0.006982
65 0.005982
51 0.005983
55 0.005994
70 0.005019
84 0.004973
98 0.005026
109 0.005984
118 0.006981
125 0.006031
124 0.006018
118 0.005974
118 0.006022
124 0.006019
132 0.006014
139 0.007018
144 0.006982
152 0.006015
156 0.006027
158 0.006016
162 0.007979
156 0.007014
85 0.006024
61 0.007023
57 0.006017
70 0.005986
80 0.007015
98 0.007013
108 0.006981
120 0.006003
124 0.005987
121 0.005991
117 0.007017
116 0.007022
118 0.006023
125 0.006024
136 0.006023
143 0.007026
148 0.006011
152 0.007979
156 0.008012
138 0.007014
80 0.007025
55 0.007014
51 0.006974
57 0.006993
68 0.007021
80 0.007025
101 0.005991
110 0.007031
112 0.005989
113 0.007949
110 0.007979
109 0.007015
114 0.006983
121 0.006989
128 0.007978
137 0.007972
143 0.007016
146 0.006983
154 0.007015
155 0.00699
129 0.007019
67 0.007976
56 0.007925
52 0.006943
56 0.007979
71 0.006981
79 0.007944
91 0.007977
100 0.007044
107 0.00695
108 0.00702
104 0.007013
105 0.006985
110 0.007944
117 0.007023
128 0.007016
134 0.007018
142 0.007017
145 0.007978
152 0.007964
156 0.007982
159 0.007024
165 0.007984
168 0.006949
164 0.007979
95 0.007979
65 0.007978
62 0.00698
69 0.006983
77 0.007979
88 0.007979
102 0.007957
110 0.006979
120 0.007015
118 0.006983
113 0.006979
113 0.007014
118 0.007011
127 0.007014
134 0.006982
144 0.007014
151 0.007013
155 0.006981
157 0.006985
161 0.006017
165 0.006979
169 0.007016
137 0.007013
85 0.006981
64 0.007027
62 0.006981
69 0.007013
85 0.007043
91 0.006997
99 0.006981
107 0.006968
116 0.006975
115 0.006988
112 0.007023
110 0.006029
115 0.005984
123 0.00707
130 0.006981
138 0.006019
147 0.006021
151 0.00602
153 0.006019
158 0.005971
161 0.005981
124 0.005993
69 0.006019
55 0.006003
62 0.006016
68 0.006013
76 0.006022
84 0.006981
96 0.007018
104 0.007016
110 0.005984
111 0.005944
108 0.006016
110 0.005985
115 0.005984
124 0.005984
132 0.006021
139 0.006019
146 0.006019
151 0.006018
155 0.00502
159 0.005012
162 0.005018
166 0.005984
168 0.006002
118 0.005988
73 0.006022
59 0.006034
62 0.006035
70 0.004982
81 0.005985
89 0.00499
98 0.006016
107 0.005984
114 0.004987
113 0.005963
110 0.005981
110 0.00602
115 0.006018
126 0.006021
133 0.004987
141 0.005022
150 0.004979
154 0.005022
159 0.005016
164 0.004988
166 0.005046
167 0.004985
171 0.005001
175 0.005027
179 0.006024
183 0.005
171 0.004985
109 0.006018
71 0.005021
61 0.005022
65 0.004987
79 0.00502
91 0.005036
99 0.004992
108 0.005001
121 0.004988
124 0.004973
120 0.00502
118 0.00502
121 0.004989
126 0.003998
133 0.004021
142 0.005018
150 0.004022
156 0.003957
162 0.00399
167 0.003989
173 0.00399
176 0.004039
178 0.00396
182 0.00396
183 0.003958
184 0.003961
184 0.00399
168 0.00399
87 0.003991
68 0.004991
69 0.003985
80 0.00495
105 0.005022
118 0.005061
128 0.00399
140 0.005024
143 0.004978
139 0.005021
133 0.004018
133 0.00399
136 0.003989
142 0.004034
151 0.003959
156 0.00399
163 0.003989
166 0.004017
169 0.003989
173 0.003991
174 0.00399
175 0.00302
161 0.003014
98 0.004
59 0.004024
60 0.003991
69 0.002991
83 0.003967
104 0.003991
115 0.00402
124 0.003989
131 0.003989
132 0.003989
130 0.003989
128 0.002992
130 0.003025
138 0.002997
143 0.002992
147 0.002965
153 0.003003
159 0.003024
162 0.003024
167 0.003975
168 0.003982
156 0.003147
96 0.00299
59 0.002992
51 0.002992
57 0.001995
76 0.002952
88 0.003989
107 0.003957
117 0.002994
125 0.002944
128 0.002941
125 0.002959
123 0.002992
124 0.003013
127 0.003007
134 0.002991
142 0.002992
147 0.002992
152 0.002987
158 0.003024
162 0.002992
163 0.002992
165 0.003026
157 0.00303
81 0.002992
52 0.001995
49 0.002028
57 0.001996
72 0.001995
89 0.001995
102 0.001965
119 0.002992
123 0.003046
124 0.002993
120 0.002992
118 0.002992
121 0.002039
126 0.002027
133 0.002002
140 0.001995
146 0.002036
152 0.002025
158 0.002039
164 0.001995
165 0.001995
166 0.002027
161 0.001995
106 0.002005
55 0.001998
52 0.002992
59 0.001995
74 0.001992
86 0.001995
106 0.002026
115 0.001992
128 0.001995
128 0.00195
126 0.001996
123 0.001995
126 0.001996
132 0.001969
139 0.000957
146 0.001008
150 0.000998
155 0.000997
160 0.002031
160 0.002014
164 0.00204
167 0.002026
152 0.001996
93 0.001995
61 0.002028
58 0.001996
70 0.001956
87 0.002027
100 0.002006
113 0.002051
124 0.000997
132 0.000998
135 0.000997
129 0.000997
126 0.000997
128 0.000997
132 0.000998
139 0.000997
147 0.000998
150 0.000997
155 0.000998
158 0.001008
161 0.000997
160 0.000951
107 0.001007
55 0.000998
50 0.000998
59 0.000992
71 0.000998
85 0.000997
100 0.001038
111 0.000998
119 0.000997
123 0.000996
121 0.001035
114 0.000968
116 0.000998
124 0.000997
132 0.000997
137 0.001005
143 0.0
149 0.0
154 0.0
157 0.0
152 0.0
93 0.0
53 0.0
47 0.0
58 0.0
75 0.0
85 0.0
95 0.0
106 0.0
112 0.0
114 0.000997
112 0.000998
110 0.000997
113 0.000949
116 0.0
128 0.0
135 0.0
142 0.0
147 0.0
152 0.0
155 0.0
159 0.0
149 0.0
89 0.0
53 0.0
43 0.0
47 0.0
64 0.0
76 0.0
85 0.001007
93 0.001009
102 0.000998
101 0.000942
100 0.000998
98 0.0
100 0.0
106 0.0
115 0.0
124 0.0
135 0.0
142 0.0
149 0.001029
155 0.00104
160 0.0
163 0.0
168 0.0
171 0.000998
173 0.000998
161 0.0
98 0.0
63 0.0
58 0.0
69 0.0
81 0.0
91 0.0
99 0.001006
111 0.0
115 0.0
116 0.0
115 0.000998
115 0.00097
119 0.0
127 0.0
142 0.0
149 0.0
156 0.0
162 0.001997
164 0.000997
172 0.000998
174 0.000997
178 0.0
181 0.001032
184 0.000998
185 0.0
184 0.0
121 0.001003
77 0.0
64 0.000943
68 0.001038
79 0.001005
98 0.000957
107 0.00102
117 0.001019
126 0.001995
128 0.001995
123 0.001024
119 0.000998
118 0.000999
123 0.000998
132 0.0
141 0.000992
146 0.000959
152 0.0
158 0.000994
163 0.001049
167 0.001988
170 0.002044
171 0.001031
170 0.001029
150 0.001037
87 0.001003
58 0.001
55 0.001996
65 0.002028
84 0.00097
97 0.000985
109 0.002029
117 0.00199
125 0.001983
128 0.000987
120 0.001996
119 0.001032
120 0.001007
128 0.001028
136 0.002002
141 0.001998
148 0.002029
154 0.002037
160 0.002026
163 0.002983
166 0.002992
170 0.001996
166 0.001994
91 0.002027
59 0.001991
56 0.001996
61 0.002992
73 0.001995
86 0.002024
99 0.00099
107 0.000995
116 0.001992
120 0.001996
121 0.003046
115 0.002992
118 0.003024
126 0.002027
133 0.002027
141 0.002029
145 0.003024
151 0.003029
158 0.00203
161 0.002035
165 0.001997
168 0.003031
170 0.002992
167 0.003046
119 0.002992
59 0.00204
49 0.002036
53 0.002028
65 0.003989
81 0.003989
92 0.002994
102 0.002003
111 0.002
115 0.002992
116 0.002992
111 0.002992
110 0.002992
116 0.002032
121 0.002027
130 0.002032
136 0.002992
143 0.002992
149 0.002029
153 0.003023
157 0.003031
161 0.004024
162 0.003989
167 0.004019
169 0.003993
158 0.00303
96 0.002019
59 0.002
53 0.002996
60 0.004033
78 0.003006
94 0.003025
104 0.002997
112 0.003989
122 0.00399
127 0.004029
124 0.004007
120 0.002991
121 0.002995
128 0.003026
134 0.004023
140 0.003989
150 0.002985
154 0.003992
158 0.003024
161 0.00402
163 0.00399
168 0.003989
170 0.003947
170 0.002992
152 0.002993
90 0.003
64 0.003987
59 0.003989
75 0.003026
90 0.00402
103 0.002998
113 0.003989
125 0.005027
133 0.004996
131 0.004987
123 0.004024
121 0.004022
122 0.004029
128 0.004036
135 0.004987
143 0.004015
147 0.002987
154 0.004008
158 0.00399
161 0.005035
165 0.003988
161 0.005002
122 0.004986
59 0.00403
49 0.003998
54 0.004025
69 0.005023
82 0.004987
98 0.004022
109 0.004021
116 0.00402
122 0.003029
120 0.005036
115 0.005985
115 0.004988
119 0.003971
127 0.003993
133 0.00399
141 0.005028
145 0.004987
151 0.004022
156 0.002996
159 0.003994
162 0.004954
144 0.003993
85 0.005023
56 0.005984
51 0.00502
59 0.005101
74 0.004833
85 0.005984
94 0.006016
108 0.005018
113 0.00498
116 0.005019
111 0.005035
110 0.005043
114 0.00502
119 0.004987
129 0.004025
137 0.003992
143 0.00498
147 0.006025
153 0.005984
157 0.005022
159 0.005016
163 0.00499
165 0.005029
156 0.004992
95 0.005984
57 0.005984
51 0.004986
56 0.004973
69 0.005021
80 0.005993
92 0.007017
104 0.005985
110 0.006019
114 0.005983
110 0.005017
108 0.006017
110 0.005984
114 0.005979
125 0.005019
134 0.005019
139 0.004986
146 0.005984
152 0.005984
155 0.004974
161 0.004989
165 0.004995
168 0.004996
169 0.005024
168 0.005985
140 0.006981
80 0.006982
55 0.005945
58 0.006024
70 0.006025
84 0.007026
98 0.006979
112 0.005979
121 0.006019
124 0.007012
121 0.007003
116 0.00602
116 0.007021
121 0.007013
130 0.007019
137 0.005021
145 0.00704
151 0.007948
154 0.007978
160 0.006021
163 0.005994
167 0.005992
167 0.005988
158 0.005983
100 0.007035
64 0.006981
60 0.00598
70 0.006018
84 0.007001
96 0.007979
109 0.007979
122 0.007014
128 0.005984
128 0.006024
124 0.006005
125 0.00595
127 0.007979
134 0.007019
143 0.005987
149 0.005971
153 0.005979
156 0.007979
161 0.007122
164 0.005989
169 0.007982
161 0.006975
107 0.006979
67 0.007013
56 0.007984
65 0.007962
77 0.007024
90 0.007011
98 0.007024
112 0.007972
118 0.007979
123 0.007014
120 0.007977
118 0.006971
120 0.006982
127 0.006978
133 0.006979
142 0.007018
148 0.006996
152 0.006991
159 0.007015
164 0.007025
166 0.007979
169 0.006982
171 0.00798
170 0.006983
118 0.007015
68 0.006979
55 0.007947
61 0.007015
78 0.007016
92 0.007015
100 0.007016
109 0.007018
118 0.007016
122 0.007016
120 0.006984
116 0.007953
120 0.00703
122 0.007032
129 0.00701
139 0.007019
145 0.007979
155 0.007025
160 0.007015
164 0.007021
169 0.007014
171 0.007018
176 0.006981
178 0.007023
179 0.007011
175 0.00701
132 0.007027
76 0.007016
61 0.007013
66 0.00701
80 0.00698
94 0.006981
107 0.006016
116 0.005982
127 0.005982
128 0.005994
125 0.007014
120 0.006016
116 0.005979
121 0.005982
129 0.007012
135 0.00703
141 0.006979
148 0.006982
154 0.007014
157 0.007015
161 0.006985
163 0.006981
166 0.006982
162 0.005975
125 0.005984
72 0.007022
56 0.006024
61 0.006018
74 0.006018
88 0.006022
100 0.006018
110 0.006022
123 0.005983
124 0.005986
119 0.006046
116 0.006017
116 0.006019
122 0.006016
130 0.006041
139 0.006032
145 0.006026
149 0.006019
151 0.006039
157 0.005034
163 0.004985
165 0.004987
161 0.00502
115 0.006021
67 0.006038
54 0.006022
55 0.006017
73 0.006017
85 0.006015
95 0.006016
105 0.005984
115 0.006018
121 0.006006
119 0.005967
117 0.005018
119 0.004972
123 0.004986
128 0.004969
135 0.005019
143 0.004992
147 0.00502
152 0.00502
155 0.00597
162 0.006054
163 0.005997
165 0.005023
166 0.005025
152 0.00502
90 0.005995
54 0.005998
48 0.005023
55 0.005018
72 0.004987
82 0.004981
93 0.005001
105 0.004994
111 0.004987
112 0.004991
110 0.005017
110 0.00502
111 0.005019
118 0.005023
126 0.004022
133 0.004036
140 0.005032
148 0.004023
152 0.00403
159 0.004995
160 0.004991
163 0.005022
165 0.004985
167 0.005037
169 0.005019
164 0.005019
112 0.004988
64 0.005015
54 0.005039
60 0.005045
73 0.004988
94 0.003957
103 0.00395
111 0.003965
118 0.003946
118 0.003991
115 0.004001
115 0.003989
116 0.00399
120 0.004021
131 0.004987
138 0.004018
142 0.00399
152 0.00399
158 0.004944
162 0.003929
164 0.003991
167 0.004028
170 0.004039
171 0.004036
171 0.003991
173 0.003959
174 0.003992
161 0.00402
101 0.003992
61 0.003997
65 0.003991
79 0.003989
96 0.00399
115 0.004023
125 0.004
132 0.002954
136 0.003927
136 0.002994
126 0.002992
121 0.002993
116 0.002992
113 0.003957
117 0.003968
121 0.003994
123 0.003957
132 0.003993
136 0.003989
139 0.00402
142 0.002994
146 0.003995
146 0.002995
143 0.002992
91 0.002993
47 0.002994
46 0.002959
54 0.002994
69 0.003023
85 0.002992
102 0.003993
115 0.002992
126 0.003011
130 0.004007
129 0.004024
128 0.003992
127 0.003036
133 0.002991
137 0.002976
142 0.002989
149 0.002992
155 0.002992
154 0.003024
157 0.002992
162 0.003005
161 0.002936
143 0.003024
77 0.003024
62 0.002996
74 0.002995
87 0.002994
100 0.001991
108 0.001995
112 0.001996
118 0.001995
125 0.003
129 0.003011
140 0.003023
149 0.002992
159 0.002992
166 0.002992
169 0.001994
172 0.002983
177 0.001965
180 0.001995
180 0.002029
181 0.00204
176 0.001994
150 0.001995
94 0.001996
73 0.002027
82 0.002035
104 0.001997
121 0.001994
131 0.001997
140 0.002994
148 0.002031
152 0.002027
157 0.001995
157 0.001995
154 0.001995
156 0.001995
158 0.002026
163 0.001995
171 0.001992
178 0.001981
186 0.00199
193 0.00098
192 0.001057
157 0.000998
94 0.001995
83 0.001996
89 0.002034
101 0.001995
110 0.001996
119 0.001996
129 0.002
140 0.001994
138 0.001984
130 0.000989
124 0.000998
121 0.001003
122 0.001005
125 0.000997
131 0.000952
137 0.000997
144 0.000971
153 0.001949
163 0.002
162 0.00199
96 0.002005
69 0.002021
67 0.001992
77 0.000997
89 0.000965
102 0.000964
111 0.000994
117 0.000957
123 0.000979
126 0.000965
125 0.00101
124 0.000991
125 0.001012
130 0.000998
138 0.000997
142 0.001017
145 0.000993
153 0.000997
156 0.000997
157 0.000998
132 0.000997
75 0.000997
52 0.001018
57 0.0
73 0.0
83 0.0
91 0.0
100 0.0
110 0.0
119 0.000997
119 0.001012
118 0.001015
117 0.000997
121 0.000997
129 0.000998
133 0.000991
141 0.001013
146 0.0
150 0.0
149 0.0
125 0.0
60 0.0
45 0.0
49 0.0
60 0.0
71 0.0
89 0.0
98 0.0
112 0.0
118 0.001003
118 0.000997
117 0.0
120 0.0
125 0.0
131 0.0
140 0.0
145 0.0
157 0.0
160 0.0
164 0.0
169 0.0
171 0.000996
175 0.0
176 0.0
177 0.0
181 0.000997
182 0.002029
183 0.000999
179 0.000998
79 0.0
62 0.0
67 0.0
79 0.001011
96 0.000963
113 0.0
121 0.0
129 0.0
134 0.001032
135 0.001031
127 0.0
124 0.0
127 0.000997
135 0.0
140 0.0
145 0.0
155 0.001003
163 0.001004
169 0.0
170 0.000997
173 0.000997
175 0.002043
174 0.002028
166 0.0
88 0.001998
60 0.0
64 0.0
78 0.0
95 0.000958
106 0.001033
118 0.0
127 0.0
133 0.0
135 0.001045
133 0.000997
131 0.000998
133 0.001996
140 0.0
145 0.0
152 0.0
156 0.000998
160 0.00103
165 0.0
168 0.0
168 0.000999
164 0.001036
126 0.001063
63 0.001001
58 0.001955
73 0.001008
88 0.000964
102 0.00094
110 0.001981
118 0.002043
130 0.000997
134 0.000997
134 0.000998
134 0.002026
136 0.001032
138 0.001017
146 0.002007
152 0.000986
158 0.000998
161 0.001169
164 0.001995
166 0.001996
169 0.000966
170 0.000998
171 0.00203
160 0.001995
100 0.003032
59 0.000998
63 0.002043
83 0.001015
97 0.000996
106 0.001008
116 0.001988
124 0.002992
131 0.000993
134 0.000977
136 0.000993
137 0.001995
138 0.001998
143 0.000998
147 0.002007
154 0.002024
159 0.002016
159 0.001034
163 0.00299
166 0.002992
165 0.002018
167 0.002035
169 0.000978
167 0.002992
140 0.002992
62 0.001995
58 0.001981
69 0.001991
89 0.002004
102 0.000988
113 0.00101
122 0.002992
129 0.003022
136 0.002033
139 0.001
138 0.002049
140 0.003024
144 0.001003
148 0.004025
153 0.003026
156 0.001992
158 0.002
162 0.002019
162 0.002992
164 0.003027
168 0.001989
168 0.002033
168 0.002045
164 0.002993
98 0.002071
67 0.004004
67 0.00405
84 0.00199
101 0.002
113 0.001997
122 0.003021
130 0.003025
138 0.002001
139 0.002031
141 0.001995
144 0.003028
149 0.002004
151 0.004006
153 0.004025
157 0.002986
157 0.001996
157 0.002025
159 0.004015
161 0.004009
160 0.002027
145 0.001988
91 0.001993
60 0.003999
65 0.002997
80 0.00402
93 0.004021
108 0.002951
115 0.001994
121 0.001967
126 0.004018
129 0.00399
130 0.003032
130 0.002987
133 0.00303
136 0.004022
142 0.00201
145 0.003992
149 0.005033
152 0.002989
152 0.002996
147 0.002993
103 0.004021
55 0.003979
44 0.003005
55 0.002992
68 0.003
80 0.003979
98 0.002993
108 0.005018
115 0.00502
120 0.00303
121 0.003002
122 0.002994
124 0.004982
127 0.004042
134 0.002993
137 0.002992
141 0.002992
142 0.003989
146 0.003002
149 0.005035
150 0.005028
127 0.005122
56 0.003964
42 0.003989
46 0.003993
57 0.005018
72 0.005176
88 0.004023
96 0.004026
106 0.004021
115 0.003025
117 0.003008
114 0.005023
113 0.005988
117 0.004005
123 0.00399
126 0.003991
133 0.005022
140 0.006002
144 0.003984
148 0.003992
152 0.004023
156 0.004019
155 0.003947
141 0.005046
82 0.005028
46 0.00503
46 0.003973
57 0.004987
70 0.005984
83 0.005984
94 0.004002
103 0.003991
113 0.004036
112 0.00405
110 0.003993
108 0.00607
111 0.005987
117 0.003986
123 0.003999
128 0.003993
134 0.004962
138 0.005983
144 0.003996
147 0.004001
151 0.004967
154 0.004987
155 0.005012
156 0.006018
158 0.006019
130 0.005035
71 0.004992
48 0.004956
49 0.005984
59 0.006018
81 0.004997
92 0.003984
108 0.003948
113 0.003998
116 0.004026
114 0.007039
109 0.006988
108 0.004996
114 0.004994
119 0.004987
125 0.005984
130 0.005974
137 0.004982
142 0.004995
146 0.004983
149 0.004993
151 0.004986
155 0.005981
155 0.007022
147 0.006024
93 0.005024
55 0.006014
48 0.006982
56 0.00702
75 0.00499
87 0.004987
103 0.004999
113 0.00498
118 0.005002
119 0.005023
113 0.007014
111 0.006025
114 0.00595
118 0.005993
124 0.005986
133 0.007013
138 0.007007
146 0.006018
151 0.006982
156 0.006024
158 0.005019
160 0.005041
160 0.007017
128 0.007976
72 0.005984
53 0.005984
53 0.005989
65 0.007013
77 0.006981
93 0.00606
103 0.007017
114 0.005989
119 0.006063
118 0.005982
115 0.007015
114 0.006985
118 0.00599
123 0.005988
130 0.005992
136 0.006981
141 0.007934
150 0.006009
156 0.007996
158 0.006986
160 0.007006
162 0.00698
167 0.007975
166 0.007948
162 0.005979
119 0.005983
70 0.005983
54 0.007018
63 0.007961
73 0.006992
91 0.007994
101 0.006975
112 0.006982
118 0.007015
123 0.007951
118 0.007989
119 0.007019
119 0.006986
123 0.006953
128 0.007963
136 0.007985
145 0.008017
150 0.007972
152 0.006981
153 0.0
158 0.004928
161 0.007022
163 0.006961
165 0.006955
167 0.006978
167 0.006979
158 0.007979
89 0.007977
67 0.008001
75 0.007968
91 0.006988
108 0.006985
119 0.007018
130 0.007957
138 0.00797
142 0.007036
143 0.00697
139 0.006969
138 0.00698
139 0.007014
146 0.006982
151 0.007029
159 0.006982
162 0.00695
165 0.00698
169 0.006988
171 0.006985
171 0.007046
173 0.006975
171 0.007012
154 0.006976
82 0.007013
67 0.006991
79 0.006977
94 0.006992
110 0.006981
118 0.006988
130 0.006982
135 0.005988
138 0.007026
139 0.006977
133 0.006967
133 0.006051
135 0.006016
145 0.005973
149 0.005985
154 0.005991
158 0.007018
161 0.006031
163 0.00596
164 0.006975
156 0.007055
85 0.006968
57 0.007028
57 0.006985
70 0.007018
92 0.00698
100 0.005959
108 0.005983
119 0.006018
124 0.006016
124 0.00598
123 0.005982
123 0.006013
123 0.00596
129 0.006018
136 0.006014
141 0.005984
148 0.005985
150 0.00597
153 0.006001
158 0.005979
157 0.005988
156 0.005988
129 0.005983
74 0.005957
49 0.006018
55 0.005981
68 0.005981
82 0.006018
99 0.005982
108 0.005983
117 0.004972
123 0.004989
124 0.004987
123 0.006003
122 0.004989
123 0.004986
128 0.006015
135 0.006016
139 0.006017
142 0.006018
148 0.005977
152 0.005968
156 0.006014
157 0.004982
159 0.005986
160 0.005995
150 0.005997
92 0.005943
53 0.005992
54 0.006015
62 0.005018
77 0.005028
97 0.004983
106 0.004996
115 0.004971
120 0.004985
123 0.004972
120 0.004989
120 0.004953
121 0.004954
126 0.005024
132 0.004987
140 0.00502
147 0.004976
153 0.004953
157 0.005021
159 0.004953
161 0.003975
165 0.003957
166 0.004987
166 0.004955
165 0.005
129 0.005019
67 0.005016
60 0.005042
77 0.004995
95 0.004985
105 0.003937
114 0.003952
123 0.003953
132 0.003958
133 0.00397
131 0.003959
126 0.003958
124 0.003991
128 0.004021
135 0.004021
144 0.004018
149 0.003987
152 0.003954
155 0.004999
158 0.004955
159 0.003986
161 0.003959
160 0.00399
137 0.003958
82 0.00396
58 0.004021
64 0.003989
86 0.00401
99 0.00399
108 0.004013
117 0.003987
125 0.003947
127 0.003991
128 0.003957
126 0.003962
124 0.003954
124 0.003989
132 0.003989
136 0.003027
145 0.003958
147 0.003957
151 0.003958
156 0.003958
157 0.003984
156 0.003958
128 0.003984
73 0.00396
52 0.003949
56 0.004023
72 0.00399
86 0.004
103 0.004001
113 0.003989
122 0.003989
126 0.002992
128 0.002995
126 0.002995
125 0.003001
127 0.002993
131 0.002982
136 0.003025
143 0.004021
147 0.00399
152 0.003958
156 0.003955
159 0.004009
160 0.002995
158 0.002994
147 0.002992
93 0.003027
55 0.003
57 0.002991
67 0.003026
80 0.003022
94 0.002994
107 0.002995
121 0.002991
125 0.001992
127 0.001994
127 0.001992
125 0.002026
127 0.002981
132 0.002992
139 0.002988
142 0.00299
148 0.002992
152 0.002992
155 0.003036
159 0.002986
160 0.001991
161 0.001993
159 0.001998
137 0.001987
69 0.00199
56 0.002993
63 0.001991
76 0.001996
91 0.001996
108 0.001999
118 0.002023
128 0.001963
132 0.002993
134 0.001
134 0.002002
133 0.001983
136 0.001988
140 0.001981
144 0.001996
147 0.002028
151 0.001995
157 0.002002
160 0.001989
162 0.001955
165 0.001994
167 0.001991
163 0.000999
143 0.001988
78 0.000991
64 0.001011
70 0.001967
85 0.002009
100 0.001995
119 0.001985
127 0.001993
132 0.001995
137 0.001966
139 0.002028
140 0.001996
140 0.001995
144 0.001024
147 0.000997
147 0.000997
150 0.001012
154 0.000997
157 0.000996
156 0.001032
156 0.001007
155 0.00104
138 0.001019
83 0.002003
57 0.001965
62 0.001996
75 0.001005
90 0.001995
104 0.000998
113 0.002015
124 0.001962
129 0.001985
135 0.001997
135 0.001993
134 0.001022
137 0.000991
141 0.000991
146 0.00102
148 0.001031
152 0.001011
155 0.000997
157 0.000998
160 0.000997
159 0.001008
152 0.001
86 0.000996
58 0.001003
57 0.000998
69 0.001001
83 0.001008
98 0.0
109 0.0
116 0.0
122 0.0
130 0.001011
133 0.001011
135 0.000967
136 0.000995
141 0.000998
147 0.001001
150 0.0
152 0.0
157 0.0
159 0.0
158 0.0
161 0.0
162 0.0
159 0.0
138 0.0
67 0.0
53 0.0
57 0.0
70 0.0
84 0.0
100 0.0
108 0.0
114 0.0
122 0.0
124 0.000992
127 0.0
126 0.0
129 0.0
132 0.0
138 0.0
141 0.0
146 0.0
148 0.000993
150 0.0
154 0.000982
156 0.000999
159 0.000999
157 0.0
152 0.0
123 0.002027
71 0.001994
56 0.0
66 0.0
81 0.0
95 0.001005
107 0.001858
119 0.0
128 0.001962
131 0.0
135 0.0
134 0.000973
138 0.002
140 0.002003
143 0.000994
149 0.000999
151 0.0
154 0.002001
156 0.002059
159 0.0
164 0.001036
164 0.0
164 0.0
156 0.0
119 0.0
67 0.000948
52 0.001999
59 0.0
73 0.000995
86 0.000999
97 0.002018
103 0.000998
111 0.002025
114 0.001011
118 0.0
119 0.001006
118 0.0
122 0.00203
127 0.002005
131 0.0
135 0.0
139 0.0
141 0.000994
142 0.00103
144 0.000958
138 0.000998
91 0.000951
51 0.0
50 0.0
64 0.000984
79 0.00101
97 0.0
109 0.0
116 0.000967
123 0.002
124 0.002006
129 0.001997
130 0.001993
130 0.0
133 0.001
138 0.0
143 0.001051
143 0.001033
148 0.0
148 0.000968
152 0.0
151 0.002039
147 0.001992
70 0.001989
52 0.001995
55 0.0
67 0.0
84 0.0
94 0.002028
103 0.002027
115 0.0
120 0.001002
121 0.001995
122 0.002028
122 0.002993
123 0.003007
125 0.001986
132 0.00108
138 0.002
140 0.001983
143 0.001997
145 0.001959
151 0.000993
150 0.002955
148 0.002022
121 0.002992
69 0.003038
50 0.002954
59 0.003012
76 0.001004
89 0.000999
98 0.001996
106 0.003026
114 0.002992
117 0.002016
115 0.002
112 0.002001
113 0.00304
115 0.001995
124 0.001976
129 0.003003
134 0.003991
140 0.001999
143 0.000998
146 0.001992
150 0.002982
152 0.002992
149 0.001992
112 0.001999
64 0.001953
54 0.001009
62 0.001
78 0.002988
91 0.003027
103 0.001041
112 0.001001
119 0.002012
121 0.002994
119 0.003029
115 0.001987
113 0.000991
119 0.001991
127 0.002052
133 0.001969
138 0.00298
144 0.004027
147 0.000993
150 0.000999
153 0.002038
155 0.003025
150 0.004069
90 0.001975
59 0.002959
54 0.001018
70 0.003023
86 0.002027
98 0.004028
108 0.003991
116 0.001961
121 0.002063
120 0.002001
116 0.004027
115 0.004026
119 0.002007
124 0.001997
130 0.000988
139 0.002012
145 0.00197
148 0.00403
151 0.004042
156 0.002059
158 0.002996
147 0.002004
92 0.004026
61 0.004021
56 0.001993
68 0.00197
84 0.001996
105 0.003009
114 0.001982
121 0.004055
125 0.003992
129 0.001959
125 0.00298
121 0.002958
123 0.004972
128 0.005012
133 0.003025
139 0.002961
145 0.001953
152 0.002993
156 0.002968
158 0.004079
161 0.005041
164 0.002044
163 0.003003
141 0.002962
86 0.004031
63 0.005094
64 0.002987
75 0.001995
88 0.003994
106 0.003046
113 0.002984
121 0.004977
125 0.005023
127 0.005019
123 0.002999
123 0.00296
125 0.003949
131 0.005024
135 0.005987
143 0.003988
148 0.003948
154 0.003993
158 0.003992
161 0.002992
163 0.005021
164 0.005021
166 0.003026
168 0.00398
168 0.003026
159 0.005026
105 0.006027
64 0.003994
61 0.003994
82 0.003956
97 0.002982
110 0.00401
119 0.006014
124 0.006043
134 0.00299
135 0.003992
132 0.004953
130 0.006026
131 0.005987
135 0.004005
140 0.004105
147 0.005007
153 0.0051
155 0.004955
159 0.004987
159 0.005979
163 0.004986
164 0.00499
166 0.002993
166 0.006063
168 0.006021
156 0.004001
87 0.006032
67 0.005041
75 0.004982
88 0.004034
103 0.006018
116 0.006064
128 0.004004
132 0.003979
137 0.004023
139 0.006023
138 0.00602
136 0.004969
135 0.007019
142 0.005033
144 0.004987
146 0.004955
151 0.00702
155 0.007039
155 0.004988
156 0.00503
160 0.00499
161 0.005991
160 0.006018
142 0.004042
71 0.005984
58 0.004987
64 0.004985
79 0.004988
94 0.007022
108 0.007026
118 0.004936
125 0.004954
130 0.004987
133 0.006983
133 0.006982
133 0.004986
135 0.005974
140 0.004996
142 0.005983
146 0.006008
149 0.007015
150 0.006985
152 0.007031
156 0.005996
156 0.005016
156 0.005981
156 0.006947
145 0.007015
65 0.007016
54 0.007977
64 0.004988
80 0.00598
92 0.005983
108 0.007966
117 0.007986
122 0.005988
125 0.005977
130 0.005953
131 0.008046
130 0.007013
133 0.006981
136 0.007017
141 0.005984
145 0.006987
149 0.005054
154 0.007978
154 0.00798
156 0.005987
157 0.005992
157 0.005993
158 0.00798
152 0.007979
76 0.007973
57 0.008043
56 0.006039
67 0.005996
81 0.005991
101 0.007974
111 0.007979
117 0.00602
124 0.005991
129 0.005976
130 0.006985
129 0.007975
131 0.007035
135 0.007936
137 0.006981
140 0.006983
145 0.006979
149 0.007978
151 0.007984
154 0.005978
157 0.005973
159 0.006026
160 0.00798
159 0.007941
117 0.007024
80 0.007974
58 0.006959
63 0.006982
78 0.006975
98 0.006957
110 0.006981
120 0.006984
127 0.007
131 0.006027
136 0.007978
136 0.007016
137 0.006977
139 0.006963
144 0.006962
146 0.006969
150 0.006991
151 0.007016
154 0.006978
156 0.006959
157 0.006973
158 0.006977
159 0.007044
145 0.006983
79 0.007015
58 0.006984
64 0.006964
79 0.006979
94 0.006959
108 0.006982
118 0.006978
124 0.005957
128 0.005978
131 0.00697
133 0.006966
131 0.006976
133 0.006977
137 0.006965
142 0.006979
145 0.006976
148 0.006977
152 0.006966
154 0.006981
155 0.00599
158 0.005988
149 0.005977
96 0.00599
55 0.005986
61 0.006952
75 0.006986
92 0.006972
105 0.006981
115 0.006951
122 0.006963
128 0.006981
129 0.006979
131 0.005984
129 0.005946
130 0.00597
135 0.006017
140 0.006013
145 0.00599
148 0.005989
150 0.006025
154 0.005943
155 0.005951
155 0.005953
154 0.004985
108 0.006022
61 0.006993
50 0.005982
64 0.005985
80 0.006019
90 0.006018
98 0.005984
109 0.00602
114 0.006008
115 0.006017
115 0.005987
111 0.00598
107 0.005981
111 0.006012
113 0.005984
119 0.005987
123 0.005019
126 0.004988
131 0.005026
137 0.005004
140 0.004987
144 0.004987
143 0.005983
119 0.005952
58 0.005982
48 0.00599
54 0.00599
77 0.006022
89 0.005969
98 0.004989
107 0.004985
117 0.005001
118 0.005013
119 0.004991
118 0.004986
118 0.004998
123 0.004982
131 0.004996
136 0.004982
145 0.005012
149 0.005038
154 0.004989
159 0.004957
161 0.004975
164 0.00495
167 0.003955
165 0.004992
143 0.004989
86 0.004992
64 0.004987
68 0.004986
91 0.00502
105 0.005019
115 0.00497
124 0.00399
130 0.004953
134 0.003982
130 0.003997
125 0.003941
122 0.004004
126 0.003991
132 0.003989
139 0.00399
143 0.00404
147 0.004988
151 0.00395
154 0.004997
156 0.004987
155 0.004993
117 0.004984
70 0.004987
58 0.004991
64 0.00399
80 0.00399
99 0.00399
110 0.003989
120 0.00399
125 0.003971
127 0.004018
126 0.003945
124 0.004004
122 0.004003
127 0.003985
132 0.003987
139 0.003972
144 0.003957
151 0.003
156 0.00399
157 0.002954
159 0.003953
161 0.003968
157 0.00399
98 0.003938
62 0.003958
56 0.003985
64 0.003948
76 0.004017
94 0.003975
104 0.003982
117 0.002989
122 0.003028
122 0.002992
121 0.002993
121 0.003026
119 0.003022
124 0.003959
130 0.00302
136 0.003956
139 0.004017
148 0.003983
151 0.003021
156 0.00399
159 0.00399
161 0.003026
160 0.003996
128 0.003014
67 0.002977
62 0.003022
68 0.002993
82 0.002996
96 0.002993
111 0.002985
122 0.002992
130 0.00303
132 0.003
131 0.002026
129 0.003995
127 0.001995
128 0.00299
134 0.002994
139 0.001995
142 0.001995
147 0.001995
151 0.001995
155 0.002992
156 0.002992
158 0.002992
155 0.003006
109 0.00299
64 0.002962
54 0.002992
65 0.00298
79 0.001996
93 0.001842
105 0.001957
113 0.002013
124 0.003002
123 0.002992
118 0.002992
115 0.002986
116 0.003016
120 0.002026
126 0.001977
134 0.001989
139 0.00199
144 0.001993
149 0.001993
152 0.001994
156 0.001998
143 0.002043
77 0.002028
60 0.001995
60 0.001994
71 0.002019
86 0.002028
102 0.001993
112 0.001994
120 0.00201
126 0.002038
129 0.001988
123 0.001997
123 0.001995
127 0.001995
130 0.001983
137 0.001988
144 0.001002
147 0.001014
151 0.001008
156 0.002054
158 0.001994
159 0.001962
161 0.002025
144 0.002035
87 0.002041
59 0.001034
62 0.001956
75 0.001997
89 0.00198
102 0.000985
116 0.001053
123 0.00099
130 0.001001
131 0.001009
129 0.000998
127 0.001008
130 0.000991
133 0.000957
138 0.001995
144 0.001997
147 0.001988
151 0.001999
156 0.002009
159 0.001963
160 0.001003
163 0.001991
164 0.001001
158 0.000998
108 0.000999
69 0.000997
64 0.000952
74 0.001007
87 0.001988
104 0.000999
115 0.001963
126 0.000994
132 0.000997
138 0.000997
140 0.001014
139 0.000997
140 0.000966
142 0.000998
148 0.0
152 0.0
156 0.0
160 0.0
163 0.0
164 0.000988
166 0.001011
169 0.001019
170 0.000998
169 0.000997
161 0.0
122 0.000997
72 0.000997
68 0.000998
80 0.001023
97 0.0
111 0.0
124 0.0
133 0.0
138 0.0
143 0.0
143 0.0
145 0.0
148 0.0
150 0.0
154 0.0
157 0.0
159 0.0
161 0.000988
163 0.000998
165 0.0
166 0.000991
163 0.000997
150 0.000997
85 0.000967
67 0.0
72 0.0
86 0.001997
104 0.000972
116 0.0
125 0.0
131 0.002026
136 0.002022
139 0.0
139 0.001992
141 0.0
142 0.0
145 0.0
148 0.002024
151 0.001983
153 0.0
155 0.0
158 0.0
156 0.0
144 0.001985
78 0.0
57 0.002029
67 0.0
80 0.0
95 0.0
107 0.001035
115 0.000999
122 0.0
127 0.000961
129 0.0
127 0.00099
128 0.000973
130 0.002015
135 0.002006
138 0.002026
140 0.0
145 0.0
146 0.0
148 0.001994
142 0.002001
83 0.0
54 0.0
51 0.0
60 0.001991
84 0.0
95 0.002026
104 0.002027
114 0.0
119 0.0
120 0.0
117 0.000993
117 0.000999
117 0.0
119 0.000999
125 0.0
130 0.002029
137 0.0
141 0.001996
142 0.002047
138 0.0
87 0.0
52 0.000979
47 0.000997
54 0.001013
69 0.0
83 0.001
93 0.0
101 0.002024
111 0.000951
110 0.001996
105 0.001982
104 0.0
106 0.0
112 0.0
119 0.002005
125 0.00202
131 0.0
137 0.001011
140 0.000961
143 0.002031
134 0.001992
81 0.002959
56 0.001998
55 0.0
66 0.0
80 0.001997
94 0.002992
104 0.001979
116 0.0
123 0.0
122 0.0
118 0.001948
116 0.002028
120 0.002031
126 0.002045
132 0.002019
138 0.001963
146 0.001982
151 0.002992
156 0.003025
164 0.00298
165 0.00199
165 0.00101
140 0.003008
70 0.001992
69 0.003007
78 0.002024
96 0.000984
110 0.001984
118 0.001996
127 0.002993
131 0.002996
131 0.002038
124 0.000992
121 0.0
122 0.003025
130 0.001997
136 0.003036
141 0.003027
147 0.00202
151 0.001996
155 0.001993
157 0.001998
159 0.004016
135 0.003027
70 0.002054
59 0.002037
64 0.001988
86 0.001994
97 0.002002
105 0.002992
114 0.003989
121 0.00096
120 0.000969
118 0.001973
117 0.004021
118 0.004029
124 0.00201
132 0.002037
140 0.001997
144 0.000983
146 0.00105
151 0.002992
154 0.002962
153 0.002003
110 0.001998
70 0.000999
62 0.003968
65 0.004033
80 0.002038
90 0.001999
104 0.001992
113 0.001993
118 0.001988
121 0.004021
120 0.005021
116 0.001997
117 0.002027
121 0.002018
125 0.003993
129 0.00399
138 0.001999
143 0.001997
149 0.001993
150 0.001983
153 0.001989
156 0.003989
157 0.00402
159 0.002991
162 0.001003
162 0.002059
154 0.005029
99 0.005023
57 0.001985
55 0.002994
70 0.002044
85 0.002006
96 0.002011
104 0.004033
111 0.004026
117 0.002032
116 0.001998
113 0.001998
113 0.004987
115 0.004987
121 0.002981
128 0.002961
139 0.002992
143 0.002994
149 0.002966
152 0.00503
155 0.005036
160 0.002989
162 0.003999
162 0.003018
165 0.005022
170 0.005
170 0.00295
169 0.003015
99 0.002962
70 0.00303
66 0.003026
75 0.004995
90 0.004996
104 0.004987
116 0.002961
123 0.002975
130 0.001952
134 0.005985
138 0.00602
141 0.003995
142 0.005984
149 0.003992
152 0.003974
157 0.003993
162 0.005985
166 0.005027
168 0.003024
169 0.002991
171 0.002991
172 0.006002
174 0.005024
179 0.00399
179 0.005019
178 0.003988
162 0.004005
116 0.003987
91 0.006018
90 0.006017
107 0.003992
121 0.003993
129 0.003991
133 0.006018
140 0.00602
147 0.003993
151 0.005984
154 0.003988
158 0.003982
161 0.002997
163 0.00602
167 0.005978
173 0.004997
174 0.004023
175 0.003967
175 0.005986
176 0.006017
176 0.004011
177 0.005984
155 0.003994
106 0.003988
81 0.003988
81 0.006018
91 0.005997
110 0.004956
118 0.004953
124 0.004956
131 0.006975
137 0.006988
142 0.006982
144 0.006971
147 0.004986
150 0.004992
152 0.004955
153 0.006949
157 0.007013
160 0.004965
160 0.004025
161 0.004
164 0.006031
164 0.006035
159 0.006982
135 0.007032
72 0.004986
58 0.004995
65 0.004988
79 0.00702
92 0.007013
104 0.004992
114 0.005009
119 0.004989
124 0.007012
129 0.007018
133 0.007026
136 0.007052
141 0.004985
143 0.005018
146 0.004868
149 0.007026
151 0.007012
152 0.007014
154 0.004988
156 0.004982
154 0.005973
143 0.007042
68 0.00499
55 0.007013
65 0.007989
78 0.005984
93 0.005017
103 0.005028
110 0.007014
115 0.007019
122 0.004983
125 0.005026
125 0.005062
128 0.007016
133 0.004986
137 0.007013
139 0.006992
142 0.005985
146 0.005984
148 0.006005
149 0.007976
151 0.007974
146 0.005971
112 0.005984
65 0.005004
51 0.007979
67 0.004985
82 0.007979
93 0.007971
105 0.005993
113 0.005983
118 0.005984
124 0.007986
126 0.007987
128 0.005988
130 0.005991
133 0.005985
137 0.007987
142 0.005947
145 0.007978
144 0.007978
148 0.00698
151 0.005981
150 0.006983
134 0.00698
81 0.007964
55 0.00598
57 0.006018
71 0.006015
88 0.007966
104 0.00598
112 0.007977
120 0.007979
124 0.005983
126 0.00697
127 0.006981
128 0.007014
130 0.006985
134 0.006984
138 0.006979
140 0.00698
143 0.007944
147 0.005981
151 0.007981
149 0.007016
115 0.006972
79 0.006977
56 0.006945
60 0.006982
73 0.006984
92 0.006971
98 0.006974
106 0.006975
114 0.006982
116 0.006973
118 0.007014
117 0.007017
119 0.00699
120 0.006967
125 0.006981
129 0.006981
134 0.007012
140 0.005979
143 0.006969
144 0.006981
91 0.006979
58 0.00697
59 0.006978
71 0.007015
85 0.006017
102 0.00698
111 0.006017
118 0.005978
125 0.005986
128 0.006009
129 0.00598
130 0.00602
134 0.006983
136 0.006985
142 0.006943
146 0.007013
149 0.006959
153 0.006981
156 0.005976
153 0.006029
116 0.005984
70 0.005985
61 0.005987
69 0.005982
91 0.006991
100 0.005986
108 0.005968
116 0.006013
123 0.006015
126 0.005987
125 0.006993
125 0.007008
125 0.00697
128 0.00598
135 0.005983
140 0.005984
146 0.006042
149 0.005982
151 0.00598
154 0.006015
156 0.005998
156 0.005981
153 0.00595
104 0.005983
61 0.005018
55 0.006007
66 0.005004
79 0.005031
99 0.004985
108 0.004992
116 0.005019
121 0.005025
123 0.004987
121 0.005013
119 0.004998
119 0.004956
123 0.004984
127 0.005017
134 0.004996
138 0.004906
146 0.005985
150 0.005992
153 0.005986
155 0.006017
155 0.005043
159 0.005019
159 0.005015
161 0.00502
163 0.005001
163 0.004987
145 0.004985
89 0.004994
58 0.004987
67 0.005021
81 0.005021
94 0.004947
106 0.004977
116 0.005018
123 0.004023
127 0.003991
131 0.003959
131 0.004987
130 0.004995
134 0.004956
137 0.005037
145 0.004999
146 0.004994
151 0.00502
153 0.004029
157 0.005023
159 0.004954
162 0.004021
162 0.003953
164 0.003958
163 0.003958
164 0.003988
151 0.004989
86 0.003988
67 0.005017
71 0.00399
85 0.003987
98 0.003976
113 0.005028
120 0.005021
126 0.003978
130 0.003989
133 0.004954
135 0.004024
138 0.005024
139 0.004016
142 0.004019
146 0.004018
148 0.003991
148 0.002989
153 0.004023
154 0.003967
154 0.003957
156 0.002991
156 0.003954
139 0.003988
88 0.003957
59 0.004006
67 0.003987
80 0.003989
94 0.003989
104 0.003989
116 0.004007
120 0.003995
125 0.004031
129 0.003955
132 0.00298
136 0.002992
137 0.002976
143 0.003971
146 0.003991
148 0.003995
150 0.002985
153 0.00395
156 0.003989
155 0.003991
157 0.003986
154 0.003984
126 0.003012
61 0.003025
59 0.003026
76 0.002992
89 0.002992
99 0.003024
110 0.003003
118 0.002993
123 0.003046
127 0.003032
131 0.003024
133 0.002003
134 0.003028
138 0.002993
140 0.001995
146 0.002993
147 0.003024
148 0.003028
150 0.002992
153 0.002992
155 0.002994
150 0.003027
112 0.002977
66 0.00299
54 0.002991
67 0.001993
84 0.002032
98 0.002992
107 0.002035
114 0.002028
122 0.002013
125 0.002026
126 0.001996
129 0.001995
130 0.003008
132 0.002991
136 0.003039
142 0.002992
147 0.002993
147 0.002995
151 0.001992
154 0.001995
154 0.001996
149 0.002031
112 0.002024
60 0.001998
55 0.002022
66 0.001994
80 0.000996
101 0.001995
110 0.001995
117 0.000993
124 0.001995
125 0.001995
127 0.00203
127 0.001995
129 0.001997
132 0.001996
137 0.002025
141 0.002004
146 0.00201
151 0.001979
153 0.001996
154 0.000998
157 0.000998
152 0.002049
109 0.000997
67 0.002033
59 0.002042
68 0.001996
83 0.001957
97 0.001994
106 0.002012
120 0.001995
123 0.00203
127 0.001048
128 0.000995
128 0.000998
130 0.000997
134 0.001007
138 0.000983
143 0.000997
148 0.001031
151 0.000997
156 0.000997
157 0.000993
157 0.001994
157 0.002052
128 0.000997
79 0.001995
61 0.001955
68 0.001996
81 0.000999
99 0.000999
110 0.001004
118 0.000997
127 0.001
129 0.000998
131 0.000892
131 0.001056
129 0.002006
132 0.001996
137 0.001995
141 0.00203
144 0.0
147 0.000998
152 0.00099
152 0.0
157 0.001005
158 0.0
145 0.0
92 0.0
63 0.0
63 0.0
76 0.0
89 0.0
102 0.000991
110 0.0
119 0.00099
125 0.000998
127 0.000997
129 0.000998
128 0.0
131 0.0
133 0.0
139 0.0
143 0.0
146 0.0
149 0.0
152 0.0
155 0.0
156 0.0
158 0.0
159 0.0
141 0.0
83 0.0
54 0.0
55 0.0
62 0.000998
74 0.000998
86 0.0
94 0.0
103 0.0
108 0.0
108 0.0
104 0.0
101 0.0
104 0.0
104 0.0
107 0.002033
112 0.002994
116 0.0
118 0.0
123 0.00096
127 0.0
130 0.002996
139 0.003003
142 0.002053
144 0.001011
122 0.000964
88 0.000997
53 0.0
54 0.002026
68 0.001
83 0.0
90 0.0
103 0.001991
110 0.001988
118 0.002028
116 0.002031
114 0.0
114 0.0
117 0.0
121 0.002029
127 0.001998
133 0.0
137 0.0
142 0.0
145 0.001999
147 0.001991
151 0.001991
154 0.001993
158 0.0
158 0.0
158 0.0
134 0.001998
82 0.002012
63 0.002029
70 0.0
83 0.0
97 0.0
115 0.0
123 0.0
129 0.002027
135 0.002026
136 0.0
137 0.0
136 0.000966
137 0.001029
140 0.001997
147 0.0
151 0.0
154 0.0
159 0.0
161 0.0
164 0.002012
165 0.002049
166 0.0
168 0.0
163 0.001008
129 0.002033
85 0.002026
75 0.0
84 0.0
98 0.001002
120 0.0
128 0.0
133 0.002026
137 0.002028
142 0.0
143 0.0
142 0.0
143 0.001987
147 0.002032
150 0.0
153 0.0
158 0.000887
160 0.0
161 0.0
162 0.003036
163 0.002993
162 0.0
137 0.0
86 0.0
67 0.003034
70 0.003029
87 0.002018
100 0.002025
110 0.000982
122 0.001994
128 0.002002
131 0.002026
134 0.001989
137 0.002015
137 0.002002
139 0.0
143 0.002028
146 0.002993
148 0.001994
152 0.001994
153 0.003011
157 0.002004
155 0.001992
136 0.002998
85 0.002961
59 0.001996
63 0.00201
77 0.001008
89 0.003001
100 0.003992
111 0.002027
117 0.001031
120 0.001994
122 0.002013
122 0.001993
121 0.002989
123 0.002992
128 0.003023
135 0.002017
140 0.001994
144 0.001962
147 0.002993
151 0.003989
156 0.001993
153 0.000998
86 0.002004
60 0.001999
58 0.00201
67 0.004021
80 0.003989
97 0.001984
104 0.002021
111 0.002992
118 0.004022
122 0.003991
118 0.001988
117 0.002001
119 0.000993
125 0.002041
129 0.002033
133 0.00299
138 0.003997
145 0.001996
146 0.001996
152 0.001994
154 0.003994
156 0.003989
119 0.001982
74 0.001984
62 0.001993
70 0.001994
82 0.001994
92 0.00399
102 0.00399
112 0.002034
118 0.001991
120 0.00296
120 0.005023
116 0.004989
116 0.001994
121 0.00399
130 0.001997
135 0.001998
138 0.002
144 0.004018
148 0.003987
151 0.001998
155 0.001993
159 0.002056
159 0.005028
147 0.004987
82 0.00296
64 0.005019
74 0.002025
86 0.001997
99 0.002995
110 0.004041
117 0.003989
124 0.001999
127 0.001996
124 0.002029
119 0.004021
116 0.004043
122 0.001988
126 0.004022
131 0.003005
136 0.002953
141 0.001992
146 0.004944
149 0.004994
155 0.002996
159 0.002982
158 0.002987
138 0.004984
85 0.004986
63 0.002993
71 0.004953
84 0.002992
95 0.003024
105 0.001993
111 0.001983
115 0.005024
119 0.005984
119 0.003004
116 0.003989
120 0.003994
124 0.006026
127 0.005986
136 0.006015
140 0.005987
147 0.002992
151 0.002988
154 0.002989
156 0.005032
158 0.004983
156 0.002997
113 0.002986
70 0.003002
62 0.004987
67 0.005984
86 0.006034
94 0.005986
105 0.003956
114 0.003991
124 0.003977
130 0.005985
132 0.005984
131 0.00298
133 0.002975
138 0.004951
139 0.004987
143 0.006981
150 0.006018
155 0.006029
159 0.003987
160 0.004007
162 0.003992
166 0.006018
165 0.005906
168 0.00396
169 0.003992
167 0.004026
149 0.00602
92 0.006947
60 0.006015
66 0.007037
81 0.003994
92 0.004989
102 0.003991
109 0.007014
116 0.007014
122 0.004019
120 0.00402
119 0.00402
117 0.006012
120 0.00598
128 0.005991
135 0.005984
139 0.003983
143 0.005006
148 0.005001
151 0.007032
153 0.007015
157 0.004977
159 0.004984
160 0.004987
163 0.007013
164 0.004988
163 0.007033
138 0.007013
72 0.00393
62 0.005989
66 0.004023
77 0.006982
91 0.006983
105 0.005019
112 0.005005
121 0.004995
126 0.006978
130 0.004953
130 0.006982
130 0.006981
135 0.004993
139 0.005003
144 0.004978
149 0.003991
152 0.007015
157 0.007018
160 0.005987
163 0.006005
165 0.005986
168 0.004956
167 0.005022
169 0.007975
167 0.008015
169 0.005069
162 0.005966
135 0.00595
76 0.007969
69 0.007976
78 0.005023
94 0.005019
106 0.005976
121 0.005952
125 0.005953
133 0.007979
136 0.007979
137 0.004986
139 0.005004
140 0.004998
141 0.007969
146 0.007931
149 0.005985
152 0.005984
154 0.005973
157 0.00598
160 0.00598
161 0.007975
162 0.007974
163 0.004967
165 0.006072
162 0.005999
127 0.007977
81 0.00797
65 0.005021
71 0.005981
85 0.005974
105 0.005988
115 0.006981
122 0.006979
128 0.006979
133 0.005983
137 0.005973
136 0.005978
142 0.007987
144 0.007975
147 0.005984
149 0.005992
152 0.005988
157 0.005984
159 0.005988
158 0.006968
161 0.007978
162 0.006986
159 0.005982
146 0.006983
81 0.007011
61 0.007014
63 0.006019
75 0.005986
95 0.006968
109 0.006037
115 0.005972
123 0.00698
126 0.006979
127 0.004994
128 0.005974
131 0.00699
131 0.007011
133 0.007
136 0.005986
139 0.006938
142 0.006953
146 0.006982
148 0.006962
152 0.006981
155 0.007012
155 0.006976
151 0.006981
116 0.006981
65 0.006983
61 0.006016
71 0.006023
88 0.006052
102 0.005978
115 0.005981
121 0.005987
128 0.005983
130 0.006015
132 0.007048
136 0.006951
139 0.006978
140 0.00698
146 0.007013
148 0.006013
150 0.005976
153 0.006037
154 0.006979
157 0.005978
157 0.005988
156 0.005983
152 0.006051
103 0.005984
62 0.00606
56 0.005982
65 0.006027
77 0.00602
94 0.005982
106 0.005989
115 0.005979
119 0.005976
121 0.00597
123 0.006022
122 0.00602
122 0.005981
124 0.005984
131 0.005986
135 0.005975
140 0.005953
144 0.004982
147 0.004953
152 0.005957
144 0.00598
90 0.005989
60 0.006017
57 0.005979
69 0.00599
82 0.005984
96 0.004988
103 0.005017
110 0.003979
120 0.005009
123 0.003992
123 0.006002
120 0.005981
123 0.005978
128 0.006021
130 0.006018
137 0.005986
143 0.004982
146 0.004957
149 0.005003
151 0.005028
149 0.004998
84 0.004951
55 0.005049
58 0.005015
71 0.005003
83 0.005017
93 0.005031
106 0.004989
112 0.004987
117 0.004989
118 0.004032
117 0.003959
109 0.005001
102 0.004987
97 0.005021
99 0.004987
102 0.004982
104 0.00496
107 0.004963
111 0.005021
115 0.004981
112 0.004999
81 0.003966
33 0.00502
9 0.004023
8 0.003991
14 0.004019
28 0.004012
35 0.003986
45 0.004937
57 0.005019
65 0.004988
68 0.00494
70 0.00402
75 0.005002
81 0.005037
89 0.005017
104 0.004957
111 0.005023
122 0.00502
127 0.004037
133 0.00399
136 0.004022
140 0.003989
142 0.004018
144 0.004023
137 0.004016
87 0.004021
53 0.003989
41 0.003973
48 0.00399
59 0.003996
65 0.004033
69 0.002993
76 0.003957
79 0.004912
76 0.003956
75 0.002971
72 0.002955
75 0.003988
91 0.003989
103 0.003989
119 0.00405
133 0.003992
142 0.004028
149 0.004016
153 0.004017
157 0.003964
161 0.004038
164 0.00405
163 0.003022
138 0.002987
79 0.002983
74 0.00299
82 0.003023
95 0.003024
107 0.003022
116 0.003
122 0.002992
127 0.002993
129 0.002992
123 0.00302
119 0.003021
120 0.003036
127 0.00299
135 0.003018
142 0.003028
147 0.003025
153 0.003053
156 0.003027
159 0.002992
164 0.002992
168 0.003022
160 0.00301
112 0.002992
83 0.003032
80 0.002976
88 0.003029
99 0.003031
114 0.001994
119 0.001996
126 0.002028
133 0.003036
136 0.003024
133 0.003022
129 0.003027
132 0.003027
136 0.00201
146 0.001958
152 0.002049
157 0.001995
162 0.001995
169 0.001995
172 0.002037
175 0.001993
179 0.001993
181 0.002023
182 0.001996
169 0.000997
112 0.002013
76 0.001986
77 0.001995
88 0.001995
101 0.002989
111 0.001995
119 0.002027
127 0.002026
133 0.001964
134 0.001996
135 0.001995
133 0.002027
135 0.002016
146 0.000996
152 0.001991
159 0.00103
164 0.000998
169 0.000998
175 0.000997
178 0.001718
180 0.002026
181 0.002021
183 0.002028
182 0.002028
184 0.001029
174 0.002004
123 0.001994
81 0.000997
71 0.000997
79 0.002027
92 0.00203
104 0.002025
114 0.001996
123 0.002039
131 0.001951
135 0.001028
138 0.000998
134 0.000999
136 0.001013
138 0.002035
141 0.000999
149 0.000998
152 0.002013
154 0.001995
158 0.001995
165 0.001995
166 0.002028
169 0.0
172 0.0
176 0.001012
175 0.0
170 0.000997
132 0.000998
82 0.000964
76 0.000964
86 0.000998
100 0.000997
116 0.00096
126 0.000998
136 0.0
141 0.0
146 0.0
148 0.0
148 0.0
149 0.015958
150 0.0
155 0.000997
160 0.0
165 0.000997
166 0.000996
169 0.0
172 0.0
173 0.0
175 0.0
170 0.0
148 0.0
97 0.0
74 0.0
78 0.0
91 0.001009
105 0.000997
113 0.0
122 0.001002
131 0.000998
137 0.0
139 0.0
140 0.0
142 0.0
144 0.0
145 0.001031
150 0.0
152 0.0
156 0.0
156 0.0
160 0.000955
159 0.000998
139 0.000997
85 0.002992
61 0.002991
62 0.0
75 0.0
89 0.0
101 0.002025
110 0.001964
120 0.0
124 0.0
127 0.0
128 0.002
130 0.0
132 0.002996
137 0.002016
140 0.0
145 0.0
151 0.0
156 0.002988
156 0.002033
162 0.000963
163 0.000997
161 0.001014
142 0.002036
65 0.000998
60 0.00298
67 0.002972
84 0.0
98 0.0
107 0.0
113 0.00203
119 0.002065
126 0.0
126 0.000966
126 0.0
127 0.002031
131 0.0
135 0.001996
139 0.00212
145 0.000976
147 0.000964
150 0.000967
153 0.000962
156 0.002029
158 0.002046
159 0.0
156 0.000891
123 0.0
58 0.0
57 0.000961
66 0.001987
80 0.003009
96 0.0
104 0.0
113 0.0
120 0.001964
123 0.001956
126 0.000997
125 0.0
126 0.0
131 0.0
135 0.0
140 0.00299
147 0.002956
150 0.0
153 0.0
159 0.0
161 0.003002
163 0.002029
163 0.0
149 0.0
70 0.0
61 0.000967
69 0.0
83 0.003023
95 0.002025
109 0.0
117 0.0
125 0.000997
128 0.002993
132 0.003035
132 0.0
132 0.0
135 0.001005
138 0.000968
144 0.0
148 0.001999
151 0.002025
155 0.000964
159 0.0
161 0.000973
161 0.002993
163 0.003045
158 0.000995
114 0.0
61 0.0
65 0.0
79 0.0
92 0.00298
104 0.002993
116 0.002026
122 0.001998
126 0.00199
130 0.00299
129 0.003022
126 0.001995
127 0.001995
133 0.0
139 0.0
143 0.002991
146 0.002949
148 0.002993
153 0.002995
156 0.002991
156 0.002991
153 0.003036
117 0.003992
59 0.002008
53 0.002028
69 0.0
83 0.0
92 0.002993
99 0.002979
108 0.002993
116 0.003038
118 0.001993
118 0.001996
117 0.002991
117 0.002992
120 0.003989
128 0.003001
134 0.004026
140 0.0
143 0.002994
147 0.002978
152 0.003989
155 0.004017
158 0.001995
159 0.001994
146 0.002027
90 0.004026
58 0.003987
57 0.002
71 0.003949
87 0.002989
96 0.001001
104 0.002994
113 0.004024
117 0.004025
117 0.002973
115 0.003026
113 0.003009
113 0.00504
119 0.00399
128 0.002012
140 0.004996
147 0.003022
154 0.0
159 0.003043
160 0.005023
161 0.003944
163 0.001994
163 0.001991
162 0.001977
164 0.005019
161 0.004986
118 0.001992
61 0.005018
53 0.0
63 0.004029
76 0.002025
88 0.003989
97 0.004021
108 0.002989
112 0.001988
116 0.002021
114 0.005037
114 0.005037
112 0.001983
118 0.004984
126 0.003015
132 0.002997
137 0.003003
142 0.004989
146 0.005018
151 0.002026
154 0.001994
156 0.002999
160 0.004986
160 0.004986
164 0.004987
163 0.004987
163 0.001993
140 0.002969
83 0.003001
61 0.004987
63 0.005032
78 0.002003
93 0.001991
106 0.002995
114 0.005018
121 0.005017
129 0.006078
132 0.005999
131 0.005986
131 0.002994
132 0.00296
134 0.003012
137 0.00499
141 0.005021
146 0.002992
149 0.003955
153 0.002027
154 0.006016
158 0.003957
161 0.005996
162 0.006018
163 0.002956
163 0.002961
158 0.003164
116 0.006034
70 0.005978
63 0.002962
72 0.003991
86 0.003018
102 0.005975
117 0.003016
127 0.005985
131 0.007016
136 0.003994
140 0.003992
141 0.003991
141 0.005985
143 0.005993
150 0.003981
152 0.004008
155 0.002984
157 0.006062
162 0.004018
164 0.005985
166 0.007015
169 0.003984
167 0.004988
156 0.002986
110 0.006018
75 0.005984
74 0.002992
86 0.003981
99 0.003991
111 0.007019
124 0.003995
128 0.007022
133 0.006983
138 0.004049
140 0.00399
140 0.003988
142 0.007013
147 0.006989
148 0.003988
149 0.003991
152 0.003992
152 0.006998
152 0.003996
153 0.005955
151 0.007016
124 0.005001
70 0.004974
52 0.00497
55 0.006984
66 0.007024
83 0.004987
96 0.004988
104 0.003989
110 0.007013
116 0.003996
115 0.007012
113 0.006983
109 0.005119
110 0.004993
115 0.004981
120 0.00702
125 0.007968
130 0.004987
134 0.005007
137 0.00498
140 0.007024
119 0.005946
66 0.004008
46 0.007043
44 0.007017
56 0.005984
70 0.004006
81 0.003991
89 0.007945
103 0.007971
106 0.005019
106 0.004987
101 0.005031
102 0.005035
106 0.004021
111 0.008012
119 0.007967
125 0.005987
129 0.004992
133 0.004987
140 0.008017
143 0.00797
144 0.004025
148 0.005987
93 0.005981
58 0.005941
50 0.005984
53 0.007949
59 0.00795
73 0.00599
82 0.006013
90 0.004985
101 0.007971
105 0.006981
105 0.005986
104 0.004982
107 0.005986
115 0.005991
120 0.005984
128 0.007013
132 0.007975
141 0.00598
144 0.006976
149 0.006001
155 0.007981
157 0.007969
160 0.00598
164 0.005947
167 0.005952
169 0.00594
169 0.005942
161 0.007024
104 0.006981
67 0.00594
62 0.006022
67 0.005953
80 0.006981
89 0.007982
102 0.004992
109 0.005983
118 0.005985
119 0.006952
115 0.00695
115 0.006976
116 0.006972
123 0.005982
129 0.00601
137 0.006025
143 0.006976
147 0.006987
153 0.005982
156 0.005987
161 0.005983
166 0.006017
168 0.005983
169 0.005985
171 0.006015
172 0.006942
171 0.006941
142 0.006976
78 0.007014
69 0.007024
77 0.006971
90 0.006969
104 0.00695
118 0.005984
125 0.005975
128 0.005945
129 0.006028
125 0.006035
118 0.005974
118 0.005984
123 0.005987
129 0.005982
132 0.006072
141 0.005988
146 0.005984
152 0.005988
155 0.005975
158 0.005013
161 0.005967
162 0.005989
164 0.006935
165 0.006981
160 0.005988
110 0.007022
72 0.006015
68 0.005977
80 0.006001
96 0.006023
107 0.005992
116 0.006028
123 0.006015
129 0.006079
131 0.005991
129 0.005986
128 0.005989
128 0.005989
134 0.006014
141 0.005982
150 0.00598
154 0.00599
157 0.005975
162 0.00502
164 0.005973
163 0.004987
167 0.006003
169 0.004953
170 0.004987
166 0.005082
123 0.004944
74 0.005989
77 0.004988
94 0.004987
109 0.006028
121 0.004957
127 0.00492
135 0.005976
145 0.005976
146 0.006001
149 0.004981
148 0.005049
150 0.006015
157 0.005021
162 0.004941
169 0.004965
172 0.004987
173 0.00499
174 0.004971
176 0.003977
177 0.004986
177 0.00495
171 0.004956
136 0.005021
85 0.005018
75 0.004945
85 0.004974
104 0.004986
116 0.003948
123 0.003955
133 0.003992
141 0.004955
145 0.005011
146 0.00499
148 0.004987
147 0.005038
149 0.003992
156 0.004964
161 0.004925
164 0.003989
169 0.004983
172 0.004956
173 0.003956
174 0.003988
175 0.003958
162 0.00399
104 0.00396
70 0.003959
66 0.003992
83 0.00399
96 0.003992
107 0.00395
117 0.004001
124 0.003979
130 0.00399
132 0.003958
130 0.004003
130 0.003985
131 0.003989
135 0.003956
140 0.003956
147 0.004958
151 0.005013
154 0.003959
157 0.00496
160 0.004958
152 0.003959
101 0.003948
66 0.003956
63 0.004029
72 0.003991
85 0.003996
97 0.003989
113 0.004025
119 0.003984
126 0.002994
129 0.004022
127 0.002992
126 0.002997
129 0.003021
132 0.002997
137 0.004029
143 0.003025
148 0.003989
153 0.003955
154 0.003022
135 0.003026
83 0.003022
64 0.00299
68 0.003971
79 0.003001
94 0.003961
106 0.002989
117 0.003999
124 0.003992
130 0.003034
131 0.003024
129 0.002982
129 0.00299
132 0.00299
138 0.002961
139 0.002993
144 0.002985
148 0.002993
150 0.00297
154 0.003023
156 0.00298
132 0.002031
66 0.002004
61 0.001993
71 0.002992
83 0.002962
100 0.002965
110 0.002992
121 0.002991
127 0.003021
131 0.002992
132 0.002992
130 0.001998
131 0.001985
134 0.002
140 0.001991
147 0.001995
152 0.002008
155 0.002027
158 0.001994
162 0.001997
164 0.00203
167 0.003038
165 0.00299
128 0.002993
78 0.003025
72 0.002992
83 0.001988
99 0.001972
111 0.001994
120 0.002012
132 0.001997
137 0.001982
139 0.001985
141 0.002007
143 0.000998
144 0.00295
149 0.001995
156 0.001975
161 0.002007
162 0.002007
166 0.001995
167 0.001994
171 0.00101
168 0.001993
150 0.001994
97 0.002027
74 0.002009
78 0.001034
92 0.000952
113 0.001
122 0.001006
129 0.001005
133 0.001988
138 0.000998
142 0.001984
142 0.001994
144 0.001995
149 0.00204
151 0.002037
155 0.002032
158 0.002008
162 0.002024
161 0.002027
155 0.000997
111 0.000977
72 0.000984
64 0.002009
75 0.002028
90 0.001005
103 0.000993
113 0.001992
123 0.001986
128 0.002029
134 0.001995
136 0.000988
139 0.001986
141 0.000992
147 0.001009
150 0.000994
154 0.000999
157 0.001008
158 0.001027
159 0.000997
160 0.000964
152 0.000996
69 0.001039
54 0.001038
60 0.000998
73 0.0
85 0.001015
99 0.000996
109 0.000994
117 0.000999
120 0.0
124 0.000998
126 0.000998
127 0.0
131 0.0
136 0.0
141 0.0
145 0.0
148 0.0
151 0.0
154 0.0
157 0.0
156 0.0
143 0.0
87 0.0
56 0.000997
62 0.0
78 0.0
89 0.0
99 0.0
112 0.0
115 0.0
121 0.0
123 0.0
123 0.0
123 0.000967
125 0.0
131 0.0
134 0.0
142 0.0
144 0.0
149 0.0
151 0.0
155 0.0
153 0.001022
141 0.00299
76 0.0
61 0.0
64 0.0
89 0.001008
103 0.001962
113 0.001994
120 0.001988
130 0.0
134 0.0
136 0.0
135 0.001989
133 0.001991
132 0.0
136 0.0
140 0.0
146 0.0
148 0.0
150 0.00302
153 0.003022
155 0.000968
149 0.0
112 0.0
66 0.002028
56 0.001992
66 0.0
80 0.0
94 0.0
111 0.0
118 0.0
122 0.002
126 0.00199
127 0.001026
127 0.0
128 0.0
132 0.003023
136 0.002005
141 0.0
145 0.0
149 0.0
152 0.0
148 0.0
113 0.002024
67 0.002026
53 0.002004
62 0.001012
77 0.0
88 0.0
100 0.00297
110 0.001993
119 0.0
121 0.0
123 0.0
124 0.0
127 0.000975
129 0.00203
133 0.002995
141 0.0
143 0.000961
147 0.000966
149 0.002994
151 0.002992
150 0.0
132 0.0
56 0.000962
53 0.000962
60 0.0
72 0.002988
84 0.002042
100 0.000947
108 0.000985
114 0.000965
119 0.001984
122 0.003011
120 0.0
119 0.0
125 0.001011
134 0.000978
142 0.0
146 0.003035
151 0.003022
155 0.0
156 0.0
159 0.0
163 0.003029
160 0.003014
126 0.0
75 0.0
61 0.001988
69 0.000997
81 0.000968
94 0.002994
104 0.003022
115 0.0
122 0.000953
127 0.000953
129 0.002976
128 0.002036
129 0.000958
131 0.002992
138 0.001066
144 0.0
146 0.0
149 0.003001
154 0.00301
157 0.0
158 0.0
161 0.0
162 0.002987
162 0.003989
148 0.002991
78 0.002966
59 0.000998
64 0.0
78 0.0
92 0.004042
102 0.002967
114 0.001031
121 0.0
124 0.000953
127 0.00296
130 0.002996
133 0.001993
138 0.003022
142 0.0
147 0.0
152 0.0
155 0.002963
158 0.002989
159 0.002985
162 0.00294
164 0.0
165 0.000995
167 0.002996
167 0.002992
139 0.003031
86 0.003989
64 0.000967
72 0.0
86 0.0
98 0.004044
109 0.004031
119 0.000967
124 0.0
130 0.0
134 0.003975
137 0.003989
139 0.004047
141 0.004955
146 0.002992
150 0.002993
151 0.003025
153 0.004023
157 0.00396
160 0.003022
161 0.001984
166 0.003
164 0.004005
157 0.003989
85 0.004954
68 0.004989
79 0.001993
90 0.003022
102 0.002991
110 0.004015
119 0.00402
124 0.002992
129 0.002032
132 0.003023
135 0.003991
137 0.003989
142 0.00501
147 0.00502
151 0.003001
152 0.002994
156 0.002999
160 0.005019
162 0.005019
162 0.003066
156 0.00395
116 0.003072
74 0.004989
68 0.005021
83 0.005032
97 0.005033
107 0.002005
115 0.004
123 0.00399
127 0.004043
130 0.005019
134 0.003979
137 0.003037
138 0.002981
142 0.005018
145 0.004986
149 0.005018
152 0.005028
155 0.002994
157 0.003992
153 0.003998
126 0.005986
72 0.006047
53 0.00296
59 0.00399
70 0.003016
83 0.004988
94 0.004986
108 0.005025
113 0.004988
118 0.001995
120 0.002033
120 0.00294
120 0.006018
123 0.00599
130 0.00401
134 0.003941
139 0.003978
144 0.005984
150 0.003013
149 0.002989
133 0.005018
79 0.005017
53 0.002993
55 0.003018
67 0.004037
79 0.006037
91 0.006018
102 0.002992
112 0.002967
116 0.002964
118 0.002993
118 0.003943
118 0.006038
120 0.005978
126 0.003966
132 0.003025
137 0.003955
141 0.006001
143 0.005987
146 0.003027
148 0.003981
139 0.002955
61 0.003986
51 0.003947
57 0.005986
69 0.007023
83 0.004004
94 0.003988
104 0.002986
110 0.007027
113 0.006035
112 0.003992
108 0.002954
104 0.001996
111 0.001977
117 0.00301
123 0.007016
128 0.00602
134 0.003997
140 0.003996
141 0.00396
138 0.007014
90 0.006951
49 0.003987
47 0.003982
55 0.003993
74 0.003995
84 0.003994
95 0.007
103 0.006991
108 0.00497
106 0.004007
102 0.003961
100 0.00698
104 0.007032
114 0.004021
118 0.003996
125 0.003991
134 0.003988
141 0.004988
145 0.007979
141 0.007982
97 0.004947
64 0.004018
56 0.004957
61 0.00703
72 0.006983
84 0.003972
92 0.004967
103 0.005025
114 0.004984
114 0.004976
110 0.007978
108 0.007058
112 0.005027
116 0.004989
124 0.004986
130 0.008013
137 0.007981
142 0.004967
148 0.004988
152 0.004989
159 0.004988
162 0.004987
164 0.004983
167 0.00801
170 0.007079
162 0.004991
106 0.004023
71 0.004983
62 0.007017
66 0.00798
81 0.004993
91 0.003989
103 0.004987
110 0.004024
115 0.004985
115 0.007979
110 0.007975
110 0.004988
114 0.004989
118 0.00599
127 0.007967
135 0.006975
139 0.005988
146 0.007947
152 0.005992
157 0.005974
161 0.004987
164 0.006948
168 0.006983
170 0.005966
172 0.005981
174 0.004986
173 0.007988
142 0.007991
85 0.005019
68 0.007979
73 0.00599
84 0.005988
98 0.005956
108 0.006986
118 0.006982
124 0.005976
128 0.005968
125 0.005973
122 0.006972
123 0.006979
125 0.005978
134 0.007968
141 0.006934
147 0.006939
151 0.005981
155 0.006977
160 0.006828
164 0.006019
165 0.00595
169 0.006002
171 0.006994
172 0.005989
173 0.00604
141 0.005983
90 0.005988
72 0.005987
77 0.006013
92 0.006028
104 0.007028
119 0.006018
128 0.006005
133 0.005985
136 0.00598
139 0.00599
138 0.006951
135 0.006982
135 0.006983
140 0.006018
147 0.005989
150 0.00702
153 0.006955
159 0.005977
161 0.00602
162 0.005979
166 0.005981
165 0.006005
162 0.006015
112 0.005968
72 0.005984
67 0.00605
75 0.006019
89 0.006034
100 0.006011
111 0.005966
122 0.006015
126 0.004992
131 0.004987
134 0.007014
131 0.00598
132 0.006015
133 0.005988
137 0.004974
144 0.006008
147 0.005986
152 0.005987
156 0.00597
160 0.005984
162 0.005971
163 0.004955
154 0.004985
102 0.004981
57 0.005992
62 0.004954
78 0.005007
90 0.004955
102 0.004982
112 0.004957
120 0.005007
126 0.005006
129 0.004979
129 0.005976
129 0.005983
127 0.005952
133 0.005986
139 0.005978
142 0.00596
147 0.006033
149 0.005983
154 0.005938
156 0.004992
160 0.005049
159 0.004952
133 0.004944
76 0.004999
58 0.004952
64 0.005017
78 0.00498
94 0.005009
104 0.004988
114 0.004986
120 0.004991
122 0.004989
124 0.004986
121 0.004988
119 0.003994
122 0.003993
129 0.004987
136 0.004991
140 0.004986
145 0.005017
150 0.004988
153 0.004985
156 0.004993
157 0.004985
143 0.004988
87 0.003978
63 0.003993
61 0.003946
78 0.00399
94 0.003981
105 0.004044
117 0.003989
124 0.004986
129 0.003956
130 0.003964
130 0.003945
127 0.004987
126 0.004952
129 0.004961
136 0.004989
143 0.004031
146 0.004997
149 0.00502
153 0.003985
156 0.003991
154 0.003989
120 0.003964
75 0.003953
63 0.003934
71 0.004023
86 0.003988
98 0.003838
116 0.003982
123 0.004003
129 0.004032
