97 0.02995
97 0.001967
100 0.001998
106 0.001043
110 0.002003
113 0.001955
118 0.001089
121 0.000991
125 0.000997
127 0.001001
129 0.001957
133 0.001964
134 0.001977
132 0.002016
116 0.001964
75 0.002013
58 0.001803
62 0.001967
75 0.001006
82 0.00104
91 0.001
97 0.002007
103 0.001958
107 0.001893
110 0.001952
113 0.002025
117 0.001999
123 0.002027
124 0.001995
129 0.002992
133 0.00199
135 0.001994
138 0.001995
139 0.001994
131 0.002023
100 0.001833
43 0.00198
28 0.002019
33 0.002947
48 0.00203
58 0.002992
68 0.002992
80 0.002035
88 0.001981
93 0.001995
98 0.002965
102 0.00295
109 0.00204
113 0.002031
119 0.002012
121 0.003989
126 0.002992
131 0.002992
135 0.002985
137 0.003026
135 0.003026
121 0.002993
64 0.002992
24 0.002992
18 0.001995
26 0.001994
34 0.001995
44 0.003999
61 0.002992
73 0.002996
80 0.003994
83 0.002951
91 0.003021
96 0.002992
99 0.002952
105 0.002956
107 0.002985
102 0.002989
100 0.002992
104 0.003043
110 0.002992
114 0.003035
124 0.003989
131 0.00399
115 0.002992
68 0.002992
30 0.002992
25 0.003989
35 0.004339
44 0.003976
58 0.002931
70 0.002986
84 0.002992
89 0.002982
93 0.003997
99 0.003989
105 0.003989
109 0.003978
114 0.00399
122 0.00399
125 0.00399
128 0.003989
131 0.004031
134 0.003987
139 0.004037
142 0.003039
142 0.004987
135 0.004987
96 0.003992
56 0.003989
46 0.003959
52 0.004946
63 0.004987
78 0.003954
90 0.00399
99 0.003996
106 0.004021
109 0.003984
110 0.003976
115 0.004987
119 0.003987
123 0.004989
129 0.004951
131 0.004979
132 0.004975
138 0.003989
139 0.004988
139 0.003989
140 0.004987
110 0.004022
64 0.004987
38 0.005061
38 0.005022
49 0.004977
64 0.003976
75 0.004985
87 0.005027
97 0.003985
100 0.003948
104 0.004031
109 0.005024
114 0.00502
120 0.005028
124 0.005984
129 0.005977
132 0.004981
135 0.005039
137 0.004978
140 0.005029
144 0.005028
146 0.005024
137 0.005001
69 0.005027
27 0.005026
19 0.005032
27 0.004986
37 0.006
46 0.005984
56 0.006006
67 0.005983
78 0.006018
83 0.006015
88 0.004987
94 0.005001
104 0.005025
111 0.004977
116 0.005028
122 0.005984
128 0.006982
131 0.005992
136 0.005928
140 0.005929
142 0.006948
142 0.006966
142 0.005983
140 0.005978
105 0.006015
50 0.005987
21 0.006029
25 0.006017
35 0.005948
45 0.005979
53 0.005943
69 0.005984
76 0.006935
81 0.006981
88 0.005988
92 0.005985
102 0.006017
108 0.005985
114 0.005983
121 0.005984
126 0.006023
129 0.006023
131 0.006941
132 0.006943
133 0.006942
136 0.00701
137 0.005984
136 0.005984
139 0.00602
134 0.006029
111 0.00602
66 0.006982
39 0.006978
37 0.007001
46 0.007022
57 0.007012
71 0.007062
80 0.006983
90 0.006932
93 0.007021
98 0.006982
102 0.007013
104 0.007109
111 0.006981
117 0.007007
122 0.006932
127 0.006957
130 0.006024
134 0.005979
140 0.007944
142 0.007978
141 0.006968
143 0.007979
146 0.006984
138 0.006955
110 0.007026
66 0.007978
40 0.007978
46 0.006023
54 0.006982
65 0.007979
79 0.007979
88 0.007944
98 0.006981
100 0.007978
103 0.006981
106 0.006971
111 0.006937
116 0.007979
121 0.007978
128 0.00702
131 0.007023
132 0.007945
135 0.007962
137 0.007978
140 0.007985
143 0.007963
144 0.007978
144 0.007979
120 0.006949
71 0.007954
26 0.007046
28 0.007032
37 0.007022
47 0.007013
57 0.00701
65 0.007021
75 0.007014
81 0.00702
83 0.007937
90 0.007035
96 0.007945
101 0.007943
107 0.007945
116 0.007005
122 0.006981
126 0.007016
130 0.006365
134 0.007
138 0.00699
141 0.007025
145 0.007017
147 0.007025
147 0.006331
144 0.005986
124 0.006029
57 0.005983
27 0.005984
27 0.006024
35 0.006021
45 0.007035
58 0.006928
71 0.007032
80 0.006988
84 0.006981
88 0.007009
92 0.006982
96 0.005703
101 0.006027
110 0.006022
113 0.006981
118 0.007014
123 0.007024
125 0.006047
132 0.007014
134 0.006016
138 0.006025
142 0.006027
144 0.006027
145 0.006024
146 0.006033
128 0.00598
88 0.005993
49 0.00603
40 0.005972
47 0.005974
64 0.005943
74 0.005953
87 0.006016
92 0.005017
94 0.005013
95 0.004985
99 0.005938
104 0.004982
109 0.005984
115 0.005984
119 0.005991
123 0.005979
130 0.006018
132 0.006017
138 0.005988
137 0.005984
137 0.005984
140 0.005989
142 0.004984
126 0.005029
81 0.005021
36 0.004993
23 0.004994
29 0.004987
43 0.005015
51 0.005021
64 0.004987
72 0.00498
76 0.005981
79 0.005016
82 0.005038
88 0.005048
96 0.004986
103 0.005031
108 0.004987
113 0.004986
121 0.005023
126 0.004987
130 0.004987
133 0.005029
136 0.00483
139 0.003983
141 0.003992
143 0.004033
133 0.003989
98 0.004039
40 0.004022
16 0.004989
20 0.005048
28 0.004986
36 0.00504
45 0.004987
55 0.005015
61 0.004999
66 0.004988
67 0.005042
75 0.004021
81 0.003998
89 0.003952
97 0.00399
109 0.00399
115 0.004029
120 0.004024
125 0.00402
131 0.004031
135 0.003993
137 0.004042
141 0.004023
146 0.002961
147 0.004031
148 0.002993
140 0.002991
69 0.003989
28 0.003997
21 0.003992
32 0.004034
39 0.00399
47 0.00399
57 0.00396
66 0.00399
74 0.003951
77 0.003949
79 0.00399
83 0.00395
94 0.003948
101 0.004018
107 0.003991
116 0.004044
120 0.003031
124 0.002993
129 0.003023
135 0.002992
141 0.002994
143 0.002996
146 0.002992
148 0.002993
151 0.002998
139 0.002999
105 0.003991
49 0.003
40 0.002993
46 0.002992
57 0.002993
68 0.002994
81 0.003003
89 0.002992
92 0.003017
94 0.003007
95 0.002991
101 0.002992
108 0.002992
113 0.001995
120 0.00198
126 0.001995
130 0.002962
134 0.002941
138 0.002957
140 0.002987
142 0.003033
145 0.003022
149 0.002992
140 0.002992
110 0.002992
57 0.001992
25 0.002026
27 0.001995
35 0.002025
43 0.001962
51 0.001995
63 0.001996
70 0.001995
75 0.00199
78 0.001995
85 0.001988
90 0.001995
97 0.001995
108 0.001994
114 0.001946
119 0.001995
124 0.001995
130 0.001995
134 0.001995
138 0.001995
142 0.000999
147 0.002047
150 0.001995
151 0.001996
148 0.001997
112 0.001989
56 0.001996
27 0.001996
25 0.002026
33 0.002046
41 0.000998
49 0.001
58 0.001995
70 0.001995
73 0.000997
76 0.000997
81 0.000997
88 0.000997
95 0.000997
103 0.000996
111 0.000996
116 0.00101
123 0.000989
128 0.001003
133 0.000987
139 0.002
142 0.002003
144 0.002004
146 0.002042
147 0.001986
150 0.000947
153 0.000965
148 0.000998
122 0.000998
61 0.000985
39 0.000999
39 0.000997
55 0.000998
64 0.000994
73 0.000966
80 0.000953
88 0.000998
92 0.000991
93 0.000997
95 0.001029
101 0.000994
109 0.0
114 0.0
120 0.0
128 0.0
133 0.000997
134 0.001035
137 0.000998
142 0.000997
145 0.000997
148 0.001006
150 0.0
154 0.000998
157 0.0
148 0.0
127 0.0
66 0.0
58 0.0
64 0.0
71 0.0
85 0.0
94 0.0
99 0.0
104 0.0
107 0.0
108 0.0
112 0.0
118 0.0
125 0.001003
130 0.000997
134 0.0
137 0.0
141 0.0
146 0.0
149 0.0
151 0.0
152 0.0
154 0.0
156 0.0
157 0.0
132 0.0
89 0.0
50 0.0
47 0.0
53 0.0
60 0.000998
67 0.0
75 0.0
83 0.0
87 0.0
92 0.000998
96 0.000998
101 0.000997
106 0.000998
115 0.0
120 0.0
125 0.0
129 0.000998
135 0.001038
139 0.0
142 0.0
145 0.0
146 0.000997
149 0.000999
153 0.000998
153 0.001003
140 0.0
108 0.0
64 0.0
45 0.000993
45 0.002034
54 0.00103
61 0.001023
69 0.0
76 0.001988
82 0.002029
87 0.001996
88 0.000998
92 0.000998
95 0.017952
101 0.000948
109 0.001052
115 0.000997
122 0.0
126 0.0
130 0.0
132 0.001001
136 0.001034
141 0.0
144 0.001028
146 0.000999
148 0.001005
143 0.001076
121 0.001017
80 0.001988
53 0.001996
50 0.001061
55 0.001035
64 0.001001
72 0.001992
83 0.000988
86 0.001994
88 0.000997
91 0.002061
95 0.001994
100 0.001994
110 0.002025
116 0.002025
120 0.000948
126 0.001006
130 0.001038
135 0.002027
139 0.001034
142 0.002026
144 0.002962
147 0.002032
147 0.002027
132 0.002019
94 0.001986
52 0.001975
34 0.002053
35 0.002028
46 0.001027
53 0.002004
67 0.000987
73 0.001982
78 0.002991
79 0.001971
82 0.002039
87 0.001985
93 0.002992
99 0.002996
107 0.002028
115 0.001996
117 0.002036
123 0.002025
129 0.002035
134 0.003041
138 0.003023
138 0.002024
140 0.002024
143 0.002029
143 0.002962
133 0.002995
78 0.00202
34 0.002993
22 0.002037
26 0.002975
37 0.002044
43 0.00399
51 0.003955
61 0.001965
64 0.002993
67 0.002985
70 0.002994
76 0.003013
82 0.003026
93 0.00202
98 0.001998
106 0.002993
116 0.002965
122 0.003982
125 0.003984
129 0.003956
134 0.002992
138 0.00298
139 0.003012
143 0.003966
146 0.003982
147 0.002995
143 0.002988
124 0.003001
53 0.00301
38 0.003027
38 0.003003
44 0.004027
55 0.002987
63 0.003002
71 0.002987
77 0.003985
81 0.003985
83 0.003031
86 0.003027
91 0.002989
101 0.003
106 0.003992
112 0.004992
118 0.004985
124 0.003975
129 0.003974
134 0.003988
140 0.003958
141 0.004007
146 0.002975
149 0.002984
151 0.002989
147 0.003981
123 0.004024
82 0.00498
54 0.004979
51 0.004025
59 0.003969
68 0.003983
76 0.004995
84 0.005015
92 0.003984
94 0.003989
97 0.004044
102 0.002991
108 0.003989
114 0.004982
119 0.004986
126 0.004001
132 0.003986
136 0.003995
139 0.004976
142 0.004986
146 0.003998
147 0.003998
150 0.003989
152 0.004994
152 0.004976
154 0.005016
146 0.004979
100 0.003967
58 0.003986
42 0.003989
42 0.004987
50 0.004976
57 0.004001
64 0.003999
71 0.005033
80 0.00499
84 0.004984
86 0.005975
89 0.005984
97 0.004987
102 0.004956
108 0.004972
115 0.003992
122 0.004978
127 0.006038
133 0.003992
137 0.004981
141 0.005034
145 0.004947
147 0.004983
149 0.005977
151 0.005982
151 0.004998
143 0.004987
118 0.004952
76 0.005983
49 0.005982
47 0.006034
52 0.005985
65 0.00494
69 0.005008
73 0.004991
78 0.005998
80 0.005994
82 0.004992
87 0.004985
93 0.004982
99 0.005987
105 0.006014
115 0.006018
119 0.006016
124 0.005979
124 0.005995
127 0.005955
129 0.005971
128 0.005983
130 0.005987
135 0.005985
134 0.005987
129 0.006974
111 0.007008
75 0.00598
66 0.005985
71 0.005001
77 0.005982
86 0.005973
98 0.006029
105 0.006987
109 0.005978
111 0.006014
114 0.006019
117 0.006966
123 0.00698
132 0.005985
136 0.006035
141 0.00598
143 0.005973
145 0.00598
147 0.006944
148 0.006931
149 0.00597
151 0.005968
148 0.005978
133 0.006964
98 0.00698
49 0.006113
43 0.006028
51 0.006019
57 0.006984
63 0.006979
71 0.007932
79 0.007981
80 0.006966
80 0.006982
83 0.006975
89 0.00698
95 0.00698
103 0.006025
111 0.006024
122 0.005986
128 0.005969
132 0.006977
134 0.006974
136 0.007934
137 0.007941
138 0.007013
136 0.006962
120 0.006004
78 0.007977
37 0.006973
21 0.006018
24 0.00795
31 0.007013
36 0.006978
46 0.006972
55 0.007939
58 0.007939
59 0.00699
64 0.007012
69 0.007001
76 0.00793
89 0.007966
97 0.00702
108 0.006997
117 0.007026
124 0.007026
129 0.00702
131 0.007948
135 0.007039
138 0.007979
142 0.00793
143 0.007939
121 0.007939
74 0.007979
25 0.006972
22 0.007943
28 0.00699
37 0.007012
43 0.006992
52 0.006949
57 0.007022
57 0.007016
59 0.006979
64 0.007004
69 0.006981
74 0.007017
86 0.007979
94 0.007935
101 0.006989
109 0.007016
115 0.007013
120 0.007014
124 0.007022
127 0.006985
132 0.006982
134 0.007017
137 0.007009
133 0.007022
116 0.007965
58 0.007044
47 0.006026
52 0.006014
61 0.007016
75 0.00701
82 0.007019
88 0.006981
81 0.007035
81 0.007028
80 0.007015
89 0.007019
110 0.007032
122 0.006016
127 0.006026
135 0.006032
140 0.006025
142 0.006024
146 0.006024
150 0.006038
154 0.007013
155 0.006981
160 0.007046
159 0.009936
160 0.0
78 0.005996
43 0.005985
41 0.006024
45 0.00601
48 0.005986
53 0.005984
64 0.005944
70 0.006028
74 0.005982
76 0.005985
79 0.006039
90 0.00502
98 0.00503
109 0.005984
116 0.006014
122 0.006029
127 0.006024
133 0.005984
136 0.005992
138 0.006023
142 0.006021
144 0.006052
147 0.005991
151 0.005038
154 0.004992
158 0.005031
161 0.005033
161 0.005027
149 0.00503
113 0.004995
60 0.006018
50 0.005018
51 0.004985
53 0.005937
57 0.005985
66 0.005021
75 0.004986
84 0.00503
91 0.005013
96 0.004987
96 0.005023
94 0.005021
100 0.005031
106 0.00502
113 0.005027
121 0.004988
130 0.004024
142 0.004033
148 0.00403
151 0.005008
154 0.004869
159 0.005026
160 0.005024
158 0.005023
158 0.00499
160 0.005027
161 0.005017
161 0.004988
149 0.004038
104 0.004019
87 0.003949
90 0.004018
101 0.00399
110 0.00402
115 0.003976
119 0.004024
120 0.004987
118 0.005032
119 0.004987
122 0.005047
128 0.004046
137 0.004064
141 0.00403
146 0.004052
151 0.00396
155 0.00399
156 0.004021
157 0.004029
159 0.003987
162 0.004038
163 0.003991
163 0.004004
159 0.004027
135 0.004025
99 0.003986
73 0.004027
70 0.003026
72 0.002992
80 0.002988
86 0.002964
92 0.004033
101 0.003035
104 0.003065
105 0.002991
108 0.00303
112 0.002961
116 0.00399
121 0.003454
125 0.003957
132 0.003949
141 0.003991
146 0.002996
152 0.002993
159 0.00297
162 0.002992
163 0.002992
164 0.002992
166 0.004033
151 0.003955
115 0.003003
44 0.003027
25 0.003025
27 0.003029
36 0.002981
41 0.003999
53 0.004041
61 0.003004
70 0.003004
77 0.00298
81 0.002992
90 0.003021
98 0.002994
110 0.002993
120 0.003028
127 0.003025
132 0.003025
138 0.001995
146 0.002992
148 0.002026
153 0.00201
157 0.001995
162 0.002032
163 0.001995
163 0.002033
154 0.00202
119 0.001944
63 0.002991
27 0.002999
22 0.003023
31 0.003021
42 0.002993
51 0.001994
62 0.001992
75 0.001995
80 0.001975
82 0.002028
86 0.001995
98 0.001996
104 0.001993
109 0.002
114 0.001991
115 0.001977
120 0.00198
123 0.001995
129 0.001995
136 0.002019
140 0.001995
144 0.002032
151 0.001993
150 0.001994
147 0.001996
124 0.002028
79 0.001999
40 0.00199
28 0.002029
33 0.001996
43 0.001995
61 0.001995
71 0.000997
77 0.000997
82 0.000998
84 0.000997
91 0.000997
99 0.000947
107 0.000998
115 0.001996
125 0.001996
132 0.002005
138 0.001995
146 0.000998
148 0.000997
153 0.00096
156 0.001005
161 0.000997
157 0.000997
124 0.000997
63 0.000997
12 0.000997
1 0.000997
7 0.000998
18 0.001995
33 0.000988
46 0.000997
52 0.000997
55 0.000998
60 0.001009
64 0.001013
71 0.000994
81 0.000998
90 0.000997
101 0.000997
110 0.000998
119 0.000997
130 0.000998
138 0.0
141 0.0
145 0.0
151 0.0
152 0.0
137 0.0
90 0.0
18 0.0
0 0.0
0 0.0
0 0.0
0 0.000997
0 0.000997
0 0.0
58 0.0
55 0.0
48 0.0
49 0.0
57 0.0
68 0.0
80 0.0
92 0.0
98 0.0
106 0.0
110 0.0
113 0.0
117 0.0
121 0.0
131 0.0
135 0.0
137 0.0
128 0.0
99 0.0
64 0.000998
50 0.000998
53 0.0
58 0.001041
67 0.0
73 0.0
78 0.0
81 0.000999
83 0.000998
84 0.0
87 0.0
90 0.0
95 0.000997
102 0.000998
119 0.001031
124 0.001022
130 0.0
134 0.0
135 0.0
137 0.001035
137 0.0
137 0.001017
139 0.0
139 0.0
130 0.0
108 0.001037
66 0.001031
65 0.001032
77 0.0
86 0.0
94 0.0
98 0.000991
99 0.000994
102 0.0
102 0.000998
104 0.000998
109 0.002013
115 0.001995
123 0.001995
128 0.001995
132 0.0
135 0.0
138 0.001007
140 0.001046
145 0.001031
152 0.000998
155 0.001004
156 0.000974
150 0.000972
127 0.001995
53 0.001031
39 0.001993
41 0.001957
49 0.000998
54 0.000997
60 0.001026
70 0.001001
77 0.001008
78 0.00105
82 0.000972
87 0.000996
93 0.000997
105 0.0
111 0.002036
114 0.017941
121 0.0
136 0.000985
142 0.001997
145 0.002029
149 0.001003
153 0.001035
154 0.000998
155 0.001995
140 0.00202
107 0.003006
59 0.002988
32 0.001995
35 0.002028
43 0.001044
48 0.003
55 0.002992
65 0.002033
69 0.002038
74 0.000997
76 0.002999
84 0.00099
90 0.002999
98 0.003037
108 0.001988
113 0.002022
121 0.002023
127 0.002944
130 0.003032
138 0.002046
140 0.002034
143 0.001029
147 0.002992
152 0.001006
154 0.002985
156 0.002993
149 0.003028
129 0.002092
82 0.002025
47 0.003002
39 0.002992
47 0.002009
55 0.002025
62 0.001995
70 0.002992
80 0.00199
82 0.002991
83 0.003998
89 0.002982
95 0.00298
101 0.003001
108 0.003992
115 0.002992
122 0.001988
128 0.001979
133 0.002006
137 0.001979
142 0.002008
145 0.002005
147 0.004025
150 0.003994
156 0.003002
152 0.002993
141 0.003142
105 0.00399
64 0.004031
51 0.003033
58 0.003033
64 0.003034
78 0.001992
87 0.001994
93 0.002997
97 0.004986
96 0.002999
98 0.002997
102 0.003057
110 0.004028
117 0.004022
126 0.003003
130 0.003031
131 0.00304
140 0.003
145 0.002998
148 0.004957
154 0.00497
156 0.003987
159 0.003996
160 0.00299
148 0.004986
110 0.004038
51 0.003004
36 0.002991
40 0.003007
48 0.003004
54 0.002991
62 0.004975
67 0.004988
72 0.003987
76 0.003983
76 0.004017
82 0.00499
89 0.005019
98 0.004032
104 0.004025
111 0.004024
120 0.002989
126 0.003987
129 0.004984
132 0.005001
138 0.003982
140 0.003988
143 0.003998
146 0.004987
149 0.004986
142 0.00403
116 0.003984
63 0.005023
23 0.00499
27 0.004987
33 0.005976
37 0.005978
47 0.003986
55 0.003957
61 0.004025
63 0.004987
66 0.004987
70 0.004988
77 0.00399
85 0.004005
99 0.00399
105 0.005
112 0.004989
119 0.005978
125 0.005979
131 0.004978
136 0.004028
140 0.00504
145 0.006035
147 0.005984
151 0.003993
152 0.003998
152 0.004988
137 0.004978
96 0.004994
48 0.005987
32 0.005981
38 0.004986
46 0.005027
53 0.004999
61 0.005984
70 0.006019
75 0.003975
76 0.006982
76 0.004015
81 0.004962
90 0.005981
99 0.006979
106 0.005965
115 0.004982
122 0.004998
127 0.004996
132 0.005986
138 0.005984
144 0.005017
147 0.00604
153 0.005982
157 0.005945
158 0.005979
151 0.006985
118 0.006987
51 0.004976
34 0.004962
38 0.004985
46 0.00698
55 0.005984
65 0.005994
75 0.006023
82 0.00598
81 0.005928
83 0.005969
87 0.006964
95 0.006987
107 0.005985
113 0.005986
120 0.00599
127 0.006976
135 0.006981
139 0.006026
144 0.005983
150 0.007002
154 0.006983
157 0.006966
159 0.007949
163 0.007978
160 0.007013
139 0.005971
87 0.006015
42 0.007014
30 0.006981
37 0.005981
43 0.005979
53 0.006986
61 0.006984
69 0.006947
74 0.006946
75 0.007691
78 0.007951
85 0.007025
95 0.00603
103 0.006008
111 0.007974
121 0.007982
127 0.006964
136 0.007969
141 0.00697
147 0.006988
151 0.006993
156 0.007976
158 0.007978
163 0.007027
165 0.007026
168 0.006983
172 0.007981
172 0.007978
157 0.006997
96 0.00795
45 0.006987
41 0.007013
49 0.006977
56 0.007946
60 0.007979
70 0.006985
80 0.006981
84 0.007017
85 0.007054
87 0.007017
91 0.006957
104 0.007001
112 0.007941
120 0.007041
126 0.007009
133 0.007021
139 0.007019
145 0.007017
149 0.006972
152 0.006978
157 0.007019
159 0.006983
164 0.006994
166 0.007028
169 0.006032
169 0.007018
163 0.007043
136 0.006982
85 0.007017
55 0.007595
60 0.007017
65 0.007979
77 0.008024
87 0.006017
98 0.006009
106 0.006025
104 0.007015
106 0.006965
111 0.006954
116 0.006981
123 0.006986
131 0.006956
137 0.006994
142 0.006014
145 0.00595
149 0.006017
154 0.006015
158 0.005984
161 0.005986
164 0.006019
166 0.006019
167 0.005983
160 0.006036
133 0.006035
66 0.006015
43 0.00598
44 0.006982
54 0.006027
59 0.006019
71 0.006145
78 0.00598
88 0.00598
89 0.006017
90 0.005706
95 0.005935
102 0.005952
110 0.006017
118 0.006174
125 0.006031
129 0.006018
134 0.006017
144 0.006059
147 0.005022
153 0.005033
156 0.005034
158 0.005023
160 0.005984
164 0.004987
164 0.008009
160 0.0
99 0.006017
51 0.006015
35 0.006019
44 0.005952
53 0.004988
62 0.004944
70 0.005017
78 0.004989
83 0.005033
84 0.004988
86 0.006038
93 0.004981
101 0.005018
108 0.004021
115 0.005031
127 0.00502
132 0.004105
139 0.004955
144 0.005036
147 0.005031
151 0.003998
153 0.00396
157 0.005032
158 0.003992
159 0.004021
162 0.00399
155 0.003993
91 0.004987
48 0.005018
38 0.005026
47 0.004991
57 0.00396
66 0.003989
71 0.003991
81 0.004027
86 0.003957
87 0.00403
87 0.004037
91 0.005033
99 0.00505
104 0.00502
109 0.004069
118 0.005022
123 0.00399
129 0.003991
135 0.004028
141 0.00399
144 0.004023
149 0.004025
153 0.003991
156 0.004049
140 0.003782
92 0.004034
54 0.004031
46 0.004039
53 0.003944
66 0.003995
76 0.003026
86 0.003023
96 0.002951
100 0.003043
99 0.002992
101 0.003025
109 0.002994
116 0.003027
122 0.004016
129 0.003983
135 0.004026
140 0.004025
147 0.004028
149 0.004033
154 0.003982
158 0.004026
160 0.003023
162 0.00303
157 0.002988
129 0.003031
72 0.002993
31 0.002992
32 0.003001
41 0.004036
48 0.00399
53 0.002993
65 0.002992
72 0.002992
75 0.002982
77 0.002992
81 0.002993
90 0.002995
98 0.002993
108 0.003017
117 0.003051
122 0.003015
128 0.002992
133 0.003025
141 0.002031
145 0.002035
149 0.001992
153 0.001995
159 0.003001
162 0.002961
164 0.002028
144 0.001997
90 0.001995
39 0.001995
23 0.001996
27 0.001995
38 0.001995
43 0.002026
50 0.002993
59 0.002041
68 0.002023
68 0.001994
69 0.001995
73 0.001996
82 0.002993
90 0.002994
100 0.001995
109 0.001995
120 0.002029
126 0.001988
134 0.002029
140 0.001995
145 0.001992
147 0.001996
150 0.001996
151 0.00195
155 0.001993
159 0.00198
158 0.001995
137 0.001995
84 0.002027
30 0.001995
27 0.002028
30 0.000997
47 0.001995
57 0.001043
69 0.000998
78 0.000997
82 0.001002
85 0.000998
91 0.000997
96 0.000997
101 0.001003
114 0.002021
122 0.00101
131 0.001013
139 0.002026
143 0.001007
149 0.000997
150 0.000998
158 0.001005
167 0.000998
172 0.001002
175 0.001
178 0.000998
172 0.002035
153 0.000989
115 0.000998
74 0.000998
76 0.000997
83 0.0
93 0.0
104 0.000997
109 0.001007
110 0.0
108 0.001043
108 0.000997
111 0.001
115 0.000966
119 0.000999
122 0.0
124 0.0
125 0.0
125 0.0
130 0.0
134 0.0
137 0.0
140 0.000997
144 0.0
135 0.001004
115 0.000998
82 0.000997
62 0.000997
62 0.0
71 0.0
81 0.0
92 0.0
101 0.0
103 0.0
105 0.0
107 0.0
112 0.0
120 0.000997
126 0.0
135 0.000998
138 0.0
142 0.0
145 0.0
148 0.0
151 0.0
153 0.0
155 0.0
152 0.0
123 0.0
67 0.000998
27 0.000997
20 0.002015
27 0.000998
34 0.000997
45 0.0
55 0.0
64 0.002015
70 0.000982
71 0.0
76 0.0
83 0.0
89 0.001047
97 0.001023
108 0.001031
116 0.001028
124 0.0
129 0.0
135 0.0
140 0.000999
144 0.000975
146 0.0
150 0.000994
151 0.000997
145 0.000995
114 0.001994
24 0.001998
11 0.001029
17 0.0
25 0.0
33 0.0
40 0.001038
50 0.001031
60 0.0
64 0.0
66 0.0
71 0.000998
77 0.001041
91 0.000998
101 0.002041
114 0.0
123 0.0
129 0.0
132 0.001059
137 0.00104
145 0.0
149 0.000946
152 0.001005
156 0.002008
159 0.001051
165 0.000998
165 0.001995
149 0.001048
102 0.002006
50 0.002025
33 0.001038
38 0.001997
47 0.002038
56 0.001038
65 0.000988
76 0.001955
82 0.001995
87 0.000962
90 0.001961
93 0.002025
102 0.000987
110 0.00098
118 0.000982
127 0.00199
133 0.001995
140 0.001997
145 0.002027
149 0.000956
154 0.002
159 0.001994
162 0.002036
164 0.002994
167 0.000945
170 0.002026
171 0.002006
164 0.003045
135 0.001994
67 0.002008
48 0.002041
50 0.001988
57 0.003032
72 0.000936
81 0.002957
89 0.002992
95 0.000976
98 0.001039
100 0.000948
103 0.001996
109 0.001991
120 0.001982
127 0.002043
133 0.001984
140 0.00305
148 0.00203
152 0.002994
156 0.002992
160 0.002039
164 0.002032
165 0.002063
167 0.002992
169 0.002993
174 0.002027
172 0.001995
161 0.002002
126 0.002987
58 0.001996
54 0.003001
61 0.002992
74 0.001995
82 0.00199
91 0.002021
98 0.002992
102 0.002987
106 0.003024
108 0.001996
112 0.00199
119 0.004028
130 0.001984
135 0.002977
138 0.002992
146 0.001998
149 0.002009
151 0.001998
156 0.003001
160 0.004023
162 0.003989
165 0.003038
168 0.003025
168 0.003025
171 0.002979
164 0.003058
138 0.00399
92 0.00502
62 0.002095
65 0.002027
74 0.002993
85 0.00402
92 0.005018
104 0.002996
109 0.002023
111 0.003018
114 0.002997
116 0.003001
123 0.004033
129 0.004024
136 0.002877
141 0.003998
145 0.001987
150 0.004986
153 0.004987
157 0.002992
158 0.004017
160 0.003022
164 0.002994
166 0.002978
163 0.004987
146 0.005028
86 0.003021
52 0.002976
43 0.002988
49 0.00403
58 0.00399
70 0.003
77 0.003027
85 0.003003
90 0.002998
92 0.002995
96 0.00402
100 0.005018
109 0.003996
116 0.004019
121 0.003996
126 0.004987
132 0.004987
138 0.00402
143 0.004027
146 0.004031
150 0.003999
154 0.003011
156 0.006031
158 0.006018
159 0.004023
148 0.003986
112 0.003993
57 0.005013
29 0.004986
30 0.004001
38 0.004008
46 0.004032
59 0.003998
67 0.005023
72 0.005985
75 0.00602
75 0.004027
79 0.004017
87 0.003955
93 0.006982
101 0.005995
111 0.00383
119 0.00399
122 0.004995
129 0.004957
133 0.004956
137 0.004972
142 0.005985
147 0.006017
150 0.005024
155 0.005017
157 0.005025
158 0.005985
136 0.006025
69 0.003977
33 0.003962
31 0.003983
38 0.005035
49 0.005027
57 0.006145
65 0.005984
70 0.00503
71 0.00502
71 0.005019
73 0.006981
78 0.006982
90 0.004979
98 0.005021
110 0.004967
117 0.004979
125 0.004987
130 0.005984
135 0.006023
140 0.005038
144 0.00499
146 0.004983
149 0.007033
151 0.006974
155 0.004987
158 0.006017
153 0.006015
123 0.006021
65 0.005025
35 0.006991
33 0.007004
45 0.004965
53 0.00495
60 0.004987
69 0.006977
77 0.006981
79 0.005972
80 0.005975
83 0.005979
90 0.00597
96 0.005976
103 0.006982
112 0.006981
121 0.005984
124 0.005979
130 0.006032
135 0.007979
137 0.007983
142 0.005983
145 0.005984
149 0.005983
150 0.006018
152 0.00599
155 0.007008
156 0.006979
140 0.00599
101 0.006016
60 0.007041
47 0.007975
51 0.007948
65 0.007015
73 0.007012
87 0.007019
91 0.006016
93 0.006002
95 0.007976
99 0.007981
102 0.006966
112 0.006977
120 0.006937
127 0.006959
132 0.007979
138 0.007978
146 0.007011
152 0.007979
155 0.00701
159 0.00704
161 0.007025
162 0.007977
164 0.007983
168 0.006975
169 0.006981
147 0.006975
107 0.007059
73 0.00801
47 0.006973
56 0.007983
66 0.006996
75 0.007087
83 0.006986
91 0.006982
93 0.007035
94 0.006948
96 0.006949
100 0.006982
108 0.007019
114 0.007979
122 0.006981
133 0.007975
140 0.00697
145 0.006973
148 0.006979
152 0.007013
155 0.007024
159 0.006993
161 0.007
161 0.006992
161 0.006575
163 0.007978
166 0.006949
151 0.006979
93 0.006996
53 0.007016
43 0.006949
48 0.007026
57 0.006997
65 0.006978
72 0.006968
81 0.006967
85 0.007017
87 0.007014
88 0.006016
94 0.006017
103 0.006992
111 0.006983
120 0.005954
125 0.005986
130 0.006983
139 0.006964
142 0.006977
145 0.006982
149 0.006981
152 0.007035
155 0.006969
159 0.007037
161 0.006983
164 0.00598
166 0.006016
166 0.006016
153 0.005945
118 0.006017
55 0.00592
42 0.005952
47 0.006016
55 0.006018
63 0.006025
75 0.006015
82 0.006017
86 0.005985
88 0.006021
88 0.005972
92 0.006034
100 0.005017
106 0.005045
114 0.004978
122 0.005022
127 0.005026
132 0.005027
140 0.006021
144 0.005017
150 0.004984
151 0.006016
155 0.005984
158 0.005985
158 0.005976
160 0.006016
163 0.006029
165 0.006027
157 0.005019
132 0.005027
59 0.005029
45 0.005014
50 0.005018
59 0.005992
67 0.004988
74 0.004989
81 0.005976
87 0.006051
89 0.004954
89 0.005
91 0.005038
96 0.005013
106 0.004989
114 0.005037
120 0.006034
124 0.006022
128 0.004021
132 0.00399
133 0.003997
137 0.004999
138 0.003991
140 0.004991
142 0.005027
143 0.005024
145 0.005021
147 0.005021
145 0.00399
134 0.005018
103 0.005023
66 0.005013
50 0.00398
54 0.003991
62 0.00399
70 0.004023
78 0.003983
84 0.00399
90 0.004001
94 0.004023
99 0.00399
103 0.003998
108 0.003953
114 0.003983
119 0.004031
125 0.003992
132 0.003987
136 0.004036
139 0.004029
144 0.004
148 0.004026
149 0.004043
153 0.003981
158 0.004026
160 0.004026
157 0.004025
138 0.004
98 0.004031
62 0.003989
61 0.002993
70 0.003026
78 0.003992
89 0.002995
98 0.002994
101 0.00399
102 0.004028
105 0.004024
109 0.003026
114 0.002992
121 0.004042
127 0.004051
132 0.002993
137 0.002993
141 0.002994
147 0.002993
150 0.002991
154 0.003031
155 0.003025
157 0.003025
159 0.003936
161 0.003001
160 0.002994
136 0.00299
89 0.003025
48 0.002992
36 0.003947
43 0.004002
50 0.003955
57 0.001995
65 0.002992
69 0.001985
71 0.001994
73 0.002986
79 0.001991
85 0.003
93 0.002999
101 0.003028
109 0.003042
117 0.002985
123 0.002992
128 0.002992
134 0.002948
138 0.00303
142 0.002026
146 0.001984
149 0.002029
150 0.003027
151 0.002992
152 0.002041
150 0.001999
107 0.001995
57 0.001996
30 0.001995
30 0.001995
37 0.001988
43 0.001995
49 0.002041
57 0.002049
63 0.001996
66 0.00203
68 0.001995
71 0.002031
80 0.002061
88 0.001996
97 0.001948
106 0.002004
112 0.001996
119 0.00201
125 0.001044
127 0.002057
131 0.002055
140 0.000967
144 0.001079
147 0.002035
149 0.000997
151 0.001995
154 0.001995
153 0.000998
121 0.00102
67 0.001011
36 0.000998
30 0.000961
36 0.000994
45 0.000998
52 0.000998
62 0.000983
69 0.000997
71 0.001965
73 0.001056
75 0.001996
81 0.000998
86 0.000998
93 0.000996
100 0.001026
108 0.001042
115 0.000966
120 0.000998
125 0.000997
131 0.000997
135 0.000998
137 0.000997
138 0.000996
140 0.000998
139 0.001004
141 0.000997
142 0.000998
131 0.000997
86 0.0
49 0.002029
37 0.0
43 0.0
51 0.0
57 0.0
64 0.0
71 0.000999
73 0.0
74 0.0
78 0.000993
83 0.000997
95 0.000998
103 0.000998
109 0.000997
121 0.0
129 0.0
134 0.0
140 0.0
148 0.0
151 0.0
153 0.0
159 0.0
161 0.0
163 0.001008
157 0.000998
131 0.000997
60 0.0
49 0.0
55 0.0
63 0.0
70 0.0
80 0.0
86 0.0
88 0.0
88 0.0
90 0.0
94 0.0
102 0.001992
114 0.002031
120 0.000997
129 0.0
135 0.0
141 0.0
146 0.000993
149 0.000972
154 0.0
157 0.0
157 0.000995
158 0.000967
161 0.000997
162 0.000997
149 0.002046
92 0.0
53 0.0
41 0.0
42 0.00203
47 0.002045
52 0.0
57 0.0
62 0.0
67 0.001032
68 0.001031
74 0.001029
80 0.001035
91 0.0
98 0.0
108 0.0
117 0.001005
123 0.000998
131 0.000996
135 0.000999
138 0.0
141 0.002027
146 0.002043
151 0.002014
152 0.000997
154 0.000998
158 0.0
158 0.000954
143 0.002032
104 0.002047
54 0.0
47 0.0
51 0.0
56 0.001031
63 0.001053
75 0.00103
81 0.00103
83 0.0
86 0.000863
90 0.0
94 0.001995
99 0.001036
105 0.0
111 0.0
116 0.00096
121 0.002005
125 0.001032
132 0.000952
135 0.002993
138 0.003027
141 0.001003
140 0.001001
143 0.000965
147 0.002028
150 0.002993
146 0.000954
127 0.002004
89 0.0
60 0.002029
58 0.0
65 0.002992
73 0.002994
83 0.000981
91 0.002018
96 0.000989
98 0.003025
100 0.003027
106 0.000994
112 0.001996
119 0.002
126 0.001992
137 0.001998
141 0.001996
148 0.002996
153 0.001992
156 0.002025
159 0.002025
161 0.002991
164 0.002996
168 0.001002
166 0.000998
143 0.001993
97 0.002991
52 0.000984
54 0.003034
60 0.002992
70 0.001993
81 0.001981
87 0.001994
91 0.003026
93 0.002992
96 0.001007
99 0.001999
106 0.000998
114 0.002992
125 0.001994
130 0.00399
134 0.003989
142 0.002016
145 0.001961
148 0.001968
152 0.00299
156 0.002985
157 0.001995
160 0.001996
165 0.001997
160 0.002989
114 0.003023
61 0.00399
33 0.00399
34 0.002987
41 0.002008
47 0.001995
53 0.002992
60 0.004019
65 0.003026
66 0.002939
68 0.001995
71 0.002993
81 0.002996
89 0.002025
99 0.003989
108 0.003996
117 0.00299
125 0.002996
130 0.001981
135 0.00399
140 0.005038
146 0.002998
148 0.002995
149 0.002994
154 0.002994
157 0.002994
151 0.004024
121 0.004024
50 0.002995
29 0.002037
28 0.002013
35 0.005042
40 0.004986
49 0.002982
58 0.002994
63 0.002992
66 0.002993
68 0.002994
71 0.004991
75 0.003989
84 0.002987
91 0.002944
99 0.003023
106 0.004987
114 0.004987
121 0.002986
124 0.003003
128 0.002999
133 0.002991
137 0.002999
138 0.004976
139 0.00498
144 0.00399
146 0.003993
141 0.00299
121 0.004993
78 0.004986
37 0.002992
35 0.002991
41 0.002989
54 0.003003
61 0.003992
68 0.006022
73 0.005984
76 0.003979
75 0.004009
80 0.003983
88 0.005024
98 0.00502
108 0.003985
117 0.003985
124 0.00402
134 0.003989
137 0.003992
142 0.004987
147 0.005984
151 0.003985
154 0.004025
157 0.003996
163 0.005984
162 0.00602
142 0.003978
100 0.004003
66 0.003993
61 0.003999
67 0.003979
76 0.00302
85 0.005984
95 0.005984
97 0.004994
100 0.003985
100 0.003998
101 0.006021
105 0.005989
115 0.004992
122 0.004985
132 0.004991
139 0.004983
144 0.004988
148 0.005984
152 0.005969
159 0.005005
161 0.004995
163 0.004989
165 0.005988
168 0.006962
169 0.004987
157 0.004987
80 0.004988
47 0.004985
42 0.004979
46 0.006982
52 0.005995
59 0.004999
69 0.004984
75 0.004986
78 0.006998
84 0.00698
84 0.004969
89 0.004985
103 0.004985
111 0.004998
119 0.005028
126 0.00702
132 0.006981
139 0.005951
142 0.005949
147 0.004982
151 0.006987
156 0.00698
159 0.005987
161 0.005953
165 0.005985
167 0.005989
159 0.005993
131 0.007016
79 0.00798
40 0.005985
40 0.005031
48 0.005988
56 0.007959
61 0.007949
71 0.005987
79 0.005978
85 0.005986
86 0.005998
87 0.006
95 0.007013
102 0.007022
111 0.005987
117 0.005985
122 0.00698
128 0.007939
131 0.007975
133 0.005983
138 0.005953
140 0.006027
142 0.005992
143 0.005992
147 0.005987
147 0.007978
146 0.007979
131 0.00598
95 0.006967
57 0.005984
46 0.007973
50 0.007978
61 0.006979
73 0.007931
81 0.006016
86 0.005987
89 0.005962
89 0.007978
93 0.007979
103 0.006948
110 0.006971
118 0.006953
125 0.007016
131 0.007014
137 0.007023
142 0.007977
148 0.006976
151 0.006984
153 0.006992
159 0.007955
164 0.007981
163 0.006987
146 0.006998
92 0.006988
63 0.007021
58 0.007017
67 0.006949
84 0.007013
92 0.006982
100 0.006967
105 0.006978
108 0.007987
109 0.006982
112 0.006971
117 0.006967
125 0.007043
131 0.006024
137 0.007022
143 0.006975
149 0.006981
152 0.006867
155 0.006991
157 0.006977
160 0.007041
160 0.007017
162 0.006978
157 0.005976
127 0.005958
75 0.006017
39 0.006018
33 0.006016
44 0.005989
52 0.006976
60 0.006989
68 0.006974
73 0.007014
74 0.007013
79 0.006994
84 0.005992
90 0.006014
97 0.006013
106 0.006086
115 0.005988
125 0.006022
134 0.005985
140 0.006019
145 0.005996
147 0.005991
150 0.006037
152 0.006018
154 0.005981
157 0.005024
153 0.005032
127 0.006042
72 0.005999
25 0.005995
27 0.005984
38 0.005985
47 0.006041
55 0.006023
64 0.005993
70 0.006015
73 0.005986
75 0.005022
78 0.004989
84 0.004981
91 0.005025
103 0.004984
110 0.005013
116 0.006028
121 0.006005
124 0.005993
131 0.00599
135 0.005029
138 0.006074
141 0.006081
144 0.005978
146 0.005028
143 0.005018
98 0.005019
54 0.005027
34 0.005951
39 0.005985
51 0.005034
60 0.00502
70 0.004032
81 0.00503
85 0.004987
85 0.005022
86 0.005029
91 0.005044
104 0.004991
113 0.004956
123 0.005009
131 0.00502
136 0.004987
141 0.003952
146 0.005017
150 0.005017
154 0.00399
157 0.003989
160 0.003991
156 0.004952
94 0.005032
42 0.005023
24 0.005025
31 0.004946
42 0.005023
49 0.004989
60 0.005021
72 0.005019
76 0.003997
75 0.004039
77 0.004029
82 0.003999
95 0.003992
102 0.003998
115 0.00399
121 0.003989
126 0.00399
134 0.003954
139 0.003958
144 0.003022
148 0.00394
152 0.003984
154 0.003997
157 0.003995
149 0.003991
109 0.004047
42 0.004037
7 0.004008
8 0.003985
15 0.004025
20 0.004025
27 0.003942
40 0.003959
47 0.00394
50 0.002992
50 0.00399
57 0.002992
66 0.002992
78 0.003991
92 0.003989
101 0.004026
111 0.00399
119 0.004027
124 0.003991
133 0.003992
140 0.003003
144 0.003024
149 0.00303
155 0.002993
161 0.002992
161 0.00399
131 0.004047
69 0.003826
27 0.002993
17 0.002001
23 0.001995
35 0.002992
43 0.001994
53 0.00299
62 0.00299
68 0.002992
68 0.002992
71 0.002992
79 0.003028
86 0.002987
94 0.00301
103 0.002991
111 0.002022
119 0.003013
124 0.003031
130 0.003026
135 0.002992
143 0.002992
146 0.001989
147 0.001983
153 0.001988
157 0.001991
152 0.001993
129 0.00199
83 0.001995
40 0.00203
39 0.002036
50 0.001992
63 0.001995
81 0.001956
89 0.002038
96 0.002042
98 0.00199
100 0.002001
105 0.001995
112 0.00203
120 0.001995
127 0.001999
138 0.001995
143 0.001996
149 0.001995
157 0.002004
160 0.001981
164 0.002001
169 0.001996
170 0.00099
163 0.000997
131 0.000996
76 0.001008
43 0.002031
46 0.002031
56 0.001986
66 0.001996
85 0.002058
94 0.002027
99 0.000984
100 0.001995
103 0.000998
109 0.000997
116 0.001989
125 0.000998
133 0.000997
143 0.002011
148 0.0
154 0.000981
160 0.000997
164 0.000998
165 0.002037
168 0.0
172 0.001996
173 0.000999
162 0.001043
119 0.000968
49 0.000996
15 0.000997
18 0.000998
27 0.001009
43 0.000998
52 0.000968
63 0.000998
70 0.000997
75 0.0
77 0.0
83 0.0
91 0.0
101 0.0
113 0.0
122 0.0
130 0.0
142 0.0
147 0.0
150 0.000984
156 0.0
160 0.0
163 0.0
166 0.0
171 0.0
174 0.000997
154 0.000998
100 0.0
38 0.0
18 0.0
28 0.0
39 0.0
51 0.0
62 0.0
74 0.0
79 0.0
80 0.0
83 0.0
88 0.0
97 0.000999
105 0.000997
119 0.0
125 0.002041
133 0.0
137 0.000997
142 0.0
146 0.000998
150 0.002028
152 0.0
155 0.0
158 0.0
162 0.001995
162 0.002032
132 0.00204
78 0.002028
35 0.0
40 0.0
50 0.0
66 0.002026
79 0.00204
92 0.0
100 0.0
100 0.0
100 0.001026
106 0.001008
114 0.001022
126 0.002026
134 0.0
140 0.0
147 0.0
150 0.001981
156 0.002043
164 0.0
165 0.0
167 0.0
171 0.002029
173 0.002025
161 0.002041
115 0.002026
45 0.0
33 0.0
43 0.000971
58 0.001029
72 0.000997
88 0.0
97 0.0
103 0.0
104 0.001056
105 0.001034
113 0.002041
121 0.002037
133 0.0
141 0.0
147 0.0
152 0.002
156 0.001992
162 0.0
164 0.0
165 0.0
168 0.000997
170 0.002004
173 0.001997
163 0.002041
104 0.0
35 0.0
11 0.000967
15 0.001996
28 0.001984
43 0.0
54 0.0
66 0.0
73 0.0
77 0.001995
81 0.0
84 0.001991
91 0.001995
101 0.000961
110 0.000963
119 0.0
128 0.002045
135 0.002974
143 0.0
148 0.001
152 0.000988
155 0.002057
159 0.00099
163 0.003021
167 0.00302
163 0.002026
106 0.001002
34 0.000967
6 0.002991
7 0.002982
25 0.001995
35 0.001994
43 0.000995
50 0.001989
64 0.001996
71 0.002022
76 0.002996
83 0.000998
91 0.001021
98 0.000997
105 0.002997
113 0.003005
121 0.001991
126 0.002009
132 0.001994
136 0.002993
144 0.001986
146 0.002994
149 0.004023
154 0.001994
157 0.002004
147 0.001989
106 0.002968
46 0.002992
20 0.002011
28 0.000992
42 0.001996
55 0.002996
75 0.001002
83 0.00399
85 0.004024
85 0.001992
85 0.002
88 0.001998
101 0.004973
113 0.003991
125 0.001997
133 0.001993
141 0.002003
146 0.002987
153 0.001991
156 0.003994
160 0.003989
166 0.001969
168 0.001999
155 0.00201
107 0.001991
42 0.004149
17 0.003988
27 0.001991
43 0.001947
58 0.001997
82 0.002031
91 0.001993
94 0.004035
97 0.003989
99 0.003007
104 0.002985
114 0.002985
123 0.004986
130 0.004986
140 0.002995
147 0.002956
151 0.002945
157 0.002025
161 0.002992
163 0.004987
163 0.004992
167 0.002995
166 0.002989
146 0.003007
80 0.00496
15 0.004955
0 0.003998
5 0.00399
19 0.003988
37 0.003023
50 0.002989
60 0.004991
64 0.00502
66 0.002993
71 0.002998
77 0.002993
87 0.004989
98 0.004985
112 0.003997
122 0.004025
129 0.003985
142 0.003984
147 0.003988
153 0.005022
157 0.005026
162 0.002986
163 0.003994
167 0.003961
168 0.004986
158 0.005987
80 0.003991
11 0.00398
0 0.003997
9 0.003992
22 0.00398
33 0.006016
47 0.00602
62 0.003987
68 0.003011
70 0.003989
74 0.00499
78 0.004989
89 0.005011
100 0.003991
109 0.003988
123 0.003983
129 0.003988
135 0.006017
139 0.006
146 0.003988
150 0.00399
152 0.00399
152 0.00399
154 0.006978
156 0.006987
160 0.003991
147 0.003986
55 0.003994
13 0.003999
10 0.00399
24 0.006971
39 0.006983
56 0.004975
67 0.004981
80 0.004986
86 0.006011
89 0.005985
91 0.003988
98 0.003987
112 0.004
122 0.003988
132 0.005
139 0.006983
144 0.006984
153 0.004985
157 0.004993
161 0.004989
165 0.006978
168 0.006983
172 0.004976
176 0.004985
158 0.003988
101 0.00601
40 0.005982
22 0.007005
28 0.006984
49 0.005009
63 0.004987
76 0.004988
87 0.007014
96 0.006983
97 0.005988
99 0.004955
109 0.004988
119 0.004989
128 0.004985
136 0.00795
143 0.007994
149 0.005991
153 0.004975
158 0.004992
163 0.007003
166 0.006963
170 0.004986
174 0.004986
178 0.005005
177 0.005985
159 0.00595
69 0.007977
15 0.007943
4 0.005948
13 0.006002
28 0.005986
40 0.007973
51 0.007976
68 0.005996
76 0.005989
81 0.005987
84 0.005987
91 0.006038
101 0.007972
109 0.007975
120 0.005978
131 0.005983
138 0.005996
145 0.007962
151 0.007979
152 0.007969
158 0.005982
163 0.007987
166 0.006956
169 0.006981
172 0.006987
174 0.007011
158 0.007012
100 0.005982
30 0.00694
8 0.006983
20 0.008015
36 0.007967
49 0.005995
69 0.007955
80 0.006959
84 0.00598
84 0.005981
88 0.007014
96 0.00695
103 0.00693
110 0.006969
120 0.006012
130 0.007016
133 0.007021
140 0.006961
144 0.007017
146 0.006979
152 0.00697
158 0.005972
161 0.00702
164 0.007016
167 0.006975
171 0.006967
160 0.00698
120 0.007011
58 0.007011
29 0.006968
44 0.007014
60 0.006976
76 0.005992
88 0.006015
97 0.006972
99 0.005979
101 0.005985
103 0.005985
107 0.006979
118 0.006991
127 0.007014
137 0.006951
145 0.007049
149 0.006971
158 0.006968
161 0.00697
164 0.006014
166 0.006019
171 0.005993
174 0.005983
168 0.005983
136 0.006015
74 0.00603
30 0.006978
41 0.007015
63 0.006988
71 0.00602
89 0.006018
100 0.005372
108 0.006025
111 0.00599
111 0.006955
117 0.005996
123 0.006021
131 0.006014
140 0.005984
149 0.006018
153 0.005987
162 0.005991
164 0.005986
167 0.005965
169 0.006023
173 0.005034
176 0.005984
167 0.005984
125 0.00497
42 0.005011
0 0.005496
0 0.00504
14 0.005022
31 0.004977
43 0.005025
55 0.006026
65 0.00602
68 0.006016
71 0.006045
74 0.00598
81 0.005976
92 0.005976
104 0.005983
119 0.006095
129 0.005983
137 0.005967
144 0.005988
151 0.005982
153 0.005961
155 0.00503
162 0.005018
163 0.00502
151 0.004996
96 0.004992
14 0.005027
0 0.006026
0 0.00502
7 0.004964
17 0.005144
30 0.004977
43 0.006018
49 0.004033
51 0.00497
53 0.00395
58 0.003992
68 0.004022
78 0.004988
97 0.005018
105 0.005018
114 0.004991
123 0.003982
130 0.00497
134 0.005019
139 0.003571
143 0.003991
146 0.004049
152 0.004006
154 0.004986
140 0.003983
31 0.00403
54 0.003992
56 0.004027
64 0.005035
71 0.004024
79 0.004021
86 0.00402
93 0.004024
95 0.004035
95 0.003986
96 0.004025
100 0.00399
109 0.004024
115 0.004022
122 0.00402
126 0.003982
132 0.003951
136 0.003998
140 0.003989
142 0.003953
147 0.002946
150 0.003022
152 0.00395
149 0.003956
102 0.003956
69 0.003935
63 0.00399
71 0.00399
80 0.003938
89 0.003973
97 0.002992
103 0.003003
105 0.002949
105 0.002957
106 0.00398
110 0.004034
120 0.002992
125 0.003043
130 0.003024
137 0.003948
141 0.00205
145 0.003005
148 0.003007
150 0.00396
153 0.002992
154 0.002998
156 0.003036
158 0.003027
145 0.002992
100 0.003036
62 0.001953
54 0.002991
59 0.003023
64 0.002996
67 0.002992
73 0.002991
83 0.002973
87 0.002993
88 0.002027
89 0.001994
97 0.003035
103 0.001954
111 0.002031
121 0.002964
127 0.001992
133 0.002991
138 0.002992
143 0.002992
147 0.002992
150 0.002992
154 0.002992
155 0.001995
157 0.001995
159 0.002029
161 0.001997
150 0.001961
109 0.00203
68 0.002031
57 0.001996
61 0.001977
69 0.002029
75 0.00203
81 0.002031
89 0.001983
98 0.001995
99 0.001995
99 0.002041
103 0.002037
111 0.001996
118 0.001984
125 0.002041
131 0.001952
136 0.001995
142 0.002039
146 0.001947
148 0.001996
152 0.002043
154 0.00099
155 0.000997
156 0.000998
157 0.000984
159 0.000997
160 0.002002
157 0.000998
142 0.001028
87 0.000997
67 0.002025
68 0.001966
82 0.00204
90 0.001956
97 0.002003
105 0.001996
109 0.000999
109 0.000997
109 0.000997
111 0.001001
115 0.000997
121 0.000997
127 0.000998
131 0.001048
137 0.001995
140 0.0
143 0.0
145 0.00095
150 0.0
152 0.0
153 0.0
156 0.000998
158 0.000998
159 0.001987
149 0.000993
116 0.000998
80 0.001042
83 0.000998
92 0.000997
101 0.0
112 0.0
118 0.0
123 0.000997
124 0.0
125 0.000998
127 0.0
132 0.0
136 0.0
145 0.0
148 0.0
151 0.0
154 0.000997
158 0.000998
159 0.0
160 0.000998
162 0.0
164 0.0
166 0.0
166 0.0
167 0.000997
150 0.000993
108 0.0
74 0.0
67 0.0
72 0.0
83 0.0
90 0.0
97 0.0
104 0.0
109 0.0
111 0.002028
111 0.002028
116 0.00203
121 0.002027
128 0.0
133 0.0
138 0.0
142 0.001998
145 0.001993
146 0.00099
150 0.000962
151 0.000963
153 0.001997
156 0.002
157 0.001986
159 0.002026
160 0.0
157 0.001014
137 0.0
94 0.001996
69 0.00203
71 0.0
80 0.0
88 0.0
95 0.002027
102 0.002031
111 0.002029
113 0.00203
114 0.001001
116 0.0
120 0.0
126 0.00103
131 0.002038
138 0.0
142 0.000996
144 0.001003
147 0.002024
149 0.001996
152 0.002025
154 0.002028
156 0.0
156 0.0
157 0.0
158 0.002015
158 0.002026
141 0.0
104 0.0
76 0.0
71 0.002032
77 0.002027
91 0.002029
99 0.002025
107 0.0
111 0.0
112 0.001002
113 0.002035
115 0.003
119 0.0
124 0.0
129 0.0
132 0.002046
136 0.001986
139 0.0
141 0.001987
144 0.002027
145 0.0
145 0.0
147 0.0
148 0.003023
150 0.003003
149 0.002001
136 0.002
104 0.001985
80 0.001994
82 0.002002
91 0.00202
102 0.00199
112 0.001996
112 0.001976
117 0.002003
118 0.002991
117 0.002992
121 0.001995
126 0.001989
132 0.001998
139 0.003028
146 0.000986
150 0.001981
153 0.002959
157 0.001999
159 0.001989
161 0.001987
163 0.001975
166 0.002979
164 0.001999
143 0.001996
87 0.001996
38 0.00299
31 0.001997
44 0.002988
56 0.002961
70 0.001997
80 0.001997
88 0.001991
89 0.003958
90 0.003983
95 0.001008
99 0.001992
106 0.001995
115 0.002992
126 0.002
131 0.00301
135 0.002984
143 0.00199
147 0.002003
149 0.001994
152 0.003988
155 0.00399
159 0.002006
160 0.001996
146 0.003003
94 0.003989
20 0.002008
18 0.003991
27 0.003985
41 0.001994
50 0.000998
61 0.001993
71 0.00399
76 0.003953
78 0.003987
84 0.001996
90 0.002
98 0.001997
115 0.001974
122 0.002002
130 0.004004
136 0.003955
141 0.001998
144 0.002958
148 0.002962
149 0.004984
148 0.004981
152 0.001995
153 0.002963
153 0.002026
114 0.001999
56 0.00201
29 0.003973
29 0.004009
45 0.002
60 0.003019
70 0.002987
78 0.004986
86 0.004978
91 0.002994
89 0.002984
93 0.003005
105 0.003003
112 0.001996
122 0.004986
129 0.005002
138 0.002977
144 0.003
149 0.002995
151 0.004988
151 0.005011
153 0.00299
156 0.003008
157 0.002992
122 0.00299
72 0.002974
45 0.004973
47 0.005015
66 0.00299
81 0.003996
96 0.00401
106 0.005991
112 0.005989
112 0.00299
111 0.003991
111 0.002984
123 0.003014
129 0.002994
135 0.005953
143 0.005954
150 0.00299
153 0.002991
156 0.003992
161 0.005987
164 0.005954
166 0.003982
157 0.003988
119 0.004988
29 0.003993
20 0.004009
27 0.005988
37 0.005978
49 0.002983
59 0.003996
68 0.003988
74 0.005953
75 0.005997
77 0.004002
84 0.003988
94 0.004003
111 0.003989
118 0.003989
127 0.003025
135 0.006001
140 0.006959
147 0.004982
154 0.004986
157 0.003984
161 0.005993
164 0.005977
156 0.004986
115 0.004018
20 0.003989
11 0.003994
17 0.003991
25 0.005982
33 0.005977
46 0.003988
59 0.003985
66 0.005015
70 0.006983
71 0.006969
77 0.004987
87 0.004986
107 0.004971
117 0.004982
127 0.004983
135 0.007014
143 0.006983
151 0.004995
156 0.004955
160 0.004984
164 0.006963
168 0.006985
172 0.004999
174 0.005011
142 0.005014
73 0.004996
28 0.005954
23 0.007974
31 0.007979
40 0.004978
49 0.004988
59 0.005001
70 0.00698
78 0.006967
80 0.004992
82 0.004988
95 0.00594
105 0.005942
115 0.005979
125 0.00796
138 0.007973
144 0.004985
151 0.004985
156 0.004984
161 0.006978
165 0.007982
169 0.005019
171 0.005006
175 0.004954
178 0.005994
172 0.005032
124 0.007978
78 0.007979
35 0.005982
38 0.004994
48 0.004987
60 0.007978
70 0.007969
87 0.005996
95 0.005967
96 0.006964
95 0.005978
99 0.005985
108 0.006964
118 0.006984
126 0.006982
135 0.006981
143 0.006948
146 0.006984
154 0.006981
159 0.006982
165 0.006948
168 0.006958
172 0.005989
176 0.005969
173 0.005966
140 0.007014
98 0.007971
49 0.005983
50 0.005982
62 0.006981
80 0.007013
93 0.007015
109 0.00698
116 0.007012
118 0.006977
119 0.006975
124 0.006979
132 0.006017
140 0.006975
146 0.005982
155 0.006005
161 0.005978
165 0.007003
168 0.007011
173 0.006959
176 0.007011
179 0.00695
182 0.006984
182 0.006973
173 0.006987
132 0.006984
70 0.006991
42 0.005981
43 0.005985
55 0.005985
66 0.006978
80 0.00698
94 0.00698
100 0.00597
101 0.005984
105 0.005982
112 0.006026
119 0.006014
132 0.00598
139 0.005976
146 0.005968
153 0.006016
159 0.006018
164 0.005979
169 0.005976
172 0.006984
176 0.005953
179 0.005981
181 0.006015
184 0.005985
183 0.005916
168 0.006004
119 0.005984
60 0.006991
40 0.006001
46 0.006003
62 0.005023
72 0.004988
86 0.004986
96 0.004985
101 0.006017
103 0.005955
105 0.005056
110 0.004985
118 0.004986
126 0.006136
135 0.006024
141 0.005013
151 0.005951
155 0.00594
161 0.005031
164 0.004992
168 0.004989
170 0.005018
172 0.005978
174 0.005984
176 0.005968
176 0.005017
174 0.004988
157 0.004998
69 0.004956
41 0.004988
44 0.004986
57 0.00498
69 0.004969
80 0.004956
90 0.004979
99 0.004987
100 0.004953
102 0.00598
104 0.005023
110 0.004021
123 0.005026
129 0.005025
138 0.004981
142 0.004978
145 0.00499
147 0.005029
147 0.005015
149 0.004983
152 0.004954
154 0.005009
157 0.003991
160 0.004059
148 0.003987
113 0.00402
58 0.003999
51 0.004001
62 0.003999
77 0.004961
91 0.004006
106 0.005014
114 0.004679
118 0.003992
119 0.004021
119 0.004022
126 0.003033
132 0.003991
140 0.003946
144 0.003967
149 0.002997
153 0.004017
157 0.004021
161 0.003981
163 0.003972
166 0.003017
169 0.004025
170 0.004048
146 0.003021
92 0.004047
43 0.004007
32 0.003995
41 0.003985
52 0.00398
64 0.003948
74 0.00399
87 0.003991
92 0.004018
93 0.00399
93 0.00299
102 0.003002
111 0.002992
119 0.003022
129 0.003948
136 0.003959
143 0.002965
148 0.003023
152 0.002992
157 0.002997
159 0.00299
162 0.002988
165 0.002999
168 0.002989
158 0.003024
121 0.003952
38 0.003972
19 0.003959
22 0.002965
31 0.003039
39 0.002993
54 0.002992
65 0.003067
71 0.002986
76 0.003026
79 0.002977
85 0.002985
93 0.002993
105 0.003001
116 0.002996
124 0.003001
132 0.001995
139 0.001995
147 0.002029
151 0.002025
156 0.002993
159 0.003028
164 0.002986
167 0.003044
169 0.002028
166 0.002992
140 0.002942
74 0.002027
28 0.002029
19 0.002028
28 0.001979
39 0.003028
48 0.002001
59 0.002042
75 0.002028
80 0.00202
79 0.000991
84 0.000964
91 0.001024
101 0.002029
111 0.002052
121 0.001029
130 0.000998
136 0.001038
141 0.000998
144 0.002029
148 0.00198
150 0.001978
153 0.002036
156 0.001995
158 0.002052
161 0.002037
164 0.002027
157 0.002029
124 0.002042
52 0.001965
34 0.001031
37 0.000997
54 0.00097
65 0.002025
77 0.001995
86 0.002002
90 0.002056
90 0.002024
91 0.001957
95 0.000999
103 0.000998
117 0.000997
127 0.000997
134 0.002039
144 0.001992
149 0.002005
154 0.002041
158 0.002029
161 0.001994
163 0.000996
166 0.001007
168 0.0
166 0.007942
114 0.000998
56 0.000997
35 0.000998
45 0.000998
58 0.0
69 0.000997
81 0.000997
95 0.002025
98 0.000998
97 0.000997
99 0.0
102 0.0
113 0.0
124 0.0
132 0.0
144 0.0
150 0.0
153 0.0
157 0.001
163 0.0
164 0.0
167 0.000946
168 0.0
171 0.000997
172 0.0
174 0.0
160 0.0
59 0.0
28 0.0
25 0.0
34 0.0
46 0.0
56 0.0
67 0.0
77 0.0
82 0.0
84 0.0
88 0.0
94 0.0
110 0.000998
120 0.001028
131 0.000997
141 0.0
148 0.0
153 0.00203
158 0.002042
163 0.0
167 0.0
172 0.0
174 0.001996
175 0.001989
178 0.002035
180 0.002002
180 0.0
162 0.000965
106 0.001006
48 0.002985
31 0.002027
40 0.000952
52 0.0
61 0.0
71 0.002026
83 0.002037
95 0.002028
96 0.002028
98 0.0
104 0.001005
113 0.0
122 0.002027
131 0.002027
142 0.0
149 0.0
154 0.00095
158 0.002044
162 0.002029
167 0.00203
172 0.002027
175 0.000965
176 0.001011
179 0.0
180 0.001991
182 0.002994
184 0.000959
171 0.0
131 0.0
67 0.002996
39 0.00304
47 0.002984
59 0.003023
74 0.0
84 0.0
92 0.0
99 0.002001
100 0.002029
101 0.0
104 0.0
109 0.001029
117 0.00203
124 0.002029
136 0.002025
141 0.002047
149 0.001
154 0.001001
158 0.0
158 0.002036
160 0.002025
162 0.0
161 0.000981
163 0.0
168 0.002029
169 0.001995
153 0.002027
112 0.001994
57 0.0
53 0.0
64 0.0
78 0.001008
91 0.002995
103 0.002993
113 0.000964
118 0.0
118 0.0
120 0.002992
127 0.0
132 0.002997
139 0.003024
146 0.0
151 0.0
155 0.001995
158 0.002993
162 0.002021
165 0.002011
168 0.002
168 0.001984
170 0.003026
175 0.00199
173 0.001961
155 0.002961
86 0.000964
47 0.002016
43 0.001994
53 0.002995
66 0.004024
83 0.001995
95 0.001992
103 0.002993
107 0.004023
109 0.0
112 0.003963
116 0.003986
126 0.001999
134 0.002998
141 0.002028
145 0.002993
151 0.004023
157 0.002031
159 0.001995
163 0.001982
166 0.002992
170 0.001973
171 0.00301
174 0.002946
177 0.001994
171 0.001993
143 0.001995
81 0.00399
36 0.003991
32 0.001991
43 0.001992
55 0.001998
66 0.00399
84 0.001992
90 0.00399
93 0.003991
96 0.001987
99 0.001996
104 0.001995
113 0.00399
120 0.003989
129 0.001997
137 0.001978
143 0.001993
146 0.00399
152 0.001999
155 0.003986
158 0.003986
163 0.001993
164 0.001996
167 0.001995
169 0.002018
171 0.005021
169 0.005021
131 0.002025
64 0.001998
25 0.001992
28 0.003001
42 0.002036
53 0.004989
64 0.004996
78 0.002031
84 0.001972
86 0.002026
88 0.005021
90 0.005018
98 0.002007
105 0.001992
112 0.003027
125 0.001999
130 0.002991
135 0.003991
138 0.003989
142 0.002992
145 0.001984
148 0.002991
149 0.004986
152 0.004987
156 0.002981
158 0.002995
162 0.002987
149 0.002028
110 0.002003
52 0.00505
28 0.005018
36 0.002985
50 0.002972
63 0.003014
75 0.004985
87 0.004987
94 0.002947
96 0.002995
96 0.002016
101 0.003983
108 0.002966
116 0.005985
123 0.005984
135 0.002992
140 0.002984
143 0.003026
147 0.005984
152 0.005984
155 0.003004
159 0.00299
161 0.002978
167 0.002987
169 0.002995
156 0.005973
115 0.005984
42 0.003987
29 0.003973
38 0.003992
51 0.006017
64 0.005993
80 0.003995
92 0.004994
97 0.002971
98 0.002987
99 0.004
104 0.004959
112 0.006975
121 0.005954
131 0.003989
139 0.003991
144 0.004957
148 0.005984
152 0.006015
158 0.003999
160 0.003991
165 0.003968
168 0.003951
170 0.003986
173 0.006024
173 0.00598
145 0.004029
80 0.004986
29 0.00499
18 0.007016
25 0.007018
41 0.004027
52 0.005001
70 0.004991
79 0.003958
84 0.003989
84 0.006983
85 0.006976
93 0.005017
101 0.004983
112 0.004989
123 0.006982
131 0.006981
138 0.004975
144 0.004987
151 0.00397
156 0.004023
159 0.005993
162 0.006984
166 0.007963
167 0.004985
170 0.004987
172 0.00497
168 0.007979
138 0.00794
48 0.004933
21 0.004943
29 0.004965
40 0.004944
50 0.004934
61 0.007969
76 0.007974
82 0.005971
84 0.005021
85 0.004987
89 0.00798
97 0.007979
111 0.005984
120 0.005987
135 0.005986
142 0.005985
148 0.005955
153 0.007944
159 0.007977
162 0.005998
165 0.005022
167 0.005959
170 0.007978
173 0.007941
176 0.007984
178 0.005983
155 0.006978
96 0.005983
39 0.005953
24 0.005977
35 0.007986
46 0.007982
59 0.00503
69 0.006019
78 0.005984
86 0.007982
87 0.007023
86 0.005981
92 0.007959
100 0.005932
109 0.005477
118 0.003995
128 0.006997
135 0.007015
139 0.005981
144 0.006965
149 0.006967
151 0.006983
154 0.006956
155 0.006014
157 0.006982
162 0.005947
163 0.005984
161 0.005985
143 0.006989
93 0.007021
46 0.006967
37 0.006951
49 0.006984
63 0.00701
76 0.007018
95 0.005934
104 0.00602
106 0.005979
107 0.005983
110 0.005986
116 0.006019
125 0.006003
136 0.005987
143 0.005978
148 0.005985
152 0.00595
157 0.007019
162 0.005976
167 0.006021
168 0.006966
170 0.006978
174 0.005975
174 0.006017
164 0.00502
100 0.005988
45 0.004983
28 0.005985
35 0.005984
48 0.005989
64 0.006031
81 0.005976
94 0.006028
98 0.005992
99 0.005985
100 0.004987
104 0.005017
113 0.004991
124 0.005983
133 0.004997
142 0.005982
149 0.006015
153 0.006035
160 0.006016
162 0.006016
168 0.005985
170 0.004969
171 0.006016
173 0.005025
176 0.004993
169 0.005998
131 0.004989
62 0.004955
25 0.006016
22 0.006029
39 0.005018
49 0.004958
63 0.004986
74 0.004002
81 0.002968
86 0.004988
87 0.004994
92 0.004995
101 0.004988
110 0.004984
120 0.004042
129 0.003991
143 0.004985
148 0.00399
155 0.003941
159 0.004003
163 0.003989
168 0.005015
170 0.003991
173 0.005021
175 0.005036
179 0.004992
179 0.00502
168 0.005018
79 0.00499
33 0.005024
27 0.005022
39 0.004006
51 0.004022
61 0.004025
71 0.00396
87 0.003957
91 0.004052
92 0.004029
94 0.00393
97 0.003994
108 0.003954
115 0.003926
125 0.003954
132 0.003953
136 0.003954
140 0.003989
144 0.004022
149 0.00399
152 0.003948
156 0.003935
157 0.00402
159 0.004054
164 0.004037
166 0.004045
153 0.003997
115 0.002985
60 0.004025
36 0.00403
41 0.004044
53 0.004024
71 0.003989
82 0.00399
94 0.004002
100 0.004039
101 0.004023
104 0.00399
110 0.002995
123 0.003043
133 0.003027
141 0.003026
147 0.002981
151 0.004015
155 0.00303
158 0.004024
162 0.002996
165 0.00399
167 0.003989
172 0.002992
174 0.003026
164 0.00306
134 0.002986
74 0.002992
41 0.002992
41 0.002992
59 0.002972
72 0.002992
84 0.002993
96 0.001996
106 0.001964
110 0.001996
113 0.001989
117 0.001995
123 0.001995
132 0.002046
139 0.002027
146 0.002992
153 0.003027
158 0.002999
161 0.002984
164 0.001995
168 0.001996
171 0.001996
172 0.00199
176 0.001995
179 0.001963
174 0.001995
149 0.002004
86 0.002005
29 0.001996
28 0.002038
38 0.00204
53 0.002044
63 0.002025
82 0.002032
91 0.001995
98 0.000999
101 0.000998
102 0.001996
108 0.001996
116 0.001995
128 0.001996
136 0.002044
143 0.002028
148 0.002025
153 0.00203
159 0.000997
161 0.00099
164 0.002032
166 0.000998
167 0.001006
168 0.001994
168 0.000997
168 0.000998
170 0.000998
164 0.002002
136 0.001013
76 0.000997
28 0.002029
33 0.000997
45 0.000998
61 0.001981
72 0.002031
82 0.002042
88 0.002041
91 0.000998
94 0.000998
98 0.000997
103 0.000984
109 0.001006
121 0.000991
128 0.000997
135 0.000999
139 0.000997
144 0.000997
148 0.000998
152 0.0
155 0.0
158 0.0
162 0.0
165 0.0
168 0.00101
148 0.001032
100 0.0
54 0.0
46 0.0
58 0.000999
72 0.000998
85 0.0
98 0.000993
110 0.0
113 0.0
115 0.000998
118 0.0
125 0.0
131 0.0
137 0.00103
146 0.0
150 0.0
153 0.0
156 0.001045
160 0.0
164 0.0
167 0.0
170 0.000991
172 0.0
175 0.0
176 0.000999
161 0.0
116 0.0
56 0.0
30 0.0
38 0.0
49 0.0
60 0.0
72 0.001998
84 0.002027
94 0.0
99 0.002041
101 0.000964
106 0.0
113 0.0
120 0.00303
129 0.003037
138 0.0
143 0.0
148 0.0
152 0.002043
154 0.002026
158 0.0
162 0.002994
165 0.001007
166 0.000951
168 0.001005
171 0.00299
172 0.002997
149 0.0
93 0.0
39 0.0
25 0.003003
32 0.00303
49 0.0
62 0.002028
78 0.0
86 0.0
91 0.0
92 0.002026
95 0.00203
101 0.0
109 0.0
118 0.00094
126 0.003036
131 0.002038
140 0.0
146 0.002993
150 0.0
154 0.00097
156 0.00095
159 0.002043
161 0.003037
164 0.000988
167 0.000994
170 0.0
171 0.002026
157 0.002042
94 0.000967
34 0.001995
30 0.0
41 0.0
51 0.0
60 0.002986
69 0.001981
81 0.0
86 0.000955
88 0.000962
92 0.001991
98 0.001957
104 0.000997
114 0.002029
122 0.0
128 0.0
133 0.0
135 0.0
137 0.002029
140 0.00203
143 0.0
148 0.0
151 0.0
153 0.002997
156 0.002962
158 0.002993
147 0.00299
98 0.0
53 0.0
40 0.002018
48 0.003001
62 0.003029
79 0.002007
91 0.001995
100 0.002001
103 0.002988
105 0.002993
107 0.003027
112 0.002993
121 0.002984
127 0.001993
134 0.002041
141 0.002992
146 0.003027
151 0.001995
156 0.001994
158 0.001996
160 0.00399
162 0.004039
167 0.002992
168 0.003034
148 0.003004
100 0.002988
48 0.002993
32 0.003026
38 0.003024
55 0.003004
69 0.002992
81 0.00203
92 0.003022
98 0.004025
102 0.003989
105 0.00402
110 0.002026
119 0.001992
125 0.001998
132 0.00399
138 0.00399
146 0.001988
150 0.00299
154 0.00299
157 0.00399
159 0.003989
163 0.003989
166 0.003989
169 0.001978
171 0.001993
163 0.001997
130 0.00399
66 0.003988
21 0.002989
21 0.002
33 0.001961
44 0.00399
55 0.003989
74 0.003988
82 0.003992
87 0.00299
89 0.002992
93 0.001993
100 0.003989
109 0.00402
120 0.002994
128 0.001992
136 0.002012
143 0.001998
148 0.005017
153 0.002963
156 0.004987
158 0.00405
164 0.001991
164 0.002007
166 0.001992
169 0.003989
171 0.004041
156 0.003005
108 0.002988
45 0.002993
21 0.005021
33 0.002029
45 0.005023
56 0.005022
70 0.001983
82 0.002004
88 0.002975
91 0.006045
93 0.005987
100 0.003019
107 0.002996
115 0.002979
124 0.00502
135 0.003986
140 0.005015
145 0.004987
149 0.002994
153 0.002999
156 0.001998
158 0.005019
160 0.004983
161 0.003033
162 0.001982
164 0.002025
166 0.004987
131 0.00303
73 0.005984
37 0.006022
36 0.003
49 0.002976
62 0.002987
74 0.005984
84 0.005999
94 0.002995
99 0.00298
101 0.002999
103 0.004962
113 0.002985
122 0.005985
131 0.006013
140 0.003972
143 0.003973
147 0.002991
150 0.005984
155 0.005984
159 0.003988
160 0.002985
162 0.002971
166 0.005984
166 0.003018
151 0.005949
107 0.006938
44 0.003946
36 0.003993
45 0.003975
60 0.006981
74 0.006972
88 0.005951
101 0.003991
105 0.003981
107 0.00399
112 0.003976
116 0.00399
123 0.005983
132 0.006982
139 0.004971
146 0.003989
152 0.003987
155 0.006982
158 0.006981
162 0.004002
164 0.00399
164 0.004944
167 0.003985
168 0.004956
167 0.006981
150 0.007015
72 0.004988
27 0.004944
19 0.004982
28 0.007011
40 0.007013
55 0.004997
67 0.00499
78 0.004985
87 0.004999
89 0.004021
93 0.007019
101 0.007966
108 0.00498
117 0.004985
125 0.004984
131 0.00702
138 0.006981
144 0.004995
147 0.004986
152 0.003937
157 0.00499
158 0.004043
160 0.006981
161 0.007015
165 0.005
163 0.005019
139 0.005002
80 0.007979
23 0.007944
20 0.004021
31 0.003938
44 0.004987
64 0.004945
77 0.004978
89 0.007982
92 0.007014
95 0.004983
99 0.004981
104 0.006
116 0.007947
125 0.007951
134 0.005986
140 0.005983
147 0.004993
152 0.005029
155 0.004968
157 0.007973
160 0.007986
161 0.00499
161 0.005971
162 0.005972
164 0.00597
161 0.007012
139 0.006979
86 0.005984
37 0.005985
31 0.005985
44 0.006005
61 0.006952
73 0.007012
81 0.007972
92 0.005975
97 0.006969
97 0.006524
100 0.006978
105 0.006983
111 0.00399
117 0.003009
127 0.005977
133 0.005999
137 0.005941
140 0.00596
144 0.005983
149 0.006948
151 0.006942
153 0.006951
159 0.006954
163 0.007019
161 0.006
140 0.005944
63 0.005993
46 0.005968
53 0.006962
73 0.007011
88 0.006981
105 0.006014
114 0.006018
118 0.005969
121 0.006023
122 0.00695
128 0.005978
133 0.005974
144 0.006015
149 0.005982
153 0.005986
157 0.005983
161 0.005994
164 0.005981
168 0.005974
171 0.005996
170 0.006022
173 0.007025
176 0.005987
171 0.005979
110 0.00597
49 0.005984
26 0.005979
30 0.007025
43 0.006001
56 0.006974
71 0.004948
83 0.006017
92 0.00603
96 0.006023
100 0.004983
103 0.005018
114 0.006012
122 0.005973
131 0.005989
138 0.005983
144 0.006029
147 0.006003
153 0.006007
156 0.005987
157 0.005954
161 0.006946
165 0.00502
166 0.004973
170 0.005018
170 0.00499
153 0.005017
103 0.005986
40 0.006017
20 0.005031
28 0.005987
40 0.005993
54 0.005983
66 0.006029
77 0.005035
88 0.004992
93 0.003991
98 0.004945
102 0.003992
110 0.004993
117 0.005047
126 0.004956
136 0.004995
142 0.004986
146 0.00499
151 0.004955
156 0.004987
161 0.005266
162 0.005046
164 0.005011
166 0.004983
167 0.004957
163 0.004954
138 0.004939
57 0.00499
23 0.004954
23 0.004996
33 0.004989
47 0.004021
63 0.003953
78 0.004988
87 0.003953
88 0.002961
89 0.00395
94 0.00399
100 0.00399
111 0.003988
117 0.003983
123 0.003991
130 0.00399
133 0.002984
138 0.003988
144 0.004024
147 0.003955
150 0.003992
153 0.004041
157 0.003964
158 0.00396
144 0.00399
106 0.00399
54 0.00399
35 0.004019
40 0.004627
59 0.002994
80 0.002992
94 0.002988
105 0.003962
108 0.003954
107 0.004001
109 0.003991
116 0.004031
125 0.003958
132 0.003991
139 0.003989
145 0.003034
150 0.003996
157 0.002992
158 0.002995
162 0.002992
165 0.002992
167 0.003999
163 0.002995
138 0.003023
53 0.003026
17 0.003023
16 0.002993
26 0.002986
38 0.002995
59 0.002993
73 0.002939
84 0.003023
85 0.002992
86 0.002033
90 0.002029
98 0.002029
111 0.001991
121 0.003022
129 0.003031
136 0.003027
142 0.002959
151 0.003022
156 0.002993
159 0.002991
162 0.002986
164 0.003023
168 0.002992
163 0.00299
117 0.003031
44 0.001995
6 0.002046
2 0.002005
9 0.00196
23 0.002007
34 0.001981
50 0.002029
63 0.002027
70 0.002006
71 0.002022
75 0.000998
88 0.002056
99 0.002033
109 0.002012
121 0.002032
130 0.000999
143 0.001997
148 0.001995
154 0.002029
159 0.002011
161 0.002025
162 0.002028
164 0.001996
168 0.001994
164 0.001995
141 0.001995
74 0.002046
22 0.001997
14 0.002034
24 0.001998
35 0.002053
53 0.002028
68 0.001007
78 0.000984
83 0.000998
84 0.000999
87 0.000999
94 0.000962
103 0.000996
114 0.002028
128 0.002031
135 0.002043
141 0.002028
147 0.000998
151 0.001026
155 0.001044
158 0.000998
159 0.000998
164 0.0
169 0.001031
167 0.001003
147 0.000997
53 0.000997
27 0.000997
30 0.0
50 0.000996
66 0.000998
83 0.000998
97 0.000999
104 0.0
108 0.0
107 0.0
110 0.0
117 0.0
134 0.0
143 0.0
151 0.00099
157 0.0
163 0.00095
168 0.0
171 0.000998
173 0.001004
178 0.000962
180 0.0
177 0.0
158 0.0
53 0.0
22 0.0
21 0.0
40 0.0
55 0.0
68 0.0
84 0.0
95 0.0
100 0.0
102 0.002988
106 0.0
113 0.000997
129 0.000997
141 0.00099
146 0.000997
156 0.002026
162 0.002025
168 0.0
170 0.001987
175 0.0
178 0.003042
181 0.003054
183 0.000962
183 0.001005
157 0.0
64 0.0
23 0.0
20 0.000969
29 0.002998
42 0.003042
59 0.0
72 0.0
86 0.0
95 0.002022
98 0.002008
102 0.0
111 0.002015
123 0.0
134 0.001005
143 0.000944
151 0.002034
157 0.002026
163 0.0
167 0.0
171 0.0
174 0.001998
174 0.001999
174 0.001007
173 0.001989
175 0.0
165 0.0
135 0.001019
71 0.002026
32 0.002026
32 0.0
45 0.0
60 0.0
73 0.002992
86 0.003027
102 0.0
106 0.003025
113 0.0
119 0.0
124 0.0
129 0.003024
139 0.003023
145 0.000957
149 0.0
156 0.000967
159 0.002024
160 0.001996
166 0.001004
172 0.002025
175 0.001971
178 0.0
177 0.000967
169 0.0
124 0.004981
65 0.0
57 0.0
66 0.0
79 0.002988
93 0.002051
109 0.0
120 0.002989
125 0.0
127 0.0
129 0.0
135 0.002991
141 0.002986
148 0.0
153 0.0
157 0.0
161 0.0
165 0.002003
168 0.002012
173 0.00204
174 0.002992
161 0.0
122 0.0
59 0.0
28 0.002993
30 0.002995
50 0.0
65 0.002004
82 0.0
95 0.003006
103 0.003004
109 0.003039
111 0.002947
119 0.0
125 0.003
132 0.0
140 0.002993
146 0.002992
152 0.002993
156 0.0
160 0.002003
163 0.002998
166 0.003016
167 0.003053
159 0.003029
102 0.001992
29 0.001977
1 0.002981
3 0.004032
16 0.003959
32 0.002988
44 0.002993
59 0.002992
72 0.003957
80 0.003
85 0.003036
91 0.004034
102 0.001039
112 0.002027
122 0.001994
130 0.004024
137 0.003991
145 0.002036
150 0.001994
153 0.002992
155 0.002961
158 0.003983
163 0.004035
153 0.00399
76 0.002993
16 0.002988
0 0.00299
7 0.004024
19 0.005021
36 0.002991
52 0.002992
66 0.002992
77 0.003981
83 0.004
86 0.003989
91 0.003992
103 0.001993
113 0.002031
124 0.001982
134 0.00499
141 0.003986
148 0.004986
154 0.001996
159 0.002991
163 0.002993
166 0.004992
170 0.002961
162 0.004987
117 0.004987
23 0.002991
2 0.001974
8 0.002991
22 0.004998
36 0.004986
55 0.001999
72 0.002994
84 0.003011
89 0.004983
91 0.001994
96 0.005021
105 0.005017
120 0.00201
129 0.002998
138 0.003
145 0.005055
151 0.006031
156 0.002994
159 0.002992
162 0.002992
165 0.004984
168 0.002027
159 0.00502
117 0.004987
24 0.002999
4 0.002036
11 0.002027
28 0.005022
45 0.005984
69 0.003009
85 0.003839
93 0.002997
94 0.00598
97 0.002982
102 0.005984
110 0.006019
123 0.004013
134 0.002954
144 0.003022
152 0.006015
157 0.005984
163 0.003007
167 0.003002
172 0.003002
177 0.005977
175 0.002975
136 0.005986
57 0.005982
14 0.003991
21 0.00399
38 0.00399
56 0.005964
74 0.005984
96 0.003971
105 0.003024
108 0.003
108 0.005982
115 0.002991
124 0.006981
134 0.006982
148 0.004007
156 0.003998
163 0.003957
168 0.006982
173 0.006993
176 0.006982
180 0.004002
182 0.003993
180 0.004001
97 0.003986
21 0.003998
0 0.007013
2 0.007013
22 0.003993
35 0.003986
51 0.004023
69 0.006969
81 0.006996
87 0.003989
88 0.00399
91 0.003995
109 0.003993
121 0.00495
133 0.007024
145 0.006981
158 0.003987
164 0.004949
170 0.003989
175 0.007977
180 0.007974
183 0.004985
186 0.003981
180 0.004026
