155 0.02992
155 0.001997
157 0.00199
156 0.000998
157 0.000998
159 0.000996
168 0.000966
173 0.001002
167 0.000966
117 0.001995
93 0.000998
83 0.001995
73 0.000946
79 0.001995
83 0.001996
96 0.001962
101 0.001994
109 0.000996
114 0.002992
123 0.001995
142 0.000998
152 0.001995
165 0.001996
176 0.001994
188 0.000997
201 0.002022
210 0.001996
213 0.00196
224 0.001971
231 0.001995
192 0.0
163 0.001979
149 0.002046
149 0.002992
152 0.000998
155 0.00104
158 0.000998
158 0.00296
149 0.002992
146 0.001032
152 0.000997
153 0.0
152 0.002991
149 0.002993
148 0.001999
154 0.001996
158 0.000998
177 0.000999
191 0.000997
199 0.002993
208 0.002992
214 0.000963
202 0.000997
153 0.000997
114 0.000997
104 0.000998
107 0.0
119 0.00399
123 0.002992
133 0.0
133 0.0
130 0.000999
123 0.002992
124 0.002993
140 0.001007
150 0.0
179 0.0
190 0.0
198 0.000998
202 0.002992
214 0.00399
213 0.000998
202 0.0
204 0.0
209 0.004037
207 0.004023
159 0.0
133 0.000964
127 0.0
134 0.000998
140 0.000998
143 0.003001
143 0.002992
139 0.0
144 0.000998
146 0.0
139 0.004952
141 0.004988
156 0.0
172 0.000977
188 0.000996
193 0.000997
202 0.0
216 0.003989
228 0.00399
229 0.0
228 0.0
231 0.00103
225 0.005016
197 0.004987
158 0.001009
154 0.000974
168 0.000997
179 0.000997
179 0.001031
178 0.003993
168 0.004036
155 0.0
158 0.001995
166 0.000998
164 0.004987
164 0.004986
173 0.000998
178 0.000995
203 0.002012
206 0.001045
194 0.001994
192 0.004986
201 0.003989
211 0.001047
201 0.001995
173 0.001
164 0.001994
153 0.004987
149 0.004987
143 0.001972
144 0.005034
140 0.002013
145 0.002046
153 0.00203
161 0.004954
172 0.004966
200 0.002994
212 0.001032
220 0.002992
229 0.005931
233 0.005984
241 0.002961
251 0.006019
254 0.002993
237 0.001942
215 0.001995
208 0.005089
208 0.004987
213 0.00199
211 0.00199
208 0.002994
199 0.005985
195 0.006042
192 0.002044
203 0.006017
215 0.002022
216 0.001987
226 0.001995
244 0.005984
253 0.00596
251 0.00204
245 0.001035
240 0.003019
237 0.006998
204 0.005985
181 0.002957
171 0.006983
168 0.00199
170 0.002986
166 0.003024
161 0.005984
163 0.006021
166 0.003012
173 0.002997
183 0.003979
188 0.005986
188 0.006983
203 0.003957
210 0.007031
191 0.004016
212 0.002975
207 0.00299
213 0.005984
203 0.006041
163 0.002987
130 0.003004
128 0.00399
126 0.005959
121 0.007053
110 0.007984
105 0.006032
95 0.006938
75 0.004014
75 0.004006
78 0.003989
89 0.006931
93 0.007971
105 0.004988
108 0.004958
127 0.004953
137 0.007979
156 0.00798
180 0.00798
173 0.007979
118 0.003959
91 0.003988
87 0.003919
84 0.007947
86 0.007978
92 0.004029
93 0.004069
86 0.004036
79 0.006982
70 0.007943
80 0.007931
99 0.00793
133 0.004847
144 0.005018
153 0.004019
147 0.007973
133 0.007998
142 0.003982
159 0.003988
168 0.005019
123 0.007026
109 0.007993
102 0.00703
104 0.007005
104 0.004987
109 0.005033
111 0.004011
114 0.007979
121 0.00698
129 0.004077
134 0.003994
147 0.003924
156 0.007033
156 0.007016
168 0.006981
169 0.006952
174 0.005993
169 0.005021
166 0.005039
136 0.006983
97 0.006898
75 0.006028
72 0.004945
77 0.006029
75 0.007003
72 0.007013
77 0.006982
74 0.006985
71 0.006934
70 0.005951
74 0.005983
86 0.005966
98 0.006968
102 0.005988
100 0.006017
115 0.005996
120 0.005996
125 0.006982
128 0.00596
131 0.007032
105 0.007038
75 0.005992
62 0.005985
57 0.006032
57 0.006948
56 0.006949
59 0.005984
60 0.006029
53 0.006019
54 0.00603
66 0.005948
70 0.007073
82 0.006945
106 0.006018
127 0.005959
136 0.005021
153 0.005994
164 0.005985
174 0.005987
179 0.00596
185 0.005958
191 0.005972
172 0.005969
126 0.005986
103 0.005991
84 0.00595
77 0.005984
72 0.005954
72 0.005985
66 0.004977
59 0.004956
53 0.004967
54 0.004968
57 0.005019
69 0.005951
85 0.005932
96 0.005984
113 0.005977
128 0.00599
141 0.004965
146 0.004975
144 0.004986
142 0.005002
145 0.005032
150 0.004986
138 0.004999
89 0.004986
76 0.004925
72 0.004968
77 0.005983
77 0.005018
90 0.005015
105 0.004988
123 0.003978
133 0.003989
146 0.005056
157 0.004987
177 0.004988
196 0.004995
211 0.004987
228 0.004987
146 0.004972
237 0.004981
231 0.005018
239 0.004026
249 0.003994
248 0.004988
203 0.004026
186 0.004038
178 0.003973
182 0.003957
182 0.003968
185 0.00495
189 0.004988
194 0.00399
196 0.00503
195 0.004988
197 0.003991
207 0.004011
216 0.004001
215 0.00402
214 0.003985
217 0.004021
223 0.003023
222 0.004022
236 0.003989
236 0.003022
232 0.003022
217 0.004
177 0.00395
148 0.003986
150 0.004031
161 0.003988
149 0.003989
145 0.004026
144 0.003953
144 0.004031
146 0.003988
147 0.003021
156 0.003026
156 0.003023
161 0.003025
172 0.003028
184 0.002988
189 0.003026
193 0.003007
205 0.003989
202 0.003985
201 0.004022
201 0.003989
200 0.002986
186 0.002981
151 0.002988
127 0.003025
119 0.003024
131 0.002959
136 0.002953
137 0.003023
142 0.002951
142 0.003029
147 0.003023
149 0.002985
149 0.002004
155 0.002996
160 0.003003
167 0.002993
165 0.002931
154 0.002994
152 0.002962
160 0.002968
166 0.003026
167 0.003023
168 0.002998
172 0.003048
168 0.002045
146 0.001995
123 0.001961
111 0.001961
115 0.002068
122 0.002963
119 0.00197
117 0.002987
118 0.002957
125 0.001971
139 0.002992
142 0.001993
152 0.001963
152 0.001968
160 0.001994
161 0.001942
165 0.001995
174 0.001995
195 0.003022
201 0.001
218 0.001994
239 0.002991
255 0.001988
255 0.002025
243 0.002034
229 0.002002
227 0.001966
226 0.002034
228 0.001998
234 0.002007
241 0.001997
239 0.001952
246 0.001993
252 0.001963
255 0.000998
255 0.001
255 0.001012
255 0.001961
255 0.002012
255 0.001995
255 0.001957
255 0.000999
255 0.002028
252 0.001987
245 0.001024
234 0.000997
204 0.000998
192 0.000965
191 0.001013
189 0.002042
180 0.000993
176 0.002033
178 0.000968
183 0.0
181 0.0
181 0.000999
182 0.000999
194 0.000998
197 0.000997
201 0.000969
209 0.001016
211 0.000998
213 0.000995
217 0.000987
220 0.000967
218 0.000998
220 0.0
216 0.0
178 0.0
144 0.0
134 0.0
131 0.001967
123 0.0
124 0.0
123 0.000997
125 0.000998
125 0.000987
129 0.001034
132 0.0
137 0.0
145 0.0
140 0.0
132 0.0
122 0.0
127 0.0
125 0.0
131 0.0
133 0.001
130 0.000983
122 0.000999
106 0.0
66 0.0
45 0.0
39 0.0
33 0.0
37 0.0
39 0.001021
40 0.000945
50 0.000997
50 0.000958
55 0.000998
65 0.000993
68 0.000998
72 0.000992
79 0.002007
87 0.001996
91 0.000997
87 0.001973
93 0.001011
99 0.000945
112 0.000963
110 0.000999
97 0.000998
86 0.001005
91 0.000995
108 0.001058
111 0.001057
118 0.000997
126 0.001004
133 0.000983
140 0.000998
148 0.002024
155 0.002
161 0.001951
168 0.001021
172 0.000989
169 0.000959
169 0.000972
163 0.000999
169 0.001059
172 0.001026
175 0.00101
170 0.001965
146 0.002001
112 0.001967
98 0.002011
95 0.001963
81 0.001996
74 0.00202
75 0.002037
78 0.001996
77 0.001027
83 0.000996
97 0.001059
113 0.001957
113 0.001933
118 0.001966
116 0.00199
115 0.001995
128 0.001995
134 0.001992
132 0.001935
138 0.001994
143 0.002011
133 0.004037
79 0.003027
60 0.003032
50 0.001038
42 0.0
26 0.000995
15 0.002032
3 0.001994
0 0.001991
0 0.001995
9 0.002992
17 0.001994
30 0.001995
38 0.001995
46 0.001
55 0.000984
67 0.002992
89 0.000998
91 0.018948
91 0.002992
90 0.002992
93 0.010971
96 0.002993
101 0.000998
98 0.0
56 0.001994
58 0.002992
46 0.001995
40 0.001996
43 0.001995
52 0.002992
66 0.002992
74 0.001996
84 0.001994
99 0.001035
106 0.002029
112 0.000966
120 0.004048
136 0.003965
139 0.002006
134 0.0
140 0.001
147 0.002924
148 0.002975
100 0.000985
71 0.000948
62 0.000998
65 0.000992
54 0.0
45 0.003992
47 0.003989
59 0.0
64 0.001032
67 0.000987
82 0.00403
92 0.004019
107 0.0
111 0.0
120 0.000996
132 0.0
146 0.0
142 0.003972
143 0.003967
145 0.000999
142 0.0
130 0.0
88 0.004004
69 0.004965
61 0.00095
52 0.0
37 0.001003
38 0.000984
41 0.0
42 0.00399
51 0.004988
57 0.0
63 0.001035
78 0.0
93 0.004986
104 0.005024
123 0.001052
136 0.0
152 0.001055
145 0.0
148 0.0
155 0.002959
155 0.005022
133 0.0
91 0.001037
64 0.001009
60 0.00504
61 0.005038
61 0.005986
64 0.001008
74 0.005013
87 0.0
105 0.0
118 0.000977
135 0.004988
138 0.005017
136 0.000993
135 0.001042
145 0.0
158 0.004988
175 0.006028
177 0.000964
177 0.005984
187 0.001031
186 0.000983
170 0.00098
135 0.005984
114 0.006058
117 0.000996
122 0.001018
124 0.001006
136 0.005011
146 0.006016
164 0.002009
176 0.005986
184 0.001969
192 0.001959
199 0.001987
209 0.005983
216 0.005997
220 0.001993
228 0.001988
235 0.001996
239 0.006998
242 0.006983
254 0.002997
248 0.006036
236 0.002965
212 0.001963
204 0.001998
202 0.005985
208 0.006026
213 0.001948
213 0.001963
211 0.001997
218 0.007024
222 0.007042
234 0.001991
242 0.006977
244 0.001992
251 0.001053
255 0.001962
255 0.007052
254 0.005985
243 0.001995
240 0.000944
245 0.002993
245 0.007017
239 0.006984
217 0.002007
211 0.007021
219 0.007015
239 0.002923
252 0.001993
197 0.002994
194 0.007062
194 0.007065
193 0.002974
196 0.003025
201 0.002959
201 0.006981
198 0.007032
188 0.007012
187 0.007017
184 0.003029
181 0.001999
183 0.003031
185 0.007011
191 0.007011
187 0.001999
183 0.003944
180 0.002985
189 0.007974
193 0.007976
193 0.007956
190 0.007967
192 0.002989
193 0.002989
194 0.00299
197 0.007978
197 0.007894
194 0.003989
193 0.003991
197 0.004006
201 0.007994
197 0.007914
189 0.00793
189 0.007979
188 0.004012
182 0.003011
180 0.003959
177 0.006968
180 0.006979
183 0.004012
184 0.003997
190 0.003969
185 0.007993
181 0.007969
171 0.007969
165 0.007963
165 0.003001
165 0.004956
164 0.00399
167 0.00701
166 0.006984
166 0.003974
169 0.00295
180 0.003953
188 0.006924
180 0.006981
148 0.00694
137 0.007935
138 0.004981
139 0.004988
146 0.003957
153 0.004009
160 0.006949
189 0.006946
191 0.004021
198 0.004036
207 0.004017
207 0.006948
207 0.003966
203 0.006948
192 0.005984
188 0.005973
187 0.005974
187 0.004987
163 0.005972
128 0.005975
108 0.005041
106 0.004971
109 0.005003
112 0.00698
125 0.004971
134 0.007008
142 0.006027
144 0.005984
152 0.004978
151 0.004987
158 0.005987
166 0.00598
163 0.005988
149 0.004976
148 0.005028
146 0.006006
142 0.005017
98 0.004969
67 0.004979
53 0.005043
59 0.00595
59 0.00594
65 0.006006
74 0.005975
84 0.005981
87 0.005985
96 0.005958
102 0.004951
119 0.005003
125 0.004984
136 0.004994
144 0.005009
157 0.004989
159 0.004977
155 0.004987
146 0.00498
82 0.005999
51 0.006
40 0.00596
36 0.005997
29 0.005019
27 0.005024
25 0.005016
22 0.00502
4 0.004974
0 0.004955
57 0.004015
60 0.00501
62 0.004993
65 0.004963
68 0.004971
73 0.003957
87 0.004963
85 0.004993
59 0.005032
47 0.005003
41 0.004986
40 0.004964
34 0.004993
33 0.005016
33 0.003987
31 0.00499
38 0.003988
41 0.003984
43 0.003996
44 0.004007
54 0.003952
65 0.003984
68 0.00398
71 0.004949
76 0.005004
74 0.005037
57 0.004989
19 0.004983
10 0.004009
7 0.003937
9 0.004006
12 0.003991
18 0.004022
19 0.003024
23 0.003985
27 0.003935
30 0.003986
38 0.004005
40 0.003989
51 0.002977
51 0.003018
61 0.003019
68 0.004004
74 0.00399
63 0.003993
30 0.003963
16 0.003979
9 0.003935
14 0.003989
5 0.003983
10 0.002958
4 0.002987
1 0.002957
64 0.002992
71 0.002994
75 0.002995
79 0.002995
82 0.003027
96 0.00394
102 0.003954
106 0.003989
114 0.002992
118 0.002958
107 0.002986
92 0.002004
85 0.002992
83 0.003004
83 0.00298
85 0.002994
87 0.002993
87 0.002954
88 0.002998
91 0.003
93 0.001942
99 0.000996
100 0.001994
107 0.002991
105 0.002
112 0.002993
115 0.003006
117 0.003001
118 0.003066
123 0.002989
96 0.002992
85 0.002015
65 0.002007
64 0.001953
55 0.002014
59 0.001995
53 0.001995
63 0.00202
54 0.001994
63 0.00196
64 0.002974
68 0.00302
76 0.003001
79 0.001966
87 0.00199
87 0.001988
92 0.002024
97 0.001994
103 0.001997
105 0.00199
112 0.001966
112 0.001996
99 0.000997
76 0.0
51 0.000998
41 0.000998
37 0.000966
34 0.001996
31 0.001956
34 0.00197
37 0.001996
39 0.001958
8 0.00198
17 0.000962
24 0.000993
31 0.000996
42 0.002053
50 0.0
57 0.002041
63 0.000945
72 0.001042
80 0.000997
86 0.000997
99 0.001994
105 0.0
86 0.0
54 0.000931
29 0.000998
18 0.000993
15 0.000975
15 0.000996
19 0.001015
26 0.000998
30 0.001048
37 0.001002
39 0.000969
50 0.000994
58 0.0
70 0.001983
74 0.0
84 0.0
92 0.000968
104 0.0
110 0.0
115 0.0
122 0.000997
132 0.000998
116 0.000998
87 0.001009
77 0.0
75 0.0
80 0.0
80 0.0
88 0.0
95 0.0
97 0.0
99 0.0
103 0.0
110 0.0
122 0.0
129 0.0
138 0.0
142 0.0
138 0.0
156 0.0
149 0.0
167 0.0
156 0.0
161 0.0
121 0.0
106 0.00098
88 0.001014
91 0.0
88 0.0
96 0.001007
96 0.00203
106 0.001994
104 0.001995
107 0.000997
107 0.000986
115 0.001018
121 0.001032
135 0.000998
151 0.001035
162 0.001007
173 0.000994
179 0.001028
181 0.001
189 0.000997
195 0.001006
185 0.001007
150 0.001994
139 0.001024
120 0.001008
124 0.000994
122 0.001035
125 0.001024
130 0.001013
127 0.00102
128 0.001025
132 0.000956
139 0.001024
145 0.001
155 0.001001
157 0.002005
165 0.000997
169 0.001995
180 0.001995
188 0.001995
195 0.002017
200 0.002031
201 0.001996
204 0.001999
201 0.001994
169 0.00197
152 0.002024
145 0.00297
142 0.001996
142 0.001996
142 0.002022
146 0.002026
149 0.002028
148 0.002019
151 0.001995
152 0.002021
148 0.002041
153 0.000988
153 0.002028
158 0.001981
162 0.001966
164 0.001948
169 0.002003
172 0.001995
177 0.002021
179 0.001996
180 0.001997
184 0.001996
181 0.002023
153 0.002995
143 0.001969
140 0.002933
141 0.00199
141 0.001993
145 0.001937
150 0.001996
151 0.001993
151 0.001998
155 0.001962
157 0.002024
169 0.001992
177 0.002975
182 0.003015
189 0.000999
192 0.002
197 0.002001
201 0.002958
204 0.001956
209 0.002967
213 0.003021
204 0.002981
186 0.002001
180 0.002993
179 0.001994
182 0.002983
185 0.00299
187 0.001993
193 0.000998
193 0.002014
195 0.001969
196 0.00196
197 0.002991
202 0.00304
206 0.000966
207 0.001983
210 0.001966
213 0.002994
214 0.003024
215 0.001994
215 0.001008
210 0.000968
197 0.001003
180 0.002025
171 0.003023
168 0.002988
169 0.0
171 0.000989
172 0.000967
174 0.003993
175 0.003989
178 0.001021
181 0.0
183 0.001005
185 0.000974
187 0.000987
189 0.004055
233 0.003997
233 0.0
238 0.0
238 0.0
231 0.003964
223 0.004019
215 0.0
203 0.0
168 0.000966
159 0.0
161 0.001023
164 0.005019
163 0.004044
162 0.0
162 0.0
162 0.000998
160 0.005024
159 0.005985
158 0.0
158 0.000996
162 0.0
169 0.000957
173 0.000964
178 0.004983
182 0.003978
177 0.004992
181 0.0
183 0.0
182 0.0
165 0.004987
143 0.005021
130 0.001038
132 0.005023
134 0.0
145 0.0
149 0.000976
150 0.005031
154 0.006019
165 0.0
175 0.0
184 0.000997
191 0.005014
196 0.005017
202 0.0
207 0.005018
211 0.000996
213 0.000974
216 0.000965
210 0.006016
184 0.006018
164 0.000996
165 0.000993
166 0.000989
170 0.005984
174 0.005986
175 0.001016
167 0.005976
171 0.001992
171 0.000984
173 0.001004
177 0.006015
175 0.006032
171 0.000994
175 0.000956
180 0.001047
181 0.005973
181 0.005984
186 0.001017
176 0.005987
138 0.001
123 0.001986
121 0.001964
131 0.006029
135 0.007007
136 0.000997
140 0.001958
135 0.001996
131 0.006033
134 0.005981
135 0.001991
137 0.00695
143 0.002993
149 0.002009
159 0.001998
170 0.006947
174 0.006983
175 0.00094
174 0.002028
171 0.000998
140 0.006968
113 0.006984
102 0.000991
107 0.00605
106 0.001969
107 0.001991
110 0.001995
101 0.007024
95 0.007013
96 0.007017
101 0.002023
103 0.001988
108 0.00198
109 0.007043
110 0.006987
119 0.007979
123 0.007943
128 0.001993
133 0.002932
135 0.002988
130 0.006987
92 0.006977
60 0.002992
55 0.003024
55 0.002032
57 0.007
53 0.007012
62 0.007977
66 0.007985
71 0.002995
76 0.002998
81 0.00298
86 0.007978
92 0.007019
100 0.002959
108 0.002999
120 0.002999
127 0.007017
126 0.006963
139 0.008015
143 0.007946
124 0.002978
91 0.002993
75 0.003937
67 0.00798
72 0.007024
76 0.00399
87 0.005001
98 0.003994
112 0.007955
114 0.006972
118 0.006968
128 0.007985
136 0.003991
149 0.003935
152 0.00394
168 0.007981
172 0.00792
188 0.003985
192 0.00399
197 0.004946
176 0.007985
151 0.007947
116 0.006968
110 0.006978
112 0.00405
112 0.003987
116 0.002992
118 0.006933
119 0.008038
119 0.003996
116 0.003991
118 0.003987
125 0.003997
138 0.00797
146 0.003991
151 0.006972
155 0.006986
162 0.005034
170 0.004013
173 0.003962
177 0.006978
144 0.006955
110 0.004
96 0.003989
95 0.00499
90 0.005925
86 0.004935
93 0.006997
92 0.00698
92 0.00499
92 0.004987
96 0.004986
106 0.006953
113 0.006983
121 0.003991
126 0.005953
125 0.004978
142 0.005986
148 0.00506
157 0.00599
161 0.00599
163 0.004938
149 0.004959
106 0.005023
74 0.005981
63 0.006056
57 0.004996
53 0.005981
50 0.005977
52 0.005992
56 0.00499
57 0.005978
65 0.005993
68 0.005984
79 0.005987
94 0.00596
108 0.006013
122 0.005984
139 0.004994
155 0.004991
152 0.004985
153 0.005987
160 0.00498
160 0.005008
136 0.005986
104 0.004991
88 0.00498
77 0.003989
77 0.004987
79 0.004986
86 0.004987
95 0.004986
103 0.004986
104 0.004995
113 0.004989
127 0.004972
142 0.005002
157 0.004989
173 0.004977
184 0.00497
194 0.004
197 0.004024
205 0.004028
217 0.00501
216 0.004982
190 0.005026
149 0.004988
142 0.005005
140 0.004926
141 0.004984
144 0.003993
148 0.005026
152 0.003999
154 0.004977
160 0.004026
169 0.003992
180 0.003991
189 0.003982
203 0.003997
208 0.003952
215 0.004989
222 0.004922
224 0.005011
228 0.003988
167 0.003963
224 0.003962
194 0.003989
146 0.003989
118 0.003996
114 0.004024
116 0.003966
116 0.004013
116 0.00402
115 0.003977
114 0.003985
116 0.002927
121 0.002993
134 0.003989
148 0.004048
159 0.003992
167 0.003981
166 0.003995
169 0.004005
177 0.003993
178 0.002985
175 0.003987
176 0.00395
178 0.002982
164 0.002957
127 0.00299
109 0.002998
98 0.002959
91 0.002982
82 0.00299
77 0.003966
76 0.004003
74 0.003026
78 0.00299
85 0.002991
93 0.002939
104 0.003019
114 0.002979
121 0.002993
128 0.002994
140 0.003023
143 0.002992
148 0.002962
148 0.003013
156 0.002039
162 0.001995
159 0.001973
125 0.001994
98 0.002027
84 0.00302
78 0.003024
77 0.002962
76 0.002992
83 0.003015
109 0.002984
128 0.002982
135 0.002966
142 0.001964
152 0.001989
164 0.001999
172 0.002031
174 0.001995
182 0.001996
187 0.001995
192 0.002019
196 0.001977
206 0.002962
202 0.002969
187 0.001961
157 0.002029
145 0.00203
146 0.001962
151 0.001995
155 0.001996
159 0.001995
169 0.001989
175 0.001966
186 0.001993
196 0.000999
206 0.000967
211 0.001006
216 0.002011
217 0.000963
226 0.002007
225 0.002061
227 0.00201
223 0.002052
225 0.001995
220 0.002018
192 0.001007
140 0.000963
125 0.000982
123 0.000997
120 0.001033
114 0.000997
119 0.001033
118 0.001029
114 0.00103
120 0.000983
128 0.000997
136 0.000997
143 0.00101
149 0.001948
152 0.000977
156 0.000966
161 0.000965
163 0.000971
166 0.00102
166 0.001004
167 0.000998
155 0.00103
115 0.001039
89 0.000987
78 0.000998
75 0.0
64 0.0
65 0.0
68 0.0
66 0.0
70 0.000998
77 0.0
83 0.001018
91 0.000997
99 0.000998
106 0.000991
115 0.000992
121 0.0
128 0.0
131 0.0
129 0.0
129 0.0
130 0.0
127 0.0
96 0.0
65 0.0
52 0.0
47 0.0
40 0.0
41 0.0
46 0.0
53 0.0
62 0.0
69 0.0
77 0.002043
89 0.0
97 0.00101
106 0.001007
122 0.001001
139 0.000998
154 0.00202
161 0.001994
182 0.001996
184 0.000996
189 0.0
162 0.001026
137 0.001033
122 0.000999
118 0.00101
117 0.000998
119 0.000997
123 0.000999
132 0.002025
140 0.001058
148 0.000963
161 0.000996
171 0.002036
183 0.002046
193 0.000998
198 0.001003
206 0.002029
212 0.001055
212 0.001994
208 0.001035
208 0.001037
199 0.000998
161 0.000996
133 0.001019
125 0.000963
116 0.001088
106 0.000999
98 0.000998
93 0.002003
84 0.001996
78 0.002021
84 0.001995
93 0.001959
113 0.00203
126 0.001994
132 0.000997
140 0.002991
144 0.001995
151 0.000997
150 0.000998
155 0.000992
154 0.001995
141 0.002018
113 0.001997
71 0.001995
38 0.00199
29 0.002034
23 0.002007
22 0.002004
33 0.002045
38 0.002019
37 0.002021
38 0.002982
48 0.00201
70 0.002967
83 0.002992
98 0.001982
115 0.002055
116 0.001986
118 0.002002
120 0.002012
124 0.00199
130 0.002
138 0.001988
135 0.002992
109 0.003049
83 0.002965
71 0.002971
74 0.002992
59 0.002964
58 0.002951
68 0.003019
78 0.003998
82 0.002989
91 0.001992
99 0.001997
108 0.001989
117 0.002994
131 0.00302
141 0.002009
150 0.001999
155 0.002
161 0.001974
165 0.001997
169 0.00303
168 0.004012
146 0.001995
116 0.000987
104 0.00095
97 0.003045
95 0.002992
95 0.001005
102 0.002036
120 0.002003
131 0.002951
156 0.002002
166 0.004039
170 0.004029
167 0.002009
173 0.000986
184 0.000998
190 0.004022
192 0.004014
198 0.001974
199 0.000997
192 0.001009
170 0.0
147 0.001
140 0.003023
137 0.004004
136 0.001036
141 0.00105
147 0.000974
153 0.00399
158 0.004016
171 0.001018
178 0.000984
191 0.001932
197 0.000996
201 0.000964
210 0.003991
214 0.004988
219 0.00103
220 0.002047
224 0.000992
226 0.004023
217 0.003991
164 0.00099
136 0.000997
120 0.001951
112 0.002
111 0.0
110 0.005018
113 0.005019
115 0.000965
120 0.00095
123 0.000985
122 0.005003
132 0.004026
135 0.004985
144 0.000979
151 0.005036
172 0.0
179 0.0
187 0.0
195 0.005032
193 0.005015
195 0.0
177 0.0
139 0.0
116 0.005035
101 0.004975
91 0.000996
82 0.006035
86 0.001992
89 0.001962
88 0.000999
92 0.004942
93 0.004996
101 0.001971
107 0.001995
122 0.000966
128 0.004992
134 0.005974
146 0.002021
145 0.006023
152 0.000997
153 0.0
157 0.0
162 0.005986
167 0.006041
168 0.0
128 0.0
99 0.001013
96 0.005039
98 0.005023
107 0.002005
105 0.006023
108 0.001999
107 0.001059
109 0.000999
112 0.006016
112 0.006016
117 0.001043
123 0.000987
130 0.000998
137 0.006018
144 0.005982
158 0.002026
162 0.006015
157 0.001999
152 0.001996
154 0.001007
156 0.006007
155 0.006019
153 0.001999
118 0.001039
93 0.001009
87 0.005947
88 0.007014
97 0.002023
104 0.007011
102 0.001994
104 0.000999
102 0.001989
101 0.005994
109 0.006011
112 0.005983
119 0.000997
123 0.00203
128 0.000971
131 0.006977
137 0.00697
143 0.006987
146 0.007011
148 0.002002
149 0.001996
150 0.00202
157 0.006976
148 0.007012
122 0.002002
125 0.003002
136 0.002993
150 0.007979
158 0.00798
170 0.007017
176 0.006933
181 0.001997
184 0.002018
187 0.001969
195 0.006984
197 0.006981
205 0.002007
210 0.001994
209 0.003025
214 0.007953
223 0.007975
212 0.007983
213 0.006982
211 0.002002
208 0.002031
193 0.000988
171 0.006982
154 0.006977
156 0.003012
162 0.002999
170 0.002988
175 0.007929
174 0.007901
175 0.007975
177 0.007958
176 0.002962
188 0.002984
191 0.002981
195 0.008017
196 0.007946
200 0.002975
205 0.004013
194 0.003999
205 0.007014
205 0.007979
201 0.007992
202 0.007974
199 0.003003
177 0.002992
160 0.003005
139 0.007946
129 0.007967
129 0.003998
130 0.003996
133 0.003997
141 0.007018
139 0.006967
144 0.006014
149 0.006956
154 0.006933
159 0.004035
161 0.004006
162 0.00395
169 0.006972
173 0.007033
176 0.003976
172 0.003971
177 0.003996
171 0.007031
171 0.004024
165 0.006973
137 0.006982
107 0.004002
81 0.004045
72 0.004961
68 0.006975
68 0.005983
73 0.003989
75 0.004985
73 0.004021
73 0.006005
75 0.003971
81 0.006981
86 0.006974
96 0.004987
100 0.004047
110 0.00399
106 0.007021
112 0.006975
113 0.004011
113 0.002977
112 0.00399
117 0.005999
115 0.005021
89 0.005979
68 0.005952
57 0.004985
60 0.003987
68 0.003002
90 0.006009
99 0.006009
108 0.004979
108 0.00399
112 0.004998
120 0.005979
133 0.004985
142 0.005992
147 0.005997
153 0.004986
159 0.004982
161 0.004954
173 0.005977
167 0.00598
169 0.004973
169 0.004936
167 0.004961
149 0.004986
108 0.004978
99 0.006006
100 0.005984
104 0.004993
99 0.005001
93 0.004985
84 0.00602
93 0.005022
83 0.00498
83 0.005003
86 0.004998
101 0.004997
107 0.004991
126 0.005018
117 0.005027
128 0.004974
125 0.004984
118 0.003983
123 0.004958
120 0.005024
126 0.005022
102 0.004995
73 0.004991
40 0.004984
29 0.004977
39 0.00497
34 0.005017
34 0.003986
37 0.003977
35 0.003953
36 0.003989
38 0.004022
43 0.004017
52 0.003979
63 0.004015
75 0.004994
88 0.005019
94 0.004991
100 0.005019
106 0.005022
111 0.003995
111 0.003997
112 0.003988
124 0.00399
110 0.003989
68 0.003988
34 0.003989
22 0.003989
36 0.003988
39 0.003939
44 0.003967
48 0.003977
56 0.003984
49 0.002955
51 0.002992
59 0.004024
58 0.00406
62 0.003988
68 0.003963
80 0.003999
92 0.003991
97 0.003949
101 0.004032
104 0.002992
103 0.003961
106 0.002923
114 0.002986
113 0.002994
84 0.002983
52 0.003002
40 0.003953
43 0.003025
54 0.004009
58 0.003961
60 0.003989
67 0.002991
60 0.003024
66 0.002974
73 0.00299
76 0.003025
83 0.002991
90 0.002993
101 0.002968
110 0.002992
130 0.001994
146 0.001994
154 0.001994
155 0.002992
159 0.002992
177 0.002992
182 0.001993
156 0.002991
132 0.002992
119 0.003065
121 0.002992
126 0.003023
131 0.002948
138 0.002933
140 0.002992
139 0.003025
139 0.002995
143 0.002053
146 0.002052
150 0.002001
159 0.001982
169 0.002002
175 0.002
176 0.002025
179 0.001991
187 0.002995
187 0.002964
184 0.001958
183 0.001996
184 0.002022
154 0.001992
118 0.001987
104 0.002043
102 0.002028
110 0.001981
111 0.002
115 0.001995
114 0.002993
113 0.000947
113 0.001001
116 0.000996
121 0.001995
132 0.001033
142 0.001995
150 0.002049
155 0.002028
163 0.002016
165 0.001995
171 0.001998
174 0.00196
172 0.001988
174 0.000998
178 0.001037
174 0.001038
137 0.000998
105 0.001012
95 0.001961
100 0.000998
114 0.000997
112 0.001994
117 0.001991
116 0.001961
114 0.001995
118 0.001
123 0.000999
127 0.000964
138 0.001001
144 0.000971
147 0.001002
154 0.000998
161 0.000998
165 0.001023
169 0.000995
174 0.000997
170 0.000997
169 0.0
172 0.000978
172 0.000999
142 0.000997
90 0.000998
70 0.000999
61 0.001011
60 0.000997
56 0.000997
60 0.001
66 0.000997
63 0.001003
64 0.0
65 0.0
72 0.0
86 0.0
98 0.0
112 0.0
120 0.0
126 0.0
139 0.000998
149 0.0
159 0.000997
165 0.0
174 0.0
186 0.0
190 0.0
151 0.0
126 0.0
128 0.0
131 0.0
137 0.000998
148 0.002047
160 0.002012
168 0.001005
171 0.002041
174 0.001999
179 0.002046
189 0.002026
203 0.002027
212 0.002031
219 0.002006
228 0.00109
234 0.001027
248 0.00103
253 0.001
247 0.000957
243 0.000993
250 0.000966
247 0.000997
194 0.000998
155 0.000974
143 0.001008
144 0.000998
138 0.000997
137 0.001007
142 0.001987
133 0.001998
124 0.002025
122 0.00203
123 0.002026
130 0.000952
145 0.001028
162 0.001044
173 0.00103
174 0.001003
186 0.001001
204 0.001053
211 0.001051
216 0.000999
225 0.000998
237 0.000995
195 0.001024
126 0.000997
97 0.002051
96 0.002016
98 0.001983
92 0.002045
92 0.002046
97 0.002012
95 0.001019
86 0.001012
81 0.001998
91 0.001996
107 0.002045
121 0.000999
126 0.002994
135 0.00205
147 0.002025
160 0.002007
169 0.002029
169 0.002052
165 0.002037
173 0.003001
170 0.002025
96 0.001028
53 0.001982
33 0.001996
29 0.001995
23 0.001995
17 0.001932
23 0.001964
22 0.001992
21 0.001993
32 0.002057
51 0.001996
56 0.001996
66 0.00296
81 0.001995
103 0.001977
113 0.002027
135 0.002998
148 0.003012
139 0.002993
147 0.002991
157 0.00298
169 0.001981
157 0.002003
123 0.00196
99 0.002028
97 0.003043
102 0.002999
106 0.002981
119 0.002045
127 0.001996
130 0.002992
131 0.002986
136 0.001995
144 0.001975
160 0.002956
167 0.002957
182 0.001994
197 0.002932
210 0.003931
224 0.00103
232 0.002941
235 0.001996
234 0.003952
237 0.003985
201 0.002027
144 0.001993
105 0.001996
105 0.002001
111 0.003018
111 0.003037
112 0.003013
111 0.002992
104 0.001966
99 0.00097
103 0.004002
109 0.003996
129 0.001015
141 0.000979
163 0.001053
178 0.000997
187 0.002043
199 0.003975
205 0.003954
221 0.001955
228 0.002001
232 0.000989
227 0.004007
163 0.004036
109 0.000997
101 0.000998
96 0.001005
94 0.000996
102 0.000977
107 0.004034
112 0.004025
113 0.00204
108 0.001959
111 0.00108
123 0.005019
142 0.00498
159 0.000997
175 0.001947
185 0.001003
192 0.000998
203 0.001952
211 0.003982
212 0.003991
218 0.005021
223 0.0
192 0.002039
124 0.001029
88 0.005012
68 0.004987
65 0.001026
51 0.004988
63 0.000994
69 0.002028
74 0.0
79 0.006025
87 0.004961
101 0.000997
119 0.000969
137 0.000999
148 0.004991
164 0.004977
177 0.001995
191 0.005034
188 0.0
195 0.0
200 0.001006
209 0.005974
214 0.00598
198 0.001001
141 0.000967
109 0.001025
105 0.005017
116 0.004986
141 0.000984
158 0.00504
174 0.000947
190 0.000999
201 0.001023
215 0.005977
225 0.006015
245 0.001006
191 0.001993
197 0.002003
202 0.005976
208 0.006009
213 0.000964
212 0.005983
214 0.000995
220 0.001005
223 0.00101
211 0.006007
184 0.00598
167 0.0
160 0.001994
159 0.001992
155 0.005988
154 0.00599
156 0.001993
158 0.00698
162 0.001987
162 0.001025
164 0.001006
172 0.007019
176 0.006986
181 0.002002
185 0.001993
190 0.001999
198 0.006983
202 0.006024
202 0.005976
204 0.006015
205 0.006007
197 0.001998
171 0.001958
155 0.002
144 0.006998
145 0.00698
141 0.000996
139 0.002057
142 0.002004
144 0.006999
149 0.006969
153 0.006977
161 0.00699
167 0.002998
170 0.002008
172 0.001994
174 0.006971
180 0.007014
187 0.002021
188 0.00203
188 0.002016
189 0.007014
191 0.007014
169 0.007971
140 0.007999
127 0.00199
128 0.002994
128 0.002047
121 0.007978
114 0.007975
107 0.001997
100 0.002982
99 0.001964
105 0.006982
110 0.007975
116 0.007934
122 0.007934
125 0.002959
128 0.002007
137 0.001979
141 0.007973
141 0.007978
142 0.001996
148 0.001998
149 0.002002
136 0.00698
111 0.006982
96 0.007979
93 0.007947
90 0.003009
91 0.001979
92 0.001974
95 0.007977
99 0.007952
105 0.003
108 0.002981
117 0.002998
126 0.007965
146 0.007033
160 0.00299
167 0.007017
169 0.006956
174 0.002994
180 0.002983
184 0.003014
187 0.007944
183 0.007979
154 0.003999
142 0.003987
137 0.004011
138 0.006963
137 0.004003
141 0.006965
132 0.006011
122 0.003993
122 0.002985
124 0.004986
128 0.006951
130 0.006982
136 0.002974
140 0.003951
145 0.002997
147 0.00698
148 0.00298
151 0.00702
152 0.007031
148 0.002987
138 0.003979
110 0.00199
93 0.006982
94 0.006973
94 0.002995
92 0.002965
90 0.003991
97 0.00599
96 0.003985
96 0.006111
97 0.006985
104 0.003996
110 0.003988
120 0.004009
134 0.005966
141 0.006994
148 0.004991
150 0.004012
151 0.004989
153 0.005956
160 0.004989
138 0.006017
105 0.004986
88 0.003989
81 0.003963
77 0.004993
69 0.005984
71 0.006038
75 0.004991
75 0.004971
75 0.004982
75 0.005981
81 0.004991
85 0.005988
87 0.005973
97 0.005012
106 0.004965
115 0.00502
127 0.004987
123 0.00499
128 0.004987
134 0.004998
141 0.003988
140 0.004987
94 0.00499
79 0.004984
75 0.005991
71 0.005954
63 0.00492
63 0.004954
60 0.004955
69 0.005022
74 0.004988
80 0.004981
90 0.004954
99 0.003983
113 0.003987
121 0.00395
135 0.004021
156 0.004028
170 0.003994
177 0.003958
184 0.004988
191 0.005012
195 0.005017
180 0.00497
152 0.004003
138 0.003985
133 0.004997
132 0.004979
135 0.003957
141 0.003986
146 0.003993
150 0.003988
150 0.003958
157 0.004023
167 0.004027
176 0.002955
181 0.00402
186 0.004987
194 0.003984
201 0.00399
204 0.003989
207 0.003952
207 0.003958
212 0.003989
209 0.003985
171 0.003989
142 0.003989
132 0.003983
121 0.004001
113 0.003992
109 0.002959
112 0.002983
113 0.002991
117 0.004017
121 0.003993
128 0.004004
134 0.003981
139 0.003989
151 0.00399
155 0.003952
156 0.002992
164 0.003986
174 0.002985
175 0.003007
182 0.002992
183 0.002992
181 0.002988
147 0.002985
126 0.002983
118 0.002986
121 0.004037
113 0.003974
104 0.002993
102 0.002985
101 0.002968
106 0.002988
109 0.003025
119 0.003018
130 0.003066
140 0.002983
147 0.002957
153 0.002979
159 0.003028
161 0.002026
166 0.002035
160 0.001001
159 0.002021
165 0.002991
169 0.003033
164 0.001982
142 0.003024
111 0.002992
107 0.002996
108 0.002945
109 0.003022
110 0.003022
113 0.001996
113 0.001962
122 0.002018
122 0.001992
120 0.002036
130 0.002028
138 0.003
142 0.002966
145 0.003005
152 0.003007
156 0.002989
158 0.002025
165 0.001993
167 0.001964
172 0.002024
167 0.001995
169 0.001991
168 0.002049
164 0.002011
164 0.002006
165 0.00197
166 0.001969
169 0.002047
177 0.000999
182 0.001011
185 0.001943
193 0.00205
196 0.001998
196 0.002034
200 0.002033
207 0.001996
215 0.001986
216 0.002015
214 0.002015
215 0.000998
218 0.002011
225 0.001023
219 0.001994
198 0.001995
180 0.00399
170 0.001994
164 0.002993
158 0.001995
162 0.001995
165 0.001986
161 0.001
165 0.000998
166 0.001006
162 0.001033
165 0.000986
172 0.000997
178 0.000998
184 0.000996
191 0.000997
195 0.000997
193 0.001011
193 0.000964
201 0.000997
200 0.000951
189 0.0
168 0.0
149 0.0
145 0.0
130 0.0
124 0.0
124 0.000997
122 0.000997
125 0.000997
125 0.000997
129 0.002992
134 0.003989
139 0.0
143 0.0
146 0.003989
149 0.0
157 0.0
154 0.0
154 0.0
155 0.0
156 0.0
147 0.0
140 0.000937
119 0.0
106 0.0
106 0.0
106 0.0
103 0.0
101 0.0
99 0.0
104 0.0
107 0.0
111 0.0
118 0.0
125 0.0
131 0.001991
134 0.000999
134 0.000973
137 0.001018
141 0.0
144 0.0
151 0.000997
155 0.00101
147 0.001013
137 0.001047
120 0.000999
120 0.00098
123 0.000988
122 0.001991
119 0.002029
114 0.001982
111 0.002028
114 0.002027
117 0.001987
122 0.002029
131 0.002028
141 0.001987
148 0.00198
158 0.001001
170 0.00103
180 0.001984
180 0.001986
182 0.001966
192 0.002061
194 0.002027
189 0.002028
177 0.002026
162 0.001983
152 0.002034
149 0.002026
148 0.002028
152 0.002028
153 0.001997
153 0.002036
156 0.001998
158 0.002047
161 0.001052
170 0.002026
175 0.001988
177 0.001046
178 0.002044
179 0.000971
186 0.000997
186 0.002034
182 0.001994
178 0.001989
183 0.001995
172 0.001992
147 0.001991
115 0.002081
111 0.001984
110 0.001993
103 0.000995
101 0.00103
103 0.001995
103 0.002001
101 0.001992
101 0.00199
106 0.002031
119 0.00204
122 0.002044
126 0.00202
132 0.00199
137 0.00199
148 0.003005
154 0.002997
152 0.003011
151 0.002996
159 0.002953
161 0.003025
150 0.002021
87 0.001994
71 0.001995
69 0.002043
59 0.001995
49 0.002007
47 0.001995
47 0.00199
50 0.002993
57 0.003022
64 0.002992
76 0.002992
86 0.002963
102 0.002987
116 0.002986
128 0.002028
145 0.002983
150 0.001991
157 0.002952
154 0.002992
158 0.002993
154 0.002988
149 0.002993
113 0.002992
106 0.001993
91 0.001992
89 0.00299
83 0.002041
91 0.00399
96 0.004041
109 0.003037
116 0.002984
128 0.002969
139 0.002939
141 0.002994
144 0.002022
153 0.002995
162 0.002946
183 0.001994
186 0.000997
181 0.004015
183 0.004055
197 0.001955
207 0.001994
204 0.002027
187 0.003977
151 0.004008
128 0.002957
117 0.001968
109 0.002056
119 0.002024
126 0.002032
133 0.002942
141 0.00399
151 0.000997
158 0.00203
167 0.001057
176 0.003991
182 0.004016
196 0.002011
202 0.002053
212 0.000998
216 0.001048
222 0.000963
225 0.005014
219 0.005013
179 0.00101
146 0.001006
128 0.001976
115 0.002043
109 0.004993
107 0.003989
110 0.001958
118 0.005031
131 0.000996
142 0.000971
153 0.001011
159 0.004988
162 0.004986
170 0.0
171 0.000993
173 0.001969
175 0.004985
175 0.005013
174 0.0
183 0.005016
179 0.001011
141 0.001012
98 0.0
79 0.005046
78 0.004992
74 0.0
65 0.000964
67 0.000961
66 0.00602
66 0.005954
68 0.0
73 0.005984
92 0.0
103 0.000991
112 0.002012
121 0.005987
130 0.005959
128 0.002095
124 0.0
126 0.001002
132 0.005958
136 0.006019
108 0.002996
53 0.005942
37 0.0
33 0.0
26 0.000998
25 0.00597
29 0.006016
25 0.000998
30 0.000971
38 0.0
52 0.006984
63 0.007001
80 0.002
94 0.006992
106 0.001987
108 0.00099
118 0.002002
123 0.006035
129 0.005986
133 0.001992
129 0.002009
96 0.001994
53 0.007014
35 0.006996
27 0.002001
26 0.006989
39 0.001995
55 0.001003
77 0.000998
101 0.001997
122 0.006981
136 0.006998
155 0.002014
166 0.001996
175 0.001993
185 0.007051
191 0.007019
196 0.006985
205 0.006978
215 0.001985
206 0.002046
154 0.002001
115 0.006989
99 0.006979
91 0.002002
82 0.001995
88 0.001989
94 0.006947
93 0.007977
101 0.006975
106 0.006966
126 0.000974
141 0.001
148 0.001003
157 0.006969
174 0.006995
181 0.001984
184 0.002016
191 0.002025
197 0.00798
185 0.007966
102 0.007975
58 0.00798
49 0.002007
48 0.002973
45 0.0
40 0.006981
41 0.006976
28 0.002958
31 0.002012
41 0.002993
48 0.008007
63 0.007998
90 0.00797
114 0.007989
130 0.002022
139 0.001992
149 0.002011
162 0.007968
172 0.006977
181 0.00297
162 0.002985
92 0.002934
36 0.007974
19 0.007977
0 0.007954
0 0.007978
0 0.002969
0 0.002971
0 0.002992
0 0.007987
0 0.006972
14 0.004004
28 0.003021
40 0.002963
52 0.002994
74 0.00699
88 0.002997
92 0.007015
94 0.006977
99 0.003007
103 0.002981
91 0.002991
26 0.006979
3 0.006949
0 0.003988
7 0.004029
8 0.003961
14 0.006982
39 0.003998
51 0.006991
55 0.006983
61 0.00399
78 0.002991
94 0.002999
121 0.005958
142 0.005985
157 0.00399
176 0.00302
189 0.00296
204 0.006982
218 0.004987
189 0.006981
140 0.006978
112 0.004957
101 0.004996
104 0.002991
108 0.005983
117 0.005983
128 0.001995
141 0.002993
149 0.00399
159 0.005976
170 0.003988
187 0.006948
195 0.005998
199 0.005024
214 0.003983
223 0.00399
224 0.006027
192 0.005983
238 0.004043
185 0.003014
161 0.003948
127 0.005995
113 0.003942
110 0.005024
97 0.004987
86 0.002999
89 0.004988
87 0.004003
91 0.005942
90 0.005983
101 0.00404
106 0.00497
119 0.005014
136 0.00598
149 0.004986
163 0.004987
167 0.005033
170 0.005022
172 0.004941
173 0.004998
169 0.004953
132 0.004986
113 0.003989
107 0.003988
107 0.002993
107 0.004986
110 0.004987
111 0.005033
110 0.005984
112 0.005985
111 0.004972
116 0.004986
123 0.00496
132 0.005012
138 0.00398
147 0.003988
152 0.004022
154 0.004021
163 0.004967
173 0.00401
179 0.00399
175 0.003984
137 0.003958
124 0.00499
118 0.004996
118 0.004972
114 0.004968
118 0.004976
123 0.004942
125 0.004976
136 0.004979
138 0.00398
143 0.004046
149 0.004041
159 0.003991
166 0.003982
174 0.00396
174 0.002992
172 0.002993
170 0.003989
170 0.004033
165 0.003989
149 0.003923
120 0.003954
109 0.004024
112 0.004014
129 0.004015
140 0.004001
145 0.004004
152 0.002983
159 0.004013
171 0.003972
181 0.002992
192 0.002991
207 0.002995
213 0.003004
221 0.002984
224 0.004025
227 0.003946
227 0.004021
228 0.004013
226 0.004014
199 0.004027
150 0.003981
136 0.00296
133 0.003994
123 0.003956
122 0.002992
125 0.002988
125 0.002992
131 0.002986
133 0.002953
142 0.002944
154 0.002958
161 0.001994
165 0.002026
169 0.002992
179 0.001957
189 0.002983
191 0.002985
199 0.002989
203 0.003024
184 0.002994
123 0.002989
105 0.002986
103 0.003016
103 0.002943
97 0.002
98 0.003014
98 0.001965
101 0.001994
105 0.00203
109 0.002
121 0.002044
133 0.003037
141 0.002988
146 0.003012
157 0.002996
163 0.002993
168 0.001996
174 0.002992
176 0.00194
158 0.001988
109 0.002017
83 0.001988
69 0.001994
66 0.00197
64 0.002991
62 0.001962
66 0.001996
65 0.001961
66 0.001927
68 0.001946
79 0.001946
99 0.001995
112 0.001976
122 0.001987
130 0.001976
135 0.002035
143 0.000983
149 0.002042
155 0.000995
157 0.002057
141 0.001939
88 0.002028
74 0.000996
67 0.000999
64 0.001001
70 0.000992
78 0.000998
95 0.001994
113 0.001027
129 0.001992
144 0.002007
160 0.000998
169 0.001009
178 0.00099
192 0.00097
201 0.00102
213 0.000997
216 0.001029
221 0.000999
218 0.001994
174 0.001995
136 0.001996
126 0.001003
123 0.001992
120 0.0
126 0.000952
129 0.000966
134 0.000997
138 0.000996
145 0.000987
153 0.000998
164 0.000997
169 0.001
182 0.0
193 0.0
199 0.0
202 0.0
207 0.0
213 0.0
204 0.0
136 0.0
111 0.0
102 0.000998
97 0.0
90 0.0
94 0.000996
93 0.0
93 0.0
96 0.0
100 0.0
101 0.0
107 0.0
113 0.0
117 0.0
125 0.0
138 0.0
148 0.0
161 0.0
170 0.0
174 0.0
148 0.000998
98 0.000966
67 0.003018
55 0.0
56 0.001991
61 0.001036
66 0.001032
60 0.002007
62 0.002012
67 0.00198
74 0.001993
83 0.001996
99 0.001993
109 0.001997
121 0.002029
136 0.002044
150 0.00204
151 0.001031
153 0.001996
167 0.003018
159 0.001029
145 0.002033
88 0.001968
73 0.001985
71 0.002054
73 0.002004
71 0.002
81 0.002038
95 0.001994
115 0.001993
126 0.002024
142 0.002005
153 0.002002
164 0.002027
178 0.002998
189 0.002944
197 0.002966
207 0.002993
215 0.002049
224 0.001994
215 0.002031
160 0.001033
141 0.001997
137 0.001984
136 0.001931
137 0.002047
144 0.002016
142 0.002003
139 0.001992
139 0.002047
143 0.002073
153 0.002053
155 0.002045
160 0.001992
167 0.001985
171 0.000993
178 0.002016
189 0.002009
203 0.002022
194 0.002012
156 0.001997
113 0.002013
94 0.001994
87 0.001996
84 0.001997
84 0.002049
90 0.0
91 0.002993
87 0.004985
91 0.003991
100 0.002992
115 0.002992
124 0.002992
132 0.001995
144 0.002043
166 0.001995
170 0.001995
179 0.002003
185 0.002987
180 0.00297
117 0.002945
90 0.002949
84 0.002993
80 0.003038
80 0.00301
75 0.002989
78 0.003989
77 0.002989
77 0.003024
87 0.003028
86 0.003967
105 0.003023
121 0.002949
126 0.002991
135 0.002941
141 0.002992
144 0.003009
156 0.002995
161 0.003027
168 0.003032
135 0.002993
97 0.002985
72 0.004
73 0.003989
63 0.002958
66 0.001995
71 0.002991
76 0.002985
81 0.002981
85 0.002979
94 0.002977
108 0.001998
116 0.002992
127 0.002992
140 0.00399
154 0.003991
166 0.002993
181 0.002983
193 0.001987
204 0.00399
193 0.004025
150 0.002939
130 0.002956
122 0.001995
123 0.001984
122 0.001989
134 0.00399
138 0.004023
155 0.002965
160 0.00301
169 0.002994
175 0.003979
184 0.003955
195 0.002924
202 0.001988
214 0.000966
219 0.002026
225 0.002
224 0.003949
218 0.004986
156 0.002032
125 0.001939
106 0.001973
106 0.003989
101 0.004015
97 0.004039
102 0.001034
98 0.004021
94 0.001992
95 0.000967
103 0.000998
111 0.005028
118 0.00498
126 0.001978
143 0.002984
152 0.000996
158 0.004994
164 0.004987
175 0.00197
183 0.005011
129 0.000999
103 0.000992
92 0.000993
88 0.005959
91 0.005022
90 0.000954
93 0.001978
100 0.001012
99 0.005021
101 0.005013
106 0.001988
113 0.005033
114 0.001004
116 0.001989
128 0.001009
144 0.005019
148 0.006019
158 0.0
166 0.001042
169 0.0
167 0.006024
133 0.005983
89 0.000998
78 0.004986
71 0.0
71 0.000975
76 0.001988
83 0.005996
92 0.006003
100 0.001993
108 0.001008
117 0.0
125 0.005985
134 0.00598
143 0.002012
156 0.006002
162 0.000992
167 0.001995
175 0.000965
186 0.00702
189 0.006957
167 0.00301
129 0.002983
115 0.002993
120 0.006034
126 0.006019
127 0.004024
139 0.005996
145 0.005976
158 0.001992
160 0.000999
156 0.002003
158 0.00698
159 0.006986
164 0.001993
176 0.002003
177 0.002005
177 0.007024
183 0.007017
205 0.00798
206 0.006986
173 0.002053
143 0.001988
128 0.002974
125 0.007023
125 0.00697
126 0.002
129 0.002005
131 0.003
132 0.007013
133 0.006984
146 0.006991
157 0.00697
166 0.001949
171 0.002057
184 0.002037
189 0.007975
186 0.007979
183 0.001993
184 0.002039
179 0.002005
129 0.006983
96 0.006978
78 0.006988
73 0.00698
70 0.001984
72 0.001994
74 0.001986
67 0.007947
69 0.007981
73 0.002002
86 0.004944
93 0.002859
106 0.007981
115 0.007986
139 0.00697
142 0.007985
150 0.001998
154 0.003039
164 0.002004
156 0.007984
121 0.007974
85 0.001995
77 0.001994
79 0.003022
77 0.006973
75 0.006977
71 0.00798
71 0.007014
72 0.003009
72 0.002996
71 0.001989
77 0.002028
92 0.00795
100 0.007983
108 0.003006
123 0.004014
128 0.002024
135 0.006959
146 0.001997
147 0.007042
99 0.006994
64 0.002974
46 0.002999
40 0.002056
40 0.006941
39 0.007033
47 0.00203
50 0.002951
51 0.003991
54 0.005991
61 0.004
73 0.00702
80 0.006964
89 0.004998
102 0.003989
115 0.004003
124 0.00698
137 0.007019
158 0.004956
182 0.003992
175 0.003986
121 0.006963
99 0.003985
104 0.006988
110 0.005981
115 0.002999
122 0.003991
125 0.003035
120 0.00698
123 0.00602
127 0.00396
132 0.002992
140 0.002965
147 0.005969
158 0.004023
174 0.00598
183 0.005975
189 0.002961
195 0.003986
201 0.004023
165 0.005984
127 0.005957
103 0.002946
95 0.003982
92 0.003986
89 0.005022
95 0.002992
95 0.005984
92 0.005995
93 0.004988
97 0.005012
106 0.004953
117 0.005002
123 0.006015
123 0.004967
127 0.004988
140 0.004988
146 0.004986
160 0.004988
172 0.004952
168 0.004993
119 0.005026
82 0.003033
66 0.003978
63 0.004991
60 0.005012
62 0.004996
69 0.004997
71 0.004948
71 0.004977
68 0.004977
68 0.004991
72 0.004987
79 0.004966
87 0.004975
92 0.002948
108 0.00399
116 0.004954
120 0.004961
132 0.003989
137 0.004032
140 0.00399
72 0.003978
37 0.00498
20 0.003988
19 0.003986
26 0.004011
31 0.004019
41 0.005001
46 0.003974
46 0.003967
44 0.003994
43 0.003987
52 0.003979
66 0.003987
76 0.003955
86 0.003983
96 0.004004
117 0.003953
124 0.002937
132 0.002984
137 0.003027
146 0.003993
103 0.003994
78 0.004028
70 0.003987
73 0.003989
74 0.003996
80 0.003972
95 0.003941
113 0.004913
115 0.004009
122 0.002994
127 0.002997
140 0.002991
154 0.003022
167 0.003941
175 0.00396
196 0.003956
207 0.003963
219 0.003957
226 0.002997
228 0.002993
166 0.002994
129 0.002985
112 0.003014
109 0.003006
110 0.002994
116 0.002993
121 0.003009
120 0.002987
120 0.002992
120 0.001992
124 0.003006
122 0.001994
128 0.003005
138 0.003051
142 0.002993
151 0.003019
164 0.002991
182 0.002975
196 0.002993
202 0.002998
165 0.002964
113 0.001994
71 0.00196
48 0.00196
53 0.002927
54 0.002031
53 0.002028
60 0.001961
67 0.002953
70 0.002967
75 0.002992
85 0.003005
104 0.00399
110 0.001994
117 0.001996
120 0.001999
137 0.002952
150 0.001996
158 0.001965
166 0.002961
178 0.00296
171 0.001994
115 0.002959
57 0.001994
46 0.001995
39 0.001989
38 0.001993
48 0.001939
58 0.001957
58 0.001966
62 0.001997
73 0.00202
80 0.001999
90 0.001995
98 0.001984
115 0.002005
123 0.001924
132 0.000936
143 0.000978
154 0.001032
166 0.002025
174 0.001997
175 0.002006
136 0.001995
86 0.001997
62 0.001945
63 0.001953
68 0.000968
67 0.000981
73 0.001004
74 0.001065
75 0.001033
77 0.001952
84 0.001999
97 0.002035
113 0.001995
128 0.001978
145 0.001993
176 0.002002
194 0.000989
208 0.001002
219 0.000994
228 0.001
213 0.001015
165 0.000997
135 0.001986
131 0.000997
134 0.000967
140 0.0
147 0.0
153 0.0
156 0.001052
157 0.0
159 0.0
165 0.001001
174 0.000972
186 0.001012
195 0.000997
207 0.000999
221 0.000962
193 0.001014
243 0.0
249 0.0
233 0.0
163 0.0
131 0.0
119 0.0
117 0.0
113 0.0
109 0.0
112 0.000967
112 0.0
114 0.00103
106 0.001
105 0.0
121 0.0
141 0.0
151 0.0
166 0.0
183 0.001054
199 0.0
206 0.000995
212 0.000982
216 0.0
221 0.0
169 0.001026
129 0.000997
95 0.002026
103 0.00201
96 0.0
107 0.0
101 0.002023
112 0.001983
105 0.001994
108 0.001993
109 0.001995
118 0.002042
127 0.002027
134 0.001986
154 0.001997
172 0.001955
196 0.003
208 0.002002
218 0.002014
224 0.003007
227 0.002006
176 0.002002
123 0.002004
98 0.00198
95 0.002027
101 0.002037
101 0.002029
105 0.002028
109 0.00295
111 0.002991
112 0.002001
116 0.002008
124 0.002993
139 0.003012
146 0.002005
158 0.002987
170 0.003968
180 0.003018
189 0.002
195 0.002024
203 0.002011
201 0.003018
182 0.001974
132 0.001995
103 0.002014
94 0.001995
107 0.002002
114 0.001996
131 0.001988
144 0.002047
159 0.001988
162 0.002003
170 0.002038
182 0.001986
188 0.00299
202 0.002032
200 0.002984
222 0.001986
224 0.00197
237 0.002029
231 0.001996
237 0.002032
180 0.001996
163 0.002054
140 0.002005
134 0.002021
134 0.002958
135 0.002965
134 0.001992
137 0.003027
138 0.003021
140 0.002989
143 0.002988
145 0.002999
150 0.00298
155 0.001994
161 0.00296
166 0.001914
171 0.00296
173 0.00297
172 0.002951
174 0.002964
173 0.002993
172 0.002967
155 0.002986
123 0.002978
112 0.002982
115 0.002998
114 0.002992
113 0.003942
117 0.002953
119 0.001962
120 0.002951
120 0.002949
125 0.002941
131 0.002988
137 0.002993
146 0.001981
147 0.002955
155 0.002964
161 0.003
162 0.002988
161 0.003994
160 0.001962
161 0.001995
153 0.002994
124 0.004004
108 0.00399
105 0.001995
106 0.002028
109 0.002973
114 0.001997
117 0.00296
118 0.002984
118 0.003953
118 0.002926
121 0.001935
125 0.002976
131 0.003981
135 0.00305
136 0.002065
138 0.001995
141 0.002968
148 0.00299
175 0.002993
191 0.002974
187 0.003983
133 0.00299
98 0.001953
82 0.002958
78 0.003991
78 0.004014
78 0.002002
83 0.001991
88 0.002
93 0.001962
96 0.002004
103 0.004018
114 0.005021
130 0.004938
151 0.001012
166 0.002998
179 0.001003
177 0.004953
172 0.004954
178 0.001019
184 0.004987
184 0.001993
148 0.001998
117 0.001996
100 0.003978
94 0.004975
88 0.001008
92 0.00196
97 0.000994
104 0.005021
111 0.004987
119 0.001964
134 0.005988
146 0.001963
150 0.0
156 0.001994
163 0.006025
170 0.005952
182 0.000964
191 0.001993
200 0.000985
207 0.005953
206 0.004998
162 0.001004
117 0.005019
105 0.000987
109 0.000983
110 0.001003
109 0.005027
112 0.004989
119 0.0
125 0.0
137 0.001986
153 0.006018
177 0.006021
194 0.0
205 0.006018
209 0.00101
215 0.00097
223 0.001007
227 0.005986
221 0.006019
166 0.0
130 0.0
113 0.0
104 0.005988
102 0.006019
99 0.001986
108 0.005986
110 0.000992
112 0.001986
116 0.00199
118 0.007002
134 0.007007
152 0.001995
162 0.001987
175 0.001994
183 0.002991
191 0.005981
191 0.006959
190 0.00701
139 0.006991
96 0.0
81 0.002948
75 0.0
73 0.00695
73 0.006981
80 0.001988
81 0.003001
85 0.0
88 0.006915
94 0.006951
104 0.006987
115 0.004987
126 0.004986
130 0.002992
141 0.002992
150 0.001994
161 0.00698
178 0.001995
187 0.001996
185 0.00203
134 0.006977
94 0.006976
75 0.007006
78 0.007949
77 0.002004
78 0.00301
82 0.001993
80 0.007978
77 0.007984
79 0.002963
84 0.003007
92 0.003989
102 0.007976
110 0.006974
135 0.007963
146 0.007927
154 0.003
170 0.002001
178 0.001991
186 0.007979
197 0.007946
203 0.002971
194 0.00203
146 0.001993
112 0.00795
97 0.00698
92 0.006996
88 0.007981
86 0.001997
87 0.0
83 0.001995
80 0.0
82 0.002992
89 0.002993
100 0.001995
107 0.001994
119 0.007947
134 0.007948
146 0.003008
157 0.006997
164 0.006974
171 0.001994
176 0.002984
184 0.002986
190 0.006961
183 0.005967
132 0.002997
99 0.003973
82 0.00397
80 0.006984
79 0.003006
91 0.006972
96 0.006961
96 0.003006
102 0.003034
109 0.003038
124 0.006017
132 0.007009
142 0.004024
156 0.001997
166 0.002963
182 0.005974
192 0.002988
204 0.006951
207 0.006979
211 0.002992
222 0.001967
232 0.003014
229 0.006966
197 0.005952
163 0.00298
149 0.00303
144 0.004004
148 0.005985
154 0.003964
164 0.005946
168 0.006952
176 0.003018
181 0.003951
185 0.002962
191 0.006978
195 0.007
199 0.003958
205 0.004996
215 0.003995
217 0.005969
225 0.003995
222 0.005976
224 0.005966
229 0.00399
231 0.003009
224 0.002995
171 0.004989
138 0.004995
129 0.003982
130 0.003981
132 0.003977
132 0.006032
139 0.005012
145 0.00497
150 0.005017
153 0.003923
157 0.003928
169 0.004963
173 0.004986
183 0.004926
189 0.004985
197 0.004979
201 0.004973
207 0.004961
208 0.004945
207 0.004979
215 0.005932
217 0.005982
204 0.005011
155 0.004954
142 0.004949
137 0.004965
133 0.00501
129 0.004972
133 0.003958
133 0.002043
138 0.003995
140 0.002979
144 0.004987
147 0.004026
153 0.003962
165 0.004974
175 0.003984
185 0.00399
193 0.005018
200 0.003992
205 0.004955
206 0.004984
207 0.003925
203 0.003987
191 0.004013
155 0.003959
120 0.004033
111 0.00402
110 0.003995
106 0.002959
106 0.00399
108 0.003983
113 0.003993
117 0.003954
126 0.004938
133 0.004973
140 0.004985
148 0.003987
155 0.003963
156 0.003986
162 0.003973
167 0.003983
171 0.003988
176 0.003987
180 0.003939
182 0.003986
164 0.003953
131 0.002995
110 0.00296
106 0.002991
114 0.003956
125 0.003964
138 0.003968
145 0.004025
152 0.004013
162 0.003981
167 0.003981
172 0.00394
183 0.003935
189 0.004007
196 0.002992
201 0.002961
204 0.002991
209 0.002957
209 0.002986
211 0.002944
208 0.002982
192 0.002993
146 0.002982
135 0.004001
126 0.00401
123 0.003031
128 0.00302
131 0.002958
132 0.002984
137 0.002962
142 0.002945
148 0.003078
154 0.002992
157 0.002992
153 0.002953
157 0.002962
169 0.002992
170 0.002004
168 0.002002
170 0.002991
172 0.002986
143 0.002948
105 0.001962
89 0.002997
88 0.003035
88 0.002991
85 0.002992
90 0.002054
92 0.001962
94 0.001956
93 0.001994
98 0.001963
107 0.001996
117 0.003011
124 0.002023
129 0.001955
138 0.002027
144 0.001978
148 0.001976
152 0.003033
158 0.000996
151 0.00399
106 0.001994
65 0.001995
58 0.001996
60 0.001989
57 0.00199
58 0.002005
54 0.00201
48 0.002024
55 0.001983
61 0.001988
74 0.001998
82 0.001965
92 0.000972
101 0.001999
110 0.001981
119 0.001989
127 0.001984
135 0.001994
143 0.001988
141 0.001974
117 0.000995
68 0.001969
56 0.001986
55 0.001994
54 0.002005
55 0.001951
56 0.002993
54 0.000993
58 0.002994
59 0.0
67 0.001986
80 0.001035
100 0.000997
121 0.000997
143 0.001003
157 0.001995
169 0.000997
175 0.004988
185 0.000998
187 0.001995
142 0.000996
112 0.001032
102 0.000978
100 0.0
99 0.000998
104 0.0
110 0.000964
112 0.001012
109 0.000999
107 0.000998
113 0.000983
120 0.001006
128 0.001
136 0.000997
147 0.001001
152 0.001
159 0.0
168 0.0
177 0.0
174 0.003989
140 0.003989
97 0.003989
74 0.001996
72 0.0
70 0.0
68 0.0
77 0.0
74 0.0
65 0.0
67 0.0
71 0.0
92 0.0
102 0.0
115 0.0
123 0.000955
136 0.0
153 0.000973
162 0.000995
164 0.001981
168 0.003024
173 0.00101
158 0.002992
88 0.001979
72 0.00203
66 0.001988
63 0.001995
62 0.002
66 0.001995
64 0.000997
64 0.002991
67 0.004986
71 0.004987
79 0.000998
93 0.002995
115 0.002994
128 0.00396
139 0.000999
150 0.001997
156 0.00202
161 0.001993
167 0.001974
175 0.002019
170 0.002011
133 0.00203
99 0.002028
83 0.001993
78 0.001996
69 0.002989
73 0.003017
77 0.003006
82 0.002993
87 0.002983
91 0.002031
100 0.002992
120 0.002969
145 0.002984
158 0.002028
166 0.002012
181 0.001995
187 0.002027
200 0.001986
208 0.003055
216 0.003026
218 0.002022
197 0.002046
152 0.001994
141 0.002013
140 0.002017
143 0.002045
146 0.003023
163 0.003025
171 0.002997
182 0.001929
191 0.001999
199 0.002001
209 0.002
214 0.00199
222 0.002027
231 0.001994
238 0.002027
241 0.001981
238 0.002034
228 0.002001
229 0.003
223 0.002962
191 0.002993
162 0.003014
150 0.002046
146 0.002048
143 0.002044
143 0.001997
148 0.002027
147 0.002028
150 0.002027
144 0.002963
147 0.003947
150 0.002976
155 0.003005
163 0.002992
172 0.002992
177 0.002959
186 0.00296
191 0.002992
197 0.002973
203 0.002034
206 0.002943
165 0.00295
126 0.004035
99 0.002961
90 0.003003
74 0.002984
64 0.002985
66 0.00296
70 0.002992
77 0.003076
83 0.002986
94 0.002992
113 0.002019
117 0.002991
123 0.002959
128 0.002968
138 0.003991
156 0.003968
166 0.002981
168 0.002993
185 0.004987
197 0.002991
199 0.0
175 0.00399
122 0.001994
94 0.002993
107 0.002986
116 0.002958
121 0.005022
118 0.003958
112 0.003004
114 0.002
125 0.00296
136 0.003957
139 0.003959
145 0.002999
152 0.002992
167 0.003989
175 0.003001
186 0.00302
203 0.00399
211 0.002968
201 0.002991
170 0.002025
141 0.001995
116 0.004997
104 0.004988
109 0.001996
125 0.001995
135 0.002002
129 0.002035
129 0.002997
133 0.003
137 0.004014
141 0.00399
150 0.001949
161 0.001984
180 0.001993
189 0.003981
193 0.004989
189 0.000998
175 0.004988
148 0.001994
116 0.002958
101 0.001963
92 0.004988
90 0.00499
93 0.001986
95 0.002003
94 0.002009
94 0.003983
96 0.004988
104 0.001002
114 0.005021
119 0.000976
124 0.002008
131 0.002
136 0.005033
140 0.004987
149 0.002959
156 0.002018
163 0.0
170 0.007033
138 0.005987
96 0.001993
79 0.004962
73 0.000996
71 0.001996
78 0.002002
82 0.005033
90 0.005984
101 0.000997
104 0.002025
110 0.001011
116 0.005956
122 0.005986
131 0.000966
151 0.006034
161 0.001014
174 0.000996
185 0.001044
193 0.004966
195 0.004961
146 0.001022
112 0.0
87 0.0
75 0.005993
71 0.005986
70 0.0
74 0.006008
78 0.0
81 0.000985
89 0.001001
100 0.006993
114 0.005973
124 0.001005
130 0.0
147 0.0
167 0.005991
178 0.005967
180 0.005998
190 0.00597
189 0.006983
161 0.002991
121 0.002005
96 0.000959
83 0.006982
74 0.006995
69 0.002982
75 0.0
82 0.00196
94 0.00794
119 0.000997
131 0.007936
138 0.00798
147 0.000966
152 0.0
158 0.001005
172 0.007024
181 0.006953
192 0.001988
198 0.0
204 0.001053
205 0.006977
147 0.00299
125 0.007
114 0.006971
111 0.002989
107 0.003
108 0.002012
110 0.007973
115 0.007976
123 0.00204
126 0.001987
139 0.001995
152 0.006984
166 0.001952
170 0.007934
180 0.006982
189 0.001995
192 0.000947
198 0.001983
205 0.007926
199 0.007961
164 0.002014
124 0.002999
104 0.003002
97 0.006976
91 0.002998
90 0.00797
94 0.007968
102 0.003002
111 0.002982
122 0.0
127 0.007939
135 0.006966
144 0.001998
152 0.002996
155 0.002988
158 0.007979
168 0.00201
172 0.007011
182 0.007934
185 0.002982
183 0.002001
162 0.003005
123 0.007977
97 0.00794
94 0.007939
93 0.002003
86 0.001973
89 0.001995
92 0.002987
101 0.002985
113 0.006981
118 0.006983
127 0.002985
135 0.003061
142 0.002999
149 0.007978
156 0.006982
162 0.002992
164 0.003028
174 0.002996
194 0.002983
193 0.002033
165 0.006971
135 0.006981
112 0.003026
99 0.002993
100 0.002023
102 0.006999
101 0.006995
106 0.002023
110 0.002984
117 0.00201
127 0.002986
135 0.003031
149 0.006988
157 0.005987
165 0.00299
175 0.003005
186 0.001996
194 0.006982
198 0.006935
203 0.001995
211 0.002993
209 0.00301
183 0.001972
166 0.004018
158 0.005972
157 0.005983
160 0.00398
162 0.003023
164 0.002989
169 0.005949
173 0.00603
176 0.004964
180 0.003959
183 0.003992
182 0.003995
179 0.003965
185 0.005975
183 0.005949
189 0.003985
192 0.003996
195 0.003964
195 0.005962
188 0.006012
163 0.004964
141 0.003989
132 0.004956
133 0.002996
129 0.003987
133 0.005003
137 0.006016
140 0.005979
140 0.005
143 0.003976
147 0.004043
153 0.006008
158 0.005007
160 0.003028
168 0.003028
182 0.002992
186 0.002958
188 0.002991
188 0.004954
185 0.004978
171 0.003979
131 0.004993
116 0.004979
111 0.005988
114 0.006018
115 0.004985
122 0.004938
125 0.004985
136 0.003954
139 0.004959
143 0.004961
148 0.00502
153 0.004957
154 0.004993
155 0.004981
165 0.004986
168 0.005001
167 0.004965
167 0.004979
172 0.003985
164 0.003986
147 0.003982
123 0.003958
115 0.004025
118 0.003986
118 0.003987
120 0.003997
126 0.003982
128 0.004025
132 0.004979
134 0.003995
137 0.003992
143 0.004021
146 0.00395
153 0.003984
170 0.00399
161 0.00399
165 0.003958
175 0.00399
186 0.003989
193 0.003989
183 0.002991
155 0.002995
136 0.002945
137 0.003953
142 0.003966
147 0.003996
154 0.003983
159 0.003946
166 0.003992
169 0.003966
178 0.003986
187 0.003998
193 0.00399
195 0.003988
204 0.002947
210 0.003001
216 0.002997
220 0.003967
214 0.002989
198 0.002993
158 0.003935
109 0.002979
92 0.004003
86 0.003974
80 0.004023
84 0.00304
88 0.002992
100 0.002994
107 0.002961
112 0.003019
126 0.001993
131 0.001994
133 0.001989
139 0.002965
143 0.002982
141 0.002034
142 0.002004
150 0.001986
150 0.002008
115 0.002994
64 0.002972
37 0.002983
33 0.002958
32 0.002992
34 0.003001
42 0.00297
40 0.002001
38 0.001988
42 0.003025
53 0.001986
68 0.001994
80 0.001944
93 0.002058
104 0.002028
113 0.001995
119 0.00203
129 0.002978
138 0.001993
139 0.003012
129 0.00203
83 0.001995
50 0.005983
12 0.002993
3 0.000997
4 0.001995
9 0.002019
17 0.002019
25 0.001
45 0.002016
59 0.001979
71 0.001006
83 0.000968
96 0.000996
121 0.000998
153 0.001962
168 0.001993
181 0.002
187 0.001995
183 0.001996
143 0.001982
94 0.001034
69 0.001993
65 0.001966
62 0.000999
69 0.000998
75 0.000988
88 0.002006
92 0.001031
98 0.001997
111 0.002028
125 0.001994
136 0.001031
150 0.002006
161 0.002012
166 0.001032
176 0.001027
187 0.000997
196 0.000997
128 0.001007
68 0.00103
39 0.0
20 0.001003
15 0.002
9 0.0
11 0.002026
7 0.0
0 0.001012
0 0.0
0 0.0
1 0.000966
25 0.001036
37 0.000988
68 0.000992
87 0.001018
100 0.000997
112 0.0
128 0.0
138 0.0
71 0.0
13 0.0
0 0.0
0 0.0
0 0.0
0 0.0
0 0.0
0 0.000971
0 0.0
0 0.0
0 0.0
12 0.0
25 0.0
41 0.0
56 0.0
75 0.0
98 0.002992
111 0.000997
126 0.0
135 0.001996
101 0.0
29 0.0
0 0.000966
48 0.001148
46 0.003029
46 0.002985
50 0.002991
53 0.001976
53 0.002961
55 0.000957
60 0.002956
67 0.003021
81 0.003058
100 0.002952
117 0.003032
128 0.002026
141 0.003022
151 0.002995
161 0.002002
170 0.001979
147 0.00295
123 0.003023
100 0.002987
97 0.002992
96 0.002989
101 0.002
105 0.003012
107 0.002964
106 0.003021
107 0.002023
107 0.001989
110 0.00203
123 0.001992
134 0.002937
141 0.002962
150 0.003026
161 0.001984
166 0.00203
169 0.001997
176 0.002991
181 0.003023
156 0.002986
119 0.002982
101 0.002996
92 0.00303
89 0.002034
91 0.00202
96 0.002027
98 0.002002
96 0.002958
97 0.002979
98 0.002023
107 0.00296
116 0.002997
125 0.003007
129 0.003007
141 0.003013
149 0.002945
155 0.002988
160 0.004024
166 0.003
165 0.002038
132 0.002044
91 0.00199
81 0.003044
79 0.002029
80 0.002027
79 0.002021
85 0.002996
90 0.002961
98 0.00299
107 0.002003
116 0.003003
124 0.003015
139 0.002982
147 0.002997
152 0.002982
163 0.002993
171 0.002998
172 0.002062
174 0.001984
176 0.00199
172 0.001945
151 0.002974
107 0.002992
94 0.00301
91 0.001989
92 0.001997
99 0.001981
113 0.002993
127 0.002967
135 0.002996
141 0.00402
150 0.001018
154 0.002986
166 0.002054
173 0.003045
181 0.002983
189 0.001996
193 0.002992
196 0.001996
205 0.002987
202 0.002999
174 0.003012
136 0.003968
123 0.001971
125 0.00098
121 0.000983
128 0.004002
132 0.003989
137 0.001994
141 0.001965
144 0.002032
147 0.002997
156 0.002995
171 0.000998
177 0.003923
189 0.001
194 0.000987
199 0.000998
202 0.004028
208 0.003993
210 0.001018
186 0.001987
148 0.002026
128 0.004044
119 0.004024
119 0.000991
122 0.003995
126 0.003044
127 0.001001
127 0.002032
129 0.000998
130 0.003941
137 0.004987
149 0.0
153 0.000977
155 0.000955
162 0.004036
168 0.004022
177 0.005019
183 0.005014
181 0.001026
167 0.0
129 0.0
106 0.005004
98 0.005946
95 0.00105
96 0.001089
101 0.001067
106 0.004955
112 0.004984
123 0.005012
131 0.004969
144 0.0
157 0.0
167 0.001019
173 0.004977
178 0.004968
176 0.000998
180 0.001996
190 0.001002
193 0.004987
186 0.005003
149 0.005988
136 0.005992
133 0.0
135 0.0
140 0.0
146 0.004966
153 0.004992
158 0.0
160 0.0
161 0.0
166 0.004992
170 0.004979
172 0.006017
180 0.006027
183 0.001054
185 0.0
187 0.003
190 0.006
185 0.006017
141 0.002035
117 0.002999
103 0.002989
104 0.005972
102 0.005991
99 0.005982
102 0.004987
111 0.002992
119 0.002964
128 0.002951
138 0.006038
147 0.005959
154 0.002986
160 0.0
170 0.002025
173 0.007015
179 0.006946
186 0.007036
189 0.007016
175 0.006989
113 0.002987
91 0.000996
85 0.001985
87 0.006965
86 0.006994
94 0.003003
98 0.001997
103 0.001998
107 0.005976
112 0.001998
119 0.006003
128 0.005966
134 0.002005
137 0.002981
142 0.001962
145 0.006983
150 0.00697
158 0.00299
163 0.002005
158 0.001995
115 0.006989
73 0.001996
64 0.007018
63 0.006937
60 0.002997
65 0.003009
71 0.00299
78 0.007017
84 0.006982
101 0.003017
107 0.00197
118 0.003007
126 0.006981
139 0.00199
152 0.007974
152 0.007974
161 0.002992
167 0.003002
173 0.002026
167 0.006981
127 0.007012
96 0.002958
95 0.002011
99 0.002985
105 0.007975
117 0.002961
127 0.006993
138 0.007976
144 0.003027
150 0.002992
161 0.001995
169 0.007978
178 0.007979
191 0.002991
198 0.001999
204 0.001993
211 0.007979
216 0.002967
207 0.007975
157 0.007979
124 0.003003
111 0.002998
107 0.00302
107 0.003009
113 0.007054
118 0.007013
119 0.004001
117 0.003009
118 0.002974
129 0.00302
145 0.002992
157 0.006978
162 0.006982
172 0.003964
175 0.002979
178 0.003955
185 0.006028
191 0.006985
190 0.003051
157 0.003983
110 0.002992
80 0.003947
78 0.002987
75 0.006956
77 0.007023
79 0.003954
81 0.003986
79 0.004037
79 0.006982
80 0.006982
91 0.003031
103 0.004005
116 0.003993
137 0.003958
144 0.003989
149 0.005923
157 0.006995
165 0.003985
164 0.00399
144 0.003991
80 0.007033
60 0.00698
52 0.00399
50 0.004017
50 0.003991
59 0.005069
62 0.004961
68 0.006024
71 0.005983
75 0.004022
84 0.00299
95 0.002993
108 0.006977
119 0.006978
133 0.004956
139 0.003989
147 0.003954
157 0.002992
162 0.003989
145 0.005983
105 0.005984
90 0.002991
90 0.003989
97 0.003989
102 0.004987
111 0.001994
121 0.002993
131 0.0
139 0.000997
151 0.004894
161 0.004986
168 0.004987
177 0.005944
184 0.005951
196 0.003982
202 0.005019
207 0.004989
218 0.006
223 0.005021
205 0.004979
171 0.003994
121 0.003989
113 0.004981
110 0.004987
110 0.004986
118 0.005018
121 0.003989
124 0.003992
131 0.004988
133 0.005984
140 0.005985
154 0.004957
164 0.004961
174 0.004937
186 0.004954
193 0.002991
204 0.004986
206 0.004986
213 0.004987
210 0.004987
173 0.004953
132 0.00402
109 0.004981
101 0.003998
97 0.003822
100 0.004011
106 0.004955
106 0.003997
103 0.004985
104 0.004977
107 0.004939
120 0.005
129 0.004992
138 0.00402
141 0.004024
154 0.004001
164 0.00399
171 0.003998
176 0.003988
182 0.003956
183 0.003989
148 0.00399
96 0.00399
82 0.003988
75 0.003986
74 0.004986
77 0.005067
82 0.004987
91 0.00398
103 0.003989
110 0.003991
118 0.003984
125 0.004022
134 0.004026
144 0.003936
150 0.003977
158 0.003989
164 0.004024
167 0.003983
172 0.003958
188 0.003027
195 0.002998
169 0.002988
135 0.002975
120 0.00403
115 0.003992
114 0.003989
121 0.003972
131 0.003985
139 0.003983
148 0.003976
154 0.00399
167 0.002982
178 0.00302
189 0.002958
196 0.002992
203 0.002985
211 0.002992
215 0.003018
220 0.002988
228 0.00297
229 0.002998
213 0.003047
167 0.003968
133 0.002944
124 0.002949
123 0.002977
127 0.002964
135 0.003003
140 0.002949
147 0.002946
154 0.00296
157 0.002983
161 0.002961
165 0.003023
168 0.00304
174 0.002992
187 0.00207
189 0.001996
195 0.002002
197 0.001987
201 0.002038
192 0.003085
130 0.002007
99 0.002012
90 0.002033
89 0.002058
90 0.002992
92 0.00205
97 0.002035
101 0.00202
105 0.002023
107 0.002029
111 0.002032
122 0.002023
130 0.002
136 0.001999
146 0.001976
158 0.00203
158 0.002025
161 0.00096
162 0.002004
164 0.002007
129 0.002
83 0.002034
66 0.002002
61 0.001996
63 0.002036
63 0.001991
65 0.001966
67 0.001992
74 0.001956
75 0.001996
81 0.001009
92 0.000997
105 0.000959
117 0.002039
125 0.001019
134 0.002032
139 0.002029
151 0.001018
156 0.002031
162 0.001984
157 0.001996
119 0.001045
71 0.001
65 0.000957
63 0.000997
69 0.000961
85 0.000972
98 0.002005
113 0.000979
125 0.001987
131 0.001994
140 0.000946
151 0.0
162 0.0
178 0.000989
185 0.000999
192 0.000951
199 0.001042
206 0.001029
201 0.000999
158 0.000998
114 0.00098
103 0.001014
103 0.0
104 0.000997
109 0.0
119 0.0
125 0.0
126 0.0
130 0.0
139 0.0
147 0.0
155 0.0
162 0.0
171 0.001001
176 0.0
179 0.0
184 0.0
189 0.0
139 0.003024
102 0.002967
84 0.0
78 0.003029
75 0.0
76 0.0
79 0.0
83 0.0
82 0.003023
76 0.002979
77 0.002998
86 0.002997
99 0.002992
117 0.002993
129 0.003009
146 0.002984
150 0.002019
149 0.002027
150 0.002001
156 0.002044
138 0.002027
71 0.002021
49 0.002959
35 0.002032
33 0.002999
34 0.002975
40 0.00299
44 0.00299
44 0.002949
46 0.002957
50 0.003001
56 0.003032
67 0.002987
82 0.001983
90 0.002019
109 0.00198
119 0.002034
126 0.002025
137 0.002004
145 0.002993
128 0.001981
91 0.00196
77 0.001996
72 0.002988
77 0.003023
85 0.002981
92 0.002997
99 0.002991
83 0.002973
67 0.002993
68 0.003031
77 0.003054
96 0.002992
111 0.003011
122 0.002948
138 0.002998
151 0.003007
163 0.003008
173 0.003013
188 0.002944
139 0.002977
102 0.00299
88 0.003001
83 0.002995
83 0.002951
85 0.002992
88 0.002997
89 0.002977
88 0.003006
87 0.002026
88 0.002984
102 0.002047
113 0.001997
130 0.002
137 0.002002
157 0.002982
170 0.003039
183 0.002
191 0.002982
198 0.001966
195 0.003043
139 0.003017
95 0.002036
76 0.003026
80 0.002973
80 0.002048
83 0.002077
91 0.00203
94 0.002017
95 0.001995
95 0.003004
100 0.002992
114 0.002991
118 0.002993
122 0.001995
133 0.003034
149 0.002961
161 0.002936
169 0.002971
176 0.003028
187 0.003961
196 0.002031
198 0.002962
158 0.003004
100 0.002959
82 0.002964
83 0.002989
79 0.002992
80 0.001995
83 0.002023
85 0.002966
86 0.004025
88 0.003026
97 0.002004
109 0.001996
119 0.002055
131 0.003988
142 0.002987
156 0.002964
167 0.003958
175 0.002951
186 0.00299
193 0.002992
194 0.002978
170 0.004023
113 0.001962
93 0.002051
87 0.001993
89 0.00399
94 0.004022
113 0.002989
131 0.004957
144 0.001917
152 0.00301
165 0.00206
178 0.002053
188 0.004955
200 0.004938
213 0.003033
221 0.002027
229 0.002026
168 0.004953
232 0.003966
248 0.003996
247 0.004992
212 0.000987
168 0.001032
146 0.002037
140 0.004989
140 0.004987
141 0.000996
148 0.001995
153 0.001989
156 0.005002
161 0.004984
171 0.004987
183 0.004986
192 0.002006
