70 0.025791
78 0.006012
91 0.006013
102 0.006982
107 0.006976
107 0.005984
105 0.005988
105 0.006038
109 0.006981
115 0.006982
123 0.006066
131 0.005981
137 0.005984
149 0.006993
156 0.006957
162 0.006978
150 0.006982
113 0.007021
79 0.006984
62 0.006952
62 0.006979
74 0.006982
93 0.00793
102 0.007007
115 0.00602
114 0.005985
112 0.006984
112 0.006919
116 0.007948
122 0.007943
128 0.006979
134 0.006981
145 0.006982
151 0.006994
158 0.006952
155 0.006949
81 0.007967
65 0.007942
64 0.007012
71 0.007979
83 0.007948
102 0.006981
113 0.006982
117 0.007016
114 0.007945
111 0.007948
111 0.007017
116 0.007978
126 0.007978
132 0.007949
138 0.007938
143 0.007929
147 0.007978
154 0.007938
138 0.007975
112 0.007014
68 0.007946
53 0.006981
55 0.007013
68 0.006981
90 0.00695
99 0.006981
104 0.006981
102 0.007022
100 0.007986
101 0.007018
105 0.007018
111 0.007018
117 0.006922
124 0.006954
134 0.007023
140 0.007029
154 0.00698
157 0.006981
132 0.006982
91 0.006903
63 0.007947
54 0.00698
62 0.006951
74 0.006949
89 0.006932
102 0.006981
110 0.006982
109 0.006981
106 0.00703
108 0.006981
113 0.006986
119 0.006947
125 0.005986
131 0.005963
140 0.006949
146 0.005983
152 0.006863
159 0.006985
149 0.007014
88 0.006985
63 0.005985
59 0.005984
68 0.006981
80 0.00698
95 0.007019
107 0.007017
110 0.007029
107 0.007017
104 0.007014
105 0.00603
108 0.005984
119 0.005984
126 0.005987
135 0.006935
141 0.005932
147 0.005961
153 0.005955
157 0.006997
125 0.00596
84 0.005985
57 0.005988
48 0.005978
51 0.005967
71 0.005984
84 0.005982
97 0.005984
100 0.005944
97 0.005955
96 0.005984
97 0.005965
103 0.005024
110 0.005148
117 0.005039
124 0.005021
131 0.005993
144 0.005984
151 0.00599
162 0.005985
158 0.005985
123 0.004987
83 0.005927
59 0.005954
57 0.005965
67 0.00599
80 0.005955
95 0.005984
107 0.005951
114 0.004987
111 0.004988
110 0.00495
114 0.004996
119 0.004985
126 0.004995
133 0.004949
142 0.004983
149 0.004986
156 0.004948
163 0.004956
170 0.005003
166 0.004985
130 0.004956
85 0.005016
73 0.005016
76 0.005042
88 0.005
102 0.004961
121 0.00502
129 0.005018
128 0.004942
123 0.005024
119 0.005039
122 0.00399
127 0.00399
134 0.004006
144 0.004987
150 0.004988
157 0.003956
164 0.004949
171 0.003989
167 0.004972
131 0.004997
92 0.004944
70 0.004952
71 0.004954
82 0.003964
95 0.003954
113 0.003962
120 0.00399
120 0.003991
117 0.00399
116 0.004986
120 0.004951
125 0.003944
131 0.004992
137 0.004982
148 0.003925
154 0.00396
161 0.003989
170 0.00396
177 0.003942
167 0.003991
126 0.003989
86 0.003982
63 0.004031
64 0.00399
74 0.003992
87 0.004025
109 0.00399
116 0.003998
117 0.002958
114 0.002989
114 0.002992
118 0.004028
124 0.003996
131 0.004031
140 0.004028
146 0.004025
153 0.002993
163 0.003005
170 0.002993
177 0.003002
181 0.002993
144 0.002993
102 0.003005
79 0.004001
74 0.002997
80 0.002992
97 0.003991
112 0.002987
123 0.001995
128 0.0
124 0.002991
123 0.001994
125 0.000998
127 0.002991
132 0.002993
138 0.002993
143 0.002995
149 0.002992
154 0.002992
163 0.001985
169 0.002996
133 0.003008
95 0.003006
73 0.002995
69 0.002971
76 0.002994
93 0.002994
108 0.002993
119 0.00299
124 0.001996
123 0.001995
119 0.001994
119 0.001994
127 0.001995
133 0.001994
140 0.001996
146 0.002008
152 0.00201
160 0.002963
166 0.001977
172 0.002964
159 0.001996
116 0.001995
68 0.001956
54 0.001995
61 0.001995
72 0.001995
84 0.001995
95 0.001995
102 0.000982
102 0.001004
101 0.00103
101 0.001993
105 0.001971
110 0.001993
120 0.001994
127 0.002024
139 0.002016
147 0.001965
155 0.000996
164 0.000997
169 0.001007
135 0.000945
90 0.000994
61 0.000997
52 0.001991
57 0.000998
72 0.000997
86 0.001006
104 0.001022
108 0.001005
107 0.001995
105 0.001997
106 0.001963
112 0.000992
119 0.000997
126 0.001004
133 0.001001
141 0.001002
150 0.000998
157 0.000997
170 0.000997
165 0.000998
128 0.000998
88 0.0
66 0.000998
63 0.000997
75 0.001005
89 0.001
103 0.000998
114 0.000998
118 0.00101
114 0.000998
110 0.000997
113 0.000998
117 0.000998
124 0.000997
131 0.000997
138 0.0
147 0.0
154 0.0
161 0.0
166 0.0
147 0.0
78 0.001003
56 0.000999
55 0.000997
65 0.000998
79 0.0
93 0.001036
105 0.0
109 0.0
107 0.0
104 0.0
105 0.0
110 0.0
121 0.0
128 0.0
137 0.0
144 0.0
151 0.0
157 0.0
166 0.0
164 0.0
127 0.0
82 0.0
55 0.0
47 0.0
61 0.0
75 0.0
93 0.0
103 0.000999
106 0.0
104 0.0
103 0.0
106 0.001025
111 0.000998
122 0.0
131 0.0
138 0.0
149 0.0
157 0.0
168 0.000999
176 0.000998
182 0.001009
151 0.0
105 0.0
76 0.000998
67 0.000997
78 0.0
92 0.0
108 0.0
129 0.0
131 0.0
127 0.001994
122 0.000997
124 0.0
128 0.000997
137 0.0
143 0.0
150 0.000967
156 0.000972
163 0.001011
169 0.000953
178 0.001
167 0.001007
125 0.001004
79 0.001001
69 0.000997
73 0.000978
90 0.0
108 0.0
123 0.000965
131 0.002001
129 0.001001
125 0.001039
126 0.000998
130 0.001049
137 0.000999
145 0.002001
152 0.002
161 0.000999
168 0.001034
175 0.000991
182 0.002032
180 0.001995
141 0.001039
93 0.000998
54 0.000944
60 0.000991
72 0.000997
86 0.002063
101 0.001994
112 0.000997
113 0.000998
111 0.001035
110 0.001996
112 0.001853
121 0.002049
129 0.002044
143 0.000986
149 0.002028
157 0.001995
168 0.002045
177 0.002026
180 0.001043
161 0.002032
98 0.000951
68 0.00202
60 0.002992
71 0.002047
91 0.002991
112 0.00203
122 0.002049
124 0.001997
120 0.003046
117 0.00305
120 0.002038
125 0.001968
132 0.00203
140 0.002992
148 0.002026
158 0.00202
169 0.002994
178 0.003002
178 0.002037
143 0.002025
98 0.003018
72 0.002994
69 0.002065
79 0.002002
94 0.002026
110 0.002033
123 0.002992
127 0.003028
120 0.004023
117 0.004022
119 0.003023
124 0.003046
131 0.003028
141 0.002992
148 0.002992
157 0.002044
165 0.003047
172 0.002987
175 0.003991
146 0.003989
74 0.004045
55 0.004023
58 0.002984
71 0.003011
85 0.003023
100 0.00399
110 0.004028
111 0.003039
107 0.003027
105 0.002014
107 0.003001
112 0.003037
123 0.003975
130 0.004025
140 0.003024
147 0.003026
153 0.003023
161 0.003991
166 0.004021
135 0.003039
86 0.003024
51 0.003028
38 0.004987
43 0.004987
64 0.004021
78 0.004987
90 0.004036
96 0.004039
96 0.00399
93 0.003996
95 0.004023
103 0.002984
110 0.003027
119 0.003035
127 0.004035
136 0.004987
149 0.005016
157 0.004987
168 0.004023
174 0.004046
151 0.004025
102 0.005022
66 0.004013
53 0.004029
62 0.00204
71 0.004029
94 0.005031
110 0.004035
121 0.005055
116 0.00502
112 0.003993
114 0.004047
120 0.00399
127 0.004986
136 0.004987
147 0.004011
155 0.004034
163 0.003989
171 0.005064
180 0.006055
173 0.005036
128 0.005012
87 0.004987
68 0.005014
71 0.004032
85 0.004039
103 0.00502
122 0.004981
136 0.004019
134 0.004033
127 0.004988
123 0.005954
128 0.004986
135 0.006017
144 0.006017
155 0.004979
162 0.005018
169 0.005052
176 0.005984
184 0.004976
186 0.005027
154 0.00505
87 0.004019
55 0.004971
60 0.005054
73 0.005982
91 0.005977
112 0.005043
121 0.005037
122 0.005018
116 0.005984
113 0.005984
118 0.005987
124 0.005023
132 0.005973
144 0.005966
151 0.006021
162 0.005956
170 0.005994
180 0.004988
189 0.005016
181 0.005043
133 0.006023
84 0.006016
55 0.004948
56 0.005029
69 0.005031
97 0.006044
113 0.006016
122 0.006992
123 0.006982
117 0.00601
116 0.005963
120 0.006019
126 0.006026
135 0.006018
143 0.005983
152 0.00603
163 0.005033
176 0.004977
185 0.00602
193 0.006973
196 0.007009
149 0.005998
98 0.006041
70 0.005938
66 0.007028
81 0.007982
97 0.006975
117 0.006048
134 0.006955
138 0.006979
128 0.006028
123 0.006951
122 0.006979
126 0.006987
134 0.007031
144 0.006025
151 0.006021
159 0.006982
167 0.006981
177 0.006021
185 0.006017
141 0.007024
92 0.007031
63 0.006982
59 0.007979
67 0.007947
87 0.007001
106 0.007036
122 0.006977
129 0.006959
126 0.007012
121 0.007028
119 0.007013
129 0.005984
136 0.006937
145 0.006031
153 0.007926
160 0.00793
170 0.007016
177 0.007022
184 0.007029
189 0.007978
161 0.007979
87 0.006937
54 0.00703
48 0.007932
55 0.007925
70 0.007946
96 0.00703
105 0.007937
114 0.007923
112 0.006982
110 0.006982
112 0.007967
116 0.00798
129 0.007011
134 0.006955
149 0.006945
158 0.007025
170 0.007015
180 0.006982
190 0.006963
197 0.007015
161 0.007015
105 0.006972
70 0.00699
59 0.007
65 0.006981
85 0.007906
110 0.005975
125 0.00697
131 0.006994
126 0.007016
122 0.007096
123 0.007
129 0.007014
137 0.006982
144 0.007027
152 0.007013
163 0.007025
173 0.007013
182 0.007057
189 0.00599
186 0.007009
145 0.006981
95 0.005959
66 0.005974
62 0.005968
73 0.006032
89 0.005986
108 0.007016
123 0.007029
129 0.006973
123 0.007008
119 0.006981
122 0.006965
129 0.006951
138 0.007012
146 0.006993
157 0.007024
165 0.006983
172 0.006031
180 0.00603
188 0.006031
181 0.006067
127 0.006015
67 0.005984
51 0.005985
53 0.005984
65 0.006023
80 0.005997
102 0.006033
112 0.00604
115 0.00703
112 0.007004
108 0.007019
112 0.006014
118 0.006034
130 0.005984
139 0.005997
147 0.005983
155 0.006016
164 0.005988
174 0.006004
184 0.005999
190 0.006169
164 0.006031
108 0.005001
54 0.006012
51 0.005028
66 0.00598
82 0.005953
99 0.005986
112 0.006042
119 0.006023
115 0.006015
112 0.005985
114 0.006016
119 0.006018
126 0.006019
141 0.00502
150 0.005984
161 0.006016
168 0.006033
176 0.00607
184 0.006017
192 0.006016
195 0.005031
157 0.00504
103 0.005018
71 0.005986
63 0.005985
79 0.005014
96 0.005031
118 0.005035
129 0.005033
128 0.004988
119 0.006031
113 0.005038
115 0.004926
121 0.003936
128 0.004987
137 0.004987
144 0.004989
156 0.005025
164 0.004977
172 0.004985
181 0.005123
163 0.004971
113 0.005034
72 0.004996
55 0.004988
59 0.004989
72 0.005022
89 0.004017
106 0.003961
120 0.003962
118 0.004032
113 0.004047
113 0.004047
118 0.004988
125 0.005051
134 0.005044
142 0.005041
152 0.005019
159 0.005033
167 0.003991
179 0.004025
185 0.004018
170 0.004048
117 0.003999
59 0.003992
43 0.004026
45 0.00399
57 0.003978
71 0.003992
91 0.00399
102 0.004002
106 0.003991
104 0.004042
105 0.004021
110 0.004026
118 0.004045
130 0.004037
140 0.00399
149 0.003983
159 0.003944
168 0.002995
181 0.003038
189 0.002961
199 0.002937
189 0.004006
134 0.002993
85 0.003995
63 0.00399
64 0.003951
78 0.003988
95 0.004037
114 0.00399
128 0.003995
131 0.003942
125 0.00301
121 0.002992
125 0.002995
133 0.002993
142 0.002953
151 0.002953
162 0.002995
169 0.002905
176 0.002992
183 0.004048
190 0.004064
195 0.004057
168 0.00396
115 0.003927
64 0.001968
63 0.002972
73 0.002995
89 0.003037
108 0.002943
128 0.002995
132 0.003004
127 0.002991
122 0.003027
122 0.003054
128 0.003056
136 0.003028
151 0.003023
161 0.002992
169 0.001994
178 0.002994
187 0.002994
198 0.002052
205 0.001996
184 0.002031
125 0.003005
76 0.001995
53 0.003005
57 0.003027
80 0.003048
96 0.002992
110 0.003038
117 0.001995
117 0.001994
111 0.002041
111 0.002033
115 0.001999
122 0.001995
131 0.001992
144 0.001997
153 0.000999
168 0.000985
178 0.000997
188 0.000997
198 0.000998
208 0.002006
196 0.001995
139 0.001998
86 0.001995
61 0.001995
59 0.001937
74 0.001996
91 0.001997
120 0.001994
129 0.001992
128 0.001995
122 0.001971
119 0.002001
122 0.000998
130 0.000997
138 0.000998
147 0.001002
155 0.000997
167 0.000998
178 0.000997
189 0.001
199 0.000997
205 0.000997
180 0.001998
124 0.002034
74 0.002037
65 0.000997
71 0.001022
85 0.000997
103 0.000997
126 0.000998
135 0.000998
129 0.000984
121 0.000997
120 0.000998
125 0.000997
132 0.0
141 0.000997
153 0.0
161 0.0
169 0.0
177 0.001
186 0.0
195 0.000998
159 0.0
86 0.001002
57 0.000996
51 0.000998
59 0.000998
74 0.000965
97 0.001004
112 0.000996
120 0.0
118 0.0
112 0.0
111 0.0
116 0.0
126 0.0
135 0.0
144 0.0
153 0.0
162 0.0
174 0.0
184 0.0
194 0.0
186 0.0
137 0.0
63 0.0
52 0.0
61 0.001004
76 0.00098
100 0.0
111 0.000998
123 0.0
121 0.00097
116 0.000993
114 0.0
117 0.0
123 0.0
138 0.0
149 0.0
158 0.000992
167 0.000995
179 0.0
188 0.0
197 0.0
188 0.001024
138 0.000998
77 0.0
63 0.000968
63 0.000977
87 0.0
106 0.0
123 0.001031
131 0.0
124 0.0
116 0.0
114 0.0
117 0.001045
123 0.001039
135 0.0
143 0.0
151 0.0
165 0.0
173 0.0
183 0.0
178 0.001029
134 0.000998
72 0.00101
52 0.000998
52 0.001054
62 0.001995
79 0.000985
102 0.0
115 0.0
118 0.0
112 0.0
111 0.0
113 0.001047
120 0.001995
131 0.0
140 0.000998
148 0.001001
157 0.002036
166 0.001984
176 0.00097
187 0.001995
161 0.000998
102 0.000998
58 0.001007
39 0.00202
39 0.002017
55 0.0
70 0.0
86 0.001047
98 0.001996
102 0.001995
98 0.000997
97 0.001995
102 0.000998
109 0.001012
118 0.001048
127 0.001995
138 0.002027
151 0.000996
161 0.001002
171 0.001013
181 0.002043
190 0.001995
163 0.001997
90 0.003043
54 0.002036
52 0.001995
63 0.00203
79 0.001995
98 0.001995
119 0.002009
125 0.000984
122 0.000995
116 0.001992
115 0.001996
122 0.00099
133 0.002039
144 0.002044
153 0.001047
163 0.002033
172 0.003038
181 0.002993
194 0.001953
202 0.001013
185 0.001948
131 0.002992
85 0.002992
64 0.002046
73 0.002992
95 0.001998
115 0.001995
132 0.002036
138 0.002033
134 0.002992
125 0.00399
123 0.001996
127 0.002041
135 0.001985
144 0.002961
153 0.002992
169 0.00304
178 0.003041
190 0.00204
200 0.001981
202 0.002039
163 0.003024
103 0.002992
58 0.002031
53 0.00303
62 0.002992
78 0.004039
96 0.003989
123 0.002995
128 0.003989
121 0.002028
117 0.002014
117 0.002941
123 0.002992
130 0.00304
141 0.002011
151 0.002938
159 0.002967
168 0.004065
177 0.00399
194 0.004023
199 0.004002
147 0.002031
89 0.003031
56 0.003062
49 0.003994
57 0.004043
78 0.00299
97 0.003042
116 0.003005
126 0.00402
126 0.003989
118 0.003949
119 0.004023
127 0.003027
135 0.003025
145 0.001996
155 0.004023
164 0.005031
176 0.004022
186 0.002999
195 0.003989
206 0.003989
206 0.00402
122 0.004022
78 0.004025
61 0.002988
70 0.003024
86 0.003011
106 0.004025
127 0.005007
142 0.003022
138 0.00399
128 0.003996
122 0.004987
125 0.003024
133 0.004991
141 0.005023
153 0.003942
162 0.004037
171 0.003967
181 0.004973
190 0.00502
188 0.00402
140 0.003989
86 0.00399
58 0.005984
58 0.002994
73 0.004042
92 0.004986
112 0.004987
130 0.003986
130 0.003971
123 0.003988
119 0.004999
120 0.004979
127 0.00402
136 0.004031
145 0.004039
159 0.004026
168 0.004972
176 0.005984
186 0.005998
197 0.003971
179 0.003959
118 0.00399
66 0.005019
42 0.005985
42 0.003986
54 0.004004
71 0.005052
99 0.005031
109 0.00499
110 0.006014
108 0.00599
107 0.005036
111 0.005005
119 0.004989
128 0.005981
139 0.005983
152 0.004986
163 0.005065
173 0.005014
191 0.00503
201 0.004993
187 0.00599
130 0.00695
67 0.004959
53 0.004935
58 0.005062
71 0.00697
89 0.006983
116 0.004983
128 0.004994
128 0.004998
117 0.00501
117 0.004983
121 0.005983
129 0.005984
141 0.004975
150 0.005093
159 0.005019
167 0.007006
176 0.00697
187 0.005982
192 0.005995
168 0.006025
81 0.005033
57 0.00499
55 0.005974
65 0.006014
87 0.004974
107 0.004981
122 0.004986
127 0.006969
122 0.006976
115 0.005987
116 0.006015
121 0.005973
135 0.005997
145 0.004985
153 0.006982
161 0.006969
169 0.006982
181 0.006018
190 0.005974
189 0.005988
145 0.006984
87 0.006965
46 0.005993
42 0.00598
62 0.005977
78 0.007002
96 0.005987
107 0.006986
110 0.006981
104 0.006946
102 0.006997
104 0.006976
111 0.00794
122 0.007978
131 0.007013
146 0.007974
155 0.005969
163 0.005963
172 0.005984
181 0.007014
190 0.006978
194 0.005978
153 0.006982
92 0.007079
57 0.007978
46 0.007944
57 0.007015
80 0.007939
107 0.006972
121 0.006932
125 0.006966
120 0.007945
114 0.007943
115 0.006015
121 0.006014
132 0.006942
141 0.008017
151 0.008021
160 0.006941
172 0.007948
183 0.006996
192 0.00698
201 0.007005
210 0.007946
206 0.007948
136 0.006975
86 0.006978
63 0.00702
69 0.007013
84 0.007014
112 0.00701
140 0.008014
147 0.006983
141 0.006976
129 0.006968
123 0.007941
123 0.007931
133 0.007006
142 0.007018
150 0.007019
159 0.006986
167 0.006978
178 0.007015
189 0.007013
198 0.006981
173 0.007011
113 0.007016
69 0.007013
52 0.007013
53 0.006975
71 0.006969
91 0.007021
112 0.007027
126 0.006984
128 0.006015
117 0.006983
114 0.007045
118 0.00702
126 0.007018
135 0.006977
144 0.007016
152 0.007017
163 0.007018
171 0.00698
179 0.007056
189 0.007032
191 0.006019
109 0.005985
59 0.006035
34 0.00602
38 0.005985
51 0.006018
68 0.006015
86 0.007027
104 0.007029
107 0.007013
102 0.007036
99 0.00602
101 0.005986
112 0.006058
121 0.005984
134 0.006014
144 0.005984
152 0.006011
161 0.005983
171 0.006015
183 0.005984
188 0.006022
156 0.006018
98 0.00502
61 0.005985
50 0.004925
62 0.005036
84 0.005022
103 0.005991
116 0.005983
119 0.006017
113 0.006017
107 0.00595
108 0.005984
114 0.006033
121 0.006032
129 0.006018
141 0.005036
146 0.00499
155 0.004994
163 0.005021
171 0.005021
166 0.004983
125 0.005034
70 0.006021
55 0.006019
58 0.006018
70 0.005964
98 0.006032
114 0.005029
122 0.005022
117 0.005036
112 0.005041
112 0.005029
116 0.00501
122 0.005023
133 0.005025
141 0.005023
147 0.005035
154 0.004955
165 0.004988
172 0.005016
178 0.005026
180 0.004987
128 0.004985
80 0.005034
55 0.005008
51 0.005035
59 0.004977
77 0.005037
91 0.005034
104 0.004987
110 0.004049
107 0.004024
105 0.004008
107 0.003991
115 0.004038
122 0.004033
130 0.003986
138 0.005069
146 0.005018
155 0.005041
162 0.004988
169 0.004973
180 0.004984
187 0.004094
173 0.004021
123 0.00402
72 0.00398
61 0.003991
67 0.004025
81 0.004032
97 0.003975
118 0.004005
127 0.004046
127 0.004028
117 0.004056
116 0.004038
120 0.004014
126 0.00399
136 0.003026
143 0.003043
149 0.002931
155 0.003
160 0.00399
166 0.003991
170 0.004049
176 0.004002
155 0.00399
109 0.00404
75 0.003995
66 0.002999
76 0.003991
91 0.003986
108 0.002991
123 0.003005
131 0.003007
126 0.002994
120 0.002996
117 0.003031
123 0.002992
130 0.002992
137 0.002902
144 0.00399
151 0.002995
156 0.003031
162 0.002994
166 0.002995
172 0.003041
177 0.003002
163 0.002992
114 0.003006
57 0.003025
53 0.002991
62 0.00301
75 0.003046
89 0.002995
105 0.00295
110 0.003009
109 0.003025
104 0.002994
103 0.002999
107 0.001995
113 0.002981
125 0.00198
133 0.001995
140 0.001995
148 0.001995
154 0.002992
164 0.003028
171 0.002997
177 0.003035
169 0.002993
126 0.002996
75 0.002992
65 0.002992
78 0.002992
93 0.003044
107 0.003043
120 0.002992
125 0.002033
122 0.001995
117 0.002029
117 0.002088
121 0.001994
127 0.002028
136 0.002026
145 0.001995
153 0.001996
159 0.002055
164 0.001996
170 0.002057
176 0.001996
171 0.000995
136 0.000998
97 0.000997
79 0.000998
80 0.001995
95 0.00201
115 0.001995
133 0.002008
137 0.001995
134 0.001995
129 0.002046
127 0.000999
131 0.001037
137 0.000995
144 0.000991
150 0.000998
156 0.001976
163 0.002008
171 0.001997
178 0.002015
183 0.001991
179 0.001037
143 0.001995
100 0.001995
72 0.00195
74 0.001039
84 0.000997
97 0.000997
110 0.000998
121 0.000997
125 0.000999
121 0.000998
119 0.000997
122 0.000997
127 0.000998
134 0.000997
140 0.000997
149 0.0
156 0.0
163 0.0
169 0.0
177 0.0
188 0.000997
185 0.0
133 0.000997
93 0.000997
75 0.000998
77 0.000982
88 0.000997
109 0.0
123 0.0
135 0.0
137 0.0
133 0.0
127 0.0
130 0.0
138 0.0
144 0.0
151 0.0
158 0.0
164 0.0
173 0.0
179 0.000997
186 0.0
194 0.000973
190 0.000996
122 0.000999
88 0.0
77 0.0
86 0.0
101 0.0
119 0.0
138 0.0
142 0.0
138 0.00099
131 0.0
129 0.0
133 0.0
144 0.0
152 0.0
159 0.000974
165 0.001003
172 0.000997
179 0.000962
187 0.0
195 0.001994
184 0.001955
138 0.000993
83 0.0
68 0.0
78 0.0
92 0.0
109 0.002042
123 0.001049
132 0.0
129 0.0
125 0.0
124 0.000997
128 0.001045
134 0.000997
144 0.0
154 0.000997
165 0.0
171 0.000998
182 0.0
191 0.000997
200 0.000997
183 0.0
150 0.000998
102 0.000997
74 0.002061
76 0.002039
94 0.0
116 0.002023
136 0.0
143 0.0
140 0.0
135 0.001003
134 0.001066
139 0.0
145 0.001016
153 0.0
160 0.002045
168 0.001996
178 0.000997
188 0.001962
199 0.001009
197 0.00103
159 0.001044
111 0.002056
85 0.001981
82 0.000967
93 0.000954
109 0.001035
128 0.000997
143 0.001995
147 0.000956
139 0.001995
134 0.001017
137 0.001044
143 0.001015
150 0.001995
157 0.001995
166 0.002039
173 0.001014
181 0.002046
189 0.001995
193 0.003044
145 0.000977
87 0.003026
67 0.00095
72 0.001965
86 0.002033
101 0.002028
118 0.001995
131 0.002038
131 0.002025
126 0.000998
123 0.002992
125 0.003046
133 0.000997
143 0.003039
154 0.001017
161 0.001001
169 0.000998
178 0.002033
188 0.001957
191 0.000969
152 0.000995
100 0.002008
68 0.002973
60 0.002992
72 0.00098
93 0.003022
115 0.000996
125 0.001003
126 0.002044
121 0.002047
118 0.003989
119 0.003043
126 0.002
133 0.002012
141 0.001995
148 0.003023
155 0.003033
168 0.002992
176 0.003023
167 0.002047
123 0.002044
81 0.003027
60 0.003041
59 0.003989
76 0.003031
94 0.003014
111 0.001985
122 0.003992
123 0.003989
114 0.003029
113 0.003989
119 0.001999
126 0.001968
134 0.001951
141 0.003018
148 0.003027
157 0.001992
164 0.001998
172 0.001994
168 0.003958
92 0.003025
57 0.003988
45 0.003992
55 0.003023
70 0.002968
87 0.003028
101 0.003987
109 0.004009
108 0.002989
105 0.00297
105 0.003975
109 0.005037
121 0.002991
129 0.004949
137 0.00399
148 0.002989
157 0.002994
165 0.003024
175 0.00399
178 0.004023
125 0.002985
77 0.00398
50 0.002988
46 0.005064
65 0.004034
82 0.004987
98 0.004987
111 0.003006
110 0.003006
106 0.003023
106 0.004026
109 0.004988
118 0.004045
127 0.003992
135 0.004022
142 0.004955
155 0.003039
164 0.004021
172 0.005029
179 0.00501
146 0.002988
98 0.002993
68 0.001984
58 0.005021
64 0.005044
84 0.002991
101 0.00401
115 0.003987
119 0.004033
114 0.003969
111 0.004987
114 0.005042
122 0.003995
131 0.003992
139 0.003987
147 0.005019
154 0.00497
164 0.005015
172 0.004022
180 0.00501
143 0.003978
96 0.004031
65 0.005985
56 0.005984
68 0.003983
82 0.003998
97 0.003995
111 0.00498
118 0.00499
116 0.005002
114 0.005001
115 0.005014
125 0.004935
134 0.005019
142 0.005984
150 0.005978
161 0.003984
168 0.003979
176 0.003965
184 0.005978
193 0.006981
192 0.005036
148 0.004982
96 0.005005
58 0.004986
62 0.004967
75 0.005984
90 0.005992
110 0.004989
118 0.004995
120 0.005017
117 0.005982
115 0.005984
119 0.004984
127 0.005963
135 0.005992
149 0.004989
157 0.004989
165 0.00698
172 0.00599
182 0.004992
190 0.004986
196 0.004972
174 0.005982
123 0.006992
75 0.005974
65 0.005987
81 0.005986
96 0.005972
113 0.006031
125 0.006981
129 0.006965
123 0.006981
117 0.004992
119 0.00594
125 0.004955
133 0.006935
141 0.006976
152 0.005948
163 0.006989
172 0.00597
179 0.005976
187 0.00601
186 0.007975
144 0.007977
94 0.005984
62 0.005984
54 0.006992
63 0.007987
83 0.00796
99 0.005979
116 0.007978
120 0.00598
117 0.00598
114 0.006024
117 0.006983
123 0.006974
134 0.005982
142 0.005989
150 0.006998
158 0.007967
168 0.007948
175 0.006035
185 0.007015
194 0.00701
187 0.005988
140 0.005986
88 0.007957
55 0.008014
55 0.005974
67 0.005975
82 0.006001
103 0.008023
111 0.007925
118 0.006991
114 0.007979
113 0.006984
118 0.006978
125 0.006975
134 0.007979
143 0.007941
153 0.005965
164 0.006974
171 0.006966
178 0.007015
186 0.007016
193 0.006978
194 0.007017
151 0.006979
103 0.006977
77 0.00701
76 0.007014
84 0.007946
110 0.006958
126 0.006981
136 0.006972
136 0.007017
130 0.006985
125 0.006969
129 0.006977
138 0.006992
146 0.00697
151 0.006994
159 0.006988
166 0.007055
172 0.007016
180 0.007014
188 0.006981
192 0.006964
173 0.006854
127 0.007014
78 0.007013
76 0.007018
91 0.006938
101 0.006962
122 0.006028
133 0.006085
137 0.006016
132 0.006982
129 0.006984
130 0.007022
135 0.006955
142 0.007016
154 0.007014
160 0.006984
170 0.005987
177 0.00698
183 0.006984
189 0.006019
194 0.006016
200 0.006017
180 0.006022
127 0.006022
84 0.006029
66 0.006015
73 0.006034
85 0.006016
102 0.006018
114 0.005033
120 0.005971
119 0.006062
115 0.006018
115 0.005984
119 0.00595
125 0.006024
133 0.006032
146 0.006023
153 0.006016
160 0.005954
168 0.005962
175 0.006031
182 0.0061
189 0.004986
183 0.004957
126 0.005022
85 0.006032
68 0.006016
70 0.005982
90 0.005985
106 0.005963
120 0.006013
128 0.006016
124 0.006034
118 0.004977
117 0.005022
121 0.005097
129 0.004954
136 0.00499
144 0.004981
151 0.005028
161 0.004987
166 0.005017
171 0.005025
178 0.00498
180 0.005037
154 0.00502
109 0.005017
76 0.004987
66 0.005019
76 0.005034
91 0.005022
108 0.00497
128 0.004989
129 0.004992
122 0.004989
117 0.004986
119 0.005035
124 0.004989
131 0.005031
138 0.004989
145 0.003991
153 0.005036
159 0.004024
165 0.00404
175 0.003991
181 0.004037
171 0.004024
126 0.003991
69 0.003035
53 0.004977
56 0.00505
67 0.005052
81 0.005024
100 0.003958
109 0.004039
111 0.003479
104 0.00399
104 0.004938
108 0.004938
115 0.004926
124 0.003324
131 0.003988
138 0.003993
145 0.003993
152 0.003958
161 0.003992
168 0.002962
174 0.003968
132 0.003957
85 0.003905
58 0.004042
52 0.004058
65 0.00402
80 0.00399
96 0.004025
109 0.00406
115 0.003991
111 0.00403
108 0.004023
109 0.004048
118 0.002992
126 0.002993
133 0.004031
140 0.003028
150 0.003991
156 0.002992
163 0.002985
170 0.002992
177 0.003019
163 0.003039
117 0.002993
77 0.003027
60 0.003024
69 0.003018
85 0.002946
103 0.003991
122 0.004067
125 0.002992
120 0.003008
113 0.002939
113 0.002992
117 0.002992
126 0.002988
137 0.002971
148 0.00299
155 0.002984
161 0.003025
169 0.002992
176 0.003971
176 0.001996
138 0.001995
88 0.002934
58 0.002999
51 0.002992
64 0.002992
85 0.002982
107 0.003025
116 0.003024
116 0.002977
112 0.00297
109 0.002992
112 0.002992
119 0.002981
127 0.002978
135 0.001995
143 0.001995
153 0.002021
162 0.002993
171 0.00303
178 0.002048
184 0.002022
178 0.002049
130 0.001995
64 0.002993
41 0.001998
41 0.001997
52 0.002078
66 0.001997
85 0.002994
98 0.002032
98 0.002044
95 0.001995
95 0.002023
98 0.001996
104 0.001996
116 0.002008
124 0.001999
132 0.001995
140 0.001
148 0.001995
157 0.000999
166 0.000998
176 0.000997
183 0.000997
172 0.001946
122 0.002067
74 0.002001
46 0.001995
49 0.001994
62 0.002038
77 0.001996
93 0.000998
108 0.001
109 0.001022
104 0.001024
104 0.000998
109 0.000998
117 0.000941
125 0.001006
136 0.000997
145 0.000997
153 0.001995
160 0.001982
166 0.002004
172 0.001996
183 0.001025
191 0.000999
171 0.000998
120 0.001014
83 0.000992
70 0.000998
75 0.000997
94 0.00096
111 0.000995
127 0.000997
135 0.000998
132 0.0
122 0.0
121 0.0
128 0.0
136 0.0
144 0.0
150 0.0
157 0.000997
166 0.000997
172 0.00098
178 0.000984
184 0.001029
191 0.000997
159 0.0
112 0.0
76 0.0
74 0.0
84 0.0
99 0.0
115 0.0
133 0.0
137 0.0
133 0.0
128 0.0
130 0.0
136 0.0
143 0.0
153 0.0
160 0.0
167 0.0
173 0.0
180 0.000998
188 0.001043
194 0.0
200 0.000956
201 0.000963
131 0.000983
86 0.001002
65 0.00098
70 0.0
81 0.001961
95 0.0
114 0.000975
123 0.0
125 0.001048
122 0.000998
120 0.0
123 0.001006
134 0.0
143 0.0
151 0.0
160 0.001067
167 0.001045
177 0.0
184 0.0
190 0.0
197 0.001082
203 0.000998
188 0.000997
137 0.0
83 0.000998
73 0.0
82 0.0
97 0.0
114 0.002054
131 0.002032
141 0.0
137 0.0
131 0.0
127 0.002042
130 0.001051
138 0.0
148 0.001
157 0.0
163 0.0
169 0.0
176 0.000997
182 0.002
191 0.0
196 0.0
172 0.000996
121 0.001036
82 0.002023
67 0.0
79 0.002022
102 0.0
119 0.0
133 0.0
136 0.001043
133 0.001036
125 0.0
126 0.0
132 0.0
139 0.001943
147 0.001965
158 0.000946
168 0.001995
177 0.0
184 0.002008
190 0.001046
196 0.002
203 0.002058
176 0.000997
116 0.000966
69 0.001001
49 0.002024
50 0.002993
68 0.001964
89 0.002993
108 0.000956
115 0.001985
115 0.002001
110 0.001994
109 0.001995
114 0.001999
121 0.002028
130 0.00099
140 0.001995
149 0.002041
162 0.000979
174 0.002992
185 0.000984
193 0.000992
201 0.000948
207 0.001995
189 0.002026
111 0.001019
69 0.002
55 0.002015
61 0.001995
76 0.002098
101 0.002009
124 0.002994
133 0.001991
129 0.000996
122 0.001989
121 0.002041
126 0.001996
133 0.003051
145 0.002055
154 0.001995
162 0.000999
170 0.003984
183 0.000961
190 0.002997
197 0.002993
199 0.001945
162 0.00199
107 0.001993
73 0.002944
65 0.002992
78 0.002001
97 0.002019
117 0.001032
136 0.003017
145 0.001007
139 0.003028
132 0.00298
132 0.001983
138 0.001961
146 0.001969
155 0.004021
164 0.003989
175 0.002029
183 0.002031
191 0.00199
199 0.002999
210 0.002
188 0.002993
126 0.00399
65 0.003021
52 0.001966
59 0.00196
73 0.003989
90 0.00399
115 0.00199
126 0.002003
127 0.001962
122 0.00402
117 0.001962
122 0.003995
129 0.003989
141 0.002994
151 0.002985
161 0.002978
170 0.00399
179 0.004039
192 0.00304
201 0.002992
206 0.002993
174 0.004022
78 0.002073
56 0.00399
56 0.004987
74 0.002994
93 0.002992
112 0.003009
127 0.004035
131 0.004009
123 0.002994
118 0.002995
118 0.003025
124 0.004023
139 0.003041
148 0.005022
156 0.004024
168 0.002989
176 0.002993
184 0.002988
192 0.005035
192 0.004993
131 0.002987
80 0.002955
57 0.002982
57 0.003004
80 0.002998
100 0.002981
120 0.005015
132 0.004983
130 0.003976
122 0.004037
119 0.004021
121 0.004978
128 0.005024
140 0.002988
149 0.002991
158 0.002993
171 0.00299
179 0.003966
188 0.005984
196 0.005984
170 0.003994
107 0.003992
61 0.003974
44 0.004986
47 0.004976
67 0.002992
85 0.003987
105 0.003986
121 0.003018
118 0.004027
112 0.006015
110 0.005984
115 0.003987
123 0.004065
132 0.003995
142 0.006024
152 0.005989
164 0.003957
173 0.003988
190 0.003972
197 0.004002
173 0.003987
110 0.00602
64 0.005984
48 0.005023
57 0.005018
74 0.004024
94 0.005984
115 0.005951
131 0.003988
129 0.003978
118 0.003978
118 0.003987
123 0.005015
131 0.006981
140 0.00602
153 0.004988
161 0.004965
170 0.00502
179 0.005983
189 0.005998
201 0.003989
193 0.00398
101 0.005016
64 0.004937
55 0.004925
63 0.006979
79 0.006981
107 0.004993
126 0.005024
136 0.004946
132 0.006965
122 0.006982
115 0.004956
117 0.004986
131 0.004994
139 0.005975
149 0.005961
157 0.005938
166 0.007015
175 0.006916
188 0.004995
178 0.004924
125 0.005022
73 0.006996
49 0.006982
52 0.004963
72 0.007039
100 0.00596
119 0.006027
128 0.005966
126 0.007018
118 0.007014
114 0.005968
118 0.006031
125 0.005026
134 0.007029
143 0.00698
155 0.004987
167 0.006981
178 0.006027
187 0.005986
193 0.005982
161 0.007979
77 0.00798
42 0.005944
34 0.004954
41 0.006002
57 0.006972
75 0.006985
98 0.00598
110 0.007012
106 0.007025
102 0.007016
103 0.006033
109 0.007979
121 0.007974
130 0.005945
141 0.006046
150 0.005994
159 0.006976
168 0.007975
180 0.005985
192 0.007015
158 0.007014
79 0.00698
57 0.006946
45 0.007946
55 0.007979
72 0.006931
99 0.006963
116 0.00698
123 0.007015
121 0.007917
111 0.006963
107 0.007979
113 0.006989
120 0.006975
129 0.007013
137 0.007978
148 0.007016
157 0.006977
165 0.006947
174 0.006971
175 0.00702
131 0.007015
65 0.006973
43 0.007004
49 0.006972
63 0.006981
81 0.006999
106 0.006992
118 0.006983
119 0.007027
111 0.006989
109 0.006962
112 0.006962
120 0.007014
135 0.006953
145 0.007013
154 0.006982
166 0.00695
171 0.006978
183 0.005952
192 0.007025
194 0.007029
132 0.00698
73 0.006994
50 0.006982
39 0.00702
58 0.006986
75 0.007029
93 0.006976
110 0.006031
113 0.006043
109 0.00599
106 0.006004
107 0.007014
116 0.005955
126 0.005935
136 0.006961
146 0.007016
159 0.006982
172 0.007013
181 0.006983
193 0.006068
202 0.006033
208 0.005986
181 0.005987
115 0.006023
60 0.005968
51 0.006033
59 0.005989
75 0.006032
107 0.004989
124 0.004992
129 0.004986
121 0.005036
114 0.004987
112 0.004987
116 0.006028
123 0.005972
135 0.006009
143 0.006028
151 0.006023
158 0.004987
172 0.00601
180 0.004983
189 0.004958
174 0.004989
118 0.00502
70 0.005001
49 0.006018
48 0.005941
65 0.006021
83 0.004983
102 0.004986
117 0.006024
117 0.005985
111 0.006028
108 0.004988
113 0.00595
121 0.004932
130 0.004991
140 0.004993
149 0.005031
158 0.004983
168 0.005026
177 0.005022
185 0.005025
197 0.004989
175 0.004016
113 0.004024
62 0.004026
38 0.005038
41 0.004984
52 0.004989
67 0.005065
84 0.004987
99 0.005033
102 0.005021
98 0.00399
96 0.005037
102 0.004051
110 0.003987
120 0.004022
134 0.004048
143 0.004035
152 0.00404
161 0.003992
170 0.003979
181 0.004004
191 0.00501
191 0.005037
111 0.004988
66 0.004018
49 0.004024
52 0.003976
69 0.003991
86 0.003991
105 0.004026
117 0.003953
120 0.003993
111 0.004035
107 0.004048
113 0.003992
120 0.003991
129 0.003944
136 0.003996
144 0.003993
153 0.003991
160 0.004016
169 0.004035
178 0.003989
182 0.003992
135 0.003992
84 0.00406
51 0.00399
56 0.002992
69 0.00303
88 0.002992
106 0.002996
121 0.003989
120 0.002951
113 0.002989
108 0.002942
110 0.003953
119 0.003988
128 0.003944
143 0.003988
152 0.003962
160 0.003958
168 0.002968
176 0.002994
188 0.003027
190 0.00301
153 0.00396
92 0.003961
53 0.002992
40 0.00301
47 0.002993
65 0.002994
86 0.002983
99 0.002999
104 0.002994
101 0.002995
96 0.002985
97 0.002992
103 0.001994
111 0.002993
120 0.002992
129 0.001995
141 0.002995
153 0.003023
165 0.002995
174 0.002993
183 0.002994
184 0.003049
144 0.003024
71 0.002995
46 0.002943
43 0.002992
52 0.00306
67 0.002992
91 0.002024
109 0.002992
112 0.003031
106 0.003025
103 0.002018
106 0.001995
112 0.002023
124 0.002014
133 0.002079
142 0.002028
150 0.002062
158 0.001996
169 0.002018
179 0.00205
189 0.00198
179 0.001964
131 0.001995
83 0.001998
61 0.000998
62 0.001995
75 0.000998
91 0.001998
109 0.001997
122 0.002005
125 0.001995
115 0.002023
111 0.001996
116 0.002031
123 0.001996
131 0.001995
139 0.000998
150 0.000998
158 0.002028
164 0.002069
172 0.002045
180 0.000998
179 0.001996
118 0.002054
69 0.002984
59 0.002017
65 0.002035
78 0.001004
94 0.000998
116 0.000958
126 0.000998
126 0.000948
120 0.000946
116 0.001023
121 0.000987
127 0.000988
135 0.002033
145 0.001995
152 0.002009
159 0.002015
166 0.00199
173 0.000998
183 0.001025
180 0.0
139 0.0
87 0.000997
54 0.000998
58 0.000998
71 0.000997
92 0.000997
107 0.001007
116 0.000998
117 0.000998
113 0.000967
109 0.0
112 0.000998
118 0.0
125 0.0
138 0.0
145 0.0
152 0.0
162 0.0
169 0.0
176 0.0
176 0.0
142 0.000999
79 0.000997
59 0.0
60 0.0
70 0.0
97 0.0
112 0.0
121 0.0
117 0.0
110 0.0
107 0.0
109 0.0
116 0.0
125 0.0
133 0.00099
143 0.0
149 0.0
159 0.000997
166 0.0
164 0.0
125 0.0
79 0.001046
52 0.000993
55 0.0
67 0.000968
83 0.002039
100 0.001995
117 0.0
120 0.0
112 0.0
112 0.0
115 0.0
122 0.00206
129 0.002019
138 0.001981
148 0.0
154 0.0
162 0.0
168 0.001032
175 0.002027
184 0.0
163 0.002029
90 0.0
56 0.0
47 0.0
54 0.002047
67 0.001996
88 0.0
103 0.0
112 0.001942
113 0.002028
111 0.002036
109 0.0
115 0.002059
124 0.0
133 0.000952
142 0.0
150 0.00103
159 0.000998
170 0.0
177 0.0
184 0.0
191 0.002032
197 0.002039
173 0.0
98 0.001964
63 0.0
63 0.0
75 0.0
92 0.001993
111 0.001962
131 0.0
135 0.0
130 0.0
122 0.002033
121 0.001963
126 0.0
135 0.001989
146 0.001983
152 0.0
159 0.002003
165 0.002029
172 0.002046
181 0.001989
189 0.002021
191 0.001984
159 0.002992
106 0.00299
66 0.002992
71 0.002993
90 0.002015
108 0.001991
127 0.001965
140 0.001995
142 0.00302
133 0.0
129 0.002031
131 0.001945
136 0.002022
144 0.002995
158 0.002992
166 0.003021
176 0.002012
183 0.001993
192 0.001028
199 0.002999
207 0.002993
198 0.002992
124 0.001994
76 0.001988
57 0.002015
58 0.002992
82 0.001995
100 0.002992
117 0.003007
130 0.000958
130 0.000997
124 0.000955
122 0.003009
125 0.002973
135 0.000998
144 0.000995
154 0.001992
164 0.002998
179 0.001996
189 0.003989
197 0.004024
211 0.001993
218 0.001993
192 0.001997
128 0.003029
81 0.002992
63 0.000996
72 0.000993
88 0.001995
109 0.003989
142 0.002
149 0.003989
143 0.003989
132 0.001963
130 0.002015
134 0.001967
142 0.004027
151 0.00399
162 0.002939
170 0.002913
177 0.002954
184 0.003989
200 0.001959
202 0.004037
166 0.004038
93 0.002019
69 0.001984
68 0.003013
80 0.004027
98 0.003989
129 0.001979
148 0.001035
155 0.001967
149 0.004068
137 0.003
138 0.00399
144 0.00403
155 0.001972
165 0.002997
174 0.002019
183 0.003989
191 0.00399
204 0.001996
213 0.003005
212 0.002947
164 0.004987
67 0.003013
50 0.005017
53 0.005007
73 0.002998
93 0.002992
113 0.002987
128 0.002997
131 0.004028
125 0.004034
117 0.003057
117 0.002972
123 0.002997
138 0.002988
148 0.002975
157 0.005991
167 0.004986
180 0.003011
190 0.002994
201 0.003999
201 0.005955
155 0.006083
76 0.003982
52 0.003958
60 0.003998
78 0.003999
100 0.003973
123 0.005057
138 0.005018
136 0.003037
127 0.002988
121 0.002987
123 0.00402
129 0.00604
140 0.00398
149 0.00399
165 0.004001
174 0.003995
184 0.004037
194 0.005984
204 0.004986
182 0.003982
119 0.003994
73 0.003973
57 0.00604
61 0.005984
83 0.003991
106 0.004016
142 0.003987
147 0.003971
138 0.003977
127 0.006019
122 0.005997
125 0.003988
133 0.003978
142 0.003988
151 0.006016
160 0.007038
171 0.004952
180 0.004998
186 0.003972
139 0.004972
81 0.003959
50 0.006015
44 0.006997
59 0.004973
79 0.004002
101 0.005
120 0.006981
129 0.007014
121 0.004987
113 0.004996
114 0.004992
121 0.004998
130 0.00398
140 0.006031
149 0.005983
158 0.006981
171 0.004988
181 0.005
190 0.004994
172 0.006984
108 0.00703
46 0.005
35 0.007974
49 0.006002
68 0.005015
88 0.00504
107 0.006976
115 0.007014
111 0.005001
105 0.004992
104 0.004992
109 0.006981
117 0.006982
131 0.005979
144 0.007966
158 0.005991
168 0.005935
179 0.006005
190 0.007978
186 0.006977
114 0.006055
65 0.006977
46 0.006951
50 0.006982
64 0.007014
92 0.005968
122 0.007952
134 0.00593
126 0.005946
116 0.005958
113 0.007982
115 0.007979
125 0.005935
134 0.005965
143 0.005996
155 0.007978
166 0.007977
176 0.005985
183 0.007929
125 0.006986
72 0.006001
48 0.006022
49 0.007964
58 0.007979
82 0.005969
104 0.005953
121 0.005991
125 0.007978
120 0.007979
111 0.005972
115 0.007048
122 0.005983
132 0.005983
142 0.006944
154 0.006989
163 0.006981
172 0.005981
181 0.006982
178 0.006983
128 0.007968
55 0.007985
30 0.007979
39 0.007012
53 0.005983
76 0.00696
87 0.006963
100 0.006961
99 0.007014
95 0.007014
94 0.006982
100 0.00599
105 0.006997
117 0.006983
134 0.005953
144 0.007014
154 0.006043
168 0.006947
177 0.006973
160 0.006993
103 0.007008
57 0.006962
38 0.006932
41 0.006964
55 0.006989
78 0.00698
102 0.006966
112 0.006016
108 0.005952
102 0.005945
103 0.005997
109 0.005955
118 0.005981
126 0.006956
139 0.006975
148 0.006983
157 0.006946
167 0.00592
180 0.005989
152 0.005957
97 0.005985
54 0.005952
50 0.005982
60 0.005984
77 0.006016
98 0.006015
121 0.00594
126 0.006017
120 0.005915
113 0.005985
115 0.006019
122 0.005984
131 0.005986
143 0.005984
151 0.00602
159 0.005954
166 0.005017
174 0.005018
185 0.005934
170 0.005984
115 0.005032
70 0.005985
52 0.005989
62 0.006017
77 0.006024
102 0.005956
117 0.005921
123 0.005992
120 0.005986
115 0.004974
114 0.005985
120 0.006022
128 0.006006
136 0.005023
151 0.004991
159 0.005023
168 0.004996
178 0.005022
190 0.004939
196 0.004987
168 0.004989
108 0.004988
70 0.005022
59 0.005021
68 0.004
83 0.004987
112 0.005041
126 0.004972
130 0.004981
125 0.004988
119 0.004988
120 0.004997
126 0.004957
134 0.004989
143 0.004987
154 0.004988
162 0.004015
171 0.003992
184 0.004004
193 0.004146
190 0.00399
147 0.003989
82 0.004987
65 0.004989
68 0.004937
81 0.003972
99 0.004947
125 0.004995
137 0.004986
134 0.004986
126 0.004048
124 0.003991
128 0.003989
135 0.003988
146 0.004987
154 0.003989
162 0.003988
169 0.003989
177 0.003003
188 0.005014
197 0.003024
159 0.003061
100 0.002993
66 0.002994
57 0.003016
65 0.003991
86 0.003992
103 0.003967
120 0.003939
130 0.003992
130 0.003991
123 0.003952
121 0.003939
128 0.003956
137 0.00396
146 0.003006
156 0.003023
166 0.002992
178 0.002975
188 0.003026
197 0.003034
206 0.003026
207 0.004036
163 0.003991
85 0.00402
60 0.002992
70 0.003028
86 0.002953
106 0.002994
126 0.003025
138 0.003025
137 0.002957
130 0.002994
125 0.002978
127 0.002994
132 0.004016
143 0.002992
155 0.002026
166 0.002065
174 0.003039
183 0.003031
192 0.003027
200 0.002992
191 0.002991
137 0.00298
85 0.001996
64 0.002995
65 0.003022
84 0.002051
112 0.001995
138 0.001995
146 0.001995
141 0.003044
131 0.002029
126 0.002004
130 0.002055
137 0.002994
146 0.002012
155 0.002994
164 0.002048
174 0.003043
186 0.002992
198 0.001989
201 0.001997
163 0.003028
101 0.002003
63 0.002029
55 0.002032
67 0.00205
84 0.001996
105 0.001997
125 0.002002
138 0.002083
132 0.002051
125 0.001986
126 0.001995
131 0.002027
139 0.00203
148 0.002946
161 0.002046
169 0.001996
179 0.000999
188 0.00196
197 0.001982
209 0.001025
177 0.001006
90 0.000997
55 0.000997
48 0.001988
58 0.002013
74 0.001983
102 0.001995
122 0.001999
133 0.00196
134 0.002048
127 0.000999
124 0.002033
128 0.001995
136 0.002019
150 0.002
160 0.000999
170 0.000999
180 0.000997
190 0.000996
204 0.000997
214 0.000998
217 0.000964
174 0.002072
76 0.000965
59 0.000998
64 0.0
86 0.0
108 0.0
133 0.0
150 0.0
152 0.000997
139 0.000999
132 0.000997
132 0.000997
138 0.001111
153 0.0
162 0.000998
171 0.0
181 0.0
188 0.0
196 0.0
205 0.0
208 0.0
146 0.0
87 0.0
60 0.0
58 0.0
83 0.0
106 0.0
130 0.0
148 0.0
145 0.0
136 0.0
128 0.000984
129 0.001004
138 0.0
147 0.0
156 0.0
166 0.0
181 0.0
189 0.0
199 0.0
208 0.0
174 0.0
103 0.0
56 0.0
41 0.001009
50 0.001003
67 0.00205
94 0.000951
113 0.000951
122 0.00097
116 0.000948
110 0.0
110 0.002029
115 0.000935
126 0.000994
136 0.000975
145 0.000959
155 0.002029
165 0.002029
176 0.002984
191 0.0
194 0.002036
121 0.0
66 0.0
43 0.0
44 0.002039
58 0.002051
86 0.00099
110 0.000999
129 0.000961
133 0.001997
126 0.002961
116 0.0
117 0.002051
127 0.0
137 0.000966
147 0.0
156 0.002049
167 0.002049
180 0.0
191 0.0
199 0.0
170 0.002048
107 0.002029
58 0.0
56 0.002042
77 0.0
99 0.000944
123 0.000967
139 0.00203
139 0.002045
124 0.0
117 0.000996
117 0.0
122 0.002054
131 0.001994
144 0.0
156 0.00201
168 0.0
178 0.0
185 0.0
157 0.002019
97 0.002034
48 0.0
42 0.0
52 0.0
69 0.001996
91 0.002016
121 0.001995
125 0.002029
113 0.0
107 0.0
109 0.0
115 0.002066
123 0.002063
136 0.0
145 0.002014
154 0.000998
163 0.002986
173 0.002992
172 0.003018
117 0.002956
46 0.0
27 0.002045
30 0.001012
42 0.002054
60 0.003046
84 0.001004
96 0.001984
101 0.002006
97 0.002993
93 0.002991
98 0.0
106 0.003035
115 0.003007
128 0.001975
138 0.002
149 0.00198
159 0.003024
171 0.002996
178 0.002014
142 0.002001
81 0.001994
44 0.002991
39 0.002026
53 0.003023
72 0.002992
100 0.001993
114 0.001995
114 0.001985
107 0.003055
102 0.002993
104 0.002983
112 0.001785
121 0.002029
131 0.003991
147 0.001995
157 0.003989
167 0.003989
180 0.001994
179 0.000997
134 0.001996
77 0.002992
46 0.002981
44 0.001995
57 0.0
76 0.002
99 0.003989
122 0.001982
120 0.004022
112 0.004023
107 0.002969
112 0.002013
120 0.001988
130 0.004023
140 0.003024
153 0.001994
162 0.002002
171 0.002969
180 0.003983
190 0.001988
149 0.003987
84 0.004042
40 0.00199
37 0.001993
48 0.001989
66 0.003979
86 0.003989
110 0.002019
117 0.001977
114 0.00299
109 0.005019
108 0.00301
115 0.004996
124 0.004985
138 0.001942
148 0.001986
157 0.002043
167 0.00399
177 0.00403
189 0.001995
198 0.002974
183 0.002998
120 0.003017
46 0.002988
40 0.002957
51 0.005058
69 0.004981
98 0.003011
118 0.001996
129 0.003005
128 0.004972
120 0.004986
118 0.002976
122 0.002976
139 0.002991
149 0.001995
160 0.002992
170 0.005021
180 0.006007
193 0.002986
202 0.003982
212 0.003025
220 0.005042
214 0.005022
132 0.002987
78 0.002975
59 0.002989
72 0.002987
93 0.002993
118 0.004993
142 0.005982
155 0.003979
147 0.003971
134 0.003027
128 0.005974
130 0.005984
140 0.002988
150 0.003991
167 0.002965
175 0.002969
184 0.004004
193 0.005955
203 0.005986
216 0.003998
201 0.003956
138 0.004987
80 0.005956
57 0.005985
63 0.003994
80 0.003999
122 0.00396
145 0.003989
156 0.004032
153 0.006015
143 0.006967
137 0.003965
140 0.003988
148 0.00396
159 0.006017
169 0.006052
183 0.003834
193 0.004
210 0.002985
220 0.00399
163 0.003993
232 0.005969
183 0.006998
82 0.00402
48 0.00401
44 0.003995
55 0.00601
75 0.005984
106 0.004004
129 0.003997
143 0.004003
137 0.004985
130 0.005014
129 0.004978
134 0.006961
143 0.006979
158 0.004974
170 0.005992
182 0.00497
198 0.007954
205 0.007015
219 0.005952
233 0.006995
225 0.004944
156 0.005007
83 0.004988
54 0.00699
51 0.006982
71 0.004965
96 0.004995
123 0.004937
146 0.007029
157 0.006981
147 0.004987
133 0.006983
132 0.004943
140 0.004988
149 0.004988
158 0.00698
168 0.008002
180 0.00499
190 0.005035
199 0.00499
210 0.006981
216 0.00698
154 0.005995
60 0.007964
48 0.005983
56 0.005985
75 0.005996
109 0.00795
135 0.007015
150 0.006946
152 0.004994
142 0.004907
134 0.007978
133 0.007974
140 0.005983
157 0.007978
168 0.005986
178 0.005983
188 0.005984
198 0.00795
208 0.007948
222 0.005985
209 0.006014
136 0.005952
51 0.007014
32 0.006997
46 0.006964
66 0.00794
91 0.006001
114 0.005984
128 0.005979
130 0.007979
122 0.007931
113 0.006004
115 0.005978
122 0.005995
132 0.00793
147 0.007014
166 0.007009
179 0.007024
191 0.006984
207 0.006976
214 0.006963
212 0.005971
125 0.006984
62 0.007034
38 0.005989
43 0.006978
54 0.006975
85 0.007012
121 0.006952
143 0.00701
141 0.007008
128 0.006955
123 0.006951
125 0.006949
133 0.007015
144 0.007014
155 0.006928
169 0.005942
180 0.005981
190 0.006032
204 0.006953
216 0.006987
188 0.006988
95 0.006974
55 0.006985
47 0.006974
57 0.006987
77 0.006982
102 0.006982
137 0.005943
148 0.005953
145 0.007037
124 0.005956
120 0.007016
124 0.007014
132 0.006985
143 0.006974
156 0.006942
166 0.007012
175 0.007014
190 0.005921
197 0.005936
162 0.006024
94 0.005999
37 0.005963
38 0.006031
52 0.005983
82 0.005984
108 0.00599
128 0.005961
134 0.005984
127 0.005985
116 0.005984
114 0.004976
119 0.005001
128 0.004955
145 0.00497
155 0.006006
166 0.006021
179 0.005974
190 0.005989
179 0.005974
116 0.005987
55 0.006036
26 0.005947
31 0.004987
41 0.002995
67 0.004988
105 0.004982
119 0.004989
118 0.004985
111 0.004947
106 0.004989
109 0.004995
116 0.004966
126 0.004989
137 0.006026
152 0.005953
163 0.005954
174 0.004987
191 0.004039
168 0.004007
102 0.005984
53 0.003991
36 0.004936
44 0.004989
61 0.004986
84 0.005013
108 0.005002
125 0.004951
121 0.004946
107 0.005019
106 0.004973
110 0.004987
118 0.004577
127 0.00404
140 0.003995
149 0.003969
160 0.005
171 0.004948
171 0.005044
107 0.004995
58 0.004989
37 0.004987
47 0.004013
64 0.00402
86 0.004002
108 0.003991
122 0.004013
118 0.003991
111 0.003989
108 0.004988
112 0.003015
123 0.003992
133 0.003991
150 0.00399
159 0.00399
169 0.00399
179 0.002993
182 0.003993
116 0.00399
60 0.004991
33 0.003007
30 0.004042
40 0.004022
63 0.003964
82 0.003979
104 0.003988
105 0.003947
100 0.003974
98 0.003991
100 0.003965
109 0.003927
119 0.00399
129 0.00399
140 0.003994
152 0.002993
168 0.004043
180 0.003991
160 0.003024
99 0.003025
55 0.002995
40 0.003918
44 0.002992
58 0.00399
84 0.003961
105 0.003959
118 0.003033
119 0.003023
113 0.003027
108 0.002966
114 0.003039
125 0.00194
136 0.002987
145 0.003997
155 0.004053
166 0.003991
181 0.002027
190 0.00399
177 0.003034
122 0.003056
73 0.002986
51 0.003017
60 0.002983
85 0.002996
108 0.002992
127 0.002992
133 0.002992
127 0.002772
116 0.002992
116 0.002995
122 0.003969
131 0.002989
141 0.00304
155 0.002026
168 0.002026
182 0.001996
193 0.001995
188 0.001995
134 0.001995
78 0.002044
47 0.001995
50 0.002051
63 0.002028
81 0.003005
103 0.003042
126 0.002046
128 0.00203
119 0.002005
118 0.002061
122 0.00202
130 0.001996
139 0.002037
153 0.002047
163 0.002993
173 0.002047
183 0.000985
194 0.000998
204 0.002027
155 0.001995
73 0.001997
50 0.001995
49 0.001985
61 0.002022
80 0.002036
111 0.002029
129 0.001989
134 0.002035
130 0.000999
122 0.000999
123 0.000999
131 0.000997
143 0.002022
152 0.000997
162 0.002043
172 0.001995
182 0.002045
197 0.002994
208 0.001995
198 0.001995
140 0.000997
82 0.0
54 0.000997
62 0.001049
79 0.000983
110 0.000997
131 0.002023
140 0.001991
137 0.001996
127 0.002032
121 0.002034
125 0.0
134 0.000999
144 0.001046
163 0.000997
174 0.000998
185 0.000998
201 0.001003
204 0.001046
162 0.000997
95 0.000998
59 0.001989
51 0.000998
62 0.000998
81 0.000997
105 0.0
139 0.000997
143 0.001007
137 0.000989
129 0.0
130 0.0
137 0.0
147 0.0
157 0.000999
171 0.0
181 0.000988
192 0.0
202 0.0
215 0.0
174 0.000997
97 0.000966
44 0.000997
37 0.0
46 0.0
62 0.0
83 0.0
111 0.0
122 0.0
122 0.0
117 0.0
115 0.0
120 0.0
128 0.0
142 0.0
153 0.000958
164 0.000978
175 0.0
186 0.0
202 0.0
202 0.0
151 0.0
67 0.000996
40 0.0
45 0.0
67 0.0
90 0.002036
115 0.001992
136 0.0
137 0.0
130 0.0
125 0.002989
127 0.002061
137 0.000953
147 0.000964
163 0.002039
178 0.0
189 0.0
201 0.0
212 0.00203
221 0.002029
179 0.0
106 0.0
65 0.000966
56 0.00205
65 0.002045
92 0.0
130 0.00203
158 0.0
161 0.000995
151 0.0
140 0.001995
138 0.001995
144 0.000982
152 0.000965
163 0.0
172 0.002992
180 0.002025
196 0.002992
207 0.002032
190 0.0
126 0.0
74 0.0
55 0.001992
58 0.002031
80 0.0
106 0.0
134 0.0
154 0.002046
157 0.002043
141 0.002025
135 0.002961
139 0.0
147 0.0
157 0.0
168 0.003027
178 0.002983
191 0.0
202 0.001949
211 0.0
179 0.003025
103 0.001963
37 0.002008
35 0.002032
53 0.0
74 0.000958
99 0.0
120 0.001995
128 0.001996
121 0.0
114 0.000975
113 0.000964
117 0.002985
125 0.003053
143 0.002995
154 0.002028
169 0.0
181 0.0
193 0.0
192 0.002038
139 0.002073
55 0.000965
32 0.000994
32 0.0
44 0.003016
64 0.002993
104 0.00304
121 0.003023
122 0.0
116 0.0
114 0.0
116 0.003019
124 0.002998
135 0.002027
150 0.001994
162 0.001995
174 0.002012
186 0.002992
207 0.002989
206 0.002993
151 0.002994
67 0.000966
45 0.001996
47 0.00303
62 0.003991
84 0.002998
121 0.0
142 0.002955
146 0.001991
138 0.002992
125 0.003011
128 0.003037
135 0.003047
149 0.003014
160 0.000981
171 0.002001
182 0.003045
195 0.003007
210 0.003005
201 0.002995
139 0.001984
77 0.004058
49 0.002031
58 0.00398
78 0.003984
116 0.001959
141 0.001992
151 0.004033
149 0.003987
137 0.003024
129 0.001994
133 0.003035
141 0.001996
152 0.00406
170 0.001994
181 0.004018
192 0.004034
207 0.002009
207 0.001984
150 0.00201
78 0.004019
42 0.003991
38 0.002991
51 0.002992
72 0.002996
116 0.003004
133 0.002029
135 0.005016
127 0.004989
117 0.00201
118 0.002003
125 0.00299
134 0.004017
145 0.004071
160 0.001993
172 0.002007
184 0.001994
205 0.002991
199 0.001995
136 0.004989
69 0.004948
37 0.001997
42 0.001988
57 0.001992
80 0.002033
109 0.005036
133 0.004024
143 0.001979
136 0.002
126 0.003008
129 0.00301
136 0.00296
147 0.004963
157 0.004992
170 0.002998
181 0.002993
192 0.003008
204 0.004987
212 0.004986
156 0.002992
87 0.002992
45 0.002992
52 0.002949
70 0.002958
95 0.004999
124 0.004986
148 0.003007
146 0.003021
133 0.00299
123 0.005966
120 0.004997
128 0.002999
138 0.002955
155 0.002981
165 0.003962
175 0.003003
187 0.005983
195 0.006001
139 0.004007
75 0.002991
42 0.002991
37 0.004988
47 0.005016
75 0.002046
102 0.004033
137 0.004003
139 0.00399
130 0.003986
122 0.005981
121 0.005986
129 0.003986
139 0.002991
150 0.002992
160 0.006041
170 0.005991
184 0.004
196 0.002974
152 0.004032
78 0.003007
35 0.003984
24 0.006981
31 0.005967
55 0.004
80 0.003984
104 0.004008
118 0.005998
120 0.006008
112 0.003986
108 0.003973
114 0.004996
124 0.004005
135 0.004971
147 0.006976
158 0.006985
174 0.00399
185 0.003997
196 0.004024
176 0.003973
107 0.005964
55 0.005978
35 0.003029
47 0.006988
75 0.004005
99 0.004982
120 0.005011
127 0.006981
120 0.006982
109 0.003989
108 0.005047
113 0.003989
121 0.00698
131 0.006995
146 0.006986
156 0.007975
171 0.004939
181 0.004985
158 0.004991
98 0.007051
55 0.006975
39 0.004982
48 0.004957
66 0.004989
89 0.006866
114 0.00694
130 0.007017
124 0.00698
115 0.004976
115 0.005988
122 0.005049
131 0.007976
144 0.007938
155 0.004945
164 0.004984
174 0.005955
189 0.007026
183 0.007972
100 0.007006
50 0.006982
30 0.004994
37 0.00597
52 0.006009
81 0.007974
103 0.007965
116 0.004938
116 0.004969
111 0.005995
108 0.007967
112 0.007975
123 0.007979
134 0.007978
148 0.004979
160 0.005995
172 0.006017
184 0.00797
195 0.007976
172 0.004945
104 0.006005
56 0.004936
41 0.007974
45 0.007979
82 0.007978
99 0.007979
126 0.005984
132 0.005984
126 0.005984
116 0.006971
117 0.006982
123 0.005969
133 0.005949
143 0.005978
154 0.007978
167 0.007007
181 0.00597
193 0.007015
176 0.006998
115 0.005969
67 0.005972
48 0.005989
55 0.006979
72 0.006984
95 0.005983
121 0.005985
139 0.005984
138 0.007017
124 0.006981
123 0.007011
128 0.007015
137 0.006969
151 0.006932
158 0.006986
172 0.006978
182 0.006982
192 0.00695
204 0.005971
185 0.005988
94 0.006986
44 0.005983
41 0.006015
54 0.006036
73 0.006983
104 0.006939
122 0.006929
128 0.007025
123 0.007017
116 0.005973
116 0.006981
123 0.006943
132 0.005937
150 0.00602
161 0.005986
172 0.005959
189 0.006018
202 0.005982
208 0.005979
169 0.00601
96 0.006017
47 0.005961
42 0.005984
53 0.005981
71 0.005986
110 0.005989
128 0.006046
133 0.00603
123 0.005991
118 0.005953
119 0.005985
124 0.006017
134 0.006019
147 0.005986
157 0.005013
167 0.00599
184 0.005976
195 0.006087
192 0.006017
139 0.005048
67 0.004956
48 0.004969
50 0.004948
64 0.004999
84 0.004954
117 0.005977
135 0.005991
138 0.005981
125 0.005986
121 0.005983
125 0.005017
133 0.004989
142 0.004982
156 0.004967
166 0.00498
176 0.004983
186 0.004938
197 0.004941
184 0.004985
119 0.004925
49 0.004965
43 0.005024
53 0.004026
70 0.005004
92 0.004992
121 0.004988
131 0.004986
129 0.005022
121 0.004971
118 0.005036
121 0.004991
128 0.004939
144 0.004985
154 0.005018
165 0.004956
175 0.004025
187 0.004004
192 0.00399
145 0.003927
84 0.003992
54 0.004025
49 0.005021
63 0.004989
83 0.004984
122 0.004989
137 0.004999
138 0.004951
130 0.005001
124 0.004005
126 0.003975
132 0.003991
140 0.003956
150 0.003963
159 0.00396
173 0.003991
184 0.003935
200 0.003989
176 0.003976
113 0.004956
70 0.003993
57 0.003994
67 0.00499
85 0.004051
110 0.003987
135 0.003973
147 0.00403
140 0.003991
127 0.003992
121 0.004022
126 0.002989
134 0.003957
144 0.002992
154 0.004036
166 0.002993
177 0.003989
187 0.002996
171 0.002992
114 0.002993
59 0.002992
49 0.003025
65 0.003
86 0.003989
112 0.004029
134 0.003957
142 0.003957
134 0.004023
126 0.003992
124 0.003989
128 0.00399
135 0.00399
144 0.002993
156 0.002996
169 0.003795
182 0.003002
189 0.002982
160 0.004049
94 0.003005
50 0.003026
35 0.003998
43 0.00399
60 0.004001
82 0.002992
105 0.002968
122 0.003036
117 0.002992
110 0.002992
110 0.002992
115 0.003012
122 0.003034
132 0.002994
147 0.003026
158 0.002027
170 0.002022
182 0.002042
189 0.002021
114 0.002032
63 0.001962
40 0.003057
46 0.00203
62 0.001995
85 0.002069
109 0.002041
130 0.003033
129 0.00303
121 0.00302
116 0.003071
117 0.003025
129 0.00203
138 0.002025
151 0.001932
161 0.002079
172 0.002034
183 0.001995
194 0.001988
163 0.001987
101 0.001989
63 0.002036
51 0.001995
58 0.001995
90 0.002028
117 0.001995
143 0.001988
144 0.00199
134 0.00198
125 0.002027
123 0.002035
130 0.002026
139 0.003
149 0.002995
158 0.001993
169 0.000998
185 0.001996
196 0.00114
165 0.001952
101 0.002065
60 0.002036
47 0.002027
54 0.002034
77 0.000947
101 0.001973
126 0.001996
141 0.000999
141 0.000998
126 0.000999
124 0.000976
128 0.002006
138 0.002053
148 0.000997
158 0.002006
167 0.001988
177 0.002028
191 0.002027
201 0.000971
182 0.001013
114 0.000997
45 0.000998
40 0.001996
50 0.000997
76 0.000998
100 0.001991
120 0.001001
131 0.000997
128 0.000966
121 0.0
120 0.0
125 0.0
133 0.0
149 0.0
160 0.0
171 0.0
185 0.000998
198 0.000997
208 0.00094
194 0.001025
130 0.000997
62 0.0
49 0.000997
56 0.0
74 0.0
116 0.0
139 0.0
149 0.0
140 0.0
131 0.0
128 0.0
133 0.0
141 0.0
155 0.000998
165 0.0
175 0.000997
185 0.0
201 0.0
203 0.0
162 0.0
82 0.0
57 0.0
56 0.0
69 0.0
90 0.0
128 0.0
150 0.0
156 0.0
140 0.002047
132 0.0
134 0.000997
140 0.000998
154 0.001059
165 0.001007
178 0.0
188 0.0
199 0.0
210 0.003029
206 0.001987
147 0.002029
55 0.00199
42 0.003025
55 0.0
74 0.0
100 0.0
126 0.001998
141 0.002008
138 0.0
129 0.0
124 0.000959
125 0.001987
132 0.001968
148 0.002992
159 0.001962
173 0.0
183 0.000998
194 0.00099
204 0.002043
185 0.002033
93 0.0
49 0.0
36 0.0
42 0.003029
59 0.004025
98 0.002041
119 0.001989
130 0.0
126 0.0
119 0.0
117 0.002033
122 0.001998
134 0.0
144 0.0
156 0.000973
167 0.003012
178 0.00204
196 0.003008
206 0.00301
171 0.0
100 0.0
56 0.0
43 0.00305
50 0.003034
75 0.0
101 0.000961
126 0.0
140 0.002035
137 0.001994
121 0.002026
119 0.002026
127 0.0
137 0.0
146 0.000999
156 0.001992
166 0.002968
177 0.000981
188 0.0
196 0.0
172 0.002991
108 0.003061
50 0.003026
50 0.003031
70 0.0
94 0.0
123 0.0
144 0.00299
148 0.002042
135 0.0
126 0.0
126 0.000971
132 0.002008
142 0.002027
160 0.0
170 0.003028
180 0.003024
194 0.0
206 0.0
197 0.0
131 0.003065
69 0.002991
39 0.0
43 0.0
59 0.002001
80 0.004
122 0.001993
134 0.003005
131 0.003028
119 0.001986
116 0.002997
119 0.002993
126 0.003014
137 0.003038
152 0.001972
163 0.00199
175 0.001994
195 0.002984
208 0.002029
193 0.003023
125 0.003025
55 0.001991
40 0.001988
47 0.001999
64 0.003967
87 0.003962
121 0.003008
136 0.002007
137 0.002984
123 0.002987
121 0.002037
125 0.002993
134 0.004014
147 0.002091
157 0.002989
168 0.003001
179 0.003924
190 0.003954
206 0.002997
210 0.001975
167 0.002024
65 0.002036
48 0.001992
52 0.004016
68 0.004027
100 0.001993
125 0.002986
141 0.00199
140 0.00402
128 0.004026
117 0.001998
119 0.001992
126 0.002021
144 0.003008
154 0.002991
165 0.004023
176 0.003958
191 0.00199
202 0.003009
183 0.002995
116 0.003978
65 0.005025
45 0.005026
53 0.003956
70 0.002999
113 0.002989
135 0.00206
143 0.003015
138 0.003989
129 0.004022
125 0.002982
131 0.002989
139 0.003017
150 0.005018
161 0.005025
175 0.001996
186 0.002993
203 0.001993
214 0.003022
196 0.001996
121 0.004995
60 0.004992
34 0.001995
39 0.002954
55 0.002956
77 0.005018
102 0.004995
125 0.003005
128 0.003004
117 0.002976
116 0.002996
120 0.003
129 0.004987
140 0.004979
156 0.002991
168 0.001985
180 0.001995
192 0.006019
204 0.005671
219 0.002998
216 0.002978
104 0.002987
58 0.003951
45 0.003989
52 0.005032
70 0.004998
105 0.002945
132 0.002949
147 0.00404
147 0.005985
136 0.00598
126 0.003019
129 0.002989
143 0.00204
154 0.002945
164 0.002963
175 0.005939
184 0.006017
197 0.002998
207 0.002968
215 0.004013
192 0.006018
122 0.005984
60 0.002983
52 0.005985
71 0.00304
95 0.002984
125 0.002992
150 0.005984
158 0.005984
147 0.003986
137 0.003988
133 0.003985
138 0.006975
147 0.006977
162 0.003986
177 0.007
191 0.003998
201 0.003032
211 0.004005
223 0.004018
221 0.005996
160 0.00695
66 0.003988
41 0.003991
41 0.003984
55 0.006955
77 0.007037
122 0.007029
141 0.006982
142 0.004006
132 0.003985
125 0.004987
124 0.006985
131 0.006991
144 0.004968
154 0.003999
166 0.003984
177 0.006981
189 0.006998
207 0.00703
217 0.007013
178 0.003995
99 0.004024
52 0.004008
39 0.007978
50 0.007963
71 0.004938
98 0.004994
126 0.004987
144 0.006947
146 0.00799
130 0.006985
125 0.00793
131 0.00594
140 0.003956
151 0.004988
162 0.007961
173 0.007979
187 0.004962
198 0.004987
210 0.004989
220 0.00798
183 0.007963
87 0.007949
54 0.007977
53 0.004013
68 0.005954
93 0.004987
134 0.007976
154 0.007969
157 0.00595
145 0.004986
131 0.004986
124 0.007962
126 0.007978
146 0.007994
156 0.007964
167 0.005953
177 0.005982
188 0.004991
200 0.007948
193 0.007978
130 0.004985
69 0.00502
44 0.005039
47 0.007975
63 0.007932
108 0.006981
134 0.006968
147 0.006031
144 0.005998
134 0.005981
125 0.006977
128 0.006986
136 0.005044
145 0.00498
155 0.005982
166 0.005988
176 0.007978
194 0.005935
201 0.007952
157 0.007963
81 0.005976
38 0.006937
26 0.005986
37 0.00698
55 0.007013
78 0.006017
102 0.005976
115 0.005984
113 0.00698
104 0.005983
103 0.00697
110 0.007013
119 0.00598
131 0.006032
142 0.005897
160 0.006972
172 0.006966
184 0.005984
195 0.005943
179 0.005981
56 0.005971
39 0.005985
36 0.006002
50 0.005954
78 0.005987
104 0.005937
118 0.006981
127 0.007031
119 0.007017
110 0.006938
109 0.006976
114 0.005982
129 0.005982
140 0.006015
154 0.005982
165 0.005984
180 0.005944
192 0.005982
184 0.005984
128 0.005983
70 0.005982
43 0.005985
44 0.005982
56 0.006982
94 0.005982
127 0.005984
137 0.006019
132 0.006018
118 0.005957
114 0.005961
118 0.005969
127 0.006018
138 0.006016
152 0.005982
163 0.005981
173 0.005952
192 0.006009
196 0.005988
154 0.006015
85 0.00595
41 0.005936
38 0.004987
49 0.004986
67 0.004987
91 0.004987
119 0.006002
126 0.005982
121 0.005971
110 0.005984
111 0.00595
117 0.005964
127 0.005984
138 0.005015
151 0.004996
162 0.004988
172 0.004988
182 0.004962
193 0.005004
169 0.004985
98 0.004956
34 0.003961
30 0.003959
40 0.004944
58 0.005986
79 0.004973
107 0.004987
115 0.004968
112 0.00498
106 0.005008
104 0.004967
111 0.004913
120 0.004987
138 0.004949
150 0.004942
161 0.005008
172 0.004987
184 0.004934
199 0.005071
195 0.005015
140 0.005021
76 0.005077
47 0.004984
44 0.003998
58 0.003948
94 0.003986
118 0.00396
131 0.00396
130 0.004962
120 0.005035
114 0.004957
117 0.005022
125 0.005005
135 0.004992
145 0.004989
158 0.004954
168 0.004954
183 0.003991
193 0.003991
195 0.003962
154 0.00399
91 0.003992
51 0.003961
49 0.003989
60 0.003992
80 0.002954
105 0.003945
134 0.004025
139 0.004022
126 0.003995
120 0.005026
122 0.003006
128 0.002991
138 0.002985
152 0.003977
163 0.00399
172 0.003026
183 0.004001
193 0.003998
206 0.00399
159 0.00399
72 0.004019
45 0.003992
41 0.003996
52 0.003992
69 0.004007
92 0.003999
120 0.003943
129 0.003945
125 0.003995
118 0.004022
115 0.002992
124 0.003018
133 0.003991
148 0.003068
161 0.003041
173 0.002992
186 0.004023
198 0.002992
213 0.002989
202 0.002037
137 0.001994
74 0.00299
49 0.002002
53 0.00295
70 0.002006
100 0.002994
123 0.002024
135 0.004024
133 0.001995
124 0.003028
119 0.003011
123 0.003027
131 0.003024
141 0.00299
151 0.002992
168 0.004003
177 0.003018
191 0.002992
202 0.004022
198 0.004041
144 0.001995
82 0.001993
50 0.001957
51 0.002059
63 0.00204
83 0.002002
108 0.002028
134 0.002036
132 0.002992
119 0.003026
115 0.002999
118 0.002993
125 0.001995
135 0.001995
149 0.002014
159 0.001996
169 0.002068
178 0.001995
190 0.002029
176 0.002034
111 0.001997
52 0.001996
40 0.000998
46 0.002027
60 0.001996
81 0.002017
112 0.00205
125 0.002064
125 0.002027
117 0.002019
112 0.002041
116 0.002017
125 0.002026
138 0.002028
148 0.001992
158 0.002014
167 0.000997
177 0.00203
191 0.001986
176 0.001981
113 0.002031
58 0.001995
35 0.001996
39 0.000999
54 0.001963
74 0.001986
102 0.000998
113 0.00203
112 0.00198
107 0.002028
104 0.002035
109 0.0
117 0.001962
127 0.001041
138 0.000999
156 0.001051
167 0.001052
178 0.000997
191 0.001996
169 0.00197
105 0.00198
60 0.00204
44 0.000998
50 0.001
66 0.000997
87 0.000997
121 0.001018
125 0.001002
118 0.002043
110 0.001011
111 0.000999
117 0.0
125 0.000997
135 0.0
144 0.0
157 0.0
167 0.0
177 0.0
174 0.000997
120 0.000961
71 0.000997
49 0.001014
51 0.000997
65 0.000997
86 0.000952
110 0.0
127 0.0
129 0.0
120 0.0
116 0.0
122 0.0
130 0.0
140 0.0
150 0.0
163 0.0
173 0.000998
183 0.0
194 0.000997
188 0.0
108 0.000998
60 0.000997
41 0.0
49 0.0
65 0.000993
86 0.001007
106 0.0
120 0.0
116 0.0
111 0.0
110 0.0
113 0.0
124 0.0
134 0.003074
149 0.001005
164 0.003034
179 0.0
191 0.0
199 0.0
172 0.000996
106 0.002993
60 0.003044
43 0.0
50 0.0
65 0.0
85 0.002014
107 0.00203
124 0.002021
119 0.002043
112 0.000964
113 0.0
119 0.000999
128 0.002045
138 0.003026
151 0.0
161 0.0
172 0.0
182 0.003029
193 0.003018
174 0.003048
111 0.003031
57 0.000946
48 0.000955
55 0.001002
70 0.003034
92 0.003024
122 0.0
132 0.000972
128 0.00097
119 0.001992
115 0.001999
123 0.002993
132 0.002013
146 0.0
157 0.001013
166 0.001003
176 0.002999
186 0.003002
199 0.0
174 0.0
108 0.0
63 0.003027
47 0.003016
59 0.003038
76 0.003068
107 0.000989
127 0.0
134 0.000973
130 0.002011
123 0.002062
122 0.0
128 0.0
136 0.0
146 0.002986
163 0.0
173 0.003007
182 0.002987
197 0.0
203 0.0
169 0.0
99 0.003
56 0.003024
41 0.0
51 0.0
67 0.001013
89 0.00303
124 0.0
132 0.003028
128 0.003028
122 0.0
123 0.000994
129 0.001031
139 0.002992
149 0.002992
160 0.002998
175 0.0
186 0.001007
198 0.0
215 0.0
191 0.000998
122 0.003042
72 0.002003
54 0.0
61 0.0
78 0.0
101 0.002025
127 0.00221
145 0.0
141 0.0
130 0.0
125 0.0
130 0.000981
137 0.003023
145 0.003041
157 0.002989
166 0.0
177 0.003007
188 0.002992
198 0.00303
161 0.0
99 0.002013
63 0.002998
57 0.003043
70 0.002986
90 0.003041
115 0.004018
138 0.000966
140 0.002985
132 0.002972
125 0.003941
126 0.003942
134 0.002961
144 0.002994
154 0.002992
169 0.003027
179 0.002981
188 0.004062
199 0.004023
174 0.003989
106 0.002047
59 0.001045
42 0.004034
45 0.003029
62 0.001997
82 0.003037
104 0.000948
122 0.002985
118 0.002992
113 0.003999
112 0.00399
118 0.003001
126 0.003011
137 0.002978
148 0.004031
160 0.003993
176 0.001998
189 0.00297
200 0.002969
145 0.002031
83 0.003944
52 0.003979
47 0.004046
61 0.00305
80 0.001997
104 0.001993
124 0.003008
132 0.003973
128 0.005029
118 0.002979
119 0.003964
129 0.003032
138 0.002972
148 0.003978
158 0.005027
168 0.006016
182 0.003007
194 0.003043
198 0.002043
161 0.005008
99 0.005009
58 0.002996
58 0.005018
76 0.002915
99 0.001996
123 0.00304
138 0.005023
137 0.005034
124 0.003012
119 0.002993
121 0.002993
129 0.005984
138 0.005976
151 0.002992
165 0.005013
178 0.002929
190 0.002992
194 0.002
155 0.004987
92 0.004986
52 0.002008
50 0.003019
60 0.00201
78 0.005002
102 0.006006
130 0.00299
134 0.00598
124 0.002992
120 0.003938
123 0.002989
130 0.005061
139 0.005038
152 0.003954
161 0.002043
171 0.003019
181 0.006012
191 0.005962
191 0.003026
112 0.00603
51 0.002992
38 0.002985
44 0.002991
59 0.006016
79 0.006015
109 0.003958
124 0.004006
125 0.003957
119 0.005982
116 0.005976
120 0.002972
131 0.005987
145 0.002951
156 0.003003
167 0.004043
178 0.006022
190 0.006
204 0.002988
199 0.00307
143 0.002992
82 0.005816
54 0.005984
54 0.00399
74 0.004955
98 0.005954
130 0.00403
141 0.004009
137 0.003983
127 0.005985
123 0.006981
127 0.002988
135 0.002938
143 0.002993
152 0.006982
161 0.006989
178 0.005984
190 0.006981
196 0.003992
154 0.003989
94 0.004018
61 0.00701
55 0.007014
69 0.003992
89 0.004945
115 0.004014
138 0.006991
147 0.006977
136 0.007011
130 0.00798
133 0.00399
140 0.004021
150 0.003973
159 0.007009
172 0.007976
181 0.005004
190 0.004986
201 0.004983
203 0.006863
153 0.006987
59 0.006982
43 0.006978
51 0.00399
67 0.003962
88 0.003984
117 0.007959
125 0.007979
124 0.005006
116 0.004985
114 0.004984
119 0.007957
127 0.007952
140 0.007979
155 0.007977
165 0.004991
175 0.004998
187 0.005036
198 0.006975
174 0.007978
109 0.005027
63 0.00502
46 0.005005
54 0.007963
77 0.005008
100 0.007978
125 0.007984
129 0.005
121 0.004987
114 0.004987
115 0.006955
121 0.006973
130 0.005994
139 0.004988
149 0.004969
161 0.007943
175 0.004933
186 0.007979
186 0.007993
138 0.007941
82 0.005957
56 0.005965
52 0.005967
67 0.007981
80 0.007946
112 0.005003
131 0.004991
135 0.004979
121 0.005984
117 0.00595
122 0.006998
131 0.006985
140 0.006006
150 0.005994
159 0.005021
172 0.007001
181 0.00802
192 0.005967
180 0.005977
117 0.005981
