46 0.007029
56 0.005669
67 0.005997
73 0.005982
73 0.005971
71 0.005983
74 0.005991
82 0.005987
97 0.004992
106 0.004984
116 0.005024
125 0.005984
132 0.006032
141 0.00603
125 0.005984
86 0.005984
51 0.005979
38 0.005956
45 0.005955
55 0.005984
72 0.004986
80 0.004985
81 0.005023
78 0.005018
76 0.004986
84 0.004985
92 0.005018
102 0.004978
112 0.006031
121 0.005953
132 0.005966
141 0.005987
120 0.005018
80 0.004986
47 0.004988
36 0.004986
38 0.004986
52 0.004956
60 0.004953
70 0.004991
76 0.005025
77 0.004989
76 0.004948
78 0.00498
90 0.004992
106 0.004987
115 0.004992
124 0.004955
134 0.004017
142 0.003989
150 0.004986
145 0.004988
107 0.00504
63 0.00495
38 0.004988
36 0.004937
45 0.004987
56 0.003989
64 0.004987
69 0.00402
72 0.003988
71 0.003989
76 0.004019
84 0.003988
95 0.004955
106 0.004962
115 0.004986
128 0.00399
139 0.004028
149 0.004019
146 0.003989
111 0.004029
69 0.004456
40 0.003978
34 0.003981
42 0.003992
50 0.003987
59 0.004021
67 0.004022
70 0.003994
69 0.003959
73 0.003987
83 0.003964
95 0.003998
106 0.003954
117 0.003953
133 0.003957
140 0.003943
147 0.003988
155 0.004028
163 0.003976
134 0.003995
90 0.003959
53 0.003961
51 0.002999
59 0.002957
69 0.002965
79 0.002989
91 0.002991
92 0.004029
89 0.003991
89 0.003973
96 0.00396
112 0.002842
123 0.00299
137 0.002992
148 0.002993
156 0.002992
162 0.002993
169 0.003029
177 0.003989
162 0.003989
121 0.002992
84 0.004011
67 0.003992
76 0.002993
88 0.002992
104 0.00299
112 0.002992
112 0.002955
110 0.002956
107 0.002989
109 0.002993
121 0.002962
132 0.002994
142 0.002956
152 0.002992
164 0.002991
171 0.003002
177 0.003056
154 0.003038
110 0.002963
75 0.002992
61 0.003341
66 0.001995
83 0.003009
93 0.00301
103 0.003035
108 0.002992
105 0.002992
104 0.002992
110 0.002951
121 0.002993
132 0.003003
144 0.001995
155 0.001995
162 0.001962
174 0.001995
177 0.002031
156 0.00296
110 0.001909
58 0.001994
55 0.001995
62 0.001995
77 0.001995
87 0.001986
95 0.001026
98 0.001995
98 0.002025
98 0.002025
103 0.002031
112 0.001995
124 0.001995
143 0.001995
151 0.001014
161 0.001995
171 0.001995
172 0.001994
141 0.001995
95 0.001995
62 0.002026
49 0.001995
58 0.001995
68 0.001995
80 0.002023
94 0.00104
95 0.000998
94 0.000997
97 0.000997
103 0.000998
112 0.000997
124 0.001995
136 0.000992
147 0.000998
158 0.001998
166 0.001995
172 0.001995
142 0.001006
96 0.001046
63 0.000997
53 0.001027
61 0.001031
74 0.001033
85 0.001005
94 0.000987
100 0.000998
99 0.000995
96 0.001037
104 0.001965
114 0.000958
126 0.000959
136 0.001028
147 0.001001
158 0.000997
166 0.000997
173 0.001013
176 0.000997
148 0.001004
90 0.0
64 0.0
68 0.0
80 0.0
92 0.0
105 0.0
110 0.0
107 0.000998
104 0.000998
104 0.000999
110 0.000997
121 0.000998
135 0.000998
146 0.0
160 0.0
168 0.000963
175 0.0
171 0.0
137 0.000998
82 0.0
62 0.0
63 0.000997
77 0.0
90 0.0
105 0.0
111 0.0
105 0.0
102 0.0
104 0.0
113 0.0
122 0.0
137 0.000998
148 0.000998
159 0.0
165 0.0
169 0.0
134 0.0
88 0.0
46 0.0
51 0.0
63 0.0
73 0.0
86 0.0
95 0.0
94 0.001003
92 0.0
93 0.0
100 0.0
112 0.000997
123 0.001004
140 0.000997
149 0.000997
160 0.0
161 0.0
143 0.0
79 0.00099
45 0.001
35 0.001009
43 0.0
55 0.0
66 0.001038
76 0.000998
81 0.00101
80 0.001
83 0.0
90 0.0
99 0.0
111 0.000997
122 0.001009
133 0.000993
143 0.0
153 0.0
153 0.00098
114 0.00103
57 0.001043
30 0.000998
36 0.000999
47 0.001009
57 0.001015
72 0.0
79 0.000998
79 0.001032
76 0.0
80 0.001032
89 0.000965
98 0.001995
118 0.000945
128 0.002027
140 0.001961
148 0.001029
155 0.001011
140 0.001035
95 0.002038
55 0.001995
38 0.001029
43 0.001027
57 0.001037
68 0.00203
85 0.001041
88 0.001995
84 0.002033
83 0.001045
87 0.000996
97 0.001991
111 0.001994
121 0.002028
136 0.001027
144 0.001022
151 0.002031
157 0.002025
126 0.001995
73 0.001994
51 0.002105
53 0.001014
68 0.001029
80 0.001027
93 0.002954
101 0.001991
98 0.002022
94 0.00203
94 0.001988
107 0.002034
119 0.000999
130 0.002022
139 0.001996
152 0.000962
159 0.001039
150 0.001027
109 0.002994
66 0.002992
42 0.00203
47 0.002029
60 0.00202
83 0.00203
92 0.002028
93 0.003009
90 0.003029
89 0.002035
94 0.001031
100 0.002034
116 0.003024
130 0.001993
141 0.002018
153 0.001996
158 0.003031
103 0.001994
59 0.001983
36 0.002027
35 0.002936
44 0.002991
58 0.002028
71 0.002004
79 0.002025
79 0.00302
77 0.002992
80 0.001969
86 0.002028
105 0.00204
116 0.002035
126 0.001988
139 0.003022
148 0.004027
146 0.002987
108 0.003026
60 0.003023
31 0.002992
26 0.002991
40 0.003002
50 0.003024
68 0.003024
74 0.002992
75 0.003023
74 0.003983
76 0.003995
88 0.003024
99 0.003025
108 0.003034
122 0.002986
132 0.003022
143 0.002989
151 0.004052
131 0.004027
71 0.003016
43 0.002978
37 0.003985
43 0.008977
64 0.002995
77 0.003034
87 0.002983
91 0.004947
92 0.003989
90 0.003029
97 0.004053
110 0.004021
122 0.004023
134 0.004021
146 0.003976
156 0.003989
168 0.003002
166 0.002942
133 0.003037
86 0.003995
56 0.003988
49 0.003982
59 0.00402
79 0.004025
91 0.004017
96 0.003986
93 0.004986
86 0.004994
86 0.003993
98 0.003968
108 0.004003
129 0.003988
142 0.003966
158 0.003984
170 0.004988
149 0.004021
103 0.004023
67 0.003979
55 0.00498
61 0.004978
74 0.003971
81 0.004023
88 0.003971
89 0.004982
86 0.004987
88 0.004962
100 0.004979
112 0.005032
129 0.004016
141 0.00401
152 0.005035
161 0.005978
158 0.005983
120 0.004978
72 0.004975
44 0.004989
39 0.004978
49 0.004991
67 0.004987
79 0.004987
86 0.00403
85 0.004989
85 0.004993
89 0.00598
98 0.005994
116 0.004991
123 0.004995
132 0.004981
144 0.004971
153 0.004977
100 0.005984
56 0.005954
33 0.00502
37 0.005017
47 0.00502
56 0.005981
69 0.005984
83 0.005956
85 0.005012
86 0.004987
88 0.006949
96 0.006946
115 0.005986
127 0.005987
139 0.006017
150 0.005989
160 0.00595
167 0.005987
140 0.006016
72 0.00499
41 0.004992
35 0.005023
42 0.006972
52 0.006974
71 0.006983
79 0.00702
84 0.005014
84 0.005998
85 0.005985
94 0.005984
106 0.005961
122 0.005019
134 0.004957
146 0.005017
155 0.007021
163 0.006985
165 0.007025
125 0.007025
63 0.006017
41 0.005975
44 0.006015
56 0.006976
67 0.006982
84 0.006051
93 0.006011
94 0.004977
92 0.005983
92 0.006934
105 0.006982
119 0.006982
131 0.006997
146 0.005958
158 0.005987
167 0.006028
175 0.00703
180 0.006974
142 0.006024
92 0.006025
59 0.006978
53 0.007936
71 0.006921
87 0.007945
100 0.006982
107 0.006968
108 0.006979
103 0.006981
102 0.006974
109 0.006964
124 0.00598
136 0.006984
149 0.005985
161 0.007977
178 0.007014
186 0.00798
185 0.007978
133 0.006989
88 0.006973
65 0.006969
67 0.006981
80 0.006939
97 0.006976
113 0.006961
126 0.00695
116 0.007994
114 0.006981
116 0.007979
128 0.00798
139 0.006967
150 0.006936
161 0.007021
171 0.007945
181 0.00798
173 0.00697
110 0.007024
93 0.00797
51 0.007979
61 0.007009
80 0.007971
91 0.007979
107 0.006941
109 0.007978
104 0.006994
99 0.008016
103 0.007944
114 0.00695
126 0.007033
137 0.007016
158 0.007015
167 0.007025
147 0.007018
94 0.006981
39 0.006989
28 0.007013
35 0.007013
47 0.007023
63 0.007021
78 0.007975
83 0.007945
84 0.007936
78 0.006925
83 0.006981
96 0.007023
108 0.006981
126 0.006982
138 0.006981
148 0.007026
151 0.006985
115 0.007012
43 0.007022
11 0.006983
8 0.006982
25 0.006032
38 0.007021
51 0.006982
59 0.007021
60 0.00702
56 0.007029
60 0.007015
68 0.007013
80 0.007026
92 0.00702
110 0.007013
120 0.006981
135 0.006024
115 0.006017
64 0.005984
15 0.005984
0 0.00603
0 0.007009
14 0.007014
30 0.00702
44 0.007021
51 0.007012
50 0.006981
47 0.00603
54 0.006045
66 0.005985
79 0.005983
93 0.006028
105 0.006013
119 0.006032
131 0.005036
129 0.004985
88 0.007008
36 0.007015
0 0.005977
0 0.005983
26 0.005987
42 0.006036
57 0.006025
62 0.006024
56 0.005991
53 0.005984
55 0.005984
64 0.005019
77 0.004992
91 0.004982
106 0.005026
118 0.00517
122 0.006029
81 0.005989
28 0.005981
0 0.004953
57 0.005984
66 0.006021
75 0.006011
83 0.005998
88 0.006016
89 0.00603
86 0.006021
87 0.005985
94 0.005033
101 0.005025
106 0.005018
112 0.004987
119 0.00504
126 0.005027
116 0.004957
88 0.005018
63 0.004987
50 0.005028
53 0.005011
62 0.004988
73 0.005112
78 0.005017
79 0.005025
78 0.00502
78 0.005014
83 0.004996
89 0.00502
97 0.005022
105 0.004986
111 0.005025
117 0.005029
123 0.005024
103 0.004987
64 0.004989
48 0.005001
46 0.005019
51 0.004032
59 0.004032
68 0.00403
73 0.004024
75 0.004035
72 0.005018
74 0.004031
82 0.004983
90 0.004987
99 0.004988
106 0.004049
112 0.005028
118 0.004028
117 0.004028
87 0.004025
60 0.004001
46 0.004038
46 0.004043
54 0.00398
69 0.004
77 0.00503
80 0.004998
79 0.002994
78 0.00399
82 0.003991
88 0.00402
81 0.004028
94 0.004024
105 0.004026
115 0.004034
125 0.004032
105 0.004027
59 0.00397
16 0.003998
11 0.003991
21 0.00399
33 0.003024
48 0.003981
61 0.002997
62 0.003026
60 0.003025
60 0.003987
66 0.003992
82 0.003986
94 0.00399
110 0.003992
118 0.004016
127 0.003033
130 0.003007
100 0.003023
42 0.003034
20 0.002959
22 0.002992
34 0.00303
49 0.002998
74 0.002993
76 0.003042
70 0.004017
68 0.003982
72 0.003025
83 0.003036
94 0.002996
110 0.002992
120 0.002993
131 0.002993
135 0.002992
105 0.003026
29 0.002993
11 0.002995
14 0.002995
31 0.002992
46 0.002992
59 0.002994
61 0.003019
53 0.002995
48 0.003
54 0.001995
64 0.002017
77 0.001996
99 0.002045
107 0.002984
111 0.002995
94 0.003006
46 0.00299
0 0.002992
53 0.002992
54 0.002044
64 0.002028
71 0.002026
79 0.001995
84 0.001994
84 0.001995
85 0.002992
89 0.003002
98 0.002992
105 0.001995
112 0.001995
118 0.001964
124 0.001995
127 0.001995
109 0.001967
81 0.001951
56 0.001995
58 0.001976
65 0.002011
71 0.002002
81 0.000997
86 0.002034
84 0.001951
80 0.000999
80 0.000997
89 0.000965
97 0.000999
106 0.000997
115 0.001995
116 0.001995
119 0.001995
120 0.002002
94 0.000998
69 0.001995
56 0.000997
56 0.000998
62 0.001029
72 0.001995
79 0.000998
85 0.00104
88 0.000998
88 0.000998
90 0.000997
97 0.000998
107 0.001986
114 0.000997
121 0.002036
128 0.000997
133 0.001004
139 0.001002
132 0.000998
105 0.001015
70 0.000999
68 0.001003
74 0.001007
83 0.000999
93 0.000997
99 0.000989
102 0.000998
101 0.000997
100 0.000997
104 0.000999
104 0.001042
115 0.000998
134 0.000998
143 0.000997
152 0.000997
158 0.000997
164 0.0
136 0.0
92 0.001004
61 0.001013
53 0.000997
61 0.000997
78 0.000998
93 0.0
104 0.0
103 0.0
100 0.0
100 0.0
105 0.0
119 0.0
130 0.0
139 0.0
149 0.0
158 0.000997
166 0.000998
160 0.000997
93 0.0
67 0.0
61 0.0
71 0.0
91 0.0
107 0.0
116 0.0
116 0.0
111 0.0
106 0.0
111 0.0
119 0.0
135 0.000998
144 0.000998
156 0.000997
164 0.0
155 0.0
113 0.0
71 0.0
51 0.0
54 0.0
68 0.0
84 0.000999
97 0.001032
103 0.000998
98 0.000997
95 0.0
100 0.0
108 0.0
118 0.000997
131 0.000997
145 0.0
156 0.0
156 0.0
121 0.000998
62 0.0
38 0.001003
44 0.000998
63 0.0
79 0.0
91 0.0
96 0.000999
95 0.001964
91 0.002035
91 0.001052
97 0.000998
110 0.0
129 0.0
138 0.0
147 0.001022
152 0.001041
104 0.0
58 0.001035
33 0.000997
28 0.001995
40 0.001997
63 0.001033
78 0.000999
87 0.000999
88 0.000998
81 0.000998
82 0.000997
88 0.000998
101 0.000967
113 0.000998
125 0.000966
138 0.002001
148 0.002031
129 0.001032
83 0.001
46 0.00096
35 0.000998
48 0.001006
62 0.002032
77 0.00203
89 0.001001
91 0.001995
87 0.001023
88 0.002043
95 0.001979
110 0.001006
120 0.000999
132 0.001005
148 0.001006
156 0.002022
142 0.002036
96 0.001995
49 0.002031
41 0.002031
50 0.002044
66 0.003027
80 0.003032
96 0.002023
99 0.001993
96 0.000988
97 0.001013
104 0.001038
113 0.001995
125 0.001995
140 0.001995
149 0.001965
158 0.002028
152 0.003026
113 0.002985
59 0.001982
46 0.001991
52 0.002032
76 0.002039
91 0.002035
101 0.002
103 0.002036
98 0.001961
97 0.002028
103 0.001996
113 0.003019
124 0.003023
137 0.002036
147 0.001995
156 0.002007
127 0.001995
78 0.002022
44 0.003059
35 0.003989
44 0.003991
61 0.003018
76 0.002029
85 0.00203
88 0.002986
86 0.002985
84 0.002026
89 0.003
108 0.002004
120 0.002031
131 0.003025
141 0.004019
150 0.00399
124 0.003025
91 0.003026
40 0.002983
28 0.003985
36 0.003022
54 0.001985
73 0.003043
84 0.001998
86 0.003015
85 0.002979
87 0.00399
94 0.00402
111 0.002991
122 0.003105
134 0.004025
145 0.004008
155 0.003986
163 0.004026
130 0.004987
66 0.00399
41 0.003023
39 0.003032
50 0.004025
63 0.003991
79 0.002957
88 0.002988
92 0.003039
91 0.003992
93 0.003962
102 0.004022
118 0.004987
135 0.004044
146 0.004023
155 0.003998
163 0.004988
169 0.004987
176 0.004032
159 0.002957
112 0.002929
72 0.003993
55 0.003994
63 0.001992
79 0.004984
97 0.003029
104 0.004016
106 0.004023
106 0.004987
107 0.005018
114 0.003026
126 0.004024
139 0.003989
150 0.004978
160 0.005018
172 0.003975
181 0.004023
187 0.00502
190 0.003989
160 0.004026
114 0.005021
82 0.005017
73 0.004987
88 0.003978
102 0.003992
115 0.003976
125 0.004996
128 0.005981
122 0.005984
123 0.005974
133 0.003983
144 0.004023
156 0.003974
168 0.004986
177 0.004973
188 0.003983
194 0.005021
201 0.004992
196 0.005979
156 0.005988
94 0.005991
86 0.005984
100 0.005029
116 0.005025
131 0.00399
142 0.005985
143 0.004987
138 0.003984
137 0.004977
143 0.004956
154 0.005974
165 0.005985
183 0.005984
192 0.005984
204 0.005018
209 0.005026
198 0.005017
152 0.005984
109 0.006026
86 0.005019
92 0.005985
105 0.005979
121 0.006985
136 0.005977
145 0.005987
140 0.005984
136 0.004988
140 0.004964
150 0.004982
163 0.006026
175 0.005984
189 0.006032
199 0.005974
204 0.005972
172 0.006983
121 0.006953
76 0.006981
78 0.007019
95 0.006026
108 0.005015
122 0.004985
132 0.006015
133 0.006023
127 0.005003
127 0.006004
132 0.005989
140 0.006998
156 0.005986
167 0.00698
179 0.007043
166 0.006022
119 0.006019
80 0.006017
63 0.007022
69 0.007982
82 0.006011
95 0.005985
110 0.005971
119 0.005984
120 0.00601
121 0.005974
126 0.007018
134 0.006982
148 0.00603
159 0.006038
168 0.006029
175 0.007979
160 0.007978
98 0.006981
64 0.006015
54 0.00696
70 0.00698
84 0.007016
97 0.007979
108 0.007017
113 0.006996
112 0.00599
111 0.006982
117 0.007947
127 0.007944
141 0.006972
152 0.006985
163 0.006979
165 0.007021
106 0.006822
68 0.007984
54 0.007975
60 0.007978
68 0.006995
81 0.00698
98 0.007818
104 0.007977
107 0.006987
106 0.006939
110 0.006998
122 0.006985
136 0.00703
147 0.007033
153 0.007978
167 0.006979
173 0.006975
129 0.007006
84 0.007964
60 0.007012
64 0.006984
77 0.007028
92 0.007017
115 0.006992
120 0.007004
120 0.007033
118 0.007971
120 0.007007
129 0.006947
143 0.006975
154 0.007031
165 0.007024
179 0.007016
187 0.006982
183 0.007018
108 0.007008
76 0.006982
68 0.006956
76 0.007015
97 0.007031
112 0.007014
123 0.005987
125 0.006024
121 0.007043
119 0.007018
123 0.006981
132 0.00698
151 0.00699
162 0.007027
171 0.007013
181 0.005946
174 0.005984
115 0.007012
78 0.00598
64 0.007017
69 0.006983
83 0.005978
105 0.007036
118 0.007022
122 0.007013
119 0.00701
117 0.006996
122 0.006977
132 0.007026
147 0.006017
158 0.005984
168 0.005986
177 0.006023
166 0.006098
104 0.005989
61 0.006019
59 0.005986
72 0.005978
87 0.006016
103 0.006016
114 0.00697
115 0.006935
113 0.005984
113 0.005705
119 0.006022
129 0.005976
145 0.006034
161 0.006029
174 0.005993
181 0.007029
152 0.006026
100 0.006063
64 0.005022
55 0.004987
65 0.005022
79 0.005985
94 0.006021
107 0.006034
112 0.00603
111 0.006021
113 0.006016
121 0.006029
132 0.005986
144 0.004996
156 0.00502
171 0.004989
181 0.004988
183 0.004998
148 0.005014
98 0.005027
59 0.005026
60 0.004988
78 0.004988
94 0.005019
107 0.005024
113 0.005018
114 0.00502
111 0.00502
115 0.005014
123 0.005022
134 0.003988
146 0.00499
161 0.005029
175 0.004016
184 0.00405
167 0.00403
117 0.003994
77 0.004992
61 0.005024
66 0.005024
84 0.004983
101 0.004968
115 0.005031
121 0.00503
118 0.005028
115 0.004029
120 0.003983
132 0.003955
143 0.004024
154 0.004021
166 0.003931
176 0.004005
186 0.005021
177 0.005022
132 0.00399
87 0.004033
67 0.004023
77 0.004022
94 0.003989
115 0.00402
125 0.00399
125 0.004043
119 0.00399
116 0.004022
121 0.003991
130 0.004026
141 0.003057
152 0.003064
163 0.003034
179 0.002993
183 0.004023
136 0.004029
92 0.003991
69 0.004044
69 0.004035
81 0.004006
105 0.003948
121 0.002976
127 0.004022
124 0.003034
118 0.002997
117 0.003951
125 0.003991
139 0.004035
150 0.004021
160 0.004021
170 0.003959
176 0.003982
133 0.004025
86 0.002992
59 0.003004
56 0.002962
68 0.002993
96 0.002961
110 0.002992
114 0.002992
109 0.002978
105 0.004015
107 0.003991
115 0.004024
129 0.002962
141 0.003041
153 0.003026
164 0.002992
159 0.002992
112 0.002993
68 0.002981
46 0.002953
51 0.002992
65 0.003051
80 0.003037
93 0.002992
98 0.002992
95 0.004039
94 0.001987
97 0.002026
113 0.002993
125 0.002993
137 0.003018
148 0.002031
160 0.002994
151 0.001996
105 0.002995
60 0.003013
39 0.002994
42 0.00299
57 0.002993
73 0.001995
92 0.002032
95 0.002032
93 0.002031
93 0.001995
100 0.002037
111 0.002025
121 0.00203
133 0.002026
142 0.002028
155 0.002
152 0.002029
115 0.001995
51 0.002029
40 0.001974
46 0.00103
58 0.000999
77 0.00103
88 0.000996
89 0.001031
86 0.001011
84 0.001994
90 0.001995
99 0.001994
110 0.001945
126 0.001994
136 0.001995
144 0.002031
147 0.001995
102 0.001966
62 0.002042
39 0.001012
39 0.000999
51 0.000997
73 0.001026
87 0.000998
92 0.000997
89 0.000999
88 0.000998
91 0.001997
98 0.001995
112 0.002003
123 0.000989
134 0.000998
144 0.000999
153 0.00101
138 0.000997
95 0.000997
60 0.001008
49 0.000998
62 0.000997
78 0.000998
94 0.0
104 0.0
101 0.0
96 0.0
96 0.001038
101 0.000997
113 0.000997
125 0.000998
136 0.000998
152 0.000999
159 0.000997
141 0.000997
98 0.0
63 0.0
54 0.00101
66 0.0
83 0.0
101 0.0
113 0.0
114 0.001
108 0.001007
110 0.000998
118 0.0
130 0.00101
142 0.000991
152 0.000998
165 0.0
168 0.0
137 0.0
89 0.0
58 0.0
49 0.0
61 0.0
81 0.0
95 0.0
99 0.0
95 0.0
92 0.0
97 0.0
107 0.000997
118 0.000998
131 0.000997
143 0.0
155 0.000994
136 0.000997
86 0.000997
47 0.001995
32 0.0
37 0.0
57 0.0
73 0.0
86 0.00106
94 0.0
92 0.0
91 0.0
96 0.001039
114 0.0
127 0.000957
138 0.001002
150 0.0
159 0.0
156 0.0
115 0.000996
68 0.001033
38 0.0
41 0.000995
55 0.0
70 0.001008
92 0.000984
96 0.001029
95 0.0
96 0.0
103 0.0
113 0.0
125 0.001032
138 0.001029
153 0.0
162 0.0
171 0.000985
175 0.000998
113 0.0
69 0.001033
50 0.001968
54 0.002052
74 0.0
88 0.001022
101 0.0
108 0.001032
106 0.001031
102 0.000961
106 0.000973
115 0.001002
135 0.000955
147 0.000999
158 0.001964
167 0.001992
175 0.001004
180 0.00101
156 0.000979
108 0.001047
70 0.001046
60 0.000953
72 0.001005
89 0.000991
115 0.000998
122 0.000953
120 0.001995
115 0.002168
117 0.00204
125 0.001035
137 0.000996
149 0.002007
161 0.002038
175 0.000981
184 0.001039
191 0.001012
161 0.000996
112 0.001006
79 0.001989
71 0.001995
87 0.000972
106 0.00103
124 0.001994
136 0.001995
137 0.001996
127 0.002043
124 0.002064
128 0.002026
147 0.00103
158 0.001026
169 0.001995
179 0.00201
191 0.001001
185 0.001002
142 0.001996
95 0.002035
70 0.001995
72 0.002021
88 0.001964
107 0.002025
130 0.002029
129 0.002031
121 0.003023
116 0.003034
121 0.002994
130 0.002028
142 0.002082
154 0.003024
165 0.003991
178 0.001042
170 0.002028
89 0.001001
57 0.001989
49 0.001948
59 0.002991
76 0.002992
98 0.001995
107 0.001976
106 0.001942
101 0.002001
97 0.002992
102 0.003026
116 0.002058
132 0.004049
148 0.003029
157 0.003027
164 0.00202
148 0.003979
98 0.003981
44 0.002021
33 0.001995
40 0.002003
55 0.002959
70 0.002992
86 0.003007
88 0.00399
84 0.002997
85 0.002996
92 0.002983
104 0.00399
116 0.003989
132 0.003049
142 0.002997
151 0.003036
153 0.004034
124 0.00399
58 0.003018
27 0.004023
33 0.002991
49 0.00316
65 0.002991
79 0.004022
84 0.003989
81 0.003978
79 0.003035
83 0.003
93 0.00402
105 0.004988
122 0.004015
139 0.004989
150 0.004022
159 0.003023
148 0.003014
103 0.004987
57 0.004986
33 0.002989
41 0.002976
58 0.002998
74 0.00403
90 0.003989
96 0.003991
92 0.005018
92 0.003971
100 0.003978
111 0.004019
124 0.004987
137 0.004986
152 0.003989
161 0.002996
169 0.004032
171 0.004987
140 0.004991
75 0.003984
47 0.004986
59 0.003996
78 0.003989
96 0.003976
110 0.004978
114 0.004971
108 0.005024
102 0.00399
106 0.004003
116 0.003985
129 0.005029
141 0.004987
160 0.005984
169 0.006018
179 0.003979
161 0.004982
112 0.003987
70 0.005984
54 0.005994
66 0.003996
85 0.003997
105 0.003954
119 0.004986
122 0.004986
110 0.00498
108 0.004979
116 0.004987
128 0.004988
141 0.004962
152 0.005976
163 0.005984
176 0.005018
169 0.00504
123 0.005019
73 0.006023
43 0.003987
55 0.006028
74 0.007014
98 0.004975
110 0.004981
109 0.004979
103 0.006016
100 0.006016
107 0.004976
119 0.004991
132 0.004982
146 0.005984
165 0.005983
174 0.006981
171 0.006015
106 0.006012
58 0.005986
36 0.005975
39 0.006984
55 0.006026
77 0.005947
92 0.006016
98 0.006016
97 0.007014
93 0.004976
99 0.007016
111 0.007
129 0.005019
142 0.004982
154 0.004978
164 0.007013
173 0.006981
154 0.004986
100 0.005957
54 0.005991
34 0.006982
49 0.006023
66 0.006982
82 0.007017
97 0.006028
97 0.006025
94 0.006023
94 0.006842
102 0.006981
116 0.006024
131 0.007016
144 0.006016
156 0.005996
172 0.005952
180 0.00597
167 0.006894
115 0.006981
55 0.005984
42 0.005979
52 0.006002
70 0.007979
89 0.007979
110 0.007014
113 0.006985
108 0.006967
106 0.006979
113 0.00602
125 0.007978
139 0.007979
156 0.005952
168 0.006982
179 0.006967
187 0.007979
185 0.007979
121 0.006944
74 0.006943
53 0.006972
71 0.006965
92 0.006943
119 0.007059
128 0.00702
125 0.006962
118 0.00697
113 0.006997
118 0.008003
133 0.007941
147 0.006982
161 0.006983
173 0.006986
190 0.006975
178 0.006975
106 0.007974
75 0.007979
53 0.006985
68 0.006982
88 0.006987
109 0.007022
124 0.007031
124 0.007001
115 0.007018
111 0.007046
120 0.006837
131 0.006978
145 0.006983
158 0.007
172 0.00698
178 0.006942
141 0.00694
102 0.007978
44 0.00795
36 0.006982
52 0.006984
72 0.007054
102 0.006979
108 0.006989
105 0.00701
100 0.006983
103 0.006949
113 0.005985
126 0.005985
140 0.006983
153 0.006983
171 0.00702
173 0.007017
89 0.007029
44 0.006969
28 0.006982
36 0.006981
54 0.007015
73 0.006982
95 0.005986
101 0.006011
98 0.005984
95 0.006016
97 0.005986
110 0.005978
129 0.006022
147 0.006066
160 0.006018
170 0.006983
158 0.006027
104 0.006033
40 0.007021
24 0.005984
32 0.005989
52 0.005998
70 0.006024
92 0.005985
96 0.006022
92 0.006017
93 0.00604
100 0.005013
112 0.006003
126 0.007035
145 0.006984
156 0.005945
168 0.006027
165 0.006018
117 0.005985
51 0.00595
28 0.006024
46 0.005977
67 0.006014
87 0.00602
101 0.006018
103 0.005972
97 0.00502
97 0.005018
104 0.00502
116 0.005931
130 0.004997
148 0.005984
164 0.00503
176 0.00502
167 0.005017
116 0.005019
66 0.005977
42 0.00602
52 0.006021
73 0.005995
94 0.005972
113 0.005019
119 0.00502
112 0.004949
107 0.005023
115 0.004984
128 0.005005
142 0.005037
155 0.005046
168 0.004996
182 0.005046
175 0.005019
127 0.005022
78 0.004024
53 0.005037
60 0.004988
88 0.00503
118 0.005019
129 0.004988
126 0.00502
117 0.005038
112 0.004987
121 0.005018
132 0.004022
146 0.004016
162 0.004038
176 0.005002
187 0.004025
132 0.00403
78 0.004025
46 0.004945
53 0.004988
71 0.003991
92 0.005026
111 0.004023
117 0.00399
110 0.003992
104 0.00402
106 0.004036
114 0.003991
136 0.004035
150 0.004024
168 0.003986
170 0.004016
130 0.004026
71 0.003
35 0.003989
31 0.005018
48 0.003991
68 0.005005
87 0.004944
102 0.002966
99 0.002992
97 0.00303
103 0.004038
118 0.003999
136 0.002964
154 0.004006
171 0.004048
187 0.003979
169 0.003988
109 0.004025
59 0.004022
39 0.003991
54 0.003991
73 0.003974
97 0.003016
107 0.002994
108 0.002994
104 0.00304
105 0.002992
116 0.003006
128 0.002993
142 0.002993
157 0.002992
177 0.002995
175 0.003029
126 0.003001
56 0.002998
35 0.002992
40 0.001995
58 0.002044
80 0.001996
103 0.003021
109 0.003031
107 0.003027
105 0.002993
113 0.00298
125 0.002991
139 0.002995
158 0.002993
170 0.002971
180 0.003005
174 0.002992
122 0.002992
69 0.002996
38 0.002027
47 0.001995
69 0.002027
104 0.002028
116 0.002928
116 0.001996
111 0.001995
111 0.002993
119 0.002995
132 0.002964
147 0.002994
161 0.002992
177 0.003023
189 0.001979
191 0.001995
111 0.001985
62 0.001995
45 0.001995
56 0.00203
85 0.002006
109 0.002028
126 0.001995
128 0.002033
121 0.001956
116 0.002
122 0.002006
133 0.000994
157 0.002022
171 0.001995
183 0.001996
194 0.001996
171 0.001995
113 0.002009
68 0.001995
53 0.002014
62 0.001997
92 0.000997
117 0.001995
134 0.001989
128 0.00099
118 0.001029
117 0.001007
123 0.000997
139 0.000998
153 0.000988
165 0.001007
176 0.000983
180 0.000997
122 0.001939
68 0.002005
41 0.001995
55 0.002007
79 0.001047
102 0.001006
117 0.000993
118 0.001001
107 0.000994
99 0.000997
103 0.000999
114 0.000987
134 0.000997
147 0.002053
160 0.001999
152 0.0
93 0.001
39 0.000971
14 0.000997
26 0.000998
49 0.000997
71 0.001001
90 0.001002
95 0.000997
86 0.000997
82 0.001006
96 0.000998
111 0.0
128 0.0
146 0.0
160 0.0
168 0.0
115 0.0
58 0.0
26 0.0
24 0.001032
39 0.0
66 0.000997
87 0.0
96 0.000997
94 0.001005
94 0.000968
100 0.000997
112 0.000997
131 0.0
147 0.0
160 0.0
172 0.0
173 0.0
109 0.0
41 0.0
29 0.0
45 0.0
66 0.0
87 0.0
102 0.0
106 0.0
102 0.0
102 0.0
108 0.000997
120 0.000998
141 0.002043
162 0.001007
178 0.001094
188 0.002042
177 0.0
101 0.0
57 0.0
45 0.001033
57 0.001035
86 0.0
109 0.000997
123 0.0
125 0.000998
119 0.0
122 0.001041
130 0.000951
148 0.0
163 0.0
177 0.0
189 0.000997
199 0.00099
206 0.000998
173 0.0
112 0.0
70 0.00201
67 0.0
89 0.001992
113 0.001028
139 0.0
143 0.0
136 0.0
128 0.001032
128 0.001031
141 0.0
155 0.0
169 0.0
183 0.001039
202 0.0
206 0.000998
166 0.001
92 0.0
67 0.0
69 0.0
88 0.00196
112 0.000963
141 0.0
147 0.0
141 0.0
133 0.0
135 0.0
145 0.001001
158 0.001997
172 0.000997
190 0.0
200 0.0
190 0.0
134 0.002021
79 0.001995
51 0.0
63 0.000977
84 0.0
120 0.001962
131 0.001954
129 0.001037
121 0.002063
118 0.0
126 0.001
140 0.000952
155 0.002029
169 0.001995
187 0.00096
191 0.000962
149 0.001997
58 0.002032
40 0.000996
49 0.001998
70 0.002008
97 0.001049
114 0.001023
119 0.000993
115 0.00299
111 0.003028
117 0.00094
129 0.001001
152 0.000994
166 0.001009
178 0.000996
185 0.002033
150 0.002032
71 0.002003
39 0.001997
37 0.002026
53 0.003024
73 0.002992
100 0.001006
110 0.001011
107 0.001004
106 0.000998
110 0.000988
121 0.002032
135 0.00298
155 0.002026
168 0.001997
179 0.001996
179 0.003023
135 0.003024
60 0.002012
36 0.002025
52 0.000993
73 0.000999
94 0.001007
109 0.003986
113 0.003026
108 0.001995
107 0.001992
113 0.002004
126 0.002992
140 0.003005
159 0.001999
172 0.002029
187 0.001961
163 0.003029
103 0.001987
57 0.002017
43 0.003998
55 0.00399
83 0.001997
106 0.00198
122 0.001979
126 0.003001
121 0.003055
117 0.002006
126 0.002983
144 0.002012
157 0.002
171 0.002991
183 0.003982
193 0.00399
175 0.003022
118 0.001995
71 0.001999
54 0.003992
63 0.003993
94 0.001982
125 0.003988
141 0.001999
135 0.001979
123 0.00299
117 0.003978
123 0.003989
142 0.002993
158 0.00299
171 0.002986
185 0.004019
195 0.004031
155 0.00399
83 0.004975
55 0.002959
65 0.003006
88 0.002984
112 0.004982
133 0.004987
139 0.00299
131 0.002996
123 0.002991
126 0.004045
136 0.003989
154 0.003001
174 0.004997
190 0.003016
190 0.002986
143 0.002992
85 0.004983
53 0.004986
55 0.002991
74 0.002993
96 0.003993
117 0.003989
127 0.004987
121 0.002002
116 0.00501
123 0.004012
135 0.003981
149 0.003988
164 0.004991
171 0.004976
160 0.002991
107 0.003028
50 0.003021
19 0.004987
19 0.005989
57 0.006015
78 0.005982
90 0.003978
86 0.004007
81 0.003991
81 0.004987
88 0.005018
103 0.003988
119 0.003983
134 0.003981
146 0.005019
155 0.006029
97 0.005979
42 0.005984
8 0.003998
15 0.003994
34 0.003995
53 0.003997
73 0.004978
82 0.004993
78 0.004002
74 0.004008
78 0.004005
89 0.005983
117 0.003987
136 0.005977
155 0.005976
172 0.003988
147 0.004004
90 0.003989
45 0.006022
32 0.005984
52 0.003998
76 0.004008
99 0.003951
117 0.005027
122 0.00497
120 0.005983
123 0.005985
138 0.004984
153 0.004989
168 0.003985
181 0.005984
193 0.005978
201 0.003984
167 0.004029
107 0.00501
65 0.007014
61 0.005017
81 0.006024
103 0.006991
128 0.004991
132 0.004979
128 0.004966
124 0.007013
128 0.007013
142 0.005011
156 0.005
170 0.004955
184 0.006031
203 0.004977
204 0.005978
162 0.006076
90 0.004988
66 0.005005
70 0.004987
91 0.006981
116 0.006978
144 0.005017
150 0.005011
144 0.005035
137 0.006986
142 0.004983
153 0.006979
167 0.006966
186 0.003979
198 0.00598
209 0.005987
210 0.006981
165 0.00698
93 0.005984
72 0.005998
78 0.005023
98 0.00698
139 0.005987
152 0.007014
152 0.006983
140 0.004964
135 0.004983
141 0.004986
152 0.007983
169 0.007982
183 0.005989
195 0.005986
205 0.00597
181 0.005983
85 0.005997
56 0.005979
58 0.006973
76 0.006949
106 0.006948
128 0.006985
134 0.006977
129 0.007979
122 0.007961
124 0.006038
133 0.006017
148 0.005985
172 0.005981
186 0.005992
197 0.007976
167 0.007967
103 0.005995
57 0.006996
41 0.006982
60 0.007978
74 0.007978
102 0.006968
118 0.006984
118 0.006982
113 0.006973
114 0.00698
123 0.007949
135 0.007944
155 0.006981
169 0.00596
181 0.007026
190 0.007979
146 0.007017
69 0.006988
40 0.006981
47 0.006959
68 0.006969
88 0.006975
112 0.007015
117 0.007005
114 0.006952
111 0.006969
117 0.006944
128 0.007965
138 0.007978
161 0.006947
174 0.006948
190 0.006981
164 0.007106
104 0.006997
57 0.007016
40 0.007021
55 0.007027
69 0.006967
90 0.00698
113 0.006978
118 0.007016
113 0.006931
109 0.006937
122 0.005988
131 0.007011
151 0.006015
164 0.006031
176 0.006025
187 0.006963
166 0.006951
108 0.006982
61 0.007015
44 0.006982
59 0.006948
83 0.006955
112 0.007017
126 0.006976
123 0.005991
116 0.006019
116 0.006024
122 0.006026
142 0.006001
157 0.006019
170 0.00699
182 0.006981
191 0.006018
157 0.005997
81 0.005792
50 0.006018
58 0.005985
77 0.005991
101 0.006015
122 0.005988
129 0.006018
123 0.006018
117 0.006038
118 0.006013
127 0.005978
145 0.005982
163 0.004968
179 0.006022
184 0.006026
147 0.00602
87 0.005978
47 0.006011
40 0.005954
57 0.006014
79 0.005972
100 0.005971
113 0.006982
112 0.005976
107 0.00507
113 0.005019
125 0.004981
140 0.00499
155 0.006029
168 0.00503
182 0.005047
164 0.004987
106 0.004987
54 0.004949
31 0.004989
41 0.005006
68 0.005948
94 0.005984
106 0.006017
108 0.006105
104 0.005981
104 0.004994
116 0.00503
131 0.004988
145 0.005021
159 0.005019
171 0.004993
179 0.005029
135 0.005002
60 0.005006
33 0.005019
33 0.005022
50 0.004023
69 0.00403
93 0.004081
102 0.004037
102 0.005053
101 0.004033
103 0.004022
121 0.003993
136 0.003992
155 0.004078
167 0.003991
179 0.004033
180 0.003989
139 0.00399
81 0.002992
36 0.004987
38 0.005019
54 0.005036
74 0.00497
102 0.004985
107 0.003989
106 0.004021
105 0.004032
112 0.004023
125 0.003974
140 0.004032
155 0.004032
171 0.004017
182 0.004989
191 0.004986
178 0.005023
86 0.004027
52 0.004045
48 0.004026
70 0.00403
92 0.004024
113 0.004044
124 0.004035
124 0.00399
119 0.00399
121 0.004032
131 0.004007
144 0.00399
167 0.004033
180 0.004127
192 0.002992
201 0.002959
194 0.002994
146 0.002961
91 0.002958
63 0.00403
70 0.004033
91 0.002997
115 0.002993
137 0.003982
144 0.00399
135 0.00399
130 0.004021
139 0.00399
152 0.002995
166 0.003029
180 0.002992
192 0.002992
207 0.003028
208 0.002945
164 0.002998
105 0.002991
63 0.002993
74 0.003009
96 0.002851
129 0.003989
146 0.00305
147 0.003808
138 0.002992
132 0.003184
136 0.001995
146 0.002992
160 0.003001
175 0.002958
195 0.002958
204 0.002957
172 0.002983
89 0.002994
54 0.00303
48 0.002956
64 0.002995
87 0.003043
116 0.003029
128 0.002026
127 0.002026
121 0.002995
122 0.002994
133 0.002993
147 0.002031
162 0.002028
181 0.003023
194 0.003015
189 0.003025
134 0.003023
74 0.002032
38 0.002029
45 0.002028
64 0.002002
100 0.002023
114 0.001996
117 0.001996
114 0.002042
112 0.002044
120 0.00204
133 0.001045
147 0.001048
162 0.001044
181 0.001994
190 0.001996
123 0.002029
64 0.001991
35 0.00203
36 0.001959
54 0.001967
81 0.001953
102 0.001994
111 0.002039
110 0.002028
106 0.001998
110 0.002011
120 0.001995
144 0.002001
159 0.002052
173 0.002026
184 0.002047
183 0.001993
111 0.001032
58 0.001032
33 0.000972
38 0.000962
56 0.000998
85 0.001011
104 0.000997
111 0.002026
107 0.001994
107 0.001994
114 0.001996
126 0.001995
147 0.001002
161 0.000998
173 0.000997
186 0.002025
188 0.000985
120 0.001038
65 0.000998
39 0.000997
57 0.000997
80 0.000997
103 0.001003
120 0.001003
123 0.000983
117 0.00101
116 0.00203
122 0.001028
134 0.0
153 0.001044
168 0.0
190 0.0
198 0.0
168 0.0
108 0.0
65 0.0
56 0.0
74 0.0
99 0.0
125 0.001033
140 0.0
140 0.0
130 0.001004
127 0.000997
140 0.00099
153 0.000998
168 0.0
181 0.0
194 0.0
184 0.0
127 0.0
75 0.0
52 0.0
57 0.0
86 0.0
117 0.0
133 0.0
130 0.0
122 0.0
120 0.0
128 0.0
146 0.0
160 0.0
174 0.0
186 0.0
188 0.0
119 0.0
40 0.0
34 0.001014
51 0.000997
82 0.0
106 0.0
119 0.0
119 0.001028
112 0.001041
113 0.000958
121 0.000951
134 0.0
150 0.001029
173 0.0
185 0.002038
164 0.002043
81 0.0
38 0.0
27 0.0
40 0.002025
61 0.00203
90 0.0
105 0.000956
108 0.0
103 0.0
107 0.0
117 0.002036
131 0.002033
152 0.000996
167 0.000955
179 0.0
167 0.00103
110 0.001998
41 0.000968
23 0.0
34 0.000973
68 0.001005
84 0.000998
104 0.002026
106 0.002031
103 0.0
105 0.0
114 0.0
128 0.002031
144 0.002026
163 0.0
176 0.0
180 0.0
94 0.0
47 0.0
30 0.0
41 0.001028
64 0.000998
89 0.00099
112 0.0
118 0.0
115 0.001995
113 0.001992
121 0.0
134 0.0
158 0.0
173 0.0
186 0.0
196 0.001009
167 0.002021
87 0.001014
51 0.000971
49 0.0
67 0.002029
92 0.002064
124 0.002003
135 0.000996
128 0.0
124 0.0
130 0.001001
141 0.002028
155 0.001994
175 0.001994
190 0.002028
201 0.001989
186 0.003025
126 0.003002
64 0.001983
54 0.001995
83 0.001993
109 0.001989
133 0.001
146 0.001994
145 0.003028
137 0.000996
139 0.000999
149 0.000994
163 0.003022
179 0.003042
201 0.001
215 0.001998
162 0.002003
102 0.001955
70 0.001999
67 0.004013
83 0.002958
117 0.002014
142 0.001999
155 0.001998
156 0.003028
150 0.003029
149 0.002001
158 0.002001
176 0.000985
186 0.000977
200 0.000997
206 0.002999
169 0.002988
91 0.000996
60 0.000997
57 0.000996
73 0.00299
98 0.004007
135 0.002021
147 0.002003
135 0.001994
126 0.001994
127 0.001993
132 0.002983
135 0.002986
134 0.000979
134 0.001003
116 0.001995
62 0.001962
19 0.003991
11 0.00402
27 0.001993
44 0.003988
48 0.001996
46 0.002003
46 0.001991
34 0.003986
38 0.002994
77 0.002999
116 0.002986
157 0.002944
193 0.002972
217 0.004
194 0.003983
144 0.003981
108 0.001982
112 0.002004
131 0.002008
159 0.003989
186 0.003982
197 0.00201
187 0.001996
180 0.001993
184 0.005036
193 0.004987
213 0.004988
226 0.004983
240 0.001996
242 0.003023
192 0.002967
127 0.004993
88 0.004987
82 0.001994
100 0.002992
125 0.002991
153 0.003998
168 0.004021
155 0.003993
143 0.003987
146 0.001977
158 0.002001
170 0.002984
184 0.005003
199 0.004973
215 0.002994
207 0.002999
143 0.002983
80 0.005006
47 0.00502
58 0.003968
80 0.004989
110 0.002992
126 0.00399
131 0.003991
129 0.004979
127 0.004983
135 0.002985
148 0.003002
164 0.002999
179 0.00498
193 0.004986
213 0.004969
192 0.004982
115 0.002992
79 0.003994
71 0.003985
82 0.00598
101 0.005984
124 0.003991
139 0.003985
145 0.003978
145 0.004989
143 0.005984
152 0.004989
162 0.005978
175 0.005996
189 0.003992
201 0.003983
211 0.003959
193 0.005978
143 0.005978
95 0.003987
86 0.003986
96 0.004958
112 0.005984
138 0.004
148 0.005977
151 0.005978
149 0.003956
151 0.003992
158 0.003987
168 0.00599
177 0.005949
192 0.003985
202 0.003991
210 0.003993
193 0.006027
120 0.004995
101 0.006988
106 0.006974
131 0.004992
151 0.004986
164 0.004988
169 0.005977
166 0.005985
160 0.004985
160 0.00399
165 0.003988
175 0.00602
191 0.004992
200 0.006974
208 0.006981
201 0.004985
159 0.003993
122 0.004992
113 0.006982
121 0.006016
140 0.004984
151 0.005984
162 0.005979
159 0.006003
151 0.004972
148 0.006974
150 0.006982
161 0.004985
171 0.004998
183 0.005003
193 0.006978
200 0.006981
159 0.004987
100 0.004987
71 0.00598
88 0.00598
110 0.005974
131 0.006973
141 0.006973
155 0.004986
164 0.00499
167 0.004966
169 0.006979
172 0.006979
183 0.004986
192 0.005998
200 0.005992
198 0.005985
162 0.005975
130 0.005953
122 0.007949
130 0.007949
148 0.00598
162 0.005983
171 0.005982
172 0.007976
169 0.007979
166 0.005983
164 0.006976
172 0.006967
179 0.005982
187 0.006984
194 0.007969
177 0.007961
141 0.005994
118 0.005989
117 0.005989
132 0.007975
145 0.007012
157 0.005984
162 0.00696
159 0.006952
154 0.006977
154 0.006983
159 0.007009
162 0.007934
172 0.006978
178 0.006986
182 0.006937
147 0.007015
116 0.006974
109 0.006972
113 0.006982
134 0.006984
146 0.006974
152 0.006977
150 0.006985
145 0.007014
143 0.006978
145 0.006981
151 0.00698
159 0.006981
166 0.007012
172 0.006979
159 0.006983
108 0.006976
99 0.00696
104 0.006979
121 0.007018
132 0.007015
138 0.006973
139 0.006974
134 0.006979
130 0.007023
133 0.006007
140 0.00695
145 0.005991
155 0.006956
157 0.005985
133 0.006971
101 0.006019
88 0.006019
94 0.005989
104 0.005986
114 0.00599
122 0.006015
124 0.005929
117 0.006979
114 0.006971
116 0.007016
121 0.006959
129 0.006014
135 0.006011
140 0.006026
124 0.006014
82 0.005979
68 0.006016
70 0.006017
80 0.006018
89 0.006016
99 0.005977
99 0.006498
94 0.005983
92 0.006017
95 0.005981
101 0.00598
107 0.005977
116 0.005976
119 0.00598
96 0.005976
62 0.005984
45 0.006029
47 0.005974
55 0.005017
67 0.005018
71 0.005079
71 0.004985
68 0.00503
67 0.005019
72 0.004992
78 0.005982
85 0.005996
92 0.006027
98 0.006025
68 0.006024
34 0.006017
16 0.005975
19 0.005941
26 0.006022
35 0.005019
42 0.005013
47 0.005034
45 0.005019
42 0.005028
45 0.005017
53 0.004977
67 0.005021
75 0.004034
86 0.004991
90 0.004937
74 0.004946
38 0.003988
14 0.003989
10 0.004017
17 0.004035
24 0.004983
33 0.004954
41 0.005022
46 0.004981
47 0.005033
53 0.005019
63 0.005028
72 0.005056
82 0.005028
89 0.005033
99 0.00403
107 0.00365
113 0.00402
114 0.005012
90 0.004974
41 0.005062
35 0.003938
42 0.00398
48 0.003956
53 0.004021
60 0.003959
67 0.003961
68 0.004027
70 0.004022
65 0.00399
54 0.003945
48 0.005062
65 0.004987
81 0.004031
96 0.00402
104 0.004022
99 0.003991
92 0.00399
98 0.00399
92 0.003988
53 0.003945
38 0.003991
41 0.00399
48 0.004044
57 0.00399
68 0.00399
76 0.003955
78 0.003991
80 0.00303
89 0.003033
102 0.002957
116 0.003957
132 0.00399
142 0.003989
150 0.003951
157 0.003993
169 0.003955
177 0.002993
184 0.003003
181 0.002998
150 0.002991
116 0.00299
102 0.003024
105 0.003991
116 0.002987
123 0.002988
131 0.004021
136 0.003025
135 0.003023
137 0.003991
142 0.003941
153 0.003988
164 0.002992
172 0.002992
179 0.002993
185 0.003051
193 0.003057
198 0.003027
201 0.003023
206 0.003028
167 0.003023
131 0.002984
115 0.002993
120 0.003022
125 0.002027
130 0.002977
137 0.003024
142 0.001995
143 0.002026
142 0.001996
145 0.002003
157 0.002043
167 0.00298
175 0.003021
182 0.003026
191 0.002989
195 0.002033
200 0.001995
205 0.002029
210 0.003024
198 0.003031
147 0.002029
116 0.002027
109 0.002023
115 0.001997
119 0.002035
125 0.001996
131 0.001995
135 0.001993
135 0.002027
137 0.001997
144 0.001964
153 0.001967
165 0.001995
174 0.001994
186 0.002003
192 0.000997
197 0.002036
202 0.001995
207 0.002081
195 0.002002
159 0.001995
123 0.001997
106 0.002
107 0.000998
118 0.001996
124 0.001996
136 0.001966
139 0.001995
140 0.001995
141 0.000997
145 0.002012
157 0.001022
167 0.000987
175 0.000997
183 0.001004
191 0.001003
198 0.001995
202 0.002028
210 0.001996
215 0.001996
203 0.002022
163 0.001993
126 0.001995
109 0.001048
114 0.00101
123 0.001016
131 0.000998
139 0.000997
144 0.000997
143 0.001003
144 0.000996
151 0.000991
160 0.000997
169 0.000998
179 0.0
189 0.0
196 0.0
201 0.0
205 0.0
210 0.0
216 0.0
216 0.0
162 0.000998
128 0.000997
115 0.0
119 0.000959
130 0.000998
143 0.000997
151 0.000997
153 0.001035
150 0.000997
147 0.0
149 0.0
159 0.0
171 0.0
184 0.0
192 0.0
199 0.0
203 0.0
208 0.0
213 0.0
201 0.0
162 0.0
124 0.000997
106 0.0
113 0.0
127 0.0
140 0.002052
145 0.000965
146 0.0
144 0.001009
142 0.000997
147 0.002034
157 0.000998
167 0.001026
180 0.000964
188 0.0
199 0.0
204 0.0
203 0.001047
172 0.002026
129 0.000997
93 0.0
93 0.0
104 0.002032
115 0.002033
127 0.0
135 0.0
136 0.0
133 0.0
135 0.0
143 0.002027
153 0.002042
166 0.0
176 0.0
185 0.0
191 0.002029
198 0.002013
190 0.0
150 0.0
107 0.0
84 0.0
92 0.0
105 0.002017
116 0.002028
128 0.0
132 0.0
131 0.0
130 0.002031
132 0.001992
143 0.000967
153 0.0
164 0.0
180 0.000997
187 0.001014
195 0.001999
196 0.002045
152 0.0
108 0.000955
85 0.000992
84 0.003015
96 0.002051
109 0.001041
124 0.0
133 0.0
134 0.001012
132 0.0
134 0.0
141 0.001995
151 0.002029
165 0.0
174 0.000995
183 0.0
192 0.002028
197 0.002025
169 0.0
123 0.0
81 0.0
85 0.0
99 0.002001
112 0.002056
125 0.002992
135 0.001997
134 0.001995
131 0.001008
132 0.002994
137 0.002994
149 0.001998
160 0.001052
175 0.001995
183 0.001997
189 0.000994
184 0.002043
147 0.002025
92 0.001989
75 0.001994
81 0.002003
95 0.003042
110 0.003023
125 0.002006
129 0.001995
125 0.001997
124 0.001994
129 0.001994
138 0.003007
147 0.002958
160 0.001994
170 0.001013
177 0.000995
181 0.002975
157 0.003022
102 0.001991
78 0.001991
85 0.00199
100 0.002008
115 0.001997
127 0.003991
132 0.003026
127 0.001999
124 0.001996
126 0.002004
132 0.003999
141 0.003026
154 0.001985
163 0.002009
173 0.000998
151 0.001995
109 0.001002
76 0.003022
68 0.003022
82 0.001993
97 0.001997
111 0.001995
121 0.003989
123 0.00402
118 0.001997
118 0.003989
123 0.004002
137 0.001992
147 0.001033
157 0.000991
166 0.002985
161 0.004002
108 0.001992
71 0.001997
59 0.001993
65 0.003982
78 0.003997
101 0.00399
111 0.003989
113 0.001994
111 0.002992
112 0.002002
117 0.005003
127 0.004989
140 0.002008
148 0.001942
155 0.002001
151 0.003999
116 0.003994
49 0.00402
41 0.003989
53 0.002961
67 0.002994
82 0.002961
95 0.004997
100 0.00495
100 0.001981
101 0.00195
104 0.001993
111 0.00499
120 0.004987
133 0.004985
142 0.003989
142 0.002006
108 0.002969
66 0.002961
44 0.004985
44 0.004985
60 0.002992
74 0.003
89 0.002995
98 0.005025
100 0.004994
97 0.004985
101 0.004986
111 0.003
122 0.003
133 0.002997
144 0.004987
153 0.004985
158 0.002992
125 0.002992
77 0.002993
46 0.00503
41 0.004987
60 0.00502
74 0.004975
92 0.003025
99 0.003989
100 0.002993
98 0.005984
101 0.005992
112 0.003981
123 0.002999
133 0.002975
144 0.004973
154 0.004986
167 0.004986
166 0.005984
129 0.00599
67 0.003994
48 0.003995
51 0.003991
63 0.005971
77 0.005986
94 0.00399
102 0.003991
104 0.003989
102 0.005982
108 0.002981
117 0.005969
128 0.005984
142 0.003986
152 0.004004
161 0.003996
167 0.005997
166 0.005981
117 0.003987
72 0.003986
49 0.003983
51 0.006985
71 0.004989
86 0.006981
100 0.00695
104 0.004999
102 0.004985
100 0.003988
104 0.005983
113 0.005986
129 0.003988
140 0.003994
148 0.00498
162 0.004
154 0.00399
111 0.007045
64 0.007012
37 0.004974
42 0.004987
55 0.004982
68 0.006978
83 0.006978
94 0.004987
94 0.004981
90 0.004015
100 0.003973
114 0.005017
130 0.006981
143 0.006982
160 0.005018
171 0.004987
170 0.004985
135 0.007012
82 0.006978
37 0.004975
35 0.003991
48 0.005019
73 0.004974
89 0.00499
98 0.007017
103 0.007977
105 0.005986
109 0.005996
118 0.005984
133 0.008012
139 0.007978
153 0.005001
162 0.006024
169 0.005022
177 0.005017
160 0.004995
109 0.007982
59 0.007979
31 0.007975
34 0.005994
44 0.005996
54 0.005988
66 0.007979
78 0.007977
83 0.005991
86 0.005985
97 0.005988
109 0.006976
121 0.006987
135 0.007978
145 0.007978
155 0.005982
163 0.005984
171 0.005983
174 0.007967
155 0.007947
85 0.00598
44 0.005979
37 0.005983
47 0.005982
64 0.00696
76 0.006972
86 0.007012
92 0.00698
93 0.006969
96 0.005973
108 0.007011
120 0.007981
136 0.006981
144 0.005985
161 0.006986
168 0.006968
173 0.006965
179 0.007034
184 0.007015
170 0.005994
120 0.006982
68 0.006971
37 0.006978
40 0.007022
51 0.006021
61 0.006981
78 0.006973
86 0.006971
90 0.006024
93 0.00602
102 0.006984
115 0.006971
127 0.006966
143 0.006981
155 0.006983
164 0.006979
171 0.007009
178 0.006982
189 0.006953
192 0.006966
180 0.006957
113 0.006024
65 0.006012
42 0.004974
45 0.005986
58 0.005993
70 0.00601
80 0.007009
86 0.006975
84 0.006965
78 0.005986
83 0.006984
93 0.005976
103 0.005987
113 0.006016
124 0.005983
134 0.005984
148 0.00599
167 0.005973
182 0.005987
191 0.006027
143 0.005988
92 0.005985
56 0.005989
58 0.005985
74 0.005932
91 0.006014
106 0.006015
116 0.00598
115 0.005983
109 0.005982
105 0.006017
108 0.006014
121 0.006015
126 0.006018
131 0.005986
137 0.005978
141 0.006019
144 0.005035
142 0.004984
87 0.004991
30 0.004984
0 0.004995
0 0.004889
7 0.004969
36 0.004989
53 0.006031
65 0.005991
66 0.005942
67 0.005982
72 0.006045
85 0.005031
106 0.004978
123 0.004989
138 0.004986
151 0.005028
162 0.005028
177 0.005014
160 0.005024
84 0.004034
36 0.005
19 0.003996
24 0.00399
39 0.004952
58 0.005003
70 0.004995
76 0.005016
71 0.005029
64 0.00502
65 0.00502
74 0.00399
88 0.006014
99 0.005015
110 0.004049
118 0.004025
123 0.00403
134 0.004032
120 0.004023
69 0.004023
16 0.004974
57 0.004041
60 0.004978
69 0.003989
80 0.005038
89 0.005021
95 0.004975
96 0.004988
96 0.004021
98 0.004028
104 0.003999
110 0.004018
116 0.003109
121 0.003991
130 0.003995
135 0.002991
139 0.00395
134 0.00399
108 0.003991
80 0.003991
63 0.003997
62 0.00399
72 0.004027
79 0.003044
86 0.002992
92 0.004027
93 0.003992
93 0.004036
95 0.003974
102 0.003991
107 0.003991
113 0.002991
120 0.003018
127 0.003085
135 0.004031
140 0.003026
145 0.003022
135 0.002992
91 0.002992
77 0.003991
77 0.00399
89 0.003984
99 0.002994
109 0.003991
116 0.003757
120 0.003015
123 0.002993
125 0.002994
131 0.003025
146 0.002993
156 0.002992
165 0.003959
173 0.002992
181 0.002978
186 0.002992
190 0.002993
184 0.003042
160 0.002992
126 0.003019
118 0.003002
120 0.002992
133 0.002998
141 0.002992
147 0.001995
149 0.002002
145 0.002038
145 0.001987
146 0.002032
151 0.002034
157 0.002042
165 0.002994
170 0.002976
174 0.002972
180 0.002993
180 0.003011
163 0.001995
135 0.002033
111 0.001996
110 0.001995
116 0.002027
124 0.001998
131 0.001991
136 0.002025
135 0.001967
131 0.001954
131 0.002054
135 0.002992
141 0.00204
147 0.001995
152 0.001996
159 0.002029
163 0.001995
166 0.002034
154 0.001958
126 0.001964
96 0.002995
91 0.001967
103 0.003029
111 0.001996
119 0.001999
124 0.002032
124 0.000998
122 0.000997
122 0.000998
126 0.002032
132 0.001022
139 0.000996
147 0.002026
152 0.001996
160 0.000998
162 0.000997
147 0.000991
118 0.002017
93 0.002041
83 0.000997
88 0.000997
94 0.000975
101 0.001996
107 0.000998
111 0.001995
110 0.000992
110 0.000998
113 0.001005
119 0.000997
123 0.000998
131 0.000997
139 0.000998
144 0.000997
147 0.000991
146 0.000997
124 0.000998
68 0.000997
38 0.0
32 0.000998
41 0.0
52 0.000997
63 0.0
73 0.0
78 0.0
78 0.0
78 0.0
83 0.0
92 0.0
105 0.000998
114 0.0
127 0.0
134 0.0
139 0.0
144 0.0
134 0.0
86 0.0
54 0.001021
41 0.001
44 0.0
53 0.0
62 0.0
75 0.0
83 0.000944
84 0.0
86 0.0
92 0.0
104 0.001007
111 0.0
125 0.0
133 0.0
140 0.0
147 0.000997
152 0.000997
159 0.0
133 0.0
96 0.0
68 0.001999
61 0.0
69 0.0
78 0.0
89 0.001992
99 0.002002
103 0.0
101 0.0
102 0.001004
109 0.0
118 0.000999
126 0.002026
135 0.002028
144 0.0
149 0.0
153 0.0
157 0.00203
159 0.002044
128 0.0
90 0.0
66 0.0
67 0.0
78 0.0
89 0.002044
101 0.002042
108 0.0
106 0.000952
103 0.0
106 0.002025
112 0.002036
123 0.0
132 0.0
141 0.0
150 0.0
156 0.0
160 0.002022
152 0.003065
108 0.0
77 0.000967
66 0.0
72 0.001982
82 0.002044
96 0.0
107 0.0
109 0.0
94 0.0
89 0.0
91 0.002043
97 0.002042
107 0.0
116 0.0
126 0.0
133 0.002049
140 0.001965
137 0.0
103 0.0
63 0.0
35 0.000982
40 0.00095
50 0.001
61 0.001994
71 0.002039
81 0.000965
83 0.0
85 0.0
90 0.002028
99 0.002036
114 0.0
124 0.0
140 0.0
148 0.0
156 0.0
157 0.002031
130 0.002024
77 0.000967
54 0.000962
51 0.001996
58 0.002992
67 0.003075
78 0.0
87 0.0
91 0.002033
91 0.002008
94 0.001999
100 0.002047
109 0.002027
124 0.001995
134 0.00198
142 0.002014
149 0.002026
154 0.003028
152 0.001993
121 0.001994
57 0.001994
43 0.002
46 0.002991
55 0.002993
64 0.002993
80 0.002034
87 0.001997
88 0.003006
89 0.004023
91 0.002988
99 0.001996
111 0.002992
124 0.001991
134 0.002002
143 0.001998
152 0.002997
157 0.002986
161 0.001996
142 0.001988
101 0.001991
66 0.002992
52 0.002991
59 0.003004
73 0.003985
89 0.001026
98 0.001024
102 0.002001
101 0.003002
102 0.00304
110 0.001996
120 0.001996
131 0.001993
141 0.002993
150 0.004001
160 0.002011
168 0.004035
176 0.002003
167 0.001993
132 0.002003
94 0.001993
72 0.00399
70 0.004022
85 0.002011
98 0.002031
110 0.001982
118 0.003989
119 0.003997
114 0.00399
115 0.003989
118 0.002982
121 0.002039
129 0.002026
139 0.005023
149 0.004025
160 0.00198
166 0.001996
157 0.001994
120 0.004001
81 0.003992
58 0.003989
66 0.003991
82 0.001995
95 0.001999
104 0.001995
106 0.004033
102 0.004031
99 0.00299
102 0.002988
111 0.002994
121 0.005001
131 0.004982
145 0.00502
151 0.005013
155 0.002996
129 0.002974
85 0.002019
51 0.004988
39 0.004032
46 0.002035
56 0.002942
67 0.002985
77 0.005986
79 0.005984
76 0.004986
76 0.004987
83 0.002987
93 0.003003
103 0.002991
112 0.004987
122 0.004986
135 0.003024
143 0.002999
135 0.003978
98 0.006
57 0.005995
32 0.005984
39 0.006019
53 0.002977
65 0.00304
76 0.002996
84 0.005024
86 0.005022
88 0.00399
94 0.002992
103 0.00296
114 0.005985
125 0.005948
142 0.003988
150 0.005986
157 0.005984
160 0.003993
134 0.003035
90 0.003959
58 0.005989
47 0.005984
56 0.003991
68 0.003035
79 0.003024
90 0.006977
99 0.004022
99 0.00598
101 0.005984
110 0.003981
120 0.003982
132 0.003986
143 0.005984
152 0.005998
164 0.00395
171 0.003988
178 0.003983
158 0.003974
115 0.003997
79 0.006059
64 0.007021
73 0.003989
85 0.003944
96 0.004948
108 0.006024
115 0.006027
114 0.004982
113 0.004991
117 0.004979
131 0.004983
142 0.00499
156 0.007984
162 0.006981
172 0.003991
178 0.004949
184 0.005995
185 0.007979
144 0.007984
102 0.004991
77 0.004982
74 0.004991
94 0.004943
107 0.004985
120 0.006925
124 0.007031
114 0.004956
106 0.004992
106 0.004982
115 0.007016
128 0.00702
143 0.00498
154 0.004988
161 0.004992
162 0.004989
164 0.004988
140 0.007989
99 0.007982
68 0.005
59 0.004983
67 0.004953
80 0.008036
95 0.007023
115 0.004992
120 0.005989
118 0.00599
116 0.005982
120 0.005984
127 0.005983
138 0.007979
152 0.007951
162 0.005978
170 0.005987
176 0.005999
166 0.007955
125 0.007947
84 0.005986
63 0.004992
69 0.006014
83 0.00598
96 0.005986
108 0.007979
114 0.00794
114 0.005996
112 0.005982
115 0.005989
123 0.007979
137 0.007833
147 0.005984
157 0.005967
171 0.006975
180 0.006947
178 0.005974
130 0.007032
85 0.006947
60 0.005969
58 0.005982
68 0.005977
84 0.007923
97 0.006947
108 0.005979
111 0.006967
110 0.00696
114 0.006691
122 0.006946
132 0.006958
143 0.006981
154 0.005998
164 0.005983
173 0.005939
182 0.006017
173 0.007052
134 0.006955
78 0.005986
64 0.005957
75 0.005996
89 0.00695
102 0.006952
114 0.006982
121 0.006959
121 0.006976
120 0.006948
124 0.007007
132 0.007016
145 0.006976
153 0.006974
172 0.006952
178 0.006969
186 0.006974
190 0.007013
162 0.006936
118 0.006971
87 0.006984
79 0.006164
91 0.006009
105 0.005986
125 0.006043
138 0.006023
136 0.005984
131 0.006983
128 0.005975
135 0.005982
150 0.006018
165 0.005993
181 0.00598
191 0.004987
200 0.005982
205 0.005985
182 0.00603
112 0.006016
90 0.006018
91 0.006016
103 0.005932
118 0.005929
132 0.005988
140 0.006015
137 0.005951
132 0.004998
132 0.004988
137 0.005027
146 0.005023
162 0.004995
171 0.005022
180 0.005989
177 0.005997
141 0.006003
97 0.005028
70 0.005952
65 0.00602
75 0.004983
88 0.004986
102 0.004988
113 0.005017
114 0.005017
112 0.005025
115 0.004981
124 0.004992
134 0.004978
145 0.005056
154 0.005021
166 0.004982
170 0.004984
142 0.004994
95 0.005028
60 0.004981
52 0.005033
63 0.004952
79 0.005019
92 0.005017
102 0.005033
104 0.004986
104 0.004998
107 0.005017
114 0.004983
124 0.004978
136 0.004988
146 0.004028
161 0.004987
169 0.005032
153 0.005992
108 0.00465
66 0.004962
48 0.005018
50 0.005077
65 0.004987
77 0.004974
91 0.00503
101 0.005045
104 0.005027
105 0.004033
109 0.005004
121 0.005021
133 0.004031
144 0.004034
153 0.003996
163 0.003993
170 0.00399
175 0.00399
150 0.003992
103 0.003957
65 0.004012
55 0.003991
66 0.004054
78 0.00399
96 0.003068
105 0.002992
109 0.003992
109 0.003035
108 0.002992
114 0.00401
123 0.003032
134 0.002951
146 0.003978
165 0.003989
173 0.003987
181 0.00403
184 0.003945
156 0.002992
109 0.003991
73 0.002992
60 0.00298
70 0.002992
83 0.002994
98 0.002993
117 0.002994
118 0.003028
116 0.003018
117 0.002997
125 0.002999
136 0.002992
147 0.003016
157 0.002998
167 0.001995
177 0.003989
183 0.001959
188 0.001982
158 0.002991
112 0.003007
79 0.001995
70 0.003031
84 0.002995
100 0.003018
116 0.002992
129 0.003023
133 0.002963
127 0.002958
124 0.001995
128 0.002003
142 0.001995
152 0.002039
162 0.00202
171 0.002023
181 0.001995
186 0.002025
175 0.002027
133 0.002024
91 0.002227
67 0.002043
74 0.000997
88 0.001996
115 0.002992
127 0.00198
129 0.001994
125 0.002033
121 0.002027
125 0.002024
134 0.001989
145 0.002045
155 0.002039
165 0.001995
177 0.001989
183 0.001995
144 0.001008
95 0.000992
64 0.001023
57 0.000997
66 0.001025
85 0.001995
100 0.002032
112 0.002031
117 0.001993
116 0.001995
114 0.001995
118 0.000996
135 0.000997
145 0.001995
155 0.000994
165 0.002027
173 0.002042
181 0.001996
158 0.001005
109 0.000997
67 0.000998
50 0.002041
57 0.000997
71 0.001002
94 0.0
105 0.0
110 0.0
109 0.0
108 0.0
115 0.000997
124 0.001053
135 0.000998
147 0.000963
157 0.00097
168 0.000998
177 0.000996
159 0.000997
113 0.000998
72 0.000968
53 0.000962
57 0.000997
75 0.001
89 0.0
104 0.000997
112 0.0
113 0.0
110 0.0
113 0.0
127 0.0
138 0.0
149 0.0
159 0.0
167 0.0
177 0.000997
182 0.000997
162 0.0
116 0.0
77 0.0
63 0.0
73 0.0
99 0.00095
113 0.0
122 0.0
122 0.0
118 0.0
117 0.0
123 0.0
133 0.0
148 0.001013
158 0.000996
168 0.0
180 0.00099
181 0.0
152 0.003041
106 0.003043
67 0.0
65 0.0
76 0.0
92 0.0
107 0.002047
122 0.0
123 0.0
118 0.0
117 0.001002
123 0.0
134 0.002999
145 0.003046
158 0.0
167 0.0
175 0.0
175 0.002048
143 0.003025
83 0.0
58 0.0
57 0.0
77 0.0
90 0.0
104 0.002041
111 0.002022
109 0.0
105 0.0
107 0.0
112 0.001961
121 0.002009
136 0.001011
155 0.00095
180 0.000981
217 0.000995
222 0.0
188 0.003
144 0.003024
113 0.0
115 0.0
127 0.0
140 0.0
150 0.003027
157 0.003024
154 0.0
145 0.0
144 0.0
141 0.0
139 0.000996
144 0.001987
153 0.00203
152 0.001
143 0.000951
135 0.000957
103 0.002008
46 0.001991
0 0.0
0 0.0
0 0.0
0 0.0
0 0.0
0 0.003027
0 0.003024
0 0.002027
4 0.0
22 0.0
51 0.00399
79 0.003026
110 0.001993
133 0.002
157 0.000998
150 0.001994
132 0.001972
111 0.002992
92 0.002992
81 0.001997
84 0.002979
96 0.003035
105 0.002993
113 0.003034
114 0.003004
107 0.002026
97 0.00299
98 0.002
103 0.002025
109 0.004031
117 0.00399
127 0.002944
133 0.001996
140 0.002018
141 0.00399
112 0.003039
55 0.00201
31 0.002991
34 0.002991
48 0.002999
63 0.002976
78 0.003949
85 0.003989
83 0.003028
82 0.001997
84 0.001978
90 0.003995
101 0.00399
112 0.003987
130 0.003989
140 0.003993
147 0.00199
126 0.002007
83 0.002003
50 0.00498
38 0.003991
49 0.001984
62 0.001995
79 0.001994
94 0.003943
100 0.00399
96 0.003994
95 0.003998
103 0.001979
108 0.004987
122 0.003001
132 0.004986
143 0.004987
154 0.002976
141 0.001975
96 0.001991
56 0.004987
38 0.004986
48 0.003983
62 0.004943
82 0.002002
94 0.001987
98 0.001989
97 0.004021
97 0.00401
103 0.001979
113 0.00298
123 0.003007
135 0.005019
145 0.005019
160 0.004954
154 0.004992
98 0.002025
61 0.002999
46 0.002024
49 0.006026
60 0.004987
76 0.001994
90 0.002963
99 0.002987
101 0.005986
101 0.006029
106 0.004982
114 0.00498
128 0.00301
139 0.002988
149 0.003009
159 0.005027
166 0.004941
153 0.00295
110 0.002989
70 0.002992
52 0.005985
52 0.005985
69 0.005985
81 0.005989
96 0.002991
101 0.002993
103 0.003023
103 0.005988
107 0.006016
118 0.003028
128 0.003988
139 0.002989
149 0.002958
158 0.005984
170 0.003955
174 0.006983
158 0.006021
99 0.003992
66 0.00398
56 0.00398
60 0.007019
70 0.007011
85 0.003998
97 0.003024
104 0.003996
105 0.006018
107 0.003976
112 0.005957
121 0.006951
136 0.002995
146 0.003989
156 0.003985
164 0.007004
170 0.007016
178 0.004993
181 0.003995
161 0.004
118 0.007015
70 0.003964
68 0.00698
78 0.006981
95 0.003977
108 0.003988
118 0.004986
120 0.007012
118 0.006981
118 0.004988
123 0.005016
131 0.004939
141 0.006991
158 0.004952
166 0.007007
173 0.006981
181 0.004987
184 0.004984
166 0.004994
125 0.006985
89 0.006977
75 0.004988
82 0.004987
95 0.004988
119 0.004975
128 0.004996
127 0.007969
124 0.007979
122 0.005025
127 0.004987
136 0.004986
146 0.007979
159 0.007996
168 0.004976
175 0.004975
181 0.005982
163 0.004975
120 0.004999
76 0.007952
68 0.007032
72 0.007961
89 0.005994
102 0.005987
115 0.005972
121 0.007957
119 0.007946
117 0.005985
119 0.005978
134 0.00598
144 0.005986
154 0.004984
167 0.007978
175 0.00698
182 0.006019
174 0.005988
133 0.005947
80 0.006953
64 0.006948
67 0.005995
79 0.005855
100 0.005931
112 0.005949
118 0.005
117 0.00797
117 0.007017
120 0.005987
128 0.005984
139 0.006012
153 0.006984
163 0.006984
172 0.006022
182 0.006809
171 0.005954
128 0.005959
86 0.005981
62 0.006022
64 0.006946
73 0.005994
89 0.005961
101 0.006948
108 0.006987
108 0.005982
108 0.006981
108 0.006968
120 0.006969
135 0.006975
142 0.005982
156 0.007011
165 0.006943
172 0.006934
177 0.005968
158 0.006024
99 0.007018
70 0.007031
61 0.006059
69 0.006978
93 0.00597
108 0.006008
120 0.005994
124 0.006039
122 0.005985
122 0.005986
128 0.005954
139 0.005953
153 0.006013
166 0.006028
181 0.005952
189 0.005987
197 0.004987
188 0.005984
146 0.004987
102 0.005984
77 0.006018
75 0.00502
89 0.005983
103 0.005981
118 0.004988
127 0.006019
128 0.005985
123 0.005991
124 0.006014
133 0.005988
143 0.004987
152 0.004987
162 0.00502
172 0.005029
185 0.004976
190 0.004988
170 0.004917
126 0.005027
90 0.004997
76 0.005069
86 0.005042
106 0.004988
123 0.00496
134 0.004979
135 0.005001
130 0.005026
128 0.003996
132 0.005012
141 0.004969
149 0.004987
159 0.00505
177 0.005027
187 0.005022
167 0.004981
122 0.004975
85 0.004987
69 0.005021
72 0.005027
90 0.004979
107 0.004994
122 0.005005
130 0.005028
130 0.00506
124 0.003992
127 0.003948
137 0.003983
146 0.004987
156 0.005
167 0.004989
177 0.005053
177 0.004953
138 0.004989
93 0.004983
66 0.00503
60 0.003991
77 0.004015
90 0.002943
108 0.003975
115 0.003965
115 0.005019
113 0.005023
114 0.003989
121 0.004003
134 0.005019
145 0.00398
157 0.005043
167 0.004013
179 0.003989
152 0.00402
105 0.003954
64 0.004022
58 0.003983
66 0.004024
79 0.004033
94 0.003992
110 0.004048
116 0.003996
116 0.003989
116 0.002994
126 0.00298
137 0.002988
149 0.003025
165 0.002987
176 0.003034
186 0.00399
189 0.002992
164 0.002992
102 0.002993
73 0.00396
65 0.001991
71 0.00399
92 0.003977
105 0.003001
113 0.003035
115 0.002952
112 0.003046
112 0.002992
117 0.002992
125 0.00303
138 0.003009
148 0.002993
156 0.002992
164 0.002993
163 0.002985
120 0.002991
67 0.002992
35 0.002992
36 0.002993
48 0.003027
60 0.003032
81 0.00303
119 0.001996
127 0.002993
129 0.002028
132 0.002026
151 0.002996
165 0.002017
179 0.002032
197 0.002997
213 0.00302
231 0.003033
234 0.003027
204 0.001995
162 0.001997
150 0.001965
155 0.003024
168 0.002008
195 0.001995
206 0.002047
205 0.002027
194 0.002004
186 0.002025
184 0.001995
186 0.002031
191 0.001979
199 0.002027
205 0.001996
211 0.001996
189 0.000962
143 0.000994
104 0.002012
88 0.002024
91 0.000998
105 0.001997
114 0.0
131 0.001996
136 0.001993
133 0.001994
129 0.002031
131 0.002992
143 0.001965
153 0.003016
163 0.000997
173 0.002028
181 0.002026
163 0.003023
119 0.002027
80 0.001996
62 0.001995
65 0.0
80 0.00196
93 0.001996
112 0.002037
116 0.002031
114 0.00199
114 0.001948
119 0.000997
131 0.000997
142 0.000998
151 0.001007
160 0.0
168 0.000952
170 0.000998
138 0.00099
68 0.000963
53 0.001008
56 0.0
67 0.0
79 0.000998
97 0.001009
106 0.001
107 0.000997
107 0.000998
109 0.000998
118 0.001002
128 0.000998
147 0.000995
157 0.0
166 0.0
174 0.0
177 0.0
136 0.0
89 0.0
60 0.0
54 0.0
62 0.0
77 0.000999
90 0.0
105 0.000997
107 0.0
107 0.0
109 0.0
115 0.0
125 0.0
140 0.0
151 0.0
162 0.0
168 0.0
175 0.0
182 0.0
151 0.0
91 0.0
64 0.0
60 0.0
69 0.0
86 0.000945
100 0.003035
110 0.003036
112 0.0
111 0.0
113 0.000973
119 0.003026
135 0.000986
146 0.002025
157 0.001982
169 0.0
176 0.000962
182 0.000952
184 0.002029
156 0.002992
98 0.0
73 0.0
70 0.0
80 0.002871
104 0.0
118 0.003042
123 0.002963
116 0.0
111 0.0
111 0.0
116 0.003024
123 0.003041
135 0.0
144 0.0
154 0.000951
166 0.000949
166 0.000953
133 0.002025
84 0.002028
47 0.000981
48 0.0
64 0.0
82 0.001961
102 0.001963
121 0.000955
123 0.000952
118 0.000951
118 0.0
126 0.0
135 0.001968
144 0.002024
153 0.0
157 0.0
159 0.000987
153 0.002024
117 0.001993
62 0.001023
42 0.0
45 0.0
77 0.0
99 0.0
117 0.00203
126 0.002026
124 0.0
121 0.0
124 0.0
133 0.0
147 0.002041
163 0.001994
179 0.0
189 0.0
193 0.001025
157 0.00096
109 0.000982
77 0.002995
71 0.001987
84 0.0
97 0.0
112 0.0
124 0.002993
129 0.003027
129 0.0
131 0.0
142 0.0
148 0.001954
162 0.0
172 0.002025
180 0.002026
189 0.000994
188 0.0
152 0.0
100 0.002992
67 0.003019
60 0.0
69 0.0
91 0.0
104 0.0
114 0.0
117 0.002987
117 0.003001
120 0.0
127 0.000964
138 0.000964
149 0.002961
160 0.002994
167 0.002883
169 0.003001
165 0.0
124 0.001978
75 0.00198
44 0.004016
38 0.003988
50 0.001997
64 0.001988
78 0.0
89 0.004023
94 0.004023
94 0.002993
95 0.000994
104 0.002992
114 0.001007
126 0.00299
137 0.002997
146 0.002992
158 0.003031
164 0.002005
157 0.002015
116 0.003989
72 0.004022
44 0.002994
48 0.002991
72 0.002991
88 0.002992
102 0.00299
107 0.004075
105 0.003989
104 0.001997
108 0.001988
116 0.002
127 0.002994
139 0.003988
149 0.004015
161 0.003008
172 0.003988
164 0.001994
123 0.001954
80 0.002037
59 0.00399
60 0.003992
77 0.001994
93 0.003009
110 0.002992
120 0.004987
120 0.004989
114 0.004986
116 0.004954
127 0.003034
137 0.002989
147 0.002997
156 0.004983
165 0.004985
174 0.002992
159 0.002028
113 0.003023
73 0.005023
54 0.005023
65 0.004987
79 0.004991
99 0.001995
110 0.003
113 0.002004
111 0.004993
110 0.004955
117 0.001995
127 0.002982
139 0.002997
150 0.005984
161 0.004992
175 0.00499
164 0.004984
104 0.002992
65 0.002995
50 0.003003
54 0.005959
67 0.005999
86 0.002991
100 0.002984
107 0.002993
108 0.00501
107 0.005989
113 0.004993
123 0.004985
138 0.001992
149 0.001994
159 0.001983
168 0.005986
174 0.005991
140 0.002995
91 0.002991
58 0.002985
49 0.005984
56 0.005984
76 0.00598
90 0.005981
104 0.003988
106 0.00396
106 0.00302
107 0.005984
113 0.005984
123 0.005983
138 0.003009
149 0.003038
160 0.003
169 0.006025
170 0.002991
131 0.005995
85 0.006984
54 0.003995
55 0.004003
66 0.003992
78 0.006952
92 0.006981
105 0.003986
108 0.003984
108 0.004988
109 0.007047
121 0.004989
131 0.005952
143 0.005984
156 0.004018
165 0.004987
174 0.003998
177 0.007011
155 0.007014
95 0.003991
65 0.003959
58 0.003988
66 0.007064
87 0.003987
102 0.006988
112 0.006978
114 0.004981
113 0.003991
116 0.004986
122 0.006967
131 0.007013
145 0.004988
155 0.003992
164 0.00394
172 0.007044
179 0.003983
150 0.006981
92 0.008008
70 0.00498
69 0.003989
79 0.003977
93 0.006976
109 0.006981
123 0.004985
124 0.004017
121 0.005018
122 0.004989
130 0.004977
143 0.007975
150 0.007494
163 0.004986
171 0.00498
179 0.004984
170 0.007962
129 0.007974
87 0.004989
67 0.005019
68 0.004983
89 0.004986
106 0.004986
119 0.007962
124 0.007009
122 0.00798
119 0.004984
122 0.004989
131 0.005983
144 0.006948
155 0.006993
164 0.005979
173 0.005006
167 0.00595
123 0.003982
80 0.004974
60 0.007975
60 0.007962
76 0.005988
89 0.005982
104 0.005992
115 0.006982
116 0.006997
115 0.005983
116 0.005982
130 0.005984
141 0.00598
152 0.006015
165 0.006981
172 0.007972
179 0.005976
155 0.004967
107 0.005984
61 0.006986
55 0.006948
63 0.00598
75 0.004984
99 0.005977
109 0.005029
114 0.005984
113 0.007044
113 0.006945
119 0.005984
128 0.006631
140 0.005951
155 0.006983
165 0.006986
174 0.005982
181 0.005953
119 0.005976
75 0.005985
55 0.006027
56 0.006014
67 0.00602
84 0.005985
94 0.005984
107 0.005943
114 0.006979
114 0.005984
115 0.00698
125 0.005985
140 0.005981
156 0.005984
167 0.00598
178 0.006028
187 0.006017
194 0.005981
170 0.005976
122 0.005996
83 0.007022
71 0.005985
83 0.005985
95 0.006037
120 0.005983
130 0.005983
133 0.005984
131 0.005981
131 0.006019
135 0.005989
142 0.005983
155 0.006018
164 0.00495
174 0.004983
183 0.004996
194 0.004976
193 0.005019
140 0.005989
94 0.00599
72 0.006006
72 0.006014
84 0.006002
104 0.005955
118 0.005981
127 0.005989
128 0.005989
126 0.005039
127 0.004989
136 0.00502
149 0.004999
160 0.004987
170 0.00499
179 0.005018
188 0.004986
195 0.005001
173 0.004995
126 0.004983
90 0.004024
79 0.005027
92 0.005023
109 0.005018
132 0.004954
139 0.00498
137 0.005011
132 0.005024
130 0.005023
138 0.004971
148 0.004992
159 0.005024
170 0.006037
179 0.005017
189 0.003984
175 0.005018
113 0.004985
77 0.003986
66 0.00402
73 0.004031
88 0.004021
110 0.004007
123 0.00404
128 0.004995
126 0.005027
122 0.005024
128 0.004027
137 0.003989
152 0.004992
162 0.004963
