132 0.027925
108 0.002987
91 0.001993
90 0.001011
93 0.000998
99 0.001145
112 0.000971
123 0.001022
125 0.000999
130 0.001963
143 0.001956
153 0.001963
167 0.002013
176 0.001995
188 0.001995
198 0.002007
203 0.001994
212 0.001995
217 0.001859
225 0.001995
222 0.002992
181 0.00399
102 0.003959
79 0.004948
80 0.00495
83 0.006981
93 0.00698
104 0.007944
113 0.006991
117 0.005982
120 0.005984
131 0.002992
146 0.003026
154 0.002981
165 0.00196
172 0.001995
187 0.000994
196 0.001007
202 0.00095
209 0.000997
216 0.000993
222 0.0
181 0.0
127 0.0
71 0.0
67 0.0
72 0.0
79 0.0
88 0.0
102 0.0
106 0.0
108 0.0
117 0.0
132 0.0
141 0.0
157 0.0
165 0.000959
177 0.000965
190 0.000966
196 0.000965
205 0.000966
210 0.000945
218 0.000971
224 0.000996
197 0.000999
113 0.000966
79 0.000966
66 0.00196
73 0.001963
80 0.00296
93 0.002962
103 0.003959
103 0.004998
104 0.00797
112 0.006014
119 0.007017
131 0.007016
146 0.007015
155 0.006009
166 0.005984
172 0.006029
181 0.005027
192 0.003989
188 0.004
119 0.003989
68 0.005035
51 0.004023
57 0.005022
65 0.004036
79 0.003974
95 0.003957
98 0.003989
99 0.004161
107 0.002992
116 0.003959
130 0.000998
142 0.0
150 0.0
160 0.000963
165 0.0
175 0.0
184 0.0
165 0.0
78 0.000965
28 0.001994
22 0.00296
28 0.003014
32 0.002962
49 0.002998
64 0.005001
71 0.004841
74 0.004987
85 0.006027
95 0.005984
112 0.005976
125 0.006971
136 0.007966
146 0.007018
155 0.007978
164 0.007123
174 0.007012
178 0.007014
188 0.007015
129 0.006016
49 0.003986
9 0.004022
9 0.003031
10 0.002034
15 0.003026
32 0.002029
49 0.002991
58 0.003037
62 0.003023
76 0.002992
94 0.002003
105 0.000997
123 0.0
133 0.0
144 0.0
157 0.0
164 0.0
175 0.0
185 0.000997
192 0.001995
177 0.002
75 0.00498
30 0.005976
11 0.00583
16 0.006034
17 0.005984
28 0.00598
46 0.005992
57 0.00599
63 0.006983
68 0.00699
85 0.006982
96 0.007014
115 0.007015
131 0.006981
140 0.007015
153 0.006977
160 0.006969
169 0.007016
179 0.005983
185 0.006017
192 0.004021
112 0.004102
37 0.002992
11 0.002027
13 0.001994
16 0.002042
23 0.001995
45 0.00204
56 0.001995
62 0.002026
67 0.001994
81 0.002026
100 0.000996
112 0.001996
131 0.0
143 0.0
151 0.000997
162 0.001004
168 0.001009
179 0.001008
190 0.000997
195 0.001995
136 0.001996
46 0.003045
24 0.004025
26 0.004005
33 0.003796
47 0.004035
68 0.003982
74 0.003989
75 0.00504
82 0.005993
90 0.006979
109 0.006982
126 0.006984
135 0.006866
147 0.00698
156 0.00502
162 0.004044
171 0.004008
179 0.003999
147 0.004033
53 0.005017
15 0.003033
15 0.003036
23 0.003025
38 0.001043
57 0.001994
66 0.001036
67 0.002029
75 0.002043
85 0.002027
105 0.002028
122 0.0
133 0.0
144 0.0
152 0.0
161 0.0
173 0.0
167 0.0
70 0.0
0 0.000958
0 0.002989
0 0.004002
0 0.003999
1 0.005999
27 0.006022
36 0.00598
43 0.006984
57 0.00698
70 0.00698
91 0.007015
109 0.006011
123 0.007014
138 0.00699
151 0.007005
161 0.007011
172 0.007979
180 0.007937
194 0.007009
195 0.007981
102 0.006992
10 0.00695
0 0.006964
0 0.006981
0 0.005018
65 0.005009
81 0.003989
88 0.003991
92 0.003013
97 0.002992
108 0.000998
114 0.001029
126 0.001001
132 0.000963
140 0.000999
147 0.001003
152 0.000994
158 0.0
164 0.000998
167 0.000987
174 0.001014
177 0.001003
142 0.000998
92 0.000997
82 0.000997
81 0.002025
81 0.001876
84 0.00299
97 0.003039
103 0.00299
108 0.003013
112 0.004
117 0.004007
127 0.005963
134 0.006016
141 0.006005
146 0.006016
152 0.006021
157 0.006025
163 0.006016
166 0.006025
172 0.006016
175 0.005992
180 0.00602
155 0.006978
123 0.006938
96 0.004984
91 0.004986
92 0.00397
93 0.003993
102 0.004986
110 0.003987
113 0.004991
114 0.003959
119 0.004986
126 0.004976
133 0.004975
144 0.003987
153 0.001984
158 0.002
163 0.000997
170 0.0
174 0.0
180 0.001
186 0.001995
190 0.001998
165 0.002005
126 0.002028
86 0.001995
83 0.001999
85 0.002003
86 0.002023
92 0.001996
103 0.001995
107 0.002833
109 0.003005
116 0.003992
125 0.004995
134 0.004993
142 0.005017
148 0.004985
154 0.004984
161 0.004995
165 0.005022
170 0.005028
176 0.005987
179 0.007012
185 0.007044
177 0.007011
117 0.007014
89 0.007971
78 0.007947
78 0.007949
80 0.007145
84 0.00599
95 0.005982
101 0.004959
103 0.003988
108 0.003993
113 0.003989
124 0.003992
135 0.003022
141 0.004023
149 0.003001
153 0.003994
159 0.002994
164 0.001
170 0.0
173 0.000966
178 0.00101
161 0.000998
100 0.001996
73 0.001995
73 0.001997
77 0.001969
81 0.002996
88 0.004042
97 0.003993
97 0.003951
101 0.00502
108 0.005039
117 0.005021
126 0.00502
135 0.005037
140 0.004955
148 0.004908
153 0.004988
158 0.005042
164 0.005025
168 0.004986
172 0.00603
125 0.007067
88 0.007016
65 0.00602
65 0.003989
68 0.004023
72 0.004008
80 0.004024
89 0.003992
91 0.003995
94 0.001978
100 0.002042
111 0.0
118 0.0
128 0.0
136 0.0
142 0.0
148 0.001
154 0.001995
157 0.002022
164 0.002019
169 0.00204
139 0.003008
78 0.005021
61 0.004024
60 0.007041
63 0.006102
66 0.006014
74 0.005032
84 0.005159
86 0.004028
87 0.005007
96 0.004985
103 0.004981
115 0.004022
121 0.004948
131 0.005021
139 0.004068
143 0.004985
150 0.004024
155 0.004987
163 0.004034
140 0.004194
104 0.002995
72 0.004002
69 0.002029
74 0.001035
84 0.00116
91 0.001045
98 0.000997
97 0.0
98 0.0
106 0.0
117 0.0
124 0.0
134 0.0
138 0.0
145 0.000953
151 0.000997
158 0.000998
143 0.000999
88 0.0
68 0.000902
65 0.001031
69 0.000998
78 0.003039
92 0.002992
96 0.003004
97 0.003017
101 0.002992
108 0.002996
120 0.002992
127 0.003042
137 0.002993
143 0.00503
148 0.005896
154 0.006018
159 0.006026
136 0.006019
74 0.006015
54 0.006015
48 0.00608
49 0.006017
51 0.005984
67 0.006015
76 0.006018
83 0.005984
86 0.006968
92 0.006966
105 0.006972
119 0.006017
127 0.005019
137 0.005105
145 0.006023
152 0.004023
159 0.005984
165 0.005019
171 0.006016
179 0.005022
169 0.002992
94 0.001955
50 0.000998
45 0.002037
41 0.000957
39 0.001996
49 0.0
65 0.0
72 0.0
78 0.0
86 0.0
94 0.0
108 0.0
116 0.0
128 0.0
139 0.0
144 0.0
153 0.0
159 0.0
166 0.0
173 0.000965
179 0.0
181 0.001037
118 0.000966
74 0.001023
48 0.000972
47 0.000965
44 0.000999
50 0.003
61 0.002959
76 0.002993
81 0.002958
85 0.002959
97 0.002959
104 0.003958
118 0.004989
129 0.006017
136 0.007013
143 0.005971
151 0.006029
158 0.004985
165 0.006023
172 0.006033
176 0.006012
185 0.005386
184 0.00399
149 0.004024
76 0.003014
57 0.004023
53 0.003024
51 0.002977
53 0.003027
70 0.003023
78 0.003024
83 0.001973
89 0.002
96 0.002031
109 0.002041
119 0.002992
128 0.001006
136 0.000997
145 0.002001
150 0.001995
158 0.004009
164 0.00403
171 0.004025
177 0.00399
171 0.003988
119 0.004959
67 0.00502
59 0.005991
63 0.007012
69 0.007016
79 0.007015
91 0.006811
94 0.005983
94 0.005951
102 0.003989
112 0.005049
122 0.004037
132 0.004998
140 0.004023
147 0.004907
153 0.004996
157 0.004984
165 0.004016
173 0.001029
160 0.00103
86 0.0
47 0.000997
39 0.00199
40 0.002906
124 0.002992
124 0.003027
124 0.002962
124 0.003
124 0.002961
124 0.002994
124 0.00399
124 0.003958
124 0.003989
124 0.004037
124 0.003994
124 0.003957
135 0.004027
144 0.005983
155 0.005989
166 0.005985
173 0.005981
116 0.005951
18 0.005986
0 0.005983
0 0.007023
0 0.006022
0 0.007016
17 0.00598
33 0.006983
47 0.005985
57 0.005978
66 0.006025
87 0.006016
104 0.00698
118 0.005999
132 0.007012
146 0.006022
157 0.006989
170 0.006054
178 0.006023
190 0.006013
198 0.005984
207 0.006022
139 0.005018
81 0.006017
42 0.005022
44 0.003977
46 0.003024
55 0.003024
70 0.003025
90 0.003024
96 0.003024
100 0.003033
111 0.003024
126 0.00202
143 0.002025
156 0.002981
166 0.001986
175 0.00308
185 0.003031
191 0.003022
201 0.002992
208 0.002992
211 0.002991
138 0.00203
97 0.002991
75 0.002992
77 0.002991
82 0.002027
102 0.001024
112 0.00103
118 0.001013
118 0.001008
125 0.001187
140 0.000997
149 0.001017
163 0.001041
169 0.001008
174 0.0
183 0.0
189 0.0
195 0.0
147 0.0
88 0.000993
63 0.000976
63 0.000966
66 0.000997
76 0.001001
89 0.000997
102 0.000908
105 0.000994
109 0.002961
123 0.002995
140 0.003985
149 0.003987
161 0.004031
167 0.003978
176 0.003989
184 0.004991
189 0.004965
198 0.004987
205 0.005988
161 0.006033
83 0.006017
42 0.005984
35 0.005984
32 0.006018
30 0.006021
47 0.005984
66 0.007014
73 0.007016
78 0.003969
89 0.004027
99 0.003949
113 0.004033
123 0.003993
140 0.001001
152 0.001158
158 0.001033
169 0.000976
177 0.002027
185 0.001043
195 0.000996
172 0.0
116 0.0
54 0.0
48 0.002985
49 0.002991
47 0.002992
52 0.002995
76 0.003878
88 0.00502
92 0.004983
101 0.004959
117 0.00498
128 0.00499
143 0.006016
150 0.006037
159 0.007002
170 0.005019
179 0.00502
187 0.003026
194 0.003992
201 0.003021
209 0.00402
208 0.003999
166 0.004026
93 0.003989
77 0.002023
78 0.002036
78 0.000987
83 0.001
96 0.003025
111 0.003009
114 0.003028
118 0.002963
131 0.003025
140 0.003023
154 0.002988
166 0.002994
172 0.002969
181 0.002997
187 0.003003
196 0.002993
204 0.003021
209 0.003026
219 0.003004
225 0.003025
189 0.003025
126 0.003972
97 0.003994
94 0.004028
94 0.005029
93 0.004985
107 0.005018
116 0.006025
121 0.006018
124 0.006018
130 0.006017
143 0.006027
156 0.00502
162 0.006022
172 0.006022
178 0.006038
184 0.006957
191 0.007979
197 0.007006
203 0.007944
212 0.007978
216 0.007979
213 0.007947
173 0.007098
104 0.006017
87 0.003988
87 0.004987
86 0.003997
96 0.004037
105 0.003929
110 0.003983
110 0.003958
114 0.003974
128 0.002988
136 0.001996
148 0.002006
156 0.003108
164 0.002026
169 0.002994
176 0.001036
182 0.001996
191 0.001043
197 0.001995
192 0.001993
136 0.001995
89 0.001995
78 0.002006
83 0.002893
86 0.00399
99 0.004018
106 0.00402
109 0.003991
110 0.00399
115 0.004022
129 0.00599
143 0.006073
151 0.006904
160 0.00702
165 0.007028
173 0.007014
178 0.007023
184 0.007013
193 0.007016
184 0.007032
138 0.007013
75 0.006981
49 0.005
50 0.005029
51 0.004024
54 0.005009
72 0.003971
83 0.002996
85 0.002982
91 0.003026
99 0.003036
116 0.003033
133 0.003001
141 0.002992
153 0.002995
162 0.002994
170 0.002174
178 0.002997
187 0.001036
192 0.0
203 0.0
206 0.0
144 0.00096
69 0.0
37 0.001001
38 0.001032
41 0.00107
41 0.003003
59 0.003024
75 0.005026
79 0.005028
86 0.005093
94 0.004884
112 0.004987
131 0.004987
140 0.005017
155 0.006017
165 0.007979
171 0.007
182 0.006954
188 0.00698
196 0.007019
205 0.007947
212 0.00695
193 0.007946
155 0.00794
62 0.007979
40 0.006979
46 0.007975
50 0.007018
61 0.005967
75 0.006026
88 0.007011
91 0.007023
99 0.006026
115 0.007026
126 0.006022
144 0.006009
153 0.007015
167 0.005983
176 0.006981
185 0.005981
192 0.006983
199 0.005984
206 0.007023
216 0.00602
220 0.003989
154 0.003034
61 0.002027
42 0.002992
49 0.000998
55 0.0
58 0.0
77 0.0
91 0.0
93 0.001004
100 0.000997
108 0.000998
127 0.002993
144 0.004027
160 0.005022
167 0.005024
179 0.006986
185 0.007977
192 0.004966
199 0.007027
207 0.005983
213 0.007031
207 0.00712
154 0.006971
57 0.006012
36 0.003976
44 0.004014
52 0.003024
58 0.004031
78 0.002999
87 0.003025
88 0.00303
97 0.002992
111 0.003024
126 0.000998
139 0.0
154 0.001995
162 0.003026
173 0.00399
181 0.00502
188 0.005026
195 0.004996
206 0.004987
210 0.005025
139 0.005989
74 0.005991
27 0.005975
36 0.007029
43 0.006861
54 0.006977
66 0.006999
79 0.007013
82 0.006993
88 0.006976
100 0.006022
119 0.004025
129 0.004023
145 0.00399
156 0.002992
165 0.001197
173 0.003031
182 0.002038
188 0.002038
199 0.002056
205 0.001017
143 0.000999
55 0.000997
19 0.000997
24 0.001004
35 0.002029
41 0.003026
61 0.002992
72 0.002997
74 0.002971
82 0.003029
90 0.004022
109 0.004038
127 0.003964
137 0.003992
150 0.004023
162 0.004983
167 0.00499
176 0.004987
182 0.006023
190 0.006968
188 0.006975
137 0.006983
43 0.006903
23 0.006981
32 0.007976
45 0.007008
54 0.007984
75 0.006997
80 0.006985
79 0.006983
86 0.007027
97 0.007021
120 0.007014
134 0.006023
142 0.005982
153 0.005986
160 0.007052
167 0.005108
178 0.004027
159 0.002992
102 0.003025
29 0.003025
24 0.000997
34 0.000997
46 0.000997
63 0.000997
77 0.000998
79 0.000998
80 0.000998
92 0.001027
111 0.001995
123 0.001999
141 0.001996
149 0.003003
160 0.004031
170 0.003958
177 0.003945
165 0.003959
62 0.003993
17 0.004023
2 0.003957
7 0.003989
13 0.004025
28 0.003969
48 0.004002
59 0.004025
64 0.005018
72 0.00499
91 0.004979
105 0.004992
124 0.005023
140 0.004989
148 0.004983
160 0.005026
167 0.005026
177 0.00499
191 0.004981
181 0.005021
69 0.006016
12 0.006016
0 0.005981
0 0.007016
0 0.006891
4 0.007028
26 0.007012
42 0.007014
53 0.007018
63 0.004957
74 0.00617
96 0.005019
109 0.006014
128 0.005017
143 0.00395
151 0.003946
164 0.005018
175 0.002031
182 0.002026
195 0.001978
201 0.001993
127 0.001041
32 0.001998
0 0.001036
0 0.00103
5 0.00097
8 0.000965
33 0.000966
47 0.001003
59 0.000998
65 0.0
76 0.0
94 0.001995
116 0.002959
127 0.002958
143 0.003027
157 0.003956
164 0.003993
175 0.003962
182 0.003991
193 0.00401
206 0.003987
208 0.003967
112 0.004027
43 0.004024
3 0.006019
10 0.006016
17 0.00698
24 0.006982
44 0.00798
58 0.006982
67 0.004986
76 0.004109
85 0.005021
106 0.003989
126 0.003992
137 0.003986
152 0.00403
160 0.00402
173 0.001995
183 0.003024
189 0.002027
198 0.001994
206 0.001995
213 0.0
161 0.0
51 0.000995
23 0.001009
27 0.000998
36 0.000998
51 0.001016
70 0.000997
79 0.000997
80 0.002962
84 0.002994
94 0.002963
115 0.002992
127 0.00287
144 0.002991
156 0.005021
162 0.005019
173 0.005021
186 0.006015
188 0.007012
108 0.006978
50 0.007979
19 0.006016
23 0.006979
37 0.005006
50 0.006982
75 0.004958
82 0.003978
84 0.00402
92 0.001996
104 0.001994
126 0.0
142 0.0
153 0.002031
166 0.002004
178 0.001997
184 0.001996
197 0.002025
138 0.004026
68 0.004021
11 0.004029
11 0.004023
19 0.004981
28 0.005031
43 0.005019
68 0.005982
76 0.007012
83 0.006981
96 0.007025
114 0.007016
128 0.006982
148 0.006982
159 0.006983
174 0.007015
186 0.004985
194 0.006981
209 0.006023
196 0.003988
138 0.002991
61 0.002994
53 0.002992
59 0.002993
62 0.001159
73 0.0
95 0.0
110 0.000998
113 0.001036
124 0.000997
143 0.000961
155 0.001011
168 0.000952
180 0.000943
191 0.00202
204 0.003943
216 0.00606
223 0.006982
237 0.007031
245 0.005971
217 0.005979
139 0.003986
117 0.003039
118 0.002012
119 0.001996
122 0.001998
141 0.002012
152 0.003
155 0.001
159 0.001031
171 0.0
181 0.0
194 0.0
204 0.001995
213 0.003023
219 0.001952
229 0.004003
234 0.005022
243 0.005064
249 0.005028
255 0.00502
238 0.005064
197 0.005058
161 0.005035
160 0.006029
161 0.006867
162 0.007032
170 0.006992
178 0.007028
177 0.00698
177 0.006015
184 0.006018
193 0.006991
202 0.006022
207 0.006981
213 0.006029
219 0.004976
226 0.005162
232 0.004993
241 0.004985
188 0.002974
176 0.005
150 0.003006
145 0.004023
146 0.002994
146 0.003005
148 0.002991
155 0.002978
156 0.002989
155 0.002992
156 0.00421
160 0.002986
164 0.004034
168 0.003989
170 0.003981
174 0.003989
175 0.003993
178 0.004023
181 0.002211
183 0.002992
186 0.000999
188 0.003013
160 0.002033
138 0.000981
135 0.00103
134 0.002052
130 0.0
131 0.002011
137 0.0
138 0.000973
137 0.002035
138 0.002014
142 0.00095
145 0.000999
149 0.0
151 0.001031
154 0.001034
156 0.000976
160 0.000998
162 0.000997
165 0.002032
168 0.000998
170 0.001002
173 0.001832
149 0.002992
130 0.004023
118 0.004037
116 0.003991
113 0.004034
111 0.004066
107 0.005023
111 0.006018
110 0.006969
111 0.006981
116 0.003995
123 0.00516
131 0.005015
135 0.005022
143 0.004987
147 0.004987
153 0.005029
160 0.004025
165 0.005034
171 0.003034
175 0.004991
182 0.004017
181 0.004026
152 0.004037
101 0.002003
88 0.002974
83 0.003025
77 0.002985
76 0.001972
84 0.002012
86 0.00203
84 0.0
85 0.000992
93 0.001032
100 0.001062
109 0.001038
113 0.001004
121 0.001031
129 0.000956
133 0.001995
140 0.00105
146 0.001008
151 0.000998
160 0.000967
162 0.000997
117 0.000998
72 0.001995
63 0.003025
61 0.004976
61 0.005024
68 0.005983
74 0.005984
74 0.004986
73 0.004991
78 0.004981
87 0.006013
97 0.002991
106 0.003037
114 0.002048
119 0.001038
126 0.0
132 0.0
137 0.0
146 0.0
144 0.0
91 0.0
49 0.002024
43 0.002025
45 0.00301
47 0.003034
54 0.003029
66 0.004081
70 0.004979
71 0.004838
80 0.005027
88 0.005091
102 0.005979
111 0.00695
119 0.007022
124 0.007014
133 0.007029
139 0.00702
148 0.007015
157 0.006227
163 0.007022
164 0.004992
128 0.007016
59 0.00498
40 0.005027
40 0.004953
39 0.004968
40 0.004995
55 0.00498
68 0.003985
71 0.003001
76 0.002992
84 0.004034
96 0.003002
106 0.003989
116 0.002982
126 0.004026
136 0.004022
143 0.004033
153 0.004027
158 0.004055
167 0.002992
177 0.001955
183 0.00213
159 0.000966
83 0.0
60 0.0
59 0.0
62 0.0
63 0.0
73 0.000997
85 0.000998
97 0.001985
102 0.002995
108 0.00199
123 0.003056
138 0.002961
150 0.001987
162 0.002993
173 0.00303
182 0.004988
193 0.005029
199 0.004995
207 0.00509
216 0.004987
222 0.005017
229 0.005023
208 0.00602
138 0.005991
111 0.006019
114 0.006018
118 0.005983
121 0.006966
127 0.007077
142 0.005984
147 0.007016
148 0.004019
155 0.005027
164 0.003987
173 0.004986
184 0.004987
190 0.00495
199 0.004986
206 0.001995
211 0.002993
219 0.001995
224 0.0
228 0.000996
234 0.0
237 0.0
195 0.0
142 0.002028
119 0.0
121 0.002011
123 0.001007
123 0.001995
134 0.002029
140 0.002014
142 0.001995
143 0.001957
150 0.001965
157 0.002027
167 0.004027
172 0.004027
180 0.003997
184 0.004987
190 0.006018
196 0.005984
199 0.005862
205 0.006018
210 0.006
213 0.005986
220 0.006993
187 0.005986
142 0.005981
98 0.005981
96 0.005984
100 0.006016
99 0.006
104 0.004023
112 0.004988
114 0.004987
115 0.004988
121 0.002992
131 0.0
138 0.002012
147 0.0
152 0.002028
159 0.0
164 0.000997
168 0.001966
173 0.001995
179 0.001963
182 0.001951
189 0.002033
183 0.00399
144 0.003994
80 0.004033
66 0.005983
69 0.00598
71 0.006016
74 0.006015
82 0.006015
88 0.006989
88 0.007012
92 0.007018
97 0.007013
109 0.007012
121 0.006972
126 0.007968
134 0.004985
142 0.006017
145 0.006014
152 0.005986
160 0.003027
163 0.003031
171 0.002991
173 0.00299
117 0.001001
63 0.001995
45 0.000994
48 0.001992
52 0.001024
55 0.001034
67 0.001993
71 0.000966
72 0.0
75 0.001006
83 0.001012
94 0.001017
106 0.001995
112 0.003029
121 0.004005
130 0.004028
134 0.004024
140 0.004006
145 0.003931
153 0.003999
161 0.006024
140 0.006013
70 0.005985
43 0.006006
43 0.006159
52 0.007018
57 0.007978
68 0.007976
75 0.007976
75 0.006982
76 0.007014
85 0.005988
93 0.006983
106 0.005986
113 0.006981
121 0.00498
128 0.006016
133 0.005017
142 0.004973
138 0.004019
103 0.003007
47 0.004023
36 0.003016
42 0.002996
48 0.005037
59 0.003
71 0.003988
73 0.003989
72 0.003979
77 0.00399
85 0.00399
100 0.003986
112 0.003029
118 0.003989
126 0.002989
132 0.003993
142 0.002021
106 0.00102
61 0.001006
22 0.0
22 0.0
25 0.001
31 0.0
42 0.0
57 0.0
61 0.000964
63 0.0
74 0.000996
91 0.000998
101 0.000997
115 0.000957
123 0.00099
133 0.000997
141 0.001026
148 0.000986
158 0.000998
154 0.003987
111 0.002994
43 0.002964
30 0.002954
30 0.003028
29 0.002997
34 0.003983
56 0.003991
72 0.004987
76 0.005952
87 0.00697
100 0.007975
112 0.00698
126 0.006982
140 0.005985
146 0.006013
157 0.005984
163 0.005984
172 0.005962
181 0.003979
187 0.005938
198 0.00399
193 0.005984
120 0.002992
67 0.001996
61 0.001998
60 0.001979
59 0.001994
67 0.001992
87 0.001983
94 0.001995
99 0.000991
105 0.001995
117 0.000949
130 0.002037
144 0.002124
151 0.001995
160 0.002026
166 0.002033
174 0.002068
182 0.0
187 0.002043
196 0.000998
201 0.002014
205 0.0
138 0.0
95 0.0
71 0.0
71 0.0
68 0.0
70 0.0
82 0.000989
98 0.000998
102 0.00093
105 0.000996
116 0.000997
129 0.003027
139 0.003035
149 0.002999
157 0.002994
163 0.002993
172 0.00402
177 0.004987
186 0.005033
193 0.005987
198 0.005985
206 0.006017
210 0.007016
183 0.007014
101 0.006974
76 0.006979
70 0.005981
68 0.005987
67 0.005037
82 0.003985
95 0.005984
99 0.003985
102 0.006015
110 0.003999
121 0.005984
136 0.006983
143 0.005985
153 0.003021
162 0.001983
167 0.003035
175 0.002012
180 0.002953
187 0.002027
194 0.001992
199 0.00203
207 0.002007
206 0.0
132 0.002032
72 0.002003
65 0.002013
67 0.000986
65 0.002028
71 0.0
86 0.002
94 0.000965
96 0.001994
101 0.001031
111 0.001994
123 0.003026
137 0.003991
144 0.005018
154 0.005945
162 0.005941
167 0.00594
175 0.005948
183 0.006966
187 0.005032
193 0.004984
201 0.004984
206 0.003991
181 0.002216
109 0.004988
64 0.003029
58 0.003988
64 0.001996
63 0.003989
73 0.004156
83 0.004026
92 0.002979
95 0.0
101 0.001031
116 0.000958
128 0.002047
137 0.00305
148 0.00303
153 0.003068
161 0.002992
169 0.003036
174 0.002992
181 0.003026
188 0.004025
192 0.00502
200 0.005025
204 0.005023
172 0.006955
77 0.006993
58 0.006981
57 0.007017
64 0.006973
67 0.004945
79 0.007017
91 0.005976
92 0.004987
94 0.002995
105 0.001962
115 0.001964
130 0.002992
137 0.001029
146 0.002009
153 0.0
158 0.0
164 0.001977
171 0.002994
178 0.0
185 0.002018
158 0.0
92 0.002021
50 0.002026
51 0.002037
62 0.002027
68 0.002029
84 0.001001
92 0.002042
94 0.004023
96 0.004039
107 0.004004
116 0.004021
132 0.004022
144 0.003996
150 0.004032
158 0.003946
165 0.006042
169 0.00602
177 0.005985
183 0.006979
158 0.005973
65 0.005986
31 0.004989
23 0.003011
27 0.005023
27 0.002991
37 0.003992
56 0.004023
62 0.004024
67 0.00399
72 0.003992
88 0.003027
102 0.000998
114 0.002029
126 0.0
137 0.0
143 0.0
152 0.0
158 0.0
164 0.002028
174 0.002982
139 0.003989
80 0.002962
19 0.004006
14 0.003957
16 0.005039
15 0.005974
25 0.005972
43 0.00607
56 0.005983
59 0.005977
69 0.005985
78 0.005985
96 0.006018
111 0.006019
119 0.005986
131 0.006019
138 0.00602
147 0.005989
157 0.005984
162 0.005827
172 0.006977
180 0.006982
176 0.00693
89 0.005987
42 0.005982
22 0.005984
24 0.007019
22 0.003959
28 0.004025
51 0.003028
59 0.002992
64 0.002025
74 0.0
84 0.0
99 0.0
114 0.000998
122 0.003032
134 0.002992
144 0.002995
150 0.003036
159 0.002963
164 0.002993
173 0.002978
183 0.003032
189 0.002992
160 0.002989
99 0.002984
32 0.002991
28 0.002962
30 0.003006
28 0.00396
41 0.005019
55 0.005018
65 0.005998
68 0.005982
77 0.007017
93 0.006987
104 0.00699
115 0.006983
128 0.005996
135 0.006019
145 0.004985
154 0.004989
160 0.004985
169 0.004987
174 0.00499
184 0.004981
184 0.006015
119 0.004987
49 0.006025
27 0.004989
30 0.005991
30 0.006016
32 0.003028
53 0.002997
66 0.000997
68 0.002026
76 0.0
92 0.0
103 0.0
118 0.0
128 0.001959
136 0.001996
146 0.002048
155 0.003986
160 0.004998
169 0.00698
177 0.006966
182 0.006983
191 0.006983
167 0.007018
69 0.006975
29 0.00798
28 0.004955
32 0.006987
32 0.007011
39 0.007106
61 0.004983
67 0.006978
71 0.004988
82 0.005946
93 0.004968
110 0.003976
119 0.004986
132 0.005016
144 0.003973
149 0.003983
158 0.00399
166 0.004986
172 0.002994
178 0.00499
186 0.002988
193 0.004032
165 0.003988
106 0.003046
40 0.002029
36 0.0
41 0.0
42 0.0
59 0.000998
70 0.000997
77 0.000985
78 0.000996
88 0.000999
105 0.001013
116 0.001006
131 0.001022
142 0.002028
147 0.003042
155 0.00299
160 0.002988
169 0.003032
180 0.00296
186 0.002954
137 0.002986
70 0.004019
45 0.004
48 0.003994
56 0.004021
66 0.004056
86 0.004024
92 0.004991
91 0.005994
92 0.005985
105 0.006016
124 0.005986
134 0.00599
146 0.006016
154 0.005985
158 0.005989
169 0.006978
174 0.005993
159 0.003954
89 0.004987
38 0.001995
36 0.000998
44 0.001035
51 0.001962
68 0.002992
83 0.002992
88 0.003001
90 0.00403
102 0.004
121 0.005037
132 0.00502
147 0.004981
153 0.005013
164 0.005023
172 0.005998
177 0.00502
187 0.005999
194 0.005984
185 0.006029
83 0.006017
37 0.005969
17 0.006014
16 0.007978
15 0.006989
18 0.007978
38 0.005987
58 0.006983
69 0.005998
74 0.005991
88 0.00499
107 0.002023
118 0.003989
134 0.002
148 0.0
155 0.0
168 0.0
179 0.000986
186 0.0
194 0.000992
204 0.0
213 0.0
164 0.0
97 0.000998
37 0.003947
34 0.004006
34 0.004004
31 0.004028
47 0.004963
64 0.007022
79 0.007023
87 0.006998
94 0.007048
114 0.007018
125 0.007011
143 0.006945
155 0.006016
162 0.005984
172 0.004995
183 0.004032
189 0.005027
198 0.004989
204 0.004986
214 0.002992
221 0.005017
202 0.003
122 0.003994
60 0.004004
56 0.003963
60 0.003986
59 0.00299
67 0.002992
90 0.000998
98 0.002987
103 0.000987
114 0.0
123 0.0
141 0.0
150 0.0
162 0.0
169 0.000967
175 0.001954
184 0.001996
194 0.002026
199 0.002069
208 0.001016
213 0.001953
224 0.003989
204 0.002957
146 0.004026
76 0.004048
68 0.00399
72 0.003991
72 0.003991
78 0.003989
95 0.00396
107 0.004026
108 0.004987
115 0.004041
131 0.00399
141 0.004984
155 0.003992
162 0.005019
172 0.006985
179 0.006015
185 0.00499
193 0.004991
200 0.006025
207 0.003995
215 0.005984
225 0.006017
221 0.005989
143 0.006024
99 0.006018
77 0.004984
82 0.001969
84 0.002041
93 0.0
109 0.0
112 0.0
114 0.0
120 0.0
129 0.0
145 0.0
154 0.0
164 0.0
173 0.0
177 0.0
185 0.00096
190 0.001049
199 0.000997
208 0.001995
186 0.003027
108 0.000982
78 0.003027
79 0.00303
86 0.003023
92 0.002992
106 0.005019
116 0.005019
116 0.006018
119 0.006968
127 0.006972
141 0.007013
153 0.005951
165 0.006001
171 0.004986
179 0.003987
184 0.005038
190 0.002989
197 0.005985
204 0.003025
176 0.005022
89 0.005021
61 0.005041
57 0.005183
63 0.001988
65 0.003
81 0.001043
91 0.002992
99 0.002009
105 0.001028
112 0.001998
129 0.002027
139 0.002027
153 0.002005
165 0.001044
171 0.001029
180 0.001958
187 0.002025
192 0.0
203 0.0
214 0.000999
198 0.000999
111 0.000998
76 0.000997
70 0.003026
79 0.004985
83 0.004975
93 0.006022
113 0.00697
119 0.006983
125 0.007982
135 0.005
144 0.007054
162 0.004975
178 0.002978
186 0.002999
197 0.002984
208 0.002989
214 0.002
224 0.003001
153 0.003023
240 0.001994
248 0.003034
218 0.001995
157 0.003001
124 0.000993
125 0.003014
134 0.00197
135 0.001998
148 0.000954
160 0.0
162 0.0
166 0.0
174 0.0
182 0.000998
195 0.000996
201 0.000997
211 0.000998
219 0.003006
224 0.002962
231 0.002953
237 0.002995
241 0.002999
249 0.002993
254 0.002993
236 0.003995
184 0.005996
153 0.006011
149 0.005982
155 0.005975
156 0.005992
165 0.005948
171 0.005982
171 0.007021
169 0.004951
172 0.007011
181 0.004988
190 0.004957
195 0.004985
200 0.004986
206 0.004988
209 0.004977
216 0.004986
221 0.004972
226 0.003995
193 0.003024
153 0.0
138 0.002029
142 0.0
146 0.001006
153 0.000997
160 0.001995
160 0.00399
158 0.003993
162 0.005983
169 0.005996
175 0.004995
183 0.004023
187 0.004958
193 0.002995
198 0.002028
202 0.002031
207 0.0
206 0.002032
163 0.0
120 0.002033
102 0.002033
102 0.002029
101 0.002031
101 0.002027
111 0.002028
116 0.0
115 0.001002
117 0.000997
125 0.000997
132 0.000998
142 0.000999
146 0.001965
154 0.002995
161 0.002985
164 0.002989
171 0.00288
178 0.004983
181 0.004987
128 0.004987
68 0.004987
56 0.004987
53 0.005988
50 0.00601
49 0.007
59 0.007012
65 0.006981
67 0.007016
71 0.007976
74 0.006984
86 0.007028
93 0.007026
103 0.007013
113 0.004985
118 0.007011
126 0.005002
135 0.003993
140 0.003007
150 0.001998
146 0.003035
91 0.002961
41 0.002042
27 0.0
31 0.0
33 0.002001
38 0.00299
50 0.003941
55 0.006018
58 0.00599
62 0.005983
74 0.00602
82 0.006017
96 0.005985
107 0.006979
114 0.007012
124 0.006015
131 0.006952
137 0.004973
147 0.005954
157 0.002994
148 0.002989
75 0.002016
37 0.001991
34 0.0
43 0.002008
49 0.001956
56 0.000997
69 0.003968
74 0.00296
77 0.004848
83 0.005018
97 0.006982
107 0.007011
120 0.007014
128 0.007014
139 0.007014
147 0.006947
155 0.007017
162 0.006981
173 0.005001
180 0.004987
167 0.004988
123 0.004988
74 0.004988
76 0.00499
83 0.003983
91 0.004025
102 0.00399
110 0.003988
115 0.003989
117 0.004011
125 0.003992
139 0.001993
147 0.003991
160 0.002003
171 0.002
177 0.00097
186 0.0
190 0.000992
198 0.0
206 0.0
209 0.0
205 0.000998
136 0.00104
105 0.001023
97 0.000995
109 0.003006
112 0.002958
123 0.002962
129 0.002968
132 0.002976
132 0.005019
138 0.004999
148 0.006015
160 0.005977
166 0.006014
175 0.005978
179 0.004987
187 0.006013
192 0.005975
196 0.005844
204 0.005952
209 0.006944
196 0.005988
113 0.006957
97 0.005962
93 0.005984
104 0.003992
107 0.003989
118 0.003994
122 0.004987
123 0.003976
124 0.004982
130 0.002991
140 0.002989
152 0.002992
158 0.002993
166 0.002988
174 0.0
176 0.001994
183 0.0
188 0.0
192 0.001035
191 0.001007
123 0.002002
87 0.002957
74 0.00296
85 0.004985
89 0.004986
100 0.005016
105 0.004989
107 0.003984
106 0.004984
112 0.004996
122 0.005037
132 0.005017
141 0.004979
151 0.006
156 0.006027
162 0.005984
167 0.005979
171 0.005957
178 0.006966
184 0.007033
163 0.006944
91 0.006979
62 0.006978
66 0.006975
71 0.006982
80 0.00698
92 0.006981
95 0.006984
93 0.006976
95 0.007949
103 0.005991
117 0.007975
125 0.005979
135 0.00598
143 0.004987
147 0.004986
154 0.004989
161 0.00299
167 0.004985
141 0.002993
99 0.005161
56 0.002992
58 0.002995
66 0.003004
80 0.002992
89 0.001987
94 0.001997
91 0.003991
92 0.001998
101 0.003988
115 0.004016
123 0.003995
134 0.003988
139 0.002999
145 0.001994
154 0.000964
152 0.002031
104 0.0
44 0.001996
35 0.000983
45 0.001989
57 0.001995
66 0.002028
79 0.000998
80 0.002003
80 0.001942
89 0.001995
98 0.001995
114 0.002021
122 0.001986
133 0.002028
141 0.002009
146 0.002995
155 0.002994
140 0.003992
69 0.004988
19 0.004988
11 0.00703
16 0.006984
21 0.006978
32 0.002992
44 0.004986
56 0.003158
59 0.001996
65 0.0
81 0.001991
92 0.002056
108 0.002009
122 0.002004
128 0.001995
138 0.000997
146 0.001034
154 0.0
163 0.0
112 0.000929
53 0.000992
6 0.003
7 0.002982
17 0.002993
20 0.002993
29 0.002989
50 0.001995
59 0.003032
63 0.003032
76 0.003031
87 0.00399
106 0.005039
122 0.004981
131 0.005013
141 0.005021
151 0.005858
157 0.006022
164 0.006979
170 0.006015
178 0.006977
104 0.007957
49 0.005995
21 0.007979
34 0.00798
38 0.00786
48 0.007974
61 0.007975
74 0.007977
80 0.004966
85 0.006024
101 0.002013
120 0.002993
131 0.003016
145 0.001998
158 0.003005
164 0.0
173 0.000964
179 0.000968
189 0.0
199 0.002026
202 0.0
131 0.001023
63 0.0
59 0.000997
71 0.000997
76 0.004047
86 0.005024
102 0.007027
111 0.00698
112 0.007013
120 0.006995
136 0.004006
146 0.007016
161 0.004982
173 0.002003
178 0.000962
187 0.0
193 0.001998
200 0.001004
207 0.0
214 0.0
209 0.001996
126 0.001995
85 0.00394
83 0.004032
92 0.006001
97 0.006977
108 0.007967
119 0.005985
124 0.003998
125 0.005979
134 0.004985
143 0.006042
158 0.003982
170 0.003997
176 0.003992
185 0.003988
188 0.003012
195 0.002036
203 0.002031
207 0.001999
211 0.0
162 0.0
112 0.0
80 0.000998
90 0.002032
96 0.002993
104 0.005024
116 0.005007
122 0.004981
122 0.006881
128 0.007974
133 0.007039
147 0.007018
160 0.005004
165 0.00599
173 0.004939
180 0.003979
184 0.003994
190 0.003981
194 0.004994
203 0.004023
192 0.006022
131 0.003991
82 0.006016
72 0.003958
81 0.004022
88 0.002029
102 0.000999
108 0.002029
109 0.0
110 0.002049
118 0.0
132 0.0
137 0.000997
148 0.0
157 0.000997
161 0.001996
166 0.00207
170 0.001995
178 0.001996
183 0.003039
156 0.003989
86 0.004971
64 0.005983
69 0.005969
81 0.005992
94 0.00599
103 0.005948
103 0.005996
100 0.005985
103 0.005983
117 0.005988
126 0.005988
138 0.005983
143 0.005983
150 0.007023
155 0.00698
162 0.006975
156 0.00598
86 0.004987
54 0.004982
47 0.00296
57 0.002993
63 0.002994
79 0.002954
85 0.002955
84 0.003013
85 0.005023
94 0.002027
107 0.004026
119 0.002993
128 0.003999
137 0.002028
141 0.002028
150 0.00195
143 0.0
97 0.0
29 0.000962
17 0.000983
20 0.0
23 0.000998
27 0.001996
47 0.002997
59 0.002957
62 0.004996
69 0.005982
86 0.003991
100 0.005024
113 0.001998
125 0.002058
136 0.002029
142 0.002032
154 0.00202
166 0.0
150 0.002029
85 0.0
40 0.000998
39 0.001996
44 0.001995
45 0.002992
60 0.003004
83 0.002991
90 0.002027
99 0.003012
106 0.001859
124 0.003985
141 0.004994
150 0.004989
162 0.00598
172 0.006982
178 0.006985
188 0.006982
200 0.006974
206 0.006948
212 0.007019
152 0.007014
110 0.007017
89 0.005018
91 0.002991
90 0.004987
97 0.001955
111 0.00402
124 0.001947
129 0.002002
134 0.002016
147 0.002008
159 0.002029
169 0.0
177 0.002002
184 0.0
190 0.002029
197 0.0
201 0.0
208 0.001007
215 0.002994
221 0.002958
199 0.00399
127 0.004008
106 0.003775
104 0.003981
106 0.003954
105 0.00598
120 0.005984
129 0.006037
131 0.005978
135 0.005985
141 0.005955
153 0.005964
159 0.00598
168 0.005983
176 0.00598
180 0.006992
186 0.006955
189 0.006967
196 0.006974
202 0.007949
207 0.004983
212 0.00699
179 0.007016
134 0.007032
95 0.006997
95 0.002993
96 0.003022
96 0.001974
112 0.0
116 0.000995
118 0.0
121 0.0
128 0.0
141 0.0
147 0.0
156 0.0
165 0.0
168 0.0
175 0.0
179 0.0
185 0.0
190 0.002012
197 0.002837
202 0.001992
170 0.003
123 0.002996
80 0.004988
80 0.005022
81 0.004884
81 0.004984
89 0.004984
101 0.004988
102 0.004984
104 0.005021
115 0.00499
123 0.004992
136 0.004983
146 0.006
151 0.00598
158 0.005985
163 0.006973
168 0.006941
172 0.007976
178 0.005983
185 0.007954
191 0.006981
189 0.007014
118 0.006985
65 0.004989
61 0.006987
69 0.003984
69 0.005982
78 0.003987
90 0.002985
93 0.001993
94 0.001998
104 0.00199
113 0.001997
128 0.001993
135 0.001994
145 0.0
152 0.001986
158 0.001008
164 0.003013
171 0.002031
175 0.000997
182 0.000994
191 0.001006
181 0.001002
101 0.000993
63 0.000991
52 0.000958
62 0.000999
65 0.002
77 0.003985
89 0.003951
91 0.004021
95 0.003982
100 0.003987
116 0.004823
130 0.004999
137 0.005018
148 0.004007
155 0.007016
159 0.006982
167 0.007016
173 0.006951
178 0.007017
186 0.007017
192 0.007017
159 0.007016
86 0.006966
47 0.006984
47 0.006015
57 0.006981
62 0.005992
76 0.003987
83 0.003987
87 0.002008
91 0.0
99 0.0
115 0.0
128 0.00199
138 0.0
146 0.002026
155 0.0
160 0.0
167 0.000974
172 0.0
180 0.002016
187 0.002986
191 0.002935
141 0.003
57 0.00299
39 0.00295
47 0.004039
57 0.005017
63 0.005972
75 0.005982
83 0.004979
84 0.003983
90 0.001998
100 0.003979
114 0.001981
127 0.003989
136 0.001994
144 0.003107
153 0.002029
157 0.002027
164 0.000993
170 0.002029
177 0.002001
176 0.004027
101 0.006023
46 0.00598
43 0.006981
57 0.00598
67 0.003973
78 0.003994
89 0.002992
86 0.002026
86 0.002024
96 0.0
110 0.002026
119 0.0
132 0.0
137 0.0
144 0.0
152 0.0
158 0.0
139 0.0
93 0.0
40 0.001994
39 0.002003
50 0.002006
60 0.00201
79 0.002995
85 0.001996
85 0.003
90 0.003992
99 0.003991
117 0.00399
126 0.00399
139 0.00399
147 0.005021
154 0.004025
163 0.005021
124 0.006023
59 0.005975
28 0.006017
29 0.006976
35 0.005988
41 0.006983
54 0.007015
73 0.006983
78 0.005989
82 0.007012
95 0.004026
106 0.007012
124 0.003989
138 0.003985
145 0.002993
154 0.002996
165 0.002999
172 0.002031
155 0.0
84 0.002024
39 0.0
32 0.003026
35 0.0
34 0.000952
49 0.0
64 0.0
77 0.0
81 0.000998
90 0.001867
104 0.0
117 0.000998
129 0.002994
140 0.003026
146 0.00306
156 0.003027
166 0.004039
171 0.004032
182 0.00399
189 0.004045
154 0.003935
67 0.005978
45 0.005985
42 0.005986
42 0.00698
41 0.005061
53 0.007014
73 0.007041
78 0.006964
83 0.007024
95 0.003972
105 0.005018
120 0.002998
127 0.004023
138 0.001028
147 0.000966
154 0.0
159 0.0
168 0.0
174 0.001031
185 0.002055
161 0.002025
108 0.002043
51 0.00203
48 0.001996
48 0.001996
47 0.003984
61 0.004023
76 0.005021
80 0.005015
82 0.006023
93 0.007048
108 0.006984
117 0.006986
129 0.007973
137 0.004028
142 0.006954
151 0.004991
155 0.006937
163 0.004981
173 0.00301
179 0.003049
182 0.002997
113 0.002993
70 0.002998
50 0.002991
52 0.003046
51 0.001979
57 0.004017
74 0.000952
83 0.004015
86 0.005004
91 0.002046
105 0.0
120 0.0
128 0.0
139 0.000966
145 0.000964
152 0.0
160 0.0
165 0.0
173 0.002001
182 0.001995
189 0.002006
183 0.001956
104 0.003957
67 0.004989
57 0.004983
60 0.005991
60 0.006973
70 0.007024
82 0.005981
89 0.007014
93 0.006983
97 0.007015
112 0.007016
128 0.004987
135 0.007032
147 0.004022
152 0.006979
161 0.003984
169 0.002983
174 0.001985
182 0.002004
191 0.001999
197 0.001996
179 0.0
111 0.002029
67 0.0
61 0.00204
66 0.0
67 0.002028
81 0.0
90 0.000997
96 0.000997
99 0.002059
107 0.000998
120 0.000998
133 0.002994
144 0.002991
155 0.005019
161 0.004996
168 0.006003
175 0.005988
179 0.005984
186 0.005982
195 0.005983
199 0.005984
144 0.005977
98 0.005976
68 0.005986
74 0.005986
81 0.00592
91 0.005984
104 0.005986
109 0.006033
108 0.007975
109 0.006987
122 0.005993
139 0.003984
148 0.006015
160 0.004005
168 0.002
171 0.002999
178 0.0
185 0.0
191 0.0
165 0.002001
85 0.001991
61 0.001988
61 0.002002
66 0.00186
73 0.001962
92 0.002992
98 0.002959
99 0.003008
104 0.002986
115 0.002957
129 0.002854
143 0.004037
152 0.004942
162 0.004992
167 0.004988
174 0.004987
183 0.004986
189 0.005004
172 0.005983
95 0.005999
51 0.004993
33 0.00496
38 0.004991
41 0.003989
48 0.005026
66 0.001987
79 0.002027
85 0.001994
90 0.002028
106 0.002034
126 0.0
135 0.002021
149 0.0
156 0.002026
166 0.000973
174 0.000955
180 0.000942
191 0.000996
195 0.0
159 0.0
62 0.0
36 0.0
40 0.001013
47 0.001997
49 0.002993
68 0.002951
83 0.002992
87 0.004037
95 0.006041
105 0.007973
120 0.004988
136 0.006987
152 0.006014
159 0.005023
169 0.004985
178 0.002989
182 0.004987
191 0.002007
198 0.004989
200 0.00203
109 0.001984
57 0.002003
36 0.001987
48 0.0
51 0.0
64 0.0
76 0.0
87 0.0
92 0.001993
100 0.0
114 0.001961
130 0.0
143 0.0
155 0.0
163 0.0
171 0.0
179 0.00296
184 0.002962
194 0.003041
204 0.002988
183 0.003961
81 0.004971
35 0.005981
40 0.00598
52 0.005986
56 0.005986
74 0.005984
87 0.005968
90 0.005977
98 0.006973
110 0.006973
126 0.006981
140 0.006974
152 0.006976
162 0.007015
172 0.007013
175 0.006981
183 0.006982
192 0.004986
199 0.005988
193 0.00198
95 0.002996
49 0.0
39 0.0
52 0.001006
57 0.000991
75 0.0
86 0.0
92 0.0
96 0.0
103 0.0
121 0.0
133 0.0
150 0.0
163 0.0
168 0.0
177 0.0
183 0.0
192 0.0
200 0.0
157 0.0
79 0.0
43 0.001995
50 0.002034
65 0.00201
71 0.001993
92 0.001995
102 0.001985
104 0.001957
114 0.004018
132 0.003998
144 0.004987
162 0.005965
170 0.007978
180 0.004986
188 0.006015
198 0.005983
205 0.004989
218 0.003971
206 0.002983
156 0.001994
96 0.0
97 0.0
106 0.0
113 0.0
129 0.000998
138 0.00204
142 0.001964
146 0.001993
158 0.001955
175 0.001995
184 0.001995
197 0.001916
207 0.003031
212 0.004058
221 0.004995
229 0.006019
238 0.005989
232 0.006017
181 0.005981
145 0.004999
142 0.006015
148 0.006021
153 0.007979
165 0.004977
171 0.005953
173 0.001997
176 0.0
181 0.0
193 0.0
202 0.0
208 0.000998
215 0.001014
221 0.002996
225 0.003992
234 0.003956
240 0.002994
209 0.003991
174 0.003991
166 0.004022
172 0.003988
179 0.005966
186 0.005943
193 0.005984
191 0.005986
192 0.006015
198 0.006017
203 0.00594
211 0.005009
217 0.004998
220 0.004996
226 0.004995
232 0.004009
235 0.004985
207 0.004944
176 0.004985
157 0.004987
160 0.005223
162 0.002995
164 0.004986
173 0.005
175 0.003986
173 0.002993
176 0.0
181 0.001994
189 0.0
194 0.001003
200 0.0
203 0.0
206 0.0
212 0.0
215 0.0
202 0.000981
147 0.002047
131 0.0
131 0.002028
130 0.002992
129 0.005023
137 0.005983
142 0.005975
142 0.005994
143 0.005982
148 0.006015
153 0.006982
160 0.007981
164 0.004985
169 0.007976
171 0.005017
173 0.006981
179 0.002988
184 0.002977
175 0.002991
119 0.002982
94 0.002988
94 0.002987
94 0.001999
92 0.002998
100 0.002031
105 0.00399
106 0.00299
106 0.003034
112 0.003034
117 0.003007
126 0.002047
131 0.003025
137 0.002005
143 0.0
146 0.002029
150 0.00096
158 0.000963
161 0.0
168 0.000998
128 0.002051
92 0.002993
65 0.002974
63 0.003947
61 0.004996
59 0.004981
65 0.004971
69 0.004999
68 0.005986
68 0.005963
75 0.00597
83 0.006982
91 0.001989
98 0.003985
105 0.004029
110 0.004189
118 0.003953
122 0.003969
131 0.003948
139 0.002943
144 0.003989
123 0.002985
82 0.002009
37 0.0
30 0.000958
31 0.0
28 0.000999
37 0.003038
44 0.003024
45 0.003037
49 0.003026
55 0.002898
68 0.003991
77 0.003959
86 0.003957
95 0.004038
102 0.005024
110 0.003988
119 0.003959
124 0.003948
134 0.006023
144 0.00598
143 0.005983
83 0.005992
48 0.006883
31 0.005975
40 0.006982
42 0.00598
50 0.005984
61 0.003974
63 0.004038
66 0.003989
72 0.006007
83 0.003952
95 0.006014
106 0.00399
114 0.005018
125 0.005028
130 0.005022
138 0.004025
146 0.000962
151 0.004005
161 0.0
156 0.000997
131 0.001996
50 0.0
39 0.0
45 0.0
54 0.001004
59 0.000999
71 0.0
77 0.000815
77 0.001009
83 0.001969
91 0.002963
105 0.003025
115 0.004992
124 0.004986
133 0.004994
142 0.005024
147 0.005021
155 0.004954
161 0.004992
170 0.005974
176 0.004986
136 0.006961
78 0.005987
53 0.006025
58 0.005986
71 0.004941
85 0.003987
92 0.003992
94 0.004024
93 0.004979
98 0.001988
109 0.005038
121 0.003997
132 0.004024
143 0.002992
148 0.00298
156 0.004013
164 0.0
170 0.003023
143 0.0
97 0.002035
56 0.0
56 0.001001
62 0.0
73 0.0
89 0.001996
95 0.002001
95 0.001995
100 0.00299
108 0.002992
123 0.002992
132 0.004023
144 0.004987
152 0.004987
158 0.005954
164 0.005021
173 0.00598
178 0.007979
151 0.007984
81 0.005975
44 0.007981
36 0.00598
43 0.00798
49 0.004989
63 0.002991
72 0.002993
77 0.002994
82 0.002032
89 0.002018
106 0.0
119 0.002035
130 0.0
139 0.0
148 0.0
153 0.0
161 0.000997
168 0.001997
171 0.002973
113 0.004022
48 0.004991
28 0.005951
39 0.006961
44 0.006979
53 0.006982
70 0.006972
75 0.006979
77 0.003991
86 0.004
96 0.003947
114 0.003977
124 0.003998
138 0.003994
148 0.002963
153 0.002986
161 0.001995
168 0.003036
177 0.0
184 0.0
117 0.001996
63 0.001996
31 0.003989
42 0.00401
50 0.00399
58 0.004022
76 0.004002
81 0.003998
84 0.004997
88 0.005021
103 0.005991
118 0.006935
128 0.006968
144 0.006976
152 0.006983
159 0.006873
165 0.006021
170 0.00598
179 0.005988
188 0.007983
162 0.005982
85 0.00796
36 0.006019
39 0.006014
56 0.00499
66 0.00299
76 0.002043
86 0.0
89 0.000948
92 0.0
107 0.0
118 0.0
134 0.0
146 0.0
153 0.0
161 0.0
165 0.0
173 0.0
181 0.001994
188 0.0
149 0.003017
58 0.0
35 0.0
45 0.0
55 0.001987
67 0.002026
81 0.002015
88 0.001943
88 0.002992
95 0.002044
104 0.002992
122 0.004999
138 0.00599
146 0.006015
156 0.006018
161 0.006015
168 0.005985
174 0.005999
180 0.004976
190 0.005991
180 0.006984
106 0.003993
36 0.007975
35 0.005984
48 0.00497
61 0.005017
70 0.004023
84 0.003983
86 0.001998
87 0.003987
99 0.00301
117 0.0
128 0.0
141 0.000971
150 0.001
155 0.002011
163 0.002031
171 0.001997
176 0.001863
187 0.001995
185 0.001998
96 0.001995
29 0.003017
28 0.002006
49 0.002994
57 0.002903
74 0.003988
84 0.003989
85 0.003946
86 0.004923
98 0.006024
110 0.006976
125 0.006979
141 0.003982
147 0.006018
157 0.001999
165 0.001985
170 0.001994
178 0.001993
185 0.001994
180 0.003008
83 0.001985
35 0.002001
22 0.003991
44 0.004024
54 0.003989
70 0.002972
78 0.002069
81 0.002992
83 0.0
91 0.003019
109 0.0
127 0.0
135 0.0
147 0.0
153 0.0
161 0.0
166 0.0
172 0.0
182 0.000969
139 0.000998
73 0.000998
14 0.001002
26 0.00399
40 0.004981
55 0.004988
69 0.005019
74 0.005044
73 0.007979
76 0.004988
87 0.007978
107 0.007964
120 0.007972
132 0.006981
143 0.004975
148 0.006983
156 0.003006
164 0.003004
171 0.00297
179 0.002002
144 0.0
43 0.002997
12 0.0
22 0.0
41 0.002996
55 0.00303
68 0.0
72 0.003049
73 0.001996
78 0.000998
92 0.003002
111 0.005029
121 0.005022
135 0.005019
144 0.006981
147 0.007978
154 0.002991
166 0.003987
169 0.003978
106 0.002981
56 0.002973
29 0.002987
48 0.001998
62 0.002999
85 0.001993
91 0.00399
87 0.001998
85 0.003985
94 0.002018
110 0.002992
128 0.002961
136 0.003012
145 0.002027
154 0.0
160 0.002993
159 0.000955
96 0.003028
27 0.0
23 0.0
35 0.000985
58 0.0
67 0.0
81 0.001029
80 0.0
81 0.0
96 0.0
117 0.0
128 0.0
142 0.0
147 0.002041
156 0.00299
167 0.002026
165 0.002976
71 0.004039
5 0.005039
0 0.005988
2 0.006976
6 0.006981
11 0.006981
35 0.007183
49 0.004983
53 0.004991
64 0.00299
84 0.002973
97 0.001979
114 0.002995
121 0.002007
132 0.003037
142 0.004987
151 0.002006
161 0.002994
102 0.003034
42 0.002023
4 0.001995
9 0.002025
17 0.0
23 0.000998
44 0.001005
62 0.002052
71 0.003027
76 0.00301
94 0.004059
114 0.004989
126 0.006031
138 0.003981
151 0.00502
158 0.004983
170 0.004003
182 0.00499
190 0.004972
205 0.004035
208 0.004016
135 0.004108
74 0.007021
61 0.004985
68 0.006994
70 0.003026
78 0.006031
100 0.005943
108 0.006028
113 0.004968
124 0.002043
135 0.00502
153 0.004003
162 0.005023
175 0.001988
185 0.002
191 0.000965
200 0.003002
209 0.001004
215 0.000969
224 0.0
234 0.0
220 0.0
139 0.0
107 0.0
101 0.002016
107 0.002995
109 0.004984
118 0.00592
132 0.005975
134 0.005985
136 0.007051
144 0.005971
156 0.006983
167 0.006973
179 0.004977
185 0.003987
193 0.003015
200 0.004018
204 0.002994
212 0.0
218 0.002029
225 0.001015
225 0.002053
161 0.004
125 0.004968
110 0.004991
116 0.00599
119 0.005986
130 0.004983
139 0.006016
138 0.005025
136 0.007978
140 0.007973
154 0.007979
164 0.004158
172 0.007976
178 0.003995
182 0.003025
186 0.002974
193 0.001048
201 0.002027
195 0.002016
131 0.004001
101 0.000998
93 0.003
100 0.00403
106 0.002004
118 0.004989
124 0.002992
123 0.002991
124 0.001009
129 0.003019
145 0.000964
159 0.001989
163 0.0
172 0.001003
179 0.000998
183 0.002007
190 0.002004
199 0.002983
203 0.00296
147 0.002857
97 0.002995
60 0.004
61 0.003987
60 0.004981
63 0.005984
78 0.005975
87 0.005023
90 0.006017
96 0.007959
103 0.007978
117 0.005986
131 0.002958
139 0.002988
149 0.0
156 0.000997
161 0.001989
169 0.001995
179 0.001993
185 0.001998
162 0.001995
111 0.001995
53 0.001961
51 0.003833
54 0.004022
51 0.004022
65 0.003985
75 0.003983
83 0.00399
87 0.005979
97 0.006012
111 0.006017
124 0.005979
136 0.005986
147 0.006982
153 0.006966
163 0.007966
170 0.005951
175 0.00698
185 0.003992
191 0.002972
177 0.002025
94 0.00199
63 0.002003
59 0.0
62 0.003027
63 0.0
75 0.003083
91 0.003026
95 0.003025
99 0.0
107 0.0
121 0.0
136 0.000985
142 0.0
151 0.001992
161 0.001995
166 0.002029
174 0.001959
182 0.002938
187 0.002993
197 0.003991
203 0.00399
170 0.003988
94 0.003956
76 0.004018
79 0.004046
84 0.004023
88 0.004989
106 0.006965
110 0.006983
114 0.005987
117 0.007003
127 0.004988
141 0.007017
156 0.006985
163 0.006977
173 0.007053
179 0.007966
186 0.007017
194 0.002997
200 0.005985
212 0.003973
208 0.003133
172 0.002996
121 0.002981
114 0.003952
122 0.001995
126 0.003952
135 0.002988
146 0.004039
149 0.004024
149 0.003992
157 0.00399
164 0.003989
177 0.003989
186 0.002944
191 0.00399
198 0.002998
202 0.003023
208 0.003
216 0.00299
221 0.003002
223 0.000999
165 0.0
132 0.001005
118 0.0
120 0.0
118 0.000996
121 0.002998
133 0.0
138 0.002974
138 0.0
142 0.0
152 0.002989
160 0.002992
168 0.003961
175 0.004973
182 0.005987
186 0.005996
192 0.006015
195 0.006016
202 0.007861
208 0.004978
194 0.007947
132 0.00502
104 0.004996
104 0.004981
104 0.004987
102 0.005007
112 0.00599
121 0.004987
122 0.004987
125 0.005168
130 0.005955
139 0.005953
150 0.005971
155 0.003986
164 0.003014
171 0.001005
176 0.002991
184 0.000964
193 0.0
198 0.0
204 0.0
178 0.0
115 0.0
95 0.0
96 0.0
94 0.0
95 0.003001
102 0.0
110 0.000998
111 0.000998
113 0.001003
122 0.001992
129 0.002994
140 0.002977
147 0.002993
154 0.003025
160 0.005027
167 0.00403
171 0.004969
179 0.005018
186 0.005991
188 0.006986
149 0.005974
102 0.005987
80 0.005976
79 0.005985
79 0.006982
83 0.004979
89 0.004984
92 0.005987
91 0.004996
94 0.004985
104 0.004974
114 0.006992
123 0.003024
130 0.00598
135 0.003004
141 0.005984
148 0.00299
154 0.005982
153 0.003002
102 0.00296
77 0.00299
64 0.002991
65 0.0
70 0.0
81 0.0
89 0.001008
88 0.000997
89 0.001002
94 0.000997
107 0.001006
118 0.001009
124 0.000998
132 0.001018
135 0.000996
145 0.004033
142 0.002987
100 0.00401
63 0.003959
49 0.003858
52 0.004034
61 0.003973
72 0.002989
84 0.00503
84 0.004987
85 0.003989
94 0.004977
109 0.005985
114 0.005981
126 0.003948
134 0.003987
138 0.003988
148 0.00399
150 0.003991
99 0.003982
51 0.007128
32 0.002996
30 0.002985
33 0.003
39 0.002992
59 0.002984
71 0.0
73 0.003016
81 0.0
90 0.003022
107 0.0
124 0.001991
132 0.000947
144 0.0
154 0.0
160 0.001999
169 0.000997
181 0.00296
188 0.002997
175 0.003032
130 0.003025
79 0.003022
75 0.002996
81 0.003982
83 0.004046
94 0.003887
115 0.003957
134 0.004035
141 0.005018
154 0.005984
172 0.006001
183 0.006035
200 0.005996
211 0.005979
219 0.004977
231 0.004986
238 0.004978
249 0.004987
255 0.003971
255 0.004025
255 0.003988
242 0.004982
203 0.001992
192 0.004983
198 0.002991
201 0.004987
204 0.004995
212 0.005006
222 0.00399
226 0.001029
229 0.002976
237 0.0
243 0.001987
253 0.0
255 0.000951
255 0.0
255 0.0
255 0.000995
255 0.000961
255 0.0
255 0.0
209 0.002991
198 0.001985
184 0.0
176 0.002063
179 0.003042
181 0.002963
182 0.003023
185 0.004023
187 0.005063
186 0.004987
186 0.005981
188 0.006981
190 0.006015
192 0.008014
193 0.004008
195 0.004983
195 0.004974
197 0.003983
198 0.004984
198 0.005024
200 0.004022
201 0.004033
193 0.003023
174 0.008011
169 0.004983
173 0.006021
176 0.004011
177 0.006979
179 0.006014
180 0.005016
179 0.004987
179 0.001998
180 0.004262
182 0.003006
183 0.0
184 0.0
185 0.002027
185 0.0
185 0.0
186 0.000999
186 0.0
187 0.000941
188 0.001994
183 0.001988
162 0.002039
159 0.002995
162 0.003983
166 0.004024
166 0.003998
168 0.003989
246 0.004029
243 0.003993
185 0.003991
187 0.004983
189 0.005985
192 0.005994
193 0.004972
193 0.003988
194 0.00205
195 0.002986
195 0.00298
196 0.002971
197 0.002029
199 0.001009
184 0.0
156 0.000998
154 0.001052
162 0.0
165 0.0
167 0.0
169 0.0
169 0.0
167 0.0
167 0.002006
168 0.0
171 0.000998
172 0.002019
174 0.001997
175 0.002056
176 0.002029
177 0.001996
177 0.002992
178 0.002999
180 0.003987
181 0.004011
157 0.003955
134 0.003991
132 0.004001
138 0.004957
140 0.00396
141 0.003981
142 0.005022
141 0.005982
138 0.006815
138 0.006987
140 0.006982
142 0.006987
144 0.007978
145 0.002983
147 0.003988
147 0.002998
148 0.004991
168 0.002992
170 0.002994
174 0.002993
141 0.005015
94 0.00203
76 0.002984
80 0.003023
82 0.003023
81 0.000999
83 0.0
80 0.000998
76 0.003032
74 0.002963
78 0.002999
84 0.003023
88 0.003044
93 0.004988
98 0.004984
101 0.005023
105 0.004988
110 0.004992
116 0.004985
108 0.004957
70 0.004987
20 0.00496
11 0.004986
15 0.006003
15 0.006
19 0.006015
21 0.005982
17 0.007978
15 0.003983
18 0.006018
27 0.004026
33 0.002996
42 0.003029
51 0.0
57 0.00399
64 0.0
70 0.002998
78 0.000965
85 0.0
60 0.0
0 0.000943
47 0.0
47 0.0
50 0.0
54 0.002015
56 0.002959
58 0.00379
57 0.003992
59 0.004002
65 0.003991
71 0.003958
76 0.004038
83 0.003992
87 0.003993
93 0.004048
96 0.004982
102 0.005986
107 0.006013
105 0.00698
77 0.006012
49 0.005965
46 0.005983
50 0.003995
56 0.005035
59 0.004018
64 0.003004
64 0.003029
66 0.0
71 0.003026
80 0.002994
85 0.003001
93 0.003027
98 0.003027
104 0.002993
111 0.0
114 0.003003
122 0.000996
117 0.000997
95 0.001997
62 0.003957
58 0.004987
62 0.004995
68 0.004983
72 0.005016
77 0.004984
77 0.004986
78 0.005986
83 0.00597
92 0.004985
97 0.005005
105 0.00299
100 0.006023
107 0.003006
115 0.003027
126 0.0
133 0.002966
127 0.001001
61 0.000971
33 0.000998
26 0.000975
34 0.0
43 0.00099
53 0.000968
58 0.001994
59 0.002988
63 0.003998
69 0.003989
83 0.004994
96 0.004992
103 0.004991
113 0.004992
118 0.004988
126 0.004981
134 0.005988
142 0.005984
139 0.00698
89 0.007976
50 0.007974
30 0.007979
42 0.004959
48 0.006025
60 0.003
66 0.006053
68 0.00299
72 0.002992
78 0.0
92 0.001001
103 0.001008
115 0.001962
122 0.003019
131 0.003
136 0.002989
144 0.002995
155 0.003955
155 0.002958
91 0.004979
47 0.005974
38 0.005983
50 0.007024
58 0.007979
66 0.007979
77 0.004985
78 0.002991
79 0.002972
89 0.002991
103 0.001995
112 0.002993
125 0.001994
133 0.002995
143 0.002991
150 0.003979
157 0.002965
164 0.00399
172 0.000997
147 0.003035
71 0.002989
47 0.001982
52 0.002995
65 0.000966
71 0.003032
83 0.0
87 0.0
87 0.0
92 0.0
100 0.0
115 0.0
130 0.000998
137 0.001996
149 0.001989
154 0.001947
162 0.002005
172 0.00285
179 0.002961
187 0.003991
131 0.003989
83 0.003988
55 0.003981
62 0.003988
73 0.005986
81 0.00696
95 0.004982
99 0.004972
100 0.004981
107 0.002996
115 0.00512
132 0.002984
146 0.000967
153 0.0
162 0.001017
171 0.001996
176 0.002963
185 0.003
191 0.00299
200 0.003957
148 0.003984
99 0.003865
66 0.003985
74 0.003946
85 0.003986
93 0.006032
106 0.007911
108 0.007974
109 0.005985
116 0.002028
125 0.00399
142 0.002991
156 0.00199
163 0.001994
173 0.002984
179 0.002989
186 0.003003
