132 0.023933
132 0.007977
131 0.006981
140 0.00503
148 0.003989
146 0.000998
146 0.0
159 0.0
168 0.001003
181 0.000964
190 0.001963
201 0.002954
205 0.004022
208 0.004987
218 0.006035
209 0.005984
143 0.006981
121 0.007978
126 0.006982
136 0.004782
136 0.004989
133 0.004988
140 0.004993
128 0.005142
119 0.004971
136 0.003003
144 0.001995
157 0.001998
163 0.000996
166 0.0
173 0.0
176 0.0
174 0.0
147 0.000998
69 0.00399
72 0.003982
86 0.005027
88 0.005028
90 0.006018
94 0.005982
91 0.006981
79 0.007943
88 0.007975
105 0.007942
108 0.007932
119 0.008012
121 0.007979
123 0.007949
132 0.006981
134 0.007015
69 0.006983
47 0.005985
50 0.004986
66 0.004986
61 0.006006
70 0.005006
68 0.005038
59 0.005033
59 0.003989
70 0.004987
79 0.003989
95 0.002995
106 0.001038
113 0.000997
125 0.001013
127 0.000995
148 0.0
148 0.000998
86 0.001995
70 0.001995
84 0.001995
91 0.001995
85 0.001998
94 0.002006
103 0.001965
105 0.002945
104 0.003985
116 0.00399
124 0.003992
126 0.006021
127 0.00604
128 0.006017
135 0.006997
141 0.007001
141 0.007025
152 0.007005
166 0.006981
174 0.006982
179 0.006981
82 0.006981
59 0.006966
79 0.006032
79 0.007025
73 0.005986
80 0.006027
86 0.006033
88 0.00603
88 0.006025
95 0.004986
100 0.004971
102 0.004971
112 0.004975
117 0.005028
123 0.004035
124 0.004987
136 0.004056
139 0.004987
152 0.002946
160 0.002962
86 0.002992
64 0.001986
72 0.001995
82 0.001992
81 0.00201
96 0.002047
103 0.001994
93 0.002022
97 0.001038
105 0.00103
125 0.000988
136 0.000965
145 0.001028
148 0.000943
153 0.00196
163 0.0
176 0.000999
180 0.002961
184 0.004
163 0.003945
104 0.003951
85 0.003958
103 0.003959
106 0.00398
108 0.003951
118 0.004029
118 0.004026
114 0.00403
118 0.00399
132 0.004986
141 0.005961
157 0.005878
164 0.006982
160 0.006982
175 0.006981
184 0.005003
191 0.004987
191 0.005023
198 0.005028
205 0.005035
147 0.003982
101 0.001995
98 0.001027
110 0.0
104 0.0
103 0.0
111 0.0
117 0.0
110 0.000998
122 0.014955
120 0.001007
131 0.000963
137 0.001995
142 0.003965
153 0.004987
162 0.005988
162 0.006979
172 0.005985
175 0.00598
189 0.004029
192 0.002998
115 0.004041
78 0.00403
80 0.00395
86 0.003989
89 0.004036
88 0.003986
86 0.00403
89 0.00399
85 0.002992
82 0.004021
94 0.002987
106 0.002992
112 0.003027
120 0.00299
123 0.003016
128 0.003032
146 0.001991
151 0.001994
162 0.002037
163 0.001984
127 0.002014
63 0.002985
52 0.002027
63 0.001995
67 0.0
64 0.0
71 0.0
69 0.0
63 0.0
66 0.0
85 0.0
89 0.0
102 0.002045
108 0.001994
114 0.002002
118 0.002959
126 0.00299
139 0.002962
145 0.00296
111 0.002963
42 0.003956
37 0.003959
58 0.003984
64 0.003961
68 0.003991
86 0.004063
81 0.003989
79 0.003996
85 0.00399
98 0.004989
115 0.004973
118 0.004989
130 0.005024
141 0.005989
139 0.006972
147 0.006841
158 0.007026
171 0.006983
147 0.007022
91 0.00698
64 0.007015
79 0.006992
78 0.006819
70 0.007978
70 0.007979
69 0.007029
70 0.005995
76 0.005027
93 0.006029
111 0.006159
117 0.006983
126 0.006032
128 0.005984
132 0.006015
142 0.005027
142 0.005028
155 0.005019
164 0.004987
94 0.00402
41 0.003989
48 0.004033
55 0.003032
51 0.002041
52 0.002033
55 0.001053
62 0.00101
54 0.000998
66 0.000998
81 0.002992
84 0.002993
97 0.004945
109 0.004986
114 0.004989
119 0.007119
132 0.007012
137 0.007016
148 0.007978
148 0.007979
116 0.007978
44 0.007022
37 0.007979
51 0.007024
56 0.007986
54 0.00696
51 0.007013
55 0.00698
48 0.007021
55 0.007021
66 0.006982
78 0.005033
81 0.004041
91 0.002016
98 0.002992
106 0.001994
108 0.001975
119 0.000998
124 0.0
44 0.002028
11 0.002945
27 0.003952
23 0.002958
20 0.002951
31 0.003997
33 0.004987
42 0.006967
50 0.006966
66 0.006978
76 0.006972
91 0.007016
104 0.00697
106 0.006016
115 0.003998
121 0.005125
123 0.004022
140 0.003037
151 0.003041
156 0.003028
75 0.003
24 0.001994
23 0.003026
29 0.001994
21 0.001995
28 0.000987
40 0.000998
46 0.001041
46 0.000998
55 0.0
68 0.000955
84 0.001996
102 0.002024
109 0.003017
115 0.001995
124 0.001995
137 0.001858
146 0.002993
155 0.002952
168 0.002994
174 0.002994
94 0.002973
47 0.002992
51 0.003027
60 0.002943
57 0.002941
55 0.00399
73 0.00399
70 0.003991
73 0.003999
83 0.004036
91 0.004035
110 0.003989
120 0.003986
133 0.006925
144 0.007031
158 0.00698
171 0.006981
188 0.006982
187 0.006982
153 0.007014
104 0.006982
76 0.007017
85 0.007979
94 0.007006
93 0.007976
103 0.007979
106 0.007947
106 0.00701
110 0.006982
129 0.005027
140 0.003984
147 0.005019
159 0.003989
172 0.004021
178 0.003023
191 0.002032
200 0.002026
170 0.001041
104 0.000997
92 0.0
108 0.0
116 0.0
115 0.0
125 0.0
128 0.001995
123 0.001991
137 0.00202
145 0.001995
160 0.001992
170 0.002994
170 0.002992
182 0.002948
192 0.003062
200 0.004987
206 0.005028
222 0.005019
220 0.004974
123 0.004987
102 0.004986
119 0.004986
128 0.006981
118 0.006983
138 0.00702
134 0.007019
130 0.006023
143 0.007025
150 0.004951
155 0.004018
163 0.00299
173 0.000998
179 0.001032
188 0.001015
194 0.001002
198 0.0
210 0.0
198 0.0
99 0.0
86 0.0
103 0.0
110 0.000966
113 0.0
131 0.0
120 0.002002
114 0.002993
122 0.002992
137 0.002992
144 0.003025
154 0.00296
160 0.002957
175 0.004993
179 0.005021
199 0.00502
181 0.00499
79 0.005024
64 0.005028
79 0.00598
82 0.006015
87 0.006019
95 0.006014
96 0.008976
95 0.006994
103 0.007011
107 0.007012
124 0.006991
133 0.006987
136 0.005981
148 0.00702
150 0.006004
165 0.006949
165 0.00595
81 0.007018
33 0.006942
37 0.006983
43 0.005981
38 0.005019
47 0.006017
49 0.004989
47 0.005968
54 0.005027
66 0.003982
76 0.004
86 0.002026
103 0.001036
115 0.00103
123 0.000995
135 0.000978
155 0.001036
169 0.002001
126 0.001002
60 0.001025
56 0.0
58 0.002026
52 0.001982
59 0.002993
64 0.002993
65 0.002818
62 0.003008
71 0.002963
87 0.00297
94 0.003994
103 0.004006
109 0.005029
120 0.00598
130 0.005991
141 0.006981
152 0.006974
164 0.007016
157 0.006974
70 0.006995
41 0.007979
53 0.007978
65 0.004023
60 0.003992
70 0.002992
78 0.003025
75 0.00299
73 0.003028
85 0.003035
92 0.00303
103 0.001997
112 0.0
121 0.001
123 0.0
133 0.000985
134 0.0
147 0.0
163 0.0
100 0.0
39 0.0
53 0.0
69 0.0
65 0.0
77 0.0
79 0.001996
74 0.003007
85 0.002006
104 0.001989
115 0.002957
127 0.002022
136 0.00301
134 0.003
144 0.004019
152 0.005018
167 0.006029
120 0.007025
75 0.007013
59 0.007012
71 0.007019
76 0.007015
80 0.006986
87 0.006016
89 0.006036
86 0.005975
96 0.005986
112 0.006015
129 0.005023
137 0.00299
150 0.004022
156 0.004041
157 0.003989
164 0.002997
173 0.002993
187 0.003025
138 0.001999
80 0.002998
57 0.002027
73 0.001995
61 0.002039
65 0.0
69 0.0
78 0.0
68 0.0
83 0.0
104 0.0
112 0.0
117 0.001051
132 0.000995
140 0.001994
150 0.001995
162 0.001968
173 0.001991
183 0.002951
193 0.003992
197 0.004033
125 0.004009
58 0.004021
61 0.003951
75 0.006012
67 0.006948
70 0.007913
86 0.007029
84 0.007937
91 0.00698
103 0.005992
108 0.0
131 0.006981
137 0.00698
147 0.005988
160 0.006981
174 0.005969
171 0.006019
183 0.004993
189 0.005002
203 0.005019
217 0.00501
201 0.002993
93 0.002032
78 0.003025
95 0.002024
101 0.002036
100 0.001998
103 0.001954
104 0.001155
95 0.001023
104 0.001027
120 0.001046
133 0.001009
138 0.001073
144 0.0
157 0.0
157 0.0
160 0.0
175 0.000999
157 0.002
64 0.002826
58 0.002994
67 0.002994
76 0.005021
81 0.004987
87 0.005995
87 0.007935
85 0.005983
87 0.006979
99 0.00598
105 0.006973
122 0.006136
132 0.004972
142 0.006007
145 0.006017
156 0.005967
133 0.005016
39 0.003972
31 0.002987
44 0.001005
48 0.002005
40 0.001995
57 0.001995
63 0.00199
56 0.001986
63 0.00199
78 0.002
93 0.0
108 0.0
120 0.000997
120 0.001003
130 0.000999
143 0.000967
134 0.001983
35 0.003008
20 0.002993
27 0.002997
24 0.002811
22 0.002958
33 0.002993
33 0.002993
29 0.003055
38 0.004987
50 0.004853
64 0.00502
77 0.005019
85 0.005984
94 0.007991
101 0.007976
104 0.007948
117 0.005022
128 0.005984
138 0.005031
54 0.005027
15 0.005029
14 0.005022
16 0.005019
11 0.005026
16 0.002983
23 0.004024
26 0.002996
33 0.004033
38 0.002991
60 0.004032
79 0.002993
83 0.002992
91 0.002029
103 0.001997
116 0.001991
128 0.000989
140 0.002029
155 0.0
161 0.001028
173 0.000985
96 0.000998
48 0.000997
52 0.002965
67 0.002994
59 0.002992
66 0.005021
76 0.005024
77 0.005022
76 0.004987
89 0.004986
109 0.005019
127 0.004941
131 0.004981
142 0.004989
146 0.005984
154 0.006979
156 0.007979
172 0.002991
187 0.007946
174 0.007949
122 0.007949
85 0.007964
114 0.006016
118 0.006016
125 0.005196
125 0.005984
125 0.003027
127 0.003001
132 0.002989
145 0.00397
159 0.003986
168 0.00301
180 0.002992
184 0.002027
195 0.003
199 0.002992
206 0.002991
209 0.003028
219 0.001988
222 0.002986
140 0.002028
103 0.002998
110 0.002003
122 0.0012
120 0.001031
128 0.001049
128 0.001043
134 0.0
133 0.0
139 0.0
157 0.0
163 0.0
168 0.0
167 0.0
166 0.0
176 0.0
183 0.0
189 0.0
202 0.0
211 0.0
166 0.000998
98 0.00101
98 0.000997
113 0.000873
112 0.001006
113 0.000997
126 0.002986
126 0.002992
118 0.00288
130 0.003991
132 0.004035
143 0.005017
156 0.007024
158 0.005024
161 0.005028
166 0.004988
169 0.00497
177 0.005012
184 0.005987
188 0.00502
192 0.004986
160 0.005021
83 0.005015
85 0.004992
101 0.004988
96 0.004038
100 0.002024
101 0.003004
96 0.000998
98 0.0
105 0.0
115 0.000998
121 0.002992
127 0.004847
138 0.007948
145 0.00599
144 0.005984
149 0.005028
154 0.003978
158 0.001986
172 0.001994
160 0.0
82 0.002027
53 0.004023
68 0.002993
76 0.00502
68 0.004976
80 0.005028
76 0.005023
69 0.006966
78 0.006026
81 0.006994
94 0.006189
111 0.006027
113 0.006026
118 0.006028
123 0.004002
134 0.00402
143 0.00396
155 0.004008
162 0.003988
111 0.004987
54 0.004
40 0.003987
52 0.000997
51 0.001996
53 0.003946
60 0.007014
62 0.004988
60 0.001995
58 0.002029
67 0.000965
81 0.001029
89 0.00103
98 0.001115
111 0.000998
118 0.000997
121 0.002005
133 0.001992
146 0.0
159 0.0
126 0.0
39 0.001
28 0.0
40 0.0
40 0.001
38 0.000996
45 0.000998
49 0.000997
49 0.000997
52 0.001981
69 0.002999
78 0.002992
94 0.002944
104 0.004019
113 0.004965
122 0.005984
120 0.00598
132 0.006973
132 0.006981
150 0.007015
160 0.006974
137 0.006831
43 0.006982
31 0.006996
47 0.006979
44 0.006977
45 0.006902
47 0.00703
55 0.007982
57 0.006947
62 0.00798
69 0.007986
90 0.007979
103 0.005985
111 0.006963
117 0.005981
122 0.006021
122 0.007039
127 0.005986
136 0.006016
137 0.006016
142 0.005016
143 0.005021
129 0.00402
46 0.005029
13 0.002985
19 0.004991
32 0.002992
40 0.004023
52 0.004017
55 0.004011
44 0.003989
41 0.003989
46 0.004029
62 0.003028
69 0.00399
93 0.003021
103 0.004051
114 0.001995
115 0.001993
118 0.002028
135 0.001996
146 0.002029
126 0.002028
45 0.001974
31 0.00203
43 0.002003
57 0.002991
67 0.002029
81 0.003028
90 0.002028
91 0.002992
98 0.003042
121 0.002999
137 0.001997
142 0.002027
149 0.001996
159 0.001005
160 0.001997
162 0.00104
170 0.0
176 0.001012
174 0.000998
117 0.000997
31 0.003031
28 0.004983
29 0.004993
27 0.005976
35 0.006998
41 0.006978
44 0.005999
52 0.007015
59 0.006022
66 0.007021
86 0.005996
99 0.005988
107 0.005984
117 0.005002
128 0.005982
148 0.005026
149 0.006031
80 0.005026
0 0.005021
0 0.00502
0 0.005029
0 0.005023
0 0.004955
0 0.005029
0 0.005025
0 0.003959
0 0.003967
9 0.003984
18 0.004949
25 0.00399
40 0.004982
46 0.004023
53 0.002992
64 0.003034
12 0.0
0 0.000997
0 0.000992
0 0.001001
0 0.000997
0 0.000997
0 0.000998
0 0.000874
0 0.002993
69 0.003977
76 0.003989
84 0.004025
91 0.003985
94 0.007979
100 0.004022
107 0.00602
108 0.005985
84 0.006981
46 0.007017
46 0.006981
50 0.006984
53 0.007979
53 0.006982
62 0.007977
66 0.007978
70 0.007979
72 0.006981
84 0.004965
91 0.005989
100 0.00403
110 0.003004
114 0.002993
118 0.003026
123 0.003032
134 0.003026
137 0.002996
113 0.000993
67 0.000997
63 0.001985
65 0.001002
62 0.0
60 0.0
69 0.002004
78 0.001796
78 0.002005
76 0.001995
90 0.001985
95 0.001995
107 0.002992
113 0.001997
122 0.002957
128 0.002992
134 0.003013
141 0.003958
151 0.005019
153 0.005033
145 0.004982
92 0.006027
83 0.00602
90 0.00599
92 0.005982
91 0.006014
95 0.006031
100 0.007024
97 0.007976
100 0.006981
106 0.006981
119 0.006973
128 0.007962
134 0.007015
140 0.003988
139 0.004991
147 0.004
156 0.003026
150 0.003025
102 0.002979
87 0.002996
90 0.00303
97 0.001992
100 0.002
108 0.001988
109 0.003171
109 0.00104
113 0.0
122 0.0
133 0.0
141 0.0
144 0.000994
148 0.002961
155 0.003033
157 0.003049
154 0.003028
98 0.002849
83 0.002955
87 0.00299
90 0.003025
87 0.002976
95 0.003019
100 0.003047
100 0.002958
101 0.002992
109 0.004955
120 0.005018
125 0.006037
132 0.005973
138 0.006024
141 0.005926
157 0.006993
106 0.007979
58 0.007006
36 0.005025
53 0.002202
49 0.003998
51 0.001996
72 0.001991
70 0.000996
69 0.001012
80 0.0
95 0.001001
109 0.0
122 0.0
139 0.0
152 0.000998
164 0.0
113 0.000966
45 0.000963
35 0.001011
48 0.001039
47 0.000958
53 0.0
61 0.0
74 0.001002
78 0.001012
83 0.000952
96 0.001012
119 0.000992
133 0.000967
145 0.001999
154 0.003029
169 0.003991
182 0.004997
171 0.004997
74 0.005019
45 0.005021
53 0.005021
60 0.005985
64 0.005985
73 0.006018
81 0.006025
83 0.005977
91 0.006017
99 0.00602
119 0.00601
133 0.006022
141 0.006004
159 0.005997
171 0.006018
174 0.007055
191 0.007015
193 0.006869
189 0.006978
84 0.006982
69 0.007943
69 0.006002
81 0.005969
83 0.005979
98 0.005979
101 0.004025
99 0.003992
107 0.002996
114 0.002989
135 0.000999
149 0.002036
163 0.001982
172 0.001998
183 0.000997
188 0.002014
202 0.0
213 0.0
210 0.00099
102 0.0
79 0.0
92 0.001032
102 0.0
101 0.0
113 0.0
114 0.000966
108 0.000998
114 0.001003
128 0.001001
147 0.001029
162 0.001996
171 0.001995
181 0.00203
189 0.001995
200 0.002992
189 0.002006
98 0.001983
61 0.002
82 0.003004
97 0.002955
110 0.003991
118 0.003992
113 0.004024
106 0.003999
115 0.003904
130 0.003951
141 0.00397
155 0.004022
170 0.004029
173 0.004036
191 0.003956
193 0.003986
86 0.004031
44 0.005025
54 0.00502
67 0.004986
73 0.004987
77 0.005096
81 0.007022
68 0.006949
76 0.006982
93 0.007019
101 0.007016
116 0.007014
124 0.007016
136 0.007976
155 0.004958
156 0.006034
78 0.004988
3 0.004986
4 0.005004
23 0.004976
25 0.00495
36 0.004984
36 0.006026
34 0.005012
35 0.005983
48 0.004995
61 0.006026
80 0.004981
96 0.001964
103 0.001029
112 0.0
116 0.001029
132 0.0
103 0.0
30 0.0
0 0.0
0 0.0
0 0.000997
1 0.00099
15 0.002958
20 0.003015
18 0.003039
21 0.00399
39 0.003993
58 0.004061
68 0.00396
81 0.003994
90 0.003991
102 0.003991
112 0.004038
125 0.003991
138 0.004003
148 0.004023
135 0.004024
17 0.003969
0 0.004022
5 0.004968
11 0.005017
12 0.005035
22 0.005077
19 0.005057
13 0.005017
29 0.005019
40 0.004973
63 0.004952
76 0.005022
86 0.004959
97 0.005017
99 0.006014
108 0.006981
119 0.006983
134 0.006979
135 0.007016
70 0.006983
58 0.007938
61 0.007997
67 0.00795
70 0.007949
79 0.00601
79 0.006015
74 0.004993
77 0.005968
88 0.005033
99 0.004986
107 0.003989
115 0.004033
123 0.003983
126 0.004029
132 0.003989
135 0.003996
145 0.005022
154 0.004985
143 0.004983
76 0.00504
60 0.004024
63 0.003161
66 0.002065
68 0.002988
76 0.001051
79 0.0
77 0.0
80 0.0
91 0.001001
98 0.001035
107 0.001006
115 0.000998
124 0.000989
131 0.000986
135 0.000996
143 0.001008
147 0.00101
159 0.002044
148 0.002992
102 0.003042
65 0.004028
68 0.003026
75 0.004888
72 0.005977
78 0.005973
82 0.005996
84 0.006037
84 0.006017
94 0.005962
107 0.005984
113 0.006015
124 0.006038
131 0.005984
137 0.005985
147 0.006021
151 0.005994
160 0.005936
175 0.006981
174 0.00599
112 0.00499
76 0.006015
77 0.004019
83 0.004922
85 0.003026
88 0.003025
91 0.002995
92 0.002993
91 0.003213
100 0.001983
108 0.002986
119 0.002014
122 0.003029
131 0.001006
137 0.0
144 0.0
149 0.0
156 0.000979
121 0.002002
66 0.002993
69 0.00304
77 0.002993
80 0.003024
87 0.003024
90 0.004027
86 0.004978
88 0.004964
97 0.005036
110 0.004956
117 0.004983
129 0.005022
132 0.005019
142 0.004979
151 0.005984
160 0.005983
156 0.006018
78 0.005982
59 0.005985
63 0.006014
65 0.006974
61 0.006991
66 0.007016
74 0.007016
73 0.006016
76 0.007993
84 0.005988
92 0.008008
99 0.005986
108 0.00702
114 0.007024
119 0.006982
127 0.006964
132 0.00702
106 0.007021
47 0.00502
40 0.00698
49 0.004976
48 0.004022
50 0.004015
60 0.003989
61 0.003993
61 0.003987
68 0.003987
78 0.003984
90 0.003009
98 0.002992
104 0.001998
110 0.00304
116 0.002015
124 0.002991
135 0.003032
140 0.003027
79 0.002992
48 0.002992
46 0.003025
53 0.000993
53 0.001986
61 0.000998
65 0.001996
61 0.000966
68 0.000997
76 0.000963
89 0.000882
101 0.0
103 0.00101
107 0.0
110 0.000995
118 0.0
131 0.0
136 0.0
92 0.0
53 0.000997
49 0.001997
59 0.001955
61 0.002967
69 0.004028
75 0.003992
75 0.004005
74 0.004913
87 0.004017
95 0.004032
107 0.005993
116 0.006981
119 0.006986
127 0.006963
131 0.006976
140 0.007014
148 0.006983
153 0.006978
138 0.006968
91 0.006992
57 0.00698
56 0.006974
62 0.006981
59 0.007982
65 0.006982
70 0.007013
73 0.00602
75 0.006017
85 0.006027
98 0.005026
107 0.00611
116 0.005018
124 0.005018
128 0.005025
137 0.005025
140 0.003967
147 0.003995
157 0.003989
164 0.003989
149 0.003957
105 0.003992
71 0.003992
73 0.005046
78 0.003984
75 0.004988
82 0.003992
91 0.005031
93 0.004989
94 0.005195
106 0.005039
119 0.003027
125 0.002974
134 0.001019
140 0.002992
146 0.001984
153 0.001025
160 0.0
168 0.0
178 0.0
184 0.0
196 0.0
201 0.000998
148 0.0
102 0.0
97 0.000997
107 0.002963
111 0.002992
110 0.002958
116 0.00488
116 0.004965
114 0.004991
119 0.004987
129 0.004992
141 0.005975
147 0.006977
157 0.007013
160 0.006979
167 0.00701
171 0.006981
178 0.006967
184 0.006025
195 0.007013
204 0.006022
186 0.004002
128 0.005013
123 0.005977
130 0.004003
139 0.005989
149 0.004987
148 0.00399
146 0.003993
145 0.003989
151 0.004022
163 0.001992
171 0.001007
176 0.000997
184 0.001995
189 0.001995
195 0.001995
200 0.00203
202 0.002006
145 0.001983
127 0.001996
132 0.003006
140 0.001991
141 0.00382
148 0.004016
146 0.004935
141 0.00499
141 0.005004
149 0.004989
156 0.00502
159 0.004983
164 0.004977
173 0.005024
179 0.004982
181 0.005006
126 0.004986
108 0.004951
113 0.005987
122 0.006025
121 0.006983
130 0.006992
131 0.005991
128 0.005988
131 0.006024
137 0.006017
148 0.005947
155 0.003024
161 0.002994
166 0.002993
168 0.004025
164 0.002996
117 0.003991
99 0.000997
104 0.001998
106 0.000965
104 0.001995
109 0.001032
113 0.002045
109 0.002027
113 0.0
119 0.0
128 0.0
133 0.0
136 0.0
140 0.0
147 0.001043
150 0.000854
150 0.002991
104 0.003
90 0.002994
90 0.002975
95 0.002976
91 0.00401
98 0.004981
100 0.004989
102 0.004989
104 0.007018
108 0.007016
116 0.008002
126 0.006974
130 0.007939
137 0.006988
142 0.004073
142 0.002998
147 0.002981
151 0.002993
156 0.002014
165 0.000975
168 0.0
137 0.0
101 0.001037
97 0.0
101 0.000997
97 0.0
98 0.001028
104 0.0
105 0.0
105 0.000998
110 0.002996
115 0.003951
122 0.004021
131 0.004995
131 0.004989
136 0.005029
139 0.007014
144 0.007964
148 0.006949
163 0.006973
165 0.005977
172 0.006984
179 0.006985
182 0.007014
112 0.005951
81 0.005986
79 0.005018
86 0.005005
83 0.00498
90 0.006017
93 0.00498
95 0.005984
97 0.004983
100 0.00398
113 0.002027
125 0.0
135 0.0
143 0.0
153 0.001045
153 0.000965
163 0.002036
169 0.001964
178 0.001962
188 0.001999
194 0.001999
163 0.002992
101 0.002946
96 0.002993
111 0.00299
109 0.002993
110 0.002981
120 0.003019
121 0.003028
121 0.003987
128 0.005046
132 0.004803
146 0.005022
154 0.005023
161 0.006002
166 0.006015
173 0.007012
175 0.006982
184 0.004007
191 0.003997
196 0.001996
205 0.002032
201 0.001991
131 0.001993
105 0.003097
113 0.000994
127 0.000958
124 0.0
125 0.0
132 0.001002
129 0.001008
128 0.001004
140 0.000998
149 0.000998
154 0.000962
164 0.002992
169 0.004015
172 0.00399
180 0.005984
188 0.005992
192 0.006016
200 0.006021
204 0.005996
192 0.006021
141 0.006016
111 0.005989
117 0.005978
129 0.006016
128 0.006016
127 0.006983
133 0.006015
134 0.006014
132 0.003953
138 0.005984
149 0.003997
152 0.00499
157 0.004034
164 0.004125
166 0.001995
170 0.001006
177 0.0
186 0.0
185 0.0
192 0.0
143 0.000998
92 0.001018
93 0.001004
107 0.001032
110 0.002992
108 0.002993
109 0.003027
103 0.00299
98 0.002993
105 0.003958
116 0.00399
121 0.004022
133 0.003961
137 0.004026
138 0.005027
142 0.005021
153 0.005023
150 0.004968
108 0.005018
59 0.004988
57 0.004988
72 0.004987
79 0.00503
85 0.005018
86 0.006974
77 0.005963
80 0.006978
91 0.006975
93 0.006977
106 0.006989
111 0.007944
120 0.006978
127 0.007976
132 0.006012
137 0.007978
145 0.007977
119 0.007944
45 0.007996
35 0.005979
41 0.007983
47 0.004938
44 0.006018
50 0.003987
50 0.003989
49 0.003984
55 0.003989
69 0.003992
79 0.003023
90 0.002985
98 0.001994
105 0.002987
110 0.00502
114 0.002986
122 0.004987
129 0.002995
131 0.003986
54 0.00399
23 0.002992
25 0.001995
32 0.0
33 0.003029
39 0.0
41 0.001034
40 0.0
43 0.0
48 0.0
64 0.0
75 0.00101
81 0.0
92 0.001036
94 0.0
102 0.0
109 0.0
120 0.0
132 0.0
138 0.001007
74 0.0
16 0.0
13 0.0
23 0.002032
22 0.001996
24 0.002026
31 0.001995
30 0.002992
31 0.00481
43 0.005021
48 0.003988
62 0.006978
73 0.006981
79 0.004971
84 0.005166
96 0.004991
106 0.004987
123 0.004986
138 0.005978
149 0.00499
112 0.006111
50 0.005184
28 0.005982
41 0.005993
51 0.005974
59 0.006019
64 0.004986
64 0.003982
64 0.001994
67 0.004023
87 0.001992
104 0.0
114 0.0
127 0.0
136 0.0
139 0.000995
150 0.000998
162 0.0
149 0.0
77 0.002009
44 0.0
57 0.0
70 0.000966
79 0.002072
92 0.003985
87 0.004986
72 0.003992
81 0.00502
91 0.004999
101 0.005021
116 0.00502
125 0.00502
136 0.004987
147 0.005019
161 0.005018
113 0.00498
59 0.004987
43 0.005021
58 0.005026
62 0.006018
71 0.005983
78 0.005985
75 0.005894
75 0.005982
88 0.005993
102 0.005982
122 0.006034
134 0.005983
146 0.005977
156 0.005979
168 0.007013
174 0.006983
191 0.006986
125 0.006981
66 0.007018
53 0.006977
67 0.006981
64 0.005985
62 0.004986
66 0.00499
69 0.005017
75 0.004973
84 0.005002
104 0.004989
116 0.007013
135 0.004988
143 0.005968
157 0.004968
169 0.005986
183 0.006016
187 0.006017
175 0.004033
72 0.002022
52 0.004026
65 0.001993
74 0.003026
76 0.001957
91 0.0
100 0.0
96 0.001996
102 0.00399
115 0.004022
136 0.004989
153 0.005985
165 0.005978
176 0.006017
188 0.005983
195 0.006015
208 0.005983
212 0.005974
213 0.00699
138 0.007983
95 0.005999
96 0.007979
111 0.007979
111 0.007968
122 0.007951
127 0.007979
124 0.00798
127 0.006102
143 0.007974
153 0.005975
170 0.004987
180 0.004967
192 0.003992
196 0.003992
205 0.002972
213 0.003998
219 0.002014
228 0.002992
179 0.002992
121 0.00303
103 0.003153
112 0.003023
125 0.003024
133 0.000965
141 0.002024
136 0.001007
130 0.0
132 0.0
148 0.0
160 0.0
175 0.0
184 0.0
190 0.0
193 0.001029
204 0.000997
210 0.002026
186 0.001006
127 0.001995
92 0.001985
108 0.00203
116 0.001996
125 0.001982
125 0.00303
123 0.006022
112 0.00698
120 0.006883
132 0.006985
144 0.006984
148 0.00698
156 0.007013
158 0.00697
165 0.006975
176 0.005936
133 0.005021
84 0.00499
67 0.003947
77 0.004984
93 0.00402
105 0.004985
109 0.004985
97 0.004986
99 0.004986
109 0.00397
118 0.006032
130 0.00299
138 0.00502
146 0.005024
151 0.003023
157 0.002028
154 0.001004
94 0.000981
44 0.0
56 0.000997
62 0.001995
70 0.003001
75 0.002944
73 0.002991
64 0.004023
66 0.005021
81 0.004986
96 0.005022
105 0.005975
112 0.006019
113 0.00599
121 0.006977
123 0.007979
118 0.007044
75 0.006015
18 0.006024
23 0.006015
36 0.006018
41 0.00399
47 0.00502
54 0.001997
52 0.001992
53 0.001993
65 0.000964
81 0.0
88 0.0
99 0.0
105 0.0
114 0.0
114 0.0
120 0.001007
133 0.0
126 0.0
74 0.0
13 0.0
14 0.000993
34 0.002996
33 0.002995
34 0.002992
45 0.002965
43 0.002992
44 0.002992
55 0.002954
61 0.003998
74 0.005024
82 0.004979
83 0.004989
89 0.004967
87 0.005992
89 0.006046
69 0.005991
14 0.005975
0 0.005986
0 0.007065
0 0.006981
0 0.00598
0 0.006982
0 0.004986
0 0.005986
0 0.004984
0 0.004971
0 0.004028
8 0.004026
26 0.001989
47 0.001996
52 0.002113
63 0.001028
76 0.0
77 0.001018
95 0.002036
48 0.001871
7 0.002964
4 0.003993
26 0.003988
37 0.003985
48 0.004024
56 0.004
62 0.005023
66 0.004835
74 0.004988
93 0.005017
108 0.006984
113 0.006971
118 0.007977
127 0.006025
127 0.007978
131 0.005982
136 0.007973
144 0.005984
138 0.00502
100 0.005991
61 0.005986
72 0.005019
89 0.004951
91 0.005016
95 0.003029
107 0.002995
107 0.00502
106 0.003133
114 0.003988
126 0.002992
136 0.002993
151 0.001998
158 0.001947
169 0.001977
153 0.002002
163 0.001995
182 0.000996
205 0.001996
219 0.0
156 0.000979
129 0.0
116 0.0
138 0.0
166 0.0
178 0.0
170 0.003033
155 0.002992
144 0.00499
167 0.006982
185 0.006996
200 0.006988
203 0.007972
197 0.004987
183 0.006979
195 0.004983
211 0.00502
221 0.00498
223 0.004983
220 0.005052
156 0.00299
145 0.002988
164 0.00103
178 0.0
174 0.000964
181 0.0
178 0.0
179 0.0
179 0.0
185 0.000996
192 0.002044
199 0.002953
198 0.004
199 0.004023
210 0.002995
208 0.004022
214 0.004873
217 0.005017
217 0.005021
213 0.004987
176 0.004988
149 0.004989
169 0.005019
178 0.005025
180 0.004992
181 0.006978
182 0.006985
179 0.006985
178 0.006984
181 0.005979
191 0.005952
192 0.006024
193 0.006021
195 0.005954
197 0.005985
198 0.007981
201 0.005958
201 0.005987
199 0.005986
165 0.004988
134 0.004988
161 0.001995
177 0.001951
178 0.0
177 0.0
177 0.001006
171 0.000997
172 0.000997
181 0.001002
187 0.000999
192 0.000998
198 0.000998
200 0.002038
197 0.002027
197 0.001995
203 0.002994
174 0.004992
108 0.006014
116 0.00602
133 0.006987
143 0.007012
147 0.004978
146 0.004993
142 0.005022
139 0.004987
140 0.003983
154 0.002987
164 0.004042
165 0.003005
165 0.003993
167 0.0
169 0.0
144 0.0
102 0.0
84 0.0
97 0.0
111 0.0
114 0.0
115 0.0
110 0.000997
109 0.003031
109 0.003045
117 0.002992
135 0.004024
133 0.00499
133 0.005021
143 0.006014
143 0.005981
77 0.00602
56 0.005803
69 0.005981
77 0.006019
79 0.00595
84 0.006983
89 0.006005
80 0.005998
84 0.004971
88 0.005978
99 0.003988
106 0.004987
111 0.003024
113 0.005026
119 0.002992
120 0.002992
72 0.002971
38 0.0
48 0.000997
57 0.001955
63 0.001995
67 0.002
67 0.002026
66 0.001995
64 0.003985
75 0.004031
83 0.004026
89 0.003991
92 0.005029
90 0.005993
93 0.005966
98 0.006978
110 0.005996
104 0.005982
59 0.004973
24 0.005985
36 0.006007
47 0.002993
43 0.004987
50 0.003989
54 0.004021
49 0.00399
56 0.0
64 0.002028
78 0.000967
78 0.000998
83 0.001006
90 0.000958
94 0.000997
100 0.000965
109 0.000998
109 0.000998
110 0.000946
74 0.000942
0 0.000997
4 0.001995
18 0.000997
15 0.001002
22 0.000972
31 0.002992
27 0.00404
29 0.006019
37 0.007011
50 0.006982
64 0.006965
74 0.007011
75 0.006984
88 0.007013
96 0.006985
106 0.006985
110 0.005024
116 0.004987
120 0.004994
136 0.003991
69 0.004995
30 0.004983
20 0.004009
38 0.00399
39 0.001992
35 0.002025
45 0.001989
51 0.001981
46 0.002034
60 0.002033
73 0.002001
82 0.000997
94 0.001006
96 0.001007
110 0.001006
120 0.000943
131 0.000997
135 0.000998
148 0.000968
161 0.000998
166 0.000998
142 0.000984
65 0.001991
53 0.00395
83 0.003027
77 0.004986
85 0.00595
89 0.005979
97 0.007014
99 0.005989
97 0.006976
116 0.004985
127 0.006978
138 0.006981
151 0.006982
157 0.006964
168 0.003986
170 0.005984
176 0.003025
180 0.004988
184 0.003992
203 0.001988
181 0.001022
100 0.0
90 0.0
116 0.0
120 0.000965
114 0.000997
123 0.000997
126 0.001997
126 0.001999
134 0.002001
149 0.001996
160 0.002048
169 0.001995
174 0.001995
176 0.001995
184 0.001985
182 0.001997
190 0.001995
198 0.002027
205 0.001995
196 0.002027
102 0.004022
96 0.004022
116 0.004002
118 0.005011
111 0.006713
118 0.006929
120 0.006978
116 0.006979
125 0.006984
133 0.005982
144 0.006982
160 0.006967
163 0.007139
172 0.004987
175 0.00502
178 0.004995
186 0.003973
188 0.003993
198 0.000996
204 0.002004
198 0.000993
102 0.00199
80 0.001998
99 0.002
106 0.001996
107 0.001997
113 0.002003
116 0.00195
102 0.0
108 0.0
108 0.0
124 0.001993
141 0.002034
149 0.002028
156 0.002035
158 0.001998
169 0.001998
165 0.001996
185 0.002859
184 0.00203
195 0.003007
181 0.00303
78 0.002994
67 0.004988
77 0.004977
96 0.004987
86 0.00502
94 0.005018
86 0.005984
80 0.005987
83 0.006964
100 0.004978
108 0.004978
120 0.003989
130 0.005037
136 0.002993
136 0.004984
147 0.002016
158 0.00399
106 0.001993
57 0.003986
36 0.001984
59 0.001018
63 0.000996
58 0.0
63 0.0
72 0.0
66 0.000999
78 0.002995
91 0.003966
103 0.003992
116 0.003977
114 0.003953
122 0.004023
129 0.00402
134 0.006829
147 0.006978
143 0.006998
57 0.007965
9 0.006974
8 0.007073
22 0.007017
16 0.005006
19 0.007014
35 0.004983
37 0.00698
39 0.005064
55 0.004982
59 0.004962
77 0.004975
80 0.003981
93 0.002998
103 0.001978
110 0.001992
122 0.0
125 0.001998
140 0.003011
135 0.003013
22 0.00399
0 0.005987
1 0.006947
11 0.007027
9 0.006979
21 0.006942
20 0.006981
30 0.006982
33 0.007978
34 0.004995
52 0.006034
60 0.002981
75 0.003008
84 0.002981
96 0.002029
101 0.001994
117 0.00103
95 0.0
27 0.0
0 0.0
4 0.00103
20 0.002006
18 0.00203
26 0.001996
24 0.003027
19 0.004029
28 0.004995
35 0.003992
59 0.005022
75 0.004973
82 0.004985
94 0.005029
103 0.005025
110 0.006979
57 0.006982
15 0.005972
61 0.006948
73 0.006896
76 0.006012
82 0.006985
86 0.005984
84 0.006016
85 0.007977
87 0.005983
101 0.007979
107 0.005989
115 0.00799
115 0.006017
121 0.004988
127 0.00399
134 0.00199
132 0.003989
81 0.001992
68 0.002034
72 0.001967
79 0.002009
77 0.002005
84 0.002991
87 0.001995
87 0.001981
92 0.001999
100 0.001981
113 0.0
117 0.002041
130 0.0
133 0.002027
134 0.001996
141 0.002027
149 0.0
150 0.0
158 0.0
160 0.0
132 0.0
89 0.001015
88 0.001995
94 0.001991
95 0.003025
89 0.00304
96 0.002011
98 0.002994
100 0.004032
105 0.006976
114 0.005989
121 0.004983
128 0.004984
134 0.004991
138 0.004992
148 0.004986
148 0.006015
157 0.005007
164 0.005991
168 0.003977
173 0.007015
177 0.006016
175 0.00702
120 0.003983
95 0.006014
101 0.003995
111 0.003986
108 0.003042
112 0.002997
112 0.001993
114 0.001999
116 0.001995
117 0.003014
129 0.0
135 0.002074
136 0.0
144 0.001995
147 0.002993
149 0.002029
153 0.002037
157 0.002029
165 0.002995
146 0.000998
102 0.003997
98 0.005021
113 0.004999
114 0.005989
118 0.006
121 0.00585
122 0.006016
117 0.005953
124 0.005982
133 0.005981
142 0.006
150 0.003983
154 0.002993
161 0.001995
159 0.002001
164 0.0
169 0.001987
178 0.002993
173 0.001029
112 0.0
89 0.0
103 0.001858
112 0.001993
103 0.002992
108 0.00401
117 0.005984
111 0.006021
110 0.006019
126 0.005968
136 0.007017
148 0.006952
155 0.005982
160 0.00698
157 0.006184
164 0.006986
171 0.006015
179 0.005984
190 0.005982
156 0.003998
85 0.005986
70 0.003979
87 0.005984
89 0.003989
94 0.004022
100 0.004033
102 0.003997
98 0.003029
99 0.000994
109 0.002992
123 0.001991
129 0.002033
136 0.002005
148 0.0
147 0.0
152 0.000998
163 0.001995
173 0.000999
156 0.001995
73 0.002003
53 0.001988
69 0.001996
75 0.003985
75 0.003989
84 0.003954
80 0.003982
79 0.004024
85 0.003979
88 0.004027
105 0.004027
113 0.004023
117 0.004982
125 0.00598
130 0.006981
130 0.006969
149 0.006972
156 0.005968
132 0.004984
59 0.005952
44 0.004995
64 0.003031
71 0.004987
70 0.002998
84 0.003991
72 0.003991
68 0.003989
76 0.003991
87 0.004175
97 0.003989
108 0.003989
115 0.004024
126 0.001993
130 0.004037
136 0.001994
142 0.003997
145 0.001992
63 0.001026
32 0.002104
40 0.002987
51 0.001993
53 0.0
62 0.0
66 0.0
55 0.0
60 0.0
70 0.0
87 0.0
96 0.0
107 0.0
115 0.001962
116 0.002001
126 0.002993
139 0.004019
135 0.00502
82 0.006981
26 0.008001
32 0.004989
46 0.006985
47 0.004987
50 0.004985
55 0.005016
53 0.004998
50 0.004995
63 0.003989
84 0.004969
91 0.001991
102 0.004988
108 0.00396
111 0.003989
120 0.002025
130 0.002028
143 0.0
128 0.0
67 0.0
23 0.0
37 0.0
46 0.0
48 0.0
55 0.0
60 0.002958
58 0.002961
60 0.002993
79 0.002993
92 0.002974
101 0.002962
110 0.002992
115 0.004029
125 0.005043
131 0.004984
137 0.00497
150 0.005026
147 0.005956
80 0.00595
33 0.005984
39 0.007978
45 0.007964
45 0.005984
53 0.003988
63 0.006016
61 0.004
59 0.004984
72 0.002003
91 0.001996
93 0.002983
103 0.002036
113 0.0
118 0.0
123 0.0
138 0.001009
151 0.002004
134 0.002031
51 0.003855
38 0.004002
54 0.005974
58 0.006983
63 0.005986
77 0.007965
79 0.007979
80 0.007997
82 0.007015
103 0.001998
114 0.00299
130 0.001026
137 0.002992
147 0.0
152 0.0
160 0.0
166 0.000964
182 0.001001
185 0.002028
188 0.000997
102 0.0
63 0.002027
67 0.003992
82 0.002994
79 0.004027
89 0.004952
96 0.006991
94 0.007946
94 0.00799
98 0.007979
119 0.007959
132 0.005986
148 0.007983
149 0.005997
160 0.003984
169 0.002991
177 0.002989
181 0.003002
191 0.003001
206 0.002994
208 0.001996
130 0.002007
75 0.003989
74 0.001995
92 0.002991
96 0.0
94 0.000986
105 0.000998
106 0.002028
107 0.001975
116 0.004022
133 0.00399
145 0.004026
155 0.003988
158 0.003992
170 0.004022
178 0.006003
188 0.007018
193 0.004974
202 0.003997
213 0.002992
219 0.003
163 0.003035
95 0.002987
74 0.002994
85 0.003003
97 0.002986
104 0.004989
105 0.002995
111 0.00399
105 0.002992
105 0.002989
125 0.00199
141 0.001047
148 0.001995
161 0.0
168 0.002031
175 0.000993
183 0.0
185 0.0
194 0.000994
209 0.001016
201 0.000996
113 0.002047
71 0.000998
78 0.001996
99 0.002026
100 0.001995
111 0.003002
115 0.004025
108 0.003986
106 0.005068
123 0.005984
139 0.005984
158 0.007947
167 0.007978
170 0.006023
177 0.003034
180 0.004975
188 0.002994
199 0.002981
209 0.00299
207 0.002987
146 0.002989
60 0.002
67 0.000999
81 0.00203
79 0.0
85 0.001995
91 0.0
86 0.001994
82 0.001995
95 0.002015
114 0.001962
131 0.001995
141 0.002031
147 0.003986
153 0.004022
160 0.005031
168 0.00702
177 0.00501
188 0.007988
184 0.005983
88 0.003991
38 0.003022
38 0.002024
54 0.002991
60 0.002994
62 0.003085
68 0.002988
65 0.002986
58 0.002993
73 0.002018
91 0.004995
103 0.001989
112 0.003989
121 0.001995
131 0.002983
137 0.001981
145 0.002002
155 0.003055
164 0.0
164 0.001997
121 0.002994
21 0.003987
18 0.003982
35 0.004009
42 0.004043
39 0.004026
52 0.003984
46 0.006993
44 0.006983
52 0.00604
73 0.006955
82 0.006014
95 0.007012
96 0.005991
104 0.007018
112 0.00698
115 0.006981
127 0.007017
140 0.004986
107 0.006982
7 0.004985
0 0.007017
15 0.002
26 0.001997
30 0.002994
35 0.0
29 0.0
30 0.001
45 0.002994
68 0.00398
83 0.006976
90 0.005992
98 0.005983
104 0.007981
109 0.005982
115 0.005979
123 0.005022
103 0.00402
0 0.001984
0 0.0
0 0.002036
0 0.0
0 0.002031
13 0.001993
18 0.002992
18 0.00399
27 0.004987
48 0.005984
67 0.006091
76 0.00695
93 0.004952
104 0.004998
111 0.003991
124 0.003977
151 0.004021
134 0.0
51 0.001996
63 0.002024
65 0.001973
73 0.002032
74 0.0
78 0.0
82 0.0
81 0.0
83 0.0
91 0.0
102 0.0
112 0.0
116 0.000998
121 0.00103
125 0.002032
129 0.002991
137 0.003024
103 0.004954
73 0.004999
60 0.006981
72 0.006983
79 0.003993
88 0.005024
94 0.003027
91 0.002993
86 0.004029
96 0.001994
101 0.002995
113 0.0
115 0.002028
120 0.0
128 0.0
133 0.0
105 0.000954
59 0.0
58 0.0
71 0.000964
73 0.00099
83 0.0
89 0.0
84 0.000998
81 0.001995
92 0.002991
101 0.003951
112 0.003991
118 0.004959
124 0.005986
127 0.006014
129 0.005986
86 0.005983
48 0.006015
52 0.007975
27 0.007979
36 0.005038
44 0.008009
55 0.004997
58 0.006983
58 0.004953
75 0.004997
87 0.004164
101 0.004991
111 0.004988
116 0.004989
128 0.003984
137 0.004022
107 0.004984
37 0.006964
19 0.004001
24 0.005989
32 0.00399
37 0.003992
53 0.004025
57 0.003984
60 0.002992
69 0.0
78 0.001999
100 0.0
115 0.000913
122 0.000963
134 0.000997
145 0.001033
146 0.003009
156 0.003953
169 0.004025
179 0.004046
175 0.003961
119 0.003949
41 0.003949
37 0.005012
51 0.004943
48 0.005984
55 0.006948
64 0.007958
68 0.006018
71 0.002997
81 0.003987
99 0.002014
117 0.002044
125 0.002044
135 0.002
137 0.002007
146 0.0
159 0.001994
166 0.001
177 0.0
187 0.0
189 0.0
166 0.003023
66 0.00399
47 0.004046
60 0.003949
71 0.00403
70 0.004943
80 0.004946
88 0.004946
88 0.005018
92 0.005999
104 0.005998
121 0.006975
133 0.005984
145 0.007973
154 0.003988
162 0.002996
162 0.002025
171 0.003149
178 0.002029
188 0.001988
200 0.002992
202 0.001996
105 0.002026
58 0.002992
69 0.000966
79 0.002993
87 0.001988
93 0.003033
99 0.002993
99 0.003023
101 0.001998
116 0.001019
128 0.000998
143 0.0
150 0.0
160 0.0
168 0.001004
170 0.000997
178 0.000995
188 0.001033
195 0.000997
208 0.000896
208 0.002032
114 0.000998
59 0.000998
65 0.000997
83 0.00199
89 0.003946
98 0.004044
106 0.003847
97 0.004029
98 0.003984
111 0.005948
121 0.005985
140 0.005972
153 0.005971
163 0.00798
168 0.00596
176 0.003987
178 0.004023
188 0.004027
195 0.002988
204 0.004025
116 0.003991
71 0.003992
62 0.004032
80 0.004025
91 0.002994
104 0.003989
104 0.002012
100 0.004134
95 0.00398
98 0.003988
115 0.00399
132 0.0
140 0.002014
149 0.0
155 0.002033
159 0.001008
165 0.00099
170 0.001
106 0.001996
34 0.003005
38 0.003989
63 0.004987
83 0.004987
90 0.006017
89 0.005993
76 0.00598
74 0.005987
92 0.006002
107 0.006014
124 0.00598
131 0.005986
143 0.005987
147 0.00598
156 0.005991
115 0.006976
37 0.006981
15 0.007016
26 0.00698
48 0.004987
60 0.007019
67 0.00499
63 0.006978
55 0.004981
65 0.003989
75 0.00399
91 0.002998
107 0.001994
112 0.0
123 0.001015
133 0.002027
115 0.002028
22 0.0
0 0.001006
5 0.000998
21 0.000997
30 0.000998
38 0.000999
39 0.000998
38 0.000997
45 0.002989
64 0.003988
73 0.002973
92 0.003993
99 0.004035
108 0.003959
117 0.003958
124 0.003952
62 0.004952
0 0.005952
0 0.005986
13 0.005984
21 0.005995
26 0.005962
36 0.006952
36 0.005019
33 0.003983
46 0.002992
69 0.0
79 0.001003
88 0.001
99 0.000998
108 0.000998
123 0.001008
120 0.000997
40 0.001965
59 0.002027
63 0.000998
74 0.002998
79 0.003945
82 0.003945
82 0.003989
83 0.004
88 0.005983
99 0.005949
105 0.006982
111 0.00598
117 0.005977
122 0.003962
127 0.006022
108 0.005989
79 0.005987
63 0.005984
75 0.001997
81 0.004022
90 0.002998
95 0.004993
93 0.002997
94 0.002995
101 0.001984
111 0.002986
118 0.001008
119 0.001011
126 0.0
128 0.0
135 0.0
140 0.001986
135 0.001996
86 0.0
73 0.000998
82 0.000988
87 0.001997
93 0.002969
99 0.00299
100 0.003965
101 0.001998
107 0.002997
117 0.00499
123 0.006025
130 0.005981
138 0.005991
139 0.005986
145 0.005986
148 0.005993
153 0.005983
161 0.005974
173 0.005965
145 0.005984
98 0.005992
80 0.005971
92 0.005986
102 0.005012
104 0.007977
112 0.006985
114 0.006981
110 0.00498
117 0.003008
125 0.003023
136 0.00101
144 0.000998
146 0.001018
149 0.001009
152 0.0
159 0.0
169 0.0
158 0.0
100 0.0
86 0.0
97 0.0
112 0.0
120 0.0
128 0.0
124 0.0
120 0.0
130 0.001007
143 0.001998
149 0.002009
158 0.001966
162 0.002992
166 0.004988
170 0.004987
174 0.005985
177 0.006026
116 0.005975
90 0.005995
94 0.005991
105 0.005953
109 0.005984
115 0.005997
120 0.006046
121 0.004984
119 0.004989
120 0.004955
131 0.004983
136 0.004988
145 0.004988
154 0.006982
157 0.007017
162 0.006979
171 0.006977
174 0.005979
158 0.001994
118 0.004987
85 0.0
92 0.0
101 0.0
102 0.0
110 0.0
114 0.0
117 0.002004
122 0.001999
130 0.001993
142 0.001965
153 0.002012
158 0.002993
165 0.003019
165 0.002962
171 0.002978
179 0.002993
182 0.001997
189 0.004985
148 0.004989
107 0.004988
91 0.004988
103 0.004973
111 0.006016
109 0.005988
117 0.006984
120 0.002958
118 0.001974
123 0.002992
135 0.0
146 0.000986
152 0.0
159 0.0
164 0.0
166 0.0
172 0.0
178 0.002019
181 0.001967
188 0.003995
171 0.004023
107 0.004035
87 0.005996
101 0.00602
107 0.005904
110 0.006026
118 0.006969
119 0.007973
116 0.004971
117 0.007975
127 0.004986
140 0.002988
146 0.001997
155 0.0
162 0.0
164 0.0
169 0.002007
173 0.002993
180 0.002983
188 0.002992
170 0.004024
120 0.005002
83 0.004993
93 0.005027
106 0.004973
113 0.006056
118 0.006945
116 0.005949
111 0.004986
111 0.007944
119 0.004984
134 0.004983
139 0.005014
147 0.004
151 0.004987
154 0.004976
159 0.004981
163 0.003988
167 0.004987
124 0.006981
83 0.003985
80 0.005987
98 0.005032
106 0.002993
113 0.001993
115 0.000965
109 0.002001
108 0.001001
118 0.0
128 0.0
142 0.000999
145 0.001996
153 0.002992
156 0.001995
157 0.003024
162 0.002962
168 0.002964
146 0.002993
74 0.002953
66 0.00301
78 0.00499
85 0.005972
84 0.00499
92 0.004992
88 0.006987
89 0.003984
90 0.007013
102 0.005988
109 0.005955
121 0.005987
123 0.006027
127 0.004987
133 0.002991
133 0.004986
141 0.001999
116 0.002026
76 0.002022
48 0.002047
58 0.002976
68 0.001999
71 0.00103
75 0.0
76 0.0
74 0.002002
77 0.0
90 0.001034
102 0.000998
107 0.001995
115 0.001995
117 0.001995
122 0.001998
128 0.001965
134 0.003997
139 0.004039
89 0.003989
57 0.003932
47 0.003991
58 0.005021
65 0.006981
66 0.006978
73 0.006977
72 0.005998
70 0.00517
78 0.00401
92 0.003978
99 0.005049
108 0.002998
113 0.004988
120 0.006019
123 0.005023
128 0.005132
133 0.004022
144 0.003987
133 0.002991
89 0.004028
48 0.002989
51 0.00399
64 0.003994
69 0.002994
76 0.003021
79 0.001982
76 0.001981
79 0.002005
93 0.002007
98 0.003007
110 0.001995
118 0.003003
123 0.002993
125 0.004024
132 0.0
137 0.00203
150 0.001966
153 0.001008
98 0.002036
62 0.002001
67 0.001833
80 0.001996
88 0.002005
98 0.002996
99 0.002027
96 0.002039
98 0.001995
113 0.002958
120 0.001994
131 0.004979
139 0.006005
145 0.006976
151 0.006971
155 0.005983
162 0.006975
171 0.006975
175 0.006948
161 0.005983
91 0.006982
76 0.005966
85 0.007978
91 0.005984
93 0.005022
101 0.005019
106 0.00502
102 0.004982
108 0.002003
112 0.004021
124 0.001994
137 0.001993
142 0.000965
149 0.0
154 0.0
159 0.001991
161 0.002993
170 0.0
175 0.002991
182 0.000998
174 0.001996
100 0.001994
75 0.001995
84 0.002026
95 0.003995
96 0.005042
100 0.005989
106 0.006018
104 0.006024
105 0.005982
115 0.005987
124 0.006978
134 0.003989
142 0.001994
144 0.002989
149 0.003019
153 0.002995
158 0.003003
166 0.002938
177 0.002032
163 0.000966
102 0.0
75 0.001995
83 0.000959
98 0.002027
100 0.000998
110 0.00299
111 0.002992
107 0.004014
109 0.004957
124 0.004977
129 0.005946
142 0.004995
148 0.005995
151 0.005023
154 0.005986
158 0.006017
163 0.005982
173 0.005998
176 0.005975
132 0.005955
89 0.005983
70 0.005996
82 0.00595
88 0.004971
87 0.004994
92 0.006964
96 0.00403
92 0.005984
98 0.004968
107 0.004178
119 0.003018
128 0.0
134 0.002026
140 0.0
144 0.0
145 0.0
151 0.0
155 0.00099
164 0.002003
146 0.001992
99 0.002024
59 0.00403
71 0.003957
81 0.004982
82 0.006943
84 0.00699
87 0.00402
84 0.007979
84 0.006981
91 0.007012
109 0.007961
113 0.006986
119 0.007013
127 0.003987
128 0.006983
131 0.004002
135 0.007014
144 0.00304
145 0.003999
110 0.004027
54 0.004002
58 0.002984
69 0.003032
78 0.00399
86 0.001993
90 0.000965
85 0.002031
86 0.000969
97 0.002025
110 0.002993
117 0.003023
122 0.002026
125 0.002227
130 0.001991
135 0.0
141 0.003022
150 0.001003
111 0.0
80 0.000949
46 0.0
55 0.0
61 0.0
61 0.0
67 0.0
75 0.001002
75 0.002029
77 0.003947
90 0.004984
103 0.005986
108 0.005989
117 0.005011
120 0.005984
128 0.001997
135 0.004036
141 0.00303
146 0.003028
156 0.003026
134 0.0
88 0.003029
52 0.000968
57 0.0
68 0.000997
68 0.0
76 0.000963
82 0.00197
80 0.002035
85 0.000963
92 0.002989
102 0.001053
113 0.003027
120 0.000997
122 0.001014
128 0.002
132 0.000997
136 0.000998
146 0.00196
153 0.004
145 0.003026
78 0.00399
64 0.005946
75 0.006013
86 0.005834
91 0.006001
103 0.005978
101 0.004971
99 0.003993
104 0.003989
119 0.002992
129 0.003024
139 0.002987
141 0.003988
147 0.002992
151 0.005017
157 0.003994
164 0.005022
132 0.003992
84 0.004983
78 0.00301
86 0.003028
93 0.003026
100 0.0
107 0.002991
107 0.0
109 0.001961
113 0.002001
125 0.002027
136 0.001975
144 0.001996
151 0.001882
152 0.00201
158 0.002004
164 0.002015
168 0.002002
145 0.002009
103 0.002994
78 0.001964
88 0.001994
91 0.002995
94 0.003018
102 0.004007
107 0.005002
107 0.004986
111 0.004995
119 0.006984
131 0.007015
135 0.004973
142 0.004956
149 0.003992
154 0.003992
162 0.002992
170 0.001994
175 0.002992
179 0.002995
141 0.004993
105 0.00199
108 0.003975
116 0.002991
116 0.003029
124 0.003024
129 0.002998
135 0.002943
135 0.0
143 0.003023
156 0.0
160 0.00299
167 0.000997
173 0.000997
177 0.001996
181 0.003001
189 0.003981
193 0.004984
192 0.004988
145 0.004991
126 0.004986
131 0.004985
138 0.004907
141 0.004986
150 0.005988
154 0.006012
149 0.00598
150 0.006046
158 0.006071
167 0.005988
171 0.004987
177 0.006016
183 0.005981
186 0.00599
193 0.004972
198 0.004954
181 0.005987
141 0.002992
138 0.002995
142 0.0
143 0.00096
150 0.001012
154 0.001028
151 0.001019
154 0.0
158 0.001007
163 0.002991
168 0.0
172 0.003061
173 0.0
178 0.000987
179 0.002045
181 0.003987
186 0.003801
190 0.00396
175 0.00396
137 0.003962
126 0.004002
132 0.003957
133 0.004023
131 0.004002
136 0.006
139 0.005939
137 0.003993
138 0.003001
144 0.003016
152 0.002983
155 0.002986
160 0.002993
185 0.002994
186 0.002972
191 0.002993
197 0.002999
201 0.003034
211 0.00311
186 0.003003
105 0.0
94 0.003026
113 0.0
119 0.000966
114 0.000972
126 0.001027
122 0.000997
120 0.001018
123 0.001025
133 0.000965
146 0.001975
157 0.003025
164 0.002995
167 0.004977
178 0.004949
182 0.005989
190 0.006015
162 0.005985
98 0.005985
82 0.006016
91 0.005987
101 0.005981
103 0.005906
105 0.006976
113 0.00801
108 0.004987
112 0.007015
123 0.004955
127 0.006001
137 0.002994
146 0.002991
151 0.002987
157 0.003001
160 0.0
171 0.0
181 0.0
180 0.003025
143 0.0
67 0.001992
72 0.003037
78 0.004988
78 0.004952
82 0.005009
89 0.004949
92 0.006991
87 0.006982
95 0.006981
104 0.004986
118 0.007978
132 0.005022
143 0.003983
146 0.003994
150 0.005003
156 0.003993
158 0.004024
173 0.002992
178 0.00399
123 0.002992
57 0.003989
50 0.001992
63 0.003989
76 0.003988
79 0.002995
86 0.002989
79 0.001002
76 0.001962
80 0.001995
96 0.002992
108 0.002992
120 0.004016
125 0.005985
127 0.006984
133 0.005957
146 0.005982
149 0.005993
101 0.005953
51 0.005982
35 0.005971
53 0.005983
62 0.005952
74 0.006981
77 0.005994
71 0.005983
74 0.006966
81 0.005984
99 0.007954
110 0.006969
120 0.005987
130 0.004987
138 0.002977
141 0.004021
150 0.002032
150 0.003024
81 0.001007
25 0.0
31 0.0
45 0.000967
47 0.0
47 0.0
57 0.0
51 0.001003
53 0.001996
66 0.004004
84 0.00398
96 0.003991
106 0.003991
109 0.003994
113 0.003989
121 0.004988
126 0.004996
130 0.005019
75 0.004984
17 0.00499
16 0.004981
27 0.00502
33 0.00498
48 0.005993
58 0.005989
55 0.005979
59 0.005011
67 0.004975
85 0.002973
95 0.003004
109 0.003031
114 0.005984
123 0.002992
130 0.003979
143 0.004204
154 0.00399
101 0.002991
54 0.002992
44 0.003816
62 0.0
66 0.003023
76 0.000952
83 0.0
83 0.0
80 0.0
99 0.002057
110 0.003005
125 0.003001
139 0.004985
148 0.005983
152 0.006016
162 0.004987
173 0.005021
150 0.004024
105 0.004989
80 0.004984
95 0.007978
107 0.004982
108 0.006978
123 0.007979
125 0.007017
124 0.006971
127 0.007154
148 0.006981
163 0.00197
169 0.00502
177 0.0
184 0.001994
190 0.00299
198 0.001017
207 0.0
219 0.001962
188 0.0
136 0.0
105 0.000996
119 0.001987
123 0.0
122 0.001024
127 0.001014
134 0.003023
130 0.002979
135 0.002993
152 0.003023
164 0.0
167 0.001006
178 0.002042
182 0.002028
191 0.002012
195 0.002015
202 0.001995
212 0.000984
218 0.001992
222 0.001979
216 0.00401
158 0.004026
100 0.003928
115 0.004023
122 0.004035
122 0.003987
131 0.004025
139 0.004989
130 0.005998
130 0.006974
136 0.006949
151 0.002985
165 0.006977
173 0.007976
179 0.003994
183 0.007016
191 0.00422
196 0.001979
196 0.002975
205 0.002991
215 0.0
195 0.00097
109 0.001
88 0.000997
107 0.0
120 0.000989
116 0.00199
122 0.002992
120 0.005982
120 0.006026
119 0.005989
132 0.007976
147 0.006192
153 0.004988
158 0.003029
166 0.0
169 0.003029
172 0.0
179 0.003027
187 0.0
143 0.0
94 0.000968
70 0.0
90 0.00195
100 0.001997
104 0.001992
112 0.00296
112 0.00303
108 0.002949
113 0.002992
128 0.002956
141 0.003029
145 0.003
152 0.002996
160 0.002988
164 0.002944
166 0.003822
171 0.004002
179 0.004022
104 0.004011
64 0.004028
62 0.006969
73 0.006024
78 0.006964
77 0.005988
85 0.005976
87 0.005989
85 0.005007
90 0.003994
107 0.003953
118 0.005984
123 0.003001
136 0.004
141 0.003032
144 0.002992
156 0.002971
161 0.00299
142 0.003025
58 0.0
45 0.002987
64 0.0
76 0.0
77 0.0
87 0.001016
91 0.001033
89 0.000975
99 0.0
104 0.0
123 0.00096
134 0.0
138 0.0
144 0.000972
151 0.0
160 0.002003
170 0.001994
176 0.001996
116 0.003992
61 0.004989
70 0.003949
84 0.004023
92 0.006
97 0.005989
102 0.007014
93 0.005022
91 0.007946
104 0.004979
113 0.007971
130 0.004974
137 0.004983
141 0.004985
144 0.004988
146 0.004987
156 0.004972
153 0.004995
107 0.004027
55 0.004987
65 0.004021
86 0.003997
90 0.003986
102 0.002972
104 0.002961
95 0.0
103 0.00097
110 0.001985
122 0.0
132 0.000997
140 0.00296
144 0.003962
152 0.005979
151 0.005981
163 0.006148
148 0.004973
96 0.004019
46 0.002998
52 0.002993
69 0.002995
76 0.006023
79 0.002988
86 0.005023
80 0.004029
79 0.00399
91 0.004029
102 0.003978
116 0.003018
127 0.0
135 0.00502
137 0.0
141 0.0
146 0.0
157 0.002053
127 0.001031
78 0.000999
45 0.000995
55 0.001995
71 0.002049
73 0.001895
77 0.000997
78 0.000996
75 0.001001
81 0.002027
99 0.002833
114 0.004004
128 0.004989
132 0.004996
141 0.004979
146 0.004939
155 0.00499
158 0.005987
170 0.007029
175 0.007019
104 0.00798
53 0.005022
48 0.007013
65 0.006178
75 0.004989
77 0.004986
81 0.003987
81 0.004984
77 0.005019
91 0.003956
102 0.003921
118 0.002998
122 0.00399
126 0.002022
128 0.004022
132 0.002939
143 0.00399
157 0.002992
140 0.002994
53 0.002991
39 0.000958
51 0.000976
68 0.0
75 0.0
83 0.000996
74 0.0
78 0.0
85 0.0
104 0.0
119 0.0
131 0.0
133 0.0
140 0.0
144 0.001007
147 0.000999
157 0.00101
163 0.001997
97 0.002992
36 0.002962
32 0.002992
44 0.00303
46 0.002992
51 0.002998
63 0.002993
60 0.00399
64 0.005019
78 0.004988
88 0.005573
95 0.00594
108 0.005949
115 0.00598
114 0.00599
117 0.00599
119 0.005984
135 0.005987
136 0.005987
68 0.004986
14 0.006991
15 0.003989
32 0.005982
41 0.006017
54 0.006022
66 0.006013
65 0.006015
70 0.005986
91 0.004004
100 0.006019
119 0.002961
127 0.005983
136 0.003002
145 0.0
156 0.001003
163 0.0
177 0.000961
187 0.000963
146 0.0
76 0.002028
69 0.000993
84 0.003001
90 0.0
89 0.0
107 0.0
108 0.0
112 0.001961
118 0.000997
131 0.002027
151 0.002992
163 0.002971
171 0.003992
179 0.003989
180 0.003961
190 0.003957
199 0.005983
207 0.005983
219 0.005815
231 0.005984
218 0.005983
133 0.006019
111 0.004967
126 0.005944
135 0.005975
133 0.006015
139 0.006016
146 0.004991
143 0.006975
144 0.006978
157 0.003989
167 0.004987
175 0.003028
179 0.005018
185 0.002025
187 0.001999
196 0.002991
204 0.0
217 0.0
212 0.000965
139 0.000998
118 0.000993
134 0.0
144 0.002995
149 0.000997
163 0.002029
161 0.0
158 0.000973
161 0.001996
177 0.002996
182 0.003023
190 0.003031
196 0.00287
198 0.002961
202 0.003954
208 0.004032
218 0.004023
202 0.003948
157 0.003989
130 0.004987
138 0.004944
151 0.004959
144 0.006022
153 0.005972
160 0.005981
158 0.005954
158 0.005985
165 0.005989
173 0.00598
181 0.005981
189 0.006977
195 0.004989
196 0.007967
206 0.004979
214 0.007979
216 0.005984
220 0.005984
167 0.005017
121 0.002028
133 0.0
148 0.0
145 0.0
148 0.0
156 0.0
155 0.00203
150 0.001018
160 0.002992
163 0.0
173 0.000981
179 0.002041
183 0.003022
188 0.002992
192 0.002992
202 0.003025
198 0.003023
207 0.005022
211 0.006978
152 0.00703
115 0.005982
122 0.007981
140 0.005987
141 0.007811
142 0.005019
147 0.004987
148 0.004988
144 0.005003
149 0.004988
160 0.002994
169 0.002992
172 0.002992
176 0.002993
180 0.005985
181 0.001983
185 0.005002
189 0.002995
194 0.002989
203 0.002993
201 0.003029
128 0.00499
104 0.0
126 0.002037
135 0.001996
135 0.003996
140 0.005994
139 0.007028
131 0.005989
134 0.003983
141 0.00298
150 0.00295
154 0.002995
155 0.001996
158 0.002978
155 0.003008
158 0.002992
168 0.004971
172 0.002997
169 0.004987
115 0.002995
82 0.00407
94 0.001978
107 0.003028
111 0.002024
116 0.0
120 0.0
117 0.0
117 0.002002
120 0.001993
134 0.002027
143 0.002006
149 0.002993
155 0.002953
158 0.001962
161 0.005987
168 0.005976
176 0.007984
169 0.003987
111 0.004975
76 0.003009
87 0.002993
99 0.003047
97 0.0
97 0.003027
102 0.0
99 0.000997
97 0.001995
105 0.002038
110 0.001981
117 0.001987
123 0.001965
123 0.001996
128 0.004025
134 0.002992
139 0.003991
138 0.003952
100 0.003945
51 0.00398
59 0.003958
66 0.004053
65 0.004006
64 0.00396
68 0.003935
66 0.0038
61 0.004016
69 0.004024
85 0.003942
90 0.005026
97 0.004031
101 0.005003
108 0.005018
117 0.005007
121 0.00502
69 0.004994
34 0.004978
31 0.005984
50 0.005984
55 0.005975
