47 0.016954
52 0.000998
61 0.00099
65 0.000989
68 0.0
77 0.0
85 0.0
102 0.0
112 0.0
124 0.001007
132 0.000998
137 0.000989
104 0.000989
52 0.000998
15 0.000997
18 0.0
28 0.0
46 0.0
59 0.0
67 0.0
70 0.0
62 0.0
52 0.0
48 0.0
50 0.0
59 0.000997
73 0.0
83 0.0
91 0.0
98 0.0
103 0.0
102 0.0
104 0.0
110 0.0
121 0.0
135 0.0
145 0.0
153 0.000998
162 0.000997
166 0.0
172 0.0
155 0.0
97 0.0
42 0.0
35 0.0
61 0.0
77 0.0
77 0.0
80 0.0
81 0.0
67 0.0
51 0.0
46 0.0
52 0.0
63 0.0
78 0.0
92 0.0
99 0.0
103 0.0
103 0.0
104 0.0
107 0.0
108 0.0
111 0.000969
124 0.0
129 0.0
136 0.0
141 0.000998
148 0.0
152 0.0
116 0.0
64 0.0
38 0.0
40 0.0
63 0.000997
73 0.000965
78 0.0
84 0.0
79 0.0
64 0.0
45 0.0
44 0.000962
50 0.000971
65 0.0
76 0.0
84 0.0
86 0.000999
89 0.001995
90 0.0
92 0.0
94 0.0
97 0.0
106 0.000994
118 0.0
130 0.001004
138 0.000998
139 0.001013
139 0.001003
136 0.000998
96 0.000962
43 0.000988
13 0.001006
10 0.0
22 0.001004
30 0.0
32 0.001049
33 0.000997
14 0.0
1 0.001
0 0.0
9 0.002002
24 0.001995
44 0.000997
53 0.000998
61 0.0
68 0.000997
68 0.0
68 0.000998
74 0.001994
81 0.001995
94 0.000999
102 0.000997
108 0.0
113 0.001019
123 0.000958
132 0.000945
104 0.000998
41 0.0
17 0.0
32 0.000995
48 0.001966
54 0.001993
67 0.001
70 0.000998
60 0.000998
45 0.001995
36 0.000998
38 0.000967
48 0.000995
58 0.00098
75 0.00103
82 0.001011
82 0.001023
81 0.001997
87 0.000997
94 0.000977
99 0.000999
108 0.001992
122 0.001986
135 0.000999
139 0.000997
144 0.001028
158 0.000997
141 0.000998
68 0.000984
36 0.001982
30 0.001986
39 0.001985
57 0.000998
61 0.00198
62 0.001994
61 0.000997
58 0.002012
49 0.001021
46 0.000999
53 0.000999
66 0.001788
77 0.002961
82 0.001025
88 0.001986
93 0.001957
103 0.002041
102 0.001988
106 0.000996
109 0.002033
125 0.001029
133 0.001054
136 0.000998
128 0.001996
129 0.001993
132 0.00202
146 0.001037
137 0.001997
90 0.003031
51 0.002999
43 0.001981
58 0.001994
79 0.001994
81 0.002022
82 0.002029
82 0.002
70 0.002046
53 0.002033
48 0.001004
48 0.002001
56 0.003025
61 0.002969
67 0.001991
68 0.001993
70 0.001969
73 0.002028
77 0.002055
79 0.002034
86 0.001994
93 0.001979
96 0.00299
101 0.003028
102 0.003042
102 0.003023
103 0.001987
110 0.001999
100 0.001994
49 0.001995
6 0.002023
0 0.003036
0 0.003035
0 0.002045
11 0.002013
15 0.001973
21 0.002992
20 0.003009
7 0.002026
3 0.001979
21 0.002026
37 0.002019
49 0.00203
56 0.00303
61 0.003029
63 0.000946
66 0.002037
69 0.002026
73 0.004023
71 0.001997
70 0.002036
78 0.002025
85 0.004016
96 0.002996
98 0.00299
50 0.001997
12 0.003028
0 0.003042
0 0.003026
0 0.00202
7 0.00204
12 0.003018
15 0.003034
11 0.003007
2 0.003989
3 0.002972
12 0.002985
21 0.003022
35 0.003021
39 0.00302
43 0.003022
49 0.001975
52 0.002045
57 0.00302
67 0.004018
79 0.003047
95 0.00403
103 0.003026
110 0.002989
115 0.00301
125 0.004989
133 0.003991
95 0.003022
46 0.003034
17 0.003008
13 0.003966
23 0.004078
40 0.002033
45 0.003038
50 0.003037
49 0.004035
37 0.003019
28 0.004022
31 0.004021
41 0.003994
55 0.004022
66 0.003025
75 0.004019
81 0.003991
90 0.004023
97 0.003974
109 0.003029
115 0.002992
124 0.003031
131 0.004035
139 0.003999
148 0.003992
158 0.002978
169 0.003024
178 0.004018
181 0.004025
186 0.004025
191 0.004025
190 0.003009
138 0.003027
82 0.00304
57 0.004033
59 0.004036
75 0.003037
88 0.004029
89 0.004029
87 0.005025
81 0.005006
61 0.00399
52 0.003989
52 0.003992
61 0.002982
67 0.004021
76 0.004027
78 0.003931
80 0.00301
80 0.004038
84 0.003972
91 0.003992
98 0.004997
102 0.005021
105 0.005013
112 0.003989
120 0.00402
123 0.003989
130 0.004018
135 0.005046
145 0.004046
153 0.003993
155 0.003989
105 0.003995
63 0.003989
44 0.004986
55 0.004986
72 0.004022
83 0.005025
89 0.00501
92 0.005017
84 0.004978
71 0.00498
62 0.005014
66 0.005016
84 0.005022
98 0.005046
108 0.00502
111 0.004988
115 0.004031
119 0.004019
121 0.004035
124 0.005033
130 0.005023
142 0.004028
151 0.003991
156 0.00403
158 0.006021
163 0.006014
169 0.005019
156 0.005985
101 0.006015
58 0.005022
39 0.004013
42 0.005017
58 0.005015
69 0.005018
74 0.003972
75 0.004018
67 0.004024
55 0.006013
41 0.005029
44 0.006016
55 0.005981
74 0.005017
85 0.005018
93 0.005021
100 0.005005
109 0.00602
113 0.005023
118 0.00402
119 0.005019
126 0.005026
140 0.003967
147 0.005019
151 0.005028
153 0.005037
156 0.004989
165 0.005019
169 0.005984
131 0.006012
64 0.005017
40 0.005029
37 0.005019
49 0.006026
68 0.006023
75 0.005019
84 0.005988
81 0.006011
68 0.004986
62 0.005061
66 0.00602
78 0.006026
100 0.005029
111 0.004995
117 0.005021
123 0.005026
128 0.005034
131 0.006021
134 0.006024
140 0.005035
150 0.005018
155 0.006022
158 0.007042
162 0.006015
164 0.005019
168 0.005004
176 0.004985
138 0.005019
85 0.005017
56 0.006029
54 0.005984
71 0.004975
82 0.004993
86 0.006032
93 0.007077
90 0.006967
71 0.005989
58 0.006006
57 0.006015
67 0.006009
83 0.006019
98 0.005991
102 0.005978
109 0.005034
112 0.005024
114 0.004987
121 0.00699
136 0.00699
151 0.006008
159 0.006017
169 0.006016
177 0.006017
185 0.005985
194 0.006984
175 0.007014
109 0.006015
84 0.006032
88 0.006026
106 0.007017
115 0.00701
121 0.007015
128 0.006981
129 0.006983
110 0.005986
104 0.006017
107 0.006981
115 0.006981
128 0.005983
134 0.006013
139 0.006024
145 0.007024
152 0.006987
157 0.006025
167 0.006015
179 0.006027
188 0.006022
187 0.006975
187 0.006951
194 0.006982
189 0.006018
147 0.006015
102 0.005983
79 0.007012
79 0.007027
97 0.006023
108 0.006023
111 0.007009
118 0.007033
114 0.007019
105 0.006982
101 0.006982
103 0.006981
119 0.005987
130 0.006965
138 0.006025
143 0.007015
150 0.007961
148 0.007022
150 0.007035
157 0.007012
162 0.007012
164 0.007018
166 0.008015
169 0.007979
178 0.006025
181 0.007013
146 0.005987
88 0.006965
53 0.007023
43 0.005999
52 0.006031
71 0.007037
76 0.007009
83 0.007016
78 0.007979
65 0.007979
55 0.00701
51 0.007087
55 0.007036
68 0.006981
76 0.006974
79 0.005989
75 0.007946
76 0.006981
77 0.006966
82 0.006947
85 0.007979
86 0.007979
91 0.007028
102 0.007016
111 0.007029
97 0.007971
53 0.007986
22 0.007026
13 0.007979
22 0.007979
40 0.007979
60 0.007977
62 0.007979
63 0.007979
48 0.007033
41 0.006995
39 0.006924
47 0.007948
62 0.007979
74 0.007013
82 0.007978
90 0.007016
95 0.006965
93 0.007979
96 0.007978
99 0.007013
109 0.00702
112 0.007994
124 0.007979
106 0.007973
59 0.007983
23 0.006985
12 0.007974
24 0.006981
38 0.00698
45 0.00701
55 0.007992
54 0.006971
34 0.006989
26 0.006971
27 0.007004
41 0.006985
51 0.007982
63 0.007983
71 0.007978
78 0.006973
84 0.007015
87 0.006988
94 0.007979
102 0.006981
107 0.006978
110 0.00698
118 0.006992
129 0.006999
120 0.007039
55 0.006991
11 0.00699
3 0.00698
11 0.007979
28 0.007026
32 0.007967
40 0.007978
42 0.007991
39 0.006984
33 0.00698
34 0.006988
43 0.007021
63 0.006991
80 0.00702
92 0.007016
98 0.007011
104 0.007011
111 0.007014
117 0.007978
128 0.007056
134 0.007978
147 0.00698
148 0.00697
156 0.006977
173 0.006986
189 0.007029
160 0.006981
100 0.007024
61 0.007018
45 0.007023
52 0.007014
80 0.006015
88 0.005984
89 0.006975
90 0.006985
81 0.005976
59 0.006979
51 0.00702
56 0.006971
69 0.007019
78 0.006981
85 0.007015
90 0.006989
96 0.006981
104 0.005988
111 0.006978
119 0.006001
128 0.005984
134 0.005968
151 0.006981
162 0.007016
182 0.006995
176 0.006981
131 0.007014
89 0.00702
77 0.005984
82 0.006982
96 0.005979
112 0.005986
127 0.005987
131 0.006031
117 0.00598
108 0.005985
107 0.006026
112 0.006029
123 0.006027
136 0.006988
145 0.006949
154 0.006969
158 0.005967
160 0.005976
165 0.005996
170 0.006026
174 0.00595
179 0.005984
189 0.006025
197 0.006016
180 0.006014
129 0.006012
91 0.005985
79 0.005975
89 0.005985
102 0.00599
111 0.006009
121 0.005984
115 0.006015
104 0.006017
91 0.006018
92 0.006031
100 0.005984
112 0.005982
121 0.004989
134 0.005027
141 0.005992
143 0.00499
147 0.004996
156 0.006036
162 0.005977
164 0.006018
171 0.006021
182 0.006026
188 0.005988
163 0.006017
115 0.006032
68 0.005977
58 0.006009
70 0.005982
86 0.00499
103 0.005072
108 0.004987
104 0.005026
91 0.005084
78 0.005019
77 0.004989
87 0.005984
97 0.005979
112 0.00602
123 0.005987
135 0.00595
142 0.005953
151 0.006024
158 0.006023
159 0.004983
162 0.00502
168 0.00503
175 0.005026
183 0.005026
186 0.005054
130 0.004986
81 0.004996
55 0.004987
51 0.004991
71 0.004982
80 0.005988
91 0.006014
93 0.006024
81 0.006055
67 0.005982
61 0.005026
63 0.005018
77 0.004979
87 0.004942
91 0.005006
97 0.00503
100 0.00503
104 0.005028
109 0.005024
113 0.00502
117 0.004989
119 0.00503
125 0.004987
138 0.004978
141 0.004951
105 0.004997
63 0.005023
38 0.004986
43 0.004947
60 0.005048
78 0.005057
93 0.004987
93 0.005019
84 0.004983
74 0.005023
68 0.004952
78 0.004958
91 0.00494
103 0.005018
116 0.004995
124 0.005029
130 0.004987
135 0.004987
140 0.005028
148 0.004035
153 0.004032
157 0.004032
167 0.00399
178 0.004
155 0.00398
103 0.003955
49 0.003993
51 0.005037
64 0.005029
78 0.00498
91 0.005027
102 0.005027
94 0.004986
82 0.004987
72 0.004947
71 0.004
79 0.004005
92 0.004006
112 0.00399
122 0.003948
131 0.005019
136 0.005043
142 0.004987
154 0.004987
157 0.00502
162 0.004034
171 0.004997
182 0.003998
194 0.004012
174 0.003994
92 0.004032
63 0.004031
50 0.003992
49 0.003991
55 0.004034
65 0.00403
76 0.003992
79 0.003992
75 0.003961
63 0.005008
59 0.003968
68 0.003998
94 0.00399
106 0.003991
118 0.004018
119 0.003992
113 0.00399
109 0.00402
115 0.004026
120 0.003001
126 0.003994
130 0.00395
141 0.003004
152 0.003052
163 0.004013
131 0.002992
76 0.002993
37 0.003002
21 0.002956
33 0.002973
53 0.00399
69 0.004027
82 0.003961
84 0.003994
67 0.004015
54 0.003956
47 0.003992
55 0.003991
68 0.00399
79 0.004002
91 0.003989
104 0.00399
107 0.003027
106 0.002992
107 0.002961
112 0.00295
123 0.002936
129 0.00299
142 0.002993
153 0.002992
164 0.00305
164 0.00399
120 0.003989
57 0.00395
35 0.00399
31 0.004037
44 0.00395
63 0.002959
83 0.002985
94 0.002962
82 0.002995
67 0.003044
61 0.003026
65 0.002971
79 0.002942
101 0.002992
110 0.00399
122 0.003036
131 0.002987
136 0.001986
141 0.003951
145 0.002956
149 0.002992
152 0.002993
160 0.003024
173 0.00298
180 0.002992
124 0.003983
66 0.003023
27 0.003036
15 0.003952
24 0.001979
45 0.002991
63 0.002992
72 0.003001
61 0.00296
45 0.002951
32 0.002955
37 0.003011
54 0.003002
70 0.002992
82 0.002993
92 0.002985
94 0.002986
103 0.002985
113 0.002988
122 0.001995
129 0.001982
136 0.002958
146 0.002992
155 0.001995
162 0.001996
141 0.002027
76 0.002028
19 0.002955
0 0.002992
0 0.002999
17 0.003023
27 0.002993
41 0.003024
41 0.001995
29 0.001995
16 0.00203
13 0.002025
25 0.001995
42 0.002114
57 0.001995
70 0.001995
85 0.001984
104 0.002012
112 0.000985
123 0.003026
126 0.002992
128 0.002992
129 0.001995
136 0.001994
146 0.001994
129 0.001994
73 0.002011
16 0.001995
0 0.001999
0 0.002027
8 0.00203
27 0.001996
37 0.002004
36 0.001994
26 0.002026
14 0.001996
9 0.002992
22 0.001995
36 0.002
44 0.002007
51 0.001995
61 0.002029
69 0.001957
78 0.001995
81 0.002026
89 0.00201
97 0.002001
106 0.001932
107 0.001955
73 0.001995
20 0.001996
55 0.001954
53 0.001955
66 0.001996
77 0.001996
92 0.000998
94 0.000998
87 0.000998
80 0.001009
79 0.001008
87 0.002046
96 0.001995
104 0.001956
110 0.001983
116 0.001989
122 0.00202
124 0.001995
128 0.000998
132 0.000998
137 0.00202
142 0.001994
143 0.001029
112 0.001997
85 0.001005
72 0.002
73 0.000997
82 0.001015
96 0.001
106 0.000999
108 0.000997
102 0.000997
95 0.000988
94 0.001004
98 0.001994
107 0.001988
115 0.001995
120 0.000992
125 0.001006
130 0.000997
136 0.000997
138 0.000997
142 0.001002
147 0.000991
152 0.000957
154 0.001043
137 0.000997
103 0.001
89 0.000998
90 0.000999
99 0.001997
113 0.000998
121 0.000996
123 0.001995
118 0.000997
113 0.001036
110 0.001001
114 0.000997
122 0.000997
131 0.000998
137 0.000997
143 0.001003
145 0.000997
152 0.000997
154 0.0
174 0.000997
181 0.000998
185 0.000998
192 0.000998
201 0.001004
207 0.001003
170 0.000997
130 0.000948
108 0.001033
107 0.001014
128 0.000997
138 0.000997
148 0.000997
151 0.000987
139 0.0
128 0.0
125 0.0
128 0.0
135 0.0
149 0.0
157 0.000997
163 0.00101
167 0.001008
171 0.000996
172 0.000997
175 0.0
180 0.0
184 0.0
187 0.0
191 0.0
199 0.0
203 0.0
178 0.0
140 0.0
112 0.0
119 0.000998
134 0.000997
146 0.0
159 0.0
160 0.0
151 0.0
137 0.0
133 0.0
138 0.0
148 0.0
157 0.0
169 0.001003
174 0.0
178 0.0
180 0.0
186 0.0
192 0.0
198 0.0
205 0.0
210 0.0
214 0.0
220 0.0
225 0.000991
181 0.0
151 0.0
140 0.0
147 0.0
167 0.000998
177 0.001005
187 0.0
188 0.000989
180 0.0
161 0.0
157 0.0
159 0.0
171 0.001005
177 0.0
182 0.0
185 0.0
185 0.001031
185 0.001038
188 0.0
192 0.0
199 0.0
203 0.000997
203 0.001002
206 0.0
214 0.000997
212 0.0
191 0.0
148 0.0
116 0.001032
115 0.0
129 0.0
137 0.0
142 0.0
147 0.000999
142 0.00099
118 0.00099
110 0.000998
114 0.0
123 0.0
130 0.0
136 0.001005
142 0.000989
143 0.0
144 0.0
147 0.0
149 0.001017
152 0.000956
161 0.000998
164 0.001002
171 0.0
172 0.0
174 0.0
180 0.000998
186 0.000997
161 0.000966
116 0.0
88 0.0
80 0.00103
85 0.000985
104 0.000998
109 0.000998
115 0.000995
110 0.0
98 0.0
89 0.000998
86 0.001995
94 0.001009
102 0.00099
107 0.000998
113 0.001052
116 0.000992
120 0.001039
126 0.001031
128 0.000971
133 0.0
139 0.0
144 0.002033
148 0.001996
154 0.0
156 0.0
160 0.0
166 0.001966
169 0.002002
116 0.0
83 0.00104
69 0.001002
76 0.0
89 0.000998
98 0.0
105 0.001959
107 0.001009
98 0.0
87 0.000997
81 0.001
80 0.000965
94 0.000996
100 0.000999
103 0.002044
110 0.000994
113 0.000997
116 0.000991
120 0.001996
124 0.002034
129 0.001046
136 0.00103
139 0.000992
139 0.001962
145 0.000985
147 0.000964
153 0.00213
148 0.001004
107 0.000974
73 0.000958
59 0.001995
57 0.000998
69 0.001036
80 0.0
87 0.001006
90 0.001993
76 0.000939
66 0.002026
62 0.002032
66 0.000993
75 0.001027
81 0.001038
86 0.001995
91 0.002995
94 0.001039
94 0.001033
95 0.000994
99 0.00199
106 0.001006
109 0.001995
114 0.002044
120 0.000997
129 0.000998
133 0.000997
118 0.001996
83 0.002992
53 0.001984
52 0.002025
63 0.001993
77 0.002988
99 0.002051
106 0.003022
99 0.002897
85 0.001996
80 0.001984
82 0.001062
94 0.002026
106 0.002003
119 0.001003
124 0.000996
128 0.000987
132 0.002033
139 0.001989
147 0.002969
151 0.002992
159 0.002027
163 0.001996
166 0.001996
174 0.002995
174 0.003042
131 0.001035
100 0.003031
87 0.001989
96 0.001965
111 0.001948
120 0.003028
125 0.003026
125 0.002992
112 0.001996
102 0.001995
99 0.002992
106 0.003028
120 0.002992
128 0.002019
137 0.001035
143 0.001996
144 0.002045
147 0.003028
153 0.003024
161 0.000995
162 0.002026
166 0.001993
173 0.003047
181 0.003024
179 0.001989
152 0.002027
116 0.002044
91 0.001995
98 0.001995
110 0.002998
119 0.002988
128 0.002026
129 0.001988
122 0.002048
112 0.002991
107 0.003989
111 0.001995
121 0.003013
130 0.003031
140 0.003024
146 0.003023
148 0.00303
149 0.003989
153 0.001994
160 0.00199
166 0.001998
169 0.002025
173 0.003025
177 0.002992
185 0.001993
188 0.002991
140 0.003049
109 0.003022
97 0.003044
98 0.003989
111 0.004024
129 0.002966
133 0.002024
134 0.003022
127 0.003989
119 0.00399
109 0.002027
113 0.001938
125 0.003004
138 0.002014
141 0.002041
142 0.002992
145 0.003971
151 0.003008
150 0.003024
153 0.003022
160 0.003996
167 0.003991
171 0.003021
175 0.003037
183 0.003034
187 0.00199
189 0.001996
169 0.003988
133 0.004034
99 0.002988
86 0.002995
97 0.002996
112 0.004023
116 0.003985
123 0.003041
119 0.003023
98 0.003036
91 0.003035
93 0.003035
98 0.004033
109 0.004925
116 0.002991
118 0.003028
122 0.002985
124 0.004019
123 0.004022
127 0.003005
133 0.00399
139 0.003032
144 0.00302
148 0.003038
148 0.005016
152 0.004989
157 0.004032
152 0.003024
112 0.003024
70 0.004989
49 0.004028
53 0.003001
71 0.003989
81 0.003035
89 0.002992
86 0.00304
76 0.004987
61 0.005021
57 0.003971
65 0.003011
77 0.003969
85 0.004991
90 0.004988
99 0.004026
103 0.004987
107 0.003993
117 0.00402
129 0.004025
138 0.004995
146 0.004983
159 0.003026
165 0.002983
176 0.002991
185 0.003997
186 0.004986
138 0.004006
98 0.004987
95 0.004018
110 0.004009
124 0.004028
134 0.004987
143 0.005017
141 0.004036
124 0.002985
115 0.004036
114 0.004987
122 0.005017
137 0.003004
149 0.004986
155 0.003979
159 0.003997
162 0.004024
163 0.004987
172 0.004988
183 0.003991
191 0.003999
194 0.00406
199 0.004986
203 0.005024
211 0.003991
213 0.005027
160 0.004021
112 0.00402
87 0.00399
86 0.005986
100 0.005984
115 0.005009
121 0.005022
125 0.004985
118 0.005988
105 0.00503
94 0.005019
96 0.005984
111 0.005017
120 0.00502
127 0.00502
134 0.005023
138 0.004987
136 0.005983
139 0.003996
146 0.004001
154 0.004004
161 0.004984
170 0.004986
179 0.005982
182 0.005984
189 0.005017
199 0.00502
187 0.003983
131 0.006059
85 0.005984
62 0.004035
67 0.003989
81 0.003991
91 0.004987
97 0.00502
98 0.006016
87 0.005984
74 0.005018
73 0.00499
78 0.005016
88 0.005984
98 0.005984
107 0.005021
112 0.005023
115 0.005031
118 0.005985
119 0.006019
130 0.005984
133 0.005984
139 0.00499
143 0.005024
149 0.004021
156 0.006987
164 0.005986
164 0.004019
121 0.005036
67 0.005
36 0.006026
31 0.004
45 0.006019
56 0.006981
68 0.004986
69 0.005006
56 0.004981
41 0.006017
30 0.005984
30 0.004975
42 0.004978
53 0.004974
60 0.006032
66 0.005025
67 0.005984
72 0.005984
84 0.004962
89 0.005027
94 0.005025
99 0.006981
103 0.00699
115 0.004965
126 0.006025
126 0.004984
88 0.00699
25 0.004983
15 0.005999
27 0.005984
50 0.004984
66 0.004984
78 0.004995
82 0.007023
70 0.007027
57 0.006019
57 0.006029
64 0.005017
77 0.006991
101 0.005017
111 0.006982
117 0.006981
121 0.00499
126 0.004987
133 0.004998
135 0.006031
138 0.006023
148 0.00499
157 0.004983
160 0.005003
141 0.005984
56 0.004952
28 0.007016
22 0.006983
43 0.006057
61 0.005963
72 0.006021
80 0.006981
73 0.007012
49 0.006015
40 0.006013
43 0.006018
52 0.007022
72 0.006028
84 0.007055
93 0.006981
98 0.006017
101 0.006035
107 0.006001
115 0.007015
122 0.006981
130 0.006024
135 0.005977
143 0.004986
152 0.007991
144 0.005017
84 0.007986
29 0.007979
0 0.005987
5 0.005983
20 0.006005
35 0.007976
46 0.007014
51 0.005972
43 0.006014
32 0.006042
25 0.006982
36 0.00603
50 0.006979
62 0.00703
76 0.005993
85 0.005988
92 0.005981
95 0.006986
100 0.007026
112 0.005983
121 0.005983
127 0.005977
132 0.006982
143 0.007029
151 0.006983
158 0.007661
151 0.008019
75 0.005991
28 0.005974
7 0.006003
9 0.007016
23 0.007022
39 0.006007
51 0.005978
54 0.005975
43 0.006016
31 0.005979
29 0.00702
38 0.008008
57 0.005983
69 0.006972
78 0.006991
85 0.007941
94 0.007979
103 0.006979
108 0.006984
116 0.007015
126 0.006978
135 0.006972
141 0.007978
148 0.007976
157 0.005982
162 0.006983
134 0.006984
72 0.008009
35 0.00798
3 0.006981
8 0.006977
31 0.007031
44 0.006951
57 0.006953
49 0.007059
30 0.007013
15 0.006993
13 0.006983
20 0.006982
36 0.007947
51 0.007979
65 0.007012
74 0.006975
89 0.00698
98 0.006982
105 0.007012
112 0.007021
120 0.007012
135 0.006977
143 0.006966
142 0.006976
116 0.007979
63 0.007971
25 0.006999
27 0.006988
56 0.006988
74 0.006945
94 0.007012
94 0.007025
78 0.007021
62 0.006975
65 0.006982
76 0.007016
91 0.007014
106 0.006977
121 0.00697
129 0.006978
141 0.007014
144 0.006993
146 0.006978
154 0.006987
158 0.007975
170 0.007019
176 0.007011
155 0.006973
95 0.007022
44 0.007031
14 0.007014
24 0.007015
52 0.006981
65 0.006982
75 0.006986
71 0.007016
57 0.007031
42 0.006985
42 0.006983
56 0.006978
76 0.006017
93 0.007012
108 0.006984
117 0.005977
131 0.006004
137 0.006991
139 0.007031
143 0.007023
151 0.007
162 0.006979
171 0.007011
162 0.007012
108 0.006978
47 0.006979
9 0.007017
14 0.006144
45 0.007994
56 0.007132
69 0.007014
71 0.007024
60 0.007028
36 0.006019
36 0.006016
48 0.006006
64 0.006018
75 0.006016
89 0.006014
95 0.006015
100 0.005982
102 0.006976
109 0.007009
115 0.007016
121 0.007015
127 0.005997
135 0.006018
140 0.006016
142 0.006015
116 0.006018
53 0.005985
0 0.00602
0 0.006017
20 0.005985
39 0.006021
55 0.00698
60 0.006985
48 0.006021
22 0.006017
7 0.006023
8 0.005976
22 0.006015
38 0.006018
55 0.005969
61 0.005973
67 0.005979
70 0.005965
73 0.006029
77 0.006014
82 0.005034
92 0.005983
102 0.005021
113 0.006022
122 0.005027
113 0.006016
25 0.005987
0 0.005985
0 0.005951
14 0.00602
32 0.006017
52 0.006004
68 0.005985
57 0.00602
38 0.005024
33 0.005022
49 0.004989
72 0.005018
111 0.004981
126 0.00598
140 0.00596
139 0.00602
131 0.00602
121 0.005026
113 0.006019
108 0.005017
118 0.004972
136 0.004991
148 0.005021
131 0.005023
46 0.004982
22 0.004979
22 0.005984
39 0.005989
49 0.006031
56 0.006029
59 0.006016
41 0.005016
24 0.005017
22 0.004972
39 0.005017
68 0.005012
109 0.005019
126 0.00499
131 0.004972
135 0.005021
141 0.006019
137 0.005983
129 0.005022
142 0.005017
162 0.005017
172 0.004981
133 0.005029
62 0.005024
3 0.004929
13 0.004982
40 0.004961
64 0.005021
88 0.005029
96 0.004027
85 0.005033
60 0.005023
50 0.004993
54 0.005021
73 0.005032
91 0.005024
113 0.004968
119 0.004974
119 0.004987
118 0.005025
120 0.004022
129 0.005104
140 0.005024
134 0.005022
83 0.004024
27 0.00402
0 0.003992
0 0.004058
22 0.005012
37 0.004994
63 0.004996
71 0.005021
65 0.005046
53 0.005024
52 0.005022
66 0.005027
86 0.005019
103 0.004983
118 0.004032
130 0.003988
132 0.003994
135 0.003987
146 0.003976
155 0.00399
165 0.004027
166 0.004023
121 0.004034
31 0.003949
0 0.004022
0 0.004024
19 0.003982
63 0.004989
88 0.005089
107 0.00498
95 0.004984
54 0.005021
37 0.005032
41 0.004026
58 0.004038
85 0.004024
111 0.004024
129 0.004023
146 0.004039
158 0.003985
153 0.003949
147 0.003978
146 0.003961
152 0.005062
162 0.004023
156 0.004022
108 0.004022
61 0.004022
34 0.004023
41 0.003991
59 0.004016
96 0.003988
116 0.003994
118 0.003996
106 0.003998
100 0.002992
110 0.003035
126 0.002992
144 0.003992
156 0.00402
172 0.004021
178 0.004023
183 0.003982
186 0.003976
189 0.003985
194 0.004008
202 0.003994
204 0.003032
167 0.002983
116 0.003044
91 0.002994
90 0.002992
115 0.002995
136 0.003037
154 0.002992
168 0.002996
155 0.003973
137 0.004
131 0.003991
143 0.004016
161 0.004021
173 0.004033
185 0.00402
196 0.003027
204 0.003031
207 0.002999
214 0.00303
222 0.002988
227 0.002983
237 0.002989
192 0.002988
183 0.004024
152 0.003028
130 0.003032
122 0.002994
125 0.004047
136 0.003989
144 0.003023
151 0.003024
151 0.002988
143 0.002994
138 0.002985
138 0.002991
145 0.003015
151 0.002993
158 0.003004
162 0.002993
166 0.002029
169 0.003035
172 0.003037
176 0.002992
181 0.002996
183 0.003002
186 0.003018
189 0.001995
195 0.003985
199 0.003038
190 0.002946
159 0.002989
135 0.002992
125 0.001995
131 0.002961
140 0.002
149 0.002986
154 0.002993
151 0.003009
143 0.002991
134 0.003022
136 0.002996
141 0.002992
147 0.002041
152 0.002993
157 0.002028
159 0.001995
160 0.001996
163 0.001991
167 0.001999
171 0.001955
173 0.001995
177 0.001996
178 0.001988
179 0.001985
180 0.002992
184 0.003024
165 0.002037
132 0.002027
108 0.002994
106 0.001966
114 0.001994
121 0.001993
125 0.001999
129 0.001995
122 0.002042
106 0.001996
97 0.000986
99 0.002032
106 0.001995
115 0.002045
123 0.001999
129 0.002002
133 0.001998
135 0.001997
138 0.001996
142 0.001999
145 0.001995
149 0.002004
154 0.002062
163 0.002005
171 0.001021
163 0.000999
118 0.002025
93 0.002001
93 0.001992
105 0.00199
120 0.001016
136 0.002053
148 0.001995
145 0.002013
133 0.002006
122 0.001996
121 0.000998
133 0.000992
144 0.000997
152 0.001
157 0.001027
159 0.002014
161 0.001995
162 0.001995
164 0.002028
167 0.001995
170 0.002032
177 0.002002
181 0.001013
148 0.001997
100 0.001001
77 0.000945
79 0.000991
92 0.00098
101 0.002012
111 0.001014
117 0.000997
110 0.000997
96 0.001024
88 0.002002
88 0.002002
94 0.001995
109 0.001993
117 0.001993
120 0.000996
124 0.001006
128 0.000997
132 0.001023
136 0.000951
138 0.000998
143 0.000998
150 0.000997
155 0.001001
122 0.000963
75 0.000998
52 0.000995
54 0.000996
66 0.001
77 0.000956
88 0.000955
94 0.002026
86 0.001037
76 0.000998
70 0.000997
72 0.000998
84 0.000999
98 0.000997
113 0.001017
119 0.001004
124 0.000997
128 0.001012
133 0.000997
141 0.002024
144 0.000998
147 0.0
150 0.000998
157 0.002013
158 0.002001
121 0.001004
71 0.00102
56 0.001003
58 0.001007
72 0.001001
84 0.000997
95 0.000997
100 0.000998
93 0.000997
78 0.000998
68 0.000965
71 0.0
80 0.0
89 0.0
94 0.0
99 0.0
103 0.0
106 0.0
111 0.0
115 0.0
116 0.0
117 0.0
121 0.000998
130 0.000992
130 0.000998
88 0.001
53 0.000992
34 0.0
30 0.0
39 0.0
51 0.0
70 0.0
76 0.001012
70 0.0
56 0.0
49 0.0
54 0.00099
64 0.000974
78 0.0
85 0.001001
90 0.0
96 0.0
100 0.0
104 0.0
108 0.0
111 0.0
119 0.0
133 0.0
132 0.0
104 0.000961
61 0.0
48 0.0
52 0.0
66 0.0
85 0.0
104 0.0
110 0.0
102 0.0
87 0.0
84 0.0
92 0.0
104 0.001004
121 0.001
128 0.001
138 0.0
143 0.000992
145 0.000998
147 0.002013
151 0.002047
156 0.000998
163 0.0
159 0.0
109 0.0
72 0.0
57 0.001005
61 0.001007
77 0.001005
90 0.000997
104 0.000996
107 0.000997
100 0.000998
90 0.000998
86 0.0
97 0.0
108 0.0
115 0.000997
124 0.002039
130 0.002026
136 0.0
138 0.0
142 0.0
146 0.001962
150 0.002028
156 0.0
161 0.0
157 0.0
116 0.0
86 0.001015
51 0.000999
52 0.001004
68 0.0
79 0.0
91 0.0
97 0.00103
93 0.001031
83 0.000967
78 0.000999
88 0.0
101 0.0
112 0.0
119 0.001003
125 0.000997
131 0.0
135 0.0
137 0.0
140 0.000998
145 0.000972
150 0.0
156 0.000996
162 0.0
171 0.0
181 0.0
171 0.000954
124 0.000982
70 0.0
56 0.0
63 0.0
76 0.001041
87 0.000998
96 0.000997
94 0.001
79 0.0
73 0.0
76 0.0
88 0.001992
99 0.001992
113 0.0
120 0.0
124 0.0
124 0.001035
121 0.00105
122 0.0
130 0.002002
132 0.0
135 0.000963
139 0.0
143 0.001996
146 0.001985
153 0.0
151 0.0
117 0.0
70 0.000999
39 0.002028
31 0.002029
53 0.00099
66 0.000996
83 0.0
84 0.0
72 0.002043
59 0.001995
53 0.001949
57 0.001037
66 0.00103
79 0.002046
91 0.002046
98 0.001949
105 0.001982
110 0.001995
115 0.000998
116 0.000996
119 0.000982
123 0.001974
131 0.001995
142 0.001992
150 0.00204
139 0.002006
101 0.002
71 0.001964
61 0.001997
73 0.001999
96 0.001995
114 0.001001
126 0.000996
124 0.00203
114 0.002013
108 0.001022
111 0.001006
123 0.001001
138 0.001996
153 0.001995
169 0.001994
174 0.001935
180 0.00199
184 0.000978
186 0.001987
188 0.002988
191 0.001949
199 0.002007
202 0.000966
182 0.000995
140 0.002991
107 0.002991
97 0.001998
110 0.002
129 0.000992
143 0.00096
150 0.002037
146 0.002025
135 0.001988
127 0.002027
130 0.001997
138 0.000998
149 0.002992
161 0.003025
171 0.003023
174 0.003023
181 0.000991
184 0.000994
187 0.001005
191 0.002028
195 0.001995
203 0.001963
211 0.000951
211 0.001998
181 0.001995
139 0.003045
107 0.003031
111 0.002884
130 0.002
137 0.001001
143 0.001005
146 0.002048
141 0.003012
129 0.001006
128 0.000984
135 0.001998
145 0.003027
161 0.000971
167 0.003027
171 0.003028
173 0.002031
174 0.00198
178 0.001987
184 0.00301
191 0.003017
195 0.001994
199 0.002037
204 0.002008
209 0.003003
212 0.000981
182 0.00295
139 0.003003
107 0.001993
104 0.000996
115 0.000997
126 0.003034
132 0.00299
136 0.000978
131 0.001001
118 0.002007
106 0.003986
106 0.000959
116 0.003026
126 0.004024
133 0.001005
136 0.000996
139 0.001006
139 0.003539
138 0.003959
141 0.001957
145 0.001953
148 0.001963
152 0.003
156 0.002016
159 0.003057
163 0.003005
168 0.000983
150 0.002031
107 0.002015
75 0.00302
63 0.003042
72 0.002011
82 0.00199
92 0.001996
101 0.002001
97 0.003043
85 0.002996
80 0.00402
80 0.004025
92 0.002002
103 0.001944
113 0.001995
118 0.004035
121 0.003997
122 0.002005
124 0.001994
131 0.001956
137 0.002009
142 0.002987
147 0.004017
155 0.003989
163 0.001008
153 0.002966
118 0.002008
89 0.004993
74 0.00399
80 0.002974
95 0.002995
105 0.002995
120 0.002949
115 0.002995
104 0.00402
94 0.003977
94 0.002986
104 0.002047
116 0.002029
125 0.004031
132 0.003989
137 0.002045
138 0.002979
140 0.002976
147 0.002983
151 0.002983
153 0.003977
157 0.004021
163 0.002992
169 0.002962
174 0.003004
161 0.004025
118 0.005023
72 0.002966
60 0.002991
63 0.002973
81 0.002988
88 0.002983
95 0.005018
92 0.00404
78 0.003995
71 0.002962
71 0.002009
78 0.004974
89 0.004988
101 0.00403
107 0.004024
114 0.003032
117 0.003049
121 0.002985
126 0.004025
130 0.005011
136 0.002949
140 0.00299
144 0.003041
148 0.005044
154 0.004987
161 0.003
148 0.003978
77 0.002995
53 0.003035
46 0.003021
56 0.005006
70 0.005018
82 0.002963
90 0.002984
88 0.003027
78 0.004986
71 0.005673
71 0.002993
78 0.003993
96 0.004018
105 0.002974
113 0.002985
117 0.005016
119 0.005019
123 0.002992
124 0.003007
128 0.002995
134 0.003959
136 0.005019
138 0.002991
142 0.00299
149 0.003023
154 0.00301
149 0.002992
109 0.004988
64 0.004962
35 0.002995
37 0.003042
49 0.002994
61 0.005021
71 0.005034
80 0.003992
71 0.003952
51 0.003958
49 0.003035
54 0.003021
64 0.00502
73 0.005031
82 0.00398
88 0.002962
93 0.002969
96 0.006018
97 0.006028
103 0.004042
108 0.003994
117 0.003985
121 0.003979
132 0.002966
141 0.006002
144 0.006014
120 0.006018
70 0.003989
50 0.003454
51 0.00402
64 0.005984
78 0.006037
97 0.003946
112 0.00599
101 0.003022
91 0.004
90 0.00399
95 0.005037
106 0.005968
123 0.004982
130 0.003969
135 0.004009
140 0.005987
146 0.005985
152 0.003996
158 0.006018
165 0.004981
172 0.00398
179 0.003952
180 0.006985
155 0.006017
98 0.004942
76 0.004944
75 0.004985
86 0.006016
99 0.006017
116 0.004025
125 0.00602
118 0.003988
107 0.004015
104 0.005018
112 0.006015
126 0.00602
141 0.004964
151 0.004981
158 0.004988
163 0.006981
163 0.007013
167 0.004019
171 0.006055
175 0.004945
181 0.004946
188 0.004941
195 0.005981
180 0.00603
121 0.004967
92 0.004951
82 0.004978
89 0.005982
101 0.005984
122 0.007022
131 0.006988
123 0.004987
112 0.004987
106 0.005022
109 0.007056
117 0.007025
133 0.005001
142 0.004957
149 0.004956
154 0.005979
158 0.005983
165 0.006015
169 0.005982
172 0.005952
175 0.00595
179 0.004018
183 0.007018
188 0.006016
189 0.004952
152 0.004949
104 0.00495
77 0.006982
70 0.00702
85 0.007017
95 0.007018
110 0.005022
111 0.005034
100 0.005008
88 0.006983
82 0.007012
88 0.004984
100 0.00499
109 0.005984
116 0.006983
122 0.006926
125 0.00701
127 0.007011
133 0.005983
136 0.004952
137 0.005978
138 0.007014
144 0.007015
151 0.004984
154 0.005011
150 0.004992
114 0.006981
72 0.006985
47 0.007978
59 0.007973
76 0.005989
92 0.005983
107 0.005989
110 0.006968
101 0.006944
89 0.005985
90 0.005985
100 0.005014
112 0.006982
122 0.006981
136 0.007989
138 0.007018
143 0.00498
146 0.005985
150 0.005985
155 0.007943
162 0.00798
170 0.00599
179 0.005953
172 0.005926
134 0.006982
93 0.006992
71 0.007017
80 0.007019
98 0.005947
112 0.006946
123 0.00598
122 0.007016
109 0.007014
98 0.007004
101 0.006988
107 0.005984
117 0.007978
132 0.00798
145 0.005953
148 0.00798
150 0.007973
156 0.005992
158 0.005986
159 0.005979
163 0.007977
172 0.007978
179 0.005087
179 0.006981
147 0.006951
100 0.007979
59 0.006982
66 0.007982
81 0.007968
92 0.006007
102 0.006964
108 0.006015
100 0.007981
89 0.007961
86 0.005963
92 0.005984
101 0.005998
118 0.005981
126 0.005978
134 0.007969
139 0.00695
143 0.006982
147 0.00697
154 0.006978
162 0.007756
164 0.00794
167 0.006979
174 0.006017
181 0.006979
179 0.005979
114 0.006981
71 0.006994
53 0.006981
59 0.006968
69 0.006944
87 0.006981
98 0.006979
103 0.006982
97 0.006963
87 0.006982
81 0.006986
89 0.006984
99 0.006983
112 0.006982
118 0.007976
123 0.00702
129 0.006969
131 0.006977
134 0.006989
140 0.006983
145 0.006982
146 0.006985
149 0.006014
157 0.006978
167 0.006975
172 0.006963
165 0.006966
99 0.00697
67 0.006979
42 0.00698
40 0.006938
55 0.006984
72 0.006965
85 0.006977
93 0.006987
76 0.007
67 0.006984
63 0.007046
70 0.006981
86 0.006981
98 0.006981
108 0.006981
115 0.006971
121 0.006981
126 0.007033
132 0.006981
137 0.006985
144 0.007007
149 0.006975
156 0.006978
165 0.006983
170 0.006964
137 0.006975
103 0.006978
58 0.005993
52 0.006982
68 0.005966
87 0.00698
103 0.006987
122 0.006985
113 0.007011
99 0.006981
92 0.007039
98 0.00697
109 0.006963
123 0.006982
134 0.006978
142 0.006979
150 0.005964
153 0.005968
157 0.005969
165 0.005995
166 0.005993
169 0.006984
174 0.006988
182 0.006949
183 0.006982
146 0.006976
93 0.006983
60 0.006976
55 0.006011
68 0.00598
82 0.006019
101 0.005987
106 0.005986
99 0.006952
85 0.005996
77 0.006981
84 0.006998
94 0.006973
107 0.006979
119 0.006979
131 0.005977
136 0.005987
141 0.005983
150 0.005973
154 0.005995
158 0.005981
163 0.005985
168 0.005022
178 0.005983
178 0.006001
144 0.005946
91 0.006007
58 0.006016
50 0.005992
69 0.006018
88 0.006042
101 0.005984
107 0.005963
101 0.00597
90 0.005986
81 0.005985
87 0.004991
98 0.005974
108 0.006001
118 0.005988
130 0.005978
135 0.006017
142 0.005991
146 0.00598
151 0.00598
156 0.005988
160 0.005968
163 0.006065
170 0.005979
178 0.005985
178 0.004994
138 0.004978
73 0.004996
44 0.006019
54 0.006032
68 0.005983
80 0.005969
92 0.005943
97 0.004966
84 0.005949
74 0.005978
71 0.004983
77 0.004975
85 0.004982
99 0.004957
107 0.00502
112 0.004987
115 0.004987
117 0.004967
120 0.005007
124 0.005984
128 0.005822
131 0.005981
135 0.005977
142 0.005983
146 0.004975
137 0.005022
79 0.005024
41 0.004974
40 0.00499
54 0.004978
71 0.00499
88 0.004967
108 0.004992
104 0.005995
88 0.005988
79 0.005996
79 0.004972
91 0.004937
109 0.004986
121 0.005006
127 0.004987
132 0.005026
136 0.005004
140 0.004947
146 0.004981
150 0.004991
157 0.004986
165 0.004987
173 0.003987
147 0.004986
91 0.005021
65 0.005015
70 0.004986
83 0.005021
95 0.00499
109 0.004991
121 0.004986
110 0.004987
98 0.004974
91 0.004979
93 0.004983
106 0.004976
119 0.003979
132 0.00399
136 0.004954
139 0.00399
143 0.003989
148 0.003951
152 0.004998
156 0.004982
162 0.005012
169 0.004986
177 0.005018
164 0.004987
99 0.005018
63 0.004986
58 0.004947
68 0.003972
81 0.003996
91 0.003945
101 0.003961
97 0.003999
88 0.003989
80 0.003987
77 0.003985
90 0.004041
102 0.003972
113 0.004987
121 0.004978
127 0.004988
134 0.003989
139 0.00399
144 0.003993
151 0.003985
153 0.003986
157 0.00392
163 0.003996
171 0.003943
143 0.00399
96 0.003989
58 0.003988
54 0.004007
64 0.003981
79 0.003985
91 0.004008
102 0.003953
98 0.003955
88 0.003992
80 0.003949
82 0.004004
91 0.00399
100 0.003937
110 0.003981
115 0.005019
118 0.003958
122 0.003989
127 0.003991
134 0.002997
137 0.002992
140 0.002992
144 0.004008
154 0.004031
161 0.004054
152 0.003947
97 0.003996
65 0.002985
52 0.002955
60 0.003016
75 0.003948
92 0.003004
105 0.002991
108 0.002991
96 0.003004
78 0.002987
81 0.004041
94 0.003988
111 0.003957
119 0.003989
125 0.003984
131 0.003985
138 0.003995
148 0.003992
154 0.002981
158 0.002989
162 0.003801
173 0.002951
181 0.004043
175 0.003996
123 0.003986
90 0.003975
76 0.003955
81 0.003996
94 0.00399
115 0.003986
130 0.002994
136 0.003009
127 0.003021
110 0.003044
109 0.003027
116 0.002999
129 0.003
139 0.003959
148 0.004
153 0.004009
157 0.003959
166 0.003939
170 0.003994
173 0.002978
176 0.002993
183 0.002992
189 0.003022
194 0.002993
156 0.00299
108 0.002993
79 0.002995
71 0.00298
81 0.003027
99 0.001994
110 0.002025
121 0.00302
121 0.00298
104 0.002992
97 0.00299
100 0.002981
113 0.002997
125 0.002996
135 0.002986
140 0.002994
146 0.002991
152 0.001985
156 0.002023
162 0.002031
169 0.00199
178 0.002033
180 0.003
184 0.002977
196 0.003011
191 0.002989
147 0.002993
102 0.001993
77 0.001996
75 0.00199
91 0.001992
104 0.002005
128 0.002026
134 0.001995
125 0.001995
114 0.002008
106 0.001995
108 0.001975
116 0.002089
125 0.002011
135 0.003002
147 0.002008
153 0.002002
157 0.00198
167 0.002029
169 0.00203
168 0.002002
170 0.002016
173 0.001997
181 0.001978
188 0.000997
173 0.001988
124 0.001001
83 0.001
65 0.002009
74 0.001955
99 0.001996
111 0.001995
118 0.001995
114 0.001984
101 0.001977
92 0.001986
97 0.000992
108 0.002005
121 0.001009
134 0.001001
148 0.000998
156 0.000999
168 0.002033
172 0.001961
176 0.002
179 0.001995
187 0.001995
193 0.001995
180 0.001995
139 0.001996
106 0.000949
96 0.000989
110 0.001014
132 0.001006
166 0.001004
181 0.000998
178 0.001994
161 0.001998
145 0.002008
141 0.001996
147 0.001996
155 0.001999
165 0.000989
171 0.000999
175 0.001008
178 0.001019
182 0.001002
184 0.000997
187 0.000998
193 0.000994
199 0.002025
188 0.002008
139 0.000968
99 0.000964
80 0.000997
81 0.000991
100 0.000991
113 0.000999
130 0.000997
125 0.001002
111 0.000981
98 0.001021
93 0.001967
101 0.0
114 0.000996
126 0.000998
137 0.001022
143 0.001001
151 0.000998
152 0.00099
156 0.002015
159 0.001003
161 0.001004
167 0.00201
173 0.002004
143 0.000998
96 0.001997
65 0.000999
55 0.0
63 0.001009
82 0.001034
93 0.001028
104 0.001011
95 0.000992
83 0.001004
77 0.00102
76 0.001001
89 0.000994
102 0.000994
111 0.0
119 0.0
126 0.0
133 0.0
140 0.0
141 0.000997
145 0.0
152 0.001011
157 0.001013
161 0.000998
130 0.001
79 0.001
47 0.0
36 0.0
45 0.000995
65 0.0
83 0.0
88 0.0
79 0.0
66 0.0
56 0.0
56 0.0
68 0.0
79 0.0
86 0.0
93 0.000996
98 0.0
101 0.0
106 0.0
108 0.0
113 0.0
120 0.0
125 0.0
129 0.0
104 0.0
47 0.0
25 0.0
25 0.0
39 0.0
56 0.0
88 0.0
95 0.0
81 0.0
69 0.002024
67 0.001006
75 0.0
90 0.0
104 0.000997
115 0.000997
124 0.001004
131 0.000971
133 0.000965
136 0.001009
145 0.000966
153 0.000985
159 0.0
138 0.0
108 0.0
60 0.0
49 0.0
58 0.001996
78 0.0
94 0.0
109 0.0
102 0.0
88 0.0
77 0.002049
80 0.001993
95 0.0
109 0.001001
121 0.0
132 0.002002
137 0.001993
141 0.000967
145 0.001001
148 0.000874
155 0.0
162 0.0
166 0.002043
142 0.002027
76 0.000997
48 0.000997
41 0.001009
53 0.001998
67 0.001921
84 0.001016
93 0.0
91 0.0
73 0.0
70 0.0
75 0.002028
87 0.001001
104 0.0
114 0.000954
120 0.000986
125 0.00199
126 0.00201
133 0.0
137 0.0
141 0.0
150 0.0
158 0.0
166 0.002025
150 0.002027
85 0.0
53 0.0
41 0.0
49 0.000979
64 0.001
81 0.0
89 0.000997
91 0.0
77 0.0
72 0.0
74 0.002025
84 0.002033
103 0.000998
113 0.0
121 0.0
130 0.002008
135 0.001999
140 0.0
147 0.0
157 0.0
164 0.000972
168 0.000961
174 0.001996
180 0.00103
191 0.0
183 0.0
134 0.0
84 0.002004
60 0.001993
57 0.0
68 0.000997
90 0.0
103 0.0
102 0.0
90 0.002025
83 0.002027
82 0.0
88 0.0
100 0.0
112 0.000993
120 0.002015
127 0.000965
131 0.0
138 0.0
140 0.0
144 0.0
148 0.001995
152 0.00203
157 0.0
165 0.0
172 0.0
173 0.002026
149 0.002031
89 0.0
64 0.0
65 0.002032
86 0.000974
105 0.0
122 0.000961
129 0.002027
119 0.001994
101 0.0
99 0.0
106 0.000987
118 0.001995
131 0.001994
144 0.0
153 0.00304
155 0.001996
158 0.0
164 0.000968
166 0.002999
170 0.002992
176 0.000998
182 0.0
189 0.000959
187 0.002032
148 0.003033
92 0.001984
76 0.002988
89 0.002029
105 0.001029
120 0.001035
131 0.001962
132 0.002994
117 0.002001
106 0.001996
107 0.0
114 0.002016
126 0.002004
140 0.001991
149 0.002044
156 0.001031
158 0.002
164 0.001993
168 0.002056
171 0.001993
174 0.001998
179 0.001995
186 0.001994
193 0.003022
181 0.003022
119 0.001997
75 0.002992
72 0.001986
84 0.002033
95 0.001995
106 0.002961
118 0.002991
112 0.001993
101 0.000953
95 0.001004
95 0.002986
104 0.001997
120 0.001995
133 0.002992
142 0.0
147 0.002034
151 0.00199
156 0.002992
161 0.00299
167 0.002041
171 0.001994
175 0.001994
181 0.00299
188 0.002962
162 0.003034
112 0.00303
70 0.001996
67 0.001994
77 0.001984
92 0.003993
103 0.003028
117 0.002006
114 0.001997
101 0.001988
88 0.003027
88 0.002983
100 0.002996
109 0.003031
121 0.002
126 0.001999
131 0.001983
134 0.00399
138 0.002996
142 0.00199
143 0.000989
144 0.001999
149 0.003013
156 0.003024
164 0.003034
153 0.003027
92 0.001968
58 0.001999
44 0.00199
50 0.003037
64 0.004009
85 0.002989
101 0.001031
105 0.00201
95 0.002993
84 0.002993
84 0.004022
95 0.002992
113 0.001993
123 0.00196
131 0.001963
136 0.003989
141 0.004037
147 0.000987
150 0.002036
153 0.000981
158 0.004026
162 0.004016
173 0.004049
163 0.003989
105 0.000995
71 0.001991
59 0.002
67 0.00399
82 0.003991
102 0.001987
117 0.001991
120 0.001981
108 0.004004
95 0.004024
93 0.001999
102 0.004989
115 0.003989
128 0.001979
138 0.00197
145 0.001992
150 0.003987
154 0.00402
158 0.002
160 0.002991
162 0.002028
166 0.00402
175 0.002001
154 0.003989
105 0.003991
57 0.001998
49 0.002004
59 0.001994
75 0.003959
88 0.003989
105 0.001993
103 0.001993
92 0.002966
83 0.003987
85 0.003011
96 0.005017
107 0.005018
120 0.002005
129 0.002004
134 0.001944
138 0.003999
142 0.004024
149 0.002002
151 0.001995
157 0.001987
164 0.005053
175 0.002991
166 0.005028
121 0.004987
65 0.001994
50 0.002
56 0.002031
69 0.005017
83 0.005017
103 0.001965
107 0.002013
98 0.002035
89 0.005018
86 0.002063
96 0.004986
109 0.005025
126 0.001983
135 0.00204
138 0.002031
139 0.004027
143 0.004983
147 0.002972
150 0.003006
153 0.002999
161 0.002996
167 0.002989
173 0.004988
174 0.004999
121 0.002999
76 0.00299
57 0.003984
57 0.00495
70 0.003986
90 0.002966
104 0.002951
110 0.002988
90 0.002947
78 0.002984
77 0.004987
84 0.004987
96 0.003045
106 0.002986
114 0.003012
119 0.005027
123 0.004989
129 0.001999
134 0.001997
139 0.001993
150 0.004001
156 0.003018
165 0.005982
174 0.005984
154 0.003981
110 0.003046
80 0.002988
69 0.005018
77 0.00502
100 0.002037
118 0.00302
133 0.002956
128 0.003043
116 0.003991
109 0.00594
111 0.005984
125 0.003991
137 0.004011
146 0.003
152 0.005026
156 0.005022
160 0.002979
163 0.00197
166 0.003017
173 0.002984
178 0.004015
183 0.006025
190 0.005984
162 0.002033
112 0.003992
82 0.003983
74 0.006003
82 0.006016
100 0.002991
111 0.005004
120 0.002991
111 0.00403
100 0.003991
94 0.00601
94 0.005985
104 0.006025
117 0.003994
126 0.003999
135 0.002949
139 0.006027
142 0.006024
149 0.003948
154 0.003994
160 0.003989
164 0.003987
168 0.004009
175 0.006016
181 0.006021
145 0.003992
98 0.003997
72 0.004041
63 0.00601
72 0.006036
88 0.004969
97 0.004981
106 0.002992
96 0.00399
88 0.003993
84 0.006982
89 0.007014
100 0.004987
111 0.003983
119 0.00398
124 0.006019
127 0.006015
134 0.003986
139 0.004945
147 0.004019
148 0.003997
150 0.003999
155 0.007009
158 0.006979
165 0.004987
166 0.004982
131 0.004951
83 0.006976
55 0.006977
50 0.005999
67 0.005984
80 0.003996
91 0.003995
93 0.003996
82 0.006978
70 0.006983
66 0.004987
72 0.00499
81 0.005999
91 0.00702
98 0.007018
104 0.003989
108 0.006011
112 0.004044
117 0.004988
121 0.004973
123 0.007035
126 0.007029
134 0.004979
142 0.004953
146 0.004979
134 0.007014
97 0.007018
61 0.004952
58 0.007012
76 0.005014
94 0.004989
111 0.004986
119 0.007013
109 0.00798
97 0.004933
92 0.00502
99 0.004999
109 0.007019
120 0.007015
133 0.004978
142 0.006982
149 0.004978
152 0.004988
155 0.004987
160 0.006982
164 0.007948
171 0.004944
178 0.004987
184 0.004987
173 0.006981
131 0.007948
86 0.004949
77 0.007015
95 0.00496
107 0.004988
119 0.004985
129 0.006981
126 0.006985
108 0.005992
100 0.005982
103 0.005925
116 0.00798
129 0.007978
138 0.005954
146 0.008005
146 0.005972
148 0.004982
153 0.004998
160 0.00798
163 0.007983
166 0.004979
173 0.006
180 0.005984
185 0.007978
166 0.007986
116 0.005984
69 0.007998
67 0.005986
79 0.005977
91 0.005988
102 0.007979
113 0.008015
109 0.007978
99 0.00602
92 0.005989
93 0.00602
100 0.00801
114 0.007976
129 0.007963
138 0.008012
143 0.005955
146 0.005983
149 0.006008
158 0.006972
161 0.007979
164 0.005948
168 0.004989
174 0.00602
181 0.006988
184 0.006948
148 0.00798
91 0.007967
71 0.005984
66 0.005987
77 0.005986
97 0.007976
112 0.00797
119 0.005989
119 0.006943
111 0.006974
101 0.006982
106 0.007008
123 0.006984
134 0.007999
142 0.005991
149 0.006014
153 0.005995
157 0.008011
160 0.00799
163 0.005989
169 0.006982
173 0.006979
175 0.006977
182 0.005983
191 0.006975
193 0.006967
174 0.006981
126 0.005983
89 0.006009
73 0.007017
79 0.006978
93 0.005993
107 0.005998
120 0.006978
123 0.006961
103 0.006975
97 0.007015
99 0.006981
108 0.006939
119 0.006987
128 0.00698
134 0.007018
137 0.007015
142 0.006985
145 0.005991
148 0.006975
154 0.005987
155 0.006981
160 0.007014
164 0.006985
171 0.006967
175 0.006989
165 0.006981
123 0.006972
85 0.006018
65 0.006981
66 0.006966
86 0.006017
103 0.006986
132 0.005963
130 0.006019
115 0.007019
101 0.006978
95 0.006983
99 0.006972
111 0.007016
125 0.007013
135 0.005975
140 0.005942
148 0.006975
152 0.005998
158 0.005986
163 0.00602
168 0.006019
177 0.006977
186 0.006971
189 0.00698
164 0.007016
119 0.006014
88 0.006981
79 0.006974
92 0.005978
105 0.005973
128 0.005986
132 0.006015
124 0.006039
108 0.005988
105 0.006953
111 0.005976
121 0.007027
134 0.006983
147 0.006979
151 0.005984
153 0.005991
156 0.005994
164 0.005982
168 0.006018
171 0.006015
176 0.00598
184 0.005965
188 0.005988
181 0.006021
139 0.006031
82 0.005979
60 0.005978
61 0.00598
76 0.005984
95 0.00608
106 0.006017
107 0.005954
99 0.006022
87 0.005973
86 0.005957
94 0.005966
106 0.006012
117 0.006017
129 0.005995
135 0.005023
140 0.005981
145 0.004982
149 0.00598
151 0.006023
155 0.006014
159 0.005976
165 0.005968
173 0.005993
166 0.006017
119 0.006023
64 0.005984
48 0.005977
52 0.004975
73 0.005021
86 0.004986
97 0.005033
97 0.005018
83 0.004023
78 0.004986
80 0.004984
90 0.005026
103 0.005018
115 0.004988
120 0.004991
127 0.004983
128 0.005021
131 0.004988
135 0.005978
140 0.006015
144 0.005982
149 0.006019
155 0.005977
160 0.005002
158 0.005022
111 0.004989
65 0.004987
37 0.004987
45 0.004983
60 0.004981
74 0.005019
86 0.005994
86 0.005996
75 0.005998
62 0.005022
59 0.005029
65 0.005019
81 0.004974
91 0.005007
102 0.005019
107 0.004994
111 0.004978
116 0.005029
120 0.006018
124 0.005071
129 0.005042
139 0.005059
147 0.005022
153 0.005019
124 0.005003
83 0.004985
52 0.00493
61 0.005002
78 0.004978
98 0.005023
115 0.005023
121 0.00502
109 0.005023
96 0.005012
90 0.005023
95 0.005009
110 0.003998
124 0.004987
136 0.004107
142 0.00399
146 0.003989
150 0.005032
153 0.004981
156 0.005017
159 0.004999
166 0.005019
173 0.004987
171 0.005018
116 0.004954
74 0.004986
48 0.004021
58 0.003992
73 0.004021
87 0.004988
100 0.003984
101 0.004987
89 0.004987
80 0.004943
78 0.004988
85 0.00501
100 0.004991
112 0.004947
124 0.004094
127 0.004987
131 0.005018
136 0.003991
143 0.00399
147 0.00402
151 0.00403
155 0.00399
163 0.004021
167 0.003986
158 0.003959
107 0.003958
41 0.004025
32 0.003994
42 0.003991
58 0.003952
69 0.003031
83 0.003817
84 0.003936
74 0.00398
64 0.003982
62 0.003989
72 0.00399
83 0.003988
103 0.00403
109 0.003993
114 0.00399
117 0.003005
122 0.003028
124 0.002992
132 0.003938
139 0.004014
145 0.004033
150 0.003959
155 0.003993
165 0.003957
170 0.00394
148 0.003989
91 0.004029
47 0.003995
26 0.003054
30 0.002991
49 0.003026
63 0.002994
79 0.003959
85 0.004039
75 0.003959
56 0.00399
56 0.004014
69 0.00399
82 0.004005
92 0.003991
99 0.00399
105 0.003025
111 0.003033
114 0.003024
119 0.00399
122 0.00303
124 0.003936
129 0.00399
135 0.003953
146 0.003962
148 0.00399
134 0.00399
86 0.002982
40 0.002985
14 0.002992
23 0.003004
40 0.003023
57 0.002942
75 0.003989
79 0.002988
62 0.002992
49 0.004
51 0.003969
64 0.003957
81 0.00399
94 0.003945
106 0.003945
113 0.003967
118 0.002993
122 0.002993
125 0.002997
135 0.002992
143 0.003026
151 0.002978
154 0.003025
134 0.002991
86 0.002993
52 0.002992
45 0.003022
58 0.001995
76 0.002992
96 0.002992
118 0.002993
114 0.003025
97 0.003022
86 0.002962
90 0.003024
100 0.002994
112 0.002994
123 0.002992
133 0.003024
136 0.002992
141 0.002027
145 0.001995
149 0.002
155 0.001995
160 0.002992
171 0.003046
158 0.003009
107 0.003076
61 0.002992
39 0.002992
46 0.002998
63 0.003028
79 0.002008
96 0.002011
102 0.001997
88 0.002025
75 0.001995
77 0.001996
89 0.002001
101 0.003028
114 0.002992
128 0.001959
137 0.002992
143 0.001995
150 0.001995
154 0.002039
157 0.00196
164 0.002006
171 0.002028
181 0.001995
180 0.002063
141 0.001996
95 0.002035
71 0.002028
72 0.001995
88 0.001995
103 0.002025
118 0.002037
128 0.002996
119 0.001952
110 0.001963
108 0.002992
118 0.001996
131 0.002008
142 0.001996
151 0.001995
161 0.002029
167 0.001996
173 0.001995
178 0.001995
186 0.002029
193 0.001996
200 0.001993
203 0.001995
209 0.001008
219 0.000998
224 0.001995
217 0.000998
176 0.001996
126 0.001995
109 0.001964
112 0.001996
137 0.001969
149 0.001995
160 0.002025
159 0.002042
142 0.000986
134 0.000998
135 0.000998
143 0.000998
151 0.001015
159 0.001996
166 0.000998
170 0.000997
174 0.000997
178 0.002004
181 0.002
184 0.002044
187 0.000985
188 0.001028
192 0.00103
197 0.000998
203 0.001011
190 0.000984
150 0.002043
119 0.002027
111 0.002027
120 0.00203
132 0.001999
148 0.000997
160 0.002016
152 0.001047
140 0.000996
134 0.001045
135 0.001007
145 0.001023
155 0.001011
164 0.000997
172 0.000986
174 0.000998
177 0.002037
179 0.001029
181 0.001003
183 0.000942
187 0.000951
196 0.001996
203 0.000997
185 0.000964
146 0.000948
118 0.000961
112 0.000999
123 0.000997
137 0.001008
149 0.000997
159 0.000992
151 0.002027
138 0.001996
128 0.0
130 0.0
142 0.0
151 0.0
160 0.000997
172 0.000997
176 0.000998
182 0.000997
208 0.0
216 0.0
217 0.001026
219 0.0
224 0.0
234 0.0
224 0.001039
163 0.000997
110 0.000998
78 0.000997
90 0.000998
106 0.000998
113 0.0
127 0.0
122 0.0
107 0.0
92 0.0
89 0.0
95 0.0
108 0.0
122 0.0
137 0.000989
142 0.000999
144 0.000998
147 0.000997
160 0.0
167 0.0
169 0.0
173 0.0
181 0.0
190 0.0
197 0.0
139 0.0
77 0.0
38 0.0
32 0.0
48 0.001002
70 0.0
83 0.000998
94 0.0
91 0.0
79 0.0
64 0.0
63 0.0
82 0.0
95 0.0
106 0.0
113 0.0
120 0.000998
128 0.0
137 0.000998
146 0.000997
155 0.0
160 0.0
161 0.0
166 0.0
174 0.0
182 0.0
182 0.002027
144 0.0
82 0.0
36 0.000962
38 0.001993
59 0.002026
73 0.0
82 0.0
88 0.000996
76 0.001994
46 0.001031
40 0.002983
47 0.002032
67 0.0
82 0.0
92 0.0
97 0.001995
100 0.001963
108 0.000997
115 0.000997
117 0.0
123 0.003026
126 0.000961
131 0.003024
140 0.003025
150 0.000967
153 0.0
125 0.001031
66 0.002026
24 0.002029
11 0.0
26 0.0
44 0.0
66 0.002026
93 0.0
84 0.002029
67 0.00203
56 0.0
66 0.0
82 0.000986
97 0.002028
107 0.002032
121 0.0
129 0.0
135 0.0
144 0.00203
153 0.001003
160 0.002037
166 0.002028
178 0.0
187 0.0
172 0.0
118 0.002001
66 0.002004
39 0.0
48 0.000968
70 0.0
90 0.002028
118 0.0
115 0.002045
100 0.002029
86 0.0
87 0.0
98 0.0
114 0.002946
126 0.001982
140 0.000996
146 0.001021
153 0.0
163 0.002025
173 0.0
174 0.002033
176 0.003011
183 0.0
190 0.0
198 0.0
182 0.00198
116 0.002004
41 0.0
20 0.0
30 0.0
49 0.002008
71 0.000962
84 0.003022
85 0.003047
69 0.0
57 0.0
57 0.0
69 0.001995
85 0.001997
100 0.0
111 0.000997
116 0.0
122 0.001
128 0.000967
138 0.002032
146 0.002029
151 0.0
158 0.0
166 0.0
174 0.003018
181 0.002031
135 0.0
62 0.0
18 0.0
7 0.0
25 0.0
44 0.002027
64 0.002026
77 0.000951
70 0.000952
58 0.0
50 0.003026
51 0.003029
71 0.000966
89 0.000974
101 0.000981
115 0.0
123 0.0
131 0.00303
136 0.001952
146 0.0
154 0.0
161 0.000965
168 0.000946
174 0.002031
178 0.002993
186 0.0
194 0.0
170 0.00095
93 0.0
28 0.0
0 0.002026
0 0.002002
26 0.0
47 0.0
66 0.0
75 0.002031
66 0.002028
41 0.0
36 0.0
52 0.0
66 0.000998
81 0.0
90 0.002958
96 0.002992
102 0.0
107 0.0
112 0.001027
118 0.002951
120 0.002948
123 0.000996
133 0.0
151 0.0
154 0.000989
122 0.0
61 0.002993
12 0.002993
0 0.0
10 0.0
37 0.0
64 0.003025
90 0.00396
95 0.0
76 0.001985
59 0.0
67 0.001993
85 0.001997
104 0.002962
121 0.002989
132 0.001997
143 0.002041
150 0.003032
157 0.002991
158 0.003021
163 0.002042
170 0.0
187 0.000989
185 0.001994
141 0.001975
76 0.002992
33 0.002992
24 0.002998
49 0.0
73 0.002994
94 0.002993
114 0.003042
111 0.001999
86 0.002024
68 0.0
79 0.002051
95 0.001994
113 0.003027
129 0.004035
147 0.003022
152 0.001995
159 0.001992
167 0.004024
175 0.004015
177 0.002
186 0.00306
199 0.00298
205 0.001994
173 0.002992
100 0.002991
46 0.003025
22 0.002041
38 0.003002
61 0.003014
81 0.00399
101 0.003989
103 0.002028
81 0.00404
67 0.002984
72 0.001996
88 0.00199
105 0.003989
121 0.00399
137 0.002
142 0.002003
148 0.002
154 0.004032
157 0.00402
159 0.003009
167 0.004024
180 0.002969
190 0.001994
187 0.001996
139 0.003889
76 0.00399
31 0.002003
34 0.002009
55 0.001999
71 0.00405
89 0.004023
109 0.002014
100 0.004015
84 0.00203
81 0.002043
90 0.003005
104 0.00399
119 0.003945
135 0.001995
145 0.001974
153 0.00199
157 0.004987
161 0.00402
169 0.002
173 0.003987
174 0.00399
177 0.001993
185 0.00203
196 0.00299
187 0.003989
123 0.004029
45 0.002026
24 0.001992
30 0.001995
46 0.004947
64 0.004987
94 0.004023
89 0.00403
62 0.002003
52 0.002991
50 0.00299
57 0.004023
69 0.00402
86 0.002851
93 0.002025
100 0.001979
104 0.005017
111 0.005017
118 0.003985
122 0.003955
132 0.002997
143 0.00201
156 0.001995
162 0.004027
139 0.00397
68 0.002917
35 0.001999
31 0.002994
47 0.004974
72 0.004991
117 0.004983
128 0.005003
113 0.002994
95 0.001992
89 0.001996
96 0.005293
113 0.004987
134 0.002987
148 0.003
160 0.001993
166 0.004986
167 0.004987
175 0.004029
181 0.004951
188 0.002957
196 0.002987
207 0.002955
210 0.004981
165 0.004983
83 0.002992
57 0.002992
54 0.002052
71 0.005022
89 0.004987
119 0.005953
125 0.004991
105 0.003956
88 0.002992
85 0.002963
93 0.005976
106 0.005989
125 0.001995
136 0.002982
144 0.002994
152 0.005034
162 0.002033
168 0.005053
175 0.004996
179 0.003992
185 0.002974
194 0.002979
197 0.005984
161 0.006015
79 0.002991
43 0.002991
35 0.002964
49 0.006017
80 0.001991
97 0.005021
103 0.005018
90 0.002959
78 0.002992
72 0.002999
76 0.004987
88 0.004986
108 0.003994
118 0.003917
126 0.002985
130 0.00599
143 0.001991
151 0.005987
156 0.005986
162 0.003008
167 0.002992
174 0.002952
183 0.006013
189 0.006039
132 0.004022
69 0.003054
33 0.00299
25 0.006016
51 0.003022
68 0.006035
87 0.006018
92 0.003008
77 0.002987
60 0.003986
54 0.007019
59 0.006982
71 0.006915
93 0.003985
106 0.003995
111 0.00399
115 0.003986
119 0.002991
124 0.00695
127 0.006981
129 0.003996
136 0.003991
143 0.003995
150 0.007013
155 0.006017
124 0.003989
62 0.003973
15 0.00401
1 0.004025
19 0.004033
42 0.006017
66 0.006979
79 0.003996
67 0.003975
49 0.003985
40 0.007013
43 0.006983
67 0.003987
83 0.004956
96 0.003991
111 0.004988
116 0.00498
117 0.007042
118 0.006983
127 0.004983
138 0.003948
151 0.00399
166 0.00797
163 0.007957
118 0.003984
64 0.003987
34 0.003994
37 0.003988
60 0.004995
88 0.007981
104 0.007028
105 0.003992
87 0.003988
70 0.004958
68 0.007013
74 0.007013
99 0.003966
119 0.005
135 0.004046
152 0.003989
159 0.003987
163 0.007968
162 0.006986
162 0.004954
168 0.004996
175 0.004992
177 0.006974
135 0.007013
54 0.004991
23 0.004989
31 0.005007
50 0.004996
66 0.002938
82 0.007028
87 0.006981
74 0.005004
63 0.004985
63 0.00499
80 0.007976
97 0.007979
111 0.004985
118 0.00498
132 0.004981
138 0.005983
144 0.005977
156 0.007017
162 0.006976
167 0.004983
174 0.005028
183 0.004981
186 0.007975
144 0.007974
64 0.004988
31 0.004998
39 0.004944
63 0.004951
81 0.004995
96 0.008014
100 0.007018
85 0.005003
69 0.004947
68 0.004983
78 0.006982
92 0.00695
115 0.004955
125 0.005983
134 0.005987
140 0.004972
146 0.003953
154 0.007974
159 0.007985
163 0.004989
167 0.005024
172 0.004984
179 0.007959
182 0.007968
174 0.003976
122 0.003982
42 0.00593
32 0.005949
45 0.005954
64 0.007976
83 0.007978
97 0.006017
95 0.005981
83 0.00599
72 0.007978
70 0.007978
80 0.004985
96 0.00502
115 0.008015
126 0.005983
135 0.005956
139 0.005978
147 0.006982
152 0.00698
156 0.005985
160 0.006029
171 0.00598
185 0.007936
190 0.007956
163 0.005955
91 0.007946
79 0.006951
92 0.006976
106 0.006953
139 0.006984
158 0.007947
161 0.005986
148 0.005985
132 0.005981
126 0.006981
140 0.006982
159 0.005975
185 0.006976
193 0.005952
196 0.005977
199 0.005983
201 0.007979
199 0.007019
205 0.006963
208 0.005985
216 0.005984
226 0.006034
202 0.006953
151 0.005982
103 0.006978
103 0.005953
111 0.005936
120 0.005974
132 0.007018
134 0.007985
117 0.006964
101 0.006976
102 0.006979
113 0.006976
130 0.006981
149 0.006954
169 0.00698
170 0.005986
172 0.005986
176 0.006036
184 0.006978
193 0.006984
200 0.005985
205 0.005984
214 0.004951
220 0.007012
190 0.006013
92 0.006983
63 0.006982
64 0.00695
82 0.005938
98 0.005976
112 0.007018
119 0.006977
110 0.005984
91 0.006014
83 0.005982
85 0.005954
96 0.006981
119 0.00698
132 0.005984
142 0.006984
147 0.006945
150 0.006983
157 0.007023
161 0.006981
169 0.00698
174 0.006974
181 0.006981
190 0.006978
200 0.006981
188 0.006982
128 0.005969
58 0.005983
39 0.005987
46 0.006012
64 0.005985
75 0.006014
91 0.006862
93 0.006015
82 0.006013
62 0.007015
60 0.006977
76 0.00695
89 0.00595
99 0.005984
103 0.005982
109 0.005983
110 0.005984
111 0.005947
118 0.005951
122 0.006005
128 0.006003
136 0.006013
145 0.006016
151 0.005984
156 0.006978
166 0.005981
168 0.005963
138 0.005992
74 0.006014
31 0.006014
17 0.005981
31 0.005982
49 0.005979
64 0.006013
79 0.006012
71 0.006014
53 0.005985
45 0.005981
52 0.005984
68 0.005022
85 0.005015
100 0.005023
112 0.005985
121 0.00595
126 0.006047
131 0.005984
136 0.006015
143 0.006028
147 0.005971
156 0.005974
174 0.006016
180 0.005984
157 0.005983
103 0.005987
63 0.005027
52 0.005952
69 0.004987
86 0.005044
103 0.005945
123 0.006001
114 0.005982
99 0.005955
92 0.005807
99 0.005981
112 0.004985
125 0.005016
138 0.005017
153 0.006015
157 0.005983
162 0.006028
170 0.006019
182 0.00598
186 0.005996
192 0.005984
203 0.005996
211 0.004985
221 0.004983
195 0.005032
130 0.00499
73 0.004983
62 0.004986
70 0.00498
96 0.005045
112 0.004986
122 0.004984
115 0.004985
95 0.004987
89 0.004987
94 0.005017
105 0.005034
120 0.005022
139 0.00502
148 0.004991
153 0.005027
161 0.004988
168 0.004995
174 0.005014
179 0.004985
188 0.005005
193 0.004952
199 0.004989
208 0.005023
213 0.005019
161 0.004848
99 0.004033
63 0.003987
59 0.003989
76 0.004983
94 0.00499
108 0.004949
119 0.004979
108 0.004983
93 0.004986
88 0.00502
94 0.004956
109 0.004985
121 0.004989
130 0.004987
146 0.00495
148 0.004956
151 0.003978
157 0.003937
165 0.003934
168 0.003958
172 0.003958
175 0.004022
184 0.005015
196 0.004981
186 0.004957
127 0.005028
48 0.004987
35 0.00495
44 0.004956
63 0.004952
87 0.003989
102 0.003947
100 0.00399
83 0.004024
67 0.004023
64 0.003989
74 0.003989
88 0.00399
101 0.004
105 0.003957
112 0.004005
121 0.003956
128 0.003996
131 0.003953
138 0.004039
147 0.003989
159 0.003992
175 0.004991
171 0.004957
125 0.004954
61 0.003945
58 0.003835
74 0.003997
94 0.003984
126 0.004003
147 0.003966
145 0.004021
127 0.004035
112 0.004028
108 0.00395
117 0.003994
131 0.00398
154 0.003954
164 0.003965
170 0.003959
176 0.003954
183 0.003956
187 0.003958
191 0.00405
197 0.004009
205 0.003989
196 0.00399
138 0.003957
79 0.00399
40 0.00399
53 0.003972
72 0.002973
89 0.003939
108 0.002991
113 0.004003
98 0.00296
83 0.003022
78 0.003991
83 0.003026
101 0.002998
116 0.00399
132 0.003951
140 0.003947
144 0.003964
149 0.003959
152 0.00402
158 0.003999
165 0.002992
171 0.002992
165 0.002993
114 0.004021
40 0.002993
14 0.002974
33 0.003008
52 0.003957
73 0.004008
91 0.002982
96 0.003955
76 0.003992
62 0.003037
60 0.003029
69 0.002971
84 0.002992
103 0.003041
115 0.002956
123 0.002993
125 0.003021
128 0.002987
131 0.002998
136 0.003956
147 0.002999
155 0.001995
139 0.003031
83 0.002992
28 0.003009
0 0.002991
17 0.003023
46 0.003024
71 0.002987
88 0.002985
81 0.002988
60 0.002993
44 0.002995
47 0.001995
61 0.002
76 0.002953
86 0.002979
97 0.002992
106 0.002987
105 0.002991
105 0.002991
110 0.002983
116 0.003002
124 0.002959
135 0.002994
112 0.001957
57 0.002008
14 0.002992
2 0.001995
17 0.001994
50 0.001982
87 0.002026
95 0.003009
76 0.001989
55 0.003014
49 0.002951
62 0.003035
80 0.002993
99 0.003026
116 0.002995
128 0.002994
139 0.002027
138 0.001997
136 0.001948
135 0.001957
139 0.001993
143 0.001964
122 0.001996
46 0.002002
1 0.002001
57 0.001995
55 0.002029
61 0.002009
72 0.002028
82 0.002993
81 0.002992
77 0.001978
78 0.002995
85 0.00296
95 0.001996
109 0.001979
118 0.001995
125 0.001995
130 0.001996
134 0.001995
139 0.002043
146 0.001991
152 0.001983
155 0.001996
160 0.002009
162 0.001991
137 0.001993
96 0.001995
82 0.001029
80 0.000994
87 0.001996
96 0.001995
107 0.002036
113 0.002001
105 0.001996
103 0.001995
105 0.001999
110 0.002012
116 0.001998
124 0.002004
131 0.00104
136 0.00202
141 0.001031
145 0.000998
152 0.002022
157 0.002002
160 0.001009
163 0.001996
166 0.002008
171 0.001994
175 0.002002
177 0.002006
144 0.002052
113 0.002028
97 0.001994
97 0.002023
110 0.000991
116 0.001964
123 0.001016
126 0.001994
120 0.002013
116 0.001964
116 0.002001
119 0.001997
127 0.002034
133 0.002004
138 0.000995
143 0.000995
147 0.001009
151 0.000991
156 0.00103
161 0.000997
163 0.001014
168 0.001999
171 0.001989
172 0.002002
174 0.002025
177 0.002029
181 0.002025
186 0.002039
157 0.001948
128 0.000997
113 0.001953
115 0.000987
126 0.001009
133 0.001004
139 0.001015
142 0.001007
137 0.000998
130 0.000998
129 0.0
130 0.002027
140 0.00199
147 0.002001
150 0.001994
152 0.001043
154 0.0
158 0.001013
163 0.001021
167 0.000996
175 0.001001
178 0.000997
180 0.002053
180 0.002044
183 0.001002
187 0.001001
193 0.000999
199 0.001996
198 0.0
172 0.0
146 0.0
132 0.0
134 0.000998
142 0.000997
151 0.000997
158 0.0
160 0.00098
153 0.000994
145 0.000999
143 0.0
147 0.0
153 0.0
158 0.0
163 0.0
167 0.0
169 0.0
171 0.000998
173 0.001003
198 0.000995
203 0.0
207 0.000996
213 0.0
212 0.0
213 0.0
220 0.0
229 0.0
204 0.0
157 0.0
127 0.0
116 0.000998
131 0.0
140 0.0
145 0.0
153 0.0
148 0.0
138 0.0
130 0.0
129 0.0
133 0.0
142 0.0
150 0.0
156 0.0
167 0.000959
169 0.001018
174 0.001001
184 0.0
191 0.001
196 0.0
200 0.000999
203 0.0
210 0.0
216 0.0
221 0.0
170 0.0
123 0.0
100 0.0
100 0.0
108 0.0
116 0.001011
125 0.002995
132 0.0
123 0.0
113 0.0
106 0.003028
108 0.002019
123 0.0
134 0.001996
145 0.000997
150 0.0
151 0.0
152 0.003
155 0.002995
163 0.0
167 0.0
168 0.0
169 0.003029
171 0.003022
183 0.002978
189 0.001987
148 0.0
106 0.000953
90 0.001009
84 0.000995
93 0.001994
108 0.0
114 0.001017
121 0.001045
112 0.002993
97 0.002028
77 0.002992
78 0.002992
87 0.0
96 0.001009
104 0.0
105 0.001959
108 0.001985
117 0.0
121 0.000997
120 0.000998
125 0.001996
130 0.002006
145 0.002987
152 0.002987
129 0.0
90 0.0
65 0.0
58 0.002994
64 0.002994
81 0.000975
93 0.000967
104 0.000967
106 0.002026
94 0.002025
75 0.002996
74 0.00297
83 0.000987
94 0.000969
102 0.000962
108 0.001994
114 0.001986
116 0.0
116 0.001994
116 0.001018
117 0.00203
120 0.003026
129 0.00298
117 0.004014
58 0.0
23 0.0
4 0.0
7 0.002991
22 0.001971
39 0.001035
51 0.0
53 0.000964
41 0.002988
28 0.002025
20 0.002999
28 0.001998
50 0.0
63 0.0
74 0.0
81 0.002986
87 0.002992
95 0.0
100 0.0
102 0.0
106 0.002029
112 0.002029
91 0.002026
50 0.001992
16 0.000967
14 0.0
29 0.0
45 0.002979
57 0.001994
72 0.0
66 0.0
53 0.0
43 0.003021
44 0.0
56 0.002971
71 0.002992
87 0.000987
99 0.000972
111 0.001015
116 0.003033
117 0.001998
117 0.000997
118 0.0
123 0.0
130 0.002992
96 0.000995
60 0.002976
39 0.002995
39 0.0
51 0.0
58 0.001012
68 0.001986
78 0.001997
77 0.0
74 0.00101
78 0.000967
89 0.0
80 0.000997
87 0.0
96 0.003044
120 0.003988
140 0.0
141 0.0
141 0.0
144 0.002993
150 0.001994
155 0.0
158 0.0
139 0.000957
115 0.0
123 0.000955
141 0.002995
158 0.002984
174 0.0
182 0.0
179 0.0
162 0.002975
149 0.00294
151 0.001025
164 0.000955
176 0.0
189 0.0
193 0.0
196 0.002993
203 0.00406
207 0.000999
210 0.0
217 0.0
229 0.003029
243 0.003948
233 0.000999
195 0.0
167 0.0
159 0.000998
167 0.0
176 0.00304
186 0.002991
187 0.001005
177 0.0
167 0.0
162 0.002984
164 0.002988
177 0.000967
187 0.001999
196 0.0
208 0.0
213 0.000948
217 0.003981
219 0.003982
219 0.00098
220 0.0
219 0.000955
224 0.003968
231 0.003988
224 0.0
176 0.003004
133 0.0
112 0.0
120 0.0
127 0.002988
131 0.002957
134 0.0
124 0.00299
110 0.000972
102 0.003024
103 0.004014
119 0.000951
136 0.002992
148 0.003001
153 0.0
154 0.001988
153 0.003993
152 0.003989
154 0.00099
156 0.000964
158 0.00099
164 0.003961
170 0.004987
178 0.0
187 0.003005
176 0.002032
99 0.003037
75 0.003026
73 0.003991
85 0.003952
98 0.003031
106 0.002993
110 0.002989
103 0.003986
89 0.003976
73 0.002994
74 0.002991
90 0.004016
100 0.003032
110 0.0
116 0.003955
119 0.003991
120 0.003022
120 0.003021
124 0.000964
128 0.004027
132 0.003988
139 0.002988
142 0.003002
148 0.0
152 0.000957
157 0.003004
146 0.005039
102 0.003988
57 0.002997
49 0.002993
61 0.003021
78 0.003988
91 0.003956
104 0.003009
98 0.001995
76 0.002992
70 0.002973
74 0.001957
85 0.002993
97 0.004984
112 0.002956
121 0.002986
126 0.0
128 0.002952
134 0.00499
142 0.005018
148 0.00299
154 0.004033
164 0.002978
172 0.002995
179 0.002979
174 0.005026
134 0.005038
81 0.003003
64 0.003999
68 0.003026
83 0.00399
98 0.003996
114 0.004012
117 0.004988
101 0.003982
91 0.002992
89 0.00399
97 0.004987
114 0.004995
129 0.002974
137 0.003032
144 0.004031
148 0.003933
151 0.003992
155 0.002992
161 0.003954
164 0.003988
166 0.0
171 0.000952
178 0.00404
186 0.005056
182 0.003024
136 0.003004
85 0.003009
58 0.004988
55 0.004986
75 0.002992
90 0.00502
102 0.002979
99 0.003027
87 0.002996
75 0.005018
71 0.005018
79 0.003033
93 0.00302
107 0.002988
117 0.004017
120 0.004958
128 0.002996
132 0.004953
138 0.002989
143 0.00297
150 0.00302
157 0.004973
163 0.004988
171 0.002991
177 0.00399
183 0.003001
188 0.005019
187 0.004988
119 0.00299
63 0.005025
47 0.002992
61 0.002999
79 0.002996
90 0.006024
99 0.005985
