40 0.010971
38 0.004978
40 0.005034
49 0.004987
61 0.004987
67 0.004424
76 0.003983
81 0.004033
92 0.004023
99 0.003989
103 0.003989
40 0.00301
0 0.002996
0 0.002611
6 0.003001
28 0.002027
49 0.001978
46 0.002037
41 0.001994
44 0.002033
50 0.002001
65 0.002
76 0.001964
84 0.001966
95 0.000998
106 0.002961
112 0.004991
74 0.004987
15 0.007956
64 0.007013
68 0.00703
79 0.004987
93 0.004008
97 0.004028
96 0.003974
95 0.003042
99 0.001962
108 0.001994
113 0.001994
119 0.002025
123 0.001996
126 0.002036
131 0.002991
133 0.002019
135 0.002004
99 0.001
79 0.0
73 0.001002
79 0.002961
85 0.003962
94 0.005963
101 0.007936
100 0.006014
100 0.004985
107 0.003976
116 0.00401
120 0.003999
127 0.004024
130 0.003048
135 0.004084
140 0.003992
143 0.004026
149 0.003989
156 0.002
145 0.001997
108 0.001994
103 0.000956
110 0.000972
120 0.000998
128 0.000998
136 0.000998
136 0.000998
135 0.000998
140 0.000999
146 0.000965
152 0.000996
158 0.000998
161 0.00196
165 0.001983
180 0.002992
183 0.003967
189 0.005953
185 0.005954
157 0.005957
116 0.005943
114 0.007016
120 0.006987
133 0.006974
143 0.00698
152 0.006981
149 0.005985
149 0.005986
156 0.006014
163 0.004986
170 0.004022
176 0.003987
182 0.003994
187 0.00312
192 0.002978
196 0.003973
200 0.002998
203 0.002992
181 0.002992
123 0.002996
110 0.002993
113 0.003035
120 0.003023
127 0.002986
141 0.002016
143 0.002027
142 0.001961
144 0.002037
148 0.001995
157 0.001994
164 0.000997
168 0.001993
173 0.0
176 0.000966
178 0.000997
180 0.00296
181 0.002993
184 0.002962
188 0.002948
176 0.001959
115 0.002992
96 0.002956
98 0.002993
108 0.003985
114 0.004956
124 0.004984
123 0.004954
121 0.005982
124 0.004983
131 0.006948
139 0.007948
145 0.00781
147 0.007938
155 0.00794
159 0.007979
163 0.007988
166 0.007026
171 0.006027
175 0.006033
144 0.006016
112 0.006017
95 0.006025
107 0.006014
116 0.00402
131 0.004025
135 0.002992
131 0.002033
130 0.003027
136 0.001995
140 0.001985
148 0.001994
152 0.001977
158 0.002021
165 0.0
168 0.0
171 0.0
176 0.0
177 0.000998
133 0.002024
87 0.003991
82 0.004021
91 0.003989
96 0.003989
109 0.004994
118 0.004985
118 0.004983
117 0.004954
125 0.005885
131 0.006027
140 0.005984
145 0.005994
152 0.005986
156 0.006003
173 0.005982
178 0.006018
181 0.006981
186 0.005899
180 0.00703
133 0.006949
71 0.007018
56 0.005023
64 0.00602
74 0.005034
92 0.005023
99 0.00502
98 0.004029
96 0.004014
101 0.004023
110 0.004986
122 0.004012
133 0.004993
141 0.004025
149 0.005152
155 0.004987
158 0.003989
162 0.000997
169 0.0
156 0.0
94 0.0
54 0.001995
58 0.001997
79 0.001994
101 0.001995
108 0.001995
103 0.001995
100 0.002003
103 0.002006
114 0.001964
121 0.002006
134 0.002004
139 0.003031
147 0.002804
154 0.002988
156 0.002993
163 0.00295
154 0.002943
78 0.003027
42 0.002993
44 0.003941
56 0.00399
74 0.003952
85 0.00399
89 0.003998
86 0.003989
89 0.004027
101 0.003991
110 0.003979
122 0.004023
135 0.006014
140 0.00698
147 0.006981
152 0.006982
158 0.006985
165 0.006971
148 0.006975
80 0.006977
34 0.007963
34 0.006981
45 0.007016
51 0.006981
70 0.007017
78 0.005032
77 0.006015
76 0.005019
84 0.00515
92 0.00599
105 0.005029
112 0.003989
121 0.003029
129 0.001031
133 0.000999
140 0.000998
145 0.002028
150 0.000997
114 0.002043
53 0.001025
33 0.001995
47 0.002026
58 0.000997
80 0.0
89 0.000964
86 0.000997
84 0.000997
90 0.000982
101 0.001995
115 0.002957
121 0.002994
131 0.003086
139 0.002993
143 0.002992
150 0.002853
155 0.002959
111 0.002971
45 0.002993
37 0.002961
51 0.002993
69 0.002966
82 0.00299
95 0.002993
93 0.003024
94 0.004025
103 0.003996
115 0.004987
127 0.006003
139 0.005979
146 0.006005
156 0.00594
161 0.006022
168 0.005987
174 0.007013
177 0.006983
183 0.006981
104 0.007015
72 0.007018
43 0.00698
50 0.006966
58 0.00618
73 0.005984
87 0.005018
90 0.005984
87 0.004021
90 0.00402
102 0.003025
111 0.002991
123 0.002992
131 0.002971
138 0.001994
142 0.000998
151 0.0
152 0.00101
159 0.001013
164 0.0
169 0.000997
166 0.000996
119 0.000976
45 0.000997
45 0.000997
57 0.000996
75 0.000998
93 0.002951
95 0.002967
89 0.002961
91 0.002965
102 0.002963
113 0.005028
124 0.006033
132 0.007016
140 0.00798
146 0.007978
153 0.007979
160 0.006945
167 0.007014
165 0.007027
126 0.007979
53 0.005988
50 0.005021
61 0.005019
81 0.004023
100 0.001991
106 0.000996
102 0.000998
104 0.000998
111 0.0
125 0.0
137 0.0
147 0.0
155 0.0
164 0.0
169 0.0
175 0.0
179 0.0
186 0.000995
166 0.003
108 0.002987
48 0.003016
47 0.002993
63 0.002888
77 0.002994
89 0.002992
100 0.004982
97 0.005021
97 0.004992
108 0.00497
117 0.005018
130 0.006019
137 0.007013
144 0.007024
147 0.00794
152 0.007028
155 0.006984
161 0.006979
165 0.005018
169 0.004988
165 0.001981
77 0.001039
48 0.000997
40 0.0
58 0.000999
71 0.003023
93 0.002991
97 0.003043
91 0.003034
91 0.002998
98 0.003002
113 0.003002
128 0.004037
137 0.00502
149 0.005021
155 0.005023
159 0.005026
167 0.004832
172 0.005023
175 0.006016
105 0.006036
67 0.007017
58 0.006944
80 0.006969
94 0.006981
118 0.006981
122 0.006982
114 0.007032
115 0.005987
121 0.005088
137 0.005015
149 0.003989
158 0.002985
167 0.00399
175 0.002135
181 0.001987
187 0.000999
194 0.001013
184 0.000998
97 0.0
65 0.001002
65 0.0
79 0.000997
88 0.001026
107 0.001042
113 0.001022
111 0.000998
111 0.000998
117 0.00202
130 0.002031
141 0.001997
147 0.002012
155 0.001994
158 0.001996
164 0.001981
167 0.001963
171 0.001959
173 0.001995
141 0.002037
63 0.002028
47 0.002854
58 0.002984
71 0.002958
90 0.002994
96 0.004
93 0.003996
90 0.005985
96 0.005884
108 0.005984
117 0.006018
128 0.005984
136 0.005984
141 0.006015
147 0.006015
154 0.007978
155 0.006947
111 0.007948
69 0.007007
49 0.007977
64 0.006016
76 0.005952
99 0.003027
104 0.002977
98 0.003977
98 0.001996
107 0.003026
119 0.002184
132 0.002008
138 0.000986
147 0.0
156 0.0
158 0.0
163 0.000997
159 0.000997
121 0.0
51 0.001031
43 0.00101
54 0.000998
67 0.001001
79 0.004006
93 0.002968
91 0.002987
92 0.002939
99 0.004021
113 0.004987
121 0.006017
129 0.007979
137 0.006951
141 0.007944
146 0.007012
151 0.007977
156 0.006954
150 0.007081
112 0.007012
53 0.005979
51 0.007023
61 0.006
71 0.00703
88 0.006017
99 0.006986
96 0.007017
96 0.007035
106 0.005988
113 0.006018
126 0.006018
137 0.005052
142 0.006028
149 0.003023
158 0.003026
163 0.003027
172 0.002982
174 0.001983
133 0.0
94 0.0
90 0.0
104 0.001039
122 0.001995
133 0.001995
137 0.002993
133 0.004044
135 0.00399
147 0.004028
158 0.003957
166 0.004026
173 0.003989
179 0.004024
184 0.004006
191 0.003989
196 0.00399
202 0.004025
206 0.004021
182 0.003991
122 0.004038
114 0.004042
122 0.003991
126 0.003959
138 0.004025
149 0.00399
149 0.003993
149 0.005984
157 0.006949
164 0.006981
175 0.007015
180 0.007975
183 0.007014
189 0.007021
193 0.007022
197 0.006993
201 0.006017
203 0.007014
208 0.006021
210 0.005017
194 0.004029
130 0.004036
113 0.004025
119 0.003015
124 0.004017
132 0.003001
140 0.001047
134 0.001995
130 0.001046
131 0.002038
137 0.001041
143 0.00203
150 0.001996
154 0.000998
160 0.001996
174 0.001995
175 0.002027
183 0.002032
190 0.001859
196 0.002992
187 0.003042
141 0.002992
94 0.002997
108 0.002992
119 0.003024
139 0.002993
145 0.005018
140 0.004987
134 0.004889
138 0.004987
149 0.00495
160 0.004902
165 0.005018
172 0.00598
176 0.00798
178 0.006963
184 0.007972
187 0.007021
194 0.007969
155 0.007976
104 0.007973
72 0.007993
80 0.006034
87 0.005112
97 0.005023
107 0.005025
106 0.003991
97 0.004024
100 0.004024
109 0.004029
121 0.004021
129 0.003001
137 0.004031
144 0.003044
150 0.001998
154 0.002026
157 0.002035
162 0.001997
166 0.0
150 0.0
78 0.0
33 0.0
34 0.0
41 0.0
44 0.0
55 0.000998
53 0.001995
47 0.002992
46 0.002984
56 0.002987
63 0.003995
72 0.005032
84 0.006072
89 0.006947
96 0.006997
101 0.006982
105 0.005996
112 0.007026
120 0.005985
115 0.006025
40 0.00497
11 0.004987
16 0.005023
35 0.004014
48 0.005021
57 0.004024
55 0.005022
46 0.003024
53 0.000985
60 0.001028
72 0.0
83 0.0
90 0.0
99 0.0
106 0.0
110 0.0
120 0.000997
117 0.002835
54 0.003992
6 0.004987
5 0.004996
14 0.004982
27 0.005101
38 0.004987
44 0.004989
38 0.004981
40 0.004986
54 0.005989
63 0.005976
79 0.005979
91 0.005982
97 0.005952
107 0.00599
113 0.005985
121 0.005983
130 0.005983
136 0.005945
88 0.005984
18 0.006982
0 0.00702
2 0.007979
12 0.007022
20 0.002031
36 0.005984
38 0.006017
34 0.006036
41 0.003991
49 0.004022
67 0.001994
80 0.001001
87 0.001029
99 0.000995
107 0.0
113 0.0
127 0.0
140 0.0
147 0.000998
86 0.0
44 0.0
37 0.0
50 0.0
70 0.0
86 0.000998
88 0.002027
83 0.002984
86 0.003989
93 0.00399
110 0.00395
121 0.003992
129 0.003959
138 0.004
143 0.004787
151 0.004988
158 0.005
150 0.004987
70 0.004992
39 0.004998
42 0.005022
60 0.004991
73 0.004983
91 0.005002
91 0.005984
85 0.005999
92 0.006013
104 0.006984
115 0.006024
131 0.006988
138 0.006999
148 0.006988
155 0.006987
163 0.006981
172 0.007012
176 0.00701
118 0.007026
52 0.006016
39 0.006029
48 0.006017
59 0.004975
73 0.003977
91 0.00203
90 0.001986
88 0.000998
98 0.001995
112 0.000997
121 0.002025
133 0.001993
140 0.002008
147 0.002026
152 0.002028
159 0.0
164 0.0
170 0.0
178 0.0
134 0.0
77 0.0
38 0.0
45 0.000998
60 0.000967
81 0.000964
90 0.002007
88 0.002993
87 0.00296
95 0.003006
110 0.002956
122 0.004021
134 0.003956
141 0.003989
151 0.003956
156 0.004045
166 0.004
171 0.003989
181 0.003995
184 0.00399
127 0.004006
66 0.004008
65 0.004991
84 0.004983
98 0.005011
121 0.004989
118 0.006016
116 0.006018
122 0.006982
134 0.007146
144 0.006957
158 0.007016
166 0.007937
174 0.006992
180 0.007937
187 0.006957
192 0.006987
201 0.004985
205 0.004958
211 0.004986
142 0.003984
88 0.004984
70 0.003991
79 0.004992
88 0.00399
109 0.00399
121 0.003981
121 0.00402
119 0.003982
128 0.003968
140 0.00499
150 0.00399
161 0.003971
170 0.00299
174 0.002992
180 0.002993
182 0.002992
188 0.002986
195 0.001991
200 0.002989
206 0.001995
186 0.002998
96 0.002144
68 0.001966
76 0.001963
89 0.001997
108 0.001002
113 0.0
111 0.001035
107 0.002003
111 0.001952
125 0.001955
131 0.002037
143 0.001991
153 0.002009
156 0.002029
163 0.002031
168 0.002031
174 0.001993
178 0.003992
149 0.003991
88 0.003988
64 0.004024
73 0.004032
94 0.003992
107 0.003957
118 0.00502
110 0.007012
112 0.005983
117 0.005948
131 0.005976
139 0.005984
151 0.005983
159 0.006981
165 0.00598
170 0.005027
176 0.004973
180 0.005019
184 0.005019
148 0.004986
66 0.003998
58 0.002998
67 0.002993
81 0.000995
103 0.000943
109 0.001006
106 0.000998
107 0.000997
121 0.001008
137 0.0
143 0.0
154 0.0
163 0.0
168 0.0
176 0.002028
183 0.002993
188 0.004026
175 0.004023
128 0.004058
77 0.003991
81 0.004018
90 0.004009
104 0.004901
122 0.004987
122 0.00503
119 0.007017
123 0.007015
136 0.007027
151 0.006904
158 0.007015
169 0.007015
178 0.006983
181 0.006982
191 0.005985
196 0.005995
204 0.005988
159 0.006019
131 0.006018
133 0.005981
146 0.007015
164 0.006023
176 0.00598
176 0.005969
168 0.006015
175 0.004986
181 0.005982
192 0.004986
198 0.006165
207 0.004987
214 0.003989
218 0.002998
225 0.003027
228 0.002002
204 0.002976
148 0.002996
144 0.003038
155 0.002028
165 0.000996
176 0.001015
183 0.000998
175 0.001157
173 0.001003
182 0.001031
187 0.001041
195 0.000999
203 0.0
206 0.001042
212 0.0
213 0.002033
218 0.0
223 0.0
214 0.0
152 0.0
135 0.000987
139 0.000998
148 0.0
152 0.0
167 0.0
163 0.001996
156 0.0
158 0.001997
164 0.0
174 0.0
180 0.0
182 0.000997
187 0.0
188 0.0
191 0.001964
196 0.000999
199 0.0
203 0.000997
182 0.0
139 0.000997
113 0.0
120 0.002006
131 0.00399
142 0.003988
149 0.005988
143 0.005061
139 0.004959
141 0.004859
150 0.006981
156 0.007059
159 0.006982
164 0.006992
167 0.006944
171 0.007015
175 0.00699
178 0.007936
182 0.006981
141 0.004983
110 0.007019
104 0.004996
115 0.006017
128 0.00502
140 0.004955
138 0.004988
129 0.004985
130 0.004948
138 0.004973
146 0.004961
149 0.004987
154 0.004105
158 0.003026
161 0.002012
162 0.001984
167 0.001033
171 0.001033
159 0.001024
116 0.001044
75 0.001995
81 0.0
82 0.000998
86 0.0
95 0.000997
97 0.000999
88 0.002993
89 0.002992
92 0.004977
99 0.007018
106 0.006984
109 0.00699
114 0.006969
118 0.007994
121 0.005991
124 0.007027
128 0.006161
131 0.007013
78 0.006982
46 0.007013
41 0.006017
49 0.004028
52 0.004019
66 0.000984
66 0.001056
61 0.001035
62 0.001013
68 0.0
78 0.001042
84 0.000998
89 0.000998
96 0.000998
103 0.000997
107 0.000998
114 0.001046
119 0.000997
102 0.000997
50 0.000997
45 0.000998
61 0.001996
70 0.002028
84 0.002992
87 0.002993
82 0.002992
81 0.004026
90 0.004016
97 0.004032
109 0.004996
116 0.005022
123 0.00503
130 0.004967
132 0.004986
140 0.005018
146 0.006979
126 0.006978
68 0.00698
65 0.00706
70 0.007013
79 0.00602
89 0.007067
98 0.005974
95 0.006982
93 0.006024
96 0.004955
107 0.004022
113 0.004021
122 0.002051
126 0.000997
132 0.0
138 0.00102
143 0.002959
146 0.003993
147 0.004948
101 0.001998
65 0.006032
69 0.005987
79 0.005984
85 0.005985
96 0.005982
95 0.00798
90 0.00701
93 0.007979
99 0.007013
106 0.007978
114 0.007977
116 0.00798
124 0.007013
128 0.006982
135 0.00702
141 0.005988
146 0.006982
114 0.005981
73 0.005988
75 0.003992
91 0.003992
96 0.003992
109 0.003038
107 0.0
105 0.000997
105 0.0
113 0.000998
122 0.002007
126 0.001995
134 0.002
139 0.002004
144 0.002993
148 0.002962
153 0.002943
126 0.003051
90 0.002993
86 0.002988
99 0.003005
106 0.002983
119 0.003028
119 0.003958
113 0.004995
116 0.004988
122 0.004947
131 0.00502
138 0.004985
143 0.005975
147 0.006019
150 0.006013
154 0.005989
157 0.006017
154 0.006948
112 0.00797
85 0.007965
87 0.007947
98 0.007979
104 0.005973
113 0.007979
115 0.006006
100 0.007957
103 0.004955
115 0.004003
122 0.003999
132 0.003992
140 0.001992
144 0.001993
150 0.001995
152 0.001995
156 0.0
161 0.000949
97 0.000965
64 0.000998
63 0.000991
71 0.000996
80 0.000998
96 0.002989
98 0.004021
93 0.005986
94 0.005984
100 0.00603
111 0.005984
120 0.005988
123 0.005981
132 0.006019
136 0.00702
141 0.006982
147 0.006983
154 0.00599
143 0.007026
73 0.007969
60 0.007036
77 0.007973
85 0.007027
100 0.006983
110 0.006012
106 0.006025
102 0.00599
111 0.004
117 0.003989
126 0.002993
131 0.00402
138 0.002012
144 0.000998
147 0.001051
153 0.000943
151 0.000986
112 0.000947
63 0.0
66 0.001015
82 0.0
92 0.001031
105 0.0
107 0.000996
98 0.0
100 0.0
110 0.0
115 0.0
125 0.002027
132 0.001996
137 0.001995
142 0.001997
146 0.00302
151 0.002959
159 0.005019
101 0.004997
60 0.005028
51 0.005018
58 0.006015
63 0.007013
80 0.006981
85 0.006969
77 0.007019
79 0.007013
86 0.006982
96 0.005948
105 0.007012
107 0.005009
115 0.005988
120 0.004987
127 0.005959
132 0.004993
138 0.005983
143 0.002995
92 0.002996
49 0.002991
43 0.003003
56 0.0
61 0.000992
76 0.000956
82 0.00102
79 0.00101
77 0.00103
82 0.000997
95 0.000999
104 0.000997
108 0.000997
116 0.001981
119 0.001999
128 0.002004
136 0.003043
143 0.002993
143 0.002993
81 0.002992
55 0.003028
67 0.002991
83 0.003935
98 0.004033
110 0.005037
108 0.004989
100 0.004985
110 0.007019
114 0.006981
126 0.004986
135 0.003989
138 0.002015
146 0.002992
152 0.003957
154 0.002975
158 0.00398
110 0.002992
64 0.004021
69 0.00399
81 0.003985
93 0.004191
107 0.003989
110 0.004028
102 0.001995
103 0.002992
114 0.001989
125 0.000991
128 0.000999
135 0.000962
140 0.000961
145 0.002027
151 0.001995
155 0.0
130 0.002038
65 0.0
40 0.001994
49 0.001043
53 0.00103
61 0.001008
71 0.0
67 0.002026
61 0.001992
64 0.001998
69 0.001975
79 0.001995
84 0.001996
90 0.003004
96 0.002997
99 0.002992
105 0.002993
107 0.003045
79 0.002985
12 0.004046
8 0.003879
23 0.003033
33 0.004031
43 0.004137
47 0.005952
41 0.006948
39 0.006995
49 0.007016
58 0.007019
66 0.007012
74 0.007016
81 0.006977
89 0.007018
94 0.004023
96 0.005031
51 0.004037
11 0.002002
17 0.001973
31 0.0
50 0.0
58 0.0
54 0.001961
49 0.002906
56 0.004032
68 0.004988
78 0.005022
83 0.004972
88 0.005022
94 0.004832
102 0.005022
109 0.00502
106 0.005021
39 0.005022
10 0.004859
14 0.005018
22 0.007016
27 0.007084
48 0.006943
48 0.006975
43 0.006967
45 0.006942
57 0.00695
65 0.005981
73 0.004992
81 0.004992
85 0.004029
90 0.005982
96 0.004977
102 0.005992
99 0.003992
49 0.006021
2 0.005984
5 0.005984
10 0.004987
22 0.00303
33 0.004986
34 0.002927
29 0.004955
32 0.002953
45 0.002019
51 0.001007
59 0.000952
66 0.000966
70 0.000965
76 0.000996
81 0.000998
90 0.000998
94 0.0
61 0.000998
9 0.003021
17 0.003963
26 0.004004
43 0.004893
55 0.005952
53 0.005984
47 0.006938
53 0.006982
62 0.006982
70 0.006969
79 0.00698
85 0.006993
94 0.003981
99 0.003995
107 0.002001
109 0.000993
63 0.000987
23 0.000955
22 0.000998
32 0.002052
39 0.002027
57 0.002028
59 0.002029
49 0.002993
54 0.003995
61 0.004003
70 0.003954
81 0.005984
86 0.006004
93 0.005848
101 0.006015
106 0.007054
113 0.006972
118 0.007973
84 0.007016
22 0.006036
17 0.006004
25 0.006017
28 0.006031
40 0.00399
47 0.003989
41 0.002983
40 0.00399
47 0.005006
58 0.00399
68 0.00502
77 0.003035
81 0.003002
90 0.003051
93 0.003025
101 0.002992
108 0.000992
106 0.000998
41 0.0
21 0.000998
30 0.002029
44 0.002958
59 0.00296
71 0.003003
67 0.002994
66 0.003979
72 0.004974
85 0.005041
90 0.005022
99 0.005002
111 0.005028
118 0.00502
123 0.005018
132 0.004987
134 0.004838
88 0.006082
59 0.006078
66 0.005984
82 0.005983
93 0.005984
111 0.00597
106 0.00598
103 0.006961
110 0.006985
119 0.006979
132 0.006975
141 0.00698
147 0.006961
157 0.00698
158 0.00695
164 0.007015
171 0.007978
134 0.006976
81 0.007979
77 0.007005
91 0.007986
98 0.00798
104 0.007981
116 0.007974
112 0.007929
110 0.007979
121 0.005991
130 0.007982
136 0.005989
140 0.004955
143 0.004992
148 0.004978
151 0.004956
154 0.004986
159 0.00502
141 0.004002
67 0.003034
55 0.004024
67 0.00203
73 0.004036
81 0.001993
91 0.003989
83 0.004024
78 0.003948
85 0.002004
91 0.003982
102 0.001994
108 0.0
113 0.000998
115 0.000997
119 0.001018
125 0.002001
132 0.001995
102 0.001997
62 0.002
46 0.00199
62 0.002027
70 0.002993
87 0.003959
86 0.003951
74 0.00402
76 0.004025
82 0.004983
90 0.005989
98 0.006015
105 0.007016
110 0.006018
116 0.00399
118 0.004981
113 0.003986
47 0.001985
27 0.002012
36 0.001995
47 0.001036
58 0.0
68 0.0
65 0.000997
56 0.0
63 0.002018
70 0.0
82 0.002027
91 0.0
96 0.001005
103 0.001995
107 0.002005
113 0.002006
77 0.002
22 0.001993
9 0.001995
14 0.002964
15 0.002951
29 0.004988
33 0.00698
30 0.006951
22 0.00694
30 0.004972
38 0.002992
46 0.003027
49 0.002991
57 0.001008
61 0.002025
67 0.001994
70 0.001995
31 0.001995
0 0.001993
0 0.0
0 0.0
0 0.0
0 0.0
0 0.0
0 0.0
0 0.0
0 0.0
0 0.0
6 0.0
14 0.000965
26 0.000998
31 0.0
42 0.000996
43 0.000997
13 0.000997
0 0.000998
0 0.000997
0 0.001008
1 0.000998
9 0.000997
6 0.000966
4 0.000997
12 0.002
20 0.002013
29 0.002028
38 0.001836
49 0.002021
55 0.001996
63 0.001996
58 0.002009
2 0.001995
54 0.001988
58 0.001969
64 0.001993
75 0.003948
77 0.004075
74 0.004984
76 0.006083
79 0.005957
86 0.007936
91 0.00701
93 0.005986
99 0.006014
103 0.006017
108 0.005984
104 0.003991
84 0.005989
67 0.003989
71 0.002988
71 0.002997
79 0.002992
85 0.002992
87 0.002991
86 0.002995
90 0.002996
98 0.003021
103 0.003025
108 0.001991
111 0.003989
117 0.001017
120 0.001988
124 0.000969
127 0.00201
121 0.001995
92 0.002018
80 0.002025
82 0.002027
83 0.002027
88 0.001995
97 0.004028
97 0.00402
94 0.004024
98 0.003997
101 0.003989
106 0.004021
109 0.004022
114 0.00397
118 0.00402
121 0.005027
126 0.005082
130 0.006052
134 0.00698
94 0.006831
63 0.006969
61 0.006981
72 0.007013
82 0.006977
97 0.007978
101 0.006
95 0.006992
98 0.005983
108 0.004046
114 0.003031
125 0.001001
132 0.000992
138 0.0
145 0.0
149 0.00203
152 0.0
113 0.001901
84 0.001049
86 0.002004
96 0.001996
104 0.003029
119 0.003989
117 0.003991
113 0.004025
120 0.00399
132 0.00502
137 0.006021
148 0.006015
150 0.00604
157 0.007972
167 0.005974
170 0.007036
180 0.005992
174 0.005042
134 0.00319
93 0.004022
98 0.00304
102 0.003041
108 0.002983
118 0.002987
123 0.003027
114 0.005089
115 0.002994
125 0.004986
132 0.002992
138 0.005022
143 0.004022
145 0.004028
149 0.00399
155 0.001983
159 0.003985
164 0.002993
168 0.003989
139 0.0
80 0.002043
77 0.001994
88 0.002025
91 0.001995
103 0.001016
109 0.002006
102 0.000997
101 0.002944
109 0.002013
113 0.002033
123 0.002006
129 0.001995
135 0.002018
145 0.0
149 0.0
154 0.001963
160 0.002004
140 0.001996
85 0.001815
84 0.002033
99 0.003004
112 0.004052
121 0.004023
122 0.00399
118 0.004028
117 0.003989
128 0.003991
136 0.002993
145 0.006044
151 0.005983
158 0.007972
162 0.005981
168 0.007973
173 0.005985
173 0.008024
111 0.006022
83 0.00499
83 0.004987
92 0.003994
97 0.005019
109 0.003991
112 0.00402
107 0.002999
110 0.003169
115 0.002961
126 0.003039
132 0.003029
140 0.001963
146 0.003032
150 0.002979
157 0.001999
159 0.004032
165 0.00397
138 0.004037
95 0.002993
69 0.002032
82 0.0
85 0.001036
96 0.000954
104 0.0
100 0.000952
96 0.000964
101 0.000982
111 0.000992
121 0.0
126 0.0
132 0.000998
137 0.0
142 0.000947
148 0.002018
153 0.0
145 0.002024
94 0.001008
75 0.002025
89 0.0
99 0.002043
117 0.002048
122 0.0
115 0.0
111 0.0
118 0.001029
125 0.000998
135 0.002022
142 0.003988
147 0.004982
148 0.005022
151 0.004951
147 0.006945
97 0.006988
73 0.006982
65 0.00698
75 0.00694
88 0.006936
106 0.006968
101 0.006969
98 0.006951
101 0.008038
108 0.00498
116 0.007033
127 0.006014
132 0.007015
143 0.007013
148 0.007012
157 0.004971
146 0.003987
98 0.00399
42 0.004008
46 0.003994
57 0.002017
66 0.001992
77 0.00203
75 0.0
69 0.001031
72 0.000967
78 0.000986
88 0.00204
95 0.0
104 0.000999
112 0.003038
120 0.003041
121 0.002026
129 0.001987
118 0.005056
38 0.003992
18 0.003948
25 0.004057
32 0.004955
41 0.004958
52 0.003954
44 0.003956
39 0.003994
48 0.00395
55 0.003957
70 0.004025
76 0.004034
87 0.00399
96 0.003978
98 0.004985
109 0.00502
114 0.005018
81 0.004978
26 0.005022
16 0.00502
33 0.004988
51 0.006018
63 0.00696
65 0.007014
56 0.007065
58 0.007977
66 0.004987
74 0.00702
85 0.004979
94 0.004984
102 0.00512
112 0.004991
118 0.004987
110 0.003986
51 0.004024
16 0.002002
22 0.002029
35 0.001035
44 0.001151
64 0.00103
62 0.0
58 0.0
66 0.001
83 0.000997
90 0.000998
103 0.002005
110 0.001985
124 0.001995
136 0.000997
145 0.001986
140 0.002027
96 0.001995
40 0.001996
47 0.003005
51 0.003952
65 0.004024
86 0.004982
85 0.004988
81 0.00507
90 0.004981
100 0.005022
110 0.004985
123 0.004976
130 0.005019
143 0.00499
149 0.004995
160 0.005076
163 0.00502
171 0.005987
138 0.005973
86 0.00598
64 0.006019
74 0.006026
84 0.005986
103 0.006018
113 0.006023
108 0.005989
112 0.006018
118 0.006017
133 0.006019
139 0.006017
146 0.007986
156 0.007978
158 0.005946
168 0.005994
177 0.003988
184 0.005023
190 0.004953
132 0.002992
103 0.001996
111 0.001997
122 0.001999
141 0.002012
154 0.0
150 0.0
142 0.001995
147 0.002044
155 0.001964
167 0.003989
176 0.003991
185 0.004021
194 0.003988
196 0.004032
203 0.004026
208 0.004985
167 0.004985
115 0.005041
111 0.004988
118 0.005019
130 0.006982
146 0.006981
147 0.007015
144 0.006972
141 0.00698
154 0.006978
166 0.006981
169 0.006977
179 0.006949
188 0.005983
192 0.004986
203 0.004976
208 0.003989
214 0.001995
190 0.002079
110 0.002007
98 0.002003
108 0.001992
109 0.001995
117 0.001995
127 0.0
128 0.0
118 0.002036
123 0.001956
130 0.001996
141 0.001995
146 0.002992
149 0.003989
155 0.005988
161 0.005848
164 0.006982
171 0.007
177 0.006987
183 0.006992
144 0.006969
77 0.006976
61 0.007012
73 0.006983
80 0.007015
92 0.006991
99 0.006989
93 0.007015
92 0.006955
95 0.006982
106 0.006983
114 0.007938
124 0.006982
135 0.005984
140 0.005974
146 0.004992
153 0.005016
161 0.005018
173 0.002983
163 0.001994
92 0.001035
75 0.003024
93 0.000998
108 0.002992
128 0.001995
132 0.001995
125 0.001993
121 0.001991
125 0.001032
134 0.0
143 0.0
153 0.001992
163 0.003031
170 0.003021
179 0.002981
190 0.005982
195 0.005995
172 0.005949
97 0.004986
89 0.004984
102 0.004987
110 0.004021
135 0.002991
146 0.004136
137 0.004023
135 0.004013
167 0.003991
188 0.00399
206 0.003989
222 0.0
155 0.001998
243 0.0
255 0.0
255 0.0
255 0.001015
255 0.000998
255 0.000997
176 0.000997
160 0.000965
171 0.000998
184 0.001013
195 0.000998
213 0.001001
208 0.002993
204 0.003
210 0.002998
212 0.002994
222 0.003025
229 0.004986
237 0.004946
243 0.005019
248 0.005017
251 0.005017
255 0.00602
255 0.006982
184 0.007014
147 0.006974
136 0.007011
142 0.006979
158 0.005979
161 0.005974
165 0.005969
162 0.005988
157 0.00599
164 0.005986
169 0.005019
172 0.006979
176 0.006981
179 0.006978
181 0.006976
183 0.006982
186 0.006975
151 0.004979
130 0.005984
128 0.00294
140 0.001997
149 0.0
155 0.0
153 0.001996
149 0.002994
149 0.004045
154 0.003925
159 0.003959
163 0.004024
169 0.004016
170 0.005973
175 0.006018
176 0.006028
157 0.006964
117 0.007978
105 0.006022
112 0.00796
113 0.00787
116 0.007978
121 0.007976
117 0.004986
114 0.006021
117 0.003979
125 0.001983
130 0.0
134 0.0
141 0.0
143 0.001052
146 0.0
148 0.0
138 0.0
69 0.001995
51 0.002031
55 0.002994
60 0.004025
63 0.00599
74 0.00699
70 0.006983
65 0.007012
69 0.006982
77 0.007012
83 0.007023
92 0.006869
97 0.007011
104 0.006966
111 0.006981
116 0.006941
121 0.005978
90 0.004978
50 0.004989
29 0.004975
41 0.003998
53 0.001999
62 0.00399
69 0.002992
64 0.003991
62 0.003989
65 0.002992
76 0.001986
87 0.0
94 0.0
102 0.0
112 0.000997
115 0.001994
104 0.003991
45 0.005985
29 0.006994
42 0.005984
56 0.004022
66 0.00399
77 0.004016
73 0.003974
70 0.002984
80 0.003956
89 0.00399
102 0.00399
109 0.005984
122 0.003989
130 0.004975
139 0.003012
147 0.002032
138 0.001995
77 0.0
48 0.001032
55 0.002019
62 0.001965
68 0.003022
84 0.002039
84 0.00204
79 0.001997
89 0.001995
96 0.005002
113 0.00399
122 0.005025
129 0.004992
142 0.004022
147 0.004948
152 0.004988
156 0.005028
162 0.005029
144 0.006978
74 0.006983
59 0.007012
71 0.006978
75 0.006981
84 0.006982
93 0.004995
91 0.006982
86 0.004989
95 0.004987
99 0.005069
111 0.003972
118 0.003994
128 0.003987
135 0.001939
143 0.002997
151 0.000992
159 0.002992
161 0.0
113 0.001994
73 0.00103
83 0.002032
98 0.0
108 0.0
119 0.002001
116 0.001996
108 0.001996
114 0.001995
127 0.00386
133 0.003993
142 0.005029
153 0.005971
156 0.005984
163 0.006978
171 0.004988
164 0.005975
98 0.005993
72 0.005984
75 0.005983
91 0.005022
101 0.00595
114 0.00598
114 0.006982
111 0.006034
116 0.00603
126 0.006019
142 0.006015
154 0.003996
160 0.005985
172 0.003977
184 0.003024
187 0.001
195 0.001995
174 0.000997
105 0.002029
97 0.001992
108 0.0
116 0.00096
128 0.002028
136 0.001953
133 0.002027
134 0.0
140 0.001002
151 0.000957
157 0.000997
164 0.002045
167 0.001995
166 0.003991
169 0.003955
173 0.004039
176 0.004037
177 0.004983
144 0.004977
96 0.005019
105 0.006035
124 0.006979
136 0.00697
149 0.006968
146 0.006981
140 0.005958
143 0.00599
152 0.004993
163 0.002953
170 0.005021
178 0.00396
187 0.004988
190 0.001997
198 0.001996
195 0.002043
161 0.002028
123 0.002046
141 0.0
153 0.0
169 0.001989
178 0.000955
170 0.0
165 0.0
170 0.000995
174 0.000997
180 0.00096
186 0.001991
191 0.001996
195 0.002998
198 0.00399
201 0.004
192 0.00399
127 0.005029
109 0.005976
118 0.007012
125 0.006018
123 0.006038
126 0.006017
119 0.006056
99 0.002011
79 0.003991
81 0.0
52 0.000966
34 0.000997
20 0.001995
0 0.002026
0 0.001967
13 0.002003
31 0.002029
7 0.001958
0 0.001999
0 0.001966
5 0.001999
16 0.001996
25 0.001965
0 0.001995
3 0.002998
81 0.003981
141 0.003949
130 0.003957
84 0.003985
81 0.004983
94 0.006976
114 0.006981
149 0.005066
180 0.006123
189 0.001988
165 0.003028
131 0.003028
143 0.002989
89 0.004034
54 0.00194
91 0.004029
80 0.00198
48 0.002011
20 0.002018
24 0.002027
25 0.002025
32 0.0
33 0.0
34 0.001995
45 0.001994
51 0.001965
42 0.002994
21 0.002994
12 0.002993
16 0.002961
21 0.002964
32 0.002996
37 0.002996
35 0.003001
35 0.003
39 0.002992
45 0.005027
49 0.005022
52 0.00499
62 0.004987
62 0.004822
65 0.006981
72 0.007977
54 0.007977
35 0.007978
30 0.005984
36 0.003001
40 0.003957
48 0.001994
50 0.003989
50 0.001995
49 0.001995
52 0.001995
60 0.001991
66 0.001994
71 0.001988
79 0.001
82 0.001996
89 0.000998
94 0.003026
99 0.001
93 0.0
69 0.0
65 0.000998
69 0.003
53 0.004024
56 0.005021
66 0.004984
60 0.00599
62 0.006014
71 0.006984
80 0.004962
84 0.004997
95 0.004986
102 0.004978
110 0.004987
113 0.004997
117 0.004983
122 0.004981
128 0.004942
132 0.004982
97 0.006978
72 0.004983
80 0.007014
96 0.005986
105 0.005973
111 0.005992
108 0.005996
102 0.006014
106 0.004954
111 0.005988
118 0.00412
122 0.005984
126 0.003996
130 0.003997
131 0.004956
136 0.003988
139 0.003027
125 0.003027
86 0.003009
81 0.002022
97 0.002001
107 0.002992
117 0.001028
118 0.003023
114 0.001996
113 0.00296
121 0.001994
127 0.002031
136 0.001995
141 0.000998
148 0.000997
151 0.000996
158 0.002992
163 0.002993
165 0.002986
123 0.00302
102 0.002998
102 0.002973
109 0.002992
116 0.00396
123 0.005021
124 0.005025
119 0.004984
117 0.005058
122 0.006025
125 0.006017
130 0.006014
131 0.007978
134 0.007975
133 0.007939
138 0.00798
146 0.005985
152 0.007977
133 0.006951
89 0.006983
71 0.005982
78 0.00695
82 0.005986
85 0.005987
88 0.005991
85 0.005953
78 0.005983
79 0.005017
83 0.004985
87 0.006169
93 0.00299
95 0.003011
98 0.002008
102 0.001998
106 0.00203
110 0.00099
97 0.001996
60 0.0
46 0.000997
55 0.00101
64 0.002027
68 0.002
72 0.002993
64 0.004042
64 0.004014
68 0.005019
78 0.005961
80 0.005986
87 0.005978
93 0.007978
97 0.005988
102 0.007978
103 0.005982
72 0.006987
37 0.006995
36 0.007077
47 0.006984
53 0.006985
61 0.005952
63 0.003982
60 0.005978
64 0.003994
71 0.00399
78 0.002985
87 0.001994
96 0.0
102 0.000968
107 0.000988
115 0.001032
109 0.00105
61 0.000904
47 0.000998
48 0.001022
54 0.000998
60 0.001998
67 0.003019
66 0.002959
63 0.002993
68 0.002988
74 0.002926
81 0.003
90 0.003991
95 0.004041
105 0.005028
111 0.005025
117 0.00603
124 0.005025
119 0.005022
74 0.006021
63 0.005983
67 0.006979
77 0.005974
90 0.005016
98 0.00498
99 0.003992
91 0.005992
100 0.003986
125 0.005978
149 0.002989
165 0.004987
184 0.003988
194 0.00399
207 0.003003
222 0.002004
225 0.000991
175 0.001973
156 0.002003
169 0.002007
186 0.001004
197 0.000959
208 0.0
201 0.003
198 0.000974
207 0.001989
216 0.0
224 0.0
235 0.000998
240 0.001009
250 0.000997
255 0.000964
255 0.002958
220 0.002992
160 0.002992
155 0.002945
166 0.005864
174 0.00601
180 0.007976
185 0.004989
177 0.003989
179 0.003989
191 0.004101
202 0.003976
215 0.003978
227 0.004002
231 0.004009
239 0.003973
239 0.003995
248 0.003034
237 0.00502
176 0.003979
143 0.00499
148 0.005023
149 0.004978
156 0.00499
167 0.004985
166 0.005018
160 0.002002
165 0.002992
177 0.001996
189 0.001997
191 0.002011
199 0.001997
202 0.002009
208 0.00091
216 0.002029
222 0.001981
220 0.002027
174 0.001013
129 0.002031
132 0.0
144 0.0
157 0.0
167 0.0
168 0.000965
165 0.0
169 0.0
180 0.0
194 0.002036
199 0.002031
212 0.002992
224 0.004947
226 0.004965
233 0.005996
184 0.006941
178 0.006029
146 0.004987
143 0.002989
147 0.001989
153 0.002999
159 0.00499
161 0.002986
158 0.004022
159 0.003055
164 0.00295
169 0.002043
172 0.002042
177 0.002111
182 0.001019
185 0.00203
190 0.0
192 0.0
195 0.0
193 0.001996
158 0.002035
146 0.003019
150 0.003991
153 0.003992
156 0.003996
162 0.00401
162 0.003814
158 0.005983
161 0.005975
164 0.005983
168 0.006018
171 0.006017
173 0.005982
176 0.006982
179 0.006981
180 0.007971
182 0.003026
182 0.004023
185 0.001997
182 0.002008
159 0.002001
131 0.00201
134 0.0
137 0.0
140 0.0
145 0.000974
144 0.0
138 0.0
138 0.0
139 0.0
143 0.001996
159 0.001996
165 0.004996
170 0.006062
176 0.00799
179 0.007947
182 0.007939
183 0.006969
188 0.006983
148 0.004991
114 0.007015
111 0.004985
123 0.007011
140 0.004168
151 0.004991
147 0.004984
137 0.004008
141 0.003979
144 0.002046
155 0.002038
160 0.003124
166 0.002025
172 0.002049
178 0.0
183 0.002041
189 0.0
195 0.0
170 0.0
111 0.0
96 0.0
106 0.0
114 0.0
120 0.001996
130 0.002997
127 0.002992
121 0.002992
127 0.003995
135 0.005988
147 0.005988
153 0.005977
157 0.005984
163 0.005985
166 0.007008
169 0.003989
175 0.006015
180 0.006016
178 0.006018
114 0.006016
82 0.006016
77 0.006015
86 0.000991
89 0.003026
101 0.001995
101 0.002041
99 0.001995
104 0.002002
111 0.000967
122 0.0
135 0.0
137 0.0
145 0.000962
150 0.002027
154 0.0
157 0.003037
165 0.0
145 0.001029
85 0.002034
79 0.0
95 0.0
103 0.0
118 0.0
119 0.0
110 0.0
110 0.002029
115 0.002011
120 0.002011
133 0.002004
136 0.002026
146 0.002021
156 0.001995
159 0.002018
160 0.001987
107 0.003953
81 0.003989
81 0.005988
91 0.005989
99 0.005988
108 0.007968
112 0.007012
108 0.007014
108 0.007031
115 0.007015
127 0.00702
141 0.004988
147 0.007172
156 0.005952
163 0.007008
170 0.003981
174 0.002993
160 0.003007
95 0.001991
78 0.001003
84 0.002044
88 0.001999
96 0.002042
100 0.0
96 0.001996
90 0.0
97 0.000997
105 0.000968
109 0.000998
116 0.001998
120 0.002952
123 0.003988
131 0.00299
136 0.003002
139 0.003023
144 0.002983
87 0.004989
62 0.005984
62 0.005977
72 0.005995
82 0.005981
93 0.005978
92 0.005975
86 0.005984
88 0.005979
98 0.005968
110 0.005981
113 0.005987
123 0.00695
128 0.007941
133 0.006982
140 0.006016
147 0.001999
138 0.00398
80 0.001997
59 0.001995
66 0.001997
75 0.0
85 0.0
94 0.0
88 0.001008
85 0.000992
95 0.000997
104 0.000995
112 0.00101
123 0.000967
129 0.001023
137 0.000969
145 0.00195
150 0.001994
158 0.001994
166 0.001951
132 0.001986
76 0.002988
63 0.004987
67 0.006985
71 0.007954
83 0.004993
92 0.007975
90 0.005984
91 0.007999
95 0.004976
110 0.00502
119 0.002993
129 0.002011
138 0.0
145 0.0
152 0.0
156 0.001988
164 0.001009
173 0.0
182 0.0
184 0.0
121 0.000983
78 0.001995
78 0.00201
84 0.002993
87 0.002963
96 0.003992
97 0.004982
92 0.005016
92 0.005017
102 0.004751
109 0.006013
120 0.006938
129 0.005995
133 0.00502
140 0.004984
146 0.004988
153 0.004995
159 0.006963
169 0.00506
176 0.006976
163 0.004996
122 0.004991
87 0.004968
92 0.00498
108 0.004986
125 0.002992
128 0.004983
121 0.002989
120 0.004986
126 0.002999
138 0.001995
145 0.002006
152 0.002992
162 0.002001
166 0.002012
173 0.0
177 0.0
186 0.0
182 0.001991
126 0.0
90 0.001993
95 0.001992
102 0.001992
110 0.001993
120 0.003003
125 0.003001
121 0.001001
126 0.0
139 0.0
146 0.001984
154 0.001958
162 0.002018
168 0.001997
177 0.001985
189 0.001996
193 0.002994
204 0.002992
182 0.00296
136 0.004019
104 0.005953
115 0.005985
121 0.005992
126 0.007976
136 0.005981
140 0.007964
138 0.007949
140 0.007979
156 0.007948
162 0.003982
170 0.006017
180 0.003988
189 0.001997
195 0.002003
201 0.002003
209 0.0
211 0.000997
218 0.0
184 0.00201
144 0.002963
132 0.003992
151 0.003989
156 0.003993
167 0.004024
170 0.00499
163 0.004986
163 0.005975
170 0.006015
177 0.006019
187 0.007976
191 0.007962
199 0.00798
205 0.00397
208 0.007116
214 0.003983
217 0.005987
205 0.001993
145 0.001989
135 0.002002
152 0.001996
164 0.001996
169 0.001993
174 0.001994
166 0.001991
164 0.001993
174 0.002992
181 0.0
188 0.003001
194 0.002022
200 0.001993
204 0.001991
208 0.001995
216 0.001005
220 0.000999
223 0.002028
204 0.003024
137 0.003024
130 0.003992
147 0.004025
154 0.003966
159 0.004021
171 0.00296
166 0.005046
158 0.004987
163 0.005038
171 0.005046
182 0.004811
189 0.005024
194 0.00502
197 0.005037
200 0.00495
204 0.005035
210 0.004989
213 0.007017
220 0.00698
191 0.005972
110 0.006982
85 0.006029
98 0.007978
111 0.004989
120 0.005005
129 0.004977
119 0.004976
114 0.004998
114 0.004986
127 0.005025
132 0.003985
140 0.004985
148 0.006027
154 0.002031
155 0.003045
164 0.001994
169 0.001971
174 0.00099
164 0.0
91 0.0
52 0.0
65 0.0
82 0.000994
97 0.002045
102 0.001996
95 0.002043
85 0.001995
90 0.002028
104 0.002992
114 0.004022
123 0.004025
130 0.003824
137 0.003991
144 0.00395
147 0.005018
158 0.006037
164 0.007028
172 0.007926
144 0.007937
40 0.007972
24 0.007969
34 0.007015
40 0.004996
40 0.005007
52 0.001983
46 0.00298
38 0.002995
44 0.002987
53 0.000967
65 0.000949
72 0.0
75 0.001988
89 0.001029
91 0.002992
98 0.001002
105 0.002045
113 0.002074
120 0.000998
137 0.000997
94 0.002992
10 0.002995
0 0.004953
0 0.007016
3 0.007954
6 0.007945
13 0.004979
14 0.007018
7 0.004965
6 0.006982
24 0.004978
39 0.004971
44 0.004017
57 0.004971
67 0.003989
74 0.004989
87 0.004013
95 0.004993
108 0.004016
113 0.00396
76 0.004026
0 0.002994
2 0.00095
18 0.002023
38 0.0
52 0.0
49 0.0
39 0.00097
40 0.0
57 0.002006
75 0.001994
83 0.002031
94 0.00398
111 0.003976
117 0.004031
131 0.003957
144 0.003991
151 0.003946
148 0.004016
84 0.003991
13 0.00399
19 0.003989
33 0.003997
40 0.004034
56 0.003949
64 0.004033
58 0.005987
62 0.005995
75 0.005986
91 0.005002
103 0.006983
117 0.003028
129 0.004024
137 0.003989
147 0.004009
153 0.004021
164 0.003972
173 0.003043
137 0.003945
43 0.002977
28 0.0052
45 0.003945
53 0.004024
62 0.002999
75 0.002043
72 0.002039
67 0.001995
75 0.002993
97 0.0
106 0.002992
121 0.0
132 0.0
137 0.0
146 0.000998
153 0.000997
163 0.000998
170 0.000953
136 0.000997
60 0.000997
65 0.002991
80 0.002991
121 0.004986
143 0.005969
134 0.006973
121 0.006946
123 0.006928
140 0.006981
157 0.00698
167 0.006983
180 0.00698
187 0.006175
190 0.006018
190 0.003988
164 0.006011
95 0.003977
102 0.002996
124 0.003008
164 0.001978
185 0.003003
178 0.002989
170 0.002991
181 0.003024
204 0.000965
225 0.003033
239 0.0
243 0.001994
250 0.002961
227 0.003988
160 0.004997
118 0.008004
120 0.006019
122 0.00603
126 0.006016
125 0.003989
112 0.006024
87 0.003982
82 0.006017
94 0.004996
112 0.003026
110 0.0
115 0.0
112 0.0
33 0.000948
0 0.001965
0 0.002069
0 0.002045
0 0.001997
0 0.001995
7 0.001994
63 0.002008
63 0.001995
73 0.001959
87 0.001995
89 0.001996
98 0.002968
103 0.00302
103 0.003986
88 0.004958
66 0.004938
59 0.004954
67 0.006941
71 0.006978
84 0.00696
97 0.005986
100 0.00497
104 0.005002
113 0.006996
125 0.004982
132 0.006015
139 0.00299
145 0.004022
156 0.003986
160 0.003991
171 0.003026
180 0.0
186 0.001996
190 0.0
196 0.000999
200 0.000997
205 0.000998
211 0.000997
214 0.000998
207 0.000998
172 0.001994
151 0.00399
159 0.00296
161 0.002955
165 0.003
176 0.004992
178 0.006029
173 0.006979
176 0.007976
182 0.005118
187 0.007013
192 0.006992
196 0.006975
200 0.006017
202 0.006015
207 0.003996
213 0.002998
214 0.001994
215 0.002027
220 0.002991
222 0.001994
226 0.00196
227 0.001995
187 0.0
166 0.002003
173 0.000996
178 0.002034
180 0.001963
184 0.002002
190 0.001029
186 0.000959
186 0.002012
191 0.00195
196 0.004024
199 0.004024
201 0.004984
204 0.005983
206 0.007984
210 0.004989
210 0.004963
212 0.004998
214 0.003003
217 0.001994
216 0.0
219 0.000998
209 0.002028
173 0.001026
160 0.002007
169 0.0
175 0.003023
178 0.003027
183 0.000954
183 0.003002
180 0.0
181 0.000998
184 0.000997
188 0.002962
190 0.002993
194 0.005021
193 0.00692
197 0.00797
198 0.004984
199 0.004998
201 0.00402
255 0.003989
255 0.00399
255 0.00399
231 0.006982
168 0.00399
164 0.003983
186 0.003986
194 0.002993
203 0.002008
208 0.002161
201 0.001993
196 0.001003
201 0.002
209 0.0
216 0.0
221 0.001004
223 0.0
227 0.0
232 0.000997
234 0.001993
238 0.003977
238 0.004009
241 0.004989
243 0.004828
235 0.005016
153 0.005987
131 0.006981
144 0.006952
160 0.007014
163 0.005967
170 0.007013
171 0.00598
164 0.006981
164 0.007977
165 0.00798
178 0.007966
181 0.003987
184 0.005971
188 0.003992
191 0.005984
194 0.00396
194 0.002954
197 0.001965
201 0.0
203 0.001038
205 0.001011
177 0.0
97 0.0
88 0.0
110 0.0
122 0.001995
129 0.002995
133 0.001996
122 0.002034
111 0.001915
114 0.002994
121 0.002958
127 0.002992
133 0.002946
138 0.004021
141 0.003982
141 0.004981
142 0.005951
145 0.005992
147 0.005017
146 0.005985
77 0.005988
47 0.006937
48 0.005991
66 0.007975
77 0.002992
88 0.005017
80 0.003989
68 0.002974
63 0.002992
72 0.0
77 0.0
86 0.001954
91 0.00203
92 0.001991
96 0.001995
99 0.002
103 0.001999
108 0.001992
103 0.002997
21 0.003943
0 0.004954
0 0.006987
0 0.006985
2 0.005979
8 0.004985
0 0.003985
0 0.006967
0 0.004018
0 0.006982
0 0.004015
3 0.007016
12 0.00698
15 0.006952
21 0.006982
23 0.006982
32 0.005972
37 0.001998
23 0.003989
0 0.002994
0 0.0
0 0.0
0 0.001001
0 0.0
0 0.0
24 0.0
19 0.000998
21 0.000999
27 0.002998
30 0.002997
34 0.005025
39 0.003972
43 0.004963
46 0.005023
50 0.005911
54 0.005985
42 0.006015
8 0.006978
63 0.007015
65 0.004013
69 0.004002
72 0.003984
73 0.00403
71 0.004035
69 0.003965
71 0.003971
73 0.003985
77 0.002999
79 0.003034
82 0.002977
85 0.003991
87 0.002026
89 0.001994
87 0.002032
75 0.0
64 0.0
68 0.0
72 0.0
77 0.000997
80 0.0
78 0.002006
76 0.001973
79 0.001995
83 0.002
87 0.001995
89 0.001969
94 0.002045
97 0.002844
98 0.003959
98 0.003988
87 0.003949
73 0.004984
76 0.005945
80 0.006
84 0.007992
87 0.006982
86 0.006977
85 0.007947
87 0.004996
90 0.007026
94 0.004981
97 0.006981
101 0.004976
105 0.002979
107 0.002
111 0.001979
106 0.000994
93 0.001055
6 0.000999
12 0.0
16 0.0
21 0.0
32 0.0
33 0.002025
33 0.002026
36 0.0
48 0.001988
58 0.00399
67 0.004987
74 0.005983
84 0.005965
90 0.006986
99 0.006939
105 0.005984
107 0.006852
57 0.006949
37 0.007023
39 0.006938
47 0.006018
49 0.006015
60 0.005993
61 0.005987
59 0.005982
62 0.005983
68 0.004987
79 0.004942
87 0.006022
94 0.002996
100 0.005999
107 0.002973
111 0.003988
119 0.002021
123 0.004023
132 0.002028
134 0.003989
100 0.001995
59 0.00196
69 0.000965
74 0.000967
83 0.001979
89 0.000945
88 0.000983
83 0.001018
84 0.000998
92 0.000997
102 0.001004
107 0.001
113 0.002005
118 0.00203
125 0.002988
127 0.00401
135 0.004039
139 0.00399
101 0.005992
76 0.005975
75 0.007978
86 0.004993
93 0.006983
104 0.002016
102 0.002979
100 0.000957
103 0.001
114 0.001024
119 0.0
128 0.0
136 0.0
141 0.001992
146 0.002027
154 0.001995
156 0.002009
165 0.003026
147 0.003026
99 0.002993
76 0.002989
81 0.00395
85 0.003023
89 0.00299
95 0.002963
98 0.002933
95 0.005971
96 0.006018
105 0.005961
114 0.005992
121 0.005981
129 0.005951
132 0.005957
140 0.006009
147 0.007029
150 0.005122
159 0.007022
163 0.00497
130 0.007013
86 0.006981
88 0.007013
102 0.005987
108 0.002944
114 0.00402
112 0.002998
110 0.002009
113 0.001996
129 0.001996
141 0.0
149 0.0
160 0.0
165 0.000998
176 0.000963
183 0.002044
187 0.000997
198 0.003012
155 0.002996
118 0.003958
117 0.004987
135 0.004985
147 0.005984
156 0.005986
161 0.005977
154 0.005975
159 0.005982
168 0.005982
181 0.006013
188 0.006953
197 0.007985
205 0.004972
215 0.003028
218 0.001998
224 0.002972
231 0.003014
217 0.002997
143 0.002999
127 0.002991
138 0.003012
148 0.002993
151 0.002992
161 0.003011
163 0.002994
156 0.003023
162 0.000967
170 0.002994
178 0.000998
188 0.0
190 0.0
197 0.0
198 0.0
205 0.000997
210 0.0
216 0.000998
181 0.001054
120 0.000997
114 0.000998
134 0.001989
139 0.003955
147 0.003947
149 0.005984
140 0.007976
138 0.004991
146 0.00699
153 0.004991
163 0.007976
167 0.00797
174 0.007974
177 0.007989
181 0.003976
186 0.005142
191 0.002957
165 0.006017
106 0.003002
109 0.002988
119 0.002997
135 0.002959
141 0.001985
137 0.002003
130 0.002994
132 0.002991
142 0.002982
150 0.005234
155 0.001989
160 0.004987
166 0.003006
172 0.004954
176 0.005018
181 0.005
165 0.002995
89 0.002009
73 0.0
82 0.0
87 0.0
94 0.00095
99 0.0
98 0.000966
93 0.0
94 0.0
105 0.0
113 0.002959
117 0.0
125 0.00299
131 0.003024
132 0.000997
138 0.0
141 0.0
116 0.0
58 0.0
41 0.0
48 0.001982
56 0.002992
62 0.00402
69 0.004982
60 0.004976
60 0.005003
68 0.004989
79 0.005983
81 0.005984
90 0.004991
93 0.00498
102 0.004987
106 0.004974
111 0.00493
120 0.003991
105 0.00499
48 0.002996
27 0.005018
37 0.001994
49 0.004976
60 0.004989
63 0.004991
58 0.005027
57 0.002993
65 0.003959
76 0.0
87 0.0
91 0.00102
100 0.000995
107 0.001016
113 0.000998
122 0.001029
104 0.001997
44 0.001996
40 0.002
52 0.002027
65 0.002997
79 0.00303
78 0.003946
71 0.003941
77 0.005002
86 0.005031
101 0.005022
108 0.003947
118 0.00502
125 0.00502
135 0.003992
146 0.004987
151 0.006979
133 0.005992
67 0.004994
56 0.003993
68 0.003991
72 0.004002
76 0.003987
87 0.003986
84 0.004023
83 0.003993
94 0.005981
105 0.00417
113 0.005974
124 0.003983
131 0.004987
141 0.004018
147 0.004011
156 0.002991
166 0.0
160 0.002994
91 0.0
75 0.0
81 0.0
88 0.0
99 0.001996
107 0.003
105 0.002962
102 0.004987
107 0.004987
120 0.005025
126 0.004995
135 0.004954
140 0.004952
148 0.004942
153 0.004985
160 0.006017
164 0.006981
168 0.007013
176 0.004944
160 0.006982
89 0.003959
83 0.006993
99 0.002027
106 0.003008
112 0.002984
118 0.0
112 0.0
110 0.0
119 0.0
131 0.0
137 0.001048
144 0.000964
149 0.003982
153 0.004987
159 0.006982
166 0.00699
170 0.005983
170 0.006982
111 0.006021
95 0.000961
105 0.002991
120 0.0
134 0.000962
139 0.002036
127 0.001995
127 0.002056
133 0.002993
144 0.004989
154 0.005991
160 0.005998
166 0.004985
173 0.004988
173 0.004986
182 0.004984
187 0.004979
180 0.004992
123 0.007974
91 0.007972
97 0.007015
104 0.003982
105 0.005127
119 0.00299
117 0.0
113 0.0
116 0.001981
123 0.0
135 0.0
142 0.000985
147 0.0
153 0.0
156 0.0
164 0.000967
167 0.00304
176 0.0
181 0.002033
160 0.0
111 0.002012
77 0.002992
86 0.005
91 0.004987
94 0.00404
104 0.004991
105 0.005034
97 0.004026
100 0.004982
111 0.006016
119 0.005983
122 0.008009
131 0.005966
136 0.005971
139 0.004985
145 0.002968
152 0.003993
157 0.001974
165 0.002942
171 0.002039
127 0.00095
74 0.005027
72 0.002004
88 0.005018
98 0.004021
109 0.003025
110 0.004031
99 0.0
100 0.000965
109 0.000998
116 0.000997
127 0.000965
136 0.001815
140 0.000997
148 0.002036
153 0.002992
156 0.003003
163 0.003041
157 0.003991
113 0.004954
74 0.004984
83 0.004987
101 0.004847
111 0.006006
121 0.005972
114 0.006016
110 0.007976
112 0.007971
126 0.007977
133 0.007955
146 0.006014
154 0.003024
163 0.0
168 0.0
175 0.0
182 0.001993
188 0.0
177 0.002061
94 0.001028
71 0.002034
80 0.002014
86 0.002026
90 0.003029
101 0.004006
100 0.003991
96 0.003956
99 0.003961
111 0.004987
120 0.004995
129 0.005983
139 0.006982
143 0.006987
149 0.006994
156 0.007014
162 0.003999
169 0.006987
178 0.003034
141 0.002994
86 0.0
57 0.0
69 0.003034
73 0.0
83 0.00295
89 0.0
84 0.003037
79 0.002036
84 0.002025
96 0.0
106 0.000997
115 0.000135
121 0.000967
130 0.000998
137 0.000999
144 0.000998
149 0.000997
160 0.000997
137 0.001001
88 0.000992
56 0.000998
66 0.001996
87 0.002013
104 0.003961
112 0.003986
100 0.004987
98 0.005947
102 0.00594
118 0.006977
131 0.006977
140 0.006011
150 0.00703
158 0.005978
166 0.007978
172 0.007973
177 0.007977
108 0.007812
62 0.003968
59 0.006982
75 0.002994
82 0.005965
96 0.003981
96 0.003
90 0.003007
93 0.003017
108 0.001045
119 0.002028
130 0.0
145 0.002077
155 0.0
163 0.003018
171 0.0
179 0.0
187 0.000997
182 0.002025
108 0.000996
54 0.001012
59 0.000997
68 0.001049
72 0.001918
88 0.000997
90 0.001003
84 0.002019
89 0.002001
101 0.002019
113 0.00203
130 0.003003
139 0.003948
151 0.005018
155 0.00596
160 0.006016
170 0.004987
176 0.007017
187 0.003983
178 0.005999
83 0.004987
51 0.004975
55 0.003026
67 0.001021
73 0.001994
85 0.000998
81 0.0
77 0.0
86 0.000965
96 0.0
114 0.0
127 0.0
137 0.0
148 0.0
154 0.000998
161 0.001997
175 0.000998
180 0.001995
143 0.002014
73 0.002995
69 0.004019
89 0.004021
110 0.004006
126 0.003994
124 0.003992
114 0.003896
114 0.00399
133 0.004014
144 0.003969
163 0.004041
176 0.003959
185 0.003988
195 0.003991
201 0.003959
198 0.003951
118 0.003861
79 0.003989
79 0.00501
95 0.005991
109 0.005982
124 0.006988
123 0.006973
113 0.006983
123 0.00698
135 0.006984
151 0.007015
164 0.006975
174 0.00798
185 0.004969
191 0.007972
203 0.005988
211 0.004986
190 0.004986
89 0.004984
62 0.002997
68 0.003002
73 0.002988
81 0.003018
97 0.002992
98 0.003002
98 0.003017
106 0.00399
126 0.002995
137 0.002994
155 0.003035
166 0.003038
179 0.003026
190 0.001001
197 0.003025
209 0.000954
210 0.0
171 0.0
88 0.000998
78 0.00204
92 0.002009
102 0.002995
112 0.003985
125 0.003957
123 0.005975
128 0.005986
144 0.005986
159 0.006024
176 0.005987
185 0.007015
193 0.005984
208 0.007012
221 0.007048
227 0.007011
240 0.006983
248 0.00698
226 0.007976
163 0.003981
139 0.006979
157 0.004034
174 0.003989
187 0.004021
194 0.003956
190 0.003988
191 0.003988
204 0.003979
216 0.003991
157 0.005002
236 0.006978
243 0.00399
250 0.00402
255 0.002993
255 0.002028
255 0.002993
236 0.0
186 0.002992
162 0.0
171 0.002997
182 0.0
199 0.0
204 0.0
196 0.000986
192 8.6e-05
201 0.000997
214 0.000996
221 0.000992
232 0.000997
239 0.002001
191 0.000964
194 0.000964
197 0.002
200 0.002996
204 0.002989
207 0.003999
185 0.002992
141 0.004011
136 0.002993
142 0.002992
143 0.00404
146 0.005024
151 0.00399
148 0.003955
145 0.004987
147 0.005021
153 0.005023
156 0.004984
158 0.004989
162 0.004985
165 0.005988
166 0.005984
169 0.005987
172 0.007979
173 0.004982
176 0.007973
180 0.004
162 0.006981
116 0.006981
110 0.006985
121 0.00698
124 0.006974
129 0.006981
131 0.003986
127 0.006998
125 0.002966
130 0.003001
133 0.002992
138 0.002946
142 0.0
144 0.0
147 0.0
151 0.0
152 0.002014
155 0.002012
161 0.003032
152 0.003875
111 0.004994
105 0.006979
112 0.005965
121 0.006013
131 0.005984
132 0.006014
125 0.006019
124 0.002998
127 0.002051
134 0.002973
139 0.003004
144 0.001971
149 0.002031
151 0.0
154 0.001004
157 0.0
161 0.0
165 0.0
143 0.0
112 0.0
99 0.002992
107 0.004991
109 0.00502
111 0.007979
117 0.006937
116 0.004986
112 0.002997
115 0.0
118 0.002993
124 0.000962
129 0.0
132 0.001007
136 0.0
138 0.0
143 0.000948
145 0.0
147 0.0
153 0.000978
135 0.003026
95 0.000982
81 0.001996
89 0.000944
92 0.002037
94 0.003989
96 0.003988
94 0.003988
90 0.004987
90 0.004986
96 0.004987
101 0.00602
103 0.005985
96 0.006026
100 0.00598
106 0.006963
110 0.004971
113 0.007957
121 0.003991
102 0.002051
64 0.00299
35 0.003017
46 0.005984
59 0.002991
69 0.005985
72 0.004023
64 0.004022
59 0.00399
66 0.002977
76 0.003991
88 0.001974
94 0.002993
103 0.000947
109 0.0
113 0.000948
118 0.000949
93 0.000968
31 0.000952
26 0.000999
36 0.001006
48 0.0
53 0.0
58 0.0
52 0.00399
51 0.002053
61 0.000997
74 0.003019
81 0.004955
90 0.004986
99 0.004998
105 0.004987
113 0.007021
118 0.004944
91 0.004947
23 0.004989
13 0.004987
21 0.007966
24 0.00402
28 0.006031
40 0.002006
37 0.0
35 0.0
44 0.0
57 0.000995
66 0.001986
77 0.0
84 0.002031
91 0.0
100 0.003022
105 0.000992
109 0.004025
64 0.0
20 0.000972
19 0.001987
31 0.000998
35 0.000997
51 0.002026
53 0.002007
51 0.001027
56 0.000999
66 0.000955
80 0.001988
92 0.003995
101 0.003999
111 0.003967
115 0.003982
124 0.005009
136 0.004985
135 0.005986
75 0.004988
64 0.006937
74 0.006985
87 0.007977
107 0.007974
111 0.007977
107 0.007979
105 0.007977
115 0.007979
125 0.004989
139 0.007978
145 0.003004
152 0.007948
162 0.004983
168 0.003983
172 0.004027
155 0.004991
117 0.004987
92 0.004031
105 0.00402
112 0.005023
126 0.002964
130 0.005986
125 0.002968
125 0.004022
135 0.004987
143 0.004035
155 0.005056
159 0.005032
168 0.002993
175 0.0
177 0.000998
186 0.001005
183 0.000962
145 0.0
96 0.000992
97 0.0
107 0.000963
108 0.003032
117 0.002953
123 0.002997
119 0.0
117 0.001009
128 0.002998
137 0.002992
145 0.000998
149 0.000998
157 0.0
162 0.001986
168 0.002993
171 0.004049
178 0.004017
180 0.002989
165 0.003992
111 0.004936
93 0.007978
103 0.003985
111 0.004032
115 0.003969
123 0.004963
118 0.002951
117 0.002942
123 0.003008
132 0.004992
141 0.00299
147 0.005024
151 0.004001
156 0.006018
163 0.004929
166 0.004946
183 0.00503
192 0.005016
162 0.002991
103 0.0
104 0.003018
126 0.0
147 0.0
157 0.0
151 0.0
147 0.0
149 0.001997
164 0.002027
175 0.001992
184 0.002007
194 0.003023
196 0.00399
202 0.003989
206 0.004987
210 0.004985
216 0.004954
152 0.004985
114 0.004977
116 0.005018
128 0.00502
138 0.005984
153 0.006013
155 0.007011
148 0.005985
147 0.006047
156 0.005953
169 0.003995
178 0.003999
184 0.002991
192 0.00299
197 0.00298
201 0.001967
204 0.004044
211 0.000984
215 0.002987
151 0.003026
106 0.003025
101 0.002976
112 0.00298
122 0.003025
134 0.000987
137 0.003022
133 0.0
130 0.000997
134 0.000998
146 0.001997
156 0.002058
163 0.001995
169 0.001985
173 0.003038
180 0.003946
185 0.003958
187 0.003962
196 0.004983
158 0.005929
107 0.004927
88 0.005057
111 0.00399
124 0.004037
141 0.003131
141 0.0
131 0.003023
125 0.001005
137 0.000997
144 0.0
155 0.000991
161 0.0
167 0.000945
172 0.000955
173 0.000997
179 0.000948
185 0.000998
154 0.000997
79 0.000993
75 0.001008
96 0.002064
113 0.002995
119 0.002963
120 0.00399
109 0.003989
104 0.004949
114 0.003989
127 0.005017
132 0.005021
139 0.00497
146 0.004987
153 0.005018
158 0.00599
163 0.006983
171 0.005986
148 0.004023
90 0.002963
41 0.00497
55 0.00297
