137 0.007983
146 0.007026
157 0.006956
162 0.007025
172 0.006988
178 0.007962
185 0.007947
190 0.007948
195 0.007945
194 0.007967
177 0.007985
92 0.007072
74 0.00694
72 0.006981
78 0.006974
87 0.006994
98 0.006976
108 0.006981
116 0.006939
118 0.006988
120 0.007978
123 0.007937
127 0.007977
142 0.006981
150 0.007017
160 0.006981
169 0.006981
175 0.007944
182 0.007941
188 0.006969
193 0.006981
199 0.006968
202 0.00696
186 0.006947
137 0.00698
74 0.007026
61 0.007024
59 0.007012
64 0.007014
71 0.006977
80 0.007026
89 0.007013
96 0.007979
100 0.006981
103 0.005984
108 0.00603
114 0.00603
128 0.006993
137 0.006029
145 0.006775
155 0.006023
163 0.005986
170 0.005984
176 0.005983
182 0.006026
188 0.006073
187 0.006024
155 0.006984
103 0.007013
57 0.007044
51 0.005987
53 0.005984
62 0.00602
70 0.006982
81 0.006981
90 0.005983
94 0.005984
98 0.005984
102 0.005954
107 0.006005
120 0.005986
129 0.006031
137 0.004985
146 0.005976
156 0.005034
163 0.006981
169 0.005992
175 0.005944
180 0.005998
181 0.005984
151 0.005949
103 0.006019
60 0.005979
56 0.005983
61 0.004984
70 0.005984
84 0.005983
93 0.004987
98 0.005984
99 0.005972
100 0.00495
103 0.00502
108 0.005026
115 0.005034
129 0.005026
137 0.004986
146 0.00503
153 0.005037
162 0.006019
167 0.006027
172 0.005986
169 0.006027
134 0.006012
74 0.004987
48 0.004975
40 0.004987
45 0.004992
52 0.005015
61 0.005026
71 0.005027
79 0.005975
82 0.004988
85 0.004021
89 0.00603
95 0.005984
106 0.004958
115 0.005037
124 0.005031
138 0.005033
145 0.004989
152 0.005028
157 0.005156
164 0.00503
165 0.005036
139 0.004986
88 0.005018
51 0.005037
29 0.00402
27 0.00399
31 0.003989
42 0.004008
53 0.005036
61 0.00502
67 0.005048
71 0.00414
77 0.003962
84 0.003958
92 0.004956
101 0.004999
110 0.004978
123 0.004986
131 0.003989
144 0.003991
150 0.003987
155 0.003989
161 0.003991
163 0.004039
122 0.003989
76 0.003989
47 0.00399
37 0.00403
38 0.00399
45 0.005025
53 0.004952
70 0.004995
75 0.004025
78 0.004038
80 0.003989
84 0.004035
93 0.00399
101 0.00399
110 0.003989
119 0.003978
127 0.004034
138 0.004028
144 0.00399
152 0.00399
157 0.00399
153 0.00299
117 0.002992
73 0.002992
42 0.002961
37 0.002962
40 0.003963
46 0.00399
55 0.00399
69 0.00399
77 0.004023
81 0.003991
85 0.003991
90 0.002959
97 0.00399
106 0.00296
118 0.004015
126 0.002993
134 0.002996
142 0.003019
149 0.003025
156 0.002992
163 0.002991
166 0.004032
140 0.002987
90 0.003952
53 0.002995
34 0.004021
27 0.003998
28 0.003007
32 0.002992
40 0.002992
50 0.002968
60 0.002959
67 0.002961
73 0.003023
80 0.002993
88 0.002991
98 0.00299
107 0.002997
119 0.002993
128 0.002993
135 0.003024
142 0.003025
148 0.002994
155 0.002985
162 0.003026
136 0.002991
87 0.002995
52 0.002025
35 0.002993
30 0.002993
33 0.001995
38 0.001995
47 0.002993
58 0.002985
67 0.002992
72 0.003003
80 0.003006
87 0.002994
98 0.001989
108 0.002025
118 0.002981
127 0.002032
136 0.001962
146 0.001998
153 0.002003
159 0.003006
165 0.002991
170 0.003021
178 0.001993
159 0.002008
98 0.002992
67 0.002002
54 0.002992
53 0.001997
58 0.002015
67 0.001946
76 0.001994
85 0.002046
90 0.002993
93 0.001995
99 0.001995
105 0.002026
116 0.001995
125 0.000958
134 0.00096
142 0.000987
150 0.001993
159 0.002043
165 0.001991
169 0.00197
174 0.002034
179 0.001995
141 0.001995
96 0.001994
61 0.002032
55 0.002048
56 0.002055
62 0.002029
69 0.001996
82 0.002003
90 0.000997
95 0.001009
98 0.000998
102 0.000997
113 0.001032
121 0.001985
134 0.001976
142 0.001
151 0.000997
159 0.001985
166 0.001995
175 0.000969
180 0.001001
184 0.001011
188 0.001968
187 0.001965
118 0.000996
75 0.001003
50 0.001041
46 0.000997
47 0.000997
51 0.001034
58 0.000998
72 0.000997
80 0.000998
86 0.000997
90 0.000998
100 0.000997
108 0.000955
118 0.000998
131 0.000965
140 0.000996
148 0.000997
156 0.001034
163 0.001017
172 0.000998
176 0.000998
181 0.000968
186 0.0
161 0.0
110 0.0
72 0.0
54 0.0
49 0.000998
51 0.001003
55 0.001032
64 0.001002
74 0.000998
84 0.000966
89 0.0
93 0.0
103 0.0
112 0.0
122 0.000962
131 0.000997
144 0.0
153 0.000963
160 0.0
167 0.0
174 0.0
180 0.000997
185 0.000964
188 0.000961
135 0.0
90 0.0
66 0.0
59 0.0
63 0.0
68 0.0
77 0.0
87 0.0
96 0.0
102 0.0
106 0.0
110 0.0
122 0.001012
134 0.0
140 0.0
150 0.0
161 0.0
169 0.0
175 0.0
180 0.0
185 0.0
192 0.0
195 0.0
183 0.0
108 0.001003
76 0.001003
72 0.000998
74 0.000997
84 0.000998
94 0.00103
105 0.0
113 0.0
116 0.0
116 0.0
119 0.0
124 0.0
136 0.001001
147 0.0
155 0.000963
163 0.0
169 0.000948
175 0.001014
182 0.0
187 0.0
185 0.0
153 0.000997
108 0.000999
78 0.0
75 0.000998
84 0.0
93 0.001036
103 0.001048
111 0.001036
113 0.000998
112 0.0
114 0.001002
117 0.000998
122 0.001995
129 0.001996
136 0.000998
148 0.000987
155 0.000998
162 0.000998
169 0.0
174 0.000998
176 0.00203
152 0.001013
90 0.001049
61 0.000998
50 0.000998
50 0.001997
57 0.001003
66 0.002031
76 0.002027
86 0.001033
88 0.000998
92 0.000985
97 0.002045
103 0.001996
113 0.0
122 0.000981
131 0.001016
140 0.001966
152 0.001007
159 0.001947
163 0.001994
171 0.001016
174 0.000998
149 0.002047
102 0.00295
68 0.003024
51 0.002036
47 0.002027
49 0.00204
56 0.001995
68 0.002029
79 0.001985
85 0.001984
90 0.000997
94 0.000979
101 0.001006
109 0.003028
118 0.003041
130 0.001987
139 0.001001
146 0.001989
153 0.002939
163 0.001994
167 0.002993
173 0.002993
174 0.000953
144 0.000947
114 0.002033
73 0.002994
61 0.002024
62 0.001039
68 0.001036
76 0.001033
85 0.001985
95 0.001994
98 0.002991
100 0.003029
105 0.002032
112 0.002955
120 0.002029
128 0.002029
136 0.00304
144 0.002037
151 0.001995
157 0.002031
163 0.002035
171 0.002002
172 0.002994
149 0.002993
95 0.001966
71 0.001979
62 0.002032
63 0.002992
67 0.004022
77 0.002026
83 0.003016
92 0.002027
96 0.00303
100 0.00199
104 0.002996
110 0.003028
121 0.002994
130 0.002991
139 0.003024
147 0.00399
154 0.00402
161 0.004024
168 0.003028
173 0.003022
179 0.003024
178 0.003045
130 0.001996
91 0.002881
68 0.003991
58 0.003037
58 0.002992
61 0.002998
67 0.003996
76 0.004036
86 0.003026
91 0.003036
94 0.003027
103 0.003046
110 0.003034
119 0.004034
129 0.004039
138 0.003991
146 0.003962
157 0.003004
164 0.004031
170 0.004022
177 0.003025
182 0.002989
187 0.002993
160 0.002992
115 0.003032
86 0.003994
71 0.003991
68 0.002974
70 0.002993
75 0.00297
83 0.00399
93 0.00402
102 0.002992
106 0.003016
113 0.003989
120 0.003992
128 0.003973
138 0.004023
147 0.004031
155 0.003991
163 0.004016
172 0.002993
178 0.004032
184 0.003989
191 0.003034
196 0.003023
202 0.003996
181 0.003993
139 0.003991
107 0.004989
92 0.005026
89 0.003991
93 0.004039
99 0.005038
107 0.005022
115 0.004032
120 0.004028
123 0.003027
127 0.003983
132 0.003979
139 0.003978
147 0.005021
155 0.005021
163 0.004988
170 0.004995
176 0.00501
183 0.004989
187 0.005017
193 0.004019
196 0.004022
153 0.003991
115 0.004029
92 0.004023
84 0.004991
84 0.004986
90 0.004988
98 0.004987
108 0.005013
114 0.005014
117 0.005994
119 0.00502
124 0.004986
131 0.005033
139 0.005025
147 0.005033
158 0.006018
165 0.005986
172 0.005984
180 0.00399
185 0.005011
190 0.005047
194 0.006016
198 0.006016
188 0.005017
131 0.005988
88 0.00499
78 0.004988
72 0.005956
73 0.005983
77 0.006016
87 0.00495
96 0.004948
102 0.005022
106 0.006015
110 0.00602
117 0.005017
126 0.005985
137 0.005016
145 0.004995
154 0.005995
161 0.00602
167 0.006011
174 0.00597
179 0.005994
184 0.005983
188 0.005984
193 0.005986
172 0.004981
114 0.005986
85 0.005987
72 0.006023
70 0.006137
74 0.006983
80 0.007024
92 0.005976
101 0.005984
106 0.006024
109 0.006982
113 0.006982
120 0.006015
130 0.006941
139 0.005949
147 0.007013
155 0.006982
165 0.00602
171 0.005984
179 0.005959
184 0.005994
188 0.005987
193 0.007013
197 0.007011
154 0.006983
113 0.006988
85 0.006044
82 0.006016
86 0.006032
92 0.00698
100 0.006988
112 0.005993
116 0.006018
118 0.005979
119 0.006981
121 0.006992
130 0.006982
137 0.007035
147 0.006024
155 0.006004
161 0.00599
168 0.007018
172 0.007979
177 0.006984
181 0.007012
185 0.005968
178 0.007978
141 0.007979
83 0.007977
71 0.00798
71 0.006973
74 0.006974
80 0.007015
92 0.006982
99 0.006981
103 0.007944
105 0.006982
108 0.007009
113 0.007013
119 0.007979
133 0.006984
141 0.00798
151 0.007007
158 0.006955
164 0.007009
167 0.007022
173 0.007011
179 0.007988
180 0.006982
156 0.006983
110 0.00699
66 0.007973
51 0.006981
51 0.007979
54 0.007979
61 0.007009
73 0.007018
79 0.007046
84 0.007979
88 0.007979
94 0.006983
99 0.006999
107 0.007013
116 0.007979
131 0.006927
138 0.007979
147 0.007989
153 0.006952
159 0.007022
165 0.007019
170 0.006968
171 0.007009
129 0.00702
86 0.00698
66 0.007947
50 0.007934
47 0.00698
52 0.007015
57 0.007979
71 0.006984
81 0.007011
86 0.00702
90 0.007018
94 0.00702
104 0.006971
112 0.007011
121 0.007021
130 0.007013
141 0.00798
151 0.006979
155 0.007944
164 0.007015
167 0.007013
174 0.006983
178 0.007013
166 0.00702
110 0.007011
77 0.007013
62 0.007019
61 0.007013
68 0.007014
76 0.005983
86 0.006978
95 0.007956
98 0.00703
100 0.007013
103 0.006981
108 0.006991
118 0.006995
127 0.007012
136 0.006987
143 0.006958
154 0.005983
159 0.005982
163 0.005954
169 0.006017
174 0.006022
169 0.006017
135 0.006022
93 0.007018
61 0.006983
56 0.006997
59 0.007003
68 0.006988
78 0.006016
87 0.005978
92 0.005992
95 0.00602
99 0.006017
104 0.006017
112 0.006018
121 0.006004
130 0.006031
142 0.005987
149 0.00602
160 0.005971
165 0.00698
170 0.005977
174 0.006016
179 0.006029
171 0.005984
130 0.005983
87 0.006023
61 0.006019
51 0.005983
51 0.005977
54 0.006018
67 0.005978
77 0.006038
85 0.005016
90 0.005983
93 0.006043
101 0.006006
109 0.006021
117 0.006012
126 0.005989
135 0.005973
146 0.004984
153 0.005021
164 0.004989
170 0.005016
175 0.004981
180 0.005025
185 0.005026
180 0.005005
140 0.004992
93 0.00599
65 0.005984
53 0.005993
51 0.00598
55 0.005966
67 0.005015
78 0.005021
86 0.004992
91 0.005016
95 0.005029
103 0.004993
111 0.005022
119 0.005028
129 0.005023
139 0.005007
151 0.004998
158 0.00502
169 0.004985
176 0.005019
180 0.005057
185 0.004949
190 0.005024
188 0.004988
150 0.005022
104 0.00502
77 0.004979
67 0.00502
70 0.005033
76 0.005043
91 0.003978
100 0.004025
106 0.003988
108 0.004046
111 0.003975
116 0.005034
123 0.004027
132 0.004022
140 0.003988
149 0.004027
160 0.005016
167 0.004977
175 0.005019
180 0.003998
185 0.005033
190 0.005022
186 0.00401
151 0.004014
95 0.004023
75 0.003972
70 0.00402
74 0.003988
81 0.00399
94 0.004022
107 0.004027
113 0.004032
115 0.004001
118 0.004004
123 0.004022
130 0.003996
141 0.004026
150 0.003991
158 0.004024
166 0.004016
173 0.00399
183 0.004023
188 0.00299
193 0.003953
198 0.00399
197 0.004007
166 0.003021
113 0.002993
70 0.004022
59 0.003947
60 0.003034
64 0.003025
70 0.002992
86 0.004024
94 0.004016
99 0.004054
102 0.004024
107 0.00399
112 0.004023
121 0.004037
133 0.004019
141 0.003939
149 0.002996
156 0.002946
163 0.002993
174 0.002963
179 0.003022
186 0.004023
188 0.002991
162 0.003018
112 0.002975
75 0.003026
57 0.003024
58 0.001966
64 0.003991
71 0.003024
81 0.002995
94 0.003035
97 0.003037
100 0.002992
104 0.003023
110 0.00303
118 0.001951
127 0.002992
139 0.002028
147 0.002987
155 0.001997
161 0.002026
166 0.001983
173 0.002988
177 0.002042
147 0.003039
103 0.003029
74 0.002958
64 0.003027
65 0.002966
77 0.003008
88 0.002029
98 0.002977
105 0.002993
106 0.002028
106 0.002026
109 0.001989
115 0.001978
125 0.002026
133 0.002026
141 0.002991
148 0.003002
155 0.002999
162 0.001012
166 0.003055
171 0.002992
162 0.001994
91 0.002003
60 0.001995
47 0.001966
48 0.001994
54 0.002024
63 0.002026
73 0.001996
81 0.002057
86 0.002055
88 0.00101
91 0.002031
96 0.001056
109 0.001006
118 0.001985
126 0.001969
137 0.00196
144 0.001996
150 0.001995
155 0.002007
160 0.000986
142 0.001975
95 0.001006
55 0.00204
33 0.000998
27 0.00103
30 0.000975
35 0.000996
48 0.000954
58 0.000954
64 0.000994
68 0.000996
72 0.000998
80 0.002037
89 0.00103
98 0.001994
108 0.001992
122 0.001995
129 0.000954
136 0.000989
143 0.000983
149 0.001036
152 0.00101
133 0.000995
87 0.00104
43 0.000995
30 0.000992
29 0.000961
35 0.000998
43 0.000999
54 0.001026
64 0.00201
72 0.0
75 0.000999
81 0.000996
88 0.0
97 0.0
110 0.000966
119 0.0
127 0.0
140 0.001013
146 0.0
152 0.000998
156 0.000992
163 0.00105
168 0.001032
151 0.001002
107 0.0
71 0.000998
51 0.001001
51 0.001999
55 0.0
67 0.000998
78 0.0
85 0.0
89 0.001013
92 0.0
96 0.0
103 0.0
111 0.001003
120 0.0
129 0.0
139 0.001
145 0.0
154 0.000998
158 0.0
162 0.0
168 0.0
167 0.0
123 0.0
85 0.0
65 0.0
60 0.0
62 0.0
69 0.0
78 0.001048
93 0.000997
97 0.001014
99 0.0
102 0.0
108 0.0
118 0.0
127 0.0
136 0.0
146 0.0
151 0.000995
159 0.0
164 0.001
172 0.0
176 0.0
180 0.000984
150 0.000984
120 0.000998
76 0.000972
61 0.001013
58 0.0
60 0.000991
63 0.0
75 0.001029
85 0.001995
96 0.000998
99 0.0
106 0.000988
111 0.0
120 0.0
132 0.000995
141 0.000999
152 0.000967
159 0.000963
165 0.000967
171 0.000994
176 0.001002
184 0.000998
189 0.002029
187 0.00097
150 0.0
119 0.000997
78 0.001031
66 0.001002
64 0.000993
66 0.0
71 0.0
80 0.000999
91 0.002031
101 0.001006
105 0.001024
112 0.0
120 0.0
129 0.0
138 0.001995
147 0.001993
158 0.000965
163 0.000998
172 0.000995
178 0.001033
184 0.001031
193 0.00101
198 0.002
204 0.001054
192 0.000952
148 0.0
108 0.001955
86 0.001964
80 0.0
82 0.0
86 0.0
94 0.001995
110 0.000996
116 0.001048
119 0.002054
122 0.001998
129 0.000995
136 0.000991
145 0.001024
154 0.001981
162 0.001963
171 0.000945
177 0.000998
183 0.001996
191 0.000998
195 0.0
200 0.001972
204 0.002042
183 0.000998
139 0.000998
106 0.000998
92 0.00201
91 0.002031
98 0.000998
105 0.000989
116 0.000959
128 0.000992
131 0.000984
133 0.001996
137 0.001997
144 0.001007
152 0.00096
160 0.000998
169 0.002027
176 0.003033
185 0.000997
192 0.002032
197 0.001006
204 0.001997
208 0.00104
212 0.001994
210 0.001998
158 0.001024
114 0.001007
90 0.002026
82 0.003035
82 0.002993
88 0.002
95 0.001024
105 0.001995
117 0.002027
120 0.001995
123 0.002993
128 0.003023
137 0.000966
145 0.001033
154 0.001042
163 0.002022
170 0.00204
180 0.002039
187 0.001021
192 0.002033
200 0.002038
205 0.00205
210 0.003015
202 0.004032
143 0.001997
104 0.002
84 0.001981
79 0.001989
82 0.003962
89 0.001995
98 0.003028
108 0.00103
119 0.002029
122 0.002047
126 0.002995
131 0.003991
141 0.001989
149 0.001981
158 0.001965
166 0.003028
174 0.003031
183 0.002029
190 0.002033
195 0.002993
203 0.002036
207 0.003049
211 0.004024
199 0.00399
139 0.001989
103 0.001984
88 0.001996
87 0.00399
92 0.003024
100 0.003992
114 0.002992
122 0.002987
128 0.003
129 0.00304
131 0.003017
135 0.004034
142 0.004023
152 0.003027
160 0.001987
168 0.002028
175 0.004951
182 0.005019
189 0.001994
194 0.002992
199 0.003
201 0.002979
178 0.002997
131 0.00399
95 0.003957
78 0.003036
80 0.002994
86 0.003025
94 0.005048
105 0.005022
115 0.003949
119 0.003984
121 0.003018
125 0.004032
130 0.003983
138 0.004956
146 0.003992
157 0.003028
164 0.002993
171 0.003012
178 0.00399
184 0.005023
190 0.002981
195 0.004026
196 0.004023
166 0.004036
113 0.004024
75 0.004987
58 0.004989
55 0.004032
59 0.002984
65 0.003049
73 0.005022
83 0.004022
91 0.003988
95 0.005025
99 0.004038
106 0.004056
113 0.004037
122 0.004988
131 0.005024
142 0.00399
150 0.005032
156 0.004023
162 0.005024
168 0.004987
174 0.003967
179 0.003989
144 0.003997
93 0.003976
60 0.003959
46 0.004994
45 0.005019
52 0.003954
59 0.003989
69 0.003998
79 0.004992
85 0.005981
89 0.005018
94 0.005984
103 0.005018
111 0.003969
120 0.003991
130 0.004989
138 0.005985
148 0.00399
154 0.004002
160 0.003982
164 0.005987
169 0.005999
172 0.004956
129 0.005993
85 0.005994
56 0.005015
54 0.005029
60 0.00502
67 0.005965
77 0.006028
90 0.004031
95 0.004989
97 0.004967
99 0.00601
103 0.005985
113 0.005995
122 0.005984
134 0.005014
142 0.005019
150 0.006018
157 0.005985
163 0.006027
169 0.005983
174 0.005995
172 0.006017
139 0.006039
91 0.005985
48 0.006023
45 0.005984
50 0.004996
57 0.005002
66 0.005016
77 0.006042
83 0.007013
88 0.006017
91 0.006014
96 0.005997
103 0.005985
112 0.007028
128 0.006017
136 0.005984
147 0.004984
154 0.005954
160 0.006016
165 0.006981
169 0.006984
174 0.006021
151 0.005979
101 0.006023
62 0.00699
39 0.005979
40 0.006982
45 0.006981
55 0.004993
66 0.006981
75 0.005024
80 0.007041
84 0.006944
90 0.005966
97 0.005958
106 0.005985
115 0.006982
131 0.006014
139 0.006987
146 0.007001
155 0.006018
160 0.006014
165 0.007015
170 0.006982
168 0.007992
133 0.006007
87 0.005995
58 0.005993
48 0.007013
53 0.005981
59 0.007012
69 0.006979
81 0.006039
87 0.00698
89 0.006016
92 0.007991
98 0.00798
105 0.005994
114 0.005948
124 0.005997
132 0.006982
145 0.005983
151 0.007025
157 0.007016
162 0.006018
168 0.006962
169 0.006983
142 0.007981
95 0.007979
56 0.006982
48 0.007014
49 0.006982
54 0.005977
68 0.006018
79 0.005979
86 0.007005
90 0.00701
94 0.007003
99 0.006948
106 0.00695
115 0.007979
128 0.007976
136 0.006988
145 0.007019
152 0.006981
162 0.007016
168 0.007016
174 0.007975
178 0.00701
177 0.007967
157 0.006983
105 0.006987
65 0.007903
43 0.007983
40 0.00699
42 0.006979
47 0.007005
63 0.006982
73 0.007003
79 0.007979
83 0.007978
91 0.006982
96 0.006981
108 0.007009
118 0.006985
128 0.006981
137 0.006946
145 0.006982
155 0.007012
163 0.006988
168 0.006954
175 0.00702
180 0.007013
167 0.007013
120 0.007006
76 0.007013
54 0.00701
48 0.007035
51 0.007013
57 0.00697
65 0.006016
79 0.006972
87 0.006976
92 0.007989
95 0.00798
103 0.007011
111 0.006966
120 0.006984
131 0.006971
139 0.00701
150 0.006979
156 0.006015
165 0.006973
170 0.006973
173 0.006967
178 0.007018
155 0.006022
94 0.007012
67 0.007034
58 0.007024
61 0.006998
67 0.007013
79 0.006981
90 0.00702
101 0.007018
103 0.007013
106 0.006015
110 0.00702
117 0.007025
128 0.006019
138 0.005931
147 0.006002
155 0.005019
162 0.006019
170 0.007016
175 0.006242
181 0.005988
182 0.005987
151 0.005988
101 0.006981
67 0.00702
53 0.005984
52 0.006016
57 0.007005
64 0.006014
74 0.005984
84 0.006015
92 0.005982
97 0.006022
103 0.005981
111 0.005984
120 0.006015
129 0.006022
139 0.004978
150 0.004999
157 0.00498
164 0.006012
169 0.006024
174 0.006018
180 0.006018
168 0.006021
103 0.006018
65 0.006018
47 0.006018
43 0.00602
45 0.004961
52 0.005028
61 0.004986
73 0.004989
81 0.004988
86 0.005026
91 0.005018
99 0.005101
111 0.004989
121 0.005984
131 0.005983
140 0.006016
149 0.005017
159 0.005018
165 0.006017
171 0.004982
176 0.005022
182 0.004855
166 0.004986
103 0.005017
65 0.004987
57 0.005021
59 0.005018
64 0.005022
71 0.003987
86 0.004034
95 0.005003
100 0.005029
104 0.004989
107 0.005019
115 0.005059
127 0.004983
140 0.004973
148 0.004992
156 0.005002
163 0.004985
169 0.003966
175 0.004994
180 0.003974
186 0.003991
186 0.00399
160 0.003993
105 0.004998
81 0.005022
81 0.00498
87 0.005022
96 0.005019
107 0.005035
115 0.00399
120 0.004024
122 0.003989
124 0.004013
129 0.00399
137 0.003956
145 0.003996
159 0.004044
167 0.004035
175 0.004023
181 0.003991
187 0.005021
191 0.004002
195 0.003997
198 0.004018
171 0.00399
125 0.003987
94 0.004025
77 0.004025
79 0.004024
83 0.003989
93 0.003991
103 0.003991
110 0.003993
114 0.003041
116 0.002948
122 0.003953
128 0.004035
137 0.003995
145 0.002958
158 0.004027
166 0.003994
172 0.003983
180 0.003991
184 0.00402
189 0.003995
193 0.003003
198 0.002992
179 0.002991
134 0.003003
98 0.00296
80 0.004036
75 0.003982
78 0.004024
83 0.004023
96 0.00296
104 0.002961
108 0.003034
112 0.00305
115 0.002992
122 0.00299
130 0.002994
139 0.002992
147 0.002992
161 0.003007
167 0.002945
174 0.002996
182 0.002993
186 0.002992
191 0.004029
196 0.003024
201 0.002959
179 0.002978
134 0.00299
101 0.002991
86 0.002992
86 0.002994
91 0.003031
98 0.00295
110 0.002009
116 0.003029
120 0.00203
121 0.002043
123 0.001995
131 0.001998
138 0.002987
146 0.002991
154 0.003
166 0.002992
172 0.003039
177 0.002993
183 0.002986
187 0.003026
191 0.003026
194 0.002016
176 0.002015
123 0.002024
97 0.001975
87 0.002014
89 0.002014
99 0.002027
109 0.002028
118 0.002994
124 0.001972
126 0.001996
127 0.001995
131 0.00204
136 0.001017
144 0.000998
154 0.002026
162 0.002947
169 0.001993
180 0.003028
185 0.002028
190 0.001996
194 0.002027
199 0.001995
200 0.002027
175 0.001994
128 0.000965
94 0.000984
75 0.001947
75 0.000992
78 0.001046
88 0.001011
97 0.000997
104 0.002006
108 0.001993
110 0.001959
113 0.002029
119 0.000974
127 0.00198
135 0.002029
146 0.000985
154 0.001042
165 0.001997
171 0.001965
176 0.00105
181 0.000998
185 0.000998
191 0.000999
174 0.00096
129 0.002036
92 0.00105
73 0.001986
69 0.001998
73 0.001027
84 0.001998
93 0.00202
101 0.001996
105 0.001995
107 0.000998
111 0.000999
116 0.000997
123 0.001042
131 0.001031
139 0.000986
150 0.002009
157 0.002004
167 0.001995
172 0.002005
176 0.001996
180 0.001996
184 0.000984
156 0.000998
114 0.001004
86 0.000996
75 0.001032
77 0.001049
87 0.000969
96 0.000952
111 0.000998
115 0.000969
116 0.000997
116 0.000997
119 0.0
127 0.0
134 0.000998
142 0.001
150 0.001008
158 0.000993
166 0.000997
171 0.001036
178 0.000997
182 0.000998
186 0.000997
174 0.000985
131 0.0
82 0.0
65 0.0
63 0.000996
67 0.000957
73 0.000999
81 0.000997
93 0.001001
98 0.000998
101 0.0
104 0.0
109 0.000997
117 0.0
125 0.0
136 0.0
145 0.0
152 0.0
159 0.0
164 0.0
170 0.001047
175 0.0
178 0.0
153 0.0
105 0.0
70 0.0
50 0.0
50 0.000998
53 0.0
58 0.000979
67 0.000998
77 0.0
86 0.0
90 0.0
95 0.0
102 0.001035
114 0.0
120 0.0
132 0.0
140 0.000997
148 0.000998
155 0.000963
163 0.000984
168 0.000986
173 0.001005
179 0.0
161 0.001
114 0.000998
76 0.000999
55 0.0
55 0.0
59 0.00103
65 0.002034
73 0.000976
87 0.000992
92 0.000955
95 0.000997
99 0.000997
106 0.002032
114 0.002046
126 0.0
135 0.0
143 0.0
150 0.00104
156 0.000999
163 0.0
167 0.000967
171 0.000967
170 0.0
150 0.000998
93 0.000998
69 0.000999
62 0.000998
65 0.000997
74 0.0
84 0.003004
94 0.001998
102 0.0
104 0.000997
106 0.000962
113 0.0
120 0.0
129 0.000998
138 0.000999
148 0.000997
155 0.0
161 0.0
167 0.002006
171 0.001997
176 0.0
181 0.0
183 0.0
125 0.0
83 0.0
60 0.001004
52 0.001007
54 0.001007
60 0.000949
68 0.001046
78 0.000986
87 0.001972
90 0.002053
94 0.002041
98 0.00104
111 0.000996
120 0.000997
129 0.001994
138 0.001996
146 0.002042
155 0.000997
161 0.000997
166 0.000998
170 0.001989
175 0.001995
181 0.000998
169 0.000998
94 0.000998
64 0.000965
53 0.000968
52 0.002018
57 0.003028
66 0.0
76 0.000953
85 0.000992
91 0.001995
94 0.002977
99 0.000961
104 0.000962
119 0.00202
129 0.001005
138 0.001964
146 0.002994
153 0.002992
161 0.001029
167 0.000993
171 0.000983
175 0.004031
180 0.003026
183 0.002032
153 0.001035
83 0.000995
66 0.000994
64 0.001953
70 0.003028
77 0.002998
91 0.001983
100 0.002025
104 0.002035
106 0.002997
108 0.002994
114 0.00103
120 0.002022
135 0.001029
145 0.000991
153 0.001002
160 0.002026
167 0.002025
174 0.001987
179 0.002005
182 0.001966
187 0.003026
190 0.003028
152 0.002049
102 0.001998
61 0.001993
59 0.001031
63 0.002035
69 0.003989
77 0.003997
91 0.001994
98 0.002026
101 0.001982
104 0.003022
108 0.003032
117 0.001994
129 0.002982
142 0.002015
150 0.003023
157 0.002029
164 0.003989
170 0.003991
177 0.003022
181 0.00302
185 0.00199
190 0.003988
175 0.003992
126 0.005024
64 0.002991
54 0.003022
56 0.002995
62 0.003
70 0.002984
81 0.003989
91 0.00402
98 0.003026
101 0.003018
105 0.00199
111 0.005023
119 0.004989
135 0.003989
145 0.004024
155 0.003006
162 0.00299
169 0.002991
174 0.00402
178 0.00399
185 0.002993
190 0.00299
185 0.003028
146 0.004987
98 0.005041
65 0.004988
67 0.004987
77 0.002976
86 0.00298
98 0.00295
106 0.004036
109 0.00399
111 0.00303
113 0.001988
117 0.002948
124 0.004988
133 0.004994
148 0.003989
157 0.004987
166 0.003027
171 0.002973
176 0.003022
179 0.005022
184 0.004983
179 0.00301
138 0.002995
91 0.002995
65 0.004952
57 0.004935
65 0.004995
74 0.004982
89 0.003991
98 0.003989
102 0.003003
104 0.004986
107 0.005027
113 0.004043
121 0.002984
130 0.002992
140 0.005022
148 0.005985
161 0.004987
168 0.004986
175 0.004022
179 0.00396
183 0.003989
188 0.004987
181 0.004999
117 0.00399
71 0.00399
48 0.004021
42 0.005985
44 0.00603
54 0.005984
64 0.006017
77 0.003993
83 0.003977
86 0.003991
90 0.004987
95 0.005018
106 0.004004
116 0.004028
126 0.004951
135 0.004988
144 0.005979
156 0.00602
162 0.006016
168 0.005018
173 0.00399
179 0.003987
170 0.004024
124 0.005984
76 0.005991
45 0.00398
42 0.004957
46 0.003976
53 0.005985
70 0.005005
80 0.005987
86 0.00598
90 0.005016
93 0.00502
99 0.005038
107 0.005984
116 0.005984
129 0.004024
138 0.004012
146 0.004957
157 0.005001
163 0.004991
167 0.005985
171 0.006015
178 0.004988
164 0.005045
117 0.004986
75 0.005985
56 0.005992
56 0.004017
64 0.005005
74 0.004942
93 0.005026
99 0.005017
100 0.006981
100 0.007015
103 0.005015
109 0.004988
118 0.004993
127 0.005984
136 0.00596
147 0.004988
154 0.005984
160 0.006031
167 0.006014
171 0.005021
174 0.006929
157 0.006981
91 0.005013
57 0.004984
44 0.004986
44 0.005978
50 0.005984
62 0.005983
73 0.005952
83 0.005964
89 0.005979
90 0.005985
95 0.007017
102 0.007037
113 0.004992
123 0.004978
133 0.005988
141 0.007022
149 0.006994
158 0.00599
163 0.005944
167 0.005989
175 0.005996
165 0.005986
118 0.006957
68 0.006982
35 0.005995
31 0.006018
34 0.00602
38 0.007013
50 0.007976
62 0.00698
70 0.006982
75 0.005965
81 0.005984
88 0.005992
99 0.007978
110 0.00796
120 0.005988
130 0.005983
138 0.005986
145 0.005982
152 0.007979
158 0.007979
164 0.006984
170 0.007016
166 0.005941
122 0.005991
73 0.005998
41 0.007972
37 0.007982
41 0.005978
46 0.005979
60 0.006962
71 0.007987
79 0.007989
84 0.006951
88 0.006947
97 0.007016
105 0.006929
115 0.005982
129 0.007987
138 0.007944
146 0.005984
154 0.005985
160 0.006015
166 0.007979
172 0.007013
177 0.006982
183 0.006961
162 0.006976
111 0.006976
67 0.006981
57 0.007012
59 0.007944
71 0.007019
81 0.006984
89 0.006984
98 0.007947
103 0.007023
104 0.007012
107 0.007015
118 0.006978
124 0.006941
134 0.006983
146 0.006977
153 0.006975
160 0.006975
168 0.00696
172 0.00698
177 0.007978
182 0.007014
187 0.006972
150 0.00702
87 0.006981
62 0.006974
56 0.006976
60 0.007013
66 0.007013
75 0.006978
87 0.006978
98 0.006014
101 0.006015
103 0.006043
108 0.007023
118 0.007015
131 0.006976
140 0.006974
149 0.00699
157 0.007014
165 0.006992
171 0.006967
178 0.006981
182 0.006014
186 0.006017
190 0.006014
185 0.005981
120 0.006032
64 0.006982
49 0.007015
46 0.006967
51 0.007022
56 0.007012
69 0.006981
80 0.006016
87 0.005982
91 0.005977
94 0.005984
99 0.00602
112 0.006021
122 0.006019
135 0.006021
144 0.006019
152 0.007012
159 0.007027
165 0.006994
173 0.005982
177 0.006015
182 0.006018
188 0.00598
182 0.005982
103 0.005978
67 0.006018
51 0.006019
53 0.006017
59 0.006017
67 0.005019
78 0.005041
91 0.006021
95 0.006057
97 0.006014
100 0.005987
105 0.006003
119 0.005987
129 0.006032
142 0.006014
150 0.00604
157 0.006024
163 0.005019
168 0.004986
173 0.00502
178 0.005986
183 0.005018
178 0.005019
139 0.005997
74 0.006019
63 0.006016
69 0.006019
78 0.006022
88 0.005023
100 0.005018
107 0.005022
109 0.005018
109 0.005019
112 0.005018
117 0.004986
124 0.006026
139 0.004985
148 0.005019
158 0.006015
165 0.005016
170 0.004986
174 0.005016
177 0.005023
183 0.005017
176 0.005016
134 0.005015
86 0.005022
59 0.005006
52 0.005021
58 0.005017
68 0.005021
80 0.00502
89 0.004021
93 0.004024
96 0.005023
99 0.005028
104 0.005021
112 0.005019
120 0.005022
136 0.005012
145 0.005025
152 0.004988
161 0.005019
167 0.004029
171 0.004022
175 0.004023
179 0.003999
159 0.004024
106 0.004021
62 0.005046
42 0.00501
38 0.005025
42 0.005025
47 0.005019
61 0.004031
71 0.003985
78 0.003958
81 0.004019
85 0.004024
94 0.003987
103 0.003944
113 0.004021
123 0.00399
139 0.005023
146 0.005029
153 0.004985
159 0.003986
167 0.004027
172 0.004019
177 0.003989
169 0.003979
124 0.004021
66 0.004023
48 0.003995
45 0.00396
52 0.00396
58 0.003961
69 0.003025
80 0.00399
88 0.003968
91 0.003992
95 0.00402
102 0.004023
110 0.004022
123 0.00399
134 0.004022
142 0.004022
155 0.004022
161 0.003025
167 0.002993
171 0.002993
178 0.003025
181 0.002993
156 0.002993
108 0.004001
75 0.004042
62 0.004023
66 0.002992
73 0.004018
89 0.004021
99 0.002992
105 0.002992
107 0.002993
110 0.003028
114 0.003029
121 0.004006
130 0.004021
139 0.002993
151 0.003989
160 0.00399
166 0.004048
176 0.00298
181 0.002991
185 0.002992
190 0.002993
176 0.003025
128 0.002997
86 0.002992
66 0.003026
61 0.004035
66 0.00303
71 0.001995
81 0.002991
98 0.002993
103 0.003001
105 0.002957
109 0.003008
117 0.002992
126 0.002993
135 0.002967
145 0.002992
153 0.002991
163 0.003023
170 0.001995
176 0.001997
184 0.002959
188 0.002962
193 0.002992
190 0.002999
134 0.002963
89 0.002958
66 0.002995
59 0.003006
61 0.00296
66 0.002026
74 0.001996
85 0.001996
98 0.002027
101 0.001995
105 0.002027
111 0.00203
119 0.001995
132 0.001995
142 0.001998
151 0.00303
159 0.003031
167 0.001987
175 0.001995
182 0.001995
189 0.001994
194 0.001995
192 0.001996
158 0.001999
110 0.001996
76 0.002027
71 0.001046
74 0.002043
80 0.002027
87 0.000998
102 0.001996
112 0.000999
115 0.001997
118 0.002045
123 0.001996
130 0.002026
139 0.002026
152 0.001949
161 0.002037
168 0.001995
174 0.001009
180 0.001014
186 0.000997
192 0.000998
197 0.000997
179 0.000997
134 0.001016
98 0.000998
83 0.001984
83 0.001995
89 0.002018
97 0.002035
108 0.001995
118 0.000976
123 0.00102
126 0.000998
131 0.000997
138 0.000999
147 0.001005
155 0.001009
163 0.000998
174 0.000997
181 0.002031
187 0.001002
192 0.001
197 0.0
202 0.001036
207 0.000998
173 0.000998
123 0.000998
90 0.000997
77 0.000997
76 0.000999
81 0.000997
87 0.0
98 0.0
107 0.0
113 0.0
117 0.000999
121 0.0
131 0.000997
140 0.0
148 0.0
157 0.0
166 0.0
175 0.000992
182 0.000999
187 0.000997
192 0.000998
197 0.000995
204 0.0
185 0.0
122 0.0
91 0.0
80 0.0
80 0.0
85 0.0
91 0.0
105 0.0
114 0.0
119 0.000998
121 0.0
124 0.0
133 0.0
142 0.0
153 0.0
162 0.0
170 0.0
177 0.0
183 0.0
189 0.0
193 0.0
197 0.0
203 0.0
195 0.0
127 0.0
98 0.0
89 0.002042
93 0.001995
101 0.000997
110 0.000998
124 0.0
129 0.002043
130 0.001044
132 0.0
136 0.0
144 0.0
155 0.0
163 0.000997
171 0.001997
178 0.002032
186 0.0
191 0.0
195 0.0
199 0.002003
203 0.002025
191 0.001011
145 0.0
86 0.000944
76 0.0
77 0.0
82 0.001031
89 0.00204
102 0.0
110 0.0
113 0.0
115 0.000997
118 0.00103
125 0.0
133 0.000992
147 0.0
155 0.0
163 0.0
169 0.001028
175 0.00206
182 0.0
185 0.0
189 0.0
193 0.002044
174 0.002029
110 0.0
77 0.0
62 0.0
65 0.0
69 0.0
77 0.001
87 0.000998
97 0.0
100 0.0
103 0.0
107 0.001999
114 0.002009
125 0.0
134 0.0
148 0.000995
155 0.0
162 0.0
167 0.002033
173 0.002008
178 0.0
183 0.0
186 0.0
167 0.001029
119 0.001995
81 0.002048
62 0.001004
64 0.001029
72 0.000969
80 0.000954
91 0.001994
98 0.001995
101 0.00203
104 0.00097
108 0.001993
114 0.001025
122 0.002019
131 0.002047
142 0.001011
152 0.001972
160 0.000969
165 0.000943
169 0.002008
173 0.002029
178 0.002992
173 0.00199
136 0.001994
95 0.002002
71 0.001995
66 0.002028
73 0.000998
84 0.003024
98 0.000991
105 0.001
106 0.001002
107 0.002992
108 0.002984
116 0.001991
123 0.001992
131 0.001995
140 0.002014
148 0.001996
156 0.00199
163 0.002992
168 0.001994
172 0.000998
177 0.000997
173 0.002993
137 0.004037
79 0.001995
58 0.001982
53 0.001996
55 0.004028
60 0.002992
72 0.001993
85 0.001983
91 0.001987
93 0.002031
96 0.001004
102 0.002991
110 0.003025
122 0.001001
131 0.001005
140 0.000974
147 0.002992
154 0.002993
163 0.003042
167 0.003996
173 0.002015
178 0.001996
167 0.001997
123 0.00298
76 0.002983
45 0.001982
39 0.00199
40 0.001003
43 0.002958
49 0.002992
68 0.003007
75 0.004027
81 0.002047
84 0.001991
91 0.001994
100 0.00402
109 0.003989
122 0.002116
131 0.002005
139 0.001997
146 0.003035
152 0.004014
161 0.003031
166 0.004023
173 0.002028
176 0.001991
150 0.001981
100 0.001997
64 0.004022
48 0.004058
46 0.002
50 0.001999
56 0.001995
66 0.00402
83 0.001988
88 0.00301
92 0.004029
98 0.002994
105 0.002992
115 0.002988
125 0.003989
134 0.003947
145 0.00299
153 0.002982
159 0.002002
165 0.003989
173 0.001993
177 0.004988
183 0.004012
181 0.002991
143 0.002993
97 0.002999
72 0.003989
64 0.004002
69 0.001992
76 0.001962
86 0.002002
96 0.004027
105 0.002998
107 0.004988
110 0.00502
116 0.002984
124 0.002996
133 0.003007
142 0.004987
151 0.004988
161 0.002993
167 0.003989
173 0.002994
178 0.005019
185 0.003019
190 0.006012
184 0.004986
127 0.002994
86 0.002971
67 0.002995
64 0.004984
67 0.005029
76 0.001975
87 0.002951
98 0.004002
104 0.004986
109 0.003041
112 0.004989
118 0.004973
129 0.003004
138 0.002975
147 0.003001
155 0.004989
163 0.004991
172 0.002987
178 0.003994
183 0.003981
187 0.005985
194 0.003985
197 0.004984
173 0.004986
103 0.004007
71 0.002994
58 0.002963
58 0.005019
62 0.004986
72 0.002972
83 0.004007
93 0.00396
102 0.003993
105 0.003988
109 0.006983
116 0.005987
128 0.003991
138 0.003959
147 0.003993
156 0.00502
164 0.005024
173 0.003984
179 0.004014
184 0.003975
192 0.003976
197 0.003953
192 0.005006
152 0.006021
101 0.006025
69 0.003987
65 0.004001
70 0.004953
78 0.006982
87 0.006022
102 0.00499
109 0.003009
114 0.004002
116 0.003993
121 0.004917
128 0.005984
137 0.005991
149 0.004004
158 0.00402
166 0.003989
173 0.005981
178 0.005985
184 0.004993
188 0.004998
195 0.004953
180 0.004859
132 0.004955
91 0.006016
73 0.006026
73 0.005006
82 0.003993
92 0.003991
104 0.00602
113 0.005984
118 0.004986
119 0.004991
123 0.005004
129 0.004985
137 0.00495
146 0.006982
154 0.007034
165 0.00499
173 0.00403
179 0.00402
185 0.007014
189 0.006971
194 0.00495
198 0.004978
146 0.004995
93 0.005011
63 0.004989
54 0.006981
57 0.007022
66 0.004988
75 0.004992
86 0.005981
97 0.007978
99 0.007997
102 0.005982
106 0.005985
116 0.005984
125 0.005019
135 0.004954
144 0.007021
152 0.006981
163 0.004985
169 0.004979
174 0.004987
181 0.007973
185 0.007972
176 0.005984
129 0.005982
58 0.005985
46 0.005981
46 0.006982
53 0.006981
61 0.007021
76 0.005951
86 0.005985
93 0.005987
97 0.007981
100 0.007983
105 0.005985
113 0.005985
128 0.005986
138 0.006952
147 0.005986
158 0.007984
162 0.008009
168 0.007011
174 0.00599
179 0.006022
181 0.005987
139 0.007956
88 0.007988
59 0.005983
55 0.006981
63 0.005997
73 0.006947
85 0.005985
98 0.007981
101 0.007972
102 0.005993
104 0.006983
107 0.00693
114 0.007978
125 0.006981
140 0.007978
146 0.007985
157 0.006983
164 0.006009
169 0.005953
174 0.007948
180 0.007021
172 0.00698
126 0.006977
78 0.006978
49 0.00701
47 0.006979
59 0.00797
68 0.007013
80 0.006984
91 0.007013
94 0.007012
96 0.007976
100 0.007014
108 0.006981
113 0.006949
122 0.006983
135 0.007016
144 0.007017
157 0.006975
163 0.006982
168 0.006952
174 0.007011
179 0.005978
177 0.007017
139 0.006979
84 0.006971
45 0.006972
39 0.006973
42 0.006982
48 0.006966
63 0.005978
74 0.00695
83 0.00601
86 0.005985
88 0.005975
95 0.005986
102 0.005993
114 0.007
124 0.006977
131 0.006974
142 0.007016
150 0.007016
160 0.006985
165 0.006974
172 0.006009
176 0.005966
159 0.006017
108 0.005983
66 0.006028
44 0.005985
44 0.005982
50 0.007029
58 0.007019
69 0.005984
86 0.006981
91 0.006016
94 0.005988
98 0.006013
105 0.005985
113 0.005986
122 0.005986
136 0.005984
144 0.005985
152 0.005991
159 0.005989
165 0.006019
172 0.005982
177 0.00602
176 0.006017
126 0.005978
82 0.006029
60 0.006071
57 0.006036
63 0.005975
75 0.00598
87 0.005981
98 0.006019
103 0.00602
105 0.005984
107 0.006016
112 0.005988
122 0.005016
131 0.005021
140 0.005019
149 0.005018
156 0.005031
165 0.006033
170 0.005986
175 0.005972
180 0.005968
165 0.005978
115 0.004983
74 0.005974
54 0.005015
55 0.004984
62 0.004952
72 0.004987
83 0.005021
95 0.004978
100 0.004982
102 0.005017
107 0.004995
113 0.005988
122 0.005
132 0.004983
144 0.004956
152 0.005012
160 0.005017
166 0.005022
171 0.004988
177 0.004988
181 0.005019
177 0.00502
101 0.004992
63 0.005026
47 0.004945
45 0.00502
51 0.005016
59 0.005021
70 0.005029
81 0.005037
88 0.005018
93 0.005017
96 0.004987
101 0.004983
116 0.00398
125 0.004022
136 0.004028
145 0.003991
155 0.004019
162 0.004997
168 0.005044
172 0.00502
178 0.004964
177 0.004979
139 0.005031
89 0.004015
52 0.004026
52 0.003988
57 0.003993
64 0.00399
79 0.003985
89 0.004025
95 0.003959
97 0.003989
100 0.003989
106 0.005034
113 0.005042
123 0.004041
138 0.004022
146 0.003959
153 0.004002
159 0.003958
163 0.003958
170 0.00403
173 0.004059
151 0.004034
105 0.004022
71 0.00399
56 0.004022
60 0.004025
74 0.003988
85 0.003021
95 0.003991
100 0.004024
102 0.004026
104 0.003989
109 0.003991
117 0.004006
125 0.003979
134 0.002963
146 0.003048
153 0.002991
164 0.003022
168 0.002015
173 0.003957
177 0.002998
162 0.003989
98 0.003959
65 0.003935
51 0.003992
50 0.003003
54 0.003005
63 0.002992
73 0.002993
88 0.00299
92 0.002993
95 0.002992
99 0.003032
106 0.002996
118 0.002957
128 0.003014
136 0.003027
144 0.002992
152 0.002029
160 0.002974
165 0.003002
173 0.003025
174 0.003022
144 0.002996
96 0.002988
64 0.003017
51 0.002992
127 0.003032
126 0.002989
125 0.002992
125 0.002992
125 0.001996
125 0.002993
125 0.001995
125 0.002031
125 0.002992
125 0.003026
125 0.002986
125 0.003002
125 0.001995
125 0.003027
125 0.002992
127 0.002992
138 0.002034
151 0.002033
144 0.002007
90 0.001994
36 0.001995
9 0.001989
3 0.001994
11 0.002005
21 0.001996
35 0.001033
52 0.001994
64 0.001949
72 0.002992
79 0.002054
87 0.001996
103 0.002042
115 0.002
129 0.002044
141 0.002035
152 0.001996
164 0.001982
172 0.001995
178 0.001996
184 0.00203
192 0.001999
163 0.000978
106 0.000997
59 0.002046
52 0.00202
58 0.002038
69 0.002008
82 0.002046
102 0.002029
110 0.002041
111 0.002029
113 0.002041
118 0.002054
131 0.001028
143 0.000996
158 0.001994
169 0.001955
178 0.001993
187 0.000999
194 0.000997
201 0.002044
208 0.002044
211 0.001992
180 0.001995
119 0.002043
61 0.002029
56 0.001036
62 0.00203
72 0.000959
85 0.002038
100 0.001034
109 0.001003
115 0.001988
117 0.001996
124 0.000998
134 0.001996
145 0.001996
165 0.001007
176 0.0
190 0.0
198 0.000997
205 0.0
211 0.0
218 0.001996
222 0.0
191 0.0
125 0.000999
78 0.000997
57 0.000997
55 0.000966
61 0.0
75 0.0
90 0.000957
103 0.0
110 0.000996
115 0.000998
122 0.0
132 0.000998
144 0.0
157 0.0
169 0.0
188 0.0
198 0.0
210 0.0
217 0.001009
224 0.0
232 0.0
232 0.001028
169 0.0
112 0.000998
82 0.000994
73 0.0
77 0.0
90 0.0
104 0.0
122 0.000992
131 0.000962
135 0.000992
140 0.000999
146 0.0
155 0.0
171 0.000998
183 0.0
194 0.000997
205 0.000997
220 0.0
228 0.0
233 0.0
243 0.0
244 0.0
208 0.00103
148 0.0
110 0.0
98 0.002046
104 0.0
119 0.0
139 0.001016
152 0.0
155 0.000998
156 0.0
159 0.002009
164 0.001995
175 0.000954
185 0.0
196 0.0
206 0.002031
215 0.00203
225 0.0
234 0.00208
241 0.00096
242 0.0
202 0.000933
138 0.002016
98 0.00203
84 0.0
88 0.0
97 0.0
110 0.001028
125 0.002041
136 0.000966
141 0.002983
144 0.000945
150 0.0
158 0.000953
168 0.001029
178 0.001037
192 0.0
202 0.0
211 0.0
218 0.00204
224 0.002033
231 0.0
208 0.002035
120 0.000995
75 0.0
56 0.00097
54 0.002
60 0.001998
72 0.0
85 0.000964
98 0.0
106 0.00203
110 0.002012
115 0.0
124 0.002027
138 0.000982
150 0.000954
161 0.000978
172 0.002027
183 0.00203
193 0.0
201 0.0
208 0.00101
209 0.002046
170 0.002026
87 0.0
49 0.002029
47 0.000955
54 0.0
65 0.0
79 0.002041
93 0.002029
104 0.000954
107 0.0
110 0.000965
115 0.00199
124 0.002001
135 0.001995
154 0.002953
165 0.002018
178 0.000991
186 0.001006
193 0.0
199 0.002031
192 0.002043
123 0.0
74 0.0
53 0.001992
53 0.002041
63 0.002992
86 0.003026
102 0.003048
113 0.001009
115 0.0
115 0.001014
117 0.002025
124 0.001999
137 0.000966
148 0.002002
159 0.002012
169 0.002002
178 0.003018
190 0.002994
196 0.003052
177 0.000979
116 0.000951
64 0.0
40 0.002993
37 0.003046
47 0.001994
58 0.002042
74 0.002027
87 0.001995
97 0.001002
99 0.002994
103 0.002993
113 0.00099
124 0.000992
135 0.002007
147 0.003028
158 0.004026
170 0.002027
178 0.002005
185 0.000963
192 0.003027
145 0.002997
78 0.004017
35 0.003986
17 0.003001
19 0.002028
26 0.002005
36 0.002984
51 0.003023
67 0.001001
74 0.001993
78 0.002002
83 0.002981
98 0.001998
111 0.003991
123 0.004033
139 0.002002
150 0.001992
159 0.002963
168 0.003028
175 0.003024
177 0.001006
134 0.00099
70 0.000953
30 0.002993
15 0.001981
21 0.004023
30 0.004024
48 0.001994
64 0.004003
74 0.001993
79 0.00399
83 0.003989
93 0.001995
103 0.001047
116 0.002013
129 0.003026
148 0.001043
159 0.002054
167 0.003956
175 0.004047
185 0.002944
188 0.001992
155 0.001996
92 0.004021
49 0.003989
32 0.001993
37 0.001997
47 0.001993
71 0.002008
84 0.002029
91 0.005021
94 0.004947
98 0.001966
104 0.002021
113 0.002982
125 0.004024
137 0.003986
152 0.001995
162 0.001993
171 0.00199
182 0.002961
190 0.002999
186 0.004991
139 0.005021
63 0.002986
36 0.002944
31 0.002033
37 0.004967
46 0.004986
66 0.002997
81 0.001986
89 0.002998
94 0.002982
98 0.002987
107 0.004989
118 0.005016
134 0.002978
146 0.00299
157 0.002996
167 0.004996
176 0.005022
186 0.002991
192 0.002995
198 0.002996
151 0.003997
82 0.00295
38 0.004982
21 0.006022
21 0.002016
27 0.002983
38 0.002043
53 0.005043
68 0.004988
78 0.002938
83 0.002996
88 0.002944
104 0.003992
117 0.003951
130 0.005977
143 0.005998
158 0.003936
169 0.003985
177 0.003016
184 0.006024
191 0.005983
200 0.002979
180 0.002978
75 0.002968
40 0.003002
30 0.004005
34 0.005987
42 0.005996
59 0.00396
76 0.003992
87 0.003984
94 0.005991
97 0.006033
104 0.003986
113 0.004989
134 0.003991
147 0.004991
159 0.004022
170 0.005987
179 0.006039
187 0.005986
193 0.00602
202 0.003988
204 0.003987
168 0.006018
102 0.005984
52 0.003004
48 0.006986
61 0.004943
74 0.003932
91 0.004974
104 0.006983
111 0.006984
113 0.003992
117 0.004021
124 0.003984
134 0.00602
145 0.005993
161 0.003943
175 0.006033
188 0.004025
196 0.004031
202 0.003974
208 0.005946
212 0.006982
157 0.004984
87 0.004012
46 0.00499
32 0.007037
33 0.006981
44 0.005003
62 0.007013
81 0.004999
89 0.004991
93 0.005006
96 0.007981
102 0.007982
115 0.005953
128 0.004957
140 0.004989
152 0.007015
163 0.007018
175 0.005028
185 0.006981
193 0.004954
194 0.004952
152 0.004993
83 0.007018
38 0.007019
21 0.00595
24 0.005952
32 0.005952
49 0.007977
60 0.007021
77 0.004983
85 0.006982
90 0.005992
98 0.004947
108 0.005931
121 0.007981
138 0.007978
150 0.005954
160 0.005955
169 0.005981
177 0.00798
184 0.007979
192 0.005987
132 0.007966
71 0.005984
39 0.005977
32 0.007016
37 0.006982
47 0.007011
66 0.006023
82 0.005985
91 0.005952
95 0.00796
96 0.00798
103 0.005952
120 0.007971
132 0.006982
144 0.005977
154 0.005989
168 0.008014
174 0.008024
181 0.005986
189 0.005973
187 0.005951
118 0.007976
78 0.007979
32 0.005971
36 0.007012
45 0.006977
58 0.005978
74 0.004928
86 0.006971
91 0.006988
94 0.007016
98 0.005975
106 0.006937
117 0.006953
133 0.00697
148 0.006951
162 0.00698
170 0.006965
177 0.006949
184 0.005988
190 0.006962
148 0.007012
102 0.007979
35 0.006958
15 0.006948
13 0.006947
20 0.007017
34 0.005994
56 0.007024
66 0.006968
71 0.006949
77 0.006969
84 0.006978
94 0.006979
107 0.007974
119 0.006932
135 0.006989
142 0.006952
154 0.007012
164 0.006949
173 0.006996
170 0.006981
99 0.00698
60 0.006992
16 0.005981
8 0.006047
11 0.006978
19 0.005985
33 0.006015
50 0.006013
62 0.006983
70 0.006971
76 0.006984
85 0.006983
97 0.006973
115 0.005983
123 0.006971
139 0.006948
150 0.00695
162 0.006014
169 0.006019
175 0.006036
182 0.00602
133 0.006015
72 0.006028
36 0.004989
24 0.006978
28 0.005997
35 0.006017
47 0.005981
64 0.006976
79 0.005979
84 0.005945
87 0.006013
93 0.006016
109 0.004992
122 0.004986
134 0.004971
148 0.005964
158 0.004987
165 0.005952
171 0.006015
179 0.006031
183 0.005968
150 0.005993
91 0.005979
53 0.005984
39 0.005979
45 0.005006
54 0.006015
69 0.004986
87 0.005021
93 0.004978
95 0.005014
98 0.00502
105 0.004966
118 0.006013
130 0.00601
142 0.005994
159 0.004988
167 0.005982
174 0.004978
180 0.00498
189 0.004988
186 0.005017
141 0.004983
81 0.005016
44 0.004987
28 0.004987
29 0.004987
34 0.004987
56 0.004986
71 0.003989
80 0.004968
85 0.004986
91 0.005984
100 0.005983
111 0.00598
123 0.005021
135 0.004975
150 0.005016
160 0.005018
173 0.00501
180 0.005019
186 0.004971
193 0.00399
192 0.004981
126 0.004987
69 0.003982
38 0.00402
28 0.004021
27 0.005031
33 0.004983
45 0.00498
72 0.003995
82 0.004975
87 0.003988
93 0.003988
102 0.004019
118 0.004024
131 0.00402
144 0.004019
155 0.004025
166 0.003988
179 0.003974
187 0.004025
199 0.004984
205 0.005021
213 0.003977
216 0.003991
180 0.004984
98 0.003971
62 0.003978
50 0.00399
50 0.004024
55 0.003987
68 0.003991
85 0.004029
105 0.003985
110 0.004037
114 0.002983
121 0.003986
131 0.003001
148 0.004033
161 0.003023
172 0.004019
183 0.004028
192 0.004022
202 0.004004
209 0.003994
216 0.004035
225 0.002961
229 0.003007
196 0.003007
132 0.002973
89 0.003023
69 0.004025
72 0.00299
80 0.002977
90 0.003027
106 0.003989
123 0.003953
129 0.002997
134 0.002993
140 0.00396
150 0.004031
163 0.003997
175 0.003027
190 0.003031
200 0.003029
209 0.002996
217 0.003032
224 0.002994
232 0.002989
238 0.003006
247 0.002993
231 0.002016
167 0.004022
105 0.003994
74 0.002993
65 0.003023
68 0.003027
74 0.002941
85 0.00303
102 0.003019
117 0.003027
125 0.003024
132 0.002962
141 0.003021
152 0.001976
165 0.001995
177 0.002064
193 0.002025
204 0.001994
213 0.002989
221 0.003043
229 0.002994
237 0.003024
245 0.003002
255 0.002993
236 0.001993
169 0.002994
109 0.002986
80 0.003021
73 0.001993
78 0.002022
86 0.002028
98 0.001997
114 0.002047
132 0.001994
137 0.002028
143 0.002988
151 0.001003
162 0.002046
174 0.002035
186 0.000993
202 0.001947
212 0.001965
222 0.003016
198 0.002034
236 0.001985
187 0.002
190 0.00204
194 0.002027
182 0.002027
149 0.001975
122 0.001989
111 0.001031
111 0.003
116 0.002034
122 0.001993
130 0.001994
136 0.00202
140 0.002019
141 0.002045
142 0.001999
147 0.00103
151 0.000999
157 0.001021
163 0.001015
168 0.002033
175 0.000997
179 0.000979
183 0.00104
185 0.002026
190 0.002033
192 0.001998
176 0.000998
131 0.000998
110 0.000985
103 0.001006
105 0.001002
109 0.000999
118 0.001007
125 0.001998
131 0.001052
134 0.002041
136 0.000998
138 0.001996
142 0.0
149 0.001959
155 0.000941
160 0.0
166 0.0
171 0.001034
177 0.001036
180 0.001011
183 0.001034
186 0.001046
186 0.001004
161 0.001036
124 0.001009
96 0.000997
91 0.0
93 0.000998
97 0.000998
102 0.000968
111 0.0
117 0.001037
120 0.001031
122 0.0
125 0.000998
130 0.001022
135 0.000991
143 0.000999
149 0.0
155 0.000961
160 0.000997
164 0.001006
169 0.000966
172 0.0
175 0.000999
177 0.0
144 0.0
109 0.001029
91 0.0
86 0.000957
90 0.0
96 0.000953
103 0.0
111 0.0
118 0.000964
119 0.0
120 0.0
122 0.0
128 0.0
134 0.0
140 0.00101
147 0.0
153 0.00105
157 0.0
161 0.000957
164 0.0
168 0.0
168 0.0
149 0.001001
115 0.0
87 0.0
87 0.0
92 0.0
99 0.0
111 0.0
117 0.0
120 0.001005
120 0.0
121 0.0
124 0.0
129 0.000997
138 0.000998
144 0.002017
151 0.000991
156 0.000948
160 0.0
164 0.002029
167 0.002021
170 0.000997
161 0.000962
126 0.000999
94 0.002038
78 0.001995
77 0.002035
82 0.003039
89 0.0
97 0.000953
104 0.000954
107 0.000998
108 0.002008
111 0.000951
114 0.000952
120 0.000997
126 0.002042
132 0.002005
142 0.001984
147 0.002006
153 0.000953
157 0.000951
160 0.000997
163 0.002019
159 0.002014
118 0.001994
87 0.000952
73 0.0
70 0.001998
74 0.001978
83 0.002039
90 0.002042
99 0.000953
103 0.001001
105 0.000986
107 0.002007
110 0.001986
116 0.001995
124 0.000949
131 0.0
137 0.002997
142 0.002995
150 0.00205
154 0.002028
158 0.000966
161 0.000967
160 0.000968
136 0.003021
102 0.001995
78 0.001011
76 0.000958
81 0.000968
87 0.001997
94 0.001991
106 0.003018
108 0.00299
110 0.0
111 0.000998
114 0.000942
118 0.001996
124 0.00204
133 0.000993
139 0.00099
144 0.0
148 0.002026
152 0.002028
157 0.002028
160 0.002028
144 0.0
103 0.0
70 0.002001
58 0.001995
58 0.002959
68 0.000963
77 0.000966
88 0.0
96 0.000982
101 0.002996
104 0.0
108 0.002075
113 0.003024
123 0.000953
131 0.001032
139 0.0
147 0.003031
154 0.001997
162 0.000998
167 0.0
171 0.001001
174 0.003028
170 0.0
128 0.002025
81 0.002056
53 0.0
50 0.0
54 0.0
59 0.002024
67 0.003036
81 0.000983
88 0.0
91 0.00095
97 0.002008
102 0.000968
109 0.003041
118 0.003052
130 0.0
138 0.000956
146 0.0
153 0.004031
159 0.00402
165 0.001025
169 0.001018
175 0.0
154 0.001988
105 0.0
70 0.002028
56 0.002997
56 0.000988
62 0.002972
69 0.000973
80 0.00399
91 0.004023
98 0.001992
101 0.002997
103 0.002983
112 0.002043
120 0.001979
128 0.002992
138 0.003979
148 0.002
155 0.002984
161 0.001988
166 0.00399
170 0.003998
176 0.001997
174 0.001999
142 0.001995
78 0.001995
66 0.001999
68 0.003028
75 0.004025
87 0.001996
98 0.003
107 0.002005
110 0.004002
111 0.004022
114 0.002996
118 0.001994
125 0.001996
138 0.002002
146 0.003017
154 0.004032
161 0.005028
169 0.001996
173 0.001999
177 0.002017
181 0.003951
177 0.00399
122 0.001987
81 0.001984
62 0.002948
62 0.003006
69 0.00203
77 0.00404
87 0.004993
96 0.005022
102 0.002961
104 0.001985
107 0.003001
112 0.00502
119 0.004024
130 0.001979
139 0.00299
152 0.002031
159 0.00204
165 0.002015
169 0.005025
173 0.004035
179 0.003002
172 0.002023
130 0.003004
85 0.005034
61 0.004961
55 0.002026
60 0.002028
71 0.00198
81 0.001997
91 0.002011
96 0.004955
99 0.004024
103 0.002989
109 0.002957
116 0.001992
125 0.005016
134 0.005021
145 0.003007
153 0.003995
164 0.002029
169 0.001974
173 0.003026
177 0.005019
181 0.005984
152 0.002975
103 0.002994
72 0.003032
61 0.004987
62 0.005024
72 0.003991
80 0.003993
97 0.002986
103 0.00201
105 0.002991
107 0.005033
110 0.006008
118 0.003047
126 0.002995
135 0.002961
143 0.005985
150 0.006021
159 0.00399
165 0.005021
170 0.002957
175 0.003015
166 0.002951
126 0.006016
87 0.005953
66 0.004033
67 0.003973
75 0.003975
85 0.006012
96 0.006018
108 0.002993
112 0.005982
113 0.002985
116 0.003014
121 0.003001
128 0.005028
136 0.005945
147 0.00399
155 0.003977
161 0.003977
167 0.005978
172 0.005992
177 0.003977
180 0.007024
142 0.003919
94 0.003024
66 0.002999
56 0.00599
58 0.006981
67 0.00399
75 0.003965
86 0.003989
94 0.005951
99 0.00604
101 0.004952
106 0.006023
112 0.006014
123 0.001999
132 0.002948
140 0.00398
148 0.007006
155 0.006017
162 0.004037
166 0.00401
170 0.003968
175 0.006983
167 0.007018
94 0.005984
65 0.005941
54 0.003983
58 0.00401
64 0.003984
72 0.006934
83 0.007027
94 0.004936
98 0.004976
101 0.003995
104 0.006983
109 0.006982
122 0.00702
131 0.007015
142 0.003977
150 0.003988
156 0.004026
161 0.006982
166 0.007017
171 0.004986
174 0.004994
154 0.004934
109 0.006985
77 0.006937
64 0.006982
70 0.006952
80 0.004966
91 0.00502
101 0.004991
106 0.006972
107 0.007016
109 0.004995
113 0.004996
119 0.005984
127 0.00702
135 0.007011
148 0.008011
156 0.007966
162 0.005007
166 0.004983
170 0.00498
175 0.007026
168 0.007015
114 0.00499
79 0.003988
64 0.004008
63 0.007981
68 0.007024
82 0.006984
92 0.007014
102 0.003995
105 0.004988
107 0.005935
111 0.007967
117 0.00798
124 0.004986
133 0.005985
141 0.005007
151 0.007974
159 0.005004
164 0.006979
168 0.007011
173 0.005946
177 0.005953
163 0.005951
117 0.007941
78 0.007977
56 0.005974
55 0.005992
59 0.005989
67 0.006987
80 0.005986
91 0.00698
95 0.007974
98 0.005006
101 0.004978
107 0.005989
115 0.007979
127 0.007993
136 0.007976
144 0.005991
151 0.005992
157 0.005984
166 0.005976
171 0.004985
178 0.007973
166 0.006981
123 0.005985
84 0.00595
66 0.005948
63 0.006981
68 0.006996
74 0.005984
87 0.006979
94 0.005987
103 0.00501
105 0.004987
109 0.007013
114 0.007016
122 0.006
131 0.005977
139 0.006016
150 0.007083
156 0.006016
162 0.006022
167 0.00599
173 0.006015
178 0.005988
159 0.005973
114 0.007972
83 0.007975
70 0.005993
74 0.006952
84 0.006013
94 0.006019
105 0.00697
113 0.006951
117 0.006981
118 0.006947
123 0.006981
131 0.006014
140 0.006018
148 0.007014
156 0.006986
165 0.006019
169 0.006938
176 0.006983
180 0.006965
185 0.006032
188 0.006976
168 0.006018
93 0.005967
73 0.006016
69 0.006015
73 0.006032
83 0.006013
93 0.005981
103 0.006978
110 0.006997
112 0.006999
114 0.006953
118 0.006009
124 0.006015
138 0.00696
146 0.005978
154 0.006008
161 0.005982
169 0.005985
173 0.005984
177 0.006007
182 0.005027
184 0.006948
145 0.005985
114 0.006978
76 0.006016
72 0.005958
79 0.005924
87 0.006032
97 0.006015
110 0.005978
115 0.004987
116 0.00599
118 0.006015
122 0.005004
130 0.004951
139 0.005956
147 0.005023
159 0.004965
166 0.005983
171 0.006021
175 0.005017
179 0.004989
184 0.00501
166 0.00599
123 0.00604
90 0.005952
78 0.005949
83 0.004979
94 0.006016
109 0.005984
118 0.005986
121 0.004985
122 0.005985
123 0.004987
126 0.004988
132 0.004986
139 0.005027
147 0.005021
154 0.005022
163 0.004991
171 0.006018
176 0.005981
180 0.005967
181 0.005983
154 0.006014
108 0.005983
75 0.004983
70 0.004992
74 0.004987
81 0.004983
91 0.004986
104 0.003985
111 0.005018
113 0.004987
115 0.004984
119 0.005984
125 0.004965
133 0.005022
144 0.004994
151 0.00499
157 0.005034
163 0.00502
168 0.004988
173 0.004987
179 0.005021
165 0.004981
119 0.003991
80 0.003991
63 0.004019
60 0.004021
65 0.003995
71 0.00394
79 0.003974
90 0.005019
97 0.00505
101 0.005017
104 0.004979
111 0.004987
119 0.004986
128 0.004977
137 0.003974
145 0.003963
154 0.004016
160 0.003985
165 0.003986
169 0.003994
173 0.004034
173 0.002978
126 0.005025
79 0.005003
65 0.004985
64 0.00498
69 0.004024
76 0.004023
89 0.003956
99 0.003996
104 0.004014
106 0.003994
108 0.002993
114 0.003994
123 0.003987
134 0.003989
142 0.004072
149 0.003986
156 0.00399
162 0.003026
167 0.004026
171 0.003956
175 0.00403
176 0.003987
151 0.004027
108 0.003994
74 0.00399
74 0.003991
82 0.004031
90 0.00396
101 0.00399
110 0.00399
114 0.002982
116 0.002952
118 0.002989
122 0.00296
129 0.002993
137 0.003024
150 0.00399
157 0.004038
165 0.004005
171 0.003987
175 0.00399
178 0.002993
182 0.002986
179 0.002963
143 0.00396
99 0.003027
75 0.00299
68 0.00303
73 0.003986
78 0.002993
91 0.003027
100 0.002992
106 0.002971
108 0.002992
110 0.002027
116 0.001998
123 0.001996
131 0.00299
140 0.001975
152 0.003049
159 0.003025
164 0.002992
171 0.003027
174 0.002993
179 0.003032
183 0.002995
168 0.002961
110 0.002987
81 0.001983
71 0.002034
70 0.00202
79 0.002994
87 0.002995
97 0.002003
107 0.003036
110 0.002992
112 0.002992
115 0.002992
121 0.001978
132 0.002003
140 0.001998
148 0.003054
155 0.002003
165 0.002004
170 0.001987
174 0.002036
179 0.002032
184 0.001998
179 0.001993
143 0.001995
104 0.002025
81 0.002992
81 0.003009
87 0.002037
94 0.002026
111 0.001995
117 0.001996
120 0.001995
121 0.002029
123 0.00301
128 0.002031
134 0.002028
142 0.002945
152 0.003032
158 0.002003
164 0.002024
170 0.001996
176 0.000999
180 0.002023
184 0.002015
179 0.002035
127 0.002046
91 0.002035
75 0.001997
72 0.002029
76 0.002006
84 0.001994
94 0.00101
103 0.002026
111 0.001019
113 0.001013
115 0.002055
120 0.001998
130 0.001986
138 0.002023
145 0.001996
153 0.002961
160 0.000998
167 0.001041
171 0.001029
175 0.002026
182 0.000997
185 0.002035
167 0.002057
121 0.002029
77 0.001995
65 0.001995
65 0.000998
69 0.000996
74 0.000997
86 0.001037
96 0.000991
101 0.000997
106 0.001003
109 0.002002
115 0.000984
123 0.001994
134 0.000993
143 0.000983
151 0.000997
158 0.001044
164 0.000966
171 0.000966
175 0.000967
179 0.0
186 0.000997
174 0.002041
132 0.0
93 0.0
73 0.0
73 0.0
78 0.0
84 0.0
93 0.000853
106 0.000967
111 0.0
114 0.000997
117 0.001001
123 0.0
130 0.0
139 0.000997
149 0.0
157 0.000998
163 0.0
168 0.0
173 0.0
177 0.0
182 0.0
183 0.0
152 0.0
110 0.0
87 0.000997
82 0.00096
88 0.000996
96 0.000997
106 0.0
116 0.0
122 0.0
124 0.0
125 0.0
131 0.0
137 0.0
144 0.0
151 0.000997
158 0.000997
167 0.0
172 0.0
177 0.0
181 0.0
184 0.0
189 0.0
175 0.0
104 0.00101
80 0.002027
73 0.003024
77 0.0
83 0.0
91 0.0
102 0.001056
110 0.003043
114 0.0
116 0.0
118 0.00095
124 0.0
138 0.000983
146 0.002044
154 0.002089
164 0.0
170 0.000968
175 0.000957
179 0.002017
183 0.002027
188 0.0
188 0.000957
161 0.000953
112 0.001988
71 0.000978
67 0.001985
70 0.002042
77 0.0
86 0.000963
96 0.0
104 0.003001
108 0.002995
111 0.000963
115 0.0
122 0.001006
130 0.002024
144 0.0
152 0.002026
160 0.002027
168 0.0
173 0.000997
178 0.00101
182 0.002045
186 0.002028
186 0.001003
152 0.000968
107 0.001961
81 0.003035
73 0.0
79 0.00305
86 0.003026
99 0.000971
108 0.000953
114 0.0
116 0.002029
118 0.002028
124 0.000958
131 0.001968
138 0.001001
146 0.003036
159 0.0
166 0.002034
172 0.003018
178 0.0
182 0.0
186 0.0
189 0.002981
174 0.002995
118 0.00098
91 0.000982
83 0.0
87 0.002025
101 0.0
112 0.00203
121 0.002027
126 0.001025
126 0.000978
127 0.001
129 0.002035
134 0.002004
143 0.000972
151 0.000968
158 0.0
169 0.0
175 0.0
179 0.0
183 0.002029
187 0.002026
179 0.0
138 0.0
97 0.000998
77 0.002022
73 0.004027
80 0.000973
87 0.001008
104 0.0
112 0.0
114 0.000963
115 0.003023
117 0.003023
123 0.0
130 0.000985
138 0.00096
145 0.002021
153 0.003032
161 0.00094
167 0.001007
174 0.0
177 0.0
181 0.0
172 0.003029
130 0.003024
76 0.0
61 0.0
60 0.0
64 0.003993
70 0.002993
83 0.001041
92 0.001045
100 0.001982
101 0.001991
105 0.001993
110 0.003045
117 0.003025
128 0.0
136 0.001979
144 0.001995
151 0.003023
157 0.004023
164 0.003032
168 0.001999
175 0.002992
165 0.002991
122 0.002992
83 0.002996
63 0.002986
61 0.003006
67 0.0
74 0.002995
83 0.002989
94 0.005029
102 0.00103
104 0.002036
108 0.002002
114 0.002008
121 0.002005
129 0.005031
137 0.004031
147 0.002988
154 0.002991
159 0.003009
164 0.002981
168 0.004039
173 0.003009
172 0.003001
111 0.002991
81 0.002992
69 0.002028
72 0.003991
79 0.004022
93 0.002996
104 0.002949
110 0.002011
112 0.004023
112 0.004993
113 0.003
118 0.002993
129 0.002987
136 0.002998
144 0.003011
151 0.003994
157 0.003985
162 0.004043
167 0.002992
171 0.001996
174 0.002994
155 0.005021
109 0.004989
68 0.001984
59 0.005019
66 0.002996
74 0.002001
83 0.002994
93 0.005026
99 0.00498
101 0.001981
103 0.002993
106 0.002987
112 0.004021
120 0.005002
133 0.00402
141 0.005035
150 0.002978
155 0.002028
160 0.003002
163 0.004983
167 0.003996
168 0.001997
137 0.003012
89 0.002991
60 0.004029
50 0.005017
53 0.004022
59 0.005017
70 0.00299
80 0.002988
87 0.002959
89 0.005017
92 0.006003
98 0.003011
104 0.001968
113 0.002991
121 0.005023
130 0.005024
142 0.004987
148 0.004987
155 0.002988
160 0.002027
164 0.003023
168 0.006023
153 0.005998
94 0.002987
65 0.003008
54 0.002992
56 0.005951
61 0.005986
74 0.005017
84 0.005018
94 0.002993
96 0.002994
98 0.003004
102 0.006
108 0.005984
118 0.002984
127 0.002958
135 0.003023
143 0.005986
148 0.007019
157 0.006016
161 0.005974
166 0.001981
170 0.00401
156 0.004017
115 0.006017
82 0.005987
66 0.002995
69 0.003033
76 0.003032
85 0.005949
95 0.005984
105 0.005984
107 0.006019
108 0.003931
112 0.003952
118 0.003991
126 0.003989
134 0.006981
142 0.006958
152 0.003991
158 0.00399
163 0.004009
167 0.006982
172 0.003997
177 0.006022
167 0.005983
110 0.002981
76 0.003991
62 0.003991
60 0.006974
64 0.006982
72 0.003989
82 0.004996
92 0.003992
97 0.007943
101 0.003993
104 0.006983
109 0.006955
120 0.004988
128 0.003998
136 0.003004
144 0.006978
151 0.006983
158 0.00502
162 0.003952
166 0.003982
170 0.007029
173 0.003951
144 0.007028
98 0.007013
63 0.003978
57 0.003942
59 0.003987
63 0.007013
73 0.007982
84 0.004986
92 0.004989
96 0.004991
99 0.007018
106 0.004002
113 0.007026
121 0.006982
133 0.003988
141 0.004988
148 0.003998
155 0.00699
162 0.007976
167 0.004992
171 0.004994
175 0.004975
173 0.004965
136 0.004964
94 0.007015
73 0.006981
68 0.004019
73 0.002992
79 0.003989
88 0.006972
101 0.007963
107 0.004986
109 0.004988
110 0.004958
117 0.004976
124 0.004992
133 0.007985
143 0.007976
150 0.004985
157 0.004988
162 0.004987
166 0.007981
171 0.007975
175 0.005948
177 0.005014
156 0.005994
93 0.005989
78 0.005956
77 0.007964
85 0.00796
94 0.005965
105 0.00499
113 0.004986
116 0.004983
116 0.007013
118 0.006961
122 0.004977
128 0.005984
141 0.004991
148 0.004953
155 0.005995
163 0.007977
168 0.007973
172 0.004992
175 0.004984
179 0.004987
169 0.006977
128 0.006964
88 0.00598
70 0.005985
68 0.005984
73 0.005984
79 0.005995
89 0.007974
101 0.006986
105 0.006977
107 0.006971
108 0.004994
115 0.006973
123 0.006995
131 0.005986
139 0.005986
151 0.005987
157 0.005985
162 0.00598
168 0.005984
172 0.006981
176 0.005985
149 0.005979
118 0.006943
75 0.007011
64 0.006973
64 0.005984
69 0.005984
80 0.005983
91 0.006002
100 0.005987
106 0.00698
108 0.006982
114 0.005972
121 0.005962
129 0.005975
138 0.00703
146 0.00699
154 0.00698
162 0.006984
169 0.00698
174 0.006967
177 0.00698
181 0.006982
162 0.00703
106 0.006928
82 0.006956
76 0.006021
78 0.005983
85 0.007017
92 0.005979
106 0.006015
116 0.005993
117 0.005985
119 0.005947
122 0.00602
128 0.006019
138 0.005971
146 0.006008
154 0.006015
161 0.00602
166 0.006979
170 0.005995
177 0.00694
181 0.006029
164 0.005997
122 0.006016
92 0.006014
80 0.006018
82 0.006
89 0.005978
98 0.005976
109 0.006016
117 0.006014
121 0.005955
123 0.005989
126 0.005018
134 0.00498
141 0.004986
149 0.004987
157 0.005984
164 0.005984
172 0.005984
177 0.005984
181 0.005983
184 0.006014
188 0.006017
158 0.006018
112 0.005017
79 0.004967
73 0.00495
76 0.004987
81 0.00502
88 0.004987
102 0.004983
109 0.004975
113 0.005963
115 0.00597
118 0.005977
128 0.005985
136 0.005017
147 0.004977
154 0.004984
161 0.004976
167 0.004979
172 0.00502
178 0.004975
182 0.004991
184 0.004986
164 0.00598
120 0.004988
81 0.003982
78 0.004021
84 0.003962
90 0.004974
100 0.004951
111 0.005036
118 0.005019
121 0.003948
123 0.004015
127 0.004983
134 0.00502
142 0.005021
155 0.004987
163 0.003991
172 0.004026
177 0.00397
181 0.003965
185 0.004994
190 0.004987
186 0.004998
152 0.00498
114 0.004979
95 0.00502
91 0.00502
101 0.003957
110 0.004023
124 0.003991
131 0.003952
133 0.00394
133 0.003989
135 0.004025
141 0.003951
147 0.003983
155 0.004985
162 0.005068
169 0.005038
179 0.004021
184 0.003984
189 0.00399
193 0.003978
181 0.00398
141 0.003956
107 0.003948
89 0.005068
91 0.003997
98 0.002997
106 0.004032
116 0.005025
129 0.003003
131 0.003023
132 0.003027
135 0.002989
140 0.003998
147 0.003992
154 0.004002
161 0.003992
171 0.003999
176 0.004021
181 0.004058
185 0.003991
191 0.00399
178 0.002992
134 0.003991
89 0.002965
78 0.002994
77 0.003046
82 0.002992
88 0.003988
101 0.003023
109 0.004026
114 0.003024
117 0.003995
120 0.003991
126 0.003988
133 0.003991
143 0.00399
151 0.004028
158 0.003998
164 0.002985
169 0.002992
175 0.003019
179 0.002985
179 0.002994
121 0.002987
88 0.003023
75 0.002992
74 0.003027
81 0.002993
88 0.002993
98 0.00203
108 0.001997
114 0.001995
117 0.002992
119 0.002988
124 0.002992
135 0.003028
143 0.003027
151 0.002993
158 0.002947
166 0.002992
171 0.003024
176 0.003022
180 0.002985
182 0.001994
148 0.002025
109 0.002027
88 0.001993
86 0.002017
93 0.001994
101 0.003027
112 0.002992
122 0.003044
125 0.002953
126 0.003023
127 0.00199
131 0.001995
140 0.001956
147 0.001995
154 0.002038
165 0.002042
171 0.002022
175 0.002026
180 0.00202
184 0.001997
172 0.001029
132 0.002028
98 0.00203
84 0.002986
84 0.00202
90 0.000998
98 0.002027
115 0.001029
120 0.001028
122 0.000992
123 0.000997
127 0.000998
133 0.002038
140 0.001996
147 0.001995
154 0.002026
161 0.00204
168 0.001992
173 0.002033
180 0.002049
182 0.001995
162 0.001996
118 0.001043
86 0.000997
71 0.001001
72 0.001041
77 0.001997
84 0.002021
94 0.002031
105 0.003039
109 0.002024
113 0.002029
117 0.002034
123 0.001996
130 0.000989
138 0.000998
148 0.002041
155 0.001003
161 0.001998
166 0.001002
170 0.002043
176 0.00203
171 0.0
108 0.001995
80 0.000999
69 0.000998
70 0.001
74 0.001953
83 0.000965
94 0.002035
104 0.000967
109 0.001959
111 0.000963
114 0.000997
121 0.000991
132 0.001003
140 0.000997
147 0.0
154 0.0
160 0.0
166 0.0
171 0.0
175 0.0
171 0.000994
138 0.000997
91 0.000998
76 0.000999
80 0.000998
87 0.0
96 0.0
107 0.001036
114 0.0
117 0.0
119 0.0
121 0.00103
126 0.0
133 0.0
144 0.0
153 0.000996
162 0.0
167 0.0
171 0.0
176 0.0
179 0.0
149 0.0
107 0.0
81 0.0
73 0.0
75 0.0
83 0.0
99 0.0
108 0.0
113 0.003039
115 0.001003
116 0.001003
122 0.0
129 0.0
136 0.0
144 0.0
153 0.000984
158 0.0
165 0.0
172 0.000989
177 0.0
174 0.002989
141 0.003054
87 0.0
68 0.0
64 0.0
67 0.002988
71 0.002984
83 0.0
93 0.0
100 0.000959
105 0.001004
109 0.0
113 0.00203
120 0.003031
131 0.0
139 0.000997
147 0.000998
153 0.002992
160 0.003036
166 0.000965
171 0.000967
173 0.000963
138 0.001982
86 0.000951
67 0.002998
63 0.003998
68 0.001003
74 0.000962
84 0.000992
95 0.002993
102 0.002001
106 0.0
109 0.000964
113 0.0
125 0.0
133 0.0
141 0.003023
148 0.003023
156 0.001005
161 0.0
166 0.0
171 0.003023
172 0.003025
134 0.000971
95 0.001016
75 0.0
74 0.000964
80 0.000965
88 0.003035
100 0.003021
110 0.0
113 0.00095
114 0.0
117 0.003024
121 0.003028
131 0.000954
139 0.0
146 0.0
158 0.000953
164 0.0
168 0.003025
173 0.003025
175 0.0
150 0.000998
107 0.0
78 0.003036
68 0.003079
72 0.0
78 0.000997
94 0.000966
104 0.000976
110 0.00095
112 0.002028
114 0.003988
120 0.001006
126 0.000997
134 0.000967
142 0.003004
149 0.002027
159 0.0
164 0.0
172 0.0
177 0.0
177 0.0
147 0.002987
100 0.002989
72 0.00305
61 0.0
63 0.0
69 0.0
77 0.003025
88 0.00303
100 0.0
105 0.00303
109 0.001994
114 0.001007
121 0.000999
129 0.002023
138 0.003013
149 0.0
156 0.0
163 0.0
168 0.002954
173 0.002979
179 0.0
150 0.002989
93 0.001958
70 0.0
65 0.0
68 0.003042
74 0.002999
86 0.0
98 0.000965
107 0.00096
111 0.002991
113 0.002993
118 0.0
126 0.004051
138 0.0
146 0.0
154 0.0
161 0.003035
167 0.003025
173 0.002005
178 0.002989
182 0.0
165 0.004026
121 0.003991
81 0.00102
