38 0.007021
47 0.006955
48 0.00704
54 0.004565
59 0.004038
62 0.001
56 0.0
41 0.000954
40 0.003023
45 0.003053
50 0.00395
43 0.004989
37 0.005987
33 0.007265
35 0.007289
37 0.006449
43 0.005345
42 0.00508
39 0.004638
39 0.003028
35 0.0
28 0.00116
15 0.000696
4 0.002995
2 0.002996
8 0.002989
10 0.002991
9 0.004031
3 0.002993
62 0.004312
69 0.006353
74 0.007698
78 0.006007
83 0.004614
93 0.003472
101 0.002239
97 0.002193
85 0.00161
82 0.0
86 0.000997
89 0.002
89 0.00394
87 0.004985
86 0.007628
88 0.006193
93 0.005092
99 0.004231
102 0.002154
102 0.002034
102 0.002122
102 0.002393
101 0.000966
98 0.0
93 0.001995
94 0.003988
96 0.006032
94 0.007361
96 0.006462
95 0.005557
94 0.003962
91 0.002938
91 0.002007
94 0.0
99 0.0
101 0.000953
101 0.001002
110 0.001993
112 0.002983
107 0.002562
111 0.004981
113 0.004967
113 0.005357
112 0.005983
111 0.006944
111 0.007541
111 0.006191
111 0.005154
112 0.005193
114 0.003234
98 0.000959
104 0.0
108 0.000993
106 0.001957
88 0.003002
85 0.004033
90 0.005935
95 0.005998
102 0.008035
102 0.007023
101 0.006327
103 0.005521
102 0.00348
105 0.002182
108 0.000999
116 0.0
122 0.000956
129 0.001001
140 0.001993
127 0.00299
117 0.003994
121 0.005984
124 0.005984
126 0.006862
127 0.008089
128 0.006239
134 0.006029
131 0.00512
127 0.004043
120 0.002598
113 0.000999
111 0.000983
110 0.000648
110 0.000851
112 0.001942
110 0.000998
108 0.002983
93 0.003032
68 0.004032
62 0.00711
63 0.007687
60 0.006083
59 0.005266
60 0.004587
54 0.003468
51 0.002104
53 0.0
54 0.0
56 0.001968
58 0.001995
61 0.004024
35 0.005025
39 0.005018
44 0.00597
41 0.006987
42 0.007463
38 0.005029
15 0.003587
58 0.001349
60 0.000964
65 0.0
66 0.0
67 0.000997
68 0.001997
68 0.003989
70 0.006139
74 0.006986
73 0.00779
75 0.006402
80 0.006531
78 0.00561
82 0.004014
86 0.002996
89 0.0
89 0.000999
77 0.0
73 0.0
75 0.001868
78 0.002991
81 0.004985
82 0.005858
80 0.007582
80 0.006623
83 0.005603
85 0.004076
87 0.003901
91 0.002002
94 0.0
95 0.000911
99 0.000948
98 0.001987
97 0.001992
83 0.002947
77 0.002958
79 0.005043
84 0.007369
84 0.007035
86 0.005453
86 0.001985
85 0.003059
88 0.000999
91 0.0
92 0.0
94 0.0
96 0.002002
99 0.003005
100 0.003995
100 0.007112
30 0.006636
24 0.005515
0 0.00434
37 0.003991
42 0.002992
52 0.002988
47 0.000986
52 0.000996
54 0.0
61 0.002009
60 0.002967
66 0.003992
72 0.004957
76 0.006283
83 0.007296
90 0.004984
93 0.003988
100 0.003902
104 0.001995
104 0.000997
107 0.0
89 0.001036
73 0.000955
136 0.002995
134 0.002977
134 0.003957
134 0.006033
134 0.007759
134 0.006003
134 0.003969
134 0.003989
134 0.002042
134 0.001988
134 0.0
134 0.001002
133 0.001998
135 0.002271
141 0.002958
143 0.003989
143 0.006582
151 0.005982
147 0.005539
131 0.004452
93 0.002987
94 0.003434
97 0.001995
97 0.001998
93 0.000965
97 0.0
93 0.0
92 0.001963
99 0.003733
104 0.004994
109 0.005029
107 0.005355
108 0.007897
112 0.006691
115 0.005347
116 0.00402
124 0.001983
127 0.001996
135 0.000997
140 0.001001
133 0.0
102 0.0
86 0.001957
93 0.002999
99 0.004987
98 0.005934
105 0.006945
107 0.006819
103 0.005982
106 0.004089
109 0.002932
115 0.0
124 0.000997
130 0.000391
131 0.000947
129 0.001003
137 0.002997
140 0.00499
144 0.005987
145 0.007334
163 0.004954
155 0.004986
142 0.004104
129 0.001996
135 0.001993
139 0.0
144 0.00103
146 0.002121
143 0.001995
139 0.003029
140 0.002989
152 0.005987
162 0.006514
171 0.006984
172 0.007391
175 0.006927
181 0.005989
176 0.004054
178 0.001064
173 0.001996
177 0.0
178 0.0
153 0.0
114 0.000999
100 0.003232
102 0.004991
107 0.005986
94 0.007014
109 0.007577
106 0.007177
102 0.006358
113 0.004951
112 0.003507
95 0.002785
103 0.000995
107 0.0
112 0.001558
119 0.004034
137 0.003994
141 0.004989
145 0.005985
171 0.006259
165 0.006694
152 0.003987
100 0.004879
101 0.004022
113 0.003954
125 0.004764
121 0.002994
119 0.002419
121 0.002956
119 0.0
113 0.0
124 0.000997
131 0.001995
136 0.002905
137 0.003913
139 0.005395
145 0.005987
140 0.006594
144 0.006859
158 0.004038
171 0.002103
173 0.001993
109 0.0
55 0.0
56 0.0
82 0.001007
81 0.002999
90 0.004475
93 0.005024
83 0.005927
93 0.007377
86 0.007404
99 0.005985
103 0.00609
108 0.004804
134 0.002535
133 0.0
146 0.000959
151 0.0
159 0.002026
163 0.002002
92 0.004991
59 0.005994
62 0.006025
76 0.006087
94 0.00399
104 0.004986
104 0.004256
93 0.005937
92 0.003979
100 0.004937
102 0.003999
125 0.004033
136 0.002188
138 0.002983
145 0.001441
156 0.000845
161 0.0
166 0.003038
94 0.004987
53 0.005954
55 0.007198
72 0.004981
73 0.00607
77 0.00498
82 0.003989
96 0.00242
106 0.002525
149 0.0
173 0.000963
181 0.0
175 0.002
180 0.002721
177 0.004114
198 0.00583
189 0.005943
185 0.00614
179 0.006626
94 0.005491
61 0.003782
59 0.003993
70 0.000954
71 0.002037
71 0.0
78 0.001001
67 0.003987
59 0.003988
66 0.004307
80 0.006932
83 0.006981
93 0.007029
99 0.006916
96 0.004264
84 0.004029
95 0.002992
85 0.002995
93 0.002002
99 0.001001
26 0.0
0 0.001
0 0.002995
0 0.00294
0 0.003959
0 0.002994
0 0.005964
0 0.006957
0 0.005313
0 0.004857
0 0.003021
2 0.002058
8 0.000981
14 0.001001
13 0.000842
22 0.0
31 0.001999
42 0.001953
59 0.002032
78 0.003882
37 0.003997
0 0.004953
0 0.006986
0 0.007072
0 0.006247
11 0.006084
13 0.002956
8 0.003366
15 0.001998
21 0.0
20 0.000997
50 0.0
63 0.001036
70 0.002991
80 0.003777
91 0.00399
98 0.00495
105 0.006229
123 0.006993
116 0.00714
39 0.006045
11 0.004858
19 0.003075
27 0.003005
29 0.001013
27 0.001053
34 0.001003
37 0.004025
44 0.005197
39 0.006015
68 0.007512
65 0.006021
74 0.005279
85 0.003938
96 0.003094
98 0.002033
104 0.000997
118 0.003039
129 0.000997
111 0.001037
35 0.00099
21 0.002886
28 0.003037
39 0.004984
27 0.005722
48 0.004993
70 0.00659
70 0.007352
75 0.007231
84 0.00587
91 0.006981
110 0.003454
114 0.002077
120 0.002079
130 0.0
136 0.000938
136 0.001002
153 0.001579
167 0.003906
173 0.004881
163 0.006069
81 0.007779
51 0.005788
58 0.005988
62 0.004862
61 0.004364
69 0.003904
62 0.001738
85 0.0
82 0.0
95 0.002
104 0.004031
109 0.005051
127 0.006984
127 0.005379
134 0.006223
145 0.005983
154 0.00492
167 0.003993
179 0.001996
183 0.001332
180 0.002146
106 0.0
77 0.000583
92 0.0
117 0.000994
131 0.002429
137 0.00292
126 0.003989
120 0.003566
135 0.005818
134 0.007884
153 0.006683
164 0.005856
164 0.00497
171 0.00241
167 0.000996
180 0.000959
176 0.001945
187 0.0
193 0.0
220 0.0
223 0.000997
168 0.000973
114 0.002029
120 0.00302
138 0.003913
136 0.004955
140 0.005657
145 0.007966
146 0.007561
143 0.006592
160 0.004951
158 0.001959
167 0.003079
167 0.000999
175 0.001003
190 0.0
196 0.001997
206 0.00299
215 0.003987
212 0.005973
223 0.006562
229 0.006974
192 0.004163
96 0.003029
99 0.003307
103 0.001033
135 0.000997
141 0.0
137 0.001003
116 0.003001
114 0.005031
106 0.005989
129 0.005946
160 0.007655
165 0.007979
189 0.007977
187 0.004419
176 0.004946
166 0.002991
160 0.003467
171 0.000951
179 0.0
165 0.001963
121 0.0
90 0.001995
107 0.003952
123 0.00494
135 0.006929
144 0.006979
132 0.005506
131 0.004893
140 0.003969
161 0.001998
171 0.001997
173 0.000958
192 0.000839
192 0.002279
189 0.00399
201 0.004993
201 0.006433
214 0.007051
221 0.006634
218 0.005099
136 0.00479
92 0.004986
103 0.004431
110 0.00305
105 0.002596
108 0.0
100 0.0
107 0.001043
112 0.001027
121 0.002973
132 0.003993
146 0.006055
152 0.007474
154 0.005928
166 0.003026
172 0.003995
181 0.001996
170 0.000995
182 0.0
159 0.000996
97 0.0
83 0.001036
96 0.00299
121 0.004979
133 0.005282
120 0.005948
123 0.00599
121 0.007021
116 0.006728
134 0.004322
135 0.002976
144 0.004581
139 0.002332
151 0.000775
161 0.0
163 0.000996
166 0.001999
170 0.004989
184 0.00499
158 0.005949
90 0.006991
99 0.007347
107 0.006058
106 0.004686
120 0.00375
123 0.002085
118 0.0
110 0.001998
116 0.0
129 0.0
134 0.001631
146 0.002744
153 0.003992
152 0.003997
164 0.004535
163 0.004965
159 0.006601
178 0.00743
197 0.006727
147 0.00299
96 0.003155
104 0.001952
115 0.000965
103 0.0
98 0.0
99 0.003006
88 0.002925
97 0.003004
110 0.004989
131 0.00599
154 0.006984
174 0.006063
172 0.006937
176 0.004585
186 0.004033
183 0.002988
190 0.003028
193 0.001372
209 0.000998
181 0.001012
117 0.002038
98 0.002961
104 0.002959
125 0.002995
120 0.003998
122 0.004039
117 0.004948
121 0.006576
122 0.007117
110 0.00508
129 0.00299
125 0.002196
123 0.002068
147 0.0015
150 0.0
150 0.002992
163 0.002996
165 0.00499
176 0.005987
157 0.007877
95 0.006063
79 0.005228
80 0.002024
91 0.001993
91 0.001955
107 0.001994
92 0.000986
86 0.000995
80 0.0
83 0.001999
97 0.001956
112 0.002994
133 0.003992
142 0.005261
156 0.007021
159 0.007462
160 0.004072
170 0.004259
177 0.002991
187 0.001995
152 0.002035
83 0.0
80 0.001995
92 0.000991
97 0.001996
94 0.000938
101 0.00294
105 0.002991
111 0.002969
116 0.001988
122 0.003952
139 0.003987
148 0.00471
155 0.006063
152 0.006929
160 0.004985
171 0.004972
181 0.003949
191 0.005003
197 0.001988
213 0.002813
198 0.001996
151 0.001892
116 0.0
134 0.001996
145 0.001995
144 0.003995
148 0.005987
161 0.006704
166 0.007323
174 0.004967
194 0.004024
198 0.002951
214 0.001004
223 0.000935
210 0.0
216 0.000954
219 0.000997
226 0.001995
235 0.003029
241 0.004593
255 0.004999
253 0.007082
186 0.007981
171 0.006976
156 0.005379
181 0.002993
186 0.003955
195 0.0
193 0.0
185 0.000998
189 0.000949
192 0.003004
208 0.003944
217 0.005027
227 0.006787
221 0.006999
228 0.005266
229 0.003952
245 0.004296
254 0.001994
249 0.0037
255 0.00295
255 0.001963
184 0.000997
181 0.0
191 0.000961
208 0.001002
208 0.001998
203 0.003958
202 0.00602
198 0.004984
203 0.007026
202 0.006096
210 0.002033
218 0.002958
227 0.001994
221 0.00095
224 0.0
118 0.00295
187 0.001009
189 0.0
189 0.0
173 0.002028
151 0.002866
137 0.004038
145 0.005273
148 0.006558
153 0.00768
154 0.005984
148 0.006015
152 0.002959
148 0.003049
152 0.001965
154 0.0
159 0.0
157 0.000587
163 0.000965
163 0.0
161 0.0
166 0.0
166 0.000819
176 0.001996
168 0.002937
140 0.006012
123 0.004989
127 0.00792
140 0.007983
143 0.006984
143 0.006018
139 0.002035
138 0.002947
140 0.0
141 0.0
147 0.0
148 0.002029
151 0.001996
151 0.003027
154 0.004989
160 0.007154
160 0.005953
156 0.005287
164 0.004025
160 0.003024
134 0.002007
128 0.003004
132 0.000964
133 0.00203
136 0.001996
142 0.002051
134 0.003032
144 0.0
158 0.0
165 0.0
174 0.002033
184 0.002996
189 0.004974
185 0.005986
187 0.005986
189 0.007289
190 0.006187
191 0.007014
143 0.006124
115 0.004984
126 0.001929
140 0.002793
148 0.002047
151 0.001997
156 0.002041
149 0.002563
156 0.001998
166 0.001027
165 0.001792
169 0.0
167 0.0
166 0.001046
157 0.002998
169 0.004037
160 0.005953
174 0.005787
115 0.00589
81 0.006018
83 0.003949
88 0.003923
91 0.003909
95 0.002013
111 0.003163
111 0.001994
108 0.000555
124 0.000948
129 0.001353
139 0.002946
152 0.003025
160 0.003912
154 0.005052
166 0.00782
164 0.007246
156 0.006506
163 0.002993
120 0.003994
75 0.002991
85 0.00096
98 0.001994
115 0.0
104 0.0
107 0.0
93 0.001037
102 0.002952
120 0.004281
128 0.004991
146 0.005986
167 0.006884
171 0.005028
173 0.004933
187 0.003361
182 0.00322
191 0.002306
190 0.0
142 0.0
91 0.000999
96 0.002996
105 0.004025
112 0.005706
113 0.004947
110 0.00598
108 0.005067
104 0.004021
118 0.002953
126 0.004102
130 0.004993
134 0.000993
131 0.003535
147 0.001541
145 0.001033
157 0.002
161 0.0
181 0.0
158 0.002
87 0.003958
65 0.00477
81 0.005127
90 0.006021
75 0.007556
95 0.005154
88 0.004423
86 0.003818
88 0.001995
101 0.000965
107 0.001983
113 0.0
131 0.000596
130 0.0
139 0.0
142 0.000997
139 0.001039
144 0.001996
156 0.003007
122 0.004039
59 0.006619
57 0.007706
72 0.006335
82 0.005337
90 0.001985
87 0.003113
77 0.0
79 0.000998
77 0.000866
94 0.000962
97 0.003045
102 0.003992
107 0.004985
112 0.006389
118 0.006624
121 0.007154
138 0.004836
132 0.004948
145 0.004455
126 0.00403
63 0.002976
58 0.003792
83 0.0
94 0.000611
104 0.0
97 0.001962
86 0.002992
91 0.004991
100 0.005828
117 0.005983
130 0.007463
136 0.005816
145 0.005152
142 0.005183
162 0.002854
151 0.002757
161 0.0
160 0.001995
151 0.000998
87 0.003038
59 0.0
79 0.001
90 0.000998
85 0.001942
91 0.002002
86 0.003989
91 0.004904
103 0.005954
101 0.00748
123 0.005452
134 0.00653
135 0.005005
146 0.001993
147 0.002047
155 0.002141
149 0.0
152 0.000961
157 0.0
130 0.0
79 0.0
53 0.000994
56 0.002981
60 0.004027
54 0.006117
57 0.006979
61 0.004987
60 0.007569
66 0.003993
70 0.004064
79 0.00314
98 0.0
108 0.0
113 0.001011
119 0.001958
131 0.002107
138 0.005302
136 0.006952
153 0.005925
138 0.004707
54 0.004256
38 0.00249
51 0.001998
64 0.002314
56 0.00204
65 0.001801
67 0.000969
76 0.0
70 0.0
78 0.002001
91 0.002989
96 0.003953
107 0.004988
117 0.006641
128 0.007148
140 0.005195
155 0.002494
155 0.001013
154 0.0
158 0.00095
110 0.000918
54 0.0
51 0.002005
70 0.001996
65 0.003174
77 0.003026
83 0.004986
82 0.006618
88 0.007381
89 0.0059
97 0.005005
108 0.00403
123 0.000988
131 0.00205
130 0.0
140 0.000795
137 0.001036
155 0.000996
155 0.00399
164 0.004955
176 0.006315
128 0.0066
82 0.005511
67 0.002992
92 0.002942
110 0.003101
101 0.000963
110 0.0
103 0.001946
104 0.002993
116 0.003951
130 0.004988
151 0.004991
150 0.006982
150 0.007507
156 0.006246
158 0.004401
168 0.001981
178 0.003086
192 0.0
204 0.0
207 0.0
169 0.000997
110 0.003953
107 0.003988
132 0.004986
143 0.004951
151 0.006801
156 0.006733
154 0.006988
163 0.006981
165 0.008292
176 0.006078
176 0.005053
183 0.00608
183 0.001996
185 0.002582
201 0.000998
200 0.0
216 0.000998
219 0.001996
237 0.002992
244 0.004952
161 0.006059
121 0.007155
129 0.006342
153 0.005592
163 0.004123
162 0.002958
162 0.001951
160 0.003026
160 0.0
176 0.001725
187 0.0
190 0.001007
198 0.001996
205 0.00393
202 0.003958
217 0.005982
221 0.006036
228 0.006691
242 0.00702
255 0.004948
243 0.007187
149 0.005571
118 0.002991
125 0.002992
140 0.001993
135 0.0
144 0.0
149 0.0
142 0.001996
148 0.003051
150 0.004052
175 0.005925
178 0.007013
180 0.007737
190 0.007435
188 0.00299
194 0.00399
203 0.0
208 0.000961
219 0.000968
208 0.0
174 0.0
127 0.001993
105 0.003935
135 0.003992
146 0.005981
167 0.006986
162 0.006114
147 0.005456
148 0.002029
153 0.00499
173 0.001994
177 0.001994
188 0.002454
189 0.002994
192 0.000877
192 0.00303
208 0.00299
209 0.00296
225 0.003988
224 0.00399
163 0.005661
114 0.006027
123 0.006983
131 0.004981
146 0.004003
146 0.005984
137 0.003959
129 0.003382
131 0.002853
143 0.0
148 0.000998
163 0.00096
175 0.002998
176 0.003993
179 0.006556
170 0.006904
171 0.007626
179 0.00571
184 0.005981
139 0.004351
73 0.003065
75 0.003062
99 0.0
93 0.0
96 0.001005
93 0.001996
92 0.003107
101 0.00499
96 0.00589
110 0.005983
113 0.005582
126 0.007016
126 0.006295
133 0.004987
129 0.00495
144 0.004004
147 0.003053
166 0.002
160 0.0
101 0.000966
51 0.000917
54 0.002032
79 0.003034
83 0.005021
93 0.007201
89 0.003984
92 0.002954
91 0.003005
106 0.000964
106 0.000962
120 0.000999
123 0.0
126 0.001186
134 0.002964
139 0.002356
145 0.001846
153 0.003041
161 0.004989
163 0.005021
112 0.007982
60 0.00671
63 0.005393
87 0.005017
100 0.002609
92 0.003691
97 0.001034
92 0.0
102 0.000986
114 0.0
120 0.00101
132 0.000967
143 0.001048
146 0.003941
149 0.003905
158 0.004988
163 0.005127
166 0.007375
175 0.004986
193 0.00602
171 0.003016
107 0.004649
73 0.001998
89 0.002992
107 0.002477
106 0.001003
119 0.0
107 0.000999
118 0.00304
120 0.003993
125 0.005984
142 0.006964
157 0.006976
153 0.006472
160 0.00515
161 0.002942
160 0.002992
172 0.003005
185 0.0
194 0.00404
207 0.001035
192 0.0
108 0.001006
106 0.002026
128 0.002995
134 0.005984
148 0.006977
144 0.007705
132 0.007133
125 0.005984
128 0.005808
146 0.00196
144 0.003483
160 0.00335
160 0.001961
169 0.000957
169 0.002039
178 0.00096
193 0.0
189 0.0
200 0.002046
121 0.004901
83 0.00433
94 0.005951
116 0.006681
120 0.005438
120 0.007737
121 0.005982
119 0.006132
124 0.004108
134 0.0
143 0.002052
151 0.0
159 0.0
155 0.000957
158 0.001961
162 0.002609
162 0.004836
169 0.005022
183 0.005019
172 0.004986
79 0.0033
64 0.001956
84 0.004024
90 0.0
87 0.002054
93 0.0
94 0.001039
105 0.001995
112 0.002997
118 0.003993
130 0.005757
145 0.006148
150 0.007982
151 0.005543
160 0.003989
169 0.002955
175 0.00237
177 0.0
181 0.0
150 0.000339
68 0.00101
62 0.001996
87 0.003964
92 0.005934
96 0.007458
103 0.006266
102 0.005664
110 0.005332
114 0.005023
123 0.00303
141 0.0
150 0.001598
161 0.0
161 0.000998
167 0.001935
179 0.004008
188 0.00535
184 0.005987
190 0.004977
197 0.004155
141 0.003989
72 0.001982
71 0.001996
82 0.001998
73 0.001001
74 0.002644
84 0.002018
86 0.001996
97 0.001999
108 0.00494
127 0.005622
130 0.006021
145 0.006827
152 0.007802
161 0.006342
170 0.003322
169 0.004457
182 0.002088
201 0.0
201 0.0
126 0.000998
105 0.0
120 0.001031
134 0.003051
136 0.00593
140 0.006563
139 0.006024
146 0.007217
148 0.004988
155 0.005239
170 0.00421
174 0.00329
182 0.003008
186 0.0
192 0.002521
189 0.0
186 0.002028
195 0.002993
156 0.004949
89 0.006765
93 0.006911
105 0.007233
118 0.002984
120 0.003991
129 0.003921
119 0.003995
123 0.002969
140 0.001932
144 0.002203
154 0.00094
167 0.001034
174 0.0
170 0.001037
173 0.003041
179 0.002991
184 0.003983
161 0.005987
91 0.006807
90 0.005739
111 0.005648
136 0.002027
159 0.001977
167 0.0
169 0.001966
171 0.00093
183 0.0
193 0.001964
200 0.003031
204 0.003992
204 0.003997
210 0.005812
210 0.005997
208 0.005984
185 0.004988
128 0.005501
110 0.007771
126 0.004819
144 0.005131
147 0.003335
149 0.0
142 0.002038
136 0.0
144 0.0
151 0.002028
156 0.001992
159 0.002001
160 0.003953
154 0.005594
151 0.006875
150 0.006256
160 0.003954
155 0.00443
86 0.002987
70 0.003225
91 0.002452
90 0.002041
101 0.003026
94 0.0
102 0.0
107 0.001999
117 0.003319
127 0.00255
139 0.003987
152 0.005296
168 0.005414
165 0.005796
175 0.003584
182 0.003532
191 0.001961
172 0.0
130 0.001994
95 0.0
109 0.001052
126 0.001038
125 0.002959
144 0.003209
142 0.00404
143 0.005028
147 0.005392
153 0.005941
162 0.008221
173 0.006992
182 0.006945
189 0.006948
190 0.003033
200 0.004075
211 0.001962
217 0.0
196 0.0
113 0.0
93 0.0
106 0.000999
120 0.002029
109 0.005025
119 0.004991
120 0.004987
120 0.005908
118 0.005999
126 0.007381
131 0.007822
135 0.006314
140 0.004974
135 0.001993
140 0.003433
147 0.000992
158 0.000997
155 0.0
162 0.001998
148 0.002993
99 0.002963
45 0.003959
59 0.005851
69 0.006873
68 0.006659
77 0.004986
77 0.003961
76 0.004874
86 0.004441
87 0.001959
91 0.002023
106 0.0
109 0.000994
109 0.001944
117 0.002047
123 0.002986
137 0.003948
137 0.005812
149 0.005947
164 0.007587
154 0.004383
76 0.003179
54 0.003023
67 0.0
85 0.000964
91 0.0
93 0.001011
81 0.001994
90 0.001961
86 0.002991
101 0.004991
102 0.006018
111 0.005991
111 0.007795
111 0.005033
114 0.00541
119 0.004024
131 0.002326
130 0.001981
146 0.000899
153 0.002971
109 0.0
50 0.001927
47 0.001001
71 0.002843
88 0.003026
92 0.005067
96 0.006138
92 0.005465
99 0.002994
108 0.004067
125 0.003093
137 0.002993
147 0.002945
151 0.0
155 0.000996
161 0.002017
157 0.003989
174 0.005458
177 0.005198
185 0.007654
185 0.002992
148 0.004751
80 0.001985
94 0.001978
112 0.000967
134 0.0
132 0.0
134 0.0
136 0.0
140 0.000838
152 0.00195
162 0.003004
174 0.003942
178 0.004633
177 0.005678
187 0.006987
188 0.006981
187 0.007539
197 0.006492
193 0.004857
211 0.003928
196 0.002023
145 0.002372
104 0.001033
115 0.000995
133 0.000998
137 0.00305
149 0.004034
154 0.005005
161 0.005854
166 0.005532
171 0.006819
186 0.003987
204 0.005756
204 0.006285
208 0.003536
223 0.005797
226 0.002991
238 0.003391
239 0.002995
240 0.003032
252 0.002083
222 0.0
169 0.0
138 0.000957
143 0.002061
158 0.001998
164 0.002995
162 0.005738
161 0.006757
163 0.006472
169 0.005688
176 0.001995
195 0.002007
211 0.002978
218 0.002003
214 0.002059
214 0.00195
211 0.001614
216 0.001045
208 0.002955
224 0.003935
231 0.004997
182 0.00599
150 0.006983
141 0.006977
163 0.005865
178 0.005445
185 0.003975
183 0.003199
187 0.001964
197 0.000999
205 0.0
212 0.0
234 0.001998
235 0.000959
179 0.001047
181 0.000965
180 0.001963
178 0.004943
175 0.005993
183 0.006771
181 0.005903
159 0.005547
133 0.00499
135 0.005026
146 0.002272
150 0.000644
151 0.0
156 0.001944
156 0.004031
158 0.00499
164 0.006985
164 0.005944
168 0.006361
169 0.005221
173 0.002984
170 0.003398
172 0.002958
177 0.002031
177 0.003049
179 0.000965
175 0.001035
137 0.0
120 0.0
120 0.002031
131 0.001996
132 0.002851
133 0.004992
135 0.007017
134 0.008369
138 0.007283
142 0.002988
144 0.004259
151 0.002364
151 0.000991
153 0.002012
151 0.0
153 0.003032
154 0.0
154 0.001995
159 0.0
165 0.0
137 0.001067
118 0.001141
116 0.002932
122 0.004262
131 0.005951
141 0.006947
142 0.007857
140 0.003156
144 0.004555
151 0.000958
168 0.001997
176 0.002052
184 0.0
184 0.0
181 0.0
184 0.000739
189 0.0
189 0.00091
198 0.001997
206 0.003026
196 0.005567
113 0.005985
100 0.006533
101 0.006981
110 0.006306
115 0.005252
122 0.003942
128 0.002521
115 0.001
125 0.0
133 0.001956
149 0.002995
158 0.00402
166 0.00701
168 0.00602
179 0.00753
189 0.003961
201 0.002957
203 0.002003
203 0.0
210 0.0
179 0.000991
138 0.002045
110 0.002994
133 0.004919
136 0.005646
135 0.004988
136 0.006687
137 0.006311
135 0.00603
141 0.003133
143 0.005206
151 0.000966
156 0.000996
161 0.000942
169 0.0
171 0.0
175 0.001906
178 0.002995
187 0.005167
191 0.005622
197 0.006248
185 0.006114
133 0.006646
93 0.00401
104 0.006025
113 0.003987
112 0.005026
116 0.003371
119 0.002702
117 0.003995
123 0.000969
124 0.00261
129 0.0
140 0.002004
138 0.001999
139 0.003037
143 0.004985
146 0.00598
150 0.00612
150 0.005018
149 0.00395
162 0.003991
146 0.001988
102 0.001999
66 0.000958
74 0.0
86 0.001954
92 0.000964
89 0.001998
82 0.003992
87 0.005079
88 0.00495
100 0.007809
108 0.007942
118 0.006066
129 0.001961
128 0.004379
135 0.001949
136 0.0
141 0.0
147 0.0
147 0.000998
156 0.0
136 0.001998
67 0.003993
55 0.004035
60 0.006259
70 0.006853
73 0.005121
73 0.006022
66 0.004884
68 0.003413
72 0.002996
85 0.0
94 0.002091
93 0.0
95 0.001004
94 0.001928
107 0.004029
115 0.004749
121 0.005095
130 0.006063
141 0.006546
143 0.007411
103 0.006403
51 0.003991
48 0.002938
71 0.004027
78 0.005195
77 0.00299
83 0.003752
79 0.002317
77 0.002192
87 0.001439
99 0.000995
109 0.001038
116 0.003023
120 0.003991
120 0.005876
124 0.00698
133 0.006865
132 0.007627
146 0.004892
150 0.00276
114 0.001994
61 0.0
78 0.0
114 0.002031
120 0.003204
119 0.004026
116 0.006038
111 0.006504
121 0.006981
132 0.00622
144 0.002988
160 0.004594
169 0.00432
170 0.003989
169 0.002997
185 0.0
191 0.001996
206 0.000999
226 0.0
236 0.001997
179 0.003948
113 0.003989
115 0.004139
132 0.00594
138 0.006052
137 0.003959
134 0.003973
139 0.005247
145 0.002403
147 0.004029
158 0.002032
160 0.003036
163 0.00218
168 0.0
174 0.000991
181 0.0
189 0.002991
196 0.003991
204 0.00499
215 0.006746
188 0.007951
123 0.004985
112 0.003424
132 0.003418
144 0.003955
137 0.002006
138 0.0
140 0.0
148 0.000998
149 0.0
157 0.002051
172 0.003951
179 0.004874
183 0.006597
190 0.007776
190 0.006819
193 0.004918
202 0.003793
209 0.002002
216 0.002037
198 0.0
131 0.0
111 0.001155
123 0.003025
144 0.002991
144 0.004987
141 0.006922
142 0.006181
144 0.004871
150 0.002959
162 0.002466
172 0.002384
180 0.001994
181 0.00339
179 0.00096
188 0.002733
199 0.001996
198 0.002035
201 0.0
207 0.001957
210 0.002981
152 0.005252
99 0.006585
95 0.00694
110 0.005499
113 0.003989
109 0.003992
109 0.002114
103 0.000959
94 0.001994
89 0.0
110 0.001035
114 0.000487
120 0.0
134 0.002925
136 0.002996
142 0.004933
150 0.004911
159 0.006633
166 0.006956
176 0.007426
173 0.007445
109 0.006255
78 0.00262
84 0.004252
107 0.000963
112 0.0
117 0.0
119 0.0
129 0.000998
129 0.0
155 0.0
172 0.001994
179 0.001979
184 0.003001
192 0.006027
200 0.005009
203 0.006752
210 0.006667
214 0.002951
219 0.003234
205 0.002317
158 0.001995
120 0.001999
134 0.001009
154 0.001995
156 0.003432
159 0.003986
152 0.002956
149 0.005543
149 0.00677
156 0.005007
165 0.005248
175 0.003958
182 0.002026
188 0.002994
189 0.002002
185 0.00221
190 0.001995
197 0.002031
197 0.0
147 0.001957
99 0.002834
101 0.003995
121 0.004994
128 0.006594
123 0.00511
123 0.007644
120 0.004034
123 0.003111
132 0.0
153 0.001951
159 0.0
159 0.002993
168 0.000997
167 0.002945
167 0.0
183 0.001065
189 0.00285
190 0.003041
122 0.003993
102 0.004975
115 0.006846
135 0.007028
141 0.006533
144 0.005921
137 0.004869
122 0.001993
123 0.002025
131 0.001001
140 0.001001
145 0.001019
152 0.000997
160 0.003022
157 0.004972
166 0.005785
173 0.005953
165 0.005492
98 0.003047
77 0.002465
92 0.001955
104 0.0
103 0.002307
107 0.000963
108 0.000995
110 0.001034
121 0.002994
135 0.00403
141 0.003991
153 0.005946
154 0.005345
157 0.005988
166 0.004071
174 0.006352
175 0.004025
103 0.00203
79 0.002991
85 0.0
99 0.0
92 0.0
89 0.001989
87 0.002642
92 0.002849
97 0.003993
107 0.005705
116 0.006483
126 0.007017
134 0.006933
136 0.005082
148 0.004985
159 0.001014
167 0.002031
178 0.000994
148 0.0
98 0.001037
80 0.000997
108 0.002996
119 0.002996
125 0.00402
132 0.004989
133 0.005988
135 0.005899
148 0.00395
158 0.002486
165 0.0
172 0.002323
172 0.001998
174 0.0
187 0.000998
183 0.001997
199 0.002988
203 0.00495
151 0.005874
116 0.007465
109 0.006308
138 0.002955
148 0.004459
157 0.000965
155 0.0
161 0.000997
163 0.001034
180 0.00099
190 0.004033
198 0.00399
206 0.005158
211 0.005991
210 0.005491
217 0.00404
221 0.006022
235 0.00295
235 0.002675
234 0.003041
211 0.002995
135 0.002036
133 0.0
163 0.001
174 0.003011
177 0.004026
180 0.003979
180 0.005124
174 0.00615
182 0.006964
192 0.005161
198 0.005446
206 0.003021
208 0.003938
206 0.004614
210 0.003994
217 0.001993
221 0.000842
231 0.0
235 0.001
203 0.001936
140 0.003003
128 0.001955
144 0.004178
147 0.004994
148 0.006985
152 0.006853
152 0.007467
151 0.004987
163 0.00497
174 0.003039
184 0.002995
194 0.000984
194 0.0
203 0.003999
206 0.0
216 0.0
217 0.000987
225 0.003037
227 0.002642
193 0.006035
142 0.007012
147 0.007005
165 0.007097
172 0.007983
177 0.006984
173 0.006215
164 0.002976
164 0.004024
154 0.0
161 0.000997
159 0.0
168 0.002033
182 0.003993
193 0.004988
204 0.006081
215 0.005984
219 0.005312
226 0.00399
232 0.004048
182 0.003002
124 0.0
120 0.00203
140 0.000793
144 0.001038
144 0.000959
155 0.002044
148 0.003717
147 0.00399
156 0.005691
158 0.008071
158 0.006159
166 0.00495
167 0.004975
162 0.002988
170 0.002952
172 0.00295
169 0.002996
172 0.002991
176 0.002961
141 0.004039
78 0.002005
73 0.002955
99 0.003037
107 0.002035
107 0.001029
109 0.0
104 0.001032
108 0.004126
122 0.005989
135 0.007015
162 0.008015
178 0.002955
181 0.005454
184 0.004026
183 0.002994
186 0.0
189 0.0
197 0.000998
183 0.000961
117 0.000788
95 0.002
107 0.003991
128 0.005998
136 0.005952
140 0.006865
135 0.005024
142 0.0063
152 0.005141
160 0.004276
174 0.004017
177 0.004021
177 0.00395
187 0.0
193 0.002993
202 0.000998
213 0.0
217 0.0
225 0.0
173 0.000997
123 0.000998
113 0.003802
141 0.004996
147 0.005906
151 0.004953
152 0.006831
153 0.003697
149 0.005169
153 0.004977
164 0.002991
172 0.000997
174 0.0
177 0.002004
184 0.001969
188 0.003989
190 0.00499
188 0.006811
188 0.00402
199 0.001979
194 0.003328
109 0.002974
83 0.000999
97 0.000994
116 0.0
119 0.000996
125 0.001
124 0.001995
127 0.00305
131 0.005144
143 0.005312
155 0.007012
164 0.006991
167 0.007737
167 0.006986
170 0.00699
174 0.006102
186 0.0
193 0.002319
197 0.000993
204 0.000903
190 0.0
117 0.001957
112 0.003056
139 0.004989
152 0.006026
158 0.006384
151 0.004255
150 0.004003
150 0.003641
161 0.002462
175 0.004316
184 0.004027
187 0.001994
185 0.00399
187 0.003026
181 0.003006
180 0.002037
182 0.0
187 0.001995
196 0.0
153 0.001065
100 0.001999
93 0.00298
125 0.005136
139 0.005907
141 0.00687
143 0.005984
145 0.005002
145 0.002951
152 0.00499
161 0.002026
168 0.002993
177 0.0
182 0.0
181 0.001997
184 0.002994
188 0.003027
182 0.005011
192 0.004988
194 0.005984
175 0.005976
111 0.00609
91 0.007283
106 0.003954
138 0.003036
145 0.002957
147 0.002028
148 0.002988
148 0.001992
159 0.0
171 0.001894
182 0.0
194 0.000883
201 0.002033
206 0.00402
212 0.005498
222 0.006977
223 0.005454
221 0.006379
234 0.005083
234 0.002015
208 0.003985
139 0.000998
132 0.002995
162 0.001974
184 0.0
183 0.0
185 0.001116
181 0.002996
173 0.006292
181 0.006152
195 0.004948
209 0.005114
208 0.004231
212 0.004022
213 0.004062
221 0.002868
223 0.001994
226 0.0
223 0.003031
229 0.0
217 0.001038
163 0.001857
112 0.002995
126 0.004949
140 0.005014
157 0.005086
166 0.00698
157 0.006941
152 0.004975
155 0.003933
154 0.001985
162 0.001993
172 0.002995
171 0.0
168 0.001996
176 0.0
174 0.003992
177 0.0
177 0.0
187 0.00195
188 0.001997
171 0.002995
108 0.003135
95 0.003988
105 0.003952
134 0.004699
138 0.004982
136 0.004987
125 0.004964
124 0.007015
131 0.006935
140 0.006744
147 0.005986
164 0.004951
161 0.003158
167 0.002992
172 0.0
176 0.003029
183 0.0
180 0.0
181 0.002038
149 0.003989
84 0.004156
77 0.006356
102 0.00747
114 0.007047
121 0.007976
124 0.006015
124 0.006027
116 0.002311
128 0.002943
134 0.000996
137 0.001992
148 0.002022
140 0.0
141 0.0
144 0.002
140 0.003032
147 0.003777
153 0.006192
150 0.007002
131 0.007979
45 0.006176
28 0.006125
40 0.00424
53 0.0
61 0.003293
66 0.001998
64 0.0
64 0.001041
69 0.001228
76 0.002995
84 0.002929
99 0.002992
107 0.002987
110 0.003985
119 0.003991
118 0.003989
129 0.005081
134 0.006981
140 0.00735
146 0.005205
91 0.006323
39 0.00336
42 0.005003
66 0.004206
73 0.003496
74 0.002283
72 0.0
70 0.001003
73 0.002032
79 0.002029
94 0.003991
97 0.004989
104 0.005987
105 0.006075
98 0.005199
107 0.005019
108 0.003142
108 0.003127
113 0.0
128 0.001951
104 0.0
33 0.002995
6 0.0
8 0.001997
31 0.003001
30 0.004001
24 0.005608
13 0.007314
15 0.004041
18 0.007476
24 0.004132
34 0.0
40 0.002992
48 0.002955
47 0.001997
52 0.0
59 0.000982
60 0.0
66 0.001942
75 0.001995
77 0.003993
39 0.00399
0 0.004961
0 0.004936
0 0.005984
0 0.006738
0 0.007315
0 0.007693
0 0.007012
0 0.00305
0 0.005452
0 0.001996
20 0.001035
30 0.000992
40 0.0
48 0.000207
51 0.0
63 0.000968
67 0.000955
77 0.002032
85 0.003952
43 0.003984
0 0.004982
0 0.005949
19 0.007947
22 0.006206
31 0.006681
27 0.004031
20 0.00598
22 0.004993
32 0.004073
54 0.00399
65 0.000961
76 0.001987
86 0.000992
93 0.000935
94 0.001106
102 0.0
115 0.001002
123 0.002091
130 0.003891
93 0.005155
44 0.004762
8 0.004985
17 0.006981
25 0.006984
20 0.007979
19 0.006981
22 0.006323
22 0.005101
37 0.003094
44 0.003354
56 0.000997
62 0.00226
68 0.000996
75 0.000315
83 0.0
93 0.000939
98 0.002885
108 0.004952
116 0.003934
102 0.005706
38 0.005754
6 0.004923
66 0.003182
71 0.005047
70 0.000995
73 0.003342
71 0.002948
71 0.002007
70 0.002012
71 0.002004
80 0.002043
88 0.0
93 0.0
96 0.001956
95 0.002998
95 0.005028
104 0.006273
108 0.004524
115 0.002036
120 0.002961
108 0.002025
77 0.002108
73 0.003024
85 0.0
98 0.0
99 0.000998
98 0.001994
99 0.00303
99 0.004837
106 0.006689
113 0.006961
121 0.006889
129 0.007568
134 0.007016
134 0.006845
136 0.005024
143 0.0
148 0.003025
153 0.000963
157 0.00196
150 0.000997
119 0.000893
107 0.002036
113 0.002995
124 0.001998
129 0.003991
129 0.005878
127 0.005809
130 0.007012
131 0.004185
136 0.006195
143 0.004986
157 0.004987
162 0.004989
169 0.001961
175 0.002996
183 0.0
185 0.001931
195 0.0
203 0.001
175 0.001018
143 0.000757
133 0.002005
147 0.003993
150 0.005201
153 0.00599
161 0.005953
160 0.003988
164 0.005031
170 0.004988
177 0.001991
183 0.00403
189 0.002992
190 0.001995
193 0.001999
197 0.0
203 0.0
208 0.001958
217 0.003029
215 0.003991
170 0.005784
152 0.006894
162 0.007028
180 0.005014
188 0.002
188 0.002022
187 0.002031
184 0.0
188 0.0
194 0.001008
200 0.000347
213 0.0
217 0.000649
224 0.000994
228 0.0
89 0.001938
229 0.00393
234 0.003991
220 0.004261
183 0.005688
176 0.006982
192 0.008043
196 0.007981
204 0.005033
206 0.004986
198 0.004766
196 0.001998
198 0.0
201 0.0
211 0.0
215 0.000996
217 0.001981
223 0.000872
223 0.002998
227 0.004277
231 0.005701
222 0.00742
185 0.008125
169 0.00549
173 0.004341
183 0.003003
186 0.004835
186 0.000998
187 0.003984
185 0.003989
187 0.0
193 0.001974
202 0.0
208 0.001003
209 0.000999
212 0.002995
214 0.00484
217 0.005546
217 0.006793
217 0.004947
214 0.005921
171 0.002992
156 0.003952
168 0.002946
175 0.003
179 0.000395
185 0.00199
183 0.001998
180 0.002994
186 0.003884
189 0.004883
198 0.006841
199 0.006439
200 0.006438
200 0.004052
249 0.003046
253 0.003028
255 0.001996
255 0.0
251 0.0
179 0.0
173 0.000962
193 0.002
208 0.004991
210 0.006058
209 0.006984
208 0.007276
213 0.006116
219 0.002027
222 0.004003
238 0.000963
245 0.00099
245 0.000993
250 0.00096
253 0.001962
255 0.0
255 0.0
255 0.0
250 0.00097
178 0.002936
168 0.003955
193 0.004956
198 0.005164
196 0.006299
202 0.002953
191 0.007459
196 0.003761
200 0.003943
203 0.00396
208 0.003226
216 0.003032
211 0.0
215 0.003988
221 0.001998
219 0.003023
226 0.00502
225 0.004989
220 0.006353
151 0.004088
134 0.004999
140 0.005984
166 0.003992
166 0.00299
166 0.0
172 0.002037
171 0.0
176 0.001
180 0.003026
183 0.00403
193 0.005022
199 0.005026
192 0.005381
191 0.007977
194 0.0062
199 0.005283
204 0.003992
216 0.0
212 0.003135
136 0.0
113 0.0
121 0.000997
134 0.000969
149 0.000999
144 0.002
131 0.00195
125 0.001965
126 0.001999
135 0.002996
146 0.006036
144 0.006386
149 0.006723
151 0.006406
155 0.006983
157 0.005591
165 0.002993
167 0.003988
176 0.0
164 0.001003
115 0.000995
82 0.0
104 0.001003
116 0.002996
128 0.003881
127 0.006196
118 0.004717
118 0.004127
131 0.002997
136 0.004983
146 0.001991
154 0.004084
157 0.001981
160 0.003053
161 0.002135
165 0.001996
165 0.002777
170 0.001
169 0.000999
106 0.001996
76 0.004055
87 0.004039
111 0.005983
111 0.006702
111 0.007682
112 0.004894
112 0.003128
113 0.003029
117 0.002001
136 0.000975
135 0.001027
144 0.0
156 0.0
152 0.000993
157 0.001995
165 0.002963
166 0.0032
128 0.004912
72 0.007367
53 0.005786
64 0.006826
69 0.005026
72 0.001994
77 0.002108
74 0.002029
71 0.002956
67 0.003024
84 0.001996
88 0.001995
91 0.0
95 0.00202
98 0.001
98 0.002193
106 0.00305
112 0.004735
122 0.005972
118 0.007169
85 0.006179
35 0.007016
30 0.007082
33 0.006217
38 0.004949
41 0.002026
31 0.002362
26 0.0
37 0.0
46 0.002012
60 0.002996
73 0.005024
77 0.005606
75 0.005986
77 0.004041
89 0.005995
96 0.004988
104 0.004995
115 0.004986
97 0.003999
30 0.006235
5 0.002993
22 0.003492
52 0.002206
51 0.001941
56 0.00097
53 0.002031
54 0.003887
67 0.005575
80 0.007346
90 0.006981
100 0.007226
108 0.003981
115 0.003466
122 0.00338
148 0.002994
155 0.00097
164 0.0
153 0.002994
109 0.0
40 0.0
31 0.001001
43 0.001881
48 0.001965
46 0.002893
52 0.003189
59 0.003205
58 0.004018
64 0.004988
76 0.005982
79 0.006275
78 0.007555
81 0.004024
80 0.004079
83 0.005105
89 0.002994
88 0.001962
92 0.001997
102 0.001995
64 0.002031
6 0.0
0 0.0
23 0.000869
42 0.001003
54 0.003018
53 0.003959
48 0.004987
53 0.006683
66 0.007829
84 0.006976
99 0.006131
117 0.002945
128 0.003352
143 0.0
156 0.000985
160 0.0
170 0.000998
183 0.001994
192 0.001995
148 0.003024
113 0.005873
117 0.005029
155 0.006071
179 0.004945
182 0.001991
176 0.002924
176 0.004258
183 0.002879
197 0.001996
229 0.001403
234 0.0
196 0.002004
199 0.002985
201 0.004891
201 0.005304
199 0.005987
204 0.006883
199 0.007967
162 0.004097
144 0.006969
147 0.004007
155 0.001995
159 0.0
161 0.0
160 0.0
165 0.0
163 0.001005
168 0.002996
176 0.003025
175 0.002953
179 0.006424
181 0.00694
181 0.006982
186 0.007038
186 0.002959
189 0.004298
175 0.002026
128 0.0
119 0.0
127 0.0
132 0.000998
134 0.001
136 0.002638
142 0.002992
145 0.003992
150 0.004956
156 0.005984
156 0.005984
147 0.006741
147 0.007522
152 0.006082
153 0.005427
155 0.002996
153 0.002031
158 0.002
158 0.000994
141 0.0
107 0.001035
101 0.002049
114 0.002995
129 0.004028
135 0.005932
135 0.007417
125 0.00395
126 0.003949
129 0.003072
139 0.002949
142 0.001995
150 0.003013
153 0.001995
153 0.001962
156 0.0
157 0.0
166 0.000975
167 0.000998
163 0.000963
128 0.002004
110 0.003989
118 0.005199
135 0.005981
143 0.005934
148 0.006483
148 0.005016
144 0.006997
144 0.002026
155 0.00303
159 0.001997
161 0.001997
170 0.00413
170 0.0
172 0.003027
176 0.0
177 0.0
183 0.0
188 0.0
179 0.002043
142 0.000993
131 0.002993
135 0.003999
150 0.006001
154 0.007029
152 0.007025
147 0.002036
144 0.002994
152 0.0
160 0.000996
162 0.0
167 0.0
170 0.0
199 0.001415
205 0.001753
206 0.002041
207 0.004026
211 0.004912
217 0.005817
186 0.007027
146 0.005291
125 0.005908
140 0.006028
152 0.005977
144 0.003988
135 0.002022
128 0.002997
118 0.000963
126 0.001788
133 0.000962
134 0.003024
150 0.003956
151 0.004989
158 0.00626
162 0.004575
176 0.005666
187 0.002992
185 0.00205
183 0.002009
183 0.0
149 0.000997
114 0.0
105 0.0
127 0.000909
141 0.001004
151 0.002026
151 0.003027
141 0.00399
149 0.004977
157 0.005955
164 0.005983
169 0.005944
176 0.005603
181 0.005172
174 0.004475
179 0.003533
181 0.0
171 0.0
177 0.002474
177 0.0
124 0.003996
89 0.000249
97 0.0
119 0.001996
123 0.002948
126 0.003978
113 0.00401
115 0.00499
120 0.004987
131 0.004991
131 0.004987
147 0.007273
141 0.00458
147 0.006613
148 0.002956
157 0.001995
167 0.001995
169 0.002025
169 0.0
106 0.002012
83 0.001989
91 0.003959
103 0.006092
118 0.006864
123 0.00604
127 0.005952
135 0.003004
137 0.004245
146 0.003955
157 0.003057
171 0.003029
182 0.0
184 0.003469
185 0.000995
189 0.003006
184 0.003958
183 0.005045
179 0.006207
139 0.003593
99 0.003129
79 0.002028
96 0.002949
93 0.001987
90 0.002046
87 0.0
74 0.0
75 0.002995
74 0.001996
83 0.001997
91 0.001032
91 0.002476
97 0.001
96 0.002957
101 0.003047
107 0.004865
113 0.004964
111 0.006241
113 0.003029
96 0.002955
55 0.003034
23 0.0
36 0.0
52 0.002986
63 0.001991
62 0.002925
61 0.001995
55 0.0
61 0.00297
77 0.002992
81 0.004025
91 0.004989
96 0.004986
100 0.005987
106 0.008025
103 0.00698
110 0.00656
118 0.004014
129 0.00399
133 0.002001
68 0.001995
41 0.001994
48 0.0
72 0.0
75 0.000972
80 0.000961
76 0.0
76 0.002063
81 0.00411
90 0.004629
101 0.004026
106 0.005554
112 0.006594
113 0.005912
112 0.006944
113 0.006983
118 0.005979
117 0.003942
122 0.0
121 0.002994
55 0.0
26 0.001932
33 0.000999
52 0.0
58 0.0
64 0.001981
61 0.002001
60 0.00499
68 0.005985
73 0.006597
78 0.005984
87 0.002027
94 0.004236
95 0.002036
102 0.002029
102 0.00092
102 0.001998
110 0.003993
114 0.005414
98 0.006538
39 0.006234
15 0.006948
31 0.005485
55 0.004495
64 0.003127
63 0.0
63 0.001995
67 0.002998
71 0.0
80 0.003008
83 0.0
94 0.002012
94 0.003993
104 0.00496
114 0.005023
123 0.00613
131 0.005795
142 0.008174
151 0.006981
125 0.005919
72 0.00446
84 0.0
98 0.004803
113 0.0
121 0.003994
120 0.000998
119 0.0
125 0.000996
132 0.001031
145 0.001995
150 0.002038
158 0.003999
159 0.005536
161 0.005993
165 0.005045
169 0.005349
177 0.006176
188 0.002026
162 0.005027
97 0.0
93 0.004032
114 0.0
129 0.0
127 0.000613
129 0.001998
133 0.003987
136 0.003971
136 0.006025
144 0.005697
149 0.004156
158 0.004951
163 0.002959
164 0.001999
164 0.001994
167 0.003012
167 0.0
179 0.00226
179 0.001007
119 0.003894
97 0.003958
112 0.00553
140 0.0067
146 0.008019
155 0.007153
147 0.000997
142 0.005296
142 0.002981
148 0.003992
150 0.0
162 0.0
158 0.0
166 0.0
164 0.0
171 0.00097
175 0.001993
189 0.002963
171 0.005456
126 0.006472
99 0.003946
103 0.006961
122 0.00315
135 0.005022
139 0.00424
133 0.002238
125 0.002359
124 0.000398
118 0.001037
125 0.002057
131 0.004769
132 0.005867
138 0.006518
136 0.005953
135 0.006981
137 0.003804
142 0.002964
145 0.00395
105 0.001995
59 0.003133
53 0.003025
73 0.002992
85 0.003029
82 0.00315
85 0.002956
78 0.0
83 0.002007
91 0.001995
95 0.002927
106 0.003919
119 0.005145
122 0.005865
127 0.007033
124 0.006035
128 0.00397
132 0.003383
140 0.004006
91 0.003101
49 0.001991
47 0.003035
60 0.002992
81 0.002956
85 0.002957
75 0.0
71 0.002992
79 0.002993
82 0.002993
91 0.000999
99 0.002032
103 0.001998
106 0.004029
105 0.004931
107 0.005309
113 0.006248
127 0.006427
132 0.007986
93 0.004039
46 0.004511
43 0.004187
74 0.002995
86 0.002021
86 0.001955
79 0.001993
82 0.0
77 0.00096
86 0.0
99 0.0
108 0.000969
120 0.003977
125 0.004957
127 0.005977
129 0.007817
134 0.007604
137 0.006241
127 0.003023
62 0.002123
46 0.003032
56 0.001995
71 0.000957
72 0.0
77 0.001
77 0.0
72 0.002015
81 0.003892
93 0.00554
96 0.005942
105 0.005768
108 0.007168
113 0.003954
114 0.005118
120 0.003672
127 0.002959
132 0.002998
91 0.0
44 0.001959
42 0.0
61 0.001996
82 0.003001
98 0.003035
96 0.005001
89 0.005097
93 0.00644
112 0.005971
124 0.005676
146 0.003984
153 0.00399
152 0.001992
160 0.0
168 0.003067
177 0.00195
182 0.002339
134 0.0
86 0.000898
66 0.001949
91 0.004054
107 0.006954
113 0.006942
112 0.006981
106 0.007978
101 0.007407
118 0.003011
122 0.002
124 0.0
134 0.001984
141 0.002961
148 0.0
149 0.0
157 0.0
163 0.0
108 0.001055
62 0.001996
57 0.001995
83 0.003874
105 0.003992
110 0.006333
106 0.007298
99 0.007883
99 0.006526
113 0.002949
124 0.004843
120 0.002996
118 0.000995
105 0.0
113 0.001008
125 0.001995
136 0.002936
146 0.004976
113 0.005987
47 0.006547
42 0.006188
67 0.00409
93 0.005069
111 0.002988
108 0.003062
104 0.002308
108 0.002148
122 0.002994
123 0.0
133 0.0
148 0.001994
150 0.00302
162 0.004026
175 0.003992
176 0.006312
191 0.006985
138 0.004424
84 0.004003
94 0.002884
122 0.002993
145 0.0
149 0.0
141 0.0
139 0.003024
145 0.0
161 0.001855
178 0.0
188 0.000942
202 0.00202
209 0.002854
217 0.002992
223 0.003989
232 0.006838
227 0.008368
148 0.006984
126 0.00351
144 0.005139
163 0.0
167 0.0
166 0.0
159 0.0
159 0.001
168 0.002056
180 0.00399
188 0.006105
195 0.006139
210 0.004726
214 0.007978
212 0.004635
217 0.004987
223 0.005018
196 0.004986
115 0.004311
107 0.0
125 0.002993
150 0.0
158 0.0
152 0.000714
141 0.001992
149 0.002992
157 0.002816
171 0.005908
178 0.00539
193 0.004065
200 0.003914
189 0.002992
198 0.004006
209 0.000966
202 0.00353
141 0.001037
100 0.002027
102 0.002989
129 0.003991
161 0.004996
166 0.005952
164 0.007942
159 0.006976
155 0.00602
177 0.003956
188 0.005616
201 0.002036
211 0.002042
215 0.001993
222 0.0
235 0.0
241 0.000996
181 0.000954
135 0.0
137 0.0
155 0.0
168 0.00067
178 0.002998
171 0.00486
167 0.005982
164 0.005985
176 0.007439
195 0.002988
205 0.004882
219 0.002987
224 0.0
228 0.0
191 0.0
242 0.0
240 0.000963
156 0.002993
115 0.002993
127 0.003989
143 0.004986
145 0.005944
148 0.004986
138 0.003947
136 0.006985
142 0.004132
158 0.005791
167 0.004703
173 0.004981
183 0.001586
187 0.0
186 0.0
188 0.000995
198 0.002038
198 0.003023
123 0.005029
80 0.006695
91 0.008038
117 0.005993
124 0.003989
124 0.002994
121 0.002979
113 0.002001
118 0.001964
134 0.002052
146 0.004017
160 0.002985
171 0.003025
182 0.001993
189 0.001993
203 0.000549
210 0.001996
220 0.001986
221 0.002651
161 0.00502
120 0.005027
112 0.007777
133 0.00413
146 0.00718
157 0.0
151 0.002988
150 0.0
154 0.0
169 0.0
181 0.000998
183 0.0
193 0.0
194 0.0
199 0.001959
203 0.001996
204 0.003032
216 0.005028
227 0.007008
223 0.008009
133 0.00536
98 0.001955
109 0.005146
134 0.002952
144 0.0
137 0.0
117 0.000962
119 0.0
123 0.001998
135 0.003915
155 0.004989
158 0.005963
159 0.005053
163 0.003022
168 0.002809
178 0.004026
186 0.004986
186 0.002998
186 0.002985
132 0.000343
69 0.00202
54 0.003187
83 0.005027
98 0.007134
102 0.008118
100 0.006985
83 0.003986
79 0.005895
91 0.0
106 0.0
113 0.0
115 0.0
130 0.001063
132 0.0
153 0.00399
160 0.005333
177 0.005868
180 0.006168
143 0.005035
80 0.005766
65 0.003001
84 0.00499
98 0.004035
108 0.003083
113 0.003113
110 0.000965
113 0.0
127 0.002933
156 0.00399
168 0.005483
187 0.004985
192 0.005056
195 0.002991
201 0.004793
206 0.0
218 0.0
199 0.002006
129 0.00301
91 0.003073
103 0.0
125 0.001922
130 0.002038
123 0.00312
115 0.005812
114 0.005988
113 0.006004
123 0.00698
129 0.007012
146 0.007987
156 0.003978
170 0.000956
170 0.002993
168 0.0
186 0.000997
193 0.000999
127 0.001998
59 0.002995
60 0.00464
79 0.004491
89 0.005977
90 0.006535
88 0.006951
83 0.006874
95 0.004985
101 0.007251
118 0.004704
134 0.005648
145 0.005018
148 0.0
147 0.002991
136 0.000998
135 0.0
150 0.0
149 0.001966
71 0.001995
53 0.003004
66 0.005202
99 0.005696
105 0.005798
109 0.005145
104 0.004929
108 0.005166
115 0.002995
129 0.004908
146 0.002998
162 0.003991
173 0.0
177 0.002994
181 0.001003
190 0.002115
204 0.001906
216 0.005334
160 0.005652
113 0.006959
101 0.00399
134 0.004001
146 0.002909
150 0.002953
151 0.002996
150 0.000961
157 0.0
174 0.0
190 0.002043
195 0.003458
207 0.005187
214 0.006756
222 0.005004
232 0.007749
235 0.007143
248 0.007052
253 0.006002
221 0.006016
144 0.004873
143 0.001999
174 0.0
179 0.000997
191 0.001997
186 0.001973
181 0.002959
190 0.002959
208 0.005535
219 0.003993
235 0.004951
244 0.005421
245 0.004984
253 0.003009
255 0.005986
255 0.002021
255 0.004985
255 0.003989
249 0.002319
178 0.0
172 0.002041
187 0.001716
211 0.004023
219 0.005375
214 0.005983
206 0.007941
207 0.003984
222 0.006981
231 0.004328
193 0.002954
198 0.000992
200 0.0
205 0.0
208 0.001955
208 0.001963
212 0.003034
215 0.005445
192 0.006345
157 0.006709
160 0.00724
171 0.005986
182 0.004508
186 0.0
181 0.003293
175 0.0
170 0.001035
170 0.00304
171 0.003924
178 0.003989
182 0.004315
184 0.004948
187 0.005952
188 0.006369
190 0.004987
201 0.004987
201 0.003947
159 0.00295
147 0.003989
160 0.00206
171 0.004994
182 0.003023
181 0.002028
177 0.0
172 0.001
183 0.002025
183 0.003792
192 0.005946
198 0.005937
202 0.007507
201 0.003388
201 0.006759
204 0.001996
202 0.002999
182 0.0
153 0.000963
164 0.001
176 0.000972
182 0.001963
186 0.003024
213 0.003718
201 0.004025
213 0.005768
218 0.005984
222 0.005984
231 0.007877
188 0.006357
190 0.007033
192 0.006015
194 0.005013
182 0.0
144 0.002028
140 0.002987
147 0.0
159 0.0
167 0.0
163 0.0
158 0.001
154 0.001618
163 0.003937
171 0.005785
179 0.00631
184 0.00467
186 0.006752
185 0.00481
182 0.004441
151 0.003989
133 0.0
138 0.00295
158 0.0
168 0.001996
170 0.002013
163 0.002998
162 0.004991
162 0.007087
170 0.003021
179 0.002766
180 0.003259
183 0.001995
184 0.002993
186 0.003028
149 0.001038
129 0.002992
136 0.0
146 0.0
157 0.0
161 0.0
153 0.000998
153 0.001946
156 0.002981
162 0.001999
169 0.002966
172 0.003889
174 0.003435
175 0.00405
178 0.004986
202 0.005659
147 0.007019
115 0.003722
123 0.002998
136 0.001987
149 0.002992
149 0.0
135 0.0
136 0.000993
140 0.000958
153 0.001992
159 0.002948
163 0.004467
164 0.005086
170 0.004988
167 0.006333
169 0.007528
175 0.006471
107 0.002953
59 0.002982
61 0.002988
80 0.0
95 0.0
97 0.001954
80 0.002994
75 0.003993
78 0.005326
98 0.005983
116 0.005522
112 0.004988
119 0.003975
119 0.006012
120 0.00303
140 0.00399
126 0.003037
76 0.003029
37 0.002932
56 0.0
72 0.00204
88 0.000962
85 0.002006
74 0.001975
76 0.002
88 0.004746
102 0.003991
110 0.005635
123 0.003907
117 0.003952
122 0.001995
130 0.0
136 0.0
124 0.0
61 0.0
21 0.001954
36 0.003
60 0.00299
66 0.00299
61 0.004909
50 0.006026
49 0.00743
52 0.007858
67 0.007068
74 0.002995
81 0.003993
89 0.000965
97 0.0
95 0.0
100 0.0
114 0.001863
124 0.001002
54 0.002994
15 0.004133
32 0.005159
58 0.005024
61 0.005941
71 0.006047
66 0.006582
62 0.006144
76 0.006989
91 0.007979
95 0.007578
106 0.007978
109 0.003408
115 0.006255
118 0.003032
129 0.0
130 0.000965
133 0.0
109 0.000335
62 0.0
49 0.003005
77 0.003738
84 0.004992
95 0.005984
92 0.004304
82 0.004313
91 0.001996
109 0.004661
124 0.002956
145 0.004003
161 0.004141
163 0.003662
167 0.002992
171 0.000998
185 0.001995
180 0.0
173 0.002028
98 0.0
56 0.0
73 0.000946
102 0.001997
117 0.003894
115 0.005166
109 0.006022
105 0.005155
123 0.003023
133 0.000962
147 0.002945
154 0.003957
155 0.0
168 0.003026
172 0.000543
176 0.0
184 0.002926
172 0.003986
108 0.004988
66 0.004984
73 0.006024
78 0.006956
76 0.005367
85 0.002992
87 0.0
81 0.000967
92 0.0
102 0.000966
128 0.0
143 0.002
157 0.003972
164 0.003991
180 0.005827
181 0.006853
190 0.005515
189 0.007629
135 0.007266
89 0.006671
84 0.004205
109 0.0
117 0.004083
124 0.0
117 0.001001
114 0.001963
120 0.003944
140 0.003992
148 0.006398
167 0.005007
173 0.003019
187 0.002992
190 0.002987
197 0.003027
211 0.002955
216 0.0
169 0.003035
114 0.0
119 0.002044
146 0.001999
161 0.001996
167 0.004024
161 0.005005
152 0.007994
151 0.007058
169 0.00515
188 0.0
193 0.002995
198 0.0
203 0.0
214 0.0
223 0.0
229 0.001997
235 0.002964
187 0.003995
127 0.004957
125 0.004989
149 0.005966
164 0.006018
171 0.00399
169 0.006086
158 0.006022
161 0.004022
164 0.003624
176 0.0
183 0.003234
192 0.003002
199 0.0
205 0.0
204 0.00098
215 0.0
225 0.000972
233 0.000999
193 0.001998
131 0.001996
144 0.001962
162 0.003047
181 0.003989
186 0.00655
177 0.005988
174 0.005871
176 0.006253
193 0.002994
209 0.004965
227 0.004322
236 0.004462
246 0.004303
253 0.0
244 0.0
249 0.002036
254 0.002803
219 0.004075
181 0.003957
163 0.003958
180 0.004986
206 0.004985
210 0.006472
207 0.006005
194 0.002992
192 0.003952
197 0.003033
209 0.002992
227 0.004938
232 0.0
238 0.003029
243 0.0
248 0.0
255 0.00201
255 0.003808
255 0.004669
194 0.005879
148 0.007729
141 0.007159
153 0.007559
164 0.002996
164 0.003034
163 0.000938
158 0.0
164 0.003016
166 0.000986
171 0.0
177 0.001969
181 0.002036
182 0.00492
185 0.004134
186 0.006613
185 0.007801
190 0.006083
193 0.005021
200 0.004308
184 0.00103
152 0.002929
132 0.0
146 0.0
154 0.0
157 0.001994
157 0.001872
154 0.00399
153 0.004595
159 0.006281
159 0.003984
168 0.005984
171 0.005986
174 0.00596
177 0.005034
178 0.006615
180 0.003003
181 0.003989
184 0.004157
188 0.004031
189 0.0
171 0.000768
141 0.001999
136 0.003044
149 0.003991
158 0.005986
165 0.007142
156 0.005983
150 0.006994
142 0.002993
164 0.001952
179 0.0
193 0.00096
202 0.000912
204 0.0
211 0.000999
217 0.001957
224 0.002983
227 0.003031
239 0.003034
191 0.003989
187 0.004874
149 0.006515
141 0.007878
152 0.007379
168 0.003982
175 0.006985
175 0.003022
167 0.00302
165 0.000969
168 0.000967
175 0.000998
178 0.001026
177 0.002002
174 0.001035
176 0.003308
174 0.005783
174 0.006162
174 0.007528
178 0.005984
180 0.007974
148 0.004996
118 0.006018
115 0.005187
130 0.0
134 0.002026
136 0.0
132 0.001073
127 0.00258
127 0.003035
136 0.005718
136 0.005354
145 0.003957
148 0.004954
147 0.004038
145 0.004879
143 0.003959
145 0.002986
151 0.002988
147 0.00399
118 0.0
95 0.002131
103 0.002821
114 0.00223
119 0.000997
118 0.003038
114 0.004018
113 0.002992
119 0.004982
121 0.004981
133 0.004955
141 0.005979
146 0.006924
148 0.00598
149 0.007646
156 0.002949
166 0.002962
165 0.0
114 0.00299
81 0.002026
86 0.00096
108 0.0
119 0.001998
122 0.001814
113 0.002888
109 0.004013
113 0.006181
118 0.007635
127 0.006973
132 0.00399
131 0.004251
122 0.002964
129 0.002992
128 0.002967
137 0.002961
137 0.003959
93 0.0
54 0.000996
61 0.0
78 0.0
88 0.000996
90 0.002042
78 0.003035
78 0.004002
84 0.005233
87 0.004979
96 0.006292
104 0.005083
108 0.004211
114 0.004024
113 0.0
113 0.003026
116 0.000962
122 0.0
115 0.0
58 0.002971
45 0.002998
59 0.00295
83 0.002963
86 0.003778
86 0.004986
81 0.006859
84 0.004982
96 0.00499
108 0.004984
123 0.004028
134 0.003985
138 0.006981
143 0.00399
144 0.0051
151 0.005468
159 0.004868
172 0.003015
123 0.0
104 0.0
106 0.0
121 0.000997
134 0.000952
137 0.0
132 0.0
130 0.002004
143 0.002865
147 0.004711
154 0.004986
162 0.004949
164 0.004985
166 0.005936
166 0.006386
171 0.006088
178 0.006969
187 0.007065
192 0.007021
133 0.005757
110 0.0
124 0.0032
144 0.0
144 0.000998
144 0.0
149 0.000792
147 0.00101
155 0.00197
166 0.002989
173 0.003935
174 0.004991
179 0.006028
181 0.006876
185 0.003988
185 0.00399
191 0.005985
197 0.00399
196 0.003019
129 0.002039
102 0.002028
112 0.0
125 0.001
120 0.001998
127 0.003524
125 0.00516
119 0.006045
125 0.007035
133 0.004991
135 0.006879
145 0.002992
148 0.002992
144 0.00299
152 0.0
158 0.0
165 0.0
170 0.000996
178 0.001995
164 0.002922
101 0.003936
103 0.002979
121 0.004986
136 0.004991
144 0.005868
148 0.007577
144 0.00764
147 0.004094
151 0.005588
167 0.002006
177 0.0
182 0.003011
183 0.0
187 0.0
188 0.0
192 0.002104
198 0.002953
206 0.006668
205 0.005931
147 0.005001
111 0.005806
117 0.002957
136 0.004023
139 0.00324
136 0.003006
140 0.002993
138 0.0
138 0.0
145 0.0
158 0.0
