168 0.003972
115 0.003967
78 0.003997
68 0.004991
73 0.004954
88 0.004997
99 0.004975
101 0.004989
99 0.00501
100 0.004987
112 0.004984
126 0.006021
134 0.006036
143 0.006994
151 0.006968
160 0.007012
166 0.007983
120 0.005966
85 0.004992
57 0.00498
64 0.001954
69 0.00295
81 0.001992
87 0.001955
87 0.002034
93 0.000998
100 0.000997
115 0.000998
123 0.0
131 0.002992
143 0.002938
153 0.002999
160 0.002987
142 0.002992
99 0.003989
55 0.003986
55 0.003986
59 0.003963
64 0.003989
77 0.003991
80 0.003989
84 0.003977
92 0.004002
98 0.003982
114 0.00698
125 0.006981
143 0.006971
154 0.00699
156 0.006981
158 0.007
163 0.007973
129 0.005974
60 0.00599
44 0.005982
48 0.005976
56 0.006028
62 0.005986
64 0.005975
67 0.00598
76 0.006035
82 0.005983
96 0.000964
124 0.002988
129 0.003005
145 0.002992
148 0.001987
98 0.001987
56 0.001036
60 0.0
71 0.0
92 0.0
99 0.0
105 0.001996
105 0.003974
110 0.004016
123 0.003991
138 0.003991
145 0.00399
156 0.003985
168 0.00399
173 0.004988
184 0.006021
161 0.007972
128 0.006939
67 0.006982
59 0.007014
69 0.005984
78 0.00597
86 0.005981
96 0.006019
103 0.004956
107 0.006002
118 0.004987
126 0.005012
137 0.004992
147 0.004986
152 0.005016
161 0.005023
166 0.003985
179 0.004023
142 0.003989
90 0.004029
46 0.003996
49 0.002992
57 0.002959
67 0.002992
75 0.003019
78 0.002964
83 0.002959
87 0.003029
97 0.002998
104 0.002992
113 0.001007
122 0.0
126 0.001997
131 0.001996
137 0.00302
150 0.003973
130 0.004001
57 0.004048
39 0.004026
45 0.004028
62 0.003989
72 0.004018
83 0.005011
81 0.00502
84 0.006953
97 0.007007
104 0.006981
123 0.006991
134 0.007017
142 0.006982
148 0.007018
153 0.007027
158 0.006945
121 0.005969
73 0.005951
36 0.00602
39 0.005979
50 0.005039
66 0.00502
75 0.005016
79 0.003989
88 0.001954
94 0.002021
110 0.001995
124 0.001995
131 0.002016
146 0.001995
161 0.000971
166 0.000969
180 0.000998
177 0.000997
100 0.000964
49 0.0
48 0.0
57 0.0
63 0.0
77 0.0
84 0.0
87 0.0
97 0.0
111 0.001996
120 0.002018
130 0.001996
137 0.001995
147 0.002997
153 0.004039
157 0.00399
171 0.003989
108 0.004016
66 0.004017
53 0.004018
66 0.006977
74 0.00701
89 0.007948
101 0.005986
99 0.005029
99 0.004984
112 0.001995
121 0.002992
141 0.002022
151 0.002993
158 0.0
90 0.0
148 0.007012
158 0.006974
165 0.00701
167 0.007015
171 0.006987
157 0.006981
100 0.006981
38 0.006982
35 0.007979
40 0.007937
49 0.007979
63 0.007978
74 0.007973
85 0.006981
93 0.00698
108 0.007018
117 0.007009
132 0.006943
145 0.00701
151 0.007013
157 0.006963
168 0.006981
175 0.007011
116 0.005
48 0.004024
39 0.003006
49 0.002992
57 0.002992
73 0.002985
75 0.00203
77 0.001991
79 0.00199
92 0.000972
105 0.0
119 0.0
121 0.0
130 0.001
139 0.000998
148 0.000998
101 0.002993
24 0.002995
12 0.003021
23 0.00305
33 0.002994
58 0.003025
70 0.003038
72 0.00302
75 0.003004
86 0.003025
98 0.002992
110 0.003989
121 0.004018
129 0.003953
138 0.004033
145 0.00399
108 0.004012
52 0.004018
0 0.004028
4 0.004034
12 0.003991
26 0.003958
37 0.00496
47 0.004987
53 0.005013
60 0.005004
75 0.005026
92 0.004986
101 0.004955
112 0.004994
121 0.004985
129 0.005017
141 0.004954
135 0.006028
42 0.006023
5 0.006011
0 0.006019
14 0.005984
22 0.006018
41 0.006012
52 0.006012
67 0.006971
76 0.006984
82 0.007008
97 0.007972
106 0.00795
119 0.006978
131 0.007008
139 0.006025
147 0.005015
160 0.005985
149 0.003989
76 0.003989
22 0.003992
23 0.003982
36 0.003024
51 0.001027
63 0.000969
61 0.0
63 0.0
71 0.0
93 0.0
108 0.0
130 0.0
141 0.0
144 0.0
155 0.0
163 0.0
133 0.0
49 0.0
32 0.001002
44 0.001996
66 0.00196
78 0.001944
90 0.002987
92 0.001996
96 0.002998
106 0.002951
122 0.002963
134 0.01294
148 0.0
156 0.0
87 0.003993
90 0.007023
98 0.006981
104 0.004985
120 0.004986
133 0.004991
138 0.002993
149 0.002993
158 0.00296
163 0.001987
172 0.000999
91 0.0
43 0.0
24 0.001056
39 0.000946
45 0.00101
63 0.001995
71 0.001972
76 0.002937
82 0.003991
88 0.004047
101 0.003938
113 0.003949
124 0.003981
139 0.00393
145 0.00396
153 0.004954
167 0.004953
145 0.00498
59 0.005001
38 0.005945
48 0.005997
62 0.005934
81 0.00594
95 0.005991
95 0.00593
95 0.005943
107 0.00701
119 0.006982
138 0.007969
145 0.006975
152 0.006953
160 0.005992
170 0.005972
176 0.006011
109 0.005982
62 0.005974
42 0.004979
55 0.004962
63 0.004952
81 0.004982
93 0.003984
93 0.002984
102 0.003991
115 0.003
127 0.004019
146 0.003996
154 0.003996
165 0.002003
178 0.000992
187 0.0
194 0.0
192 0.0
110 0.0
36 0.0
29 0.0
48 0.0
59 0.0
64 0.0
70 0.000958
69 0.001013
69 0.000988
87 0.000998
98 0.000995
114 0.001
130 0.00298
142 0.003007
148 0.002964
155 0.002954
166 0.003979
139 0.003951
86 0.003957
41 0.004005
48 0.003945
67 0.003944
88 0.004963
98 0.004975
103 0.00702
103 0.005986
112 0.004963
122 0.005032
126 0.003967
127 0.003005
133 0.001995
155 0.001028
162 0.0
168 0.000976
140 0.000954
86 0.000961
41 0.000996
49 0.0
69 0.0
85 0.0
102 0.0
109 0.0
116 0.001033
123 0.001981
139 0.002001
150 0.001986
162 0.002001
175 0.002995
180 0.002956
187 0.002994
199 0.002951
202 0.002985
135 0.002945
83 0.003004
54 0.002958
67 0.003014
73 0.002983
86 0.002968
94 0.002937
94 0.00395
102 0.005969
109 0.005974
119 0.005984
135 0.005984
144 0.005984
156 0.006011
164 0.005985
173 0.006981
187 0.005012
189 0.00602
131 0.005974
78 0.021938
69 0.000996
154 0.0
189 0.003965
195 0.003955
154 0.004989
83 0.004974
54 0.006942
59 0.006945
71 0.007974
83 0.007034
95 0.007976
101 0.006978
103 0.007942
107 0.006977
120 0.007019
127 0.007026
141 0.006982
147 0.005981
150 0.004987
158 0.004989
161 0.003988
170 0.003986
125 0.004983
44 0.004011
8 0.004984
3 0.00499
0 0.004988
0 0.004982
0 0.002965
15 0.002008
18 0.0
33 0.0
57 0.0
77 0.0
86 0.0
106 0.0
117 0.000996
128 0.000997
171 0.002008
212 0.002
162 0.001982
114 0.001953
114 0.001995
133 0.001999
143 0.001994
136 0.002951
133 0.00402
149 0.003988
152 0.00396
170 0.006965
175 0.00695
180 0.007952
179 0.005971
181 0.00698
184 0.005973
192 0.006012
175 0.005977
81 0.006043
46 0.006026
29 0.005967
34 0.00403
43 0.003978
63 0.003015
78 0.002993
80 0.002004
78 0.00296
96 0.002045
127 0.002996
148 0.002935
152 0.001971
157 0.001996
160 0.001066
169 0.000998
180 0.0
138 0.0
47 0.000998
9 0.000991
7 0.001008
25 0.000999
39 0.003961
44 0.003028
44 0.004023
44 0.004015
54 0.004987
65 0.005983
78 0.006019
91 0.006013
100 0.005997
110 0.007022
120 0.007019
112 0.007009
47 0.003988
0 0.005016
66 0.003979
76 0.00203
93 0.001996
103 0.0
105 0.000962
105 0.000999
114 0.001011
123 0.000999
132 0.004017
142 0.00402
146 0.006013
153 0.006029
163 0.00602
168 0.005951
130 0.006012
104 0.006024
91 0.005984
92 0.006964
95 0.006954
102 0.00698
110 0.007955
110 0.006004
113 0.007011
117 0.006019
125 0.006968
136 0.007037
139 0.007008
145 0.006981
153 0.00603
156 0.006008
161 0.00302
167 0.004021
131 0.002963
86 0.002023
79 0.001031
86 0.000971
92 0.000962
97 0.001029
106 0.0
110 0.001006
111 0.001018
115 0.000998
119 0.000998
122 0.030883
125 0.0
141 0.0
83 0.007008
93 0.007979
105 0.007039
103 0.00701
113 0.007018
119 0.007009
131 0.005987
146 0.006016
156 0.005976
163 0.005988
169 0.004017
178 0.003989
149 0.002029
93 0.001947
63 0.001031
67 0.000999
82 0.001003
92 0.000998
104 0.000999
109 0.000997
114 0.003989
118 0.005032
127 0.004983
139 0.005022
147 0.005013
156 0.005969
161 0.006018
170 0.006027
178 0.006012
177 0.006031
108 0.006965
70 0.006979
54 0.007007
64 0.006962
70 0.007963
80 0.00798
93 0.005985
96 0.003997
99 0.004025
106 0.003989
112 0.004039
119 0.003023
125 0.003962
131 0.003032
138 0.002987
144 0.002966
153 0.001986
161 0.000985
144 0.0
70 0.0
43 0.0
36 0.0
48 0.0
55 0.0
66 0.0
68 0.001
65 0.000998
71 0.000998
78 0.000955
92 0.000998
103 0.000969
113 0.000973
124 0.000998
132 0.000998
144 0.003001
132 0.00203
86 0.002993
34 0.005018
34 0.005016
44 0.005018
61 0.00703
74 0.007021
76 0.007009
80 0.005031
91 0.004028
100 0.003039
115 0.001963
125 0.002991
132 0.001986
141 0.002992
148 0.002001
159 0.000998
129 0.000998
67 0.001005
37 0.001995
40 0.002994
54 0.005031
60 0.004983
76 0.00502
79 0.005015
79 0.005014
87 0.005021
92 0.004987
102 0.00498
108 0.005039
122 0.004988
132 0.006021
135 0.007011
146 0.007017
140 0.006976
92 0.00698
29 0.007031
19 0.007018
27 0.007027
37 0.006019
51 0.005014
60 0.005976
65 0.004984
72 0.005026
87 0.004975
95 0.001997
102 0.002025
110 0.0
122 0.0
129 0.0
145 0.0
142 0.0
72 0.0
38 0.000998
40 0.014924
48 0.0
85 0.0
102 0.000997
111 0.001996
120 0.002058
126 0.001998
136 0.002035
145 0.003991
143 0.004034
84 0.004032
35 0.005977
35 0.006019
48 0.00604
59 0.005989
67 0.006
80 0.007011
84 0.007034
91 0.006016
103 0.005988
111 0.005982
123 0.006023
133 0.005977
136 0.003992
146 0.003025
156 0.002995
160 0.001994
107 0.002024
55 0.000989
40 0.001992
50 0.001996
55 0.001986
60 0.002022
69 0.000966
71 0.001993
81 0.000998
88 0.000998
97 0.0
109 0.0
114 0.0
124 0.0
131 0.0
134 0.0
131 0.0
134 0.0
77 0.0
33 0.000997
26 0.001993
41 0.002962
57 0.003964
75 0.00499
91 0.00495
92 0.004952
101 0.004934
111 0.004953
123 0.005981
141 0.005951
154 0.006982
154 0.00697
158 0.005978
165 0.004002
172 0.004025
127 0.003989
72 0.002994
70 0.002986
88 0.002029
94 0.001943
107 0.001992
115 0.002002
116 0.000946
118 0.001979
129 0.00197
138 0.001952
150 0.00103
160 0.001016
169 0.001012
176 0.000967
182 0.00199
186 0.00203
193 0.001974
184 0.001999
114 0.001993
84 0.001945
75 0.001978
83 0.001961
88 0.001994
102 0.002957
106 0.001995
114 0.00296
119 0.00299
122 0.002968
131 0.002945
139 0.003954
142 0.002989
152 0.003025
161 0.002957
187 0.002964
195 0.003974
201 0.005985
209 0.005977
178 0.005983
127 0.005984
80 0.006022
74 0.005987
81 0.006013
94 0.005984
101 0.00701
109 0.006983
110 0.007009
113 0.006018
127 0.00502
135 0.004972
149 0.005
157 0.004978
159 0.004986
166 0.005015
169 0.006009
177 0.005018
176 0.005983
119 0.004014
76 0.005021
73 0.004959
82 0.004993
96 0.004986
108 0.004987
120 0.005021
119 0.003989
121 0.005014
132 0.00403
145 0.002043
153 0.002054
162 0.001993
165 0.001993
173 0.002002
184 0.001999
187 0.002039
192 0.002991
193 0.0
69 0.000992
76 0.000999
85 0.001995
97 0.001993
101 0.001993
103 0.002036
104 0.002029
112 0.002044
123 0.002031
136 0.002996
140 0.002939
145 0.003998
153 0.005017
157 0.005033
161 0.005969
166 0.007013
148 0.00702
67 0.005031
39 0.004017
44 0.004041
55 0.003037
63 0.003005
79 0.002999
85 0.004018
89 0.003015
94 0.004025
106 0.003028
114 0.003028
127 0.002025
135 0.001994
149 0.00203
160 0.000999
163 0.002035
173 0.000989
143 0.0
97 0.000996
58 0.002032
65 0.001993
75 0.001995
91 0.001998
100 0.002031
106 0.003022
110 0.002938
113 0.002962
126 0.002992
133 0.002993
145 0.002983
156 0.002993
161 0.002992
169 0.004025
172 0.005984
176 0.007989
157 0.007979
79 0.005966
52 0.007038
49 0.005988
55 0.006984
50 0.004966
59 0.005985
65 0.006016
66 0.006025
73 0.003035
80 0.003033
91 0.002991
100 0.003003
110 0.003005
117 0.00403
124 0.003039
129 0.004022
140 0.004038
116 0.004033
44 0.001964
27 0.0
34 0.001033
44 0.001
58 0.000998
71 0.000999
73 0.000999
74 0.000998
83 0.003941
99 0.005019
110 0.006025
124 0.006013
134 0.007015
139 0.007017
153 0.006976
157 0.006975
92 0.007029
54 0.006981
55 0.007009
75 0.006971
84 0.007978
98 0.006026
106 0.00602
107 0.004985
111 0.005984
119 0.00602
127 0.005026
139 0.004032
144 0.003034
149 0.004027
156 0.002025
161 0.001992
135 0.001017
67 0.0
49 0.0
53 0.0
62 0.0
66 0.001943
77 0.002994
73 0.002961
73 0.003954
80 0.005038
91 0.004996
99 0.004959
108 0.006023
119 0.007012
122 0.005993
125 0.005035
134 0.005013
109 0.005046
41 0.003989
28 0.003027
34 0.004028
44 0.001974
53 0.003027
67 0.0
72 0.0
76 0.0
87 0.0
101 0.0
111 0.0
122 0.0
125 0.000998
132 0.000988
138 0.0
56 0.0
51 0.000962
60 0.00201
75 0.001997
87 0.002041
102 0.002956
104 0.001996
107 0.002993
113 0.002994
129 0.003965
137 0.003988
146 0.004028
144 0.003991
146 0.003988
158 0.00399
153 0.004037
92 0.00499
67 0.006031
70 0.006011
78 0.006959
83 0.006995
103 0.006978
117 0.006974
120 0.006983
124 0.006981
131 0.007006
137 0.005981
138 0.006965
142 0.006011
150 0.006982
158 0.005973
162 0.005956
167 0.005986
113 0.003986
66 0.003993
42 0.003028
46 0.003948
58 0.003038
71 0.00196
87 0.0
97 0.001002
98 0.000959
99 0.0
107 0.000979
122 0.000988
127 0.000997
136 0.002965
143 0.002953
149 0.003001
157 0.002957
161 0.002991
109 0.003992
64 0.00399
67 0.003955
87 0.003955
100 0.00398
120 0.004979
127 0.005973
131 0.005977
138 0.005998
151 0.005976
160 0.006938
176 0.006962
182 0.006982
187 0.006995
196 0.006993
199 0.005986
204 0.005024
168 0.005014
105 0.002991
81 0.002989
100 0.001028
114 0.000991
125 0.000963
136 0.0
139 0.000997
144 0.0
146 0.000997
148 0.0
155 0.0
161 0.000982
170 0.00094
175 0.001966
179 0.001988
186 0.001951
196 0.003966
186 0.003979
115 0.003979
90 0.003964
88 0.005024
101 0.004987
108 0.004973
121 0.005991
125 0.007961
128 0.006982
129 0.007972
138 0.006992
145 0.00599
157 0.005977
164 0.005979
174 0.004988
180 0.002031
186 0.003993
188 0.001995
128 0.001988
106 0.001997
105 0.00199
115 0.001993
132 0.001965
152 0.001956
158 0.001945
160 0.002026
164 0.0
169 0.002949
184 0.003991
194 0.00399
200 0.004971
208 0.005028
215 0.004958
224 0.00498
197 0.005045
138 0.004997
108 0.005948
111 0.005965
118 0.005988
127 0.00597
141 0.006988
144 0.007978
145 0.006982
147 0.007978
153 0.005986
156 0.004944
158 0.005977
161 0.0
162 0.0
179 0.001992
150 0.002979
93 0.001994
64 0.002977
67 0.001955
77 0.002992
86 0.001012
94 0.000994
98 0.0
104 0.0
112 0.0
116 0.0
122 0.0
132 0.0
140 0.0
143 0.0
158 0.0
133 0.0
102 0.000971
89 0.004035
105 0.005024
112 0.006937
126 0.006958
134 0.006946
136 0.006974
142 0.00697
147 0.006959
154 0.006018
162 0.007966
170 0.005962
173 0.007009
180 0.00599
181 0.004988
141 0.005032
95 0.004975
55 0.004942
69 0.003037
75 0.00299
79 0.001006
77 0.0
76 0.0
75 0.0
79 0.0
83 0.0
93 0.0
101 0.0
125 0.0
134 0.0
138 0.002932
121 0.003003
67 0.003998
38 0.003998
42 0.003975
54 0.004032
63 0.003964
78 0.003953
82 0.003944
87 0.003949
93 0.005039
99 0.005979
110 0.006957
118 0.006971
121 0.006978
133 0.00598
143 0.004966
149 0.004007
91 0.003025
59 0.002986
71 0.00196
92 0.002979
103 0.0
115 0.0
121 0.0
120 0.0
123 0.0
133 0.0
143 0.0
149 0.0
160 0.0
167 0.0
172 0.0
179 0.000994
133 0.001035
77 0.001993
76 0.001996
90 0.00196
97 0.001998
112 0.003972
121 0.005949
124 0.005954
126 0.005994
135 0.005994
141 0.005994
151 0.005981
157 0.006992
161 0.005991
166 0.005978
170 0.00496
177 0.004987
135 0.004981
91 0.00496
66 0.004988
74 0.002938
75 0.003987
87 0.002992
93 0.00398
97 0.003013
96 0.003003
96 0.003008
107 0.001967
112 0.001988
117 0.002047
123 0.000985
131 0.0
136 0.0
145 0.001945
79 0.002007
54 0.001995
62 0.002959
72 0.001996
72 0.045876
81 0.000997
115 0.002991
116 0.002955
120 0.003028
128 0.003035
148 0.00295
159 0.002992
171 0.002986
175 0.002944
178 0.002995
189 0.002988
169 0.002938
95 0.003989
78 0.003978
88 0.003985
101 0.003982
109 0.00399
124 0.00399
128 0.004032
129 0.005989
139 0.005991
149 0.006983
161 0.006989
172 0.007022
179 0.006951
182 0.006982
172 0.006983
165 0.006977
126 0.006979
78 0.006982
54 0.00697
71 0.006985
79 0.007979
89 0.006989
105 0.004992
106 0.004996
107 0.005024
112 0.005019
121 0.00496
133 0.004032
137 0.001977
144 0.002007
147 0.002992
152 0.001993
161 0.002982
140 0.00202
78 0.003001
51 0.002992
61 0.003025
82 0.002991
102 0.0
111 0.002025
116 0.000993
117 0.0
122 0.000998
138 0.001994
144 0.002025
156 0.002029
166 0.002025
170 0.002022
183 0.002036
180 0.001994
102 0.00402
66 0.006983
74 0.007979
87 0.006981
94 0.007951
105 0.006973
114 0.007978
123 0.008007
134 0.007975
148 0.007975
157 0.005941
163 0.007993
172 0.005946
175 0.006947
180 0.00598
184 0.005992
183 0.005997
113 0.004024
53 0.003994
52 0.00298
65 0.002957
68 0.002991
78 0.001984
86 0.000996
86 0.0
91 0.001995
98 0.002991
105 0.002991
116 0.002989
123 0.002966
128 0.002962
135 0.003989
143 0.004996
152 0.005014
123 0.005035
77 0.005044
44 0.004961
60 0.005028
73 0.005022
90 0.005052
98 0.005026
102 0.004991
109 0.006033
117 0.005985
129 0.005984
138 0.006982
146 0.006981
161 0.004987
174 0.005985
177 0.003026
184 0.003036
183 0.001996
135 0.001968
74 0.000998
68 0.001003
81 0.000998
91 0.00104
105 0.000997
112 0.000962
116 0.001993
118 0.001994
127 0.004981
133 0.005983
137 0.007008
148 0.006984
156 0.007011
161 0.007009
166 0.007008
170 0.00698
174 0.005984
109 0.005001
78 0.006982
56 0.000998
52 0.005982
60 0.004979
70 0.005981
83 0.006018
83 0.005984
86 0.005984
93 0.005024
104 0.003968
116 0.002025
125 0.004017
134 0.002024
140 0.001987
142 0.002006
145 0.001958
148 0.001998
150 0.001958
75 0.001996
38 0.00203
24 0.000994
34 0.002036
44 0.000999
60 0.0
68 0.0
70 0.0
73 0.00199
81 0.002963
94 0.003999
109 0.003963
119 0.003978
129 0.004988
138 0.004003
144 0.003962
152 0.004988
158 0.004956
108 0.005041
39 0.004976
35 0.004989
54 0.005016
69 0.006981
80 0.006972
91 0.004979
97 0.002992
100 0.002999
111 0.003001
117 0.002997
129 0.002999
140 0.004027
150 0.002009
155 0.004035
160 0.004019
165 0.002983
172 0.002063
178 0.000999
128 0.001987
63 0.003007
42 0.004988
49 0.005008
59 0.00504
69 0.004999
77 0.004963
79 0.004992
79 0.00505
87 0.005022
95 0.005988
101 0.00595
111 0.006022
116 0.00602
120 0.006019
128 0.006015
132 0.00601
137 0.006026
143 0.006025
109 0.006986
33 0.007962
19 0.006979
21 0.005024
35 0.00299
44 0.004031
59 0.001036
61 0.002037
64 0.002032
75 0.0
87 0.0
96 0.0
111 0.0
119 0.0
124 0.0
135 0.0
140 0.001997
135 0.001996
64 0.001995
43 0.001996
49 0.002959
64 0.003991
77 0.00399
95 0.005015
100 0.006028
102 0.006025
107 0.005986
114 0.006963
128 0.00798
138 0.005994
148 0.007936
154 0.006023
164 0.005988
167 0.006003
174 0.005987
158 0.005999
79 0.006018
54 0.00597
60 0.005023
70 0.005992
75 0.005051
92 0.004988
99 0.007021
98 0.004978
102 0.005984
110 0.006014
117 0.005998
127 0.005018
131 0.004995
136 0.004986
140 0.00303
141 0.004027
148 0.0
132 0.0
82 0.0
35 0.0
32 0.0
41 0.0
50 0.0
58 0.0
69 0.0
72 0.001
74 0.014959
78 0.000996
103 0.003038
106 0.004039
117 0.006011
125 0.005948
135 0.005982
144 0.006014
150 0.006982
148 0.007985
94 0.00698
61 0.003005
67 0.004018
87 0.002001
104 0.0
113 0.0
122 0.000999
119 0.001995
123 0.002963
136 0.003983
149 0.004007
158 0.004027
166 0.006981
174 0.006987
176 0.007
178 0.00499
182 0.005002
187 0.021905
177 0.0
88 0.0
68 0.006975
78 0.006981
85 0.006967
100 0.00698
109 0.006014
114 0.005984
123 0.004969
130 0.004955
143 0.002992
151 0.00203
156 0.002038
162 0.002014
164 0.001988
170 0.001004
195 0.000968
205 0.000957
198 0.0
130 0.0
89 0.000997
79 0.0
86 0.0
92 0.000963
99 0.002978
104 0.002007
104 0.002963
107 0.002961
108 0.002957
119 0.002953
127 0.002944
139 0.00295
147 0.002956
151 0.002952
158 0.004985
172 0.00594
175 0.005917
111 0.005995
63 0.00697
61 0.007018
87 0.005993
101 0.00602
117 0.005029
131 0.005983
131 0.003998
133 0.003999
142 0.002987
151 0.001995
160 0.001952
170 0.000971
175 0.0
182 0.0
184 0.0
189 0.0
166 0.0
86 0.001976
64 0.002953
71 0.003995
81 0.00399
95 0.003979
116 0.004972
123 0.005966
134 0.00597
143 0.00596
146 0.005987
159 0.005983
165 0.005984
171 0.005979
174 0.006943
180 0.006985
178 0.007978
183 0.006967
161 0.005984
80 0.005983
54 0.00398
60 0.005999
70 0.004004
75 0.004997
90 0.001993
92 0.002001
92 0.002003
101 0.00203
110 0.002018
114 0.001024
120 0.000987
128 0.000998
136 0.000965
140 0.002948
149 0.00202
118 0.001993
62 0.000998
43 0.001983
63 0.001969
71 0.001942
88 0.001965
100 0.000946
105 0.002003
109 0.0
120 0.002031
135 0.0
140 0.0
146 0.0
157 0.0
165 0.002949
172 0.003989
143 0.00399
69 0.003948
57 0.011967
77 0.003961
86 0.003986
97 0.004987
108 0.004988
108 0.00494
116 0.004967
124 0.004964
137 0.004992
149 0.005012
156 0.004948
164 0.004979
167 0.006952
168 0.007979
177 0.00695
106 0.006022
69 0.006983
67 0.005015
76 0.006981
81 0.003989
94 0.00201
101 0.002019
100 0.0
104 0.0
109 0.00099
118 0.002055
128 0.001964
135 0.002015
142 0.001987
146 0.002033
150 0.002035
154 0.002992
110 0.002969
47 0.003979
44 0.003989
56 0.003949
72 0.00397
94 0.003945
100 0.003954
102 0.003992
102 0.003982
117 0.003946
132 0.003955
139 0.004973
153 0.004988
163 0.006952
166 0.006973
173 0.006979
135 0.004988
88 0.003988
61 0.003985
69 0.00396
81 0.001953
91 0.00199
105 0.000997
109 0.000969
108 0.000994
109 0.000998
114 0.000991
124 0.002979
134 0.002954
148 0.00295
157 0.002992
163 0.002979
171 0.003986
163 0.003984
84 0.003989
49 0.004956
55 0.005989
69 0.005939
75 0.006981
87 0.006956
94 0.006973
96 0.007012
102 0.006992
114 0.007939
126 0.006001
137 0.005976
145 0.005983
147 0.005981
151 0.005988
158 0.003948
164 0.005983
108 0.004034
69 0.005953
62 0.002987
83 0.002977
93 0.002987
114 0.002962
116 0.003007
106 0.002039
110 0.001
116 0.000984
133 0.000959
143 0.001975
153 0.000992
161 0.0
168 0.0
176 0.0
123 0.0
82 0.0
70 0.0
85 0.0
101 0.0
114 0.0
125 0.0
126 0.001009
127 0.000998
134 0.000979
145 0.000997
157 0.002988
161 0.002995
168 0.002957
172 0.002994
177 0.002964
175 0.002957
129 0.002956
66 0.003946
66 0.003998
77 0.003971
85 0.003984
95 0.003958
106 0.003948
106 0.005018
109 0.005976
116 0.006973
126 0.007977
130 0.007971
141 0.00796
149 0.007967
155 0.007025
161 0.005001
164 0.004992
172 0.001995
152 0.002992
118 0.0
59 0.0
66 0.001001
76 0.001003
94 0.00301
113 0.00296
116 0.002929
116 0.002958
127 0.002973
134 0.002956
150 0.00399
160 0.002965
174 0.003981
182 0.004018
187 0.003989
194 0.003959
189 0.005021
144 0.005044
92 0.005008
92 0.004941
111 0.005013
123 0.004987
129 0.006981
130 0.00694
132 0.006972
137 0.006972
147 0.005021
167 0.003982
177 0.003996
190 0.004012
195 0.00402
203 0.003989
209 0.006018
213 0.00402
217 0.005016
209 0.004008
139 0.004991
86 0.004036
88 0.003017
100 0.00202
106 0.0
114 0.002029
120 0.0
118 0.0
119 0.000999
124 0.003034
133 0.003037
138 0.002993
146 0.003022
150 0.002991
154 0.002991
157 0.002946
158 0.003989
160 0.003957
164 0.003995
132 0.004015
50 0.003989
28 0.004024
34 0.003956
48 0.00399
56 0.004998
67 0.005016
72 0.006955
75 0.007944
86 0.006978
101 0.003981
108 0.003958
121 0.003999
129 0.002977
143 0.003022
152 0.003022
156 0.003002
167 0.002991
167 0.003989
111 0.002013
67 0.002983
62 0.0
77 0.000999
92 0.001
102 0.000997
114 0.000994
119 0.000999
120 0.000999
129 0.000961
145 0.003027
150 0.002991
160 0.003964
166 0.003989
176 0.003958
185 0.004029
189 0.004012
198 0.00395
160 0.004017
109 0.00402
68 0.003994
69 0.004954
81 0.005016
95 0.005982
104 0.006942
106 0.006936
107 0.007987
110 0.004996
115 0.00702
122 0.004994
129 0.007009
139 0.006982
143 0.006982
147 0.006033
152 0.003996
153 0.004987
159 0.001031
118 0.001995
67 0.000998
29 0.0
35 0.0
40 0.0
54 0.0
62 0.0
69 0.001995
71 0.001995
74 0.002024
81 0.003989
98 0.00597
100 0.006959
113 0.006002
119 0.007979
127 0.006003
135 0.006981
148 0.007014
149 0.006983
80 0.005984
55 0.005984
61 0.005971
75 0.004025
84 0.005984
98 0.003946
109 0.004013
111 0.00402
108 0.003973
113 0.003996
125 0.001053
140 0.001044
147 0.001042
151 0.001996
157 0.002992
163 0.0
169 0.002029
177 0.001
162 0.002048
81 0.001996
50 0.001996
55 0.003936
64 0.005016
70 0.005026
82 0.005025
93 0.004989
99 0.005985
105 0.00798
113 0.006982
121 0.00798
136 0.006016
144 0.007976
151 0.005986
153 0.005948
156 0.006014
163 0.005972
168 0.005987
172 0.005986
142 0.005985
88 0.005024
41 0.005984
45 0.00698
56 0.004987
61 0.007008
75 0.004993
80 0.005018
82 0.004961
83 0.005038
88 0.003989
99 0.001995
106 0.001982
113 0.0
120 0.0
126 0.0
135 0.000997
141 0.003032
151 0.001997
137 0.001966
63 0.00399
46 0.005032
57 0.005989
76 0.006969
83 0.006025
101 0.007963
104 0.005984
105 0.007979
111 0.007981
118 0.007979
133 0.007934
144 0.006041
152 0.005984
161 0.004978
166 0.006014
174 0.004027
182 0.003991
186 0.003929
118 0.003995
77 0.00397
63 0.00398
77 0.00399
85 0.004019
99 0.004005
108 0.005016
108 0.003007
110 0.005026
116 0.003017
126 0.004019
138 0.003989
146 0.003991
155 0.003024
160 0.003029
164 0.003026
166 0.001997
171 0.002993
141 0.0
61 0.0
42 0.0
46 0.0
53 0.003036
60 0.002992
73 0.004022
79 0.004
79 0.003949
81 0.004024
85 0.004022
98 0.004947
112 0.005015
116 0.005021
122 0.005952
129 0.005034
137 0.005
148 0.006016
140 0.005986
80 0.005992
39 0.006013
42 0.00698
58 0.006981
71 0.004019
83 0.004026
91 0.00198
91 0.000964
94 0.0
105 0.000971
119 0.0
126 0.000972
138 0.0
145 0.0
151 0.000997
161 0.001994
146 0.003955
98 0.003954
50 0.004987
52 0.004992
67 0.004995
76 0.00503
90 0.004965
102 0.004995
104 0.00495
104 0.004979
112 0.004975
119 0.005014
135 0.004987
145 0.006006
148 0.005958
154 0.006981
160 0.007978
168 0.005958
146 0.006015
97 0.005986
49 0.005987
54 0.00599
59 0.005961
69 0.005966
83 0.005987
88 0.005004
88 0.005986
89 0.004017
97 0.005985
110 0.00399
120 0.004012
124 0.003966
131 0.000956
137 0.00097
144 0.0
154 0.00097
154 0.001
86 0.001029
51 0.000998
46 0.000988
61 0.001
64 0.002007
78 0.002991
87 0.003942
91 0.003949
97 0.003985
101 0.003981
114 0.005961
127 0.005978
137 0.005994
147 0.00599
153 0.007965
159 0.005991
173 0.00699
130 0.004986
93 0.004991
77 0.004996
89 0.004942
107 0.004973
124 0.002992
132 0.004992
132 0.003001
137 0.002995
140 0.003017
153 0.002009
162 0.001937
170 0.0
176 0.0
181 0.001989
187 0.001976
198 0.001977
198 0.001959
125 0.003988
85 0.003963
87 0.004997
97 0.005952
98 0.006985
105 0.007025
115 0.007961
118 0.004947
118 0.006981
123 0.003989
134 0.003988
142 0.002992
152 0.002993
157 0.002987
166 0.002972
171 0.003
175 0.002044
183 0.000982
143 0.002975
94 0.000989
78 0.001984
90 0.001995
98 0.001998
109 0.002009
117 0.001996
123 0.000991
125 0.001979
129 0.001987
139 0.00199
153 0.002957
159 0.002959
169 0.002959
175 0.002962
182 0.003994
192 0.004987
194 0.006013
150 0.006971
100 0.006021
98 0.00503
111 0.002991
124 0.002
134 0.001988
142 0.001997
144 0.00399
147 0.001993
154 0.003984
168 0.001961
176 0.001967
186 0.001007
190 0.0
197 0.0
203 0.0
205 0.0
210 0.000973
155 0.001005
113 0.00095
91 0.001963
100 0.003951
105 0.003949
114 0.003982
122 0.003973
125 0.00399
126 0.00405
128 0.003996
139 0.005986
148 0.006981
154 0.006973
161 0.00698
165 0.006977
172 0.006955
176 0.006975
180 0.006949
183 0.007018
136 0.007922
92 0.006978
67 0.006982
72 0.005984
83 0.006982
98 0.001994
108 0.003989
113 0.001995
115 0.001967
118 0.001966
131 0.002036
137 0.001997
142 0.001993
154 0.002982
161 0.001995
168 0.001026
176 0.0
179 0.0
130 0.0
81 0.0
76 0.0
89 0.0
98 0.0
115 0.002966
122 0.002953
123 0.002958
123 0.002946
131 0.002986
138 0.003989
148 0.004974
157 0.004991
162 0.005009
169 0.006971
171 0.006951
178 0.007009
165 0.005959
119 0.005989
67 0.004984
65 0.003982
72 0.002994
83 0.001967
96 0.003989
102 0.001996
103 0.003944
108 0.001941
116 0.002988
128 0.003007
135 0.001931
146 0.0
149 0.0
154 0.0
156 0.0
167 0.0
168 0.0
112 0.001995
76 0.00296
61 0.002957
78 0.004941
91 0.004976
111 0.004993
123 0.005984
124 0.006958
136 0.006924
144 0.00794
159 0.005949
175 0.007974
187 0.00698
192 0.006976
195 0.00698
191 0.006997
195 0.004976
174 0.002998
126 0.004984
80 0.00299
81 0.002986
91 0.002977
105 0.002992
111 0.001994
115 0.002988
106 0.000951
108 0.0
114 0.0
123 0.0
129 0.0
139 0.0
149 0.002938
154 0.002949
137 0.002992
92 0.002966
50 0.002951
47 0.002994
58 0.002993
68 0.002991
89 0.002959
96 0.002939
100 0.002966
102 0.00499
115 0.005977
126 0.00598
133 0.005965
147 0.005983
159 0.005953
163 0.005967
162 0.006947
141 0.006016
75 0.005981
54 0.005935
57 0.005978
67 0.004998
82 0.004985
97 0.00298
99 0.004946
100 0.003991
104 0.003005
114 0.002986
123 0.002978
135 0.002987
145 0.001996
149 0.001997
157 0.0
171 0.0
155 0.0
84 0.0
66 0.0
63 0.0
78 0.0
87 0.0
103 0.0
111 0.000986
111 0.001948
118 0.002952
132 0.003989
139 0.004987
153 0.005002
159 0.004968
158 0.00498
172 0.004958
187 0.005989
150 0.006982
105 0.006981
99 0.006943
108 0.006971
117 0.006975
131 0.007971
139 0.004982
140 0.005987
143 0.001991
154 0.002005
166 0.000936
172 0.0
179 0.0
186 0.0
197 0.0
207 0.000989
212 0.001001
173 0.000992
125 0.000998
119 0.000998
124 0.001005
127 0.001979
136 0.001995
146 0.002
148 0.001988
154 0.002014
159 0.001966
165 0.001977
178 0.00196
185 0.003946
194 0.004977
203 0.006024
207 0.006041
215 0.00599
223 0.005984
201 0.005949
154 0.00396
145 0.004007
150 0.003992
156 0.004037
159 0.003981
167 0.004003
167 0.005015
170 0.002977
173 0.005029
180 0.002977
186 0.005013
194 0.003989
199 0.00403
207 0.004018
216 0.001999
222 0.0
224 0.000998
177 0.000977
159 0.000997
163 0.000998
171 0.001996
176 0.001994
186 0.001963
186 0.001996
186 0.002991
191 0.002986
196 0.002997
201 0.002992
204 0.002992
196 0.003023
201 0.002993
222 0.002958
234 0.004987
232 0.004981
202 0.004929
165 0.005027
160 0.00698
161 0.00695
161 0.006979
166 0.00701
165 0.006974
161 0.006982
159 0.005983
166 0.004994
170 0.004991
170 0.004969
193 0.004991
199 0.004029
221 0.00295
225 0.003945
232 0.001995
206 0.004021
137 0.00399
123 0.00399
117 0.003981
113 0.003983
106 0.001027
118 0.0
117 0.000964
119 0.001996
114 0.002006
117 0.002992
131 0.002993
151 0.005021
157 0.005015
161 0.006967
167 0.006971
175 0.007031
179 0.003991
106 0.003961
70 0.003995
52 0.003976
55 0.005985
63 0.003988
72 0.006007
73 0.003994
71 0.005984
72 0.004969
76 0.004946
84 0.004987
96 0.002005
102 0.002993
109 0.001996
116 0.001996
137 0.0
113 0.001969
65 0.002055
19 0.000997
18 0.001995
22 0.001993
36 0.002036
39 0.002992
39 0.003036
35 0.002954
39 0.002966
49 0.002993
66 0.003961
74 0.003988
85 0.003993
92 0.00397
109 0.004023
100 0.004032
40 0.004983
6 0.006019
11 0.005958
20 0.005992
40 0.007978
54 0.004985
60 0.006017
64 0.001991
70 0.000978
77 0.002014
93 0.000996
111 0.001992
121 0.00199
130 0.001997
137 0.002007
145 0.001976
95 0.002951
37 0.0
15 0.001995
21 0.0
31 0.0
53 0.0
63 0.0
67 0.000998
70 0.000997
78 0.000999
93 0.002995
111 0.005949
118 0.007027
130 0.006984
140 0.004987
150 0.006982
162 0.004975
134 0.003994
78 0.002993
26 0.002991
29 0.001992
38 0.001982
51 0.000994
66 0.002024
74 0.0
77 0.002023
81 0.0
91 0.002004
106 0.001986
115 0.000958
125 0.000998
136 0.000998
144 0.0
152 0.0
165 0.0
132 0.0
55 0.000995
31 0.001996
44 0.003994
65 0.003958
78 0.003988
90 0.003991
92 0.005027
96 0.005016
109 0.005025
117 0.005015
130 0.004959
143 0.006956
150 0.006944
158 0.007981
169 0.007017
176 0.006013
116 0.005974
67 0.005983
38 0.005983
52 0.002956
62 0.004983
84 0.002982
94 0.00201
96 0.001999
97 0.001995
104 0.001997
122 0.00097
133 0.000925
138 0.001
153 0.0
160 0.001977
168 0.0
172 0.002022
129 0.0
45 0.001
27 0.000993
36 0.002012
52 0.001992
65 0.001993
77 0.001966
82 0.001968
86 0.001961
93 0.001997
109 0.001958
119 0.00197
133 0.002032
147 0.003936
151 0.003961
163 0.005022
169 0.005982
176 0.006001
119 0.004991
30 0.003999
15 0.004014
24 0.003001
34 0.004012
45 0.002038
60 0.002996
67 0.001024
69 0.002993
77 0.00197
87 0.001982
104 0.002025
118 0.000952
125 0.002992
133 0.0
144 0.001998
148 0.001997
162 0.002045
143 0.002002
52 0.00202
18 0.002983
26 0.003954
45 0.005017
61 0.009011
73 0.005016
79 0.006
81 0.006982
86 0.005987
102 0.006022
114 0.006019
131 0.005955
144 0.007013
154 0.00397
162 0.006034
171 0.006015
129 0.005985
45 0.005992
30 0.006016
43 0.005016
62 0.003022
76 0.005039
87 0.001997
94 0.001987
98 0.001991
109 0.0
119 0.0
136 0.001967
152 0.000959
156 0.0
167 0.0
179 0.0
178 0.0
91 0.002961
31 0.002033
30 0.00202
46 0.002952
52 0.001996
70 0.002954
81 0.002992
82 0.002993
85 0.004989
98 0.004991
108 0.005022
123 0.005025
137 0.006018
148 0.006981
157 0.006023
168 0.006992
173 0.006981
90 0.005972
43 0.00498
29 0.00399
46 0.003018
52 0.003033
69 0.004025
75 0.002958
74 0.002003
80 0.002986
89 0.001988
101 0.003989
116 0.002996
124 0.002971
136 0.002991
144 0.002986
161 0.002027
124 0.000998
59 0.000999
43 0.0
59 0.0
71 0.000995
88 0.000995
100 0.002967
103 0.002992
108 0.002957
115 0.002928
133 0.003971
148 0.003947
156 0.004972
166 0.005976
179 0.007946
186 0.005991
151 0.007992
83 0.006985
59 0.005944
63 0.005989
76 0.003037
84 0.005984
103 0.004012
108 0.004991
112 0.002003
123 0.001005
131 0.000984
149 0.002007
161 0.001963
169 0.001996
179 0.002001
185 0.001993
197 0.0
162 0.002993
91 0.001993
64 0.002947
69 0.000993
76 0.001984
86 0.00198
96 0.001977
104 0.001999
109 0.0
115 0.001943
127 0.0
142 0.00198
150 0.002947
161 0.003952
173 0.004986
179 0.004982
187 0.004946
195 0.004991
173 0.005971
107 0.006953
79 0.004988
79 0.003001
92 0.002033
100 0.00202
114 0.001029
119 0.0
118 0.0
125 0.001001
140 0.001984
149 0.001989
160 0.001997
171 0.00196
182 0.00295
189 0.002955
202 0.003989
203 0.003988
130 0.003952
95 0.004996
86 0.004993
100 0.004987
107 0.004996
125 0.006979
129 0.004948
131 0.003989
137 0.002998
147 0.001981
156 0.001982
168 0.001976
175 0.00199
183 0.0
191 0.001998
200 0.00199
206 0.0
201 0.0
153 0.0
80 0.002037
69 0.001949
75 0.001951
79 0.001995
92 0.002032
100 0.001971
107 0.00203
110 0.001986
119 0.001979
134 0.002965
142 0.003942
155 0.004953
166 0.004986
172 0.004978
182 0.004983
186 0.004987
195 0.004968
190 0.004975
137 0.00497
64 0.004955
55 0.006963
62 0.005964
71 0.007972
80 0.005985
92 0.007951
96 0.007969
100 0.007968
103 0.006982
115 0.002962
124 0.004986
140 0.001999
152 0.002
157 0.001996
166 0.0
179 0.0
183 0.0
119 0.000988
59 0.002029
54 0.001936
73 0.002027
84 0.002031
108 0.00294
118 0.004934
119 0.003991
123 0.004981
132 0.004957
146 0.004978
159 0.004991
170 0.004943
179 0.004978
189 0.005026
195 0.005985
167 0.006981
92 0.005989
51 0.007951
52 0.005977
63 0.00796
74 0.00395
91 0.003997
96 0.003985
99 0.002991
103 0.006041
112 0.001994
126 0.002972
140 0.0
147 0.0
158 0.0
166 0.0
175 0.0
171 0.0
81 0.001972
39 0.001997
32 0.002961
40 0.002961
46 0.002993
63 0.002991
70 0.003956
75 0.005023
79 0.006983
85 0.006982
99 0.003989
116 0.003998
127 0.002978
139 0.002994
146 0.004953
154 0.002974
158 0.005031
98 0.003003
37 0.004991
25 0.00498
39 0.004987
60 0.004991
81 0.0
87 0.001953
87 0.0
89 0.001987
99 0.000965
118 0.0
127 0.0
143 0.001018
147 0.000946
159 0.000984
159 0.002039
80 0.002993
47 0.002971
49 0.002943
62 0.003989
78 0.004947
94 0.005
97 0.005001
101 0.005943
109 0.005965
123 0.005997
137 0.006974
146 0.006949
159 0.006981
167 0.006976
173 0.006943
173 0.007979
88 0.004941
43 0.006985
36 0.004965
47 0.006941
59 0.003987
80 0.004
86 0.002965
83 0.001986
83 0.001965
90 0.001987
104 0.002021
113 0.002993
125 0.001992
129 0.002963
143 0.00098
151 0.000986
78 0.001957
25 0.003935
18 0.00498
35 0.005975
55 0.005931
67 0.005967
75 0.005946
75 0.005971
82 0.006947
91 0.00599
103 0.007974
116 0.003996
125 0.003972
134 0.002006
150 0.002007
140 0.00198
87 0.0
42 0.00096
53 0.0
69 0.001007
91 0.002964
107 0.005027
111 0.004987
111 0.005956
118 0.006972
126 0.006978
139 0.007968
151 0.006998
159 0.006985
163 0.006981
166 0.005933
177 0.005976
95 0.003981
48 0.005982
36 0.00399
53 0.003998
57 0.00399
71 0.003973
81 0.001995
83 0.001969
90 0.001992
99 0.001998
113 0.001993
135 0.001999
138 0.0
145 0.0
154 0.0
163 0.0
138 0.000993
78 0.00199
23 0.002957
20 0.004945
26 0.005991
46 0.005968
76 0.005983
86 0.006978
90 0.007935
93 0.004959
105 0.007984
119 0.004995
141 0.00494
153 0.004953
165 0.004985
173 0.005
180 0.004994
117 0.007008
62 0.004983
58 0.006031
77 0.00602
89 0.004931
116 0.00502
123 0.004046
123 0.002991
123 0.001995
130 0.002
150 0.0
168 0.000997
175 0.000968
182 0.000968
188 0.0
199 0.0
110 0.000968
71 0.0
36 0.000953
57 0.002041
70 0.001995
89 0.001992
99 0.002994
101 0.00399
111 0.004003
120 0.003952
134 0.004956
141 0.006983
150 0.006023
160 0.005986
169 0.004987
176 0.002042
184 0.004015
136 0.001996
70 0.002992
27 0.0
38 0.0
56 0.001044
64 0.001996
81 0.001994
82 0.000962
87 0.001991
97 0.001996
106 0.00205
124 0.00292
143 0.003952
145 0.004998
155 0.004988
162 0.005944
180 0.005994
133 0.006017
58 0.005993
35 0.005984
54 0.007978
72 0.00799
92 0.007974
104 0.007962
109 0.007979
107 0.004978
113 0.006009
128 0.003003
145 0.002994
157 0.003014
170 0.002026
175 0.002996
189 0.002951
158 0.002032
91 0.001972
35 0.002017
41 0.004016
56 0.001992
72 0.003949
87 0.002987
93 0.002991
93 0.001995
95 0.0
112 0.000999
127 0.002995
148 0.004031
153 0.004986
166 0.004962
171 0.004989
186 0.00502
140 0.004996
73 0.005016
26 0.004951
30 0.004984
40 0.005982
57 0.004949
68 0.005004
70 0.006008
70 0.005991
79 0.005986
93 0.005958
106 0.005947
115 0.006024
124 0.006012
131 0.005979
144 0.006011
156 0.006002
157 0.007013
72 0.007008
27 0.007018
24 0.007023
42 0.004996
54 0.006984
77 0.002963
84 0.002036
85 0.0
87 0.0
105 0.001961
117 0.0
136 0.0
140 0.0
150 0.0
163 0.001995
152 0.002993
59 0.002941
27 0.004019
36 0.004025
60 0.003964
76 0.004998
95 0.005982
100 0.005981
101 0.005984
102 0.005982
116 0.00603
125 0.005984
147 0.005985
153 0.004989
159 0.006012
164 0.002992
111 0.003
56 0.002982
16 0.00298
21 0.002974
39 0.002044
56 0.005025
71 0.002992
81 0.005025
84 0.004016
86 0.003027
101 0.002018
109 0.002005
124 0.0
132 0.0
139 0.000959
151 0.001996
132 0.002967
69 0.002963
7 0.00299
19 0.002991
32 0.005028
51 0.004991
65 0.005019
68 0.004988
69 0.005943
71 0.005988
81 0.005986
100 0.004993
109 0.005012
130 0.004984
136 0.005038
146 0.002991
128 0.00502
43 0.004007
21 0.003
38 0.00303
59 0.001982
74 0.002992
95 0.000963
96 0.002989
100 0.0
114 0.0
125 0.0
142 0.001009
153 0.0
161 0.001004
169 0.000997
176 0.001963
110 0.003001
39 0.003947
42 0.005983
55 0.006956
69 0.005975
84 0.005988
97 0.002965
99 0.004988
104 0.002992
108 0.0
127 0.002984
140 0.0
148 0.003027
158 0.0
163 0.002033
172 0.001022
162 0.0
102 0.0
30 0.0
27 0.000998
39 0.001002
50 0.001
58 0.000991
73 0.002994
78 0.002988
85 0.003991
94 0.004979
104 0.004995
114 0.005005
131 0.004987
139 0.004991
146 0.00498
150 0.005014
162 0.006947
165 0.00701
97 0.007033
50 0.006053
29 0.005984
49 0.002992
62 0.005989
83 0.003979
90 0.00604
95 0.002995
105 0.002976
115 0.002957
137 0.002001
155 0.000972
165 0.001981
175 0.0
188 0.0
198 0.0
200 0.0
120 0.001986
86 0.001994
84 0.002993
95 0.002994
108 0.002964
125 0.002964
136 0.002959
136 0.002995
139 0.002993
147 0.002957
161 0.002993
164 0.003037
176 0.002957
191 0.003982
194 0.003954
205 0.003985
216 0.004038
216 0.003956
116 0.004019
78 0.004036
86 0.00395
99 0.004004
103 0.005982
108 0.006968
116 0.00695
117 0.006966
127 0.006986
134 0.006981
142 0.00698
151 0.006949
168 0.006976
185 0.006964
195 0.006993
201 0.005975
215 0.004949
220 0.004001
154 0.003988
113 0.004007
89 0.003983
104 0.002994
115 0.003026
144 0.001978
149 0.003
146 0.001029
148 0.002945
167 0.002953
182 0.002932
197 0.004018
202 0.00498
209 0.005022
219 0.004984
240 0.004986
233 0.004969
144 0.004974
108 0.00503
107 0.006002
130 0.005987
140 0.005984
151 0.006972
158 0.005986
160 0.00698
171 0.005969
176 0.006023
184 0.00594
192 0.004993
201 0.003993
219 0.004
224 0.005031
224 0.002021
235 0.003988
180 0.004024
125 0.003977
83 0.002024
89 0.0
95 0.002992
104 0.000958
114 0.000998
115 0.000943
113 0.000986
118 0.001
128 0.002951
140 0.002956
146 0.002945
156 0.003996
169 0.003992
174 0.003936
185 0.006953
168 0.006958
109 0.005961
54 0.003976
42 0.00598
50 0.004019
60 0.005986
72 0.002991
82 0.006013
90 0.004984
95 0.002985
99 0.001974
112 0.0
123 0.001997
136 0.0
145 0.0
150 0.0
164 0.0
170 0.0
101 0.0
40 0.0
39 0.001001
59 0.002984
80 0.00297
95 0.002953
104 0.003986
105 0.004946
109 0.005025
125 0.005983
140 0.007934
149 0.004952
158 0.004986
174 0.004993
179 0.004996
190 0.005004
160 0.004991
65 0.004989
43 0.001999
51 0.004981
66 0.001988
82 0.0
92 0.0
96 0.00096
99 0.0
111 0.0
128 0.00097
135 0.0
144 0.00101
149 0.001049
160 0.0
166 0.001996
175 0.001964
134 0.001996
44 0.003944
26 0.003989
39 0.003993
50 0.005984
60 0.005991
71 0.005982
76 0.005981
81 0.006968
90 0.00797
100 0.002999
110 0.004992
121 0.002966
137 0.001988
144 0.002979
150 0.001983
156 0.002033
158 0.002005
74 0.001986
40 0.001975
37 0.001994
47 0.002984
67 0.001961
86 0.001998
97 0.0
99 0.002022
101 0.001985
112 0.002
143 0.003028
167 0.001002
180 0.001999
187 0.001987
191 0.001968
205 0.00199
167 0.001996
109 0.001977
70 0.001987
77 0.001994
97 0.001974
120 0.001992
130 0.002994
134 0.00395
135 0.003952
141 0.003985
166 0.005988
180 0.006981
186 0.004026
198 0.005979
216 0.004989
226 0.004031
238 0.002974
213 0.000988
128 0.000978
82 0.000997
87 0.000972
99 0.000997
112 0.000994
126 0.001958
131 0.00199
131 0.001994
126 0.002034
130 0.004979
143 0.004979
149 0.004978
161 0.006963
168 0.003996
173 0.00598
179 0.003028
190 0.005972
139 0.002981
56 0.005985
28 0.005986
37 0.004995
49 0.004944
58 0.004941
72 0.00499
70 0.003938
74 0.003986
81 0.001
91 0.0
101 0.0
113 0.0
126 0.001003
133 0.000996
146 0.002006
152 0.002947
96 0.002965
17 0.002957
16 0.003943
45 0.003963
72 0.005952
88 0.005974
104 0.006968
112 0.007955
121 0.005992
137 0.007977
167 0.00798
185 0.007976
209 0.007967
225 0.006985
238 0.005984
241 0.002027
203 0.003995
91 0.0
70 0.0
83 0.0
99 0.000971
117 0.001012
127 0.0
137 0.0
139 0.0
144 0.0
155 0.0
166 0.000962
183 0.002998
196 0.002992
201 0.002964
204 0.002957
205 0.00305
122 0.002999
50 0.002934
36 0.002961
47 0.002953
60 0.003962
71 0.00396
86 0.005003
90 0.005955
80 0.005948
95 0.00596
96 0.005993
109 0.005996
110 0.005998
110 0.005947
122 0.005988
130 0.006949
149 0.00698
72 0.006979
5 0.006971
67 0.006944
78 0.007959
86 0.004008
96 0.006973
103 0.003979
105 0.006946
110 0.005957
116 0.005948
130 0.005983
142 0.00299
144 0.004001
148 0.0
156 0.001003
162 0.0
145 0.0
98 0.001994
90 0.002979
95 0.004973
103 0.006968
110 0.006981
121 0.004995
121 0.004994
122 0.004003
126 0.003951
136 0.006981
144 0.003989
151 0.006992
156 0.004002
160 0.005958
165 0.005981
170 0.005978
136 0.005976
102 0.005983
83 0.005951
92 0.001996
98 0.004985
105 0.001995
111 0.00205
112 0.001991
110 0.003
112 0.002986
117 0.000998
125 0.0
129 0.0
134 0.00102
141 0.001959
144 0.002964
150 0.004992
147 0.006928
89 0.006982
40 0.007011
44 0.007011
57 0.007958
66 0.005985
78 0.001942
84 0.004952
91 0.002005
104 0.001974
113 0.001992
133 0.001993
152 0.002984
163 0.002983
180 0.000963
185 0.0
188 0.00095
177 0.000952
130 0.001956
82 0.001948
85 0.003999
102 0.005983
114 0.005988
130 0.005975
134 0.005987
130 0.005971
135 0.006011
144 0.005989
160 0.006944
169 0.004998
175 0.00702
184 0.004972
189 0.006993
194 0.004995
193 0.004023
149 0.003994
83 0.005986
68 0.001991
76 0.001994
89 0.002999
99 0.001981
110 0.001
108 0.001998
110 0.000939
114 0.001957
125 0.003988
133 0.004979
140 0.005984
149 0.006926
156 0.005971
158 0.00699
166 0.006982
164 0.006949
83 0.006982
41 0.005964
38 0.007009
54 0.004023
67 0.003995
77 0.003994
82 0.004949
79 0.003991
83 0.002009
96 0.002994
107 0.002972
124 0.0
138 0.003035
146 0.0
153 0.002994
170 0.0
158 0.0
84 0.000967
65 0.0
76 0.00101
92 0.000998
107 0.002027
122 0.000968
128 0.001992
127 0.001974
130 0.002028
138 0.000998
155 0.000998
169 0.001962
175 0.002993
184 0.004998
191 0.005974
198 0.005946
141 0.005963
73 0.00601
65 0.006032
75 0.00501
83 0.004952
95 0.004945
109 0.007946
108 0.004978
107 0.007975
105 0.007018
110 0.006985
118 0.004996
132 0.001995
140 0.003023
148 0.0
151 0.002989
162 0.0
115 0.0
68 0.0
37 0.000963
48 0.000991
53 0.0
67 0.0
77 0.0
78 0.002038
74 0.000996
77 0.000988
86 0.002992
102 0.005004
113 0.007943
118 0.005957
129 0.007966
138 0.004989
148 0.007018
90 0.004997
60 0.003994
57 0.003975
77 0.001996
91 0.002008
111 0.000953
116 0.000999
117 0.000997
119 0.001968
133 0.001994
142 0.002032
156 0.003963
169 0.004982
173 0.004986
179 0.004982
184 0.004965
123 0.004986
76 0.005032
68 0.005998
75 0.004986
87 0.00694
97 0.006973
111 0.00698
112 0.004999
111 0.006017
122 0.001993
131 0.002032
134 0.002035
144 0.002983
152 0.0
163 0.0
172 0.0
158 0.0
81 0.000963
56 0.003046
56 0.0
66 0.001988
71 0.010998
89 0.0
97 0.000984
95 0.00199
99 0.002993
108 0.003982
119 0.003949
130 0.004987
137 0.005013
139 0.005031
145 0.005017
153 0.005015
120 0.004986
66 0.00602
50 0.007964
66 0.003981
89 0.003986
102 0.003986
120 0.002992
119 0.002991
119 0.002998
131 0.002037
143 0.003991
157 0.002003
162 0.003989
167 0.002972
172 0.002993
179 0.0
144 0.0
76 0.001028
67 0.000994
79 0.000985
89 0.002036
107 0.002949
111 0.002946
114 0.00399
108 0.005989
107 0.005023
125 0.004974
135 0.004986
142 0.005978
150 0.00597
156 0.005984
172 0.005941
104 0.00597
74 0.004983
54 0.005025
61 0.005028
75 0.005979
90 0.006956
99 0.00504
101 0.00797
103 0.00602
104 0.004991
114 0.005983
123 0.004987
136 0.004988
146 0.0
147 0.002989
155 0.0
101 0.0
63 0.0
50 0.0
69 0.000963
84 0.001007
100 0.0
110 0.0
113 0.000958
115 0.001997
123 0.002993
140 0.003951
155 0.005942
163 0.006026
174 0.005977
188 0.00796
177 0.004997
103 0.007968
81 0.006023
88 0.004987
108 0.004987
120 0.0
134 0.000994
135 0.002028
138 0.002036
143 0.001967
154 0.001996
166 0.001958
171 0.001967
179 0.003019
184 0.003981
186 0.003947
118 0.003933
78 0.00498
68 0.005996
89 0.005998
98 0.005999
106 0.005985
111 0.006976
114 0.005984
123 0.006981
130 0.006006
135 0.006977
138 0.00598
142 0.007985
153 0.002943
167 0.002996
173 0.003027
113 0.002984
72 0.002963
61 0.001
78 0.00201
86 0.002988
106 0.002986
110 0.003027
114 0.001987
120 0.002939
134 0.002975
144 0.002994
170 0.002988
179 0.000999
189 0.001996
198 0.00099
177 0.002992
125 0.002991
118 0.002992
133 0.002992
157 0.003003
170 0.002994
174 0.002993
148 0.002986
131 0.003991
131 0.004952
150 0.004982
156 0.005947
174 0.006001
192 0.00404
204 0.00598
206 0.00598
155 0.005974
103 0.00596
100 0.005961
112 0.00598
123 0.006975
124 0.007982
119 0.007015
117 0.007024
117 0.007022
123 0.007003
138 0.004024
143 0.005028
150 0.0
158 0.0
165 0.0
175 0.000964
130 0.000926
101 0.000963
92 0.0
97 0.0
106 0.0
114 0.0
123 0.000998
125 0.000998
123 0.002009
122 0.001005
136 0.001995
148 0.001997
154 0.003983
164 0.003991
178 0.003948
195 0.003963
158 0.005952
129 0.006974
124 0.007976
140 0.002993
152 0.002992
160 0.002992
170 0.0
171 0.0
174 0.0
184 0.0
190 0.0
200 0.0
207 0.002995
214 0.0
222 0.001999
224 0.003936
190 0.00396
136 0.004985
122 0.018949
122 0.003987
131 0.002991
141 0.005945
145 0.006019
148 0.005986
149 0.005966
153 0.007964
161 0.004985
168 0.007027
178 0.004015
183 0.007052
189 0.003989
197 0.003952
175 0.003981
113 0.003992
97 0.004011
101 0.003989
103 0.003986
107 0.003988
116 0.003027
114 0.005042
112 0.001993
117 0.004997
127 0.003027
132 0.003019
141 0.00299
151 0.0
161 0.001995
177 0.003948
144 0.003943
116 0.005976
111 0.006012
124 0.005947
134 0.007024
147 0.002997
153 0.002973
156 0.003002
163 0.002974
175 0.002028
184 0.002994
194 0.000993
196 0.001975
200 0.0
207 0.001015
169 0.001954
143 0.00297
132 0.002993
132 0.003984
141 0.003972
148 0.004034
136 0.00396
135 0.003949
125 0.003988
118 0.003957
123 0.00395
126 0.003978
127 0.003944
144 0.003989
153 0.004938
146 0.00598
104 0.005934
100 0.00595
96 0.00598
98 0.005979
105 0.00594
115 0.005966
115 0.005973
119 0.006
124 0.005987
135 0.006978
146 0.005966
163 0.002035
167 0.004046
179 0.0
202 0.0
204 0.0
164 0.0
151 0.000972
147 0.001017
157 0.001011
160 0.0
169 0.001943
171 0.001941
169 0.001969
178 0.00197
189 0.001964
204 0.001952
217 0.001963
221 0.001962
225 0.002922
233 0.002951
195 0.002993
161 0.00396
152 0.003989
160 0.004992
162 0.006934
168 0.007967
167 0.007955
167 0.005004
166 0.007013
172 0.003991
179 0.002014
181 0.00099
190 0.0
199 0.0
203 0.000967
209 0.001995
156 0.003001
129 0.002983
118 0.001946
120 0.003969
116 0.00395
116 0.005937
122 0.005976
119 0.005969
122 0.005985
122 0.005926
125 0.006936
132 0.006968
137 0.007008
146 0.007932
148 0.004979
152 0.007013
128 0.003978
87 0.006976
61 0.003994
69 0.002991
71 0.002013
73 0.003
79 0.0
75 0.0
74 0.0
76 0.016996
92 0.000957
114 0.0
131 0.0
134 0.0
138 0.0
143 0.0
102 0.0
69 0.001964
57 0.001995
63 0.002979
77 0.00398
87 0.003962
92 0.003996
87 0.00396
99 0.004985
107 0.00499
120 0.00499
127 0.004985
142 0.004985
155 0.004994
165 0.004971
163 0.003985
131 0.003982
88 0.003975
80 0.003991
83 0.003996
88 0.006971
96 0.003937
99 0.006971
99 0.004983
99 0.003971
104 0.002992
111 0.000971
117 0.003005
125 0.0
129 0.001016
132 0.000971
133 0.001933
102 0.001996
60 0.002981
58 0.004959
64 0.004945
72 0.004968
86 0.005942
93 0.005924
96 0.005984
109 0.006971
118 0.005946
134 0.006935
143 0.004978
156 0.007974
166 0.007962
179 0.007979
162 0.007984
118 0.00498
115 0.007934
123 0.003989
125 0.005983
145 0.002992
149 0.003016
148 0.000993
150 0.001001
163 0.000997
175 0.000995
189 0.000951
199 0.002996
201 0.0
210 0.00299
214 0.000948
159 0.0
114 0.001962
107 0.002985
116 0.00295
124 0.003003
137 0.002966
144 0.002922
147 0.002954
147 0.002957
151 0.002953
155 0.002974
162 0.002946
170 0.004984
176 0.005977
187 0.005951
197 0.00598
167 0.005968
98 0.005993
83 0.005968
90 0.005984
98 0.005985
101 0.005028
105 0.006969
103 0.006997
103 0.003036
105 0.005987
115 0.00499
121 0.00502
126 0.004991
131 0.004991
143 0.00498
154 0.002046
163 0.004974
114 0.002022
67 0.000967
65 0.000997
75 0.0
94 0.001
108 0.001944
121 0.002953
122 0.003958
125 0.004945
135 0.00497
145 0.003039
149 0.002031
159 0.00198
168 0.003937
177 0.002989
186 0.004035
124 0.002981
81 0.002985
55 0.002965
62 0.00304
80 0.003027
101 0.00099
107 0.002035
110 0.00099
119 0.001016
126 0.0
137 0.0
142 0.002013
154 0.001997
162 0.00096
170 0.002008
178 0.002992
178 0.003933
130 0.00399
62 0.003991
56 0.005981
60 0.006002
68 0.005989
76 0.006992
81 0.005028
80 0.006982
79 0.005995
81 0.007028
91 0.004994
98 0.004992
112 0.00399
129 0.002996
130 0.004014
135 0.003001
142 0.003981
132 0.002964
62 0.0
39 0.00097
49 0.000982
64 0.000976
74 0.000949
92 0.0
94 0.001007
95 0.000972
102 0.000939
111 0.001958
126 0.00195
138 0.001957
147 0.002013
157 0.001988
167 0.002975
188 0.003992
149 0.002988
86 0.004972
79 0.004996
87 0.00499
89 0.004984
104 0.004987
116 0.005958
120 0.005977
120 0.004987
124 0.004982
129 0.004949
138 0.002992
157 0.002966
161 0.002944
167 0.003028
173 0.002936
179 0.003987
125 0.004026
81 0.003035
56 0.002983
72 0.0
77 0.002991
90 0.001956
97 0.0
97 0.002007
96 0.001976
100 0.003983
107 0.003956
119 0.003959
124 0.00394
130 0.003975
134 0.004978
136 0.003953
145 0.00695
109 0.004983
61 0.003989
33 0.001998
39 0.00497
49 0.001996
58 0.003949
70 0.004
72 0.003987
72 0.004013
79 0.004018
90 0.003953
107 0.002996
119 0.003953
127 0.026968
129 0.0
150 0.0
144 0.000965
102 0.00097
64 0.0
75 0.0
88 0.0
104 0.000955
118 0.001968
126 0.0
125 0.0
130 0.0
143 0.0
157 0.0
165 0.002002
173 0.001953
175 0.003953
176 0.003962
181 0.003941
134 0.003942
74 0.005979
52 0.005973
58 0.005947
67 0.006025
73 0.005987
79 0.005987
85 0.005982
90 0.005979
98 0.005979
104 0.005976
107 0.005983
121 0.005983
130 0.004974
137 0.005995
133 0.004957
133 0.003999
147 0.004002
112 0.007009
48 0.003944
21 0.007026
23 0.003995
31 0.005984
44 0.006011
54 0.005027
53 0.003
51 0.0
58 0.00302
72 0.0
97 0.000998
105 0.000997
115 0.001996
127 0.002971
137 0.003962
157 0.004981
148 0.004974
102 0.005013
56 0.004981
59 0.004983
78 0.005013
97 0.004983
105 0.005982
110 0.005943
114 0.005949
120 0.006001
132 0.005975
145 0.006009
155 0.007956
163 0.006983
170 0.005984
