91 0.006965
101 0.00698
106 0.006926
100 0.004993
103 0.00496
116 0.00497
132 0.004991
141 0.003992
158 0.002992
162 0.003029
167 0.002
172 0.002033
148 0.001987
66 0.001979
43 0.0
49 0.0
60 0.0
85 0.000998
95 0.002947
93 0.002947
94 0.004997
101 0.004977
118 0.005984
134 0.006966
140 0.006983
150 0.00604
158 0.005986
161 0.004989
117 0.005963
53 0.005026
26 0.004981
30 0.004992
38 0.004991
54 0.004987
69 0.003936
73 0.003983
74 0.003028
80 0.003994
97 0.002006
114 0.001973
123 0.002015
133 0.000988
143 0.00097
147 0.001989
156 0.002009
119 0.003955
64 0.003956
25 0.003985
31 0.003946
38 0.003991
49 0.003957
62 0.003958
73 0.004997
74 0.005996
82 0.005961
97 0.007974
112 0.007978
123 0.006975
138 0.006028
148 0.00497
153 0.006026
161 0.004993
167 0.005984
178 0.003956
187 0.002966
183 0.002991
92 0.002983
46 0.001005
47 0.00097
58 0.000962
69 0.000983
80 0.00098
91 0.00295
92 0.003944
99 0.002992
115 0.003955
127 0.003979
141 0.003957
151 0.004979
158 0.00499
165 0.00698
173 0.006984
178 0.00699
187 0.007947
195 0.006008
180 0.006982
88 0.005978
57 0.005984
62 0.004932
73 0.005018
79 0.003984
96 0.002989
104 0.000955
104 0.0
109 0.0
126 0.0
136 0.0
151 0.000999
161 0.00201
170 0.002993
176 0.00299
183 0.003953
187 0.003945
196 0.003962
201 0.003986
180 0.005984
86 0.005972
65 0.006021
68 0.005922
83 0.006949
89 0.006981
107 0.004993
114 0.003993
112 0.003986
116 0.003017
132 0.002993
146 0.002034
157 0.002994
169 0.00302
173 0.002991
180 0.002998
184 0.002986
191 0.0
198 0.0
161 0.0
89 0.0
64 0.001988
71 0.002021
89 0.003964
112 0.003944
120 0.004988
117 0.005978
118 0.005935
125 0.00694
143 0.006972
153 0.006941
165 0.006964
173 0.007014
177 0.006009
184 0.004995
181 0.004981
119 0.003021
68 0.001987
61 0.00202
69 0.002008
87 0.0
106 0.001008
114 0.001995
110 0.003988
114 0.005946
129 0.006968
141 0.007968
154 0.007016
161 0.007918
170 0.006993
176 0.006979
180 0.007018
166 0.006948
94 0.006008
59 0.004019
48 0.001987
57 0.000998
66 0.0
83 0.000952
94 0.001994
94 0.000997
101 0.000998
110 0.001011
128 0.002953
142 0.00295
152 0.002925
161 0.002992
170 0.003944
174 0.004957
183 0.005965
192 0.005976
190 0.007967
103 0.007001
53 0.00698
43 0.007019
52 0.006966
56 0.005984
73 0.004984
86 0.003954
88 0.003986
92 0.00399
107 0.003989
120 0.002989
138 0.003989
151 0.00205
156 0.002056
165 0.0
171 0.001002
176 0.001958
186 0.002943
197 0.003981
189 0.004001
91 0.003915
56 0.003957
49 0.003953
59 0.003972
65 0.003983
79 0.010934
92 0.000996
131 0.006979
144 0.007964
152 0.006987
160 0.00699
169 0.005983
175 0.004984
183 0.004985
193 0.004023
199 0.004978
207 0.003962
198 0.002971
114 0.002992
53 0.002991
52 0.002057
66 0.002034
81 0.002033
94 0.002038
100 0.000964
100 0.001008
107 0.0
120 0.000982
133 0.0
149 0.0
163 0.002032
169 0.001984
177 0.004948
183 0.004986
189 0.005984
198 0.00703
205 0.007016
164 0.006977
71 0.006955
55 0.007009
62 0.007978
78 0.006014
93 0.005984
109 0.005979
108 0.005014
108 0.004985
120 0.005019
132 0.005023
150 0.005019
165 0.005017
169 0.005021
179 0.002993
186 0.003025
190 0.000998
199 0.001994
190 0.0
111 0.001006
58 0.001995
54 0.00195
65 0.002021
85 0.002994
105 0.004987
107 0.00399
105 0.004985
109 0.004987
125 0.004987
145 0.004988
155 0.005985
169 0.006982
179 0.006982
181 0.007018
189 0.005993
196 0.007011
205 0.005014
184 0.004031
77 0.003977
47 0.003021
46 0.002993
54 0.002992
71 0.003003
90 0.0
93 0.001
92 0.001992
99 0.002991
110 0.002993
130 0.002995
147 0.004989
155 0.005986
166 0.007007
171 0.007979
181 0.004035
186 0.003025
197 0.003055
205 0.001997
212 0.000996
159 0.0
52 0.0
33 0.000998
39 0.000998
49 0.000964
64 0.000998
79 0.000998
82 0.000999
82 0.001992
93 0.004987
104 0.004988
124 0.005983
140 0.00698
145 0.00798
155 0.005984
163 0.003989
169 0.003992
178 0.003989
192 0.002992
199 0.002991
169 0.002993
98 0.003035
37 0.00304
38 0.004019
52 0.002992
64 0.004015
83 0.002024
90 0.00302
89 0.00305
93 0.002973
109 0.002992
130 0.001
140 0.002028
152 0.001024
159 0.001996
167 0.000994
174 0.000998
179 0.000996
189 0.000999
202 0.002993
194 0.003005
92 0.00399
53 0.0
69 0.004986
84 0.006044
100 0.006013
102 0.005985
100 0.006985
106 0.007021
121 0.006981
134 0.006986
147 0.006981
159 0.006017
166 0.007007
172 0.006016
177 0.006982
186 0.006029
194 0.003989
161 0.004022
77 0.004043
40 0.003048
49 0.001032
68 0.000998
82 0.001998
95 0.001044
95 0.000989
97 0.0
104 0.0
124 0.0
136 0.0
152 0.0
161 0.003021
169 0.002994
176 0.002993
183 0.005985
190 0.006982
198 0.007979
188 0.005984
121 0.004988
41 0.004035
33 0.004026
44 0.004023
54 0.004025
72 0.004034
81 0.00304
82 0.003044
85 0.001028
102 0.001019
120 0.000998
134 0.0
145 0.000998
156 0.000997
162 0.000997
171 0.0
177 0.0
187 0.001995
197 0.001995
170 0.00203
78 0.001995
31 0.001999
34 0.002051
51 0.001995
65 0.005021
77 0.006949
84 0.005984
83 0.005965
86 0.004988
103 0.002987
129 0.002035
139 0.001027
150 0.0
161 0.000998
170 0.002995
175 0.00399
186 0.003991
192 0.004019
206 0.007017
201 0.006979
93 0.00702
48 0.005977
38 0.005023
57 0.001993
68 0.002038
88 0.002042
94 0.001995
93 0.002027
99 0.002047
110 0.002039
131 0.002023
145 0.00203
155 0.001025
164 0.002038
171 0.000997
177 0.002038
186 0.0
192 0.0
205 0.002033
163 0.002993
79 0.00302
47 0.002992
57 0.006034
71 0.007005
92 0.007973
104 0.006984
103 0.00798
102 0.006949
107 0.007979
125 0.006983
145 0.005997
154 0.005019
165 0.003942
173 0.00203
181 0.0
185 0.0
194 0.001996
202 0.003991
162 0.003988
59 0.004059
38 0.004033
45 0.003995
59 0.005961
72 0.005982
86 0.005987
90 0.006982
89 0.006963
99 0.007037
115 0.007019
127 0.007011
145 0.006
158 0.005013
165 0.005016
173 0.005026
178 0.005034
187 0.003036
199 0.003036
204 0.000998
149 0.0
48 0.001995
30 0.002993
39 0.003963
54 0.005022
62 0.004984
79 0.006948
81 0.006976
81 0.005976
89 0.005973
109 0.003996
124 0.002991
138 0.002985
149 0.002983
159 0.001999
168 0.0
177 0.0
181 0.0
192 0.001
202 0.000977
159 0.000995
50 0.002947
26 0.003953
36 0.00398
54 0.004015
70 0.003954
84 0.005965
83 0.007929
85 0.007963
93 0.007966
108 0.005987
130 0.00296
140 0.00399
154 0.003002
163 0.002937
167 0.002988
174 0.002992
183 0.002022
195 0.001981
170 0.001994
101 0.00203
38 0.001999
36 0.002022
58 0.000992
74 0.0
89 0.000994
97 0.000984
93 0.001933
98 0.002991
115 0.002992
131 0.004979
146 0.005939
156 0.005962
168 0.005972
172 0.006939
180 0.006947
187 0.005992
193 0.005974
204 0.004988
133 0.003028
65 0.003001
25 0.002978
36 0.000967
45 0.001008
61 0.000997
73 0.0
79 0.000998
81 0.001997
90 0.000997
106 0.002006
119 0.001006
137 0.000969
149 0.0
157 0.0
166 0.0
174 0.0
184 0.0
193 0.002
178 0.001989
110 0.001926
36 0.002992
28 0.003992
42 0.005988
55 0.005983
67 0.005988
80 0.00698
81 0.00699
83 0.00699
99 0.00601
121 0.003986
133 0.002991
148 0.002996
157 0.003958
163 0.003031
171 0.002991
177 0.002992
187 0.003011
197 0.002992
162 0.002988
59 0.002964
35 0.002079
42 0.001968
58 0.002021
67 0.000989
85 0.000994
88 0.000965
87 0.0
97 0.000944
116 0.001989
127 0.002966
144 0.006023
155 0.006954
161 0.007007
166 0.005986
173 0.004986
184 0.005033
184 0.005026
100 0.003958
55 0.00399
42 0.002987
60 0.000965
71 0.001995
91 0.0
95 0.0
93 0.0
97 0.0
107 0.0
126 0.0
143 0.000954
150 0.001004
160 0.000953
168 0.001993
173 0.001998
181 0.00395
177 0.00399
123 0.00399
45 0.003979
34 0.003986
42 0.004016
50 0.00698
63 0.00698
74 0.007995
78 0.007943
79 0.006958
90 0.006954
110 0.004985
120 0.005983
133 0.004992
140 0.005999
150 0.003991
157 0.002989
161 0.001958
175 0.001032
127 0.001026
69 0.000959
33 0.000998
36 0.000988
42 0.0
51 0.0
69 0.002967
75 0.002992
76 0.002943
83 0.002991
103 0.003943
118 0.005971
131 0.00601
141 0.00797
149 0.005978
159 0.005013
164 0.005995
174 0.004986
182 0.005985
186 0.004988
101 0.004973
71 0.004949
49 0.005004
55 0.002969
64 0.002992
81 0.003027
89 0.00301
89 0.001994
94 0.002997
106 0.001982
122 0.001996
136 0.0
145 0.00199
154 0.001979
162 0.001991
167 0.002015
175 0.004955
188 0.005986
191 0.006981
145 0.007044
75 0.00698
66 0.006949
76 0.006953
83 0.007007
94 0.005938
113 0.004015
111 0.003995
112 0.003987
121 0.004971
136 0.004003
150 0.00499
159 0.004017
166 0.004973
173 0.004986
178 0.003989
183 0.002991
130 0.000993
89 0.001995
70 0.001042
74 0.00197
86 0.00099
104 0.001029
112 0.001035
108 0.000964
110 0.0
118 0.001003
134 0.001994
151 0.004009
157 0.004994
166 0.005954
172 0.005984
175 0.007002
150 0.006981
74 0.007922
57 0.006994
57 0.005988
66 0.004983
72 0.004006
88 0.002963
93 0.002983
94 0.002993
101 0.000958
112 0.000993
132 0.0
144 0.000939
149 0.001003
158 0.001023
167 0.002936
174 0.003003
181 0.002944
112 0.004008
68 0.003984
47 0.00398
49 0.003982
54 0.003961
64 0.004984
73 0.005927
80 0.006945
84 0.00698
91 0.006978
106 0.005984
126 0.004991
137 0.004987
149 0.004987
161 0.002012
166 0.003028
175 0.000969
184 0.0
189 0.0
197 0.0
158 0.0
75 0.0
60 0.0
64 0.000999
70 0.001995
81 0.001996
92 0.002033
97 0.002025
99 0.001989
110 0.001995
125 0.002992
140 0.00399
153 0.003953
163 0.006018
169 0.006026
176 0.00798
185 0.005989
192 0.006973
202 0.005995
209 0.005021
175 0.00502
95 0.004033
81 0.003006
85 0.002996
93 0.003026
100 0.000998
110 0.000999
116 0.002953
119 0.005983
127 0.00604
146 0.00701
156 0.007979
167 0.006012
175 0.004967
184 0.004986
189 0.004985
197 0.003982
202 0.002033
210 0.002045
218 0.000996
207 0.000962
149 0.000995
93 0.001013
91 0.000996
100 0.0
108 0.0
116 0.0
126 0.0
125 0.0
126 0.001994
139 0.001997
151 0.002022
166 0.00196
178 0.001996
183 0.002058
190 0.00201
195 0.00299
200 0.003985
206 0.006014
214 0.006979
219 0.006017
180 0.007015
97 0.005015
84 0.006013
91 0.005044
99 0.00601
110 0.005014
124 0.00502
124 0.005031
122 0.004004
133 0.004029
144 0.004016
160 0.003036
167 0.002998
177 0.003033
182 0.00296
187 0.000972
192 0.002008
200 0.000997
205 0.000998
212 0.00097
181 0.00097
102 0.000997
74 0.000959
83 0.002992
90 0.00399
103 0.003991
113 0.00399
114 0.006049
113 0.006016
119 0.006013
136 0.00601
148 0.007021
156 0.005974
167 0.005025
174 0.006011
178 0.004023
183 0.004982
189 0.003993
195 0.005015
205 0.004016
183 0.003023
85 0.002992
61 0.001994
67 0.00306
81 0.002028
99 0.000998
108 0.000996
108 0.0
106 0.0
112 0.0
128 0.001995
139 0.001994
153 0.002992
163 0.003988
167 0.00399
174 0.004023
181 0.006018
187 0.006013
196 0.006984
161 0.007011
99 0.006984
62 0.006982
66 0.005984
77 0.005023
99 0.003996
116 0.002028
114 0.002992
107 0.001993
112 0.003003
128 0.000996
146 0.0
155 0.001
165 0.0
173 0.0
175 0.0
183 0.0
188 0.0
144 0.0
60 0.000998
47 0.002994
56 0.004028
73 0.00399
85 0.004988
99 0.004985
95 0.005016
95 0.005017
105 0.005988
124 0.007966
131 0.006976
147 0.006981
157 0.005022
162 0.005052
170 0.004031
174 0.005044
179 0.002992
96 0.00193
49 0.001959
31 0.001995
42 0.002965
53 0.002013
68 0.001995
81 0.001992
80 0.0
81 0.0
90 0.0
111 0.002994
126 0.002991
139 0.002995
148 0.003991
157 0.004991
162 0.004987
171 0.005022
181 0.005025
183 0.004988
92 0.007036
43 0.005034
37 0.005945
51 0.002993
65 0.002997
76 0.002019
89 0.000999
87 0.001995
92 0.001031
104 0.001992
120 0.000997
135 0.0
150 0.0
155 0.000998
164 0.002996
171 0.003992
177 0.004987
185 0.004987
196 0.004986
177 0.004979
75 0.006021
49 0.007009
55 0.007962
68 0.007033
85 0.005998
98 0.006009
101 0.006025
99 0.006009
105 0.005985
124 0.005984
136 0.005952
152 0.005021
158 0.005013
167 0.005022
173 0.005984
177 0.005031
184 0.005018
194 0.003033
184 0.003022
89 0.002992
54 0.000967
59 0.001033
75 0.000997
96 0.000998
107 0.000997
107 0.000998
104 0.002994
110 0.002995
128 0.002993
140 0.002994
155 0.005013
165 0.005987
169 0.006983
174 0.006967
180 0.006948
186 0.005951
179 0.00598
99 0.007032
49 0.00604
44 0.006981
50 0.006981
63 0.007011
80 0.005966
86 0.005984
84 0.00503
86 0.00602
100 0.005002
120 0.004958
131 0.003978
144 0.002958
154 0.003055
158 0.002989
167 0.000997
173 0.001993
181 0.0
145 0.000992
80 0.0
34 0.0
38 0.000954
46 0.001975
58 0.001996
73 0.00399
76 0.005938
75 0.005979
85 0.005992
97 0.006975
118 0.007975
132 0.005976
140 0.005985
150 0.004938
158 0.005031
164 0.00499
173 0.004986
180 0.005021
190 0.005025
107 0.003974
52 0.002063
30 0.001959
40 0.002979
50 0.001985
62 0.003018
76 0.001994
77 0.002032
79 0.000994
87 0.0
109 0.0
125 0.0
137 0.0
148 0.000998
157 0.001996
162 0.00295
172 0.002964
182 0.004981
189 0.006914
202 0.006937
186 0.006976
138 0.005972
44 0.00403
35 0.004981
48 0.003969
68 0.003949
82 0.003975
94 0.003991
89 0.004975
90 0.003958
103 0.004951
121 0.003986
138 0.00504
153 0.005004
160 0.004978
168 0.004981
175 0.003028
181 0.00399
190 0.002956
198 0.003956
205 0.002974
105 0.001995
54 0.000998
37 0.0
54 0.0
68 0.0
90 0.0
98 0.001995
95 0.001964
97 0.002989
107 0.00299
130 0.003951
147 0.005972
159 0.005959
168 0.005958
175 0.005991
180 0.006013
189 0.005968
200 0.00599
207 0.005953
218 0.00694
226 0.00697
201 0.005951
67 0.00496
30 0.005007
29 0.004029
49 0.001992
59 0.000997
78 0.0
84 0.0
81 0.0
88 0.000984
107 0.00099
123 0.000993
143 0.001944
155 0.00197
164 0.002015
171 0.00196
179 0.002997
188 0.001976
199 0.002955
206 0.002958
220 0.002992
226 0.002975
138 0.002991
46 0.002984
39 0.003976
59 0.003964
85 0.004003
99 0.004008
108 0.003963
104 0.003986
102 0.003996
119 0.003939
135 0.003987
156 0.004994
168 0.006943
177 0.006932
181 0.006926
185 0.006993
192 0.006968
203 0.006982
200 0.006985
100 0.007008
57 0.007007
47 0.006982
66 0.005003
80 0.005997
105 0.00496
109 0.004953
106 0.004997
107 0.004993
124 0.00396
138 0.003991
157 0.002956
165 0.002936
174 0.001994
179 0.000998
187 0.000997
191 0.000995
114 0.002015
59 0.002979
32 0.002953
42 0.003991
51 0.005009
66 0.004979
84 0.004987
86 0.006019
88 0.006974
100 0.005949
112 0.003989
133 0.003997
149 0.002007
156 0.001999
165 0.001994
172 0.002025
180 0.0
188 0.000942
125 0.000994
64 0.001976
29 0.002966
34 0.001963
44 0.002994
51 0.002937
67 0.003977
77 0.004972
78 0.005987
84 0.006971
100 0.006967
122 0.005941
133 0.006954
146 0.003026
157 0.003003
163 0.00299
172 0.002993
183 0.003021
189 0.003003
196 0.000985
126 0.001999
52 0.000972
35 0.00199
41 0.000997
49 0.001958
61 0.00101
74 0.0
80 0.000971
82 0.001998
91 0.00196
107 0.001995
127 0.002966
138 0.003979
149 0.003989
156 0.003989
165 0.00498
174 0.00595
180 0.00596
191 0.005977
200 0.006941
199 0.005981
101 0.005987
52 0.005983
52 0.005988
63 0.00595
69 0.005993
83 0.004036
94 0.004978
93 0.003953
97 0.004994
114 0.005014
127 0.005002
144 0.003986
151 0.004004
161 0.003982
169 0.001995
174 0.001993
181 0.0
189 0.0
195 0.0
198 0.0
104 0.0
65 0.0
58 0.001992
72 0.002988
79 0.003018
98 0.004975
105 0.005956
102 0.006985
106 0.006946
117 0.006975
128 0.006986
145 0.006965
153 0.006945
163 0.005987
171 0.00499
173 0.005978
184 0.004973
190 0.005983
199 0.004967
135 0.005015
81 0.005022
59 0.00494
74 0.003962
84 0.00399
105 0.003029
112 0.002995
106 0.002985
105 0.004004
116 0.002052
131 0.001984
148 0.00103
155 0.0
165 0.0
171 0.002985
178 0.004027
185 0.004026
188 0.005983
144 0.007978
70 0.006998
50 0.005986
56 0.006982
70 0.00601
87 0.004969
95 0.003051
94 0.003
94 0.001031
102 0.0
120 0.000996
138 0.002962
146 0.002967
157 0.004016
163 0.005943
167 0.005956
177 0.006023
181 0.005974
120 0.005962
52 0.006009
33 0.00599
37 0.007954
50 0.006985
59 0.007009
80 0.006973
80 0.003985
79 0.004987
92 0.003962
112 0.004047
123 0.002044
138 0.003031
150 0.003028
156 0.001997
165 0.0
171 0.0
182 0.0
145 0.001029
65 0.0
38 0.000997
44 0.001019
52 0.000962
70 0.001
83 0.000998
89 0.000998
88 0.000998
93 0.000998
111 0.002001
132 0.002992
141 0.002961
154 0.002963
161 0.002965
170 0.002991
179 0.003018
186 0.003018
172 0.002952
76 0.004017
52 0.004017
56 0.004004
66 0.004978
81 0.00601
100 0.007019
104 0.007012
99 0.006985
108 0.007019
120 0.007015
142 0.006986
152 0.007007
165 0.007017
174 0.006974
176 0.00699
183 0.003002
194 0.003029
192 0.002995
104 0.002003
64 0.0
64 0.0
79 0.001006
98 0.002007
111 0.002958
114 0.001936
109 0.004029
114 0.004038
132 0.004974
148 0.00702
158 0.007012
167 0.006982
176 0.006955
180 0.005985
188 0.003995
146 0.002034
92 0.003027
60 0.000989
70 0.001004
80 0.001031
98 0.000967
109 0.00099
108 0.000972
105 0.0
111 0.0
132 0.001982
150 0.002032
159 0.00196
169 0.001988
178 0.002991
182 0.002957
188 0.002978
157 0.003996
71 0.004029
56 0.004002
65 0.004022
75 0.003988
90 0.006011
100 0.006981
101 0.006985
100 0.003962
106 0.005993
128 0.002048
147 0.002006
156 0.001987
167 0.001989
172 0.001968
179 0.002001
186 0.001029
191 0.0
136 0.0
65 0.0
58 0.0
70 0.001996
79 0.001997
92 0.002994
104 0.00399
100 0.005017
100 0.006024
115 0.007011
133 0.005956
145 0.006993
159 0.006011
169 0.005008
174 0.005016
181 0.002966
190 0.000999
196 0.000987
196 0.001006
118 0.00101
71 0.000998
57 0.002991
71 0.003992
79 0.003992
100 0.006023
106 0.007957
102 0.005034
102 0.005975
117 0.00302
130 0.002992
150 0.002999
163 0.002012
169 0.003033
175 0.0
183 0.000996
187 0.000996
198 0.002028
206 0.005016
165 0.005017
71 0.006974
59 0.00696
67 0.00701
88 0.00599
111 0.006022
117 0.004035
109 0.003994
108 0.003983
119 0.002017
136 0.002992
156 0.001985
166 0.001997
177 0.0
181 0.000998
186 0.001959
193 0.002991
203 0.003949
183 0.004032
79 0.006028
52 0.007011
54 0.006968
74 0.003961
93 0.003043
106 0.002989
106 0.002993
104 0.002994
111 0.002005
133 0.00201
151 0.001959
163 0.000997
173 0.000964
180 0.000999
187 0.000973
194 0.002993
204 0.002993
207 0.003991
112 0.002993
64 0.005021
47 0.006012
60 0.006947
71 0.007951
90 0.007016
103 0.006014
101 0.006019
102 0.005028
121 0.004982
135 0.004999
157 0.003953
169 0.004024
178 0.002956
185 0.003984
192 0.002023
199 0.001993
210 0.000999
217 0.0
149 0.0
66 0.000998
47 0.002044
57 0.003003
79 0.003991
92 0.005042
109 0.005017
104 0.005016
103 0.004987
117 0.005022
131 0.004989
154 0.004989
170 0.005985
177 0.006934
184 0.006992
190 0.005989
195 0.004995
205 0.005003
193 0.005983
104 0.003995
52 0.004001
54 0.003005
69 0.003029
94 0.003003
109 0.002976
113 0.001967
106 0.001039
109 0.002024
130 0.0
149 0.0
160 0.0
174 0.0
180 0.0
187 0.0
194 0.0
199 0.0
208 0.0
179 0.0
68 0.0
41 0.0
48 0.001949
67 0.001979
85 0.002977
96 0.002959
93 0.002965
92 0.002959
105 0.002978
122 0.002991
141 0.002951
153 0.002916
164 0.003955
170 0.004935
177 0.004983
182 0.004957
193 0.004995
164 0.004949
92 0.004979
40 0.004992
41 0.004978
57 0.004981
74 0.004983
87 0.004954
94 0.005931
89 0.006947
96 0.006953
112 0.006961
126 0.006983
142 0.006966
154 0.006938
158 0.005984
163 0.005966
170 0.00299
177 0.004022
172 0.001996
74 0.001989
45 0.002003
45 0.001968
56 0.00196
72 0.000997
96 0.000964
96 0.000996
91 0.001
100 0.001005
112 0.001014
135 0.002954
151 0.003949
159 0.002964
167 0.003926
170 0.003987
178 0.003986
186 0.004986
129 0.005958
72 0.005946
39 0.005992
44 0.005975
59 0.005984
72 0.005992
86 0.007978
86 0.004991
85 0.004025
92 0.004026
115 0.002995
135 0.001964
144 0.001031
153 0.00095
162 0.00099
166 0.000985
176 0.0
183 0.0
193 0.0
110 0.000998
57 0.002934
36 0.003004
45 0.002951
53 0.00296
66 0.002943
81 0.003992
80 0.00499
81 0.005964
94 0.006967
114 0.006983
131 0.005948
140 0.006944
152 0.005954
159 0.005015
164 0.004012
173 0.003994
187 0.002002
182 0.000995
88 0.00196
49 0.003985
52 0.001987
63 0.003998
76 0.002024
94 0.002953
99 0.001952
95 0.002987
101 0.000996
113 0.003003
136 0.001998
152 0.002023
158 0.0
166 0.0
171 0.0
176 0.000966
188 0.002988
156 0.004972
97 0.005943
58 0.005982
65 0.005968
69 0.006025
80 0.006991
96 0.00797
99 0.005983
97 0.007951
103 0.005992
118 0.006999
140 0.006971
149 0.00594
163 0.004949
171 0.001993
176 0.002955
181 0.000961
191 0.000997
196 0.0
116 0.0
67 0.0
59 0.000967
69 0.00099
74 0.002956
80 0.004023
91 0.004953
93 0.005977
96 0.005995
111 0.005965
124 0.005984
144 0.005977
154 0.006972
161 0.005957
167 0.006014
175 0.003988
180 0.003987
189 0.001998
202 0.002015
204 0.001999
141 0.001002
68 0.001994
65 0.003986
72 0.004967
83 0.006007
98 0.005984
103 0.005973
101 0.006986
102 0.006014
114 0.006016
136 0.004991
148 0.003993
161 0.003963
169 0.003001
174 0.000999
180 0.002969
189 0.002006
195 0.0
206 0.002947
202 0.003955
124 0.004004
77 0.003953
73 0.004973
81 0.006952
91 0.007968
107 0.005017
109 0.003942
106 0.001958
109 0.000996
123 0.001998
141 0.0
154 0.001972
166 0.001964
169 0.001996
176 0.001994
179 0.001924
187 0.004002
198 0.003992
197 0.004987
124 0.005987
63 0.005981
58 0.005946
66 0.006951
71 0.005991
77 0.006959
89 0.006022
91 0.004959
93 0.004942
106 0.004003
127 0.00203
139 0.00199
152 0.0
160 0.002023
165 0.0
173 0.0
181 0.002967
188 0.002989
200 0.002963
201 0.002966
112 0.002987
66 0.003981
61 0.004963
67 0.004982
73 0.006021
79 0.005974
91 0.006979
93 0.006024
93 0.006978
105 0.002998
126 0.004964
138 0.003988
152 0.003028
159 0.002992
167 0.003023
175 0.001951
183 0.0
188 0.001001
199 0.00202
204 0.002002
140 0.003988
69 0.003993
64 0.003991
73 0.005968
78 0.007985
85 0.006981
93 0.006989
97 0.006939
98 0.006968
106 0.006022
126 0.002998
139 0.003989
154 0.002008
164 0.002011
168 0.001996
175 0.000992
185 0.0
189 0.0
200 0.0
207 0.0
177 0.000997
94 0.0
67 0.0
68 0.000984
82 0.002993
88 0.004965
103 0.004954
105 0.006982
103 0.00694
108 0.006968
127 0.006971
136 0.006974
153 0.004974
165 0.004018
170 0.003976
176 0.002998
184 0.002027
189 0.001966
196 0.000994
206 0.0
184 0.0
92 0.0
73 0.0
78 0.0
93 0.000999
103 0.001
118 0.00097
116 0.000988
111 0.000998
120 0.001995
137 0.002985
153 0.004975
166 0.004954
173 0.004983
179 0.006012
184 0.006978
190 0.00798
196 0.006981
205 0.005986
203 0.005987
105 0.005958
69 0.005025
61 0.004953
73 0.004959
78 0.003994
90 0.001989
97 0.002961
93 0.0
96 0.0
114 0.0
127 0.0
144 0.001017
154 0.001996
160 0.002025
166 0.002965
172 0.002966
177 0.00297
186 0.002963
192 0.002966
115 0.004033
51 0.003958
47 0.003973
57 0.004985
66 0.005996
74 0.005986
84 0.005986
80 0.003997
81 0.002991
97 0.002966
115 0.003991
131 0.001984
143 0.001998
153 0.001035
158 0.001042
165 0.000987
170 0.000997
180 0.0
190 0.0
148 0.0
67 0.0
41 0.000999
45 0.001001
58 0.003988
75 0.003963
85 0.00398
83 0.003953
82 0.005012
94 0.005013
117 0.004988
129 0.004988
142 0.00694
153 0.006955
158 0.005947
162 0.00698
171 0.003989
178 0.003969
174 0.004025
79 0.001965
49 0.001995
44 0.000997
59 0.0
68 0.000998
91 0.001975
91 0.002966
88 0.003943
93 0.006019
117 0.006016
130 0.006964
147 0.006946
156 0.005994
161 0.004031
168 0.002978
175 0.00303
182 0.001034
192 0.002035
143 0.00103
75 0.000997
32 0.0
36 0.0
46 0.0
54 0.001998
72 0.004027
74 0.005033
72 0.006953
85 0.006949
95 0.006981
118 0.004973
135 0.00399
143 0.003954
152 0.001929
159 0.002001
165 0.001964
177 0.001973
187 0.0
165 0.001962
59 0.001996
28 0.003978
32 0.004918
43 0.005987
53 0.006944
68 0.006985
70 0.006988
72 0.007945
76 0.006981
99 0.004982
121 0.001994
133 0.001973
146 0.0
153 0.0
159 0.000999
168 0.002993
180 0.002964
189 0.003003
181 0.005023
71 0.00601
46 0.006016
35 0.004988
48 0.003987
54 0.002989
74 0.002993
80 0.003989
77 0.002
82 0.003988
103 0.00104
119 0.0
137 0.000972
148 0.002046
155 0.002989
161 0.002955
168 0.003029
175 0.003991
182 0.005016
97 0.004955
55 0.004985
41 0.004987
50 0.006028
66 0.005973
85 0.006017
92 0.005958
86 0.005982
92 0.007953
106 0.004986
124 0.006985
144 0.005973
153 0.006024
162 0.004961
166 0.004034
173 0.004004
183 0.002995
191 0.003031
186 0.0
100 0.000971
43 0.0
32 0.0
42 0.0
47 0.0
65 0.0
69 0.000998
70 0.00199
77 0.001994
91 0.001992
116 0.002982
135 0.003992
143 0.006021
152 0.006953
161 0.007949
168 0.004987
174 0.00499
187 0.003987
197 0.004019
171 0.00297
61 0.001999
35 0.001969
35 0.0
43 0.001007
47 0.000986
66 0.0
73 0.001996
74 0.002976
85 0.003988
110 0.005949
123 0.00593
138 0.007018
151 0.005951
157 0.005996
166 0.005006
175 0.005974
184 0.003989
194 0.003991
209 0.001987
216 0.002005
173 0.002007
60 0.0
37 0.0
40 0.0
52 0.0
61 0.0
84 0.00202
85 0.001997
83 0.004022
97 0.003989
112 0.003988
136 0.003992
153 0.004987
159 0.006954
167 0.006945
173 0.006954
178 0.004991
188 0.002991
199 0.002023
207 0.000984
135 0.001
59 0.000984
41 0.001027
51 0.002032
68 0.000998
80 0.003991
97 0.00399
95 0.004976
98 0.005016
115 0.004982
129 0.004945
146 0.006961
166 0.006941
170 0.006949
183 0.006944
188 0.005023
192 0.005003
203 0.003993
214 0.003981
222 0.001965
157 0.002968
60 0.002954
47 0.00301
55 0.003029
63 0.003036
73 0.0
88 0.002027
91 0.000998
91 0.001008
106 0.002963
131 0.003991
143 0.003991
157 0.005988
168 0.006927
171 0.004942
176 0.0
187 0.002995
194 0.002023
207 0.0
205 0.0
146 0.0
60 0.0
50 0.0
58 0.000998
67 0.001008
80 0.003005
93 0.003942
93 0.00495
98 0.004988
109 0.004
135 0.004947
147 0.005948
162 0.00698
172 0.006982
177 0.00698
184 0.005985
192 0.002979
200 0.00199
215 0.001994
194 0.001967
122 0.0
62 0.000965
62 0.001973
72 0.000976
86 0.002043
106 0.002004
109 0.002992
104 0.004991
110 0.006982
124 0.005983
143 0.006979
162 0.005988
170 0.005982
179 0.00399
185 0.001994
189 0.001967
201 0.002006
203 0.000998
151 0.002005
67 0.001991
56 0.001058
65 0.000931
76 0.002979
91 0.000961
104 0.002003
102 0.001994
102 0.0
118 0.000963
134 0.000998
155 0.001987
166 0.00295
175 0.002926
182 0.00494
189 0.005935
196 0.005977
203 0.006987
214 0.005033
177 0.007011
70 0.003947
43 0.00399
48 0.001029
60 0.002007
77 0.001983
88 0.002005
90 0.000998
92 0.001997
105 0.0
126 0.00196
148 0.0
157 0.0
169 0.001
174 0.000955
182 0.001991
190 0.002957
200 0.002983
212 0.002957
155 0.002994
82 0.003947
39 0.006973
49 0.006947
57 0.00696
69 0.005978
90 0.003983
92 0.002992
90 0.000982
106 0.0
121 0.0
145 0.0
159 0.0
168 0.001026
178 0.002955
186 0.002961
192 0.004937
203 0.00596
216 0.007971
221 0.006951
146 0.006984
46 0.005987
35 0.005964
50 0.005935
71 0.002995
87 0.003955
100 0.000997
95 0.000999
98 0.0
113 0.000998
141 0.000999
154 0.002044
171 0.002992
182 0.004036
187 0.00497
195 0.005923
206 0.006929
211 0.005938
223 0.005948
233 0.00499
183 0.004998
60 0.004016
38 0.000998
51 0.001969
80 0.0
102 0.000963
110 0.000998
102 0.001977
102 0.003988
113 0.004962
140 0.005001
164 0.006982
174 0.006979
183 0.005945
192 0.002976
196 0.002985
205 0.002968
216 0.003041
223 0.001995
138 0.001995
36 0.0
24 0.0
44 0.001926
64 0.001968
84 0.002949
96 0.00295
89 0.002981
90 0.002957
108 0.004988
125 0.004962
151 0.004954
169 0.004946
177 0.005989
185 0.00499
194 0.005013
199 0.002992
213 0.001998
184 0.0
72 0.0
26 0.000996
20 0.001985
47 0.002946
60 0.004936
84 0.004941
86 0.007983
82 0.006954
86 0.007003
108 0.00597
125 0.005938
150 0.004989
167 0.002989
174 0.005024
183 0.002989
188 0.004984
200 0.000999
209 0.00198
156 0.00202
37 0.000975
20 0.000997
28 0.000976
55 0.000969
81 0.001999
90 0.002966
85 0.002981
89 0.00299
100 0.00293
128 0.002995
142 0.003003
162 0.003992
172 0.004959
177 0.006979
184 0.007951
193 0.007955
201 0.006993
156 0.005952
49 0.003989
32 0.004018
48 0.001985
76 0.000973
94 0.0
107 0.000996
100 0.0
99 0.00095
115 0.000997
140 0.003951
154 0.004985
171 0.004988
179 0.004947
186 0.004957
192 0.004937
199 0.004974
209 0.004945
210 0.004982
145 0.004961
45 0.006977
34 0.006003
45 0.007945
66 0.005988
90 0.004001
97 0.001981
93 0.0
96 0.0
105 0.001
129 0.001996
151 0.004989
166 0.005984
172 0.005984
179 0.005984
186 0.007967
192 0.005966
199 0.005993
214 0.004976
206 0.003988
83 0.00097
31 0.0
33 0.0
49 0.001954
68 0.002016
82 0.001963
89 0.002955
86 0.00293
90 0.002949
112 0.003021
127 0.002957
147 0.002965
161 0.00499
167 0.00498
174 0.004987
183 0.006981
187 0.004989
201 0.003003
205 0.004983
120 0.002995
41 0.004944
27 0.003945
39 0.004001
65 0.003988
81 0.003995
94 0.004014
86 0.000969
86 0.001992
99 0.0
126 0.001999
140 0.001974
157 0.001928
169 0.001997
171 0.00195
178 0.00195
183 0.013918
180 0.001995
72 0.001988
35 0.002986
33 0.002966
48 0.00301
80 0.003962
103 0.004986
100 0.005035
92 0.004989
99 0.004982
112 0.00498
139 0.005977
160 0.00594
168 0.005981
178 0.007009
184 0.004015
188 0.003986
199 0.001932
125 0.00192
52 0.002008
12 0.0
18 0.0
36 0.0
60 0.000998
78 0.001996
78 0.001942
75 0.003991
84 0.003991
109 0.006023
129 0.007007
146 0.006982
156 0.005982
167 0.004985
176 0.002003
181 0.003037
195 0.000957
146 0.0
89 0.0
11 0.001996
13 0.003957
28 0.004991
51 0.004992
75 0.006981
76 0.006969
72 0.006937
82 0.005984
98 0.005
125 0.004958
143 0.00701
158 0.004985
167 0.003993
175 0.002992
182 0.001994
194 0.0
209 0.000998
176 0.002968
66 0.003959
18 0.00399
23 0.00399
49 0.003979
76 0.004981
89 0.004992
88 0.005969
85 0.00602
96 0.006957
117 0.00601
134 0.006021
156 0.005994
172 0.005985
177 0.004963
184 0.004981
191 0.004976
204 0.004983
209 0.00402
126 0.002994
48 0.004
38 0.002996
54 0.001995
85 0.0
108 0.001951
113 0.001998
102 0.001994
105 0.001993
117 0.001969
143 0.003962
166 0.00399
176 0.005015
185 0.00499
190 0.005004
198 0.004983
207 0.004963
176 0.004967
58 0.005983
30 0.007018
35 0.00598
54 0.006981
81 0.004995
96 0.003989
96 0.003028
90 0.001016
97 0.001994
120 0.0
141 0.0
153 0.0
168 0.000998
177 0.001997
182 0.002992
190 0.002953
203 0.002958
177 0.003965
51 0.00497
17 0.004987
17 0.004937
39 0.005019
52 0.005992
73 0.005979
75 0.007937
71 0.00595
81 0.007957
96 0.005957
118 0.007023
140 0.005985
150 0.005014
163 0.004987
171 0.002989
177 0.004019
190 0.001002
147 0.0
67 0.0
9 0.000973
14 0.0
28 0.0
53 0.000995
78 0.001997
78 0.002992
73 0.002991
87 0.005013
103 0.004965
132 0.00597
150 0.006959
159 0.005949
169 0.007978
175 0.004991
183 0.005984
198 0.002999
148 0.0
65 0.000998
15 0.000998
21 0.000999
40 0.001995
71 0.002993
93 0.004987
87 0.005019
80 0.005978
92 0.005982
108 0.006978
136 0.00399
157 0.004022
166 0.004037
174 0.003922
180 0.002961
191 0.001997
149 0.002028
35 0.0
12 0.0
18 0.0
43 0.000998
69 0.0
93 0.000999
88 0.000998
81 0.001996
97 0.001974
114 0.00299
143 0.002921
156 0.003022
172 0.002955
180 0.002991
184 0.002965
196 0.004951
160 0.005966
74 0.006947
8 0.006982
4 0.006961
19 0.00695
42 0.007008
65 0.006971
72 0.006986
68 0.006951
71 0.005994
92 0.005016
122 0.002965
138 0.002029
153 0.0
167 0.000998
176 0.002967
182 0.002952
196 0.003944
135 0.005938
79 0.00698
10 0.006941
12 0.006951
39 0.006971
60 0.005956
76 0.004029
83 0.002938
80 0.005024
89 0.001989
111 0.004002
140 0.003995
153 0.00399
171 0.002028
181 0.0
186 0.002
196 0.000946
204 0.002026
218 0.0
178 0.000961
87 0.001998
23 0.003992
34 0.003986
52 0.003984
74 0.006965
100 0.006975
98 0.005984
91 0.004956
104 0.00299
127 0.002988
150 0.0
167 0.002007
179 0.0
187 0.001997
194 0.001993
199 0.002005
213 0.001999
196 0.001
92 0.000999
36 0.000999
39 0.00403
59 0.004018
97 0.003998
120 0.005016
112 0.00597
103 0.005978
110 0.006021
136 0.005984
164 0.005981
177 0.005986
193 0.005986
199 0.007009
203 0.004985
208 0.005984
222 0.005976
214 0.004005
75 0.003972
24 0.004018
15 0.002965
43 0.0
64 0.0
82 0.0
88 0.0
84 0.0
88 0.001991
114 0.002971
132 0.003028
158 0.002988
175 0.002991
182 0.003003
190 0.004986
196 0.010937
206 0.001002
207 0.005949
100 0.004996
16 0.002996
2 0.004986
25 0.004986
42 0.005027
74 0.003993
84 0.00402
78 0.002992
82 0.002001
97 0.002987
129 0.002022
157 0.000992
165 0.000984
181 0.0
190 0.000998
196 0.00299
209 0.003999
219 0.003989
155 0.004991
22 0.00599
4 0.005958
21 0.006001
58 0.005987
79 0.00698
95 0.006982
86 0.007012
86 0.006981
102 0.006986
121 0.006982
153 0.007008
177 0.006983
183 0.007956
193 0.006981
201 0.004
210 0.003959
208 0.001995
72 0.000987
23 0.0
20 0.0
61 0.0
86 0.0
117 0.0
111 0.0
96 0.0
105 0.002035
127 0.000968
153 0.001041
179 0.001972
190 0.001994
201 0.004988
207 0.005947
217 0.005956
200 0.007925
78 0.006981
16 0.006982
1 0.003001
34 0.003
54 0.002039
84 0.0
85 0.000981
80 0.0
84 0.0
111 0.000981
132 0.001961
160 0.002989
180 0.00399
186 0.004991
196 0.005953
204 0.007916
212 0.004995
159 0.005991
21 0.005978
0 0.005997
9 0.003992
41 0.002001
59 0.002021
82 0.0
77 0.0
77 0.00096
92 0.000956
124 0.0
142 0.001996
166 0.002961
182 0.004951
188 0.005969
196 0.006942
210 0.004983
218 0.004982
116 0.001994
20 0.003954
1 0.0
22 0.002006
56 0.000998
76 0.001
92 0.004953
84 0.006973
88 0.007953
96 0.007011
128 0.007006
159 0.003008
173 0.004991
188 0.00104
196 0.001998
203 0.001986
217 0.002024
197 0.001995
58 0.000999
17 0.001984
29 0.001992
70 0.000954
103 0.00202
120 0.0
107 0.0
99 0.001933
109 0.002988
141 0.003965
165 0.005949
183 0.00595
193 0.008976
198 0.004985
205 0.006993
171 0.006953
89 0.007978
24 0.007023
26 0.004004
48 0.005987
91 0.002991
116 0.00299
107 0.002965
95 0.002031
106 0.002007
129 0.0
152 0.001997
169 0.0
181 0.001992
192 0.001997
197 0.001992
140 0.000993
32 0.00101
0 0.00198
1 0.004034
24 0.003913
38 0.003947
65 0.003957
62 0.004935
61 0.005991
78 0.005944
102 0.00597
120 0.004961
141 0.001999
155 0.002001
163 0.001988
158 0.001971
70 0.000972
16 0.001995
0 0.002991
15 0.002958
27 0.002962
55 0.00302
64 0.002975
60 0.003946
67 0.005926
94 0.006979
111 0.007939
135 0.007941
143 0.007946
157 0.006985
168 0.003994
175 0.005981
173 0.002995
66 0.003994
30 0.003019
27 0.002956
38 0.002966
55 0.002992
80 0.003029
84 0.002992
82 0.001984
92 0.001987
113 0.0
135 0.0
156 0.0
164 0.0
174 0.001957
182 0.001994
192 0.001994
201 0.001954
128 0.003951
76 0.005949
57 0.006978
75 0.006952
85 0.006991
106 0.004979
117 0.003999
111 0.003005
114 0.002983
126 0.001995
151 0.0
172 0.0
181 0.0
190 0.0
196 0.0
203 0.000998
208 0.000995
129 0.001963
95 0.000954
89 0.000985
102 0.002037
118 0.00394
138 0.002954
141 0.002951
131 0.003954
138 0.004949
149 0.005979
172 0.006972
187 0.004968
194 0.00499
203 0.003004
211 0.002933
214 0.002964
158 0.002954
100 0.00399
87 0.001993
95 0.001993
108 0.001995
118 0.0
130 0.001995
127 0.002023
128 0.000972
139 0.000998
161 0.00295
174 0.003944
189 0.003938
196 0.00395
204 0.004979
211 0.004994
210 0.006972
146 0.005026
85 0.003964
79 0.002991
87 0.002006
95 0.0
106 0.001979
113 0.0
113 0.000971
122 0.002994
131 0.003996
148 0.004988
159 0.006952
166 0.006981
174 0.006998
183 0.006993
188 0.006948
196 0.000997
209 0.003042
181 0.00497
91 0.002968
72 0.004987
75 0.002049
84 0.002019
90 0.002024
105 0.001994
106 0.001934
107 0.001997
119 0.000996
131 0.00097
153 0.000994
166 0.002036
174 0.001027
182 0.003987
191 0.003989
196 0.00399
207 0.004991
217 0.005983
201 0.005979
117 0.005979
76 0.006986
78 0.007954
94 0.007956
106 0.005987
117 0.007975
123 0.002983
120 0.002994
124 0.001966
143 0.001995
157 0.002994
176 0.001995
186 0.002992
191 0.00201
196 0.002957
205 0.001992
211 0.001006
182 0.001942
111 0.003992
91 0.003962
97 0.004981
113 0.005959
125 0.005943
144 0.00595
134 0.006936
132 0.007972
140 0.004963
161 0.003967
174 0.002983
188 0.002957
197 0.002036
200 0.003039
207 0.001998
208 0.001957
164 0.0
84 0.000969
74 0.00298
81 0.001953
93 0.002985
103 0.002968
115 0.004971
110 0.00595
111 0.005954
122 0.005985
145 0.005973
157 0.005942
171 0.005983
177 0.005981
182 0.005964
191 0.005951
193 0.006011
135 0.005935
61 0.003958
52 0.002995
59 0.00396
68 0.001981
76 0.002
89 0.0
88 0.002008
91 0.0
104 0.001982
127 0.002035
139 0.003027
155 0.000997
162 0.0
172 0.00203
179 0.001994
188 0.001985
180 0.002994
90 0.005001
66 0.006048
65 0.00598
77 0.005975
84 0.006019
100 0.005984
103 0.005984
102 0.00695
109 0.004924
129 0.002992
142 0.003997
161 0.003969
169 0.002992
179 0.003056
185 0.00399
192 0.00202
202 0.004021
202 0.003021
147 0.002021
85 0.002026
83 0.002033
97 0.002031
110 0.000967
121 0.002019
128 0.0
125 0.000967
129 0.0
145 0.000956
157 0.0
173 0.0
185 0.002003
190 0.002989
197 0.005025
203 0.006946
209 0.007014
205 0.004976
138 0.005027
100 0.004982
104 0.004994
120 0.00399
129 0.00399
146 0.002992
145 0.0
140 0.001996
145 0.002993
161 0.004988
180 0.005986
189 0.007009
198 0.006951
202 0.005023
204 0.004028
212 0.002061
210 0.003048
159 0.002
97 0.002016
94 0.002025
104 0.000995
112 0.000999
125 0.002029
128 0.000998
125 0.000999
125 0.000998
137 0.002991
152 0.004991
169 0.005984
176 0.005986
184 0.006024
188 0.006015
194 0.005981
200 0.006958
187 0.007978
114 0.00498
79 0.002964
81 0.002991
92 0.001966
102 0.001957
107 0.000997
112 0.000937
111 0.001004
114 0.001975
130 0.001996
150 0.002999
160 0.002989
171 0.005014
177 0.004964
181 0.004984
187 0.004986
194 0.004987
203 0.005984
199 0.007978
138 0.007979
71 0.006002
73 0.001994
87 0.0
93 0.0
110 0.0
110 0.0
106 0.000989
110 0.002025
131 0.003991
145 0.004026
162 0.005007
170 0.00602
176 0.006947
181 0.006975
185 0.005984
193 0.006959
186 0.007007
128 0.007031
70 0.006991
69 0.00402
78 0.007016
97 0.002001
118 0.001989
118 0.001995
108 0.001996
110 0.001984
128 0.002944
151 0.001997
161 0.00096
172 0.0
179 0.001983
182 0.0
188 0.000998
195 0.002988
160 0.003964
64 0.00499
46 0.006984
49 0.005984
61 0.006982
75 0.006979
86 0.007009
89 0.004987
85 0.002031
92 0.004977
115 0.002004
138 0.00198
149 0.002001
161 0.00199
165 0.0
174 0.0
182 0.00097
164 0.0
59 0.000966
30 0.002
31 0.0
48 0.000973
64 0.001995
77 0.001996
79 0.001994
75 0.002984
85 0.003991
105 0.005988
127 0.005983
141 0.00698
156 0.007942
163 0.002993
166 0.005986
176 0.001993
182 0.0
153 0.0
46 0.000967
25 0.001
33 0.000998
53 0.000997
79 0.003994
88 0.004991
82 0.006013
82 0.004038
93 0.003987
120 0.002008
138 0.002993
152 0.001989
162 0.00302
170 0.002989
177 0.001999
186 0.0
172 0.0
68 0.000956
39 0.000996
57 0.001005
73 0.002027
105 0.005027
110 0.005926
102 0.006982
102 0.006979
121 0.006984
138 0.006955
160 0.004979
169 0.004928
179 0.003022
185 0.006042
192 0.001966
168 0.002026
67 0.001978
45 0.002029
54 0.002026
78 0.0
94 0.0
113 0.0
104 0.0
100 0.0
114 0.0
129 0.001003
155 0.00402
172 0.003963
182 0.005988
186 0.006981
191 0.005985
190 0.004987
130 0.004987
44 0.002036
32 0.004987
44 0.002006
57 0.00297
78 0.003028
86 0.00303
81 0.001005
84 0.001995
101 0.001986
124 0.003953
147 0.004961
157 0.004987
168 0.006012
173 0.005982
178 0.006981
187 0.002997
187 0.002992
122 0.001991
35 0.0
28 0.0
37 0.0
52 0.0
71 0.0
79 0.0
74 0.0
77 0.0
98 0.001991
127 0.001999
141 0.002994
157 0.004944
165 0.00396
171 0.003985
177 0.005988
188 0.006982
195 0.007979
202 0.006985
93 0.004988
45 0.006981
34 0.002986
54 0.002024
66 0.001974
94 0.001994
97 0.001993
87 0.001995
97 0.001966
114 0.001988
141 0.0
157 0.002045
166 0.002024
175 0.000999
180 0.00099
184 0.001011
194 0.001995
203 0.003965
154 0.004954
54 0.005985
41 0.005985
50 0.005027
72 0.005985
89 0.006986
104 0.003997
94 0.002999
98 0.002021
112 0.0
135 0.000999
158 0.001008
167 0.000998
177 0.001995
183 0.003028
188 0.002995
198 0.002993
208 0.005037
154 0.005964
75 0.00798
28 0.006982
31 0.00501
48 0.003989
67 0.002024
82 0.00303
83 0.0
83 0.0
92 0.000952
114 0.001991
141 0.003022
153 0.004026
166 0.004959
175 0.005989
179 0.005951
191 0.00698
201 0.006016
167 0.004994
52 0.003989
26 0.005036
35 0.002015
53 0.002965
79 0.003028
94 0.002
91 0.001968
90 0.001994
105 0.003989
128 0.005988
149 0.007979
169 0.003993
177 0.005984
186 0.003993
192 0.005987
205 0.002985
172 0.002017
96 0.001999
45 0.002003
59 0.0
72 0.0
108 0.00096
133 0.002
126 0.000994
115 0.001997
133 0.00199
149 0.002965
175 0.002959
189 0.004976
198 0.004958
205 0.006982
212 0.007946
195 0.006977
88 0.004994
57 0.003001
65 0.004002
100 0.001996
143 0.000953
151 0.0
137 0.000967
129 0.002983
148 0.005954
165 0.005984
185 0.006007
201 0.006969
213 0.00399
221 0.003996
159 0.003986
93 0.001986
61 0.0
75 0.001965
105 0.001003
144 0.000987
159 0.000958
149 0.000996
138 0.001994
145 0.002988
164 0.004953
183 0.005956
196 0.005975
203 0.005983
161 0.005992
92 0.00498
48 0.003988
61 0.004013
82 0.003999
124 0.003989
136 0.002993
124 0.000999
118 0.0
131 0.002022
149 0.002963
165 0.003951
178 0.003992
187 0.00399
139 0.006945
49 0.006984
22 0.003972
28 0.005992
49 0.002995
73 0.001985
84 0.0
82 0.0
85 0.000999
96 0.000998
122 0.001018
138 0.000989
157 0.0
157 0.003008
99 0.000995
33 0.001994
34 0.004953
46 0.005986
62 0.005984
81 0.007029
90 0.00601
90 0.006983
100 0.007946
108 0.006982
134 0.005003
156 0.002971
166 0.00298
175 0.0
119 0.0
67 0.0
49 0.00195
65 0.001996
76 0.002045
94 0.003986
104 0.003991
103 0.00399
106 0.00695
123 0.004985
137 0.004986
159 0.005026
170 0.004961
178 0.004022
188 0.002955
188 0.0
136 0.003006
74 0.0
74 0.002987
92 0.0
105 0.001008
113 0.0
124 0.0
121 0.001032
123 0.001996
138 0.003944
160 0.005947
177 0.006929
182 0.005984
190 0.004983
192 0.00499
201 0.005984
209 0.007977
162 0.002947
102 0.003995
102 0.002971
112 0.001978
125 0.003
142 0.000955
145 0.001984
141 0.0
144 0.006022
151 0.00295
168 0.003952
186 0.005987
194 0.006987
200 0.005986
206 0.006957
211 0.006954
218 0.003981
202 0.00396
144 0.002949
112 0.001986
120 0.004983
135 0.001982
147 0.001994
161 0.002041
160 0.002035
156 0.0
159 0.001995
169 0.002959
184 0.003958
199 0.004958
204 0.005963
209 0.006991
213 0.003008
217 0.006981
224 0.003981
189 0.001963
135 0.003029
116 0.003031
134 0.0
144 0.000971
161 0.000957
167 0.002981
161 0.0
155 0.001948
161 0.000999
177 0.001007
194 0.003988
200 0.00399
205 0.004021
209 0.003959
214 0.003961
217 0.003965
215 0.004985
163 0.005957
108 0.005932
112 0.006948
127 0.006982
146 0.002033
162 0.002988
162 0.002
151 0.001994
150 0.002997
164 0.002977
181 0.00499
192 0.001999
198 0.001986
204 0.002997
206 0.002014
209 0.002979
202 0.0
133 0.000967
105 0.000976
117 0.002977
127 0.002973
143 0.003937
156 0.00498
156 0.00598
146 0.005985
149 0.005963
159 0.005956
178 0.00599
186 0.004025
195 0.004997
200 0.003994
202 0.002984
175 0.002996
113 0.004989
102 0.002993
112 0.004978
127 0.002015
141 0.004987
151 0.003937
144 0.00304
137 0.002021
146 0.000998
156 0.0
169 0.001996
177 0.001959
182 0.001962
187 0.001999
172 0.004989
122 0.005981
90 0.005947
104 0.006004
110 0.006928
131 0.006988
138 0.00302
133 0.002949
124 0.003979
128 0.003989
141 0.001992
153 0.002932
161 0.0
169 0.002985
173 0.003026
175 0.0
114 0.001039
80 0.002942
81 0.00294
94 0.00397
111 0.003952
120 0.003953
118 0.003991
109 0.004963
112 0.00598
122 0.005993
139 0.005966
145 0.00598
154 0.005023
159 0.00399
164 0.003993
112 0.003988
78 0.003989
72 0.003015
84 0.002954
97 0.001038
112 0.002997
114 0.002986
107 0.0
109 0.003963
117 0.005987
131 0.007005
140 0.007965
141 0.001997
149 0.007974
155 0.004946
152 0.00494
109 0.003001
64 0.00297
68 0.002971
74 0.002949
91 0.002992
102 0.00399
102 0.003004
98 0.002991
100 0.0
111 0.001996
125 0.0
136 0.000948
143 0.00195
149 0.001967
159 0.003936
148 0.004975
74 0.006981
56 0.005943
60 0.006988
76 0.003014
94 0.0
102 0.002992
94 0.001955
92 0.002035
101 0.0
121 0.002001
133 0.002003
146 0.000996
153 0.002026
161 0.0
158 0.0
85 0.0
63 0.000999
67 0.001996
81 0.001994
93 0.003991
105 0.00395
99 0.003997
91 0.003963
97 0.00399
107 0.004987
124 0.004968
137 0.005986
144 0.006982
151 0.004986
119 0.003989
72 0.003992
47 0.000998
58 0.0
68 0.0
88 0.0
94 0.000998
91 0.001996
90 0.002964
102 0.002992
114 0.003018
132 0.00394
141 0.005984
147 0.005951
155 0.007938
154 0.00698
107 0.00698
46 0.006975
42 0.00399
49 0.005983
61 0.002983
69 0.005027
77 0.001978
75 0.003965
79 0.002993
94 0.002991
111 0.003024
124 0.0
135 0.000996
145 0.001997
151 0.00401
160 0.003952
146 0.006045
92 0.006022
47 0.006975
52 0.006982
60 0.007963
67 0.007007
81 0.003963
84 0.005038
87 0.0
95 0.000994
102 0.0
121 0.001995
138 0.001965
146 0.001999
156 0.002041
165 0.001968
170 0.002987
179 0.003987
122 0.005948
79 0.00594
64 0.005982
69 0.007978
78 0.003994
87 0.006983
101 0.006009
102 0.005015
102 0.003019
113 0.000962
125 0.002992
140 0.0
155 0.001996
162 0.002992
170 0.003026
178 0.00399
183 0.00399
187 0.005984
126 0.005971
87 0.005022
74 0.004956
86 0.004976
92 0.004966
108 0.004997
112 0.00499
107 0.004942
113 0.007969
122 0.004991
138 0.007018
152 0.00399
164 0.007978
171 0.006988
174 0.006974
181 0.005022
184 0.001991
161 0.0
81 0.002018
76 0.0
84 0.0
95 0.000999
110 0.001997
114 0.001993
109 0.002993
115 0.00496
124 0.005985
143 0.005982
157 0.004939
164 0.004991
174 0.004988
181 0.006945
184 0.006982
192 0.006013
194 0.006001
115 0.005983
66 0.002006
63 0.004987
74 0.001974
85 0.0
94 0.000998
99 0.0
98 0.000955
103 0.0
122 0.0
136 0.0
150 0.0
164 0.001
172 0.003972
176 0.004944
184 0.004987
193 0.007009
192 0.005958
120 0.007991
68 0.005012
61 0.00798
73 0.007013
82 0.00701
101 0.006984
107 0.003993
103 0.007006
107 0.002962
119 0.00601
142 0.001997
160 0.002006
168 0.0
177 0.0
183 0.0
190 0.0
185 0.000998
111 0.002037
76 0.003027
69 0.00297
85 0.003024
96 0.002994
118 0.003001
116 0.005024
108 0.004949
113 0.005012
129 0.005976
148 0.005926
163 0.00702
170 0.00702
177 0.005988
184 0.004022
186 0.00701
121 0.004004
56 0.003978
49 0.003951
59 0.00399
68 0.003995
87 0.004018
96 0.002996
92 0.002992
97 0.0
112 0.002022
131 0.000989
148 0.002019
161 0.003046
167 0.003022
175 0.002997
180 0.002992
134 0.000998
57 0.0
43 0.000999
48 0.001957
60 0.001953
70 0.002019
86 0.003017
86 0.003991
89 0.004017
103 0.003989
118 0.003948
141 0.003962
157 0.003989
164 0.005023
172 0.005969
177 0.005951
188 0.005987
176 0.004994
96 0.004963
56 0.006011
57 0.00698
64 0.006987
74 0.006986
92 0.002964
96 0.002028
94 0.0
104 0.0
117 0.000952
141 0.000959
156 0.001006
164 0.001967
173 0.003993
182 0.005964
187 0.005987
195 0.00497
151 0.004986
95 0.003985
64 0.0
71 0.002992
85 0.002036
95 0.003024
109 0.000968
105 0.002992
106 0.003989
117 0.004987
141 0.005981
154 0.006986
169 0.006991
178 0.005972
181 0.0
187 0.001026
194 0.007047
169 0.002991
85 0.002997
71 0.002954
78 0.001995
94 0.002003
107 0.002999
119 0.002994
112 0.003946
111 0.00095
124 0.002022
144 0.0
160 0.001987
173 0.0
180 0.0
187 0.001012
194 0.001996
185 0.001996
113 0.001957
70 0.00302
72 0.003992
89 0.005002
113 0.00398
125 0.00601
120 0.006012
113 0.005991
120 0.005993
142 0.004983
157 0.003997
172 0.003989
183 0.001995
188 0.002978
195 0.004946
151 0.004017
99 0.004028
73 0.004008
78 0.003992
102 0.00399
132 0.001961
136 0.004015
122 0.001983
123 0.0
136 0.0
154 0.001025
171 0.000998
180 0.002033
188 0.004007
196 0.004937
191 0.004954
100 0.005992
59 0.005989
62 0.005962
76 0.005989
92 0.007979
110 0.004993
111 0.00798
103 0.003994
108 0.004984
130 0.004996
145 0.005025
162 0.003009
175 0.001006
179 0.003038
187 0.0
187 0.0
140 0.0
62 0.0
55 0.002964
62 0.002944
79 0.004986
99 0.004987
100 0.004985
93 0.006009
101 0.006016
114 0.004959
140 0.004979
155 0.006969
165 0.003989
172 0.004983
181 0.001994
186 0.001995
152 0.002024
67 0.0
53 0.002995
58 0.000938
74 0.001966
87 0.001953
103 0.001963
99 0.002991
97 0.00399
113 0.004988
129 0.005984
148 0.006015
166 0.005988
172 0.00599
179 0.004992
186 0.003973
192 0.003992
166 0.003965
85 0.004986
53 0.002993
58 0.001995
74 0.001993
87 0.001996
104 0.0
99 0.0
96 0.001995
107 0.001991
133 0.003954
148 0.003946
164 0.003953
172 0.003954
180 0.005997
184 0.006986
192 0.004996
187 0.004964
89 0.004028
59 0.003032
58 0.001976
73 0.003948
93 0.00097
113 0.002956
106 0.002986
100 0.003011
113 0.002019
133 0.001003
151 0.000999
165 0.000949
176 0.002955
181 0.00294
189 0.002977
189 0.003954
140 0.004948
83 0.007978
54 0.005983
64 0.005989
90 0.003944
109 0.00403
116 0.002993
103 0.003048
106 0.003017
127 0.002987
149 0.004993
165 0.00302
175 0.004033
185 0.003034
189 0.002989
196 0.002988
150 0.001005
67 0.001
40 0.002996
52 0.004018
64 0.004936
88 0.006947
98 0.00496
92 0.007975
88 0.001999
108 0.000966
134 0.000995
146 0.000957
160 0.0
167 0.00097
174 0.0
174 0.0
124 0.0
43 0.00096
35 0.001955
46 0.003956
67 0.004986
88 0.006932
90 0.005976
82 0.007975
88 0.006987
101 0.006022
127 0.004987
146 0.002992
154 0.002992
165 0.0
174 0.0
156 0.0
76 0.0
33 0.0
36 0.001997
56 0.002997
81 0.002979
90 0.002993
83 0.005971
82 0.005986
93 0.00499
120 0.003996
138 0.004989
151 0.001998
160 0.003976
169 0.002985
176 0.001042
174 0.001974
85 0.002022
50 0.001992
46 0.00399
63 0.003935
76 0.003986
94 0.004981
92 0.004994
90 0.003995
102 0.001985
129 0.003001
143 0.002997
159 0.002
167 0.004033
175 0.00096
183 0.00299
164 0.001958
108 0.004031
63 0.002977
65 0.003021
83 0.002991
108 0.000992
116 0.002974
110 0.0
107 0.000998
115 0.000998
138 0.001995
159 0.002956
168 0.00299
177 0.002996
183 0.002955
178 0.002955
98 0.002948
70 0.003958
71 0.004961
88 0.005991
103 0.005968
116 0.005958
111 0.005951
106 0.004988
119 0.007933
133 0.003989
155 0.007976
167 0.005987
174 0.005991
183 0.003995
178 0.001999
127 0.002004
68 0.001988
55 0.0
59 0.000998
71 0.000999
89 0.001991
92 0.001997
88 0.002947
99 0.002997
112 0.00494
133 0.004993
150 0.005959
158 0.005982
167 0.005985
172 0.006984
130 0.002024
68 0.005985
49 0.003041
55 0.00593
67 0.003947
78 0.003951
90 0.004029
87 0.003
92 0.00293
110 0.0
123 0.003024
132 0.019007
161 0.000994
168 0.0
178 0.0
173 0.0
139 0.0
66 0.000971
59 0.001991
67 0.002011
81 0.001993
97 0.003986
102 0.003985
99 0.005984
108 0.005957
121 0.006002
145 0.005985
157 0.006958
171 0.007956
179 0.003954
184 0.007006
194 0.004914
144 0.004035
95 0.002978
73 0.004008
86 0.00302
97 0.0
117 0.00097
119 0.002985
114 0.0
118 0.002034
138 0.002991
152 0.003977
171 0.003961
181 0.004987
190 0.004987
194 0.005984
205 0.007979
201 0.007029
118 0.006979
82 0.006981
74 0.004942
87 0.0
104 0.0
110 0.0
111 0.000994
109 0.001994
116 0.002972
139 0.003993
163 0.004951
173 0.005011
184 0.00501
192 0.006011
197 0.005951
205 0.004995
203 0.005978
127 0.002954
74 0.003027
66 0.003014
73 0.0
85 0.0
99 0.003047
103 0.002999
100 0.005006
109 0.003963
121 0.003953
145 0.004992
165 0.004954
173 0.005984
180 0.004998
188 0.003992
193 0.004019
205 0.00399
202 0.003949
106 0.003021
60 0.002992
61 0.003948
74 0.002987
85 0.003992
100 0.003017
102 0.003973
99 0.001969
107 0.004002
132 0.003985
149 0.003987
168 0.00399
180 0.000997
185 0.0
194 0.001039
203 0.000954
203 0.000965
116 0.002015
66 0.003014
67 0.002985
84 0.003954
106 0.004991
121 0.004985
118 0.005947
115 0.005984
126 0.004944
146 0.005955
167 0.004948
182 0.005978
193 0.007954
196 0.006986
204 0.005995
214 0.003008
197 0.005006
106 0.002996
86 0.0
94 0.0
113 0.00096
131 0.002
151 0.000964
137 0.0
134 0.001007
147 0.002995
171 0.003949
181 0.003951
195 0.005953
201 0.005983
204 0.005948
195 0.005999
125 0.007976
83 0.002954
82 0.005993
99 0.005051
112 0.004997
134 0.004946
123 0.0
118 0.00295
128 0.001996
146 0.0
160 0.0
177 0.0
183 0.0
192 0.014954
168 0.001962
108 0.00196
59 0.003007
61 0.00502
68 0.005987
81 0.005975
93 0.004995
94 0.004979
92 0.002988
99 0.004959
114 0.000972
131 0.003988
149 0.001974
158 0.002016
168 0.0
129 0.0
67 0.0
47 0.0
56 0.0
61 0.001
76 0.001965
88 0.003975
85 0.003992
89 0.005986
103 0.005998
115 0.003989
135 0.003998
149 0.005982
160 0.003001
168 0.003008
157 0.003025
104 0.003035
55 0.003034
54 0.003018
63 0.002972
70 0.0
82 0.0
88 0.0
89 0.0
95 0.0
114 0.0
136 0.000998
147 0.002006
159 0.002988
169 0.005982
175 0.005983
180 0.004993
114 0.00302
76 0.002997
65 0.002993
75 0.004023
85 0.000998
100 0.003019
105 0.003007
102 0.003021
107 0.003037
121 0.0
137 0.000961
152 0.002019
164 0.002995
169 0.004011
178 0.003951
188 0.005956
171 0.007974
106 0.005031
76 0.003988
79 0.003991
92 0.002991
112 0.002001
117 0.000991
110 0.0
111 0.000999
119 0.000972
138 0.002003
155 0.002989
164 0.003986
173 0.004989
177 0.004955
185 0.004986
191 0.006011
127 0.006978
95 0.007979
70 0.007939
75 0.007991
86 0.007984
97 0.003963
102 0.005959
99 0.00299
101 0.0
110 0.000997
129 0.000968
147 0.000978
155 0.000955
163 0.001992
172 0.003998
176 0.003964
185 0.00494
112 0.004978
72 0.004966
59 0.004992
68 0.004963
77 0.004985
87 0.006981
92 0.00793
90 0.006982
92 0.005934
99 0.005952
119 0.005994
137 0.00397
147 0.002993
158 0.003951
167 0.002998
172 0.002992
183 0.002988
189 0.003029
130 0.002997
68 0.00299
55 0.00097
61 0.001982
72 0.001961
80 0.001965
87 0.00396
84 0.003963
87 0.004957
98 0.00499
121 0.005957
132 0.005985
151 0.005987
160 0.005993
166 0.006968
172 0.005991
181 0.00695
192 0.006019
175 0.005992
108 0.000944
57 0.004958
63 0.004974
