173 0.029919
173 0.001995
180 0.000998
185 0.000996
191 0.000991
133 0.002001
72 0.000997
47 0.000998
56 0.000998
79 0.000997
103 0.001996
110 0.001994
111 0.001995
107 0.001984
104 0.001
110 0.000997
123 0.000998
135 0.001996
146 0.001995
158 0.001996
166 0.000998
170 0.001003
179 0.001996
186 0.001953
161 0.001962
96 0.001998
55 0.001999
56 0.001071
79 0.002046
100 0.002959
112 0.002995
120 0.002037
117 0.001995
111 0.001995
112 0.001995
119 0.001995
136 0.001997
150 0.001994
160 0.001998
170 0.000998
177 0.001995
183 0.002001
190 0.002991
200 0.001982
167 0.001995
95 0.00199
42 0.001996
54 0.001995
76 0.002993
91 0.002993
99 0.001995
105 0.002993
106 0.002993
103 0.002993
103 0.002993
110 0.002992
126 0.002035
141 0.002967
161 0.003023
167 0.002993
174 0.002989
182 0.002993
187 0.003023
192 0.002959
182 0.002993
118 0.002992
53 0.002999
50 0.002984
69 0.002992
99 0.003048
109 0.002039
113 0.003991
115 0.003001
111 0.00399
110 0.003966
121 0.002992
134 0.002991
149 0.00301
163 0.003934
173 0.00299
180 0.002992
188 0.003949
194 0.003998
199 0.003958
137 0.003031
77 0.003989
55 0.00499
73 0.003958
91 0.003988
110 0.003985
124 0.003959
127 0.003957
122 0.003999
113 0.00396
117 0.003959
132 0.002993
148 0.00299
160 0.003988
171 0.004957
181 0.003988
188 0.004018
195 0.003989
202 0.004938
196 0.004953
106 0.004006
47 0.00399
47 0.003936
66 0.003958
88 0.004943
101 0.00495
106 0.005021
108 0.004955
106 0.004955
103 0.004019
108 0.004984
119 0.004954
138 0.003977
156 0.005001
166 0.004987
177 0.004988
183 0.004994
189 0.004988
197 0.005946
183 0.004984
112 0.004947
55 0.004948
37 0.004965
57 0.004952
78 0.004981
93 0.005071
97 0.006023
98 0.00502
96 0.004987
96 0.005028
101 0.006033
113 0.005984
131 0.004986
144 0.005033
155 0.004988
163 0.005986
169 0.005984
178 0.005999
184 0.005985
180 0.004988
121 0.005954
63 0.005988
44 0.005986
62 0.006018
86 0.006021
103 0.004998
112 0.004987
112 0.006983
106 0.005983
100 0.005988
107 0.005989
125 0.006013
139 0.006019
152 0.005985
161 0.007017
168 0.006982
175 0.005984
182 0.005947
187 0.005986
150 0.007017
81 0.00698
38 0.007026
53 0.006983
80 0.005958
90 0.005953
98 0.005934
103 0.006983
101 0.005984
97 0.006917
98 0.006964
105 0.007016
121 0.006949
135 0.00695
153 0.006949
161 0.00698
168 0.005949
174 0.005995
181 0.006935
177 0.006946
119 0.006952
59 0.007945
34 0.006949
47 0.006981
66 0.006982
79 0.005977
86 0.006018
92 0.007046
93 0.006982
93 0.006982
96 0.006984
106 0.006984
124 0.007982
132 0.00798
146 0.006964
154 0.006981
160 0.006982
167 0.006973
172 0.006983
181 0.006981
171 0.007015
111 0.007979
48 0.006982
43 0.006981
61 0.007979
80 0.00798
90 0.007016
96 0.006982
100 0.006982
99 0.006981
98 0.006995
104 0.007979
119 0.006996
132 0.007979
146 0.007013
155 0.007981
161 0.007987
166 0.007984
170 0.007997
179 0.007977
182 0.00702
141 0.007963
66 0.006984
50 0.006982
67 0.007023
93 0.007013
103 0.006981
109 0.007017
112 0.007013
110 0.007015
107 0.007015
111 0.00703
122 0.006026
144 0.006018
155 0.006966
161 0.007979
171 0.007013
180 0.007018
185 0.006982
188 0.007025
193 0.007027
197 0.007015
159 0.007019
73 0.006979
47 0.006019
65 0.005979
82 0.005994
90 0.006994
94 0.006984
101 0.007015
102 0.006985
100 0.006972
103 0.006989
111 0.006983
122 0.007021
140 0.007025
151 0.006015
166 0.006044
172 0.005985
177 0.005984
182 0.005974
186 0.006021
194 0.006017
194 0.006017
139 0.006019
76 0.005985
49 0.00602
62 0.00502
82 0.006012
98 0.005013
102 0.006023
106 0.005973
106 0.006008
105 0.006006
109 0.00602
119 0.006018
132 0.006018
145 0.006016
156 0.006017
169 0.00601
175 0.005017
183 0.004984
188 0.005018
192 0.004975
199 0.004991
201 0.00502
131 0.00501
79 0.005027
63 0.005984
76 0.005984
99 0.005984
119 0.004984
128 0.005983
126 0.004986
120 0.004985
117 0.004987
120 0.004986
131 0.004986
150 0.005021
162 0.005027
172 0.005016
179 0.004021
185 0.005023
191 0.005005
198 0.004986
194 0.004985
139 0.004986
82 0.004987
59 0.004987
66 0.004986
86 0.004986
106 0.00399
112 0.004032
117 0.004019
118 0.004022
115 0.004018
114 0.004021
121 0.005011
138 0.005024
151 0.004996
162 0.00399
171 0.00402
178 0.003988
185 0.003984
190 0.003982
195 0.003996
194 0.003988
143 0.003989
56 0.003988
49 0.003989
70 0.003033
87 0.004023
95 0.003982
99 0.002994
103 0.004027
104 0.004044
104 0.004022
106 0.00399
113 0.003989
125 0.003989
146 0.003983
156 0.004024
166 0.004058
172 0.004074
177 0.003987
182 0.003031
189 0.003042
171 0.003029
108 0.003013
61 0.003022
50 0.003048
65 0.002992
96 0.00399
104 0.003948
109 0.003991
109 0.00399
106 0.003979
105 0.00299
108 0.002998
123 0.002991
136 0.003021
147 0.003014
156 0.003029
164 0.002994
172 0.003024
177 0.002962
185 0.004019
155 0.004028
92 0.002018
54 0.003045
52 0.002991
71 0.002992
99 0.002991
109 0.003024
116 0.002975
117 0.003021
109 0.002992
108 0.003019
114 0.002005
131 0.002037
144 0.002025
155 0.002033
163 0.001993
170 0.002027
178 0.001994
183 0.002026
190 0.003023
174 0.001992
71 0.002991
43 0.001993
50 0.00203
78 0.002011
92 0.001987
98 0.002019
103 0.001992
104 0.00203
102 0.00204
102 0.001977
107 0.000989
117 0.002038
139 0.002003
151 0.001028
161 0.000994
169 0.001993
175 0.001994
180 0.002031
186 0.002035
182 0.001994
104 0.002025
53 0.001995
40 0.000997
67 0.001995
83 0.001995
89 0.001
95 0.001026
100 0.001038
100 0.000963
99 0.000996
103 0.000987
111 0.002029
129 0.001996
143 0.000965
154 0.00199
169 0.001989
175 0.00105
181 0.000996
185 0.000997
193 0.000965
164 0.001032
96 0.00104
53 0.000998
48 0.000985
74 0.0
95 0.0
104 0.0
112 0.001034
111 0.0
107 0.001037
104 0.000966
109 0.001031
124 0.000998
137 0.000981
150 0.0
160 0.000997
168 0.000998
175 0.0
180 0.0
190 0.0
184 0.0
128 0.0
72 0.0
54 0.0
73 0.0
98 0.0
115 0.001016
125 0.0
128 0.0
119 0.0
111 0.0
117 0.0
129 0.0
143 0.0
156 0.0
166 0.0
174 0.0
180 0.0
186 0.0
192 0.0
153 0.0
87 0.000966
50 0.000988
61 0.000997
84 0.000952
101 0.0
109 0.0
115 0.0
113 0.0
108 0.000966
109 0.0
113 0.0
131 0.0
145 0.000999
157 0.000998
172 0.000998
179 0.000997
187 0.0
191 0.000997
196 0.000962
138 0.0
72 0.001009
41 0.0
54 0.0
75 0.0
90 0.001
96 0.002044
105 0.000967
105 0.000997
101 0.0
104 0.0
113 0.0
127 0.001
141 0.001983
153 0.001959
166 0.0
173 0.0
178 0.001006
185 0.000965
194 0.0
161 0.000999
91 0.001996
45 0.0
52 0.000997
73 0.000998
94 0.00197
104 0.001996
111 0.000998
111 0.000996
107 0.000997
106 0.000997
114 0.001043
126 0.002027
141 0.002035
157 0.001994
163 0.001996
171 0.001996
178 0.001987
184 0.001981
192 0.002001
180 0.001003
117 0.001028
52 0.001031
61 0.001041
85 0.001995
109 0.001994
128 0.002006
133 0.002042
126 0.001995
117 0.002997
112 0.002029
119 0.000999
133 0.001996
148 0.000997
167 0.000997
174 0.000998
180 0.002993
187 0.002992
196 0.001997
188 0.001996
123 0.001994
63 0.003034
42 0.002992
61 0.001944
86 0.002991
103 0.002027
117 0.001992
116 0.002028
110 0.002992
104 0.004028
109 0.002991
121 0.002028
135 0.003025
149 0.003991
161 0.003028
170 0.003029
180 0.002029
186 0.001968
196 0.002134
172 0.001999
98 0.002993
46 0.00399
33 0.00399
56 0.002992
78 0.001994
90 0.002993
96 0.00399
100 0.003989
99 0.002993
96 0.003932
102 0.002991
109 0.003036
128 0.00299
141 0.003994
153 0.002983
165 0.003965
171 0.002993
175 0.004044
182 0.003989
189 0.004026
173 0.003986
104 0.00399
35 0.004013
41 0.004024
73 0.003028
91 0.003992
100 0.00399
107 0.003
106 0.003989
102 0.002044
100 0.003989
107 0.003993
122 0.004015
136 0.003939
157 0.004022
168 0.003984
175 0.004024
180 0.004987
185 0.004987
193 0.00399
190 0.005025
131 0.004991
69 0.004011
45 0.004988
55 0.004992
91 0.004019
119 0.00399
125 0.004023
120 0.004022
111 0.004993
103 0.004987
106 0.003989
118 0.00399
134 0.004029
148 0.006017
159 0.00497
167 0.004957
176 0.00399
183 0.005984
187 0.005032
138 0.004993
71 0.004987
40 0.005991
44 0.004988
76 0.004988
98 0.004996
109 0.004986
115 0.00498
112 0.005986
100 0.004957
101 0.005021
113 0.004021
128 0.004025
143 0.004987
155 0.005986
163 0.006039
173 0.005116
179 0.004986
185 0.005035
183 0.006021
122 0.006983
34 0.006022
30 0.005984
57 0.004975
77 0.004996
86 0.004981
92 0.005996
95 0.005984
92 0.004941
90 0.005941
93 0.004986
103 0.006991
117 0.007044
140 0.006981
150 0.00698
160 0.00599
167 0.005986
172 0.006019
180 0.005943
171 0.006016
85 0.004989
50 0.006982
30 0.005985
49 0.006006
71 0.007024
89 0.007024
94 0.007015
97 0.005982
94 0.006017
93 0.005977
98 0.007017
110 0.006982
128 0.005984
141 0.006983
152 0.00699
162 0.007982
167 0.007975
174 0.006984
180 0.006981
185 0.006981
120 0.006981
79 0.007022
45 0.006982
55 0.007015
79 0.007023
99 0.007046
112 0.006982
115 0.006
109 0.007948
100 0.005985
104 0.007949
119 0.007933
133 0.007025
146 0.006982
156 0.00698
165 0.007962
169 0.007982
177 0.006997
184 0.006989
176 0.005984
93 0.007015
40 0.007015
45 0.007978
67 0.007979
95 0.006977
101 0.007955
110 0.006943
111 0.007981
105 0.007945
102 0.006982
107 0.006948
125 0.006983
134 0.007947
159 0.007013
166 0.006994
174 0.007017
182 0.007015
188 0.007012
193 0.006987
155 0.007012
105 0.00798
35 0.006971
36 0.006997
62 0.007015
81 0.007014
92 0.007017
98 0.006982
100 0.007019
97 0.006981
98 0.007013
106 0.007012
118 0.007016
133 0.007016
151 0.007015
161 0.00701
168 0.007023
179 0.007017
184 0.006982
191 0.007022
182 0.005984
118 0.006019
48 0.006949
40 0.006953
58 0.007019
81 0.007029
96 0.006973
104 0.007016
108 0.006005
103 0.007015
102 0.006981
107 0.006976
118 0.005995
132 0.006017
150 0.006018
159 0.005901
167 0.005987
174 0.005983
181 0.006015
191 0.005991
197 0.006014
109 0.006982
63 0.006017
55 0.00603
75 0.006029
103 0.006024
128 0.005987
138 0.006
138 0.005999
129 0.006018
121 0.006007
123 0.005999
136 0.005989
163 0.005985
177 0.006015
187 0.006021
194 0.005984
201 0.004985
209 0.005002
216 0.005018
191 0.005018
112 0.004996
59 0.005018
49 0.006036
71 0.006015
107 0.006018
116 0.005984
122 0.00602
120 0.005985
115 0.005031
110 0.005024
118 0.005009
131 0.004987
146 0.00502
160 0.005027
177 0.004983
185 0.005044
197 0.00499
204 0.00505
211 0.00503
186 0.00503
106 0.003942
42 0.003991
40 0.00488
61 0.003979
85 0.003992
99 0.00399
106 0.003989
110 0.003986
107 0.003957
104 0.004956
109 0.00503
122 0.004987
137 0.005
153 0.00399
171 0.003988
181 0.003977
189 0.003968
196 0.00402
202 0.003955
209 0.003979
134 0.003989
53 0.004007
40 0.003992
57 0.003991
84 0.003991
104 0.004023
116 0.005064
119 0.004028
114 0.003986
108 0.003991
106 0.002952
116 0.004056
135 0.003015
154 0.004032
167 0.003991
177 0.003028
185 0.003034
192 0.00303
202 0.00399
175 0.002992
100 0.002992
54 0.003991
47 0.004006
78 0.004031
113 0.004023
134 0.00399
137 0.003998
127 0.003989
115 0.002977
110 0.002968
120 0.003024
136 0.003171
153 0.003024
166 0.004019
176 0.003052
189 0.002992
197 0.002038
195 0.002993
124 0.003989
57 0.003983
32 0.003025
41 0.003065
74 0.003023
95 0.002992
106 0.002992
112 0.002991
108 0.003023
97 0.002961
98 0.002959
108 0.002956
127 0.002959
142 0.003007
155 0.001993
165 0.001992
171 0.001995
182 0.001995
183 0.001995
126 0.001996
56 0.003023
23 0.002961
41 0.002992
64 0.002027
81 0.002992
89 0.002992
92 0.002993
90 0.002027
87 0.001995
89 0.001998
99 0.002031
113 0.002029
128 0.002037
147 0.001995
155 0.002029
163 0.001994
176 0.001996
163 0.001998
96 0.001995
42 0.000996
26 0.002044
47 0.001995
71 0.001995
85 0.001996
93 0.001994
98 0.001995
94 0.002004
91 0.001996
98 0.001996
110 0.001996
124 0.000998
136 0.000996
148 0.000997
158 0.00101
165 0.00103
174 0.000996
166 0.001993
68 0.000992
40 0.000997
46 0.001996
79 0.000997
98 0.000998
111 0.001995
116 0.001012
112 0.001035
100 0.000997
100 0.001022
108 0.000999
121 0.001053
143 0.000998
152 0.000997
159 0.000997
168 0.000996
176 0.000996
150 0.000998
84 0.0
40 0.0
35 0.0
61 0.001018
83 0.0
94 0.0
104 0.000991
101 0.000989
96 0.000992
96 0.001003
106 0.001001
120 0.0
133 0.0
144 0.001018
152 0.0
161 0.0
168 0.0
174 0.0
88 0.0
39 0.0
28 0.0
43 0.0
69 0.0
77 0.0
84 0.0
90 0.0
92 0.0
90 0.000965
93 0.0
111 0.000966
124 0.000998
138 0.000998
150 0.0
157 0.0
163 0.000997
170 0.000997
174 0.0
133 0.0
54 0.0
35 0.000999
45 0.00098
78 0.00103
87 0.001028
96 0.0
101 0.0
99 0.0
97 0.000999
100 0.001047
110 0.000964
127 0.0
141 0.0
151 0.000998
158 0.000998
168 0.000998
173 0.000998
177 0.000998
131 0.001041
89 0.001051
48 0.000998
56 0.001004
89 0.000991
105 0.0
116 0.000962
121 0.000996
120 0.001986
110 0.000985
114 0.001003
124 0.001997
143 0.000997
156 0.000999
166 0.000998
174 0.001986
179 0.002005
187 0.001002
195 0.001033
193 0.001041
122 0.001025
51 0.000963
57 0.001993
81 0.001995
105 0.000997
114 0.000998
122 0.000994
126 0.001995
124 0.002008
124 0.000992
131 0.001002
143 0.000998
156 0.00197
174 0.001006
184 0.001995
196 0.00299
210 0.000995
225 0.000996
237 0.000994
217 0.001995
133 0.001995
69 0.001995
64 0.000999
76 0.000984
90 0.003023
100 0.002033
108 0.003018
112 0.002989
113 0.002025
118 0.001995
137 0.002021
163 0.002992
192 0.003024
218 0.001034
229 0.002039
231 0.001966
226 0.003029
227 0.001999
228 0.003003
213 0.002993
147 0.002023
108 0.002019
95 0.002027
97 0.003051
103 0.004031
110 0.001996
117 0.001994
124 0.002977
120 0.002993
96 0.001993
95 0.001995
97 0.002992
104 0.002991
111 0.001995
121 0.002006
133 0.001995
147 0.003991
157 0.00298
176 0.001954
162 0.002956
93 0.001994
32 0.002016
41 0.002007
69 0.00399
100 0.002992
132 0.001997
148 0.003001
150 0.001983
141 0.004023
137 0.003993
147 0.001994
163 0.001961
193 0.001972
208 0.001991
223 0.001994
236 0.004029
249 0.003988
255 0.003031
253 0.002959
158 0.003023
87 0.003957
72 0.003957
97 0.002993
126 0.002962
165 0.003024
175 0.00399
169 0.004002
151 0.004951
140 0.004976
145 0.004027
161 0.003042
180 0.002993
197 0.00402
214 0.005005
235 0.004032
250 0.003992
213 0.002974
111 0.003996
69 0.004041
70 0.00502
95 0.005018
137 0.004019
162 0.004019
176 0.004022
172 0.004988
153 0.005035
139 0.003948
146 0.004988
170 0.003989
184 0.004988
198 0.004987
210 0.00399
220 0.005984
231 0.004987
166 0.003989
68 0.003989
29 0.004987
29 0.004987
51 0.004963
86 0.004972
110 0.004986
119 0.005026
112 0.005021
103 0.005019
101 0.005968
109 0.005992
129 0.003998
146 0.003975
162 0.003982
175 0.006019
191 0.005969
175 0.004988
61 0.005982
17 0.004994
24 0.004991
47 0.005017
69 0.005952
84 0.005947
95 0.005021
95 0.006018
91 0.004992
89 0.006998
94 0.006983
112 0.005985
135 0.006981
156 0.004987
169 0.004986
181 0.004987
141 0.00698
62 0.005955
17 0.005017
23 0.005013
43 0.005994
62 0.007013
76 0.006037
89 0.006018
89 0.006982
83 0.006015
84 0.006011
92 0.006009
107 0.007013
124 0.006982
147 0.006015
162 0.00604
172 0.006983
99 0.007976
55 0.007979
20 0.006984
38 0.00798
66 0.005984
81 0.005987
92 0.00594
94 0.005981
89 0.006981
85 0.006996
90 0.005983
102 0.005984
117 0.006984
136 0.007971
149 0.007978
170 0.007937
169 0.007952
107 0.007002
48 0.007047
29 0.007016
40 0.007978
73 0.007969
92 0.00703
106 0.006967
109 0.006982
100 0.006969
95 0.007016
104 0.007948
117 0.00798
132 0.00699
144 0.007016
155 0.007015
167 0.00798
178 0.007025
169 0.006963
104 0.00695
54 0.00695
43 0.007987
78 0.007022
104 0.007979
126 0.007979
133 0.006982
120 0.007015
106 0.007
107 0.007018
119 0.007026
140 0.006981
153 0.007026
164 0.007013
173 0.007013
188 0.007007
149 0.006978
76 0.007015
35 0.006955
44 0.006981
66 0.007017
88 0.006988
102 0.006989
112 0.007013
107 0.006987
99 0.005982
98 0.006993
114 0.005968
129 0.006978
142 0.007022
158 0.007046
168 0.007015
178 0.006975
175 0.007025
110 0.006982
47 0.007026
24 0.006986
40 0.006026
62 0.006015
82 0.006016
91 0.006017
94 0.006033
92 0.006015
92 0.006009
99 0.006019
112 0.006015
127 0.006017
141 0.006016
157 0.006981
165 0.006042
173 0.006016
180 0.006021
124 0.005283
56 0.005986
28 0.005018
41 0.006034
63 0.005988
79 0.005983
88 0.00602
95 0.006017
96 0.006024
94 0.004999
95 0.006015
111 0.006016
127 0.005025
143 0.006015
156 0.005019
172 0.004986
181 0.004986
190 0.004987
199 0.005023
210 0.006014
173 0.006025
96 0.006026
57 0.005991
71 0.006019
97 0.005023
115 0.004978
126 0.005022
131 0.005019
123 0.005022
116 0.004995
116 0.005037
127 0.004955
148 0.004986
165 0.003997
178 0.003989
192 0.00497
199 0.004992
206 0.005019
213 0.005022
152 0.004988
79 0.005986
50 0.003991
55 0.003989
79 0.003993
101 0.004031
117 0.004985
124 0.003989
117 0.00399
112 0.005036
115 0.00502
126 0.004973
142 0.004993
163 0.00399
176 0.004023
187 0.004034
195 0.003981
202 0.004023
211 0.00402
208 0.003994
107 0.003989
51 0.003956
37 0.003981
52 0.003989
75 0.003991
92 0.003959
101 0.004013
107 0.00385
107 0.004005
104 0.003991
107 0.003989
122 0.004
143 0.003989
160 0.003988
174 0.00399
184 0.003989
192 0.004025
200 0.004019
206 0.002992
213 0.002992
212 0.002992
146 0.003028
58 0.003022
45 0.00303
73 0.00399
94 0.002992
105 0.003957
113 0.004041
115 0.00399
110 0.002992
106 0.003002
110 0.003022
123 0.003025
138 0.003024
159 0.003026
176 0.002992
187 0.002989
194 0.002988
201 0.002988
210 0.002992
204 0.002994
104 0.002012
53 0.001995
45 0.001996
64 0.002992
91 0.003025
115 0.003048
128 0.003025
126 0.002992
115 0.003022
112 0.003027
119 0.002025
134 0.002992
152 0.001959
172 0.002028
185 0.001995
196 0.002029
204 0.001996
211 0.002064
223 0.001995
210 0.001996
95 0.001998
44 0.001995
36 0.001995
55 0.001995
79 0.001996
100 0.002032
108 0.001984
111 0.001869
108 0.002024
104 0.002007
109 0.001996
121 0.001996
144 0.001995
162 0.001995
177 0.001996
188 0.000998
198 0.001995
208 0.000998
213 0.000998
221 0.000999
187 0.000996
95 0.002028
30 0.000998
42 0.000997
74 0.000996
92 0.001985
100 0.001996
106 0.002003
104 0.001995
100 0.000998
101 0.000998
109 0.000997
124 0.001029
142 0.001062
171 0.001003
183 0.001
194 0.002036
201 0.000997
206 0.001
212 0.000998
218 0.001055
148 0.000997
70 0.000998
39 0.000997
45 0.0
88 0.0
108 0.0
119 0.0
124 0.0
115 0.000997
107 0.001012
107 0.000998
116 0.000997
133 0.000998
156 0.000998
170 0.000997
182 0.0
195 0.0
201 0.0
209 0.0
209 0.0
111 0.0
51 0.0
36 0.0
51 0.0
79 0.0
108 0.0
123 0.000998
125 0.0
108 0.000997
101 0.000998
106 0.000999
120 0.0
143 0.0
160 0.0
173 0.0
185 0.000994
193 0.0
201 0.000999
207 0.0
134 0.0
39 0.001003
22 0.0
32 0.000968
56 0.000996
81 0.000965
89 0.000998
95 0.0
93 0.000997
86 0.000964
86 0.001043
95 0.001009
116 0.0
140 0.00104
160 0.0
170 0.0
178 0.0
186 0.00103
195 0.001029
157 0.0
71 0.0
24 0.0
18 0.001
35 0.001006
66 0.0
80 0.002021
88 0.0
88 0.0
85 0.0
84 0.0
90 0.001029
102 0.001036
124 0.0
141 0.0
154 0.0
165 0.002029
173 0.001969
184 0.001995
193 0.00203
152 0.001031
72 0.000998
30 0.0
26 0.002009
46 0.001995
77 0.000953
87 0.0
94 0.00103
96 0.002992
93 0.001998
91 0.002036
98 0.001989
118 0.000972
135 0.000961
150 0.000997
162 0.00202
171 0.001992
180 0.001
186 0.000997
194 0.000995
186 0.001998
119 0.003032
44 0.002992
49 0.003024
84 0.002026
107 0.000988
121 0.001031
128 0.003035
123 0.002988
109 0.000997
107 0.001006
116 0.001961
130 0.002022
158 0.001962
170 0.002993
179 0.002992
189 0.002
195 0.002029
204 0.002042
184 0.002992
105 0.003022
40 0.001995
38 0.002027
59 0.002043
84 0.003024
105 0.002041
110 0.003879
108 0.003978
102 0.003989
100 0.002026
108 0.001994
123 0.002
139 0.003988
153 0.002991
168 0.001995
176 0.001995
183 0.002009
196 0.002995
192 0.002994
126 0.004029
56 0.003989
26 0.002992
39 0.003023
60 0.003029
75 0.004021
82 0.004027
90 0.001994
91 0.001995
89 0.002016
94 0.001991
106 0.002994
121 0.00399
138 0.00399
156 0.002985
167 0.002987
174 0.002993
181 0.00402
187 0.003935
198 0.00299
190 0.003007
116 0.002994
34 0.003004
36 0.002961
57 0.004986
77 0.004993
89 0.00399
95 0.002991
97 0.002985
96 0.004987
95 0.004988
101 0.002994
114 0.003032
130 0.003017
157 0.00397
169 0.00299
177 0.00399
184 0.004026
190 0.003986
196 0.003955
204 0.003993
202 0.004986
135 0.004987
57 0.003989
48 0.003989
65 0.003994
103 0.003989
113 0.003995
120 0.004987
119 0.005984
112 0.00603
106 0.003975
113 0.004982
127 0.003978
144 0.005985
160 0.005988
176 0.00399
184 0.003988
195 0.003989
201 0.003985
209 0.003989
201 0.005946
125 0.006
47 0.00502
38 0.005025
55 0.004989
80 0.005982
97 0.005998
108 0.005022
111 0.005032
103 0.005035
100 0.004974
107 0.003988
120 0.005984
138 0.006022
160 0.004984
173 0.003978
183 0.004939
191 0.006981
198 0.007017
206 0.005011
214 0.005079
151 0.005019
68 0.004988
32 0.005021
34 0.006982
54 0.006949
80 0.004999
88 0.004987
93 0.004967
97 0.005984
96 0.005984
95 0.005984
104 0.006982
124 0.006015
143 0.006019
158 0.005974
171 0.00698
182 0.006982
191 0.004984
197 0.005974
204 0.004972
211 0.006981
211 0.006981
117 0.005993
43 0.007984
43 0.005979
65 0.005986
87 0.006014
98 0.007017
104 0.006982
105 0.006057
101 0.007018
98 0.007043
101 0.006983
117 0.007971
133 0.007979
154 0.007981
166 0.007979
179 0.005981
186 0.006016
192 0.005943
200 0.007947
201 0.007012
113 0.005978
55 0.006939
39 0.006015
62 0.008013
80 0.007978
109 0.007978
118 0.007979
116 0.007012
107 0.006005
104 0.005998
108 0.007979
120 0.007978
145 0.005981
159 0.005952
171 0.00599
183 0.007014
189 0.008012
199 0.007976
206 0.007938
184 0.006984
98 0.006985
40 0.006984
26 0.007978
39 0.007979
69 0.007014
83 0.006981
89 0.006981
92 0.006982
89 0.006982
86 0.006981
93 0.006981
112 0.006981
124 0.006981
145 0.006977
157 0.007025
162 0.007971
173 0.007012
178 0.007013
185 0.007014
188 0.007024
134 0.007038
32 0.007017
23 0.00702
46 0.006979
65 0.006961
71 0.006981
79 0.007017
84 0.007021
86 0.006016
85 0.005981
88 0.00602
98 0.007015
113 0.006982
139 0.006982
152 0.006982
160 0.006981
168 0.006982
175 0.006982
180 0.006981
188 0.005985
160 0.005984
68 0.005984
38 0.005985
43 0.005974
66 0.00602
95 0.005979
102 0.006015
107 0.006017
103 0.006986
97 0.006983
99 0.006016
110 0.00602
126 0.005977
146 0.005984
158 0.005984
167 0.005984
178 0.005966
184 0.006015
192 0.006016
189 0.006016
103 0.004988
49 0.005043
35 0.00503
49 0.005025
72 0.004988
89 0.00502
95 0.004987
100 0.00499
97 0.005973
95 0.005024
101 0.004985
114 0.004987
136 0.005014
149 0.004992
160 0.004947
169 0.004987
175 0.005024
182 0.004983
188 0.004987
196 0.00504
149 0.004975
72 0.005025
33 0.005023
32 0.004983
56 0.004988
71 0.005019
74 0.005026
79 0.004985
85 0.004988
87 0.005017
87 0.005023
92 0.004987
113 0.00399
128 0.004988
144 0.004989
156 0.003989
165 0.003989
173 0.00399
179 0.003989
184 0.003992
192 0.00399
198 0.00399
130 0.004992
62 0.004988
38 0.003989
58 0.004987
78 0.004017
87 0.003991
92 0.003992
99 0.004035
98 0.004022
97 0.00399
100 0.003991
110 0.003994
130 0.004027
146 0.00399
167 0.002985
176 0.002992
183 0.003004
187 0.003984
192 0.004033
200 0.004025
208 0.00402
210 0.003985
149 0.004026
80 0.003989
52 0.00399
67 0.003992
105 0.002992
116 0.002992
124 0.003989
124 0.002992
117 0.002993
111 0.003989
116 0.002991
129 0.00399
147 0.003989
163 0.004004
179 0.004041
188 0.003989
199 0.002996
205 0.003027
211 0.002993
213 0.003026
157 0.002992
65 0.002992
45 0.002998
57 0.002992
81 0.003025
101 0.003025
113 0.002992
118 0.002993
111 0.001998
108 0.001995
111 0.002993
123 0.003044
139 0.001995
162 0.003002
176 0.003021
186 0.002997
194 0.003024
201 0.002992
207 0.002992
218 0.002994
182 0.001986
71 0.001996
37 0.001995
39 0.002033
59 0.001995
80 0.001995
93 0.001996
98 0.001995
102 0.001995
101 0.002035
99 0.001995
108 0.000997
121 0.001028
145 0.001995
162 0.001051
175 0.001995
184 0.001995
193 0.001998
201 0.002032
208 0.002033
212 0.001995
156 0.001961
75 0.001996
36 0.001
52 0.001997
84 0.001995
94 0.002022
99 0.001995
103 0.001995
102 0.002
99 0.001994
103 0.000999
113 0.001
128 0.001
143 0.000952
166 0.000998
176 0.001003
187 0.000998
193 0.000957
199 0.000998
197 0.001963
134 0.001964
53 0.002006
41 0.001003
58 0.000998
86 0.000998
107 0.000999
125 0.000997
123 0.000999
111 0.000998
106 0.000997
112 0.000997
126 0.000997
143 0.000997
165 0.000998
177 0.000997
186 0.000997
192 0.0
199 0.0
209 0.0
165 0.0
82 0.0
33 0.0
39 0.0
63 0.0
85 0.0
96 0.000997
105 0.000967
104 0.000961
99 0.000993
96 0.000998
108 0.0
123 0.0
140 0.0
158 0.0
169 0.0
176 0.0
182 0.0
188 0.0
199 0.0
171 0.0
89 0.0
37 0.000998
34 0.000964
56 0.000946
77 0.0
82 0.002048
87 0.00203
90 0.0
89 0.0
90 0.0
97 0.00102
111 0.001034
133 0.0
148 0.0
163 0.000958
170 0.000998
178 0.0
185 0.001029
193 0.000999
144 0.0
72 0.000997
36 0.000999
38 0.002003
59 0.000998
87 0.0
95 0.0
103 0.000994
101 0.0
97 0.0
98 0.002026
106 0.002031
125 0.0
141 0.0
154 0.0
165 0.001033
172 0.001041
179 0.0
188 0.00103
184 0.0
121 0.0
62 0.001006
43 0.0
56 0.00199
83 0.001994
109 0.0
121 0.0
125 0.0
119 0.001971
110 0.001989
112 0.002028
125 0.002024
149 0.001002
164 0.000965
175 0.001016
183 0.002051
190 0.002021
197 0.000996
205 0.00203
206 0.002028
149 0.001995
71 0.002001
36 0.00203
54 0.002997
85 0.00199
96 0.001944
102 0.001002
106 0.003042
103 0.002992
99 0.000965
103 0.001972
114 0.000996
129 0.001996
147 0.001986
171 0.002992
182 0.001992
192 0.001995
199 0.002
206 0.002028
211 0.002056
170 0.003026
68 0.002031
36 0.001994
41 0.002026
63 0.002995
84 0.003026
96 0.003026
101 0.003028
101 0.001973
100 0.002056
101 0.00198
109 0.002984
122 0.002992
145 0.00193
160 0.00196
172 0.001962
183 0.00297
190 0.00303
201 0.003991
199 0.004046
139 0.004024
59 0.002028
45 0.001957
60 0.001993
87 0.003983
108 0.00303
123 0.001996
128 0.001995
122 0.002005
114 0.00399
117 0.002957
131 0.003992
148 0.004034
170 0.001986
182 0.003032
191 0.002004
199 0.003989
206 0.00402
218 0.002994
207 0.001982
127 0.003038
59 0.00399
41 0.001999
63 0.004988
87 0.004954
101 0.002992
107 0.003013
108 0.003006
104 0.005019
100 0.003994
106 0.002994
118 0.003024
135 0.002989
151 0.003994
173 0.003998
182 0.005036
189 0.004988
197 0.00402
204 0.002965
170 0.003991
87 0.004988
39 0.004987
35 0.003019
56 0.002997
77 0.002991
88 0.004989
96 0.003953
95 0.004988
91 0.004989
93 0.003985
102 0.003991
117 0.003952
132 0.004987
147 0.005025
162 0.003958
169 0.00398
175 0.003991
186 0.003028
182 0.002957
118 0.006024
57 0.005984
36 0.006016
55 0.004018
80 0.003994
96 0.003994
105 0.005968
110 0.005949
103 0.003951
98 0.003988
104 0.004945
118 0.004998
134 0.004942
148 0.005949
160 0.005984
170 0.004965
177 0.00502
186 0.005016
188 0.005984
135 0.005983
51 0.005027
33 0.005018
61 0.004989
83 0.005034
95 0.004981
103 0.00695
105 0.006981
99 0.004983
96 0.004983
101 0.004987
113 0.00599
128 0.006982
149 0.004954
161 0.005026
175 0.005963
181 0.005988
191 0.004988
192 0.007017
136 0.007017
48 0.004984
29 0.004985
40 0.005006
62 0.007021
77 0.006981
86 0.004987
91 0.004976
93 0.004986
92 0.004989
97 0.004995
111 0.007965
120 0.006978
141 0.004989
155 0.004963
165 0.005951
173 0.00701
180 0.006981
188 0.005955
186 0.005961
80 0.005947
41 0.005942
38 0.005985
56 0.006982
77 0.006982
90 0.005995
96 0.005994
101 0.005984
100 0.005986
98 0.007979
101 0.007979
113 0.006031
138 0.007979
151 0.006033
162 0.006016
169 0.00595
174 0.007964
179 0.00797
185 0.005986
159 0.00599
94 0.006943
54 0.007969
50 0.007968
78 0.005955
109 0.007975
122 0.00698
121 0.006978
116 0.00695
109 0.006981
111 0.007038
121 0.006983
137 0.00696
153 0.005967
165 0.007973
175 0.007979
185 0.006983
192 0.00798
200 0.006943
175 0.005984
80 0.006982
52 0.007979
46 0.00698
68 0.00698
94 0.006981
103 0.006981
110 0.006981
111 0.006981
105 0.006981
106 0.005973
119 0.006977
134 0.005981
149 0.006969
162 0.007017
174 0.006981
183 0.006997
190 0.006991
197 0.006982
205 0.006977
174 0.006978
60 0.006972
39 0.007014
56 0.006951
78 0.005982
90 0.005982
95 0.005967
101 0.007014
101 0.006965
100 0.006983
101 0.006969
110 0.006981
123 0.005983
150 0.005979
163 0.005947
173 0.005974
184 0.006043
189 0.005985
197 0.005983
200 0.005984
150 0.005955
66 0.005954
48 0.006982
60 0.006949
86 0.006991
114 0.006004
122 0.006025
124 0.006013
116 0.006
112 0.005967
116 0.006017
128 0.006016
145 0.006017
166 0.006018
178 0.005019
187 0.005982
195 0.005018
206 0.004986
213 0.004986
188 0.004989
84 0.00599
48 0.004972
49 0.006014
70 0.005969
94 0.004984
111 0.004987
118 0.005018
119 0.00502
115 0.004986
111 0.004996
119 0.005028
133 0.004986
155 0.00499
172 0.005024
183 0.005983
191 0.004971
199 0.00501
208 0.005018
216 0.005017
191 0.004586
107 0.00399
38 0.004012
46 0.00402
68 0.003986
93 0.003929
99 0.003987
106 0.00399
106 0.004026
104 0.004021
103 0.004991
110 0.004985
123 0.00502
140 0.005019
166 0.004992
178 0.005007
185 0.003988
192 0.003988
203 0.003992
210 0.00399
174 0.003989
93 0.003991
47 0.004987
46 0.003995
69 0.003991
92 0.003989
108 0.003988
114 0.00396
112 0.003993
107 0.002985
106 0.003989
115 0.004005
131 0.004023
148 0.004024
163 0.004025
180 0.004023
188 0.004026
195 0.003989
206 0.003987
195 0.002992
123 0.004029
65 0.00298
52 0.003023
74 0.002992
102 0.003023
124 0.002993
137 0.00399
139 0.003958
126 0.002991
114 0.003958
122 0.003031
138 0.002959
156 0.002987
171 0.003023
186 0.002996
195 0.002989
202 0.003017
211 0.002999
215 0.002989
135 0.002987
64 0.002992
42 0.002031
64 0.003031
91 0.001873
108 0.002007
117 0.002011
118 0.001955
110 0.00304
103 0.001953
105 0.001995
117 0.002993
138 0.002996
155 0.002992
177 0.001995
186 0.003042
193 0.00299
202 0.001993
207 0.002991
128 0.001999
56 0.002993
28 0.001995
33 0.001994
57 0.001995
77 0.001995
90 0.001996
98 0.001995
96 0.001995
92 0.000995
93 0.001994
104 0.000996
120 0.000998
142 0.002041
157 0.001994
168 0.001032
175 0.001996
181 0.002043
193 0.002053
156 0.000996
62 0.000997
33 0.001996
40 0.000995
63 0.001003
85 0.001035
100 0.001995
106 0.002042
105 0.001029
100 0.00198
97 0.000999
105 0.001995
124 0.000996
145 0.00101
157 0.000997
167 0.000999
174 0.000998
181 0.000996
188 0.000997
149 0.000997
79 0.000998
45 0.000997
48 0.000996
80 0.001983
110 0.000997
125 0.000998
125 0.000997
116 0.001042
108 0.0
108 0.000996
124 0.000998
140 0.00101
154 0.000998
166 0.000997
175 0.000998
184 0.000998
195 0.0
175 0.0
98 0.0
45 0.0
32 0.0
47 0.001025
77 0.0
89 0.0
96 0.001008
100 0.0
97 0.000997
94 0.001013
102 0.0
114 0.0
137 0.0
152 0.0
163 0.0
172 0.0
178 0.0
188 0.0
187 0.0
124 0.0
58 0.0
33 0.0
50 0.0
70 0.0
81 0.0
88 0.0
93 0.0
94 0.0
93 0.0
99 0.0
111 0.0
124 0.000984
139 0.000997
160 0.000962
167 0.0
170 0.000999
181 0.00099
179 0.001994
99 0.000997
49 0.0
38 0.0
53 0.001994
76 0.001994
93 0.0
101 0.0
105 0.0
100 0.000996
99 0.0
104 0.001952
116 0.001994
136 0.0
149 0.001015
159 0.0
166 0.001031
172 0.001029
181 0.0
182 0.000972
92 0.000966
53 0.001014
49 0.0
69 0.00198
93 0.001042
111 0.000967
119 0.000967
119 0.000998
111 0.001998
107 0.001995
114 0.0
128 0.0
154 0.0
167 0.000998
176 0.000995
181 0.000997
190 0.001994
197 0.001996
192 0.0
124 0.0
63 0.0
43 0.001994
53 0.001994
81 0.0
97 0.003023
105 0.001001
107 0.0
104 0.0
102 0.001029
106 0.000991
122 0.0
137 0.000992
151 0.00099
163 0.002996
173 0.002997
181 0.001993
192 0.003025
192 0.0
134 0.000998
69 0.0
40 0.002993
46 0.003028
74 0.002043
87 0.000998
94 0.000997
101 0.002959
104 0.002992
103 0.000998
105 0.003005
119 0.001995
134 0.0
150 0.0
163 0.002993
173 0.002993
181 0.0
188 0.001995
195 0.001035
199 0.00296
157 0.002985
72 0.001997
51 0.002014
76 0.002994
97 0.001985
108 0.001959
115 0.003949
119 0.003987
115 0.00197
112 0.001975
116 0.001999
127 0.002953
142 0.002992
162 0.002025
176 0.003043
184 0.004028
191 0.001962
198 0.001964
206 0.001949
185 0.00399
113 0.004025
59 0.002007
61 0.001997
83 0.001993
108 0.004023
130 0.003017
135 0.005022
130 0.004987
120 0.002024
122 0.002029
131 0.001979
147 0.00399
163 0.00404
182 0.001988
190 0.003001
198 0.001989
203 0.003994
217 0.002955
211 0.004989
140 0.004988
58 0.002991
46 0.002991
61 0.002991
84 0.004988
101 0.005968
111 0.002997
115 0.002996
113 0.002996
109 0.00403
114 0.003991
126 0.004988
142 0.005011
164 0.003025
177 0.003025
187 0.002978
194 0.006024
201 0.004989
210 0.00301
212 0.002999
153 0.003007
77 0.006021
40 0.003993
56 0.004981
80 0.005997
97 0.00399
103 0.003987
105 0.003988
104 0.00499
101 0.004989
105 0.003998
116 0.003984
131 0.003999
148 0.005028
173 0.004994
183 0.004037
192 0.005985
200 0.006019
208 0.003991
170 0.004018
93 0.003994
54 0.006949
53 0.006986
84 0.004992
107 0.004951
121 0.004008
130 0.004954
124 0.00497
116 0.00601
114 0.005985
127 0.00499
144 0.004006
161 0.002956
175 0.006981
185 0.005954
196 0.004022
204 0.003992
211 0.005025
120 0.005014
61 0.004964
43 0.006994
57 0.006982
91 0.00499
108 0.004987
119 0.004965
122 0.007018
118 0.006973
109 0.004988
111 0.005996
120 0.005987
147 0.005986
163 0.005984
175 0.006983
183 0.006982
195 0.004988
203 0.004988
202 0.004987
140 0.00798
65 0.006981
31 0.004986
42 0.004986
66 0.004986
89 0.005961
96 0.005982
99 0.00798
97 0.007969
95 0.005967
99 0.005941
110 0.005953
126 0.006981
143 0.007012
161 0.005002
171 0.006013
182 0.00693
190 0.006006
193 0.005987
147 0.005997
73 0.007979
35 0.007979
40 0.005984
63 0.005951
81 0.005955
91 0.007944
98 0.007978
98 0.005012
93 0.006985
96 0.006942
106 0.006948
121 0.005984
136 0.007975
152 0.007978
161 0.006019
170 0.006942
178 0.006946
187 0.007019
153 0.007024
83 0.006982
40 0.007017
64 0.007016
87 0.00701
98 0.006978
110 0.006969
114 0.007019
107 0.007011
104 0.006932
104 0.006934
117 0.007014
133 0.006975
148 0.006951
167 0.006994
178 0.006009
185 0.006013
193 0.005985
193 0.007027
133 0.007019
52 0.007016
38 0.007013
44 0.006975
73 0.007012
88 0.007015
98 0.006957
103 0.006982
101 0.005985
99 0.005992
104 0.006022
116 0.006016
132 0.005987
152 0.006015
163 0.006005
171 0.006033
178 0.006013
184 0.006982
192 0.006978
148 0.005996
74 0.00698
31 0.006019
39 0.006018
60 0.006013
76 0.006017
83 0.006018
92 0.005979
96 0.006014
95 0.006023
96 0.006016
102 0.006024
123 0.004983
138 0.005008
158 0.005018
169 0.005027
175 0.005002
182 0.006007
189 0.006026
198 0.005978
161 0.006016
89 0.006018
49 0.00602
48 0.006021
84 0.00502
99 0.004988
110 0.005031
114 0.005032
112 0.004987
108 0.004986
107 0.004987
119 0.004986
134 0.00498
150 0.005016
164 0.004951
173 0.006024
185 0.005033
192 0.004598
201 0.004967
159 0.00495
88 0.004956
53 0.004035
54 0.003959
83 0.003954
105 0.003996
117 0.004987
124 0.004041
123 0.004995
112 0.004979
113 0.004987
127 0.004991
143 0.005001
159 0.003968
171 0.003978
180 0.00395
190 0.004018
197 0.00399
205 0.004024
198 0.004027
81 0.003987
43 0.003989
41 0.005008
67 0.003946
85 0.003989
94 0.003989
102 0.004026
105 0.004047
104 0.00399
103 0.00496
109 0.003959
120 0.00402
147 0.002988
162 0.003995
174 0.002991
183 0.003945
192 0.003985
201 0.002992
206 0.003018
164 0.003017
87 0.002993
41 0.003989
47 0.003991
70 0.00399
96 0.002995
103 0.003984
107 0.002994
107 0.002966
105 0.003023
107 0.003025
117 0.002994
132 0.003988
149 0.002982
170 0.002992
182 0.003033
190 0.002993
202 0.002992
210 0.002993
201 0.002991
132 0.001995
62 0.001986
56 0.00203
75 0.002982
101 0.003035
119 0.002034
132 0.002032
133 0.003027
126 0.003028
118 0.001991
125 0.001984
140 0.001995
157 0.002029
176 0.002992
186 0.002982
195 0.002992
203 0.002993
211 0.002951
207 0.002985
138 0.002993
70 0.002992
49 0.002038
70 0.002042
96 0.001978
112 0.00203
122 0.002054
123 0.002015
116 0.001996
111 0.002039
113 0.002041
124 0.001005
147 0.00201
163 0.001993
183 0.001995
193 0.002002
202 0.000969
211 0.001021
211 0.001045
119 0.001029
55 0.001994
35 0.001995
45 0.002024
69 0.002027
92 0.001995
100 0.002027
106 0.002957
104 0.000999
103 0.002029
107 0.001025
119 0.001063
142 0.002025
160 0.000998
176 0.000999
191 0.000994
204 0.002047
219 0.000958
227 0.001998
118 0.001027
67 0.001033
59 0.001176
80 0.0
109 0.001024
134 0.000951
145 0.000997
152 0.001031
148 0.00103
141 0.001043
142 0.000989
156 0.000998
182 0.0
193 0.000981
199 0.0
201 0.0
204 0.0
212 0.0
188 0.0
109 0.0
56 0.001
44 0.0
68 0.000998
101 0.000977
121 0.000998
126 0.0
117 0.0
107 0.0
105 0.0
115 0.0
131 0.0
149 0.0
163 0.0
173 0.0
183 0.0
197 0.0
201 0.000951
119 0.0
53 0.0
28 0.0
38 0.0
61 0.00095
86 0.000936
95 0.000996
100 0.001002
99 0.0
94 0.0
96 0.0
106 0.000997
125 0.0
140 0.001994
153 0.001009
165 0.000998
171 0.000997
182 0.000996
187 0.001997
119 0.000993
52 0.000994
25 0.0
49 0.001001
72 0.000945
86 0.00202
94 0.002033
101 0.0
100 0.0
98 0.0
99 0.002046
107 0.002032
127 0.000965
143 0.000967
156 0.0
171 0.000968
178 0.000993
186 0.001029
195 0.001995
173 0.001994
80 0.0
48 0.000997
50 0.001994
73 0.001995
101 0.0
112 0.000997
118 0.0
111 0.001008
105 0.000965
108 0.001982
118 0.000977
139 0.000999
154 0.000967
162 0.000989
175 0.001995
183 0.001993
191 0.002037
201 0.000953
168 0.0
61 0.0
46 0.001008
59 0.000943
83 0.001988
101 0.002046
110 0.000965
117 0.0
114 0.000946
109 0.002048
108 0.002029
120 0.0
136 0.001994
162 0.0
173 0.0
181 0.00102
188 0.001994
195 0.00303
203 0.000997
163 0.001042
86 0.0
43 0.003036
39 0.003046
65 0.0
82 0.001043
93 0.0
99 0.000966
100 0.0
98 0.002028
99 0.002993
109 0.00095
123 0.0
140 0.000992
154 0.003029
165 0.003027
176 0.001014
184 0.002993
196 0.002
182 0.001989
112 0.000958
56 0.003046
39 0.002987
60 0.0
83 0.002998
95 0.002997
101 0.004006
107 0.003955
107 0.002961
105 0.004018
113 0.001995
126 0.002003
143 0.001982
158 0.002992
171 0.002994
183 0.00097
189 0.001997
195 0.002041
202 0.002878
209 0.003991
147 0.001995
69 0.003991
56 0.003991
82 0.001964
109 0.002027
124 0.001996
133 0.004022
134 0.003989
124 0.002946
118 0.002993
121 0.002939
134 0.003985
151 0.004017
178 0.004984
188 0.004032
198 0.00298
204 0.001994
209 0.002984
218 0.003992
199 0.00399
97 0.001997
58 0.002992
56 0.002
78 0.004988
104 0.003989
126 0.003991
131 0.00499
125 0.003022
118 0.002959
118 0.002996
126 0.005045
141 0.005003
163 0.00396
178 0.002955
189 0.002884
197 0.004022
204 0.004988
217 0.004988
221 0.004934
133 0.003001
64 0.002993
42 0.003005
52 0.005046
76 0.005028
100 0.002994
106 0.003013
110 0.002989
109 0.005984
105 0.005986
105 0.005994
114 0.005985
133 0.003958
149 0.002992
163 0.003989
175 0.004987
184 0.004988
197 0.002992
207 0.002993
223 0.00399
215 0.005984
135 0.005984
64 0.006024
72 0.005985
102 0.003974
116 0.003835
120 0.003978
122 0.003957
118 0.005985
111 0.006017
107 0.003943
114 0.003979
129 0.003018
150 0.006032
180 0.004007
192 0.006982
200 0.007018
206 0.004976
211 0.003991
216 0.004989
181 0.005984
100 0.00599
53 0.003989
62 0.004987
91 0.00399
122 0.005985
144 0.00399
139 0.006982
123 0.006982
104 0.004988
103 0.004987
113 0.004991
129 0.007016
146 0.006017
165 0.004943
181 0.004995
190 0.00495
201 0.004933
196 0.004023
124 0.007015
60 0.007012
42 0.005944
62 0.005988
91 0.003986
114 0.006982
128 0.007019
132 0.005985
124 0.004987
114 0.00598
117 0.005024
131 0.005952
148 0.006982
163 0.006982
176 0.004988
184 0.005986
192 0.004988
200 0.006982
163 0.007979
61 0.005985
28 0.005985
30 0.005985
68 0.005984
84 0.005983
92 0.006981
97 0.006981
93 0.005977
89 0.005991
90 0.005992
98 0.006981
114 0.00798
136 0.005951
149 0.005951
161 0.00595
177 0.006
185 0.006649
153 0.00596
57 0.006977
26 0.006969
28 0.005017
48 0.006969
67 0.006942
76 0.007981
86 0.007976
91 0.005984
91 0.005992
92 0.005979
106 0.006981
121 0.006981
136 0.006974
149 0.006981
159 0.00698
166 0.005984
176 0.006981
178 0.006976
121 0.005983
60 0.006955
35 0.00597
56 0.006992
75 0.00698
86 0.006983
96 0.006975
99 0.006982
98 0.006982
97 0.00698
100 0.006949
113 0.006977
127 0.007009
141 0.006952
152 0.006953
165 0.006976
176 0.006012
183 0.00598
151 0.005978
88 0.005981
51 0.006983
58 0.005983
80 0.00698
101 0.00698
113 0.006981
119 0.006974
117 0.00698
106 0.006981
108 0.006981
121 0.005984
136 0.005984
150 0.006981
163 0.006981
170 0.006016
178 0.006022
186 0.006288
174 0.005966
93 0.005984
58 0.006015
69 0.005974
92 0.006014
109 0.00601
118 0.006016
123 0.004998
120 0.004986
111 0.004983
112 0.004987
121 0.004987
134 0.004991
148 0.005008
166 0.005022
174 0.004987
182 0.005976
191 0.004986
172 0.005984
105 0.005024
57 0.005985
47 0.005983
65 0.005984
83 0.005985
92 0.003984
98 0.005079
103 0.005029
102 0.006022
103 0.00498
110 0.005017
122 0.005018
137 0.005023
150 0.004989
164 0.004986
172 0.00495
179 0.004954
188 0.003989
182 0.006022
81 0.004983
49 0.004987
55 0.005021
75 0.005036
91 0.005023
96 0.004955
102 0.004953
106 0.004967
105 0.003991
105 0.004993
111 0.003937
123 0.003957
148 0.004023
160 0.004024
173 0.003958
179 0.005021
185 0.005001
192 0.004998
197 0.004942
131 0.004022
74 0.004986
55 0.003972
65 0.00399
88 0.003992
113 0.004022
120 0.004021
120 0.00399
115 0.003964
112 0.004024
115 0.00298
125 0.003022
140 0.002934
158 0.002949
170 0.003989
178 0.003032
185 0.003951
199 0.00399
191 0.003957
129 0.004003
67 0.003989
63 0.003991
82 0.00299
108 0.004009
127 0.003991
142 0.003993
140 0.002996
130 0.002992
122 0.00299
130 0.002999
146 0.003005
162 0.002994
180 0.002991
190 0.003026
197 0.002995
205 0.003215
213 0.003039
188 0.003023
107 0.003022
58 0.003022
48 0.003025
82 0.003022
103 0.003023
114 0.003035
121 0.002038
118 0.002029
112 0.002048
110 0.002999
116 0.003033
134 0.002991
151 0.003033
166 0.002993
179 0.00303
194 0.002991
202 0.002985
211 0.003024
177 0.00196
95 0.00203
49 0.002039
42 0.002036
61 0.002036
93 0.002034
105 0.002032
112 0.00298
116 0.002992
110 0.002992
109 0.003032
115 0.002023
134 0.003
151 0.001983
167 0.00203
181 0.002028
192 0.002065
203 0.002025
212 0.001994
218 0.002004
115 0.001995
58 0.001995
44 0.001962
60 0.00202
88 0.002028
115 0.001033
125 0.000954
128 0.001057
123 0.000997
115 0.001994
114 0.002033
126 0.00104
154 0.001995
170 0.001995
182 0.001995
190 0.000999
199 0.001992
210 0.001965
214 0.002029
162 0.002036
86 0.000996
55 0.001028
68 0.002044
98 0.002028
142 0.001004
155 0.000998
152 0.00203
136 0.002047
123 0.0
125 0.001994
140 0.0
159 0.001998
176 0.001034
188 0.001035
202 0.001
210 0.0
223 0.002028
172 0.002042
83 0.001995
41 0.000999
39 0.000996
72 0.001004
99 0.000996
116 0.0
124 0.000968
123 0.000998
109 0.0
104 0.0
115 0.000997
131 0.000997
150 0.0
164 0.0
176 0.0
190 0.0
199 0.0
206 0.0
160 0.0
72 0.0
21 0.0
28 0.0
63 0.000998
88 0.0
96 0.0
100 0.0
96 0.0
92 0.0
92 0.0
103 0.001047
118 0.001062
136 0.000998
151 0.000998
167 0.001996
180 0.000997
196 0.000997
175 0.000998
70 0.000949
39 0.0
29 0.0
55 0.00203
82 0.001988
101 0.0
110 0.000989
110 0.001
105 0.000956
102 0.0
111 0.002026
125 0.002018
148 0.001946
162 0.000955
173 0.000947
183 0.002001
193 0.002029
193 0.000947
129 0.000962
63 0.000953
39 0.002008
68 0.001009
95 0.002024
114 0.002047
125 0.000996
119 0.0
111 0.0
102 0.001995
106 0.001995
124 0.001015
141 0.0
155 0.000993
172 0.0
180 0.0
189 0.002048
171 0.002027
72 0.000997
33 0.000964
32 0.000959
54 0.002028
79 0.00198
97 0.0
104 0.0
103 0.000965
92 0.0
92 0.0
102 0.002023
118 0.002044
134 0.002032
149 0.000964
159 0.000978
166 0.00096
174 0.002043
172 0.003046
83 0.0
31 0.000958
26 0.0
48 0.000967
64 0.000963
71 0.003024
77 0.002031
82 0.001001
81 0.001005
81 0.0
88 0.003051
100 0.002995
119 0.0
134 0.0
150 0.002004
158 0.002005
168 0.001996
175 0.002991
141 0.003047
52 0.000957
25 0.000949
30 0.000965
52 0.003042
69 0.002992
77 0.00098
84 0.002016
88 0.002002
89 0.002007
91 0.002032
101 0.002992
115 0.003026
135 0.001995
148 0.002992
157 0.000951
164 0.002999
170 0.003031
181 0.0
185 0.001993
88 0.002998
44 0.001994
39 0.003003
58 0.004018
80 0.003989
92 0.002024
99 0.002029
104 0.002025
103 0.003954
102 0.004039
107 0.001986
118 0.001995
144 0.001999
157 0.001995
166 0.001992
174 0.001998
180 0.004025
184 0.004023
194 0.001994
193 0.002967
139 0.001983
76 0.004036
53 0.005027
72 0.001995
106 0.005023
121 0.002036
127 0.002946
124 0.002011
115 0.005028
110 0.004995
118 0.001993
132 0.001995
148 0.001998
162 0.003955
173 0.004987
183 0.002992
191 0.004988
201 0.002963
185 0.002984
114 0.002998
63 0.004998
51 0.005018
77 0.002017
101 0.003027
115 0.00302
122 0.005024
123 0.005019
114 0.003042
110 0.004024
122 0.002964
138 0.001999
154 0.004047
167 0.004955
177 0.006093
186 0.003029
192 0.003041
201 0.003028
206 0.005021
158 0.00594
49 0.00498
37 0.005019
61 0.003986
82 0.002992
93 0.003002
98 0.005997
104 0.005989
103 0.004001
102 0.00399
105 0.004987
116 0.005985
131 0.006018
157 0.005985
169 0.006019
181 0.002991
188 0.003046
196 0.003048
204 0.007013
192 0.007021
91 0.003989
46 0.004029
41 0.003992
60 0.003958
83 0.005986
101 0.004024
107 0.005984
110 0.006017
107 0.003992
108 0.003993
115 0.003992
129 0.006018
144 0.006983
166 0.004986
178 0.004987
187 0.005003
196 0.007972
206 0.004023
216 0.007018
181 0.006983
83 0.003988
57 0.004972
65 0.00399
92 0.005958
116 0.006984
131 0.004958
137 0.004937
133 0.004971
125 0.006985
124 0.004983
136 0.007012
152 0.006982
174 0.004993
187 0.004989
196 0.00395
203 0.007981
211 0.007031
222 0.006003
207 0.004993
129 0.00494
70 0.006974
61 0.00498
85 0.00698
109 0.006977
124 0.005018
130 0.004989
129 0.004978
123 0.006983
120 0.007977
127 0.005987
141 0.005986
158 0.005986
178 0.007954
192 0.005984
200 0.007979
210 0.007953
218 0.004975
215 0.004956
144 0.005987
59 0.007094
45 0.008018
58 0.005986
83 0.006969
100 0.005988
108 0.007978
113 0.005004
110 0.005941
109 0.007975
113 0.00798
124 0.004984
139 0.005985
156 0.005956
175 0.007023
181 0.00797
193 0.005947
204 0.00698
212 0.006981
159 0.005985
83 0.005991
49 0.007978
49 0.007979
88 0.00698
103 0.006981
110 0.00698
115 0.006969
114 0.00705
109 0.006948
109 0.006943
126 0.00698
142 0.00698
153 0.005991
171 0.007977
181 0.008003
191 0.006969
195 0.006948
203 0.006967
177 0.007019
101 0.007013
51 0.006975
56 0.006012
90 0.006974
119 0.006989
129 0.006978
132 0.006984
123 0.007013
113 0.005936
111 0.00698
122 0.005983
138 0.005984
154 0.005982
171 0.005984
180 0.006981
193 0.00698
200 0.006981
192 0.006981
96 0.006981
48 0.006983
42 0.006002
56 0.006976
89 0.006017
102 0.006032
109 0.006033
109 0.005983
103 0.005982
100 0.005989
108 0.005988
123 0.005977
140 0.006982
154 0.007028
163 0.006981
175 0.005982
183 0.006019
190 0.00597
159 0.006013
81 0.005981
27 0.006005
37 0.005985
67 0.005985
81 0.005015
86 0.005983
90 0.005984
91 0.005983
88 0.005984
90 0.004986
100 0.004986
114 0.004986
130 0.004988
149 0.005982
162 0.00503
172 0.005989
180 0.005989
182 0.005984
130 0.005984
62 0.006012
30 0.005018
43 0.00502
67 0.005018
85 0.005005
91 0.004987
98 0.004973
95 0.004988
92 0.004991
96 0.004987
107 0.004986
122 0.005023
138 0.004986
153 0.004012
162 0.003989
170 0.004986
180 0.003989
171 0.005001
86 0.003956
40 0.004987
54 0.00399
79 0.004988
99 0.004987
110 0.004986
116 0.004981
111 0.003989
106 0.004008
105 0.003983
114 0.003989
128 0.004021
150 0.003989
165 0.00403
175 0.003991
182 0.004022
190 0.003987
197 0.00399
160 0.003993
64 0.004035
34 0.004956
40 0.003981
62 0.004029
80 0.003993
88 0.003993
95 0.00399
96 0.003958
94 0.004022
97 0.004023
105 0.004046
119 0.003991
135 0.002991
152 0.002991
161 0.003024
168 0.002992
174 0.002991
188 0.002993
180 0.001996
113 0.002993
41 0.00399
33 0.00399
50 0.004006
72 0.004006
83 0.003022
89 0.003018
95 0.003027
95 0.003022
95 0.002951
102 0.003022
114 0.002992
128 0.003006
147 0.002987
158 0.003016
165 0.003025
172 0.003028
178 0.001995
188 0.002054
180 0.003028
117 0.002003
60 0.002974
51 0.003027
74 0.002999
95 0.002992
105 0.002992
111 0.002993
111 0.001995
107 0.001994
105 0.001995
113 0.001995
127 0.001994
142 0.001988
156 0.001995
172 0.002007
179 0.002937
184 0.002993
193 0.001993
196 0.001995
147 0.001995
82 0.001995
54 0.001001
69 0.000995
96 0.001006
116 0.001038
125 0.001964
129 0.000998
121 0.002998
116 0.002089
118 0.001995
136 0.001992
152 0.002027
167 0.001962
179 0.001946
188 0.000965
197 0.000996
202 0.001995
210 0.002993
204 0.002005
128 0.000997
64 0.000997
44 0.000997
64 0.001995
88 0.000997
101 0.000998
106 0.001995
110 0.000999
109 0.000997
107 0.00101
109 0.001971
127 0.002029
142 0.002027
158 0.002002
171 0.001998
184 0.002004
191 0.002002
197 0.002031
204 0.0
213 0.001029
164 0.000998
84 0.000972
45 0.0
57 0.000997
82 0.00203
97 0.002016
102 0.000998
109 0.000997
108 0.000997
107 0.0
108 0.0
116 0.0
137 0.0
155 0.0
171 0.0
189 0.0
196 0.0
201 0.001004
209 0.000999
214 0.000985
163 0.0
84 0.000997
48 0.000968
51 0.0
85 0.0
106 0.0
117 0.0
121 0.002027
116 0.0
111 0.0
111 0.0
120 0.0
141 0.0
159 0.0
173 0.001031
183 0.0
190 0.000997
199 0.0
206 0.000945
153 0.0
81 0.002026
50 0.0
66 0.000997
95 0.0
119 0.002992
133 0.002993
138 0.000998
128 0.001009
117 0.001001
114 0.00399
134 0.000997
152 0.001998
169 0.001994
183 0.0
191 0.000979
197 0.0
204 0.002029
209 0.002039
132 0.0
59 0.001026
31 0.000974
40 0.002026
81 0.000965
94 0.002997
99 0.003004
102 0.0
99 0.0
95 0.0
97 0.00203
106 0.00204
128 0.0
144 0.0
154 0.001995
167 0.001995
179 0.000997
188 0.001986
185 0.001995
94 0.000998
37 0.0
22 0.0
37 0.001995
61 0.001996
78 0.000967
82 0.0
88 0.001001
90 0.002005
90 0.0
94 0.002023
106 0.001997
121 0.001994
141 0.0
152 0.0
161 0.0
168 0.001997
177 0.00203
183 0.000998
134 0.000991
64 0.001017
32 0.0
51 0.0
76 0.002993
89 0.002992
96 0.0
100 0.0
98 0.0
95 0.001995
96 0.001994
110 0.0
125 0.0
141 0.0
158 0.000998
166 0.000997
174 0.002993
183 0.002961
155 0.0
85 0.002019
45 0.001977
42 0.002998
63 0.002999
96 0.000984
107 0.001006
114 0.0
110 0.0
104 0.003033
104 0.003025
114 0.002993
134 0.003036
150 0.002994
161 0.001995
169 0.004025
175 0.003044
184 0.000994
193 0.002032
184 0.000996
67 0.002996
33 0.001949
36 0.003959
57 0.003957
81 0.001998
85 0.002024
90 0.001997
93 0.00396
92 0.002989
92 0.001996
99 0.001994
121 0.001994
137 0.002
150 0.002004
159 0.004006
165 0.004023
174 0.002
182 0.001989
188 0.003001
154 0.002996
80 0.003991
37 0.00399
35 0.001996
64 0.00399
78 0.001999
81 0.002993
87 0.002007
91 0.004024
92 0.004025
94 0.002038
103 0.001954
117 0.001997
134 0.00403
148 0.004
163 0.001995
172 0.003965
180 0.002996
184 0.003005
191 0.003003
199 0.005021
178 0.004987
80 0.001995
43 0.002029
43 0.002007
64 0.00501
85 0.005033
91 0.002989
97 0.004021
100 0.00299
99 0.002994
101 0.002994
108 0.005029
120 0.005027
141 0.002954
154 0.003002
164 0.002996
170 0.004987
176 0.006025
184 0.003944
195 0.005021
181 0.002985
112 0.002958
61 0.002992
50 0.006036
68 0.005993
100 0.002951
113 0.00296
120 0.002959
122 0.004987
118 0.005997
111 0.004008
119 0.006038
137 0.002994
155 0.00297
170 0.002992
180 0.005984
188 0.006016
196 0.003994
202 0.00303
207 0.002999
215 0.003995
207 0.005985
134 0.006023
43 0.006019
42 0.005983
71 0.003984
90 0.003996
95 0.00394
100 0.006018
104 0.006026
101 0.004006
101 0.003995
107 0.003993
118 0.006991
134 0.006983
161 0.007002
174 0.006982
185 0.003984
192 0.004026
198 0.00399
205 0.007012
211 0.007975
166 0.003986
84 0.00399
42 0.004995
39 0.007024
59 0.006982
92 0.007016
98 0.007013
105 0.004988
106 0.00499
104 0.004987
105 0.007023
111 0.006984
129 0.004056
147 0.004039
164 0.004023
178 0.007986
192 0.003996
198 0.006982
206 0.00797
214 0.004986
215 0.00499
155 0.004955
79 0.006981
50 0.00698
66 0.004988
95 0.004992
117 0.004974
130 0.007976
132 0.005996
121 0.007963
115 0.007977
118 0.005989
132 0.005984
150 0.005985
173 0.007983
188 0.007996
197 0.00499
204 0.005955
210 0.005952
218 0.006043
190 0.00597
105 0.005986
52 0.007967
48 0.007977
74 0.005987
102 0.005998
120 0.005983
131 0.007982
128 0.007949
119 0.004975
113 0.005028
115 0.005982
139 0.005992
156 0.005984
177 0.006981
188 0.006983
198 0.005984
205 0.005982
213 0.005991
222 0.007015
175 0.007014
82 0.005982
33 0.006951
31 0.006979
65 0.006952
85 0.006977
95 0.007014
99 0.006981
98 0.006019
95 0.006978
94 0.005984
103 0.006986
118 0.006984
142 0.005983
158 0.00599
167 0.006955
182 0.006979
194 0.006984
201 0.006986
171 0.006977
64 0.006982
33 0.006978
26 0.005983
49 0.007014
74 0.007013
89 0.005977
95 0.005982
97 0.00602
91 0.005982
92 0.005951
101 0.00597
115 0.006014
138 0.005978
152 0.005018
163 0.00603
172 0.007011
180 0.006014
191 0.006017
169 0.006014
93 0.006014
32 0.005984
43 0.005986
70 0.005984
93 0.005021
105 0.005028
111 0.00598
105 0.005983
97 0.005022
93 0.005016
101 0.005018
122 0.005028
138 0.004992
158 0.006024
166 0.005981
174 0.00597
182 0.006016
171 0.005984
78 0.005984
34 0.004989
29 0.005022
49 0.005019
73 0.005001
90 0.004971
97 0.005988
95 0.004985
90 0.004989
89 0.004987
98 0.005022
113 0.005025
134 0.005953
146 0.005025
155 0.005027
161 0.00502
170 0.004027
175 0.00503
99 0.004888
28 0.004993
20 0.004979
36 0.004988
57 0.003989
66 0.005017
73 0.004985
78 0.004988
80 0.004986
80 0.005018
83 0.005024
95 0.005019
115 0.004023
133 0.003938
143 0.003957
150 0.00402
157 0.004023
164 0.00399
167 0.003991
113 0.004023
50 0.004023
24 0.00499
30 0.00499
57 0.004949
69 0.003984
75 0.005024
83 0.003991
87 0.003997
88 0.002976
91 0.003972
99 0.003994
115 0.004022
129 0.003989
142 0.002992
152 0.003024
159 0.002992
171 0.00399
179 0.00399
147 0.00398
83 0.003991
45 0.003992
45 0.003991
66 0.003973
90 0.00399
96 0.00402
101 0.004025
104 0.003027
101 0.002992
101 0.003026
110 0.002992
130 0.002992
145 0.00305
156 0.002993
164 0.003023
170 0.004012
180 0.00406
188 0.003004
171 0.003025
106 0.001994
58 0.003989
56 0.001994
79 0.003966
97 0.003039
102 0.002993
108 0.003008
108 0.002992
105 0.002992
107 0.002988
116 0.002964
130 0.003028
145 0.002992
159 0.002979
173 0.00304
179 0.003023
186 0.002992
194 0.002034
199 0.001981
162 0.001995
89 0.002045
40 0.001996
44 0.002
63 0.001997
76 0.001994
79 0.000952
89 0.001997
94 0.002993
96 0.001995
98 0.002992
105 0.002026
117 0.001996
133 0.001996
151 0.002141
161 0.002035
170 0.002025
176 0.002027
183 0.002041
197 0.002026
194 0.001996
138 0.001994
61 0.000998
47 0.002008
60 0.002046
80 0.001996
90 0.001988
94 0.002025
102 0.002027
105 0.000999
106 0.000998
110 0.000961
121 0.000998
136 0.002024
154 0.002042
166 0.002001
174 0.002027
181 0.001995
187 0.00203
198 0.000998
203 0.001044
168 0.000977
76 0.001003
66 0.000988
82 0.000997
107 0.000997
126 0.000992
134 0.00203
137 0.002019
131 0.002031
124 0.0
129 0.002029
141 0.001025
157 0.000997
180 0.000999
192 0.0
203 0.0
213 0.000997
161 0.001007
243 0.000992
250 0.0
199 0.001006
118 0.000997
77 0.0
86 0.000997
109 0.0
132 0.0
136 0.0
139 0.0
137 0.0
135 0.0
140 0.0
151 0.0
167 0.0
185 0.0
204 0.0
217 0.001004
229 0.0
250 0.0
255 0.000993
255 0.001
255 0.0
204 0.0
110 0.0
80 0.002035
85 0.0
109 0.0
115 0.0
112 0.002028
114 0.002028
115 0.002029
112 0.002026
116 0.001008
127 0.000997
145 0.0
163 0.003033
180 0.003006
194 0.000998
200 0.0
205 0.000998
210 0.001994
217 0.001984
143 0.000999
77 0.00201
56 0.0
74 0.0
101 0.0
121 0.001995
131 0.002
139 0.0
135 0.0
124 0.001036
114 0.002028
114 0.002027
135 0.00203
151 0.003041
171 0.0
179 0.0
187 0.0
194 0.003024
203 0.00201
201 0.0
130 0.0
60 0.0
35 0.001996
43 0.002992
85 0.001994
102 0.003
112 0.0
116 0.0
114 0.0
112 0.002991
115 0.002993
132 0.0
151 0.0
170 0.000998
186 0.003022
200 0.003034
216 0.00304
225 0.002998
238 0.0
176 0.0
131 0.0
95 0.000964
85 0.002041
91 0.001997
108 0.000963
116 0.0
120 0.000951
125 0.000996
124 0.000964
121 0.003036
122 0.003041
130 0.000997
139 0.0
149 0.0
158 0.002993
165 0.001995
171 0.0
175 0.0
179 0.0
139 0.000998
100 0.000998
85 0.002993
89 0.002994
107 0.0
119 0.0
125 0.0
130 0.003029
129 0.003041
124 0.000998
123 0.002016
126 0.001979
141 0.0
150 0.0
158 0.002992
166 0.002992
173 0.001992
178 0.003014
182 0.001991
158 0.002994
110 0.002988
85 0.002009
89 0.002961
103 0.002996
123 0.002028
129 0.001995
131 0.00399
128 0.002993
121 0.001989
122 0.001995
127 0.0
137 0.00399
146 0.00399
156 0.001995
163 0.002991
168 0.002589
177 0.001976
158 0.002012
111 0.00402
87 0.003997
88 0.001995
102 0.002008
117 0.002004
125 0.003994
132 0.003991
129 0.003009
121 0.002983
116 0.003002
125 0.002981
137 0.003002
149 0.002005
159 0.005023
167 0.005055
177 0.002953
183 0.002986
179 0.002981
129 0.003953
84 0.00399
72 0.002994
87 0.001995
119 0.001996
131 0.001995
136 0.001995
130 0.004987
119 0.004986
115 0.001995
121 0.002993
131 0.002986
143 0.005024
152 0.004994
163 0.002
171 0.001997
173 0.003011
124 0.002985
80 0.002985
67 0.004985
76 0.005026
102 0.002987
116 0.002992
126 0.002992
128 0.004946
121 0.004987
112 0.002
113 0.001977
129 0.002991
141 0.002041
150 0.001972
158 0.00502
165 0.005984
172 0.002993
150 0.003024
94 0.002994
63 0.004987
58 0.004987
76 0.001995
90 0.002991
99 0.002993
103 0.003989
103 0.00297
101 0.005984
102 0.005952
109 0.00399
118 0.003993
129 0.003981
139 0.005987
147 0.006017
155 0.002959
163 0.006036
123 0.00396
75 0.002993
56 0.003989
59 0.003956
73 0.005987
86 0.006018
92 0.003969
97 0.004992
100 0.003989
99 0.006008
99 0.005966
108 0.005984
118 0.005984
132 0.003005
140 0.002992
147 0.002992
152 0.005984
157 0.006981
165 0.00399
145 0.00399
94 0.003989
66 0.006983
64 0.007014
92 0.007967
100 0.007949
104 0.004015
107 0.003985
106 0.003986
103 0.007973
104 0.00698
112 0.004007
122 0.004986
132 0.004955
142 0.007014
148 0.007021
158 0.007028
164 0.007019
168 0.003999
132 0.00499
87 0.004971
70 0.006997
75 0.006978
97 0.004955
108 0.004988
114 0.004987
118 0.007978
116 0.006981
112 0.007978
114 0.006981
125 0.004986
136 0.004988
146 0.003989
153 0.006981
159 0.006981
165 0.003975
170 0.005992
175 0.005006
170 0.007985
122 0.007974
68 0.006979
69 0.007975
82 0.005056
94 0.004976
98 0.004985
101 0.004984
105 0.007975
105 0.007962
105 0.005983
107 0.005988
115 0.005981
125 0.007976
143 0.006954
151 0.007935
156 0.007968
162 0.005996
166 0.005984
170 0.004973
176 0.007978
142 0.006982
92 0.005984
69 0.005984
69 0.004987
87 0.006982
97 0.004971
99 0.007981
104 0.008005
107 0.005981
107 0.005028
108 0.006011
117 0.007964
126 0.006969
137 0.005939
146 0.006016
156 0.006953
161 0.006982
166 0.005983
171 0.00698
177 0.006988
169 0.005988
119 0.005973
92 0.005995
75 0.006984
86 0.005964
108 0.005952
115 0.005984
119 0.005984
121 0.005983
118 0.005984
117 0.006988
121 0.006981
129 0.006981
141 0.005984
155 0.005977
163 0.005983
169 0.006018
176 0.005982
179 0.005978
182 0.005982
190 0.005974
168 0.005993
112 0.005979
80 0.006018
77 0.005991
86 0.005985
105 0.005993
109 0.005031
111 0.006023
114 0.006021
113 0.00603
113 0.005984
120 0.005021
130 0.005021
141 0.005991
150 0.004987
158 0.00499
166 0.005986
171 0.005984
175 0.004986
178 0.004987
182 0.004987
188 0.004987
171 0.004987
86 0.003989
70 0.004988
76 0.005052
90 0.004968
102 0.005965
104 0.006015
107 0.005982
110 0.004978
110 0.005091
110 0.004987
116 0.004985
125 0.004993
144 0.00498
153 0.004985
160 0.004983
166 0.004987
171 0.003989
176 0.003988
180 0.004983
186 0.004988
189 0.003997
157 0.004987
89 0.003993
73 0.00399
90 0.004986
106 0.003991
114 0.004987
116 0.004986
119 0.004987
116 0.004986
113 0.004986
115 0.003989
122 0.00399
133 0.003988
148 0.003989
157 0.00399
168 0.003989
173 0.00399
176 0.002992
181 0.00399
183 0.004976
132 0.003988
86 0.004008
70 0.003996
76 0.003989
93 0.003993
108 0.004025
115 0.00399
118 0.004027
115 0.00399
112 0.002996
112 0.002993
117 0.002993
127 0.002992
142 0.003032
150 0.00299
156 0.002959
160 0.002992
165 0.003035
168 0.004
175 0.004026
152 0.003027
95 0.00302
63 0.004022
56 0.003027
66 0.003026
86 0.003024
92 0.003024
95 0.003031
98 0.003026
98 0.002993
97 0.001962
101 0.002961
113 0.002027
125 0.002003
136 0.001948
146 0.002026
154 0.003024
161 0.003024
165 0.002996
170 0.003026
175 0.002992
172 0.002993
89 0.002981
62 0.002024
63 0.002954
79 0.00199
93 0.003029
98 0.002008
101 0.001995
103 0.001996
103 0.003035
103 0.001996
105 0.001995
112 0.002034
131 0.002958
142 0.002993
154 0.002136
160 0.001953
165 0.002027
170 0.001993
174 0.002045
179 0.001996
145 0.001957
94 0.001963
72 0.001997
75 0.000999
105 0.001996
119 0.002025
125 0.002029
127 0.002014
122 0.002028
116 0.001044
115 0.002028
121 0.002029
136 0.000946
148 0.001048
158 0.001031
166 0.00103
174 0.001949
179 0.000996
185 0.001994
163 0.001999
104 0.001995
71 0.002027
66 0.002036
79 0.002042
103 0.003039
113 0.001024
116 0.000998
118 0.001996
112 0.001006
110 0.000965
114 0.001029
128 0.0
139 0.002027
150 0.0
159 0.002047
166 0.000997
172 0.000998
177 0.000985
183 0.0
174 0.000997
85 0.0
62 0.000963
64 0.0
84 0.0
96 0.000998
101 0.000998
104 0.000997
105 0.000997
104 0.0
103 0.0
107 0.0
115 0.0
134 0.001015
145 0.000996
153 0.00102
161 0.0
166 0.0
171 0.0
176 0.0
167 0.0
98 0.0
67 0.0
63 0.0
75 0.001043
99 0.0
104 0.0
107 0.0
106 0.0
103 0.0
103 0.001002
109 0.000964
115 0.0
126 0.0
140 0.003035
148 0.003041
156 0.0
162 0.002972
167 0.000997
139 0.000961
92 0.001006
71 0.001983
72 0.002028
94 0.001
111 0.0
120 0.0
125 0.003025
123 0.003036
112 0.003026
112 0.00299
122 0.0
134 0.0
145 0.000951
153 0.003026
159 0.003024
165 0.000998
170 0.0
174 0.0
147 0.003047
94 0.003033
62 0.002994
71 0.003957
93 0.000965
102 0.001
105 0.000984
109 0.002977
106 0.003023
103 0.0
104 0.000948
111 0.000954
121 0.001995
132 0.002029
147 0.002997
152 0.002994
159 0.000993
165 0.001959
166 0.0
130 0.003028
83 0.003039
59 0.000961
66 0.000993
81 0.000998
92 0.003029
96 0.003038
102 0.002997
103 0.004018
102 0.004024
104 0.000974
111 0.0
121 0.0
132 0.002029
142 0.002031
150 0.000995
155 0.000956
159 0.0
164 0.002034
143 0.0
94 0.003022
69 0.004034
70 0.0
86 0.000963
98 0.0
103 0.003019
106 0.002992
108 0.0
107 0.000956
106 0.000965
109 0.002986
123 0.001995
133 0.002032
143 0.002994
151 0.0
155 0.0
160 0.0
165 0.003024
155 0.003037
100 0.002033
77 0.0
78 0.000937
93 0.002937
116 0.0
123 0.005032
126 0.005021
121 0.002996
117 0.001022
117 0.0
124 0.002993
134 0.002992
148 0.0
156 0.000998
162 0.002991
166 0.003023
174 0.003002
179 0.003989
158 0.003976
94 0.0
73 0.002993
75 0.002
89 0.004025
103 0.00399
109 0.003003
112 0.002994
114 0.002985
112 0.00401
113 0.00204
118 0.004021
127 0.004031
141 0.002992
149 0.001991
156 0.002987
162 0.001993
166 0.004033
171 0.004008
177 0.002959
152 0.003008
102 0.002991
71 0.002017
80 0.003981
95 0.004977
103 0.005022
107 0.003028
111 0.002993
112 0.002003
112 0.005021
112 0.003992
119 0.003
128 0.002992
145 0.003007
153 0.002997
159 0.002961
163 0.004988
167 0.004988
173 0.002995
176 0.002988
147 0.002994
101 0.005018
80 0.005022
86 0.002998
102 0.00301
119 0.002989
122 0.001993
124 0.002995
122 0.006024
118 0.00602
120 0.002992
128 0.002995
139 0.003004
149 0.004986
157 0.004977
166 0.003007
170 0.003016
177 0.002978
180 0.003991
155 0.003998
106 0.005984
81 0.00502
84 0.00399
100 0.001994
114 0.001995
120 0.004994
125 0.00502
125 0.004002
121 0.002992
121 0.002986
127 0.002989
138 0.003957
149 0.005985
158 0.006043
167 0.00298
172 0.002994
175 0.003944
180 0.005985
185 0.005981
155 0.003958
102 0.003999
73 0.005985
82 0.004019
97 0.00499
107 0.004019
110 0.006011
114 0.006034
115 0.003023
115 0.003002
115 0.002999
119 0.006981
128 0.007011
142 0.003991
155 0.006988
164 0.005002
169 0.003995
173 0.003992
178 0.007989
182 0.007977
152 0.003038
101 0.003988
76 0.00399
75 0.006981
89 0.007014
108 0.003986
114 0.006976
119 0.003941
119 0.005018
117 0.004991
118 0.007036
125 0.007981
135 0.004016
147 0.004023
156 0.002974
164 0.006983
170 0.007031
175 0.00399
183 0.007979
184 0.004997
153 0.005004
104 0.003982
79 0.00797
82 0.007981
105 0.00499
120 0.003958
127 0.003958
131 0.007015
130 0.006977
123 0.004
123 0.007976
130 0.004972
142 0.00495
152 0.004985
164 0.007974
168 0.007976
174 0.004981
179 0.004984
183 0.004989
166 0.00796
133 0.007976
82 0.007013
92 0.007021
111 0.005986
128 0.005953
139 0.004973
144 0.007973
140 0.007981
131 0.007979
125 0.004998
131 0.004998
141 0.005979
155 0.007984
167 0.00599
176 0.007021
181 0.007016
186 0.005023
188 0.006
152 0.005982
87 0.006964
72 0.006976
79 0.005972
97 0.005996
112 0.004991
121 0.00698
124 0.00595
119 0.006978
115 0.006981
116 0.005982
127 0.005981
134 0.005968
148 0.006959
157 0.008031
164 0.005985
170 0.004966
175 0.005014
179 0.007016
121 0.006947
71 0.006945
65 0.00699
83 0.005949
98 0.005978
104 0.005976
109 0.005984
111 0.006975
109 0.005984
107 0.005982
109 0.005988
116 0.005978
134 0.005984
144 0.005984
152 0.006016
158 0.005939
164 0.005927
168 0.005986
173 0.00599
146 0.006993
82 0.005933
65 0.005994
70 0.006022
86 0.005984
104 0.005982
107 0.006004
109 0.005935
108 0.004988
105 0.005015
107 0.005974
114 0.006016
124 0.005015
137 0.004955
146 0.004946
152 0.005958
156 0.005953
164 0.004986
169 0.005968
151 0.006024
103 0.00502
72 0.004987
76 0.005988
92 0.004986
108 0.004985
116 0.004987
121 0.004986
118 0.004986
113 0.004988
112 0.004988
118 0.003989
129 0.003987
139 0.005985
150 0.003992
156 0.004989
160 0.004986
165 0.005956
170 0.004952
145 0.004986
97 0.00399
72 0.004987
80 0.004984
97 0.004953
108 0.005012
114 0.004987
117 0.004987
114 0.004992
110 0.003953
110 0.005019
115 0.004952
129 0.004943
139 0.004953
148 0.003989
158 0.003988
162 0.003989
167 0.003988
172 0.004016
160 0.004997
110 0.00399
74 0.004988
65 0.002992
74 0.003989
92 0.003989
98 0.003991
103 0.002992
104 0.004989
104 0.004001
104 0.004952
107 0.003989
117 0.003989
128 0.004015
138 0.003941
147 0.00399
152 0.00399
158 0.003985
162 0.003986
169 0.003024
166 0.003989
123 0.003022
83 0.002992
68 0.003024
75 0.003026
94 0.003001
102 0.002959
103 0.002992
107 0.002992
107 0.002993
106 0.002992
108 0.002993
117 0.00399
128 0.003989
137 0.002992
146 0.00299
151 0.002992
156 0.002992
160 0.002992
164 0.002992
168 0.002989
152 0.002994
95 0.002979
77 0.002959
91 0.002985
106 0.002995
116 0.003048
120 0.001961
122 0.002957
119 0.002959
116 0.002004
118 0.003028
124 0.002993
134 0.002007
147 0.002995
158 0.003006
164 0.001992
168 0.001983
171 0.001996
174 0.001995
179 0.002992
156 0.002992
105 0.001981
76 0.001994
72 0.001995
85 0.003007
103 0.003005
108 0.001996
112 0.001994
112 0.001994
111 0.002033
111 0.00202
115 0.001996
127 0.003023
137 0.002877
147 0.000998
155 0.002032
160 0.00204
166 0.002006
170 0.001975
174 0.001983
180 0.000996
151 0.001953
101 0.001999
76 0.002002
74 0.002004
92 0.003015
104 0.001984
107 0.001983
109 0.00204
112 0.001995
111 0.001996
112 0.000997
119 0.002992
129 0.000997
140 0.00203
150 0.001994
158 0.000998
165 0.000997
168 0.002025
171 0.001985
174 0.001992
180 0.001993
165 0.000966
114 0.0
79 0.0
81 0.0
97 0.0
113 0.0
120 0.0
125 0.0
125 0.001028
121 0.000989
118 0.000979
