35 0.024054
36 0.007976
37 0.006948
31 0.00697
29 0.006993
38 0.007013
47 0.006985
53 0.007557
67 0.007984
71 0.006979
78 0.006978
80 0.007017
84 0.006972
83 0.007014
83 0.007033
40 0.006981
7 0.006984
62 0.007975
68 0.007938
69 0.00798
68 0.007922
66 0.00794
69 0.007012
72 0.006979
74 0.007013
77 0.007022
83 0.007009
90 0.007012
95 0.006943
97 0.006942
98 0.007947
98 0.00798
99 0.007963
101 0.006981
106 0.006979
96 0.00701
78 0.00702
69 0.007007
72 0.007022
81 0.006991
85 0.007015
92 0.007026
96 0.007026
95 0.006981
93 0.007012
92 0.007979
95 0.006966
101 0.006982
107 0.006982
114 0.007021
121 0.006982
129 0.006981
133 0.006981
135 0.006981
135 0.006981
122 0.006982
102 0.006985
93 0.006973
96 0.006982
99 0.006984
101 0.00602
101 0.005984
102 0.006989
105 0.006024
108 0.006016
114 0.006981
118 0.006984
124 0.007015
129 0.007024
134 0.006981
136 0.006981
137 0.00702
138 0.006981
140 0.006989
140 0.006982
139 0.005984
126 0.005996
95 0.005984
91 0.007021
94 0.007008
76 0.00701
80 0.007021
80 0.006981
82 0.006981
82 0.005986
80 0.005983
78 0.005972
77 0.005979
83 0.005987
93 0.005982
99 0.006025
105 0.006
112 0.005984
116 0.006582
127 0.006956
131 0.006016
132 0.006018
132 0.005984
106 0.006956
67 0.006983
57 0.007027
59 0.007014
63 0.006983
60 0.006022
57 0.006024
59 0.005985
61 0.006024
58 0.006024
56 0.00599
60 0.006027
65 0.006981
70 0.006839
77 0.006995
82 0.006028
88 0.006027
91 0.006017
93 0.006016
93 0.006024
98 0.006024
93 0.006026
61 0.006025
38 0.006024
36 0.006024
43 0.006023
50 0.00598
49 0.006025
49 0.005989
51 0.00619
47 0.005983
42 0.00598
37 0.005972
41 0.006016
50 0.00603
58 0.006014
66 0.005999
74 0.006025
87 0.005984
92 0.006025
95 0.006031
92 0.005984
64 0.005984
33 0.006019
21 0.005984
26 0.005989
29 0.006019
30 0.006018
33 0.006108
41 0.005989
50 0.005984
53 0.005984
53 0.005984
56 0.004986
61 0.004986
66 0.005029
69 0.005992
79 0.006017
83 0.006025
86 0.00601
90 0.005984
91 0.005984
90 0.005985
56 0.005985
21 0.005975
8 0.006025
0 0.006028
0 0.006035
0 0.006033
0 0.006033
0 0.006028
0 0.00502
0 0.005035
0 0.005009
0 0.004984
0 0.005016
0 0.004985
0 0.004981
3 0.004987
11 0.005984
17 0.005984
29 0.005991
36 0.006031
37 0.005984
39 0.006029
35 0.006014
0 0.004989
0 0.004997
0 0.004987
0 0.004986
0 0.004986
0 0.004996
0 0.005984
0 0.005954
0 0.005995
0 0.005987
0 0.004987
58 0.004983
66 0.004987
73 0.004926
79 0.004987
83 0.005023
85 0.004986
88 0.005026
91 0.005029
97 0.005014
101 0.004991
103 0.005048
105 0.006042
97 0.006036
73 0.004998
63 0.004987
67 0.004988
70 0.004987
71 0.005058
71 0.005018
74 0.004986
78 0.005043
78 0.005018
77 0.005027
80 0.004987
85 0.004033
93 0.004984
102 0.004981
110 0.004987
116 0.005028
122 0.004985
128 0.005023
130 0.004976
132 0.005003
135 0.003937
125 0.004976
108 0.00403
100 0.004986
102 0.005018
108 0.004986
111 0.005006
117 0.005001
126 0.00503
133 0.004987
139 0.004994
141 0.004986
142 0.004988
144 0.003989
150 0.00403
158 0.004035
170 0.004987
181 0.003989
193 0.004032
199 0.00399
201 0.003986
202 0.004985
201 0.003991
178 0.005027
155 0.004981
143 0.005027
138 0.005024
138 0.005018
136 0.005033
134 0.003989
134 0.00399
133 0.004022
131 0.004022
130 0.004021
133 0.00399
140 0.00502
145 0.00499
150 0.004987
155 0.004987
157 0.005041
160 0.005025
161 0.005033
167 0.003991
170 0.003942
174 0.004036
176 0.00399
167 0.003989
142 0.004
131 0.004029
127 0.004033
129 0.00396
129 0.004984
125 0.004987
125 0.004987
131 0.003989
137 0.004031
137 0.003978
138 0.003999
141 0.00399
145 0.00402
150 0.003964
151 0.003958
153 0.00399
153 0.004001
154 0.00503
157 0.004031
160 0.003989
163 0.004017
164 0.003989
159 0.003992
138 0.00399
119 0.004004
108 0.00399
109 0.003991
112 0.00399
113 0.00399
111 0.003989
112 0.003988
111 0.00399
110 0.003955
108 0.003987
109 0.003987
112 0.003989
116 0.00395
120 0.003944
123 0.004023
127 0.003981
130 0.004022
131 0.002993
142 0.002993
141 0.004002
98 0.004054
71 0.002993
63 0.003029
67 0.003032
74 0.004026
82 0.004005
90 0.004026
99 0.00399
104 0.00399
106 0.003943
109 0.00399
115 0.003977
128 0.003023
137 0.004041
145 0.003995
150 0.003024
153 0.003013
156 0.002994
157 0.002992
154 0.002989
122 0.002991
85 0.003989
59 0.004128
60 0.003947
64 0.004032
66 0.003987
70 0.003986
77 0.004021
82 0.004037
85 0.003977
86 0.002966
87 0.003019
91 0.002992
94 0.00399
105 0.002989
113 0.002995
124 0.003998
135 0.003974
141 0.00399
143 0.003042
118 0.003032
69 0.003003
49 0.003024
46 0.002993
46 0.003068
48 0.002992
49 0.003025
55 0.002993
63 0.002992
67 0.002992
66 0.003026
69 0.00399
77 0.003995
89 0.002993
103 0.003018
119 0.003035
131 0.002993
138 0.00399
148 0.002993
149 0.003036
151 0.002992
133 0.003019
90 0.002994
53 0.002994
35 0.002992
33 0.003033
34 0.003016
33 0.001995
33 0.002992
40 0.001994
49 0.002992
50 0.002981
50 0.001995
54 0.003753
65 0.003036
77 0.002998
86 0.002994
96 0.002991
100 0.002992
105 0.002996
111 0.003026
114 0.002992
117 0.002993
84 0.001995
39 0.001995
30 0.002993
36 0.002994
41 0.002996
44 0.002994
50 0.003033
58 0.003037
63 0.002992
64 0.002027
67 0.003024
78 0.001994
86 0.002992
98 0.002992
107 0.00301
114 0.001995
121 0.003014
126 0.001991
133 0.001995
136 0.002028
135 0.001995
109 0.002994
67 0.002993
19 0.002022
11 0.002136
1 0.003
0 0.002973
0 0.002036
0 0.002017
0 0.001963
0 0.001992
0 0.001986
0 0.001995
0 0.001963
0 0.002957
0 0.002963
0 0.003005
6 0.003004
19 0.002986
27 0.002992
36 0.002027
47 0.001995
55 0.001999
61 0.002993
52 0.002992
13 0.002021
0 0.001994
0 0.002027
0 0.002027
0 0.002021
0 0.001994
0 0.001989
0 0.001995
0 0.001995
0 0.001995
0 0.002025
5 0.002989
16 0.001995
26 0.001995
44 0.002027
55 0.001994
65 0.002025
79 0.001995
90 0.001993
100 0.001995
111 0.001996
120 0.002007
134 0.000997
143 0.000996
150 0.001972
150 0.001992
88 0.001994
50 0.002029
39 0.002028
45 0.001995
53 0.001995
56 0.001995
60 0.001973
68 0.001996
78 0.001995
80 0.000998
81 0.000961
83 0.001995
95 0.002
102 0.001994
112 0.002029
121 0.001995
126 0.001995
133 0.002004
141 0.001995
147 0.001995
156 0.001996
162 0.000998
171 0.000989
175 0.000998
186 0.001005
178 0.001996
135 0.002026
79 0.001996
64 0.002032
65 0.001995
69 0.001999
73 0.001995
77 0.000998
85 0.000999
89 0.001008
90 0.000998
90 0.000997
97 0.000998
106 0.002033
123 0.002027
135 0.001996
144 0.002006
151 0.001021
155 0.001031
167 0.000997
180 0.000999
190 0.001032
195 0.000998
204 0.000995
172 0.000998
123 0.001995
87 0.001995
84 0.001046
90 0.001995
96 0.000998
100 0.000998
107 0.001008
117 0.000997
121 0.000998
127 0.001033
154 0.001002
171 0.001003
180 0.000997
186 0.000997
192 0.001995
197 0.001995
203 0.000993
210 0.000998
221 0.000997
226 0.001003
227 0.001014
228 0.001014
175 0.001001
123 0.000998
90 0.000994
79 0.000998
84 0.001004
85 0.001004
85 0.002003
87 0.000991
96 0.001006
101 0.000999
101 0.000995
100 0.001003
108 0.000998
116 0.000998
123 0.001018
135 0.001008
144 0.000997
150 0.000998
151 0.000995
155 0.000991
161 0.000997
166 0.000998
172 0.000997
159 0.0
76 0.0
43 0.0
31 0.0
36 0.0
41 0.0
43 0.0
49 0.0
56 0.0
58 0.0
56 0.000999
59 0.001051
66 0.000998
87 0.001005
94 0.000998
101 0.000997
112 0.000998
120 0.0
129 0.0
139 0.0
147 0.0
154 0.0
161 0.0
161 0.001014
122 0.0
41 0.000999
23 0.000997
23 0.0
30 0.000998
31 0.000997
37 0.000998
47 0.000999
53 0.001026
56 0.0
59 0.0
64 0.0
73 0.0
93 0.0
103 0.0
113 0.0
124 0.0
133 0.0
142 0.0
149 0.0
157 0.0
162 0.0
122 0.0
69 0.0
35 0.001029
30 0.000998
37 0.0
42 0.000997
47 0.0
59 0.0
66 0.000969
68 0.000998
70 0.0
77 0.0
90 0.0
102 0.0
115 0.0
135 0.0
148 0.0
158 0.0
169 0.0
182 0.0
188 0.000957
194 0.0
182 0.0
132 0.0
62 0.0
40 0.001036
37 0.0
42 0.0
42 0.0
46 0.0
56 0.0
66 0.0
68 0.0
69 0.0
80 0.0
88 0.000964
104 0.000998
116 0.001022
128 0.000998
146 0.0
156 0.0
164 0.0
169 0.0
176 0.000999
184 0.000999
181 0.0
114 0.0
59 0.0
31 0.000997
26 0.000998
30 0.0
31 0.000997
34 0.0
45 0.0
56 0.0
61 0.00103
64 0.001032
72 0.0
86 0.0
98 0.0
112 0.000998
123 0.000999
138 0.0
151 0.000997
163 0.0
172 0.0
180 0.0
186 0.000997
193 0.0
198 0.0
168 0.0
86 0.0
45 0.000998
31 0.000998
37 0.0
42 0.000997
45 0.0
55 0.0
65 0.0
70 0.000998
71 0.002033
78 0.0
89 0.0
100 0.0
111 0.000999
121 0.000997
136 0.0
150 0.001042
162 0.0
170 0.0
178 0.0
185 0.000999
193 0.001028
176 0.0
117 0.0
62 0.0
37 0.000998
36 0.000998
44 0.00104
50 0.000997
62 0.000998
73 0.0
77 0.00099
80 0.001034
84 0.000998
95 0.0
107 0.0
118 0.0
130 0.001028
142 0.001026
155 0.000969
169 0.001032
179 0.0
185 0.000997
194 0.0
164 0.001995
103 0.00201
44 0.000997
34 0.000999
38 0.0
45 0.001032
50 0.00104
62 0.0
81 0.001028
87 0.000989
88 0.0
93 0.001005
102 0.000998
114 0.000997
129 0.001
141 0.000999
150 0.000999
160 0.001995
171 0.001995
183 0.000997
194 0.002026
203 0.00102
199 0.0
152 0.0
86 0.000998
41 0.001983
28 0.0
32 0.0
35 0.001006
37 0.001998
44 0.001995
61 0.001005
70 0.001995
73 0.001045
80 0.001052
91 0.001031
105 0.001999
118 0.002028
134 0.0
147 0.002007
153 0.001995
165 0.000988
175 0.001007
186 0.000984
195 0.001042
201 0.001984
207 0.001054
178 0.001028
111 0.001033
52 0.00203
28 0.002049
32 0.000995
38 0.000998
40 0.001006
43 0.000997
54 0.002034
69 0.002028
71 0.000997
78 0.000991
89 0.001029
103 0.001029
116 0.002025
127 0.001996
144 0.001028
153 0.000998
161 0.001996
168 0.001995
175 0.001995
185 0.002033
191 0.001995
196 0.001995
204 0.001952
192 0.000979
131 0.001995
65 0.001993
26 0.000951
26 0.000987
35 0.000998
39 0.002
42 0.001944
61 0.001979
68 0.001995
71 0.001029
74 0.000955
83 0.00203
95 0.003025
107 0.001995
120 0.002028
134 0.001047
145 0.000951
153 0.001995
163 0.001995
178 0.002992
183 0.001995
195 0.000998
175 0.002055
113 0.000993
59 0.002992
40 0.002992
44 0.001995
51 0.000999
53 0.001003
61 0.001994
74 0.001995
88 0.001995
94 0.001992
104 0.001013
117 0.001002
128 0.002053
138 0.003024
148 0.002985
160 0.002027
171 0.00203
177 0.002039
188 0.001976
196 0.001994
206 0.001996
206 0.002044
137 0.001057
75 0.001032
41 0.002047
33 0.002992
37 0.002992
41 0.002025
42 0.002027
50 0.001995
64 0.002992
74 0.002992
80 0.002992
87 0.002036
102 0.000999
114 0.001009
125 0.001992
137 0.002993
146 0.00304
161 0.002025
172 0.002025
178 0.001995
186 0.002992
193 0.003023
203 0.003033
180 0.002024
115 0.002035
43 0.002029
26 0.002
28 0.003023
36 0.003023
42 0.002025
45 0.002038
57 0.002027
68 0.002992
69 0.00399
73 0.003032
80 0.004022
99 0.002026
113 0.000996
128 0.002036
140 0.003024
152 0.002992
162 0.002026
169 0.001963
176 0.001992
182 0.002992
188 0.002992
196 0.002948
155 0.002995
134 0.019911
68 0.0
19 0.002992
25 0.002953
31 0.003992
35 0.003032
45 0.003026
57 0.001996
65 0.002984
67 0.002983
76 0.002992
88 0.002992
105 0.002014
116 0.001997
126 0.00203
136 0.002993
145 0.003024
156 0.00203
165 0.002993
173 0.002037
184 0.004041
180 0.00399
85 0.00399
40 0.004022
31 0.002975
42 0.002987
52 0.002993
60 0.00399
73 0.003989
88 0.003029
92 0.002993
93 0.003046
98 0.002992
107 0.004021
131 0.003031
143 0.004035
158 0.002992
168 0.002991
179 0.003003
190 0.003991
197 0.00399
208 0.003025
202 0.003063
149 0.003034
86 0.002972
47 0.004022
42 0.001993
48 0.003027
51 0.00399
61 0.00299
75 0.002989
86 0.003026
91 0.00396
94 0.004028
104 0.002986
116 0.002992
131 0.003023
145 0.003984
164 0.003036
174 0.003025
187 0.003989
199 0.003026
207 0.003024
214 0.002992
223 0.003998
211 0.004022
130 0.003022
74 0.003053
51 0.003024
51 0.00403
60 0.00403
62 0.004988
71 0.004987
87 0.004031
96 0.002983
101 0.003043
104 0.004021
111 0.004024
128 0.003027
142 0.002991
156 0.002991
167 0.004988
182 0.003034
193 0.004031
202 0.005015
213 0.003005
218 0.004031
226 0.003027
225 0.003976
182 0.00398
95 0.002992
60 0.003046
54 0.003034
60 0.004978
66 0.003992
71 0.004988
84 0.004987
97 0.004025
103 0.004007
105 0.003996
109 0.003989
116 0.003989
131 0.003025
142 0.002997
155 0.003
167 0.004988
186 0.004032
195 0.004987
205 0.005021
214 0.003982
221 0.004019
229 0.004035
232 0.004021
194 0.004036
104 0.004008
67 0.003942
62 0.004023
74 0.005017
87 0.003989
94 0.005017
107 0.005016
118 0.004027
120 0.004032
121 0.004042
127 0.004987
137 0.00402
151 0.005019
167 0.003959
180 0.004049
188 0.004984
203 0.00399
209 0.005019
215 0.004987
222 0.00399
195 0.004063
135 0.004029
83 0.004987
59 0.005984
59 0.003959
64 0.00397
67 0.003978
76 0.005006
100 0.003986
109 0.005018
114 0.005018
122 0.004022
135 0.004021
150 0.004024
165 0.004986
181 0.005018
195 0.004987
211 0.003967
219 0.004025
225 0.005038
231 0.004021
223 0.00501
172 0.004987
76 0.004026
38 0.00402
31 0.003997
37 0.004986
46 0.004987
54 0.005014
69 0.004989
84 0.004991
94 0.006018
96 0.004017
100 0.00502
113 0.005012
132 0.004018
144 0.003991
157 0.003991
169 0.005031
179 0.006019
192 0.005
201 0.00502
211 0.005021
215 0.006012
157 0.003978
92 0.004978
52 0.004981
47 0.003989
59 0.004
70 0.005022
78 0.005985
89 0.005985
102 0.005018
104 0.00502
104 0.004989
103 0.005984
117 0.004016
129 0.005983
143 0.006017
159 0.003991
172 0.003981
183 0.004954
193 0.004986
202 0.005986
209 0.003998
213 0.005023
214 0.005021
173 0.005984
60 0.005019
32 0.006017
32 0.00602
45 0.00499
49 0.004986
57 0.00399
71 0.006024
81 0.005027
84 0.004991
85 0.004983
89 0.005017
99 0.006015
123 0.005021
138 0.004027
154 0.006015
172 0.006008
187 0.005957
194 0.004973
202 0.005024
204 0.006021
170 0.005984
91 0.004993
59 0.004993
60 0.005017
83 0.005018
91 0.005019
103 0.006017
118 0.005983
128 0.005985
131 0.005986
133 0.006022
140 0.006005
152 0.005979
173 0.005019
181 0.00499
185 0.004995
198 0.004981
208 0.005017
216 0.006015
222 0.006015
199 0.005021
135 0.006026
79 0.005986
56 0.006982
57 0.006981
67 0.005019
70 0.006018
81 0.005023
103 0.004968
112 0.005002
113 0.00601
114 0.005988
124 0.004988
136 0.005017
147 0.005997
159 0.006982
171 0.006981
185 0.006034
195 0.006021
204 0.005012
212 0.004986
206 0.005021
153 0.006019
89 0.00601
49 0.005026
49 0.004988
57 0.006016
64 0.007014
70 0.006981
84 0.006026
95 0.006008
99 0.00602
103 0.004963
109 0.00598
119 0.005984
133 0.006017
148 0.006016
158 0.00501
167 0.005988
178 0.005984
189 0.006982
204 0.005983
209 0.006031
211 0.006031
168 0.00602
99 0.006008
51 0.00698
39 0.007005
49 0.006015
55 0.005033
59 0.005028
68 0.006957
78 0.005984
86 0.005974
85 0.006021
85 0.005989
98 0.006011
109 0.005969
118 0.00702
126 0.006994
139 0.006014
150 0.006021
155 0.007013
164 0.006983
167 0.006982
172 0.006017
138 0.005984
70 0.005985
7 0.005971
11 0.006022
28 0.006981
41 0.007015
58 0.007022
73 0.005044
81 0.007015
79 0.006982
75 0.007022
83 0.005987
98 0.005978
114 0.005967
141 0.00598
155 0.006004
166 0.006965
178 0.006981
191 0.006008
199 0.006024
189 0.006963
133 0.007987
70 0.006981
33 0.006017
38 0.00598
49 0.005983
61 0.005985
73 0.005989
85 0.006991
92 0.006982
94 0.006965
97 0.005978
106 0.007024
119 0.007978
137 0.007963
150 0.006977
162 0.006017
173 0.00601
193 0.005979
202 0.005998
209 0.006982
204 0.007948
119 0.006982
58 0.007012
30 0.007015
29 0.007946
38 0.00798
51 0.007019
60 0.006019
72 0.006035
88 0.005985
89 0.005991
93 0.007961
98 0.00798
115 0.007033
129 0.007014
141 0.006978
151 0.007979
161 0.007979
177 0.007014
189 0.006022
200 0.006009
213 0.005991
217 0.006011
174 0.007945
98 0.007937
34 0.00694
30 0.00699
41 0.007012
51 0.007979
57 0.007948
72 0.007016
86 0.007013
95 0.007019
101 0.005992
107 0.006974
116 0.006985
125 0.007979
136 0.007979
152 0.006991
162 0.007012
173 0.006966
186 0.007979
191 0.007944
199 0.006928
204 0.007059
211 0.006983
200 0.006983
132 0.006981
54 0.007979
9 0.007979
10 0.006997
22 0.006992
31 0.006992
37 0.007979
53 0.007979
59 0.006979
59 0.006975
59 0.006934
64 0.006981
78 0.006981
98 0.007991
105 0.007979
120 0.007011
133 0.007014
150 0.007016
159 0.007024
166 0.007025
174 0.007025
155 0.006982
46 0.006977
8 0.006968
8 0.007023
25 0.007979
42 0.007979
61 0.006957
84 0.007022
91 0.00698
92 0.007019
92 0.00698
99 0.00702
111 0.006983
135 0.006975
148 0.006976
161 0.006993
170 0.007978
187 0.007026
198 0.007032
211 0.007019
215 0.006989
153 0.007017
79 0.007002
23 0.007016
19 0.006971
33 0.006991
42 0.007002
50 0.006984
68 0.006997
78 0.00702
81 0.007017
82 0.007027
89 0.006988
101 0.007027
114 0.007028
133 0.006972
146 0.006986
161 0.007016
174 0.006989
185 0.006982
193 0.007017
161 0.007023
63 0.006992
14 0.007016
2 0.007027
10 0.007027
21 0.00702
29 0.007015
40 0.007013
63 0.007028
66 0.007007
67 0.007022
71 0.005987
83 0.006022
100 0.007009
117 0.006015
130 0.007017
142 0.005977
153 0.007028
166 0.007024
174 0.007017
156 0.006982
87 0.006989
27 0.006984
3 0.007035
3 0.007028
16 0.006991
23 0.006987
34 0.007031
49 0.006022
58 0.006013
59 0.005985
60 0.006982
73 0.006957
87 0.007023
100 0.007016
112 0.007016
123 0.007018
139 0.007016
148 0.007008
158 0.007011
166 0.007016
139 0.006015
55 0.006033
20 0.006027
24 0.006017
36 0.006016
46 0.006023
61 0.007011
77 0.006987
91 0.007033
90 0.007016
92 0.007015
104 0.006015
119 0.006031
140 0.006014
155 0.005983
178 0.005986
189 0.005973
194 0.006022
200 0.006025
196 0.006025
133 0.005999
90 0.005987
77 0.007024
84 0.006981
92 0.006976
100 0.007
110 0.006032
130 0.006025
134 0.006034
133 0.006033
135 0.005983
145 0.006001
161 0.006023
172 0.005989
185 0.00599
197 0.005977
206 0.006026
220 0.006017
227 0.006023
227 0.006163
183 0.005985
134 0.006031
108 0.006032
105 0.006015
110 0.006023
116 0.00603
122 0.006024
133 0.006024
146 0.005986
152 0.005021
156 0.005089
163 0.006026
178 0.006024
190 0.006018
200 0.006015
210 0.006011
221 0.006019
235 0.006017
188 0.006
192 0.006035
196 0.006041
196 0.006004
170 0.006076
143 0.006024
137 0.005973
140 0.005031
143 0.006019
143 0.005015
145 0.005023
152 0.005029
155 0.00604
155 0.004988
156 0.00497
158 0.005021
162 0.005983
167 0.005985
171 0.006021
174 0.006019
177 0.006017
181 0.006016
185 0.005981
189 0.005983
191 0.005018
188 0.005031
168 0.005971
145 0.004984
132 0.005021
133 0.005029
135 0.00602
136 0.006016
140 0.00598
144 0.005953
146 0.006023
145 0.00603
146 0.005972
150 0.005985
155 0.005019
161 0.00502
169 0.005029
174 0.004946
180 0.00503
184 0.004999
188 0.005037
191 0.005021
193 0.004948
177 0.005979
157 0.005022
147 0.006041
147 0.00602
151 0.006034
159 0.005028
165 0.005074
173 0.005022
175 0.005038
173 0.005008
171 0.005025
172 0.005036
175 0.005034
178 0.00502
180 0.005035
182 0.004988
238 0.005985
244 0.006038
249 0.006021
192 0.005019
195 0.004986
197 0.005019
186 0.005025
163 0.004988
142 0.004988
138 0.005028
140 0.005018
141 0.005001
140 0.005028
141 0.005016
144 0.005029
143 0.00499
142 0.004014
144 0.003989
147 0.005014
151 0.004994
158 0.004992
162 0.005014
166 0.00502
169 0.004995
173 0.004989
177 0.005019
182 0.005027
186 0.005029
188 0.005031
180 0.004972
159 0.00402
142 0.005038
133 0.005039
132 0.00502
133 0.005004
132 0.004988
132 0.005026
135 0.005025
135 0.004984
133 0.003979
132 0.004985
134 0.005016
137 0.005028
141 0.005026
145 0.005036
150 0.004989
153 0.004988
156 0.004989
159 0.005028
166 0.004003
168 0.00504
172 0.003974
160 0.004021
135 0.004029
113 0.004992
107 0.004948
110 0.00505
114 0.004991
115 0.005037
116 0.004992
119 0.005023
121 0.004021
120 0.00503
124 0.004033
129 0.004005
134 0.004015
142 0.004024
145 0.004024
152 0.003992
159 0.003959
164 0.003992
167 0.005035
172 0.005025
167 0.00502
136 0.004989
89 0.003991
84 0.004057
90 0.004024
97 0.004023
101 0.00402
111 0.003989
117 0.005029
119 0.003991
119 0.00399
120 0.003991
128 0.00502
136 0.005018
149 0.005024
156 0.003992
161 0.00402
168 0.003984
175 0.00403
182 0.00398
187 0.004048
186 0.004013
157 0.003991
118 0.003991
84 0.003952
79 0.00399
85 0.002989
87 0.00403
91 0.004016
97 0.002994
101 0.003991
103 0.003019
103 0.005032
105 0.004042
109 0.003991
115 0.004032
125 0.00502
132 0.004036
141 0.004025
151 0.004056
157 0.004025
162 0.004033
167 0.002993
147 0.003993
91 0.003993
61 0.003976
51 0.002993
54 0.003992
59 0.003046
63 0.003942
70 0.002993
76 0.00296
78 0.00392
79 0.004035
81 0.004032
86 0.003991
96 0.003995
103 0.004012
109 0.004015
114 0.003941
122 0.004038
131 0.004021
137 0.00399
142 0.003024
119 0.002994
76 0.004026
42 0.003992
30 0.004002
36 0.003991
43 0.004036
48 0.003997
55 0.003991
63 0.004028
66 0.004017
66 0.002984
71 0.002994
78 0.00399
86 0.003018
95 0.004
103 0.002994
114 0.004015
121 0.003032
129 0.002993
138 0.00399
139 0.004053
92 0.004022
47 0.004026
39 0.003992
49 0.002992
60 0.002992
70 0.002993
83 0.00303
94 0.00302
96 0.003023
93 0.004038
95 0.003007
101 0.00401
114 0.004031
128 0.003029
140 0.003049
147 0.002993
154 0.002992
160 0.002989
168 0.003001
145 0.002992
100 0.002996
64 0.002977
51 0.002993
53 0.002991
63 0.002989
70 0.003989
81 0.003989
87 0.002992
91 0.003038
91 0.003004
92 0.002995
102 0.003048
110 0.00304
119 0.003043
127 0.002994
134 0.002992
144 0.003057
153 0.001996
161 0.002992
153 0.002994
112 0.003034
66 0.002995
40 0.003006
40 0.003002
48 0.003028
52 0.003029
56 0.002964
64 0.002993
74 0.003048
77 0.003045
80 0.00306
87 0.002982
96 0.002031
105 0.001987
113 0.002993
125 0.002994
134 0.002993
144 0.003
152 0.003024
159 0.002992
165 0.002992
151 0.00304
86 0.003019
51 0.001997
41 0.002034
46 0.002037
53 0.001965
58 0.002994
66 0.002032
75 0.002028
79 0.002007
79 0.002989
80 0.003048
89 0.003011
101 0.003023
110 0.003023
119 0.002016
127 0.001996
134 0.002
145 0.002027
150 0.002027
159 0.002002
164 0.002037
170 0.002021
157 0.003039
92 0.003049
47 0.003024
41 0.003039
49 0.002993
56 0.003019
63 0.002027
75 0.002041
83 0.002028
87 0.002032
86 0.002026
88 0.002007
98 0.003028
112 0.001996
125 0.002019
135 0.002994
143 0.001878
152 0.002024
159 0.001996
167 0.002027
173 0.002031
180 0.002031
166 0.002028
120 0.002028
69 0.001995
59 0.002033
70 0.00203
78 0.003036
86 0.001996
98 0.001997
105 0.002039
107 0.001996
108 0.002046
112 0.001995
120 0.002005
130 0.001982
141 0.000996
156 0.002028
162 0.002007
173 0.002046
183 0.002029
191 0.002039
195 0.002004
202 0.002001
188 0.002036
137 0.002051
89 0.001967
65 0.001996
64 0.001995
77 0.001022
81 0.001031
92 0.00104
102 0.000997
107 0.001959
107 0.000998
108 0.002039
115 0.002012
124 0.002042
136 0.001997
143 0.001993
152 0.002
164 0.001996
172 0.002047
181 0.000951
187 0.000998
193 0.002021
174 0.00101
124 0.000964
63 0.001964
49 0.001995
53 0.002049
62 0.001957
68 0.001995
83 0.000998
94 0.000999
97 0.001953
95 0.001024
97 0.001995
104 0.001042
114 0.002017
126 0.001004
136 0.001002
144 0.000994
150 0.000998
156 0.000997
165 0.000998
170 0.001995
168 0.001946
126 0.001996
75 0.002045
43 0.000998
35 0.000999
42 0.001015
50 0.000999
59 0.000997
70 0.000997
79 0.000998
82 0.002008
83 0.00197
89 0.001997
96 0.000998
105 0.002022
114 0.000963
126 0.002061
139 0.001995
147 0.0
151 0.001984
156 0.000997
162 0.000998
122 0.000998
71 0.001029
33 0.002041
33 0.001022
42 0.000997
50 0.000998
57 0.001029
72 0.001032
80 0.00102
82 0.000998
83 0.002033
88 0.00202
101 0.000997
112 0.00105
126 0.001043
136 0.001003
145 0.000998
153 0.000998
160 0.0
163 0.000998
131 0.000997
83 0.000998
52 0.000997
45 0.000987
57 0.000998
63 0.0
75 0.0
86 0.0
93 0.000997
96 0.0
98 0.000998
103 0.0
112 0.0
123 0.0
132 0.0
141 0.0
154 0.001
162 0.000998
170 0.000997
173 0.000997
150 0.0
102 0.0
62 0.0
48 0.0
52 0.0
58 0.0
60 0.0
65 0.0
83 0.000998
88 0.000998
90 0.000999
94 0.0
102 0.0
112 0.0
121 0.0
133 0.0
141 0.0
150 0.0
157 0.0
164 0.0
175 0.0
180 0.0
162 0.0
115 0.0
75 0.0
56 0.000998
56 0.000998
62 0.000999
64 0.000997
68 0.0
77 0.000997
85 0.0
91 0.0
94 0.0
102 0.0
109 0.0
116 0.0
124 0.0
132 0.0
143 0.000998
151 0.0
160 0.0
167 0.0
173 0.00096
180 0.0
185 0.0
179 0.0
122 0.0
79 0.0
59 0.0
58 0.0
63 0.0
66 0.0
69 0.0
77 0.0
84 0.0
87 0.000998
88 0.000998
93 0.000972
104 0.000998
112 0.0
121 0.0
129 0.0
136 0.0
145 0.0
153 0.0
158 0.0
164 0.000999
174 0.0
177 0.001
186 0.0
159 0.002025
108 0.002028
70 0.000997
57 0.000998
63 0.0
70 0.0
74 0.00103
80 0.0
90 0.0
94 0.00096
94 0.000998
96 0.000997
104 0.001013
114 0.001994
127 0.0
137 0.0
145 0.0
153 0.00098
161 0.001045
171 0.0
177 0.0
187 0.0
194 0.001
177 0.001
130 0.001056
87 0.001032
63 0.0
67 0.0
75 0.0
80 0.001043
85 0.00103
97 0.000977
102 0.000999
104 0.000954
105 0.000997
113 0.0
122 0.002029
132 0.002026
144 0.0
152 0.0
160 0.0
168 0.002041
175 0.00204
184 0.0
190 0.0
199 0.0
205 0.0
198 0.0
150 0.000996
97 0.001032
61 0.000996
57 0.000948
65 0.0
71 0.000998
73 0.001003
84 0.000996
92 0.0
96 0.0
98 0.0
103 0.0
111 0.002041
119 0.001993
132 0.0
141 0.0
149 0.0
157 0.001021
165 0.001998
177 0.0
184 0.0
194 0.0
197 0.001004
204 0.000999
187 0.002042
133 0.000999
72 0.0
54 0.0
55 0.000998
66 0.002029
71 0.002044
80 0.0
90 0.0
100 0.0
101 0.0
102 0.0
106 0.001995
114 0.001031
126 0.000962
136 0.000997
145 0.000993
154 0.001997
163 0.001033
174 0.0
182 0.0
192 0.000965
197 0.0
202 0.0
175 0.001031
116 0.00098
58 0.0
45 0.000936
51 0.0
61 0.001003
69 0.001962
82 0.000998
91 0.000998
95 0.002029
94 0.002042
96 0.0
102 0.001993
112 0.002007
125 0.00196
135 0.001006
145 0.0
154 0.001029
163 0.001033
173 0.0
181 0.002029
169 0.002024
117 0.002025
71 0.002031
49 0.002001
49 0.002021
66 0.0
77 0.000993
89 0.001001
101 0.001031
108 0.001031
110 0.000968
108 0.002011
118 0.001993
128 0.00201
139 0.002026
148 0.002027
157 0.001995
169 0.00204
178 0.000993
186 0.001008
193 0.000879
191 0.002994
144 0.002993
73 0.001021
45 0.001995
51 0.001994
61 0.001974
66 0.001049
75 0.002026
87 0.002027
95 0.001026
97 0.000946
97 0.000971
103 0.003038
111 0.002993
127 0.0
140 0.001995
153 0.0
162 0.001996
172 0.001947
179 0.001997
184 0.003024
161 0.001008
104 0.002034
56 0.00203
36 0.002039
36 0.002039
48 0.001042
57 0.002992
70 0.000987
80 0.001989
85 0.001972
86 0.003027
87 0.001995
94 0.001001
104 0.001002
115 0.001922
127 0.001995
138 0.001994
151 0.000998
164 0.003006
172 0.000989
180 0.001023
177 0.000955
131 0.002994
72 0.002992
30 0.000991
28 0.000966
38 0.001037
48 0.001996
55 0.001995
67 0.001994
77 0.002992
78 0.001027
79 0.00099
84 0.001998
94 0.002992
105 0.002993
120 0.000957
129 0.001013
139 0.002026
147 0.001955
155 0.002024
163 0.001997
170 0.002991
167 0.002034
117 0.001988
61 0.002026
31 0.002992
27 0.002993
42 0.000996
51 0.001995
60 0.001027
72 0.002992
81 0.002962
84 0.001994
84 0.004042
94 0.00196
105 0.00201
117 0.001999
128 0.002983
139 0.003025
152 0.002026
161 0.002031
169 0.001993
177 0.002963
174 0.002992
111 0.000988
52 0.003962
42 0.001947
52 0.002013
64 0.001948
74 0.002982
86 0.002992
100 0.001953
102 0.002004
100 0.002043
101 0.002992
108 0.003009
124 0.001041
139 0.002992
153 0.003022
163 0.001994
173 0.001995
181 0.004034
190 0.003989
189 0.001947
146 0.001962
86 0.002003
51 0.003031
43 0.004022
54 0.003005
63 0.003989
74 0.002043
85 0.001992
95 0.002992
98 0.00399
99 0.003989
106 0.001978
114 0.001995
125 0.002992
136 0.003989
147 0.003026
159 0.00203
172 0.003009
180 0.001999
186 0.001995
164 0.002979
105 0.003989
52 0.00399
31 0.001978
38 0.001977
47 0.001939
51 0.003989
58 0.003988
73 0.001959
83 0.003939
84 0.001991
89 0.003026
97 0.003025
108 0.00398
119 0.003989
133 0.001981
142 0.00198
150 0.001994
157 0.003989
164 0.00399
170 0.001965
172 0.003989
112 0.002981
56 0.002992
28 0.002991
27 0.00399
37 0.00399
47 0.001985
53 0.002992
66 0.002983
76 0.00399
81 0.004026
81 0.004989
90 0.00399
100 0.00499
114 0.002944
125 0.002927
135 0.002995
145 0.003979
153 0.003989
164 0.002992
171 0.002992
179 0.002959
174 0.00399
129 0.003989
52 0.004988
42 0.00399
54 0.003
64 0.002989
72 0.002987
85 0.004023
96 0.004023
103 0.002988
103 0.002998
105 0.002995
113 0.004031
125 0.004985
146 0.003989
155 0.004954
167 0.002963
177 0.003002
186 0.002989
196 0.004994
196 0.004044
139 0.002996
93 0.002997
74 0.002996
77 0.004032
86 0.005032
99 0.004988
110 0.004989
125 0.002996
129 0.002978
129 0.003009
132 0.004987
140 0.004992
155 0.002983
167 0.002993
178 0.003034
187 0.003989
196 0.004032
210 0.005016
216 0.004983
224 0.003019
198 0.002993
144 0.002993
103 0.005017
87 0.005016
93 0.002997
101 0.002989
106 0.002995
111 0.00401
122 0.003989
133 0.004989
133 0.004994
138 0.004022
146 0.003003
156 0.002979
167 0.004985
178 0.005017
190 0.002991
198 0.002997
207 0.002991
214 0.004018
218 0.004987
217 0.004987
175 0.004987
114 0.002958
96 0.002999
96 0.002993
105 0.005023
111 0.004989
119 0.002991
129 0.002994
136 0.003
138 0.005033
139 0.005015
148 0.00502
157 0.005024
168 0.003977
176 0.003997
183 0.003011
189 0.005012
196 0.005984
207 0.00396
210 0.002994
214 0.003997
216 0.005014
187 0.005025
111 0.004987
92 0.004992
92 0.003956
99 0.003989
104 0.004962
110 0.005017
119 0.004987
126 0.00299
125 0.002991
124 0.003991
128 0.005984
136 0.006016
150 0.004986
159 0.004987
170 0.003981
178 0.003962
185 0.003991
191 0.005019
198 0.005022
201 0.003957
166 0.003983
122 0.003985
95 0.006021
90 0.006015
103 0.005984
111 0.004988
126 0.003979
134 0.003992
136 0.003986
136 0.005017
137 0.005985
142 0.003007
152 0.004034
161 0.003981
170 0.006041
178 0.006017
191 0.005984
197 0.004987
205 0.003995
210 0.004012
189 0.004007
142 0.005016
102 0.005022
84 0.004994
88 0.003987
95 0.003981
100 0.006017
107 0.00598
121 0.005984
124 0.005987
124 0.003992
127 0.004994
133 0.003995
141 0.004977
149 0.005984
162 0.004984
170 0.005018
178 0.003979
186 0.005973
193 0.006016
199 0.005984
177 0.006982
111 0.003993
78 0.003998
69 0.004941
71 0.005985
78 0.00601
83 0.004967
90 0.004998
98 0.004034
104 0.006025
105 0.00602
108 0.006015
115 0.005984
127 0.004958
137 0.004956
145 0.004965
152 0.004971
159 0.00598
166 0.006016
175 0.004987
180 0.00497
184 0.004992
163 0.005995
86 0.004019
62 0.00602
60 0.005984
70 0.003978
75 0.003991
80 0.00399
90 0.006989
98 0.006954
99 0.004974
99 0.004999
103 0.004977
109 0.006015
126 0.005037
135 0.005984
143 0.006946
154 0.004008
161 0.004997
169 0.004992
175 0.006977
180 0.00698
188 0.004986
167 0.004984
117 0.005929
79 0.005951
64 0.004986
72 0.005985
80 0.006982
90 0.004987
100 0.004981
107 0.004987
108 0.006994
106 0.006985
111 0.004973
118 0.005008
130 0.003968
139 0.006008
156 0.00401
164 0.005987
172 0.006983
180 0.005027
187 0.005042
189 0.005014
158 0.006976
110 0.00697
74 0.004986
73 0.004996
81 0.004989
88 0.006978
103 0.004991
112 0.006958
116 0.006997
117 0.005986
117 0.006033
123 0.004984
132 0.006978
142 0.006947
154 0.005003
162 0.004989
170 0.005018
178 0.007019
189 0.005018
195 0.006997
200 0.006981
172 0.00499
120 0.004985
79 0.004952
64 0.005987
66 0.005976
75 0.006008
78 0.005973
86 0.005953
95 0.006982
106 0.005972
107 0.006982
109 0.006981
119 0.004939
129 0.004988
139 0.005978
149 0.00699
157 0.006973
168 0.004942
175 0.004977
183 0.004976
188 0.007013
190 0.00502
153 0.007017
87 0.007972
62 0.004989
60 0.00598
67 0.006025
73 0.007012
78 0.006986
90 0.00598
100 0.005981
105 0.005985
106 0.00697
111 0.004985
119 0.007981
129 0.007017
142 0.005978
150 0.005984
158 0.005984
168 0.007973
173 0.007978
181 0.005978
187 0.005994
190 0.005986
161 0.006978
77 0.00695
53 0.007965
56 0.007951
63 0.005949
69 0.005982
78 0.005978
92 0.007976
98 0.007966
100 0.005997
100 0.00599
103 0.006004
111 0.006985
128 0.006026
141 0.007934
147 0.007978
157 0.005978
165 0.005979
170 0.005987
177 0.007976
182 0.007972
142 0.005973
90 0.005985
59 0.005977
53 0.00794
70 0.006983
79 0.007979
90 0.007979
105 0.005983
111 0.005987
111 0.005994
112 0.007971
120 0.007953
130 0.005995
140 0.005989
151 0.005982
161 0.006965
175 0.006989
182 0.007942
191 0.007983
187 0.005985
147 0.005972
99 0.005974
71 0.007977
71 0.007977
79 0.005987
86 0.005981
94 0.005984
108 0.00702
117 0.006976
117 0.007979
119 0.00798
127 0.005972
136 0.005995
146 0.005994
159 0.007927
165 0.007979
172 0.005984
181 0.005977
188 0.00599
196 0.006969
164 0.00698
114 0.006986
79 0.007938
69 0.007946
76 0.005992
83 0.005992
86 0.005974
93 0.007975
102 0.00798
110 0.006981
111 0.00698
112 0.006978
125 0.006985
131 0.006973
141 0.007991
150 0.007948
161 0.006994
170 0.00695
178 0.006979
183 0.007943
185 0.007981
134 0.00698
104 0.006982
74 0.006978
70 0.006952
78 0.00698
85 0.007013
92 0.006985
102 0.006983
108 0.006987
108 0.005977
109 0.007979
114 0.006975
122 0.006974
131 0.006979
140 0.006979
154 0.00698
160 0.006981
167 0.006991
172 0.00701
180 0.006978
179 0.004991
133 0.006966
102 0.007978
70 0.007919
62 0.005983
69 0.005984
75 0.006969
86 0.006977
98 0.006978
101 0.007018
101 0.007006
101 0.006952
107 0.006975
115 0.006984
126 0.007019
134 0.008022
146 0.006981
152 0.006988
158 0.006975
170 0.006981
169 0.006977
125 0.007015
84 0.007011
64 0.006975
67 0.006978
74 0.006981
80 0.006009
89 0.006018
102 0.006991
106 0.006969
106 0.006959
110 0.006982
115 0.006983
127 0.006977
135 0.007001
143 0.006984
153 0.005985
160 0.005984
166 0.006021
173 0.006017
175 0.00704
143 0.007016
99 0.006955
65 0.00698
66 0.006993
71 0.007013
75 0.007047
83 0.006963
93 0.006982
99 0.006982
104 0.006019
106 0.006015
112 0.005993
120 0.005962
131 0.005981
147 0.006983
155 0.00697
163 0.00702
171 0.00702
178 0.006963
186 0.006946
181 0.00595
145 0.006018
108 0.006013
86 0.005975
88 0.005991
93 0.006016
98 0.006959
104 0.00704
114 0.007026
121 0.007012
124 0.006983
126 0.006963
134 0.006036
141 0.00602
148 0.005984
158 0.005982
166 0.005987
174 0.006013
185 0.00599
191 0.006982
197 0.007034
194 0.007024
150 0.006977
118 0.006027
104 0.006015
105 0.006029
108 0.006015
112 0.005985
116 0.005972
122 0.004989
129 0.005988
129 0.004979
132 0.004986
137 0.007018
146 0.006025
153 0.00602
159 0.006018
165 0.006025
172 0.00602
179 0.005991
184 0.005956
190 0.006017
183 0.00603
150 0.005978
120 0.006014
109 0.005978
114 0.00599
118 0.00602
120 0.006026
125 0.005981
131 0.005986
135 0.006017
134 0.006022
135 0.005994
142 0.005019
148 0.005979
154 0.00598
160 0.005018
166 0.005025
173 0.006
179 0.005983
184 0.006016
188 0.006015
170 0.006023
130 0.005978
114 0.005984
119 0.005991
124 0.005982
127 0.00502
133 0.005017
139 0.004974
142 0.006019
141 0.006026
142 0.006027
146 0.006002
151 0.006028
160 0.006024
166 0.005985
176 0.00602
182 0.005024
187 0.005021
193 0.005026
192 0.005035
153 0.005023
124 0.004986
110 0.005952
111 0.005994
114 0.005983
117 0.006016
118 0.005984
127 0.006019
131 0.006017
130 0.005006
131 0.005019
134 0.005022
142 0.005024
149 0.005988
156 0.005013
162 0.005022
168 0.006022
176 0.005985
180 0.006019
177 0.006028
147 0.005027
117 0.005017
104 0.005019
103 0.005018
109 0.00502
110 0.00502
112 0.005005
117 0.005024
123 0.006023
124 0.005018
125 0.006028
131 0.004989
138 0.004957
144 0.00502
150 0.00502
156 0.005024
177 0.005033
183 0.004962
190 0.004982
196 0.005018
201 0.005021
161 0.00502
117 0.004977
85 0.005035
87 0.005049
91 0.005021
91 0.005021
95 0.005001
106 0.005039
110 0.005019
111 0.005019
112 0.004968
115 0.005016
123 0.004023
132 0.005018
145 0.005031
154 0.005036
162 0.004993
169 0.005023
178 0.005022
179 0.00502
143 0.004987
99 0.00498
75 0.005018
71 0.00503
82 0.005017
88 0.005018
100 0.004025
106 0.004028
107 0.004023
104 0.004031
103 0.004063
111 0.005029
122 0.005039
133 0.005022
143 0.005021
152 0.005018
163 0.005029
172 0.005017
173 0.004029
132 0.004023
86 0.003992
61 0.004039
58 0.004026
65 0.005039
70 0.00503
74 0.005024
80 0.00497
85 0.005023
86 0.004021
84 0.004015
90 0.004025
101 0.003985
113 0.003995
126 0.004034
142 0.004986
164 0.004995
172 0.00501
177 0.005021
160 0.005019
110 0.005028
49 0.003986
28 0.004026
32 0.004037
34 0.00399
37 0.004036
47 0.003991
60 0.004005
70 0.004038
71 0.003991
76 0.005029
84 0.002992
96 0.004957
110 0.003989
119 0.004027
136 0.003956
145 0.004102
152 0.003991
131 0.003989
84 0.003981
39 0.003987
34 0.003951
41 0.004033
49 0.004046
54 0.004043
67 0.004021
80 0.003997
92 0.00399
94 0.003989
99 0.004016
107 0.004024
117 0.002993
129 0.003957
140 0.003995
154 0.004008
166 0.004023
176 0.003964
175 0.00401
137 0.004038
87 0.00402
76 0.00399
88 0.002994
96 0.00299
101 0.003025
110 0.003029
121 0.00399
127 0.004032
128 0.003992
127 0.004038
134 0.004037
144 0.003991
156 0.002997
168 0.003992
175 0.003014
186 0.003041
199 0.002994
187 0.00403
131 0.003009
104 0.003982
99 0.004026
106 0.004039
116 0.003975
130 0.003992
145 0.004004
146 0.002994
143 0.002994
142 0.002991
147 0.002994
156 0.002992
168 0.002992
179 0.003036
189 0.003991
198 0.004021
204 0.004029
206 0.004024
159 0.00399
111 0.003991
100 0.002992
106 0.002992
116 0.002991
121 0.002992
134 0.003989
141 0.002005
142 0.003989
142 0.003994
141 0.004039
149 0.002962
161 0.003027
172 0.002973
181 0.003041
188 0.002992
195 0.002992
201 0.002988
179 0.003977
134 0.002992
101 0.003025
92 0.004023
97 0.002997
103 0.002992
107 0.003989
119 0.004029
125 0.003956
129 0.002997
130 0.002989
133 0.002992
143 0.003005
151 0.002994
159 0.002995
168 0.00299
175 0.002992
183 0.002961
190 0.004025
155 0.003947
115 0.002031
96 0.003008
98 0.002992
105 0.002992
111 0.003025
117 0.002993
126 0.003029
132 0.002992
135 0.002992
136 0.002003
143 0.002992
155 0.003028
164 0.001988
172 0.002028
180 0.002993
189 0.002993
200 0.002992
208 0.002992
203 0.002981
167 0.002992
128 0.002992
109 0.001996
116 0.001995
122 0.001994
125 0.001981
132 0.001994
137 0.003009
138 0.003004
136 0.002992
139 0.002992
145 0.002992
154 0.002992
161 0.002992
171 0.001995
181 0.001995
188 0.001995
195 0.001995
195 0.001995
163 0.001994
127 0.002031
110 0.002046
118 0.002992
125 0.002992
132 0.002993
139 0.001988
150 0.002008
153 0.001995
154 0.002025
158 0.002029
165 0.002024
174 0.002
183 0.001912
193 0.002993
201 0.002005
210 0.002993
215 0.002993
219 0.003024
194 0.002028
143 0.001995
126 0.002027
129 0.002029
136 0.002006
138 0.001997
142 0.002023
151 0.001992
154 0.002029
153 0.001995
153 0.002994
156 0.001996
166 0.001966
173 0.002025
182 0.001996
189 0.002039
196 0.001995
203 0.001996
209 0.002027
203 0.001995
165 0.002026
126 0.001995
109 0.002006
108 0.001997
112 0.001852
111 0.00203
118 0.002026
124 0.002005
128 0.002035
128 0.00195
128 0.002012
134 0.001994
142 0.001963
149 0.002038
158 0.002027
166 0.002041
175 0.002009
182 0.002005
188 0.002006
188 0.001995
160 0.002
116 0.001996
89 0.001995
83 0.001995
88 0.002057
92 0.001996
94 0.001959
100 0.002026
107 0.001995
108 0.000998
106 0.001995
110 0.001997
116 0.002037
124 0.001999
131 0.001995
139 0.001995
148 0.002027
155 0.000997
162 0.000995
167 0.000998
172 0.002021
152 0.000998
107 0.001
71 0.001982
68 0.001014
74 0.001996
79 0.001997
83 0.002024
93 0.002032
100 0.000999
101 0.000998
99 0.001989
102 0.000997
116 0.002005
126 0.001029
139 0.000997
148 0.000997
157 0.000997
167 0.0
173 0.000998
182 0.001999
173 0.001998
132 0.001067
95 0.000999
80 0.001054
88 0.001004
98 0.000998
106 0.00099
115 0.000993
121 0.002002
122 0.001996
120 0.00199
124 0.001993
132 0.001995
141 0.002049
150 0.002042
156 0.002036
167 0.000998
173 0.000997
182 0.000998
189 0.001012
189 0.001995
154 0.001995
108 0.002026
74 0.001007
71 0.002032
75 0.001995
80 0.00105
81 0.001047
93 0.000999
96 0.000997
96 0.000998
96 0.000997
100 0.001004
108 0.000997
117 0.000998
128 0.000998
137 0.000997
147 0.000998
154 0.000998
161 0.000997
171 0.0
167 0.001001
111 0.000994
69 0.000997
50 0.000998
49 0.000997
54 0.000988
58 0.000998
63 0.000997
71 0.000998
75 0.0
75 0.0
76 0.0
83 0.0
96 0.0
105 0.0
114 0.001011
122 0.000996
131 0.000997
143 0.000998
150 0.000997
156 0.000998
156 0.0
123 0.0
46 0.0
28 0.0
32 0.0
40 0.0
45 0.0
54 0.000998
62 0.000997
67 0.000998
65 0.000997
67 0.000997
74 0.0
87 0.0
108 0.0
119 0.0
133 0.0
140 0.0
148 0.0
157 0.0
155 0.0
100 0.000998
57 0.001008
39 0.0
43 0.0
54 0.0
72 0.0
86 0.0
95 0.0
95 0.0
95 0.0
98 0.0
105 0.0
121 0.0
132 0.001003
141 0.0
150 0.0
158 0.0
171 0.0
173 0.0
125 0.0
76 0.0
47 0.0
43 0.0
50 0.0
60 0.000998
66 0.000997
76 0.000998
83 0.0
84 0.0
84 0.0
89 0.0
101 0.0
112 0.0
123 0.0
132 0.001015
140 0.0
150 0.0
158 0.000998
156 0.000995
114 0.000998
47 0.000952
22 0.0
26 0.0
37 0.0
42 0.0
51 0.002021
62 0.0
69 0.0
70 0.0
72 0.002025
79 0.002026
95 0.0
107 0.000991
125 0.000954
135 0.0
145 0.000966
154 0.002055
163 0.002024
143 0.0
89 0.0
43 0.0
23 0.00204
24 0.002027
34 0.000963
39 0.000951
56 0.0
64 0.0
67 0.001008
66 0.002024
71 0.000997
84 0.0
95 0.0
108 0.0
120 0.001997
129 0.002043
143 0.0
151 0.0
167 0.0
151 0.000965
97 0.0
50 0.002025
32 0.002028
39 0.0
52 0.0
61 0.0
73 0.002028
86 0.002028
92 0.0
91 0.0
98 0.0
108 0.0
122 0.0
135 0.00203
147 0.003053
162 0.000953
171 0.000966
178 0.0
188 0.002041
182 0.002034
115 0.0
70 0.0
55 0.0
64 0.0
73 0.0
81 0.001991
94 0.002032
107 0.0
108 0.0
108 0.0
112 0.001995
119 0.002029
135 0.0
148 0.001017
164 0.0
176 0.0
187 0.0
195 0.002046
202 0.002025
199 0.0
147 0.0
86 0.0
52 0.00198
48 0.002002
59 0.0
67 0.0
80 0.0
90 0.0
96 0.0
98 0.002025
100 0.002012
108 0.0
119 0.0
132 0.0
142 0.002032
154 0.00103
167 0.0
176 0.0
190 0.0
197 0.000986
203 0.0
169 0.002031
107 0.002029
54 0.000972
49 0.001008
58 0.0
67 0.002022
70 0.001993
85 0.0
95 0.0
100 0.000975
101 0.000969
109 0.0
120 0.001995
131 0.002025
145 0.0
157 0.0
166 0.0
174 0.002025
184 0.002038
196 0.000967
204 0.0
216 0.0
202 0.0
141 0.0
79 0.001997
45 0.002026
44 0.0
56 0.0
65 0.000969
75 0.002
89 0.001031
99 0.000951
100 0.0
101 0.0
109 0.0
120 0.0
132 0.002026
145 0.002026
162 0.0
173 0.0
183 0.0
192 0.002026
200 0.003026
212 0.0
214 0.0
120 0.0
69 0.0
48 0.0
53 0.002024
67 0.002027
85 0.0
99 0.0
111 0.000998
116 0.002992
115 0.003989
115 0.0
120 0.0
144 0.0
154 0.0
166 0.000966
179 0.002038
187 0.00203
201 0.0
209 0.001015
217 0.0
179 0.002994
110 0.002029
47 0.001996
38 0.000968
51 0.002955
68 0.0
81 0.0
96 0.0
105 0.001996
106 0.002031
104 0.001995
110 0.002004
121 0.002
134 0.003024
147 0.002993
164 0.001993
179 0.003034
192 0.001997
202 0.0
208 0.001063
173 0.002038
100 0.002028
31 0.001986
17 0.002001
23 0.001994
35 0.002993
43 0.003035
58 0.002
75 0.003033
78 0.001987
78 0.0
83 0.001021
93 0.00203
104 0.003025
122 0.001027
134 0.001994
147 0.002005
157 0.003003
169 0.003001
179 0.001993
124 0.002994
35 0.001993
2 0.001994
0 0.001997
11 0.002993
24 0.00299
40 0.001993
54 0.001996
64 0.00199
66 0.002992
65 0.00399
70 0.001996
84 0.002992
103 0.001996
116 0.001999
128 0.001991
139 0.003023
150 0.002993
164 0.002013
147 0.001995
83 0.001998
24 0.004025
0 0.004024
8 0.001998
24 0.00299
42 0.001995
58 0.0
68 0.0
71 0.002995
71 0.003009
77 0.001995
88 0.001982
101 0.002011
118 0.004021
130 0.003991
146 0.001996
161 0.004039
167 0.001978
124 0.002005
64 0.001998
29 0.00399
25 0.003031
43 0.002001
57 0.002001
71 0.001994
84 0.003039
94 0.003002
100 0.002006
104 0.002991
116 0.001995
130 0.001998
143 0.001998
154 0.003986
166 0.003992
180 0.002006
190 0.001988
196 0.001995
164 0.00303
102 0.002993
50 0.001964
47 0.003991
57 0.00199
63 0.002
71 0.002995
85 0.004042
94 0.00402
98 0.002003
98 0.001993
104 0.002997
114 0.00399
128 0.003989
145 0.001988
161 0.003024
177 0.003034
185 0.002991
195 0.001989
183 0.004039
131 0.003015
70 0.002032
56 0.001974
60 0.001993
68 0.003025
73 0.004016
83 0.002004
99 0.003983
105 0.00203
106 0.001995
110 0.001997
117 0.00399
129 0.003989
145 0.001995
155 0.000974
165 0.001993
177 0.003989
185 0.004033
194 0.002009
202 0.003989
186 0.001984
130 0.001996
81 0.001994
60 0.004023
60 0.00402
69 0.001048
73 0.001991
81 0.001985
91 0.00399
98 0.003989
99 0.001966
100 0.004031
110 0.001995
120 0.001991
131 0.002007
142 0.004022
150 0.004042
162 0.002034
173 0.002945
181 0.002944
188 0.004988
195 0.004986
206 0.001995
179 0.004987
104 0.001998
74 0.00197
68 0.000997
74 0.003989
83 0.003988
93 0.002007
103 0.001994
110 0.002963
113 0.002001
113 0.004986
115 0.004987
132 0.00502
144 0.00507
157 0.001992
166 0.001996
174 0.002035
184 0.00399
195 0.003967
204 0.00199
211 0.001996
218 0.002961
192 0.004972
138 0.004999
84 0.004988
82 0.005031
94 0.002018
99 0.001998
103 0.00201
113 0.003989
121 0.004994
122 0.002993
122 0.002975
126 0.002971
135 0.005027
145 0.005014
164 0.005019
174 0.004932
187 0.001963
197 0.001996
207 0.002936
217 0.004986
225 0.005015
218 0.002994
167 0.003025
112 0.002994
81 0.005023
73 0.004987
81 0.004991
84 0.004982
91 0.002958
100 0.002994
106 0.003009
108 0.004991
109 0.004987
115 0.002994
124 0.002995
135 0.002983
145 0.004987
157 0.004986
176 0.004986
187 0.004987
199 0.002962
206 0.003007
215 0.003962
199 0.00502
143 0.004987
77 0.002958
56 0.003957
56 0.002999
64 0.006018
70 0.005984
84 0.005956
93 0.005985
100 0.003003
101 0.002994
103 0.002996
109 0.005
120 0.00502
137 0.002982
148 0.002992
160 0.002985
172 0.004987
182 0.004987
195 0.004996
203 0.006019
217 0.003956
189 0.002992
128 0.002992
77 0.004986
54 0.004987
58 0.003002
69 0.003988
76 0.003961
87 0.006013
98 0.004987
105 0.005985
103 0.006015
107 0.003955
116 0.002996
129 0.002982
141 0.006022
154 0.004987
170 0.002956
182 0.003986
192 0.002992
204 0.006015
206 0.006027
122 0.004986
72 0.005952
53 0.00403
61 0.003992
75 0.004044
86 0.005943
100 0.005984
115 0.004007
120 0.003047
120 0.002991
124 0.005985
136 0.004987
164 0.005985
179 0.005984
194 0.003971
205 0.002979
218 0.002993
229 0.004986
240 0.005979
231 0.003977
170 0.003997
105 0.004
69 0.005982
62 0.005983
78 0.006012
88 0.005984
102 0.003988
112 0.002968
119 0.002972
120 0.005982
121 0.005993
129 0.00399
139 0.004014
151 0.003989
163 0.005987
175 0.005984
194 0.006029
203 0.006016
214 0.00495
216 0.002989
173 0.003957
103 0.006982
52 0.006981
38 0.00399
47 0.004035
58 0.003986
68 0.005985
80 0.006019
97 0.00602
99 0.00599
101 0.003948
105 0.002976
114 0.004954
124 0.006982
136 0.007015
151 0.003952
160 0.003975
170 0.003974
179 0.00598
186 0.006086
199 0.003999
165 0.006016
94 0.006016
24 0.003983
11 0.004991
18 0.004988
32 0.006982
43 0.007009
61 0.003991
73 0.003992
77 0.005042
77 0.005984
81 0.00397
91 0.006016
104 0.005986
122 0.004995
136 0.004022
150 0.005001
162 0.007014
173 0.006982
188 0.004936
194 0.003994
157 0.004025
88 0.007008
26 0.004007
31 0.006017
50 0.006014
70 0.003958
86 0.005024
99 0.004989
104 0.007013
104 0.006982
106 0.004986
111 0.004992
123 0.004997
137 0.007979
159 0.00399
171 0.005985
182 0.006933
195 0.004997
203 0.004947
210 0.004986
178 0.006982
104 0.006982
30 0.005018
17 0.004997
25 0.004995
40 0.007978
58 0.003978
74 0.006982
87 0.006966
88 0.004959
87 0.004985
90 0.004987
99 0.006981
111 0.007015
130 0.005009
145 0.004988
159 0.004997
177 0.007981
192 0.004991
202 0.006982
196 0.007939
109 0.005053
44 0.00499
14 0.004994
14 0.006972
26 0.006982
42 0.00497
54 0.00497
70 0.004993
81 0.006981
85 0.003989
85 0.006981
93 0.007979
109 0.00499
122 0.004986
136 0.004975
148 0.006981
158 0.006976
172 0.004991
182 0.005001
192 0.004983
161 0.007983
59 0.005009
8 0.006981
0 0.006982
10 0.005991
25 0.004961
39 0.004988
60 0.007978
70 0.007979
76 0.005025
74 0.004956
76 0.006028
86 0.006981
110 0.004986
126 0.006991
141 0.006974
157 0.004986
166 0.005978
178 0.00599
188 0.007969
142 0.007968
68 0.005978
20 0.00595
8 0.005985
25 0.007977
46 0.00499
63 0.007947
84 0.00797
92 0.004957
93 0.004988
92 0.005984
96 0.007016
106 0.008014
126 0.005993
139 0.005986
153 0.005986
169 0.007994
182 0.004956
195 0.007978
169 0.007978
91 0.004987
23 0.005987
63 0.004974
64 0.007981
71 0.007979
77 0.005986
84 0.005987
92 0.00599
99 0.007979
100 0.005987
102 0.007978
109 0.007976
115 0.005983
124 0.006017
132 0.006027
141 0.007993
146 0.007981
151 0.005951
157 0.005846
155 0.00602
111 0.007942
68 0.005987
58 0.007978
62 0.007976
71 0.006017
75 0.006013
83 0.005995
94 0.006983
97 0.007025
99 0.005986
100 0.005975
105 0.005985
114 0.007971
124 0.00598
135 0.007939
139 0.007975
147 0.006974
152 0.005985
157 0.006948
156 0.007979
125 0.006981
88 0.005994
67 0.005984
64 0.005978
70 0.005985
79 0.005989
86 0.005988
97 0.007973
101 0.00798
102 0.006964
102 0.006984
104 0.005963
113 0.007017
120 0.006982
128 0.005977
135 0.00601
142 0.005998
150 0.005975
154 0.00695
160 0.007012
157 0.007016
110 0.006956
86 0.006957
63 0.006982
65 0.007017
73 0.006981
79 0.005941
89 0.006031
95 0.005982
103 0.006978
102 0.005985
103 0.007019
108 0.006974
115 0.006981
124 0.006977
131 0.006981
140 0.006982
145 0.006982
150 0.006016
156 0.006015
161 0.00698
110 0.006959
87 0.006973
67 0.007017
71 0.00691
80 0.006983
90 0.006976
95 0.006947
107 0.007014
111 0.007017
112 0.005974
112 0.006013
117 0.005983
129 0.006979
135 0.006981
145 0.007011
152 0.007013
159 0.006975
163 0.00695
168 0.005988
172 0.006953
148 0.006968
96 0.005952
78 0.006015
70 0.005992
79 0.005963
82 0.006974
91 0.007043
100 0.007007
108 0.006979
109 0.006025
110 0.006988
113 0.006982
120 0.007025
129 0.006017
137 0.005988
144 0.005969
155 0.00698
161 0.005966
166 0.006017
170 0.00602
153 0.005986
127 0.00698
90 0.006962
70 0.007014
73 0.007016
83 0.006974
87 0.005981
92 0.005987
104 0.006991
108 0.005991
108 0.005983
109 0.005985
114 0.005985
121 0.005952
129 0.006982
136 0.006009
142 0.007019
151 0.005952
157 0.005988
161 0.00598
167 0.005972
149 0.005979
109 0.006027
78 0.005989
67 0.005983
72 0.006019
80 0.004987
85 0.005971
92 0.007023
101 0.006976
106 0.006009
106 0.005977
110 0.005987
115 0.005986
123 0.006021
131 0.006016
141 0.005993
147 0.005981
153 0.006003
158 0.005025
163 0.005981
169 0.005951
163 0.006979
119 0.005989
82 0.005956
83 0.005974
92 0.006019
99 0.005986
109 0.006947
119 0.00598
123 0.005984
123 0.006017
122 0.005992
126 0.005041
132 0.004988
139 0.005989
151 0.006028
158 0.005983
164 0.006014
170 0.006014
178 0.006001
183 0.005982
167 0.005996
134 0.006
109 0.006022
100 0.00598
106 0.004987
113 0.004981
122 0.00498
130 0.006005
134 0.005986
135 0.005982
136 0.005935
138 0.005983
144 0.00598
151 0.005003
157 0.005985
165 0.004988
172 0.004978
177 0.00496
185 0.004979
190 0.005995
191 0.004975
169 0.006072
128 0.005949
112 0.006002
110 0.005986
115 0.005028
119 0.006023
122 0.00503
131 0.005977
136 0.004973
139 0.004987
139 0.004985
143 0.004968
147 0.005028
154 0.006034
162 0.005975
169 0.005952
174 0.005977
180 0.005984
185 0.005985
190 0.005979
194 0.004986
166 0.005979
136 0.004981
119 0.005042
116 0.004984
120 0.005021
127 0.004987
130 0.004969
135 0.005039
139 0.006027
141 0.005017
142 0.006007
144 0.004985
151 0.004973
156 0.004991
162 0.005021
167 0.005023
172 0.005042
179 0.00498
182 0.004982
185 0.004973
210 0.005029
205 0.003987
154 0.004965
116 0.005022
97 0.004953
103 0.00499
109 0.004987
114 0.004981
121 0.005025
130 0.00499
131 0.004957
129 0.004995
130 0.004978
134 0.005023
143 0.003997
152 0.003991
165 0.004985
172 0.004988
178 0.004989
184 0.004989
191 0.005037
190 0.004953
155 0.004994
116 0.004988
94 0.005012
91 0.004988
103 0.004023
111 0.005036
128 0.00401
135 0.003993
136 0.004028
135 0.003982
136 0.00399
142 0.004953
150 0.004988
159 0.005038
168 0.005011
175 0.005037
185 0.00496
190 0.004952
199 0.004987
180 0.003991
138 0.003988
102 0.003989
87 0.004024
91 0.004987
100 0.003957
107 0.004966
115 0.003991
124 0.005024
128 0.004993
127 0.004952
127 0.00496
133 0.00402
142 0.005024
150 0.004027
157 0.003989
168 0.003997
176 0.005036
182 0.004026
188 0.003998
188 0.00399
139 0.005988
96 0.00399
73 0.004922
79 0.003991
90 0.003996
102 0.00403
111 0.003991
120 0.004024
123 0.004022
122 0.003998
121 0.003936
126 0.00399
135 0.005041
144 0.004997
159 0.004957
166 0.003989
172 0.004024
178 0.004016
184 0.003991
184 0.004026
148 0.004005
104 0.003991
77 0.003991
73 0.004069
84 0.003989
93 0.002992
106 0.004987
113 0.003984
114 0.004025
110 0.00395
108 0.003991
113 0.003991
120 0.00399
129 0.003991
139 0.003991
147 0.003023
158 0.00399
166 0.002993
176 0.003989
179 0.003991
151 0.003999
103 0.003995
68 0.003991
58 0.003991
67 0.003934
77 0.00397
86 0.004027
97 0.004006
107 0.003992
107 0.003951
105 0.004017
108 0.003956
116 0.003028
126 0.003034
135 0.00399
145 0.003935
153 0.004026
161 0.003991
168 0.003993
171 0.004021
126 0.005649
84 0.002964
65 0.003992
75 0.003018
88 0.00399
103 0.004041
121 0.003026
136 0.00399
136 0.004025
135 0.003018
134 0.003991
138 0.003024
147 0.003027
162 0.003027
174 0.003003
181 0.002991
188 0.003952
194 0.00303
178 0.003992
129 0.004014
75 0.003994
61 0.003022
65 0.003052
77 0.003042
85 0.002986
98 0.00299
109 0.003018
112 0.004046
109 0.003028
111 0.002996
119 0.003957
129 0.00298
140 0.004022
148 0.002994
158 0.002983
166 0.002996
172 0.002993
166 0.003037
103 0.003025
52 0.003036
46 0.003033
54 0.003007
66 0.003028
74 0.002028
87 0.001989
98 0.001995
103 0.002031
102 0.002992
103 0.003029
109 0.002975
121 0.003026
136 0.003023
144 0.003025
153 0.003073
161 0.002993
167 0.003028
173 0.003023
146 0.003023
92 0.003025
49 0.003034
35 0.002029
43 0.003025
54 0.003028
65 0.002038
76 0.003042
84 0.002996
85 0.002991
83 0.002996
87 0.002992
94 0.003
104 0.002993
113 0.002993
123 0.002986
134 0.002027
145 0.002024
153 0.001998
159 0.001983
151 0.002037
102 0.001995
53 0.001994
26 0.001996
32 0.002992
43 0.003061
53 0.003035
65 0.003032
80 0.003028
86 0.003027
84 0.002051
88 0.003026
97 0.001995
107 0.002015
119 0.002992
133 0.002011
142 0.002045
152 0.003029
160 0.002988
168 0.002993
168 0.003048
108 0.001995
53 0.002992
44 0.00203
52 0.002012
65 0.002994
76 0.00305
93 0.003001
103 0.002995
107 0.002043
107 0.003031
107 0.002042
115 0.003
128 0.002043
143 0.002991
152 0.001996
161 0.001999
170 0.002031
178 0.003026
188 0.00201
193 0.002053
192 0.002041
149 0.00299
90 0.002998
49 0.002031
51 0.002028
67 0.001994
75 0.00203
84 0.00198
96 0.002035
103 0.002044
105 0.003013
106 0.001987
111 0.002994
119 0.002042
131 0.001043
145 0.001964
159 0.002033
172 0.00203
180 0.002034
188 0.002035
195 0.001921
201 0.003037
181 0.004018
124 0.002024
75 0.001044
55 0.002036
58 0.001995
75 0.002034
89 0.001035
104 0.000998
112 0.001002
115 0.001005
113 0.002029
111 0.002035
117 0.002041
125 0.002036
136 0.002042
148 0.001985
159 0.002043
171 0.002028
183 0.002029
191 0.003025
197 0.001
200 0.001994
165 0.002026
105 0.001999
53 0.001995
46 0.001989
55 0.00203
67 0.00203
78 0.002044
93 0.001992
103 0.001034
103 0.002047
102 0.001033
106 0.001008
115 0.002018
125 0.002031
140 0.003062
150 0.001995
160 0.001981
170 0.001996
177 0.001043
186 0.001948
194 0.002031
146 0.000999
86 0.00101
50 0.002044
43 0.0
54 0.000998
70 0.002045
88 0.002039
104 0.002025
113 0.002043
113 0.001044
109 0.000998
109 0.000999
118 0.002007
132 0.00198
144 0.000998
153 0.002037
162 0.000999
170 0.001987
183 0.00204
189 0.002026
158 0.001024
101 0.001007
61 0.001996
53 0.001032
68 0.001001
88 0.00204
105 0.00196
118 0.001995
125 0.002039
126 0.002027
126 0.002008
130 0.002025
136 0.002044
145 0.002044
155 0.002032
173 0.000999
185 0.000999
198 0.002032
206 0.001014
185 0.001997
125 0.000998
72 0.000998
48 0.003016
55 0.00203
69 0.002042
82 0.001995
95 0.001979
113 0.002042
119 0.003021
122 0.002029
126 0.001046
133 0.0
144 0.001045
154 0.000998
167 0.001996
177 0.000998
187 0.002056
195 0.001006
203 0.002028
144 0.000996
86 0.00094
51 0.000997
55 0.0
68 0.001046
80 0.002025
91 0.000998
107 0.001023
111 0.001007
110 0.001031
108 0.000995
110 0.00095
123 0.000998
133 0.0
148 0.0
157 0.0
166 0.0
176 0.0
185 0.000997
173 0.001015
116 0.000998
59 0.000998
27 0.000998
24 0.000997
42 0.0
52 0.0
68 0.0
77 0.0
79 0.0
76 0.0
76 0.0
85 0.000999
94 0.001037
104 0.000998
114 0.000997
123 0.000997
135 0.0
143 0.0
151 0.0
120 0.0
64 0.0
112 0.0
126 0.0
126 0.001027
125 0.0
126 0.0
126 0.000998
125 0.0
125 0.0
125 0.0
125 0.0
126 0.0
125 0.0
126 0.0
126 0.0
125 0.0
127 0.0
139 0.0
138 0.0
84 0.0
0 0.000998
0 0.000997
9 0.0
29 0.0
45 0.0
63 0.0
76 0.0
80 0.0
79 0.0
83 0.0
93 0.0
107 0.0
132 0.0
149 0.000997
167 0.000998
179 0.001009
191 0.000999
180 0.000998
113 0.000997
22 0.0
0 0.002155
8 0.0
32 0.0
41 0.0
67 0.0
82 0.001027
89 0.001004
86 0.000999
89 0.000998
104 0.0
114 0.000998
134 0.000998
149 0.003036
164 0.000998
176 0.0
185 0.0
173 0.0
105 0.000948
36 0.0
5 0.001978
11 0.0
25 0.001013
36 0.001001
50 0.001999
67 0.002993
78 0.0
80 0.0
80 0.0
93 0.0
102 0.0
122 0.002028
136 0.002048
149 0.002039
166 0.001
177 0.0
184 0.0
191 0.002992
175 0.003028
79 0.0
20 0.0
9 0.000989
25 0.000977
40 0.000963
51 0.002041
67 0.002034
82 0.0
83 0.0
82 0.001015
84 0.002019
92 0.002033
108 0.001
122 0.0
141 0.0
152 0.0
163 0.000983
172 0.00304
181 0.003039
190 0.0
193 0.0
155 0.000952
77 0.002025
18 0.002042
3 0.001011
18 0.0
42 0.001
55 0.000951
72 0.001009
83 0.003026
84 0.003027
83 0.0
89 0.0
101 0.0
115 0.003024
130 0.003024
147 0.0
159 0.0
176 0.000948
185 0.000963
192 0.0
201 0.002028
205 0.002994
136 0.001001
70 0.000989
38 0.0
40 0.003028
57 0.003029
82 0.000979
100 0.001004
124 0.0
126 0.0
123 0.0
123 0.00304
132 0.002986
150 0.000983
167 0.0
180 0.000971
192 0.00203
202 0.001995
216 0.001001
226 0.000965
240 0.000988
238 0.000991
184 0.000954
111 0.002987
68 0.003023
62 0.0
76 0.0
90 0.0
100 0.002043
115 0.002043
133 0.0
136 0.001021
137 0.000999
144 0.001011
155 0.0
170 0.002993
184 0.002993
202 0.0
213 0.0
226 0.0
238 0.002029
248 0.002027
255 0.000943
255 0.001004
196 0.0
123 0.0
81 0.0
73 0.002026
84 0.002027
104 0.0
115 0.0
128 0.000969
141 0.002025
147 0.003024
148 0.0
149 0.001
165 0.0
180 0.0
192 0.000999
204 0.002005
214 0.002997
228 0.000963
239 0.0
189 0.0
194 0.00404
197 0.003022
201 0.0
193 0.0
135 0.001003
112 0.000948
105 0.000972
110 0.002031
118 0.002995
126 0.0
133 0.0
139 0.0
142 0.003022
141 0.00299
140 0.000966
143 0.0
153 0.000966
159 0.0
165 0.0
171 0.002022
176 0.001997
183 0.001031
188 0.000958
191 0.000988
195 0.003035
198 0.002031
199 0.001002
172 0.0
116 0.0
103 0.0
105 0.0
113 0.003046
121 0.003026
130 0.000971
136 0.000953
138 0.0
136 0.002037
133 0.001994
135 0.001
139 0.000966
148 0.0
153 0.0
157 0.000998
162 0.003024
167 0.003957
173 0.0
177 0.0
179 0.0
182 0.001992
183 0.002032
147 0.0
111 0.000966
87 0.0
90 0.0
99 0.0
107 0.002993
114 0.003025
123 0.000968
124 0.0
122 0.0
120 0.003023
122 0.003025
127 0.002028
136 0.000968
145 0.002993
153 0.000996
159 0.000996
165 0.0
170 0.002959
174 0.003005
180 0.0
167 0.002992
132 0.0
103 0.002997
91 0.003033
97 0.002006
111 0.002993
125 0.0
132 0.002989
135 0.000968
134 0.002992
131 0.002992
131 0.00299
136 0.002029
142 0.002068
147 0.003024
154 0.003035
161 0.0
169 0.00399
176 0.0
180 0.00097
184 0.002005
167 0.003991
129 0.004033
91 0.0
83 0.002992
87 0.002995
94 0.002994
101 0.002985
110 0.002997
116 0.003007
118 0.003026
116 0.000968
118 0.000962
122 0.004013
128 0.00399
137 0.00299
143 0.002988
149 0.002993
154 0.003028
159 0.003028
164 0.003005
169 0.003039
150 0.001993
113 0.003
84 0.000958
74 0.004025
75 0.00402
85 0.002985
91 0.003001
98 0.001997
103 0.003027
107 0.002956
106 0.001996
108 0.004022
114 0.00198
122 0.002993
129 0.00198
135 0.004041
140 0.003993
149 0.00201
154 0.001997
159 0.001995
163 0.003978
166 0.003033
136 0.002002
89 0.002992
70 0.002994
71 0.00204
78 0.001999
84 0.00399
91 0.00399
99 0.001977
101 0.002
100 0.001998
99 0.00403
99 0.004034
105 0.004012
114 0.003948
123 0.002987
129 0.002979
134 0.002999
139 0.00399
143 0.004043
147 0.003043
150 0.002991
136 0.002007
99 0.003987
69 0.004996
57 0.003002
64 0.004026
74 0.000997
80 0.003017
88 0.002991
93 0.004021
94 0.003991
93 0.002993
95 0.002004
100 0.0
107 0.003991
115 0.004023
124 0.002004
133 0.00399
142 0.001993
147 0.003984
151 0.003032
156 0.003989
156 0.004032
119 0.002005
87 0.001987
71 0.001985
73 0.004027
82 0.003994
95 0.001992
107 0.005016
115 0.002
116 0.002987
116 0.002998
116 0.003972
120 0.004014
129 0.003033
137 0.002991
143 0.002005
150 0.00403
157 0.00402
165 0.003002
171 0.003995
176 0.003008
163 0.002043
126 0.003001
93 0.00502
78 0.00499
81 0.00199
90 0.002991
97 0.002991
103 0.004979
111 0.004986
117 0.00303
116 0.003954
116 0.002022
120 0.002937
126 0.002939
133 0.004988
140 0.005009
149 0.001991
155 0.001969
161 0.002001
165 0.004984
169 0.004985
168 0.00299
123 0.005021
89 0.004024
71 0.002989
75 0.002994
83 0.003005
89 0.004987
95 0.004987
104 0.001996
109 0.001994
110 0.001995
109 0.005018
111 0.004978
119 0.004987
126 0.006017
136 0.003
142 0.003997
149 0.002992
155 0.004988
161 0.004988
167 0.001993
168 0.001997
143 0.001992
103 0.004983
77 0.004985
72 0.005945
79 0.005984
86 0.002963
92 0.002993
99 0.003011
103 0.004977
104 0.004987
103 0.003002
103 0.001995
108 0.002002
115 0.005022
122 0.005022
133 0.005015
139 0.005984
145 0.003004
149 0.003006
153 0.002995
154 0.004986
130 0.005019
81 0.002988
62 0.002991
61 0.002991
69 0.004954
78 0.005029
91 0.004956
99 0.005035
103 0.003004
103 0.001995
103 0.002994
106 0.006015
113 0.005889
123 0.002995
129 0.00203
134 0.00199
140 0.005034
146 0.005023
156 0.005987
160 0.005983
131 0.002994
95 0.002961
73 0.002985
70 0.005984
78 0.005984
90 0.002992
98 0.002984
107 0.003007
114 0.005018
116 0.005021
115 0.005985
118 0.005984
127 0.002952
135 0.002993
142 0.002993
149 0.005984
155 0.006016
163 0.002996
169 0.003002
173 0.002989
171 0.004986
142 0.005985
83 0.005987
73 0.00601
79 0.003996
87 0.003041
92 0.003026
99 0.005983
106 0.005984
113 0.002994
113 0.002994
114 0.003031
117 0.00592
123 0.006018
135 0.006983
142 0.006982
150 0.00399
156 0.003936
163 0.00397
168 0.005994
172 0.005984
164 0.002982
128 0.003991
93 0.002992
77 0.005988
78 0.006019
91 0.005984
96 0.005982
105 0.004011
112 0.00399
115 0.00399
115 0.00599
115 0.006003
121 0.00399
128 0.003993
136 0.00299
144 0.005961
151 0.006025
161 0.007014
165 0.006985
171 0.00401
174 0.004007
178 0.003982
162 0.006983
122 0.00602
81 0.002995
74 0.003944
79 0.002959
87 0.005984
93 0.005984
105 0.006982
110 0.006992
111 0.002943
110 0.003989
111 0.003019
115 0.006981
121 0.006019
131 0.003986
137 0.003993
143 0.003995
149 0.005982
154 0.005985
161 0.005985
166 0.005984
151 0.003989
114 0.003999
85 0.004005
74 0.006983
78 0.00698
91 0.003943
100 0.003945
109 0.00399
118 0.005986
120 0.006029
118 0.007023
119 0.005984
126 0.003981
134 0.003993
142 0.00402
148 0.006982
153 0.00698
159 0.006951
168 0.003997
175 0.003992
180 0.003006
160 0.005985
99 0.004955
84 0.005984
85 0.006981
97 0.00399
104 0.003984
111 0.003959
119 0.00698
124 0.006983
124 0.004005
124 0.003988
127 0.00399
132 0.006982
145 0.004002
152 0.006991
158 0.006996
166 0.004954
171 0.004943
175 0.004009
180 0.006977
171 0.006982
120 0.00395
89 0.003956
79 0.003992
83 0.007009
96 0.003991
104 0.007976
110 0.007019
119 0.004958
121 0.003992
121 0.004021
121 0.006919
126 0.006981
134 0.00399
141 0.004036
148 0.004023
155 0.006983
167 0.003994
172 0.007981
176 0.007981
176 0.004997
148 0.004991
108 0.004979
84 0.00798
80 0.006982
90 0.003989
98 0.003978
104 0.003992
112 0.006981
121 0.004985
122 0.007975
121 0.007978
123 0.004988
127 0.004991
134 0.003983
142 0.00797
146 0.007927
153 0.004987
158 0.004987
162 0.004987
166 0.006981
157 0.003988
119 0.00798
86 0.007946
72 0.004986
78 0.003934
87 0.004975
95 0.00701
106 0.007979
113 0.004977
115 0.005011
114 0.005015
113 0.007941
119 0.004965
130 0.007023
135 0.006981
145 0.005983
152 0.003997
157 0.004989
165 0.007969
170 0.007956
159 0.004991
122 0.004986
92 0.004988
80 0.007969
92 0.004991
105 0.007969
116 0.00798
126 0.004991
131 0.004977
130 0.004984
127 0.007959
127 0.007974
132 0.004983
138 0.004987
145 0.005004
152 0.00697
164 0.004984
172 0.007965
175 0.007995
180 0.005985
158 0.004989
117 0.004988
85 0.006976
74 0.007014
80 0.005986
88 0.005022
93 0.005017
100 0.007977
114 0.005983
117 0.007944
117 0.007976
119 0.004997
123 0.004973
130 0.00501
137 0.007975
147 0.007978
153 0.005998
160 0.005985
164 0.005984
169 0.007978
159 0.005984
108 0.007978
87 0.007964
74 0.004987
81 0.004988
89 0.004984
97 0.006981
104 0.006984
111 0.005954
114 0.004989
114 0.005939
114 0.006939
119 0.006
128 0.007018
136 0.007017
143 0.005987
149 0.006974
155 0.005981
159 0.007936
165 0.007978
165 0.004952
137 0.004987
98 0.005946
71 0.007951
75 0.005995
86 0.007981
93 0.006972
102 0.005984
110 0.00499
112 0.004991
110 0.006971
109 0.006983
112 0.00595
118 0.00599
126 0.005019
135 0.006975
143 0.005995
150 0.007971
156 0.007983
162 0.006975
152 0.004983
115 0.006005
77 0.006988
71 0.006977
77 0.006981
88 0.005983
98 0.005982
110 0.00598
130 0.00602
132 0.006951
131 0.007026
131 0.007
134 0.006979
140 0.005982
146 0.005972
154 0.006995
161 0.006978
167 0.005975
175 0.005988
173 0.005987
104 0.005984
88 0.005987
82 0.007029
85 0.007979
95 0.006015
103 0.00598
113 0.005939
121 0.00697
122 0.006975
121 0.005975
122 0.005952
127 0.00597
142 0.006019
150 0.006018
157 0.006982
162 0.006018
167 0.005977
173 0.005988
168 0.005966
121 0.006985
89 0.006966
78 0.005984
82 0.005986
90 0.005986
100 0.006015
109 0.006027
115 0.006025
116 0.005985
115 0.006981
116 0.005987
120 0.005984
129 0.007014
136 0.006981
145 0.005984
149 0.004983
157 0.005974
166 0.005972
160 0.006015
128 0.006036
95 0.006037
78 0.006966
81 0.006014
85 0.006946
92 0.006966
97 0.006846
106 0.005979
113 0.006013
113 0.005978
112 0.005961
116 0.005981
121 0.006018
128 0.005985
133 0.005947
138 0.005987
143 0.005985
149 0.006982
152 0.006977
156 0.00602
140 0.006012
105 0.005945
71 0.005952
75 0.00599
82 0.005984
88 0.006029
98 0.005982
104 0.005982
108 0.00597
108 0.006027
108 0.006018
113 0.005976
120 0.006977
125 0.005983
141 0.005964
148 0.005968
153 0.006019
157 0.005976
163 0.005979
160 0.005983
133 0.006026
103 0.005982
88 0.005969
93 0.006012
102 0.005983
109 0.005969
122 0.004987
128 0.005018
129 0.005985
129 0.006016
