35 0.020064
38 0.004994
35 0.00496
29 0.005004
34 0.004999
47 0.005956
64 0.006934
71 0.006941
76 0.005983
80 0.006981
84 0.006036
84 0.004947
40 0.004987
7 0.005026
63 0.003989
68 0.004022
68 0.003983
66 0.004023
69 0.003996
73 0.003025
79 0.002983
85 0.002992
93 0.003032
95 0.003004
98 0.002991
98 0.001023
99 0.000966
103 0.000997
96 0.000967
73 0.0
70 0.000985
79 0.0
85 0.000995
92 0.000987
96 0.0
94 0.000998
92 0.001995
95 0.001995
103 0.001996
111 0.002012
121 0.001995
131 0.001996
133 0.00399
135 0.00399
122 0.00399
102 0.004997
93 0.004986
99 0.006984
100 0.006981
101 0.005983
105 0.00601
107 0.006
111 0.004026
118 0.002037
124 0.001022
132 0.000998
136 0.001994
137 0.002
140 0.001995
140 0.00399
139 0.003989
119 0.006032
95 0.007979
91 0.006941
73 0.007009
80 0.006987
80 0.006982
83 0.005986
81 0.007021
77 0.006019
80 0.006019
87 0.005977
97 0.005984
103 0.00503
113 0.003989
120 0.00399
129 0.003982
134 0.001995
117 0.0
67 0.000964
57 0.001003
59 0.001984
63 0.002993
58 0.002993
59 0.00399
61 0.005014
57 0.006027
60 0.006027
65 0.006981
73 0.006982
81 0.007045
85 0.00703
91 0.007015
93 0.007027
95 0.007022
93 0.007024
61 0.007023
34 0.007022
41 0.007021
50 0.007939
50 0.007979
48 0.007938
51 0.006983
43 0.005974
38 0.005942
41 0.005995
50 0.005938
63 0.005984
77 0.003006
87 0.004027
91 0.003001
96 0.003003
75 0.002991
33 0.002012
23 0.000998
27 0.0
30 0.0
33 0.0
46 0.0
53 0.0
53 0.0
56 0.0
65 0.0
67 0.0
79 0.000983
83 0.001001
88 0.000998
91 0.000997
90 0.000998
56 0.001965
21 0.001956
4 0.002006
0 0.003869
0 0.005036
0 0.006026
0 0.006017
0 0.00703
0 0.00701
0 0.00698
0 0.007015
0 0.006985
6 0.007011
11 0.005983
23 0.006041
32 0.006
37 0.004986
39 0.005992
2 0.00503
0 0.005019
0 0.003989
0 0.004031
0 0.001994
0 0.000998
0 0.00099
0 0.000955
0 0.000961
60 0.0
70 0.0
75 0.0
82 0.0
85 0.0
88 0.001003
94 0.001002
99 0.000997
103 0.001019
102 0.001995
84 0.001987
62 0.002027
64 0.002024
70 0.001995
71 0.002992
73 0.00399
78 0.004046
77 0.004023
79 0.005017
85 0.006028
96 0.006952
102 0.006951
112 0.007026
116 0.007937
126 0.007022
131 0.006004
132 0.006961
130 0.004048
104 0.003994
100 0.003035
104 0.002041
109 0.002139
112 0.001995
128 0.001008
138 0.001995
142 0.001003
142 0.00204
146 0.001003
155 0.002034
170 0.001023
178 0.002153
193 0.001989
199 0.001004
202 0.001968
201 0.001996
178 0.003032
150 0.00299
138 0.003029
138 0.003023
135 0.002994
134 0.004879
133 0.005014
131 0.00502
130 0.005018
137 0.005023
142 0.007933
150 0.00794
157 0.007979
159 0.007932
161 0.00787
165 0.006943
169 0.00695
175 0.006927
172 0.005984
148 0.004987
131 0.005987
128 0.005033
129 0.005026
125 0.004986
127 0.003035
131 0.003034
137 0.002005
137 0.002033
143 0.00204
149 0.001997
151 0.002036
153 0.002017
153 0.000997
155 0.0
159 0.0
162 0.0
164 0.0
146 0.002022
124 0.002049
108 0.001995
110 0.001996
113 0.001985
111 0.003989
112 0.004986
111 0.004986
109 0.004957
108 0.004955
112 0.006948
118 0.006983
121 0.00695
127 0.007025
131 0.007022
133 0.007028
145 0.007012
121 0.005979
78 0.005985
64 0.005984
70 0.005994
81 0.005042
90 0.005947
101 0.005038
106 0.005984
107 0.005119
113 0.005941
128 0.006
137 0.005987
148 0.005983
152 0.006025
156 0.006025
157 0.004023
136 0.00499
85 0.00399
59 0.003946
60 0.003988
66 0.00399
66 0.003991
79 0.003011
84 0.002987
84 0.002963
88 0.003008
92 0.003034
100 0.003035
110 0.003005
118 0.003037
135 0.003005
144 0.002993
129 0.003033
69 0.003026
49 0.002994
46 0.003034
47 0.002044
47 0.002998
57 0.002024
63 0.003031
67 0.002032
69 0.00204
77 0.002023
98 0.001049
115 0.000995
133 0.001026
143 0.001001
149 0.0
151 0.0
133 0.0
90 0.000968
39 0.001996
33 0.002035
34 0.002028
32 0.003017
40 0.003991
49 0.006022
50 0.007979
50 0.007024
54 0.006059
74 0.004969
88 0.004047
96 0.005033
103 0.001995
112 0.00104
117 0.001041
109 0.002039
70 0.002034
31 0.002028
36 0.002029
41 0.002024
47 0.002033
55 0.001004
64 0.001028
66 0.002037
72 0.001168
83 0.002035
95 0.000995
107 0.001015
118 0.0
125 0.0
133 0.0
136 0.0
121 0.000997
67 0.000984
19 0.003029
11 0.003133
0 0.004956
0 0.00498
0 0.004988
0 0.004987
0 0.004896
0 0.004958
0 0.005949
0 0.006956
0 0.007012
6 0.007994
15 0.006981
27 0.006991
43 0.004995
53 0.003983
61 0.004039
52 0.004041
0 0.003989
0 0.002982
0 0.00304
0 0.000974
0 0.0
0 0.0
0 0.0
0 0.0
0 0.001999
16 0.002994
34 0.002992
44 0.003025
62 0.003029
72 0.002992
90 0.002992
107 0.002997
117 0.003001
134 0.002993
143 0.002959
153 0.005008
118 0.005985
60 0.005953
39 0.006019
49 0.006015
55 0.005984
58 0.007954
72 0.007028
78 0.007027
81 0.005033
83 0.004046
92 0.003005
102 0.002996
120 0.001046
124 0.001038
135 0.001002
143 0.001022
153 0.0
162 0.002036
173 0.000994
179 0.001997
187 0.0
152 0.000948
79 0.000998
64 0.00102
68 0.001046
73 0.000999
77 0.001161
88 0.0
90 0.000997
89 0.000996
99 0.0
106 0.0
132 0.0
138 0.000998
151 0.002019
160 0.001995
172 0.001995
190 0.00203
201 0.001995
204 0.001997
139 0.002028
99 0.002026
84 0.003042
93 0.002994
99 0.002992
107 0.003003
117 0.002992
125 0.00399
142 0.004987
167 0.00498
180 0.004987
189 0.004987
194 0.006036
201 0.007973
217 0.007986
222 0.007982
227 0.007024
228 0.007978
193 0.006977
109 0.007022
85 0.006981
82 0.007027
85 0.007035
85 0.006973
92 0.007027
97 0.007016
101 0.006108
101 0.005985
111 0.006016
121 0.007029
132 0.006013
144 0.007023
151 0.007021
153 0.007031
161 0.007028
166 0.005035
168 0.005028
92 0.004147
51 0.004003
31 0.004035
39 0.004038
42 0.004034
52 0.004036
57 0.004028
57 0.004041
60 0.002994
69 0.003007
89 0.001955
96 0.001994
109 0.000985
120 0.001995
133 0.000997
144 0.002027
154 0.001996
161 0.002062
139 0.0
86 0.0
27 0.0
23 0.000998
30 0.0
32 0.0
47 0.000999
53 0.002023
56 0.001995
60 0.001962
73 0.001995
93 0.001996
103 0.001995
118 0.001995
133 0.002992
142 0.004022
154 0.00399
161 0.004025
122 0.00399
55 0.004046
27 0.005028
33 0.004107
40 0.004018
47 0.005961
61 0.007
66 0.006026
70 0.006938
80 0.006991
90 0.007028
111 0.006024
130 0.006147
143 0.00602
161 0.00599
172 0.006034
186 0.004976
195 0.005022
168 0.005033
77 0.005027
44 0.004999
39 0.004996
42 0.006037
42 0.005158
53 0.006025
66 0.006037
68 0.006037
73 0.006025
83 0.005974
104 0.006014
124 0.005036
135 0.004986
153 0.003996
162 0.005027
171 0.004037
181 0.004029
187 0.004007
114 0.003986
59 0.004036
26 0.004033
30 0.00399
31 0.004025
34 0.00399
53 0.004022
61 0.00298
64 0.004028
75 0.002993
90 0.002992
112 0.002045
123 0.002022
142 0.001995
157 0.001189
165 0.001996
180 0.001997
186 0.001995
198 0.001032
148 0.000953
86 0.0
33 0.0
34 0.000999
41 0.001995
43 0.002025
52 0.001866
68 0.002032
71 0.001996
76 0.001996
92 0.002027
103 0.003029
121 0.004987
139 0.004971
154 0.007021
165 0.006978
176 0.006988
185 0.00697
195 0.006973
138 0.00705
77 0.007023
37 0.00702
40 0.006029
46 0.006025
55 0.003992
73 0.00399
77 0.003982
80 0.002033
88 0.000966
107 0.000999
127 0.001018
138 0.001045
155 0.000969
169 0.001032
177 0.000998
191 0.001021
179 0.0
103 0.000998
38 0.000998
34 0.0
45 0.0
50 0.0
68 0.0
83 0.0
88 0.0
90 0.0
107 0.000997
118 0.000998
137 0.000998
148 0.000997
164 0.002028
180 0.002986
188 0.004072
200 0.004977
188 0.006971
129 0.006967
41 0.006999
28 0.005027
32 0.004988
36 0.005026
44 0.005031
61 0.002008
70 0.001995
74 0.002029
83 0.001995
105 0.001999
125 0.000915
138 0.001996
153 0.003991
168 0.004991
178 0.007016
188 0.007022
199 0.005999
205 0.00613
178 0.00603
68 0.00402
32 0.003992
32 0.004013
39 0.004952
41 0.004033
54 0.005132
65 0.004026
71 0.004023
82 0.002037
94 0.00205
116 0.002025
136 0.0
147 0.0
158 0.0
171 0.000997
176 0.001995
187 0.001995
196 0.003991
204 0.005984
176 0.006973
65 0.006978
31 0.007022
29 0.006988
37 0.006984
42 0.007099
57 0.007011
67 0.006029
71 0.004995
76 0.004042
91 0.003027
107 0.001995
127 0.001028
137 0.001033
153 0.000998
170 0.0
178 0.000998
190 0.0
194 0.001033
136 0.000997
49 0.000998
39 0.0
49 0.001995
54 0.002993
66 0.003989
84 0.00403
94 0.004034
101 0.004008
121 0.003985
131 0.003942
148 0.004985
163 0.005989
173 0.005983
188 0.007035
199 0.006956
206 0.006972
196 0.006978
137 0.007021
60 0.007023
33 0.007158
37 0.006982
41 0.007028
50 0.005985
64 0.006982
78 0.005976
80 0.006982
93 0.005021
114 0.004986
125 0.004949
143 0.005027
153 0.004986
172 0.005014
183 0.005019
191 0.004986
201 0.005039
194 0.005031
115 0.006022
33 0.005019
27 0.002995
36 0.003023
42 0.003033
49 0.003026
68 0.002992
71 0.000998
73 0.000997
84 0.000997
104 0.00203
128 0.0
144 0.0
156 0.0
167 0.0
178 0.001996
184 0.002032
194 0.001959
188 0.001958
134 0.013968
88 0.000997
21 0.00296
31 0.003058
39 0.003001
49 0.002956
65 0.004031
67 0.005021
76 0.004981
93 0.00498
108 0.004995
123 0.004992
139 0.005988
147 0.00698
159 0.007979
173 0.007019
184 0.006983
150 0.004022
51 0.002034
30 0.002036
42 0.002031
52 0.002029
68 0.002042
88 0.002035
92 0.002035
97 0.001004
107 0.002038
126 0.001035
143 0.002008
158 0.001045
171 0.002035
190 0.001995
197 0.0
209 0.0
171 0.0
105 0.0
41 0.001008
40 0.001996
49 0.003949
57 0.004975
70 0.004985
88 0.005007
94 0.004987
101 0.005027
121 0.004986
145 0.007022
154 0.006023
171 0.005025
187 0.006026
199 0.005023
210 0.006016
220 0.004998
211 0.006019
108 0.006018
63 0.006016
51 0.005986
60 0.003033
62 0.00399
79 0.003034
91 0.002992
101 0.002035
108 0.001997
119 0.002002
142 0.001994
164 0.0
173 0.0
187 0.000992
202 0.001003
211 0.003024
222 0.003983
225 0.004038
182 0.004033
79 0.00599
55 0.005978
60 0.006024
66 0.005974
71 0.005984
87 0.005977
101 0.005994
104 0.006026
111 0.006981
120 0.006983
134 0.007021
155 0.005987
167 0.006984
186 0.006008
202 0.005016
210 0.004019
221 0.004019
231 0.00303
213 0.001997
104 0.002116
67 0.001988
68 0.002035
83 0.002992
91 0.002025
107 0.00302
118 0.002031
120 0.003021
127 0.002992
137 0.001995
160 0.002029
180 0.000998
188 0.001987
203 0.001027
209 0.002031
219 0.000992
195 0.0
135 0.0
64 0.000939
57 0.0
64 0.0
69 0.0
81 0.0
104 0.0
114 0.0
120 0.0
141 0.0
155 0.000964
181 0.001995
199 0.003989
214 0.001986
225 0.002996
231 0.002952
223 0.00297
146 0.002968
60 0.003001
30 0.00399
40 0.003997
48 0.003987
63 0.004016
80 0.004031
96 0.003951
97 0.004977
103 0.004814
128 0.004976
149 0.004988
160 0.004982
179 0.004986
189 0.005023
204 0.004988
215 0.005032
196 0.005022
92 0.005989
52 0.006001
47 0.007012
62 0.007979
75 0.006986
89 0.005985
103 0.004986
106 0.004987
103 0.004987
117 0.003031
129 0.004986
152 0.002986
163 0.003989
183 0.002999
198 0.003032
207 0.003033
213 0.003034
192 0.002035
124 0.002034
37 0.002027
30 0.002025
45 0.002025
51 0.002035
66 0.000994
81 0.001031
84 0.000988
85 0.000999
99 0.000997
112 0.001009
133 0.001998
160 0.004988
184 0.005022
192 0.006015
203 0.005975
199 0.005834
108 0.006024
56 0.005986
64 0.005984
86 0.005976
95 0.006016
118 0.005982
130 0.00603
132 0.006003
140 0.00701
158 0.007983
173 0.006038
183 0.006959
189 0.006019
202 0.007009
216 0.007007
222 0.007015
180 0.00698
79 0.005016
56 0.004987
62 0.00298
69 0.003981
81 0.003035
103 0.002982
112 0.002991
114 0.002994
124 0.002002
136 0.001043
155 0.000971
166 0.001009
185 0.000998
198 0.0
206 0.0
213 0.0
153 0.000969
89 0.000969
48 0.001017
52 0.000998
64 0.000997
72 0.000982
88 0.001013
98 0.000998
101 0.002948
107 0.002985
124 0.003029
137 0.003988
155 0.004033
170 0.006032
181 0.005002
201 0.006031
209 0.006006
211 0.00601
145 0.005966
51 0.006984
39 0.005983
49 0.00798
55 0.006015
64 0.00595
78 0.007083
86 0.005974
84 0.005969
92 0.004986
102 0.004981
118 0.005021
126 0.004987
143 0.00497
155 0.003032
164 0.002992
171 0.002004
138 0.002046
70 0.001999
7 0.001982
11 0.002024
37 0.001047
58 0.000998
68 0.000998
82 0.00099
75 0.001006
79 0.001004
104 0.000996
130 0.001996
146 0.002
166 0.002
178 0.002992
193 0.002956
199 0.002992
133 0.002992
55 0.002953
35 0.004022
45 0.004033
58 0.003992
68 0.00396
88 0.005987
94 0.006015
96 0.006016
111 0.006023
133 0.005984
146 0.006019
165 0.007038
177 0.007033
196 0.006988
207 0.006003
210 0.005985
119 0.006025
45 0.006984
27 0.005979
38 0.005031
53 0.003987
63 0.002991
84 0.001034
89 0.001009
91 0.001002
101 0.000984
120 0.000989
136 0.000997
154 0.001008
164 0.000987
185 0.000998
203 0.002012
211 0.001981
210 0.002967
98 0.005028
43 0.007007
33 0.007021
51 0.006981
57 0.007012
77 0.007027
90 0.006978
97 0.006982
104 0.007932
110 0.005984
125 0.005984
145 0.004981
155 0.005982
173 0.002988
183 0.00399
195 0.002948
204 0.003035
208 0.00299
200 0.003023
79 0.000988
19 0.001
7 0.000998
18 0.000996
33 0.000991
50 0.00105
59 0.000996
58 0.001019
60 0.000998
68 0.001007
92 0.000998
109 0.002968
124 0.003995
142 0.00403
159 0.005005
166 0.005955
168 0.005906
113 0.006015
17 0.007014
13 0.007029
32 0.00702
55 0.00701
79 0.007016
90 0.006031
92 0.005982
93 0.005018
107 0.006029
130 0.005988
144 0.005987
165 0.004999
183 0.004987
198 0.003039
211 0.003986
198 0.002991
102 0.003989
23 0.003987
19 0.003993
37 0.002996
50 0.002001
65 0.002992
80 0.002
81 0.001991
86 0.001052
105 0.002007
118 0.001033
137 0.000997
158 0.001008
170 0.001012
185 0.000998
193 0.000999
112 0.000998
14 0.000994
2 0.000993
18 0.002994
29 0.003981
40 0.004985
63 0.006031
66 0.006981
68 0.005976
78 0.00698
100 0.004984
117 0.004989
138 0.003983
157 0.003011
166 0.002984
178 0.000994
112 0.0
64 0.0
3 0.0
11 0.0
19 0.0
34 0.0
49 0.0
60 0.0
60 0.000964
66 0.000959
87 0.000958
100 0.000991
119 0.000998
139 0.000993
148 0.000978
165 0.000997
154 0.001001
55 0.000998
17 0.000998
24 0.001005
40 0.000997
61 0.003021
77 0.003962
91 0.005027
92 0.006018
104 0.007013
124 0.006995
150 0.00698
165 0.007037
185 0.007058
192 0.005019
202 0.004999
151 0.003156
101 0.003049
78 0.002004
90 0.002991
98 0.0
110 0.000986
130 0.000983
134 0.000984
134 0.000998
140 0.001086
161 0.000992
176 0.000997
193 0.0
206 0.0
222 0.0
229 0.0
216 0.0
166 0.0
108 0.0
108 0.0
113 0.0
122 0.0
142 0.00304
151 0.002992
156 0.001998
160 0.002955
178 0.002034
194 0.003023
207 0.002952
221 0.002999
235 0.003023
189 0.004021
196 0.00501
196 0.004994
162 0.005028
138 0.005061
138 0.004983
143 0.004987
143 0.005015
148 0.005071
155 0.004926
155 0.005985
157 0.006949
161 0.007024
164 0.006935
169 0.004999
174 0.004998
179 0.002991
184 0.00399
188 0.003007
191 0.004006
176 0.003989
152 0.004032
132 0.003999
133 0.001983
135 0.001992
138 0.000997
143 0.002037
146 0.000996
145 0.000998
148 0.0
155 0.001022
165 0.001007
170 0.002026
177 0.001995
184 0.001989
188 0.002043
192 0.00199
189 0.002954
157 0.00202
146 0.003029
150 0.002993
159 0.003
163 0.002997
173 0.002993
174 0.003029
171 0.003025
172 0.003008
175 0.003007
178 0.002995
182 0.002993
238 0.004988
246 0.005127
191 0.006015
193 0.005976
197 0.006017
186 0.006022
151 0.006019
138 0.006025
140 0.006016
140 0.006024
140 0.00703
143 0.007018
143 0.007023
142 0.006025
145 0.005978
150 0.005975
156 0.005002
162 0.004153
168 0.003989
172 0.003989
177 0.003994
183 0.002997
186 0.003979
185 0.001002
152 0.0
138 0.0
133 0.002037
133 0.001978
132 0.001964
134 0.001995
136 0.002023
134 0.002962
132 0.003989
134 0.004018
140 0.004031
143 0.004024
150 0.002961
155 0.003895
158 0.004022
166 0.004003
168 0.006024
172 0.006005
152 0.006028
119 0.007979
108 0.006975
110 0.00696
114 0.007007
115 0.007022
120 0.005972
121 0.006978
121 0.006155
127 0.005029
132 0.004031
143 0.002997
146 0.00299
157 0.000978
166 0.0
171 0.001039
174 0.000826
136 0.000967
102 0.000998
84 0.001001
95 0.000999
100 0.000997
111 0.000957
117 0.001873
120 0.000997
120 0.000972
128 0.001991
138 0.001992
151 0.003027
158 0.00402
168 0.003984
175 0.00403
184 0.004035
186 0.004013
157 0.003991
96 0.00406
79 0.00399
83 0.004032
87 0.00403
91 0.004016
101 0.004026
103 0.004018
103 0.005032
107 0.004994
113 0.005022
125 0.005862
134 0.004955
141 0.005023
153 0.005027
159 0.005019
167 0.004989
120 0.005097
79 0.005098
51 0.006982
57 0.006976
61 0.006989
67 0.00697
75 0.005026
78 0.004997
79 0.004999
82 0.003997
93 0.003021
103 0.002011
111 0.0
120 0.001996
131 0.001962
135 0.001996
142 0.001192
105 0.0
51 0.0
30 0.001009
36 0.000967
44 0.000998
55 0.000803
63 0.001002
67 0.000977
68 0.002027
73 0.001995
86 0.002003
95 0.003002
109 0.002027
121 0.002035
129 0.001852
141 0.002996
120 0.002994
55 0.002995
39 0.002993
49 0.002992
67 0.002994
83 0.00303
94 0.00302
95 0.003043
94 0.003029
101 0.006005
118 0.005984
128 0.006008
142 0.007981
152 0.006964
160 0.007948
168 0.00399
115 0.005026
73 0.005028
50 0.002993
61 0.002006
66 0.001014
78 0.0
87 0.001995
91 0.00099
91 0.001052
99 0.0
110 0.000955
124 0.0
132 0.000998
144 0.00106
153 0.000982
161 0.001866
143 0.001995
79 0.002027
40 0.002008
43 0.001995
49 0.001996
56 0.001965
64 0.000998
75 0.002037
78 0.002029
82 0.001996
96 0.002031
111 0.004024
119 0.004029
134 0.004988
144 0.005021
157 0.004944
165 0.004987
160 0.005016
86 0.005015
45 0.007013
44 0.006973
51 0.007025
58 0.005032
66 0.004992
78 0.004987
78 0.002992
80 0.002982
92 0.001996
101 0.002019
116 0.002036
130 0.0
137 0.0
148 0.0
161 0.001001
165 0.000974
171 0.0
143 0.0
64 0.0
41 0.000984
49 0.0
60 0.0
69 0.0
83 0.00103
86 0.000997
87 0.002047
98 0.002031
112 0.001996
125 0.002019
138 0.002028
148 0.001996
159 0.001996
169 0.001996
176 0.001995
166 0.003025
90 0.003992
62 0.00399
63 0.005016
73 0.004092
86 0.004988
103 0.005029
107 0.005035
108 0.005039
117 0.006085
127 0.005985
141 0.00602
153 0.006969
162 0.007018
173 0.006973
183 0.005991
194 0.005028
204 0.003992
188 0.004988
103 0.004021
62 0.003143
66 0.00203
78 0.001055
83 0.002009
99 0.000997
107 0.0
107 0.0
110 0.000997
124 0.001044
136 0.001
149 0.002032
161 0.002992
170 0.003005
181 0.002994
190 0.003011
185 0.002853
124 0.002993
63 0.003991
49 0.003993
62 0.003992
68 0.004034
83 0.00399
94 0.003952
96 0.004001
97 0.004987
104 0.005035
120 0.00597
136 0.005887
144 0.006015
154 0.00598
160 0.005967
168 0.006981
168 0.00704
126 0.006945
51 0.00698
36 0.006968
42 0.006998
53 0.006979
67 0.006969
79 0.007032
82 0.007977
83 0.006981
89 0.006028
96 0.007019
111 0.007025
130 0.003966
139 0.006037
150 0.004983
158 0.00399
162 0.004035
104 0.002986
57 0.002998
31 0.004028
45 0.002989
52 0.002946
69 0.003031
78 0.003037
82 0.002986
85 0.005034
96 0.003005
108 0.003989
126 0.00298
136 0.00302
151 0.003034
157 0.002992
163 0.002992
98 0.002025
59 0.003039
46 0.001007
54 0.002992
66 0.0
83 0.00204
91 0.002045
96 0.0
98 0.00103
108 0.001029
126 0.002014
135 0.001
146 0.0
159 0.0
166 0.0
173 0.0
150 0.0
73 0.0
48 0.0
52 0.0
59 0.0
65 0.0
79 0.0
88 0.000998
90 0.000999
97 0.001996
112 0.002993
121 0.003998
136 0.004983
150 0.00697
157 0.006975
167 0.005027
177 0.002996
181 0.001993
132 0.002986
66 0.00195
55 0.002011
61 0.000995
64 0.003033
71 0.000953
82 0.0
90 0.001995
92 0.002029
102 0.001996
111 0.002029
122 0.00203
132 0.004038
146 0.004978
154 0.005977
167 0.005966
173 0.006983
180 0.006951
186 0.006971
170 0.005983
91 0.005975
58 0.004991
60 0.004994
65 0.005954
67 0.005106
80 0.005031
87 0.007037
87 0.004016
91 0.00702
104 0.006022
112 0.00399
126 0.004031
139 0.000996
145 0.002037
157 0.000951
164 0.0
171 0.0
177 0.0
185 0.0
143 0.0
70 0.0
57 0.0
65 0.000998
71 0.000997
80 0.003065
92 0.003007
94 0.004027
95 0.004985
104 0.004987
114 0.004853
130 0.004981
142 0.005022
153 0.005993
163 0.005986
173 0.005959
181 0.005982
192 0.006032
187 0.00602
114 0.007946
70 0.006992
64 0.007978
75 0.006977
81 0.007948
91 0.007021
103 0.006008
104 0.006023
106 0.004935
119 0.002987
129 0.002987
144 0.002956
154 0.003035
166 0.00198
175 0.0
185 0.001907
193 0.002993
201 0.00399
204 0.006033
150 0.006019
84 0.005984
57 0.006074
62 0.005944
72 0.005974
76 0.005969
89 0.00601
96 0.006016
97 0.007075
103 0.005987
116 0.005979
126 0.005994
141 0.004965
149 0.004991
162 0.004995
177 0.004979
184 0.005142
194 0.004987
202 0.004986
199 0.004032
133 0.005041
72 0.003157
54 0.005029
66 0.005018
71 0.004987
83 0.004023
97 0.0
100 0.001041
102 0.0
106 0.001995
117 0.0
133 0.0
142 0.0
157 0.0
171 0.0
180 0.000997
190 0.001854
200 0.002957
200 0.003988
116 0.00604
51 0.005967
46 0.005985
61 0.005982
69 0.005974
85 0.005983
94 0.005983
94 0.005982
95 0.006032
102 0.006019
115 0.005985
131 0.00602
141 0.007978
154 0.007017
168 0.005984
175 0.007028
186 0.006015
154 0.007018
71 0.004988
48 0.003026
57 0.003
77 0.001996
98 0.001992
107 0.001962
110 0.002009
108 0.002011
118 0.001993
132 0.002023
141 0.001991
157 0.001995
172 0.002034
181 0.002033
193 0.0
191 0.00203
106 0.0
47 0.0
46 0.0
61 0.0
65 0.000998
83 0.0
95 0.0
97 0.0
100 0.0
111 0.00204
123 0.001006
140 0.000997
150 0.000998
166 0.000997
179 0.000997
184 0.001004
143 0.001996
69 0.002992
36 0.002993
40 0.002996
51 0.003031
60 0.002948
77 0.003036
84 0.003972
86 0.004985
91 0.006017
100 0.005974
119 0.005976
131 0.005971
148 0.005953
164 0.006015
170 0.006022
182 0.005855
150 0.00697
90 0.005991
30 0.005983
31 0.005028
46 0.003987
55 0.005023
67 0.003986
77 0.004988
78 0.00403
80 0.003034
94 0.002992
113 0.0
123 0.0
136 0.0
152 0.0
157 0.0
166 0.0
173 0.0
137 0.000998
48 0.001997
28 0.002005
38 0.001996
54 0.001995
64 0.002041
81 0.002026
84 0.001995
84 0.001996
97 0.002985
109 0.004821
128 0.005027
142 0.00498
155 0.00498
166 0.006945
179 0.006981
164 0.006971
76 0.007979
45 0.007982
49 0.007974
64 0.005948
74 0.006969
94 0.005978
101 0.007024
100 0.006015
106 0.006024
116 0.005019
136 0.005031
153 0.00503
163 0.004023
178 0.003002
190 0.003989
189 0.001947
125 0.003025
59 0.001969
43 0.003026
57 0.002992
63 0.002991
78 0.003033
89 0.003033
98 0.002992
101 0.000997
108 0.003032
125 0.000997
143 0.0
153 0.0
166 0.0
173 0.0
185 0.0
146 0.0
84 0.0
31 0.002026
41 0.002027
49 0.001954
58 0.001954
69 0.00196
83 0.003002
85 0.003004
91 0.003992
108 0.004029
123 0.003976
136 0.006062
147 0.005952
159 0.006981
165 0.00799
174 0.007978
172 0.007995
92 0.007024
28 0.004954
27 0.004987
43 0.005022
53 0.002992
66 0.001991
80 0.001989
81 0.002021
87 0.0
100 0.0
118 0.002962
129 0.003984
145 0.006025
156 0.005992
166 0.005983
176 0.005987
164 0.005985
110 0.006979
45 0.007985
46 0.005969
61 0.007977
72 0.005986
85 0.007016
100 0.005982
103 0.005988
105 0.006
121 0.006026
134 0.005022
151 0.004999
167 0.004989
177 0.004964
193 0.004991
196 0.005019
139 0.001985
84 0.002026
77 0.002028
86 0.001995
99 0.001995
110 0.001996
128 0.00199
129 0.0
132 0.001995
144 0.0
163 0.0
174 0.0
190 0.0
199 0.0
212 0.0
223 0.0
211 0.0
128 0.0
94 0.000997
91 0.002989
103 0.004988
111 0.005962
122 0.007017
133 0.006983
133 0.00698
141 0.007012
153 0.007021
167 0.006982
181 0.006987
195 0.006976
203 0.006979
215 0.007963
220 0.007973
206 0.007973
141 0.007023
99 0.007989
96 0.004001
109 0.004954
115 0.003989
129 0.00399
136 0.003991
139 0.003997
145 0.003992
154 0.004003
168 0.003977
176 0.003997
187 0.002986
196 0.005016
207 0.003078
211 0.005017
217 0.002992
187 0.004018
111 0.00399
92 0.003989
95 0.003989
104 0.003008
110 0.004022
123 0.001995
127 0.004021
124 0.001993
133 0.002012
141 0.00103
156 0.001992
165 0.001997
178 0.002
189 0.001985
195 0.002027
201 0.0
151 0.002026
101 0.0
90 0.00203
99 0.0
111 0.001127
129 0.002027
136 0.001029
136 0.0
138 0.001005
146 0.002006
158 0.003004
173 0.004008
181 0.003982
193 0.004916
200 0.005994
209 0.006041
175 0.005983
126 0.005983
85 0.005981
91 0.005999
95 0.006979
104 0.005984
114 0.005978
123 0.005977
124 0.005981
127 0.005988
138 0.005998
149 0.007016
162 0.00598
173 0.007017
184 0.004986
193 0.007038
199 0.005984
177 0.004987
98 0.003991
69 0.00201
71 0.003022
80 0.001995
90 0.0
98 0.000977
105 0.0
105 0.0
112 0.0
127 0.0
137 0.0
147 0.000964
159 0.001995
166 0.001965
177 0.002003
183 0.001996
163 0.001997
99 0.001996
62 0.001995
62 0.00301
74 0.003006
78 0.003014
93 0.00299
99 0.002963
99 0.003999
104 0.004992
112 0.00596
129 0.005969
141 0.005983
149 0.004992
161 0.004997
173 0.004981
178 0.004986
188 0.004986
167 0.004984
89 0.003993
64 0.00399
69 0.001994
80 0.003989
94 0.004011
103 0.002995
108 0.001996
107 0.0
113 0.0
126 0.0
139 0.000963
154 0.000998
167 0.00295
174 0.002948
185 0.002962
182 0.006027
126 0.006983
87 0.006978
73 0.005987
81 0.006
93 0.006995
109 0.005981
115 0.005987
117 0.005986
117 0.006033
129 0.004971
142 0.004992
154 0.002997
165 0.004983
178 0.004025
185 0.00398
195 0.003989
196 0.001955
155 0.003987
79 0.001997
64 0.003022
71 0.001995
78 0.001987
86 0.002002
101 0.001984
106 0.002003
108 0.0
119 0.001001
129 0.0
146 0.0
157 0.000995
168 0.001007
178 0.001976
186 0.0
193 0.0
153 0.000998
101 0.001003
59 0.001017
65 0.000997
73 0.00296
80 0.003958
97 0.005984
104 0.006013
106 0.005884
109 0.006015
123 0.006018
139 0.005979
148 0.005985
161 0.005982
173 0.005993
179 0.005984
189 0.006967
185 0.006875
125 0.005997
59 0.004986
52 0.004982
63 0.00498
72 0.005017
85 0.001985
97 0.002991
99 0.001963
100 0.001989
111 0.001984
125 0.0
138 0.000997
150 0.002998
162 0.00296
168 0.002957
180 0.003006
158 0.004996
107 0.005977
59 0.006966
58 0.005998
70 0.004996
86 0.00399
99 0.003976
111 0.003989
112 0.003993
115 0.003986
130 0.003997
144 0.004986
157 0.001991
169 0.00299
180 0.00103
188 0.001029
177 0.001997
130 0.001988
71 0.001986
73 0.0
82 0.00199
94 0.0
111 0.0
116 0.0
117 0.0
120 0.0
133 0.001
150 0.001957
159 0.001956
170 0.001961
183 0.003012
190 0.002957
188 0.003955
147 0.003975
79 0.00403
70 0.004002
79 0.003956
85 0.005038
96 0.00502
105 0.005027
111 0.005018
111 0.005021
120 0.005018
131 0.006973
141 0.006981
156 0.005995
170 0.003993
176 0.003994
185 0.002992
150 0.002993
104 0.003009
67 0.002991
70 0.003005
82 0.003085
89 0.003971
102 0.002996
108 0.003003
108 0.002991
112 0.002988
125 0.002996
135 0.002999
148 0.002011
159 0.0
165 0.002031
174 0.0
181 0.00107
148 0.0
89 0.0
65 0.0
67 0.0
76 0.002995
83 0.003045
98 0.002977
100 0.002993
101 0.004988
110 0.004963
124 0.004981
132 0.004988
146 0.005998
152 0.006015
162 0.006011
171 0.006019
139 0.006015
84 0.006014
64 0.006014
69 0.006019
80 0.006009
89 0.007015
102 0.006971
107 0.004956
106 0.006974
115 0.005023
124 0.00699
137 0.004962
151 0.004993
158 0.005022
169 0.005007
178 0.004982
157 0.005003
87 0.004981
66 0.003992
68 0.002994
74 0.002003
80 0.000986
93 0.001995
103 0.000998
105 0.001016
112 0.002972
124 0.003989
138 0.003954
150 0.005018
163 0.005024
171 0.005025
183 0.004865
181 0.004987
145 0.006018
99 0.005982
87 0.005027
91 0.004945
97 0.004992
102 0.004978
117 0.003984
123 0.002001
127 0.002023
136 0.0
145 0.0
158 0.000809
166 0.002007
179 0.003959
187 0.00403
195 0.005
194 0.005021
150 0.004986
112 0.005017
105 0.005027
108 0.006015
112 0.007018
120 0.006979
127 0.007013
129 0.006977
132 0.006968
139 0.006991
150 0.006966
157 0.005973
167 0.003994
178 0.003988
183 0.003994
192 0.003986
190 0.003998
138 0.003989
111 0.004987
111 0.001991
118 0.002986
123 0.002992
129 0.001988
135 0.001986
134 0.0
137 0.0
146 0.0
153 0.0
162 0.0
172 0.0
177 0.000972
187 0.0
188 0.000994
139 0.0
114 0.001996
117 0.0
124 0.001998
128 0.0
137 0.002004
142 0.0
141 0.00101
144 0.001008
151 0.001001
160 0.001007
168 0.001016
176 0.001002
184 0.000967
193 0.001037
192 0.001009
142 0.002005
117 0.001964
111 0.002023
116 0.002987
117 0.00304
124 0.002992
131 0.002988
130 0.002992
132 0.003013
138 0.003039
149 0.003961
160 0.002993
166 0.003022
176 0.003958
180 0.003987
177 0.004001
136 0.003991
106 0.004059
103 0.00402
109 0.00403
110 0.002992
117 0.004027
123 0.005025
125 0.004023
128 0.004985
133 0.005023
144 0.006017
153 0.006974
159 0.006978
182 0.005982
188 0.004993
199 0.004989
176 0.004986
130 0.003003
86 0.002995
87 0.002966
91 0.000986
94 0.002992
106 0.002965
110 0.002991
112 0.002988
113 0.003
123 0.002993
138 0.002009
145 0.001986
160 0.0
169 0.0
178 0.0
171 0.0
127 0.0
75 0.0
77 0.0
84 0.000998
93 0.002027
106 0.002033
107 0.001999
102 0.001966
105 0.00299
122 0.003043
140 0.002998
149 0.003039
163 0.003034
175 0.003992
173 0.005026
116 0.005041
67 0.004988
58 0.005031
67 0.006018
70 0.007017
78 0.007944
86 0.005983
85 0.007977
85 0.005989
97 0.003989
108 0.003992
131 0.001995
159 0.001995
170 0.001989
177 0.001964
160 0.000997
75 0.000989
28 0.001995
29 0.0
34 0.000964
43 0.001031
56 0.000989
70 0.0
72 0.003024
81 0.00296
96 0.003854
113 0.006018
122 0.006945
139 0.007019
148 0.00694
131 0.006982
69 0.005982
39 0.007014
38 0.005017
51 0.005009
56 0.004993
76 0.004978
86 0.005004
93 0.004955
102 0.004997
110 0.004989
126 0.004994
140 0.005013
158 0.001993
174 0.003999
181 0.001989
137 0.003981
81 0.002
76 0.003025
94 0.001999
103 0.0
110 0.000961
124 0.001995
128 0.001995
127 0.002036
139 0.002054
152 0.002984
162 0.003996
175 0.004022
186 0.004039
196 0.003989
131 0.004022
104 0.006041
101 0.006977
113 0.006961
126 0.004953
142 0.006991
146 0.007037
143 0.005019
146 0.003025
159 0.001982
168 0.002994
186 0.002978
200 0.001988
206 0.001008
188 0.0
144 0.000972
105 0.0
106 0.001994
116 0.000997
126 0.003989
141 0.004001
142 0.004988
141 0.003991
149 0.004988
158 0.004988
172 0.005024
184 0.007016
193 0.006976
201 0.00701
191 0.006984
120 0.007026
92 0.007947
97 0.007017
103 0.00803
107 0.007949
121 0.007977
128 0.007134
130 0.00795
135 0.005985
148 0.004993
156 0.003991
170 0.002995
181 0.001997
189 0.0
169 0.001
115 0.003008
95 0.0
102 0.0
109 0.0
117 0.0
131 0.0
134 0.0
136 0.001005
143 0.001994
155 0.002031
166 0.001988
177 0.002995
189 0.00399
202 0.004988
209 0.004988
167 0.004987
113 0.005985
110 0.006981
118 0.005983
123 0.004986
129 0.003989
138 0.003988
136 0.003989
138 0.003989
148 0.001994
159 0.002993
169 0.001996
179 0.001996
188 0.000998
195 0.0
176 0.001995
127 0.003029
110 0.004041
120 0.003991
130 0.003991
139 0.003991
151 0.004023
153 0.003991
154 0.003991
165 0.004986
174 0.00702
185 0.004988
198 0.004988
206 0.003988
217 0.002024
205 0.001994
166 0.002002
126 0.002001
128 0.001991
137 0.001987
140 0.004024
149 0.001989
154 0.002958
153 0.001995
155 0.001995
166 0.002019
171 0.002039
182 0.002043
192 0.0
201 0.0
209 0.0
193 0.0
150 0.0
109 0.0
108 0.000999
112 0.001995
113 0.00303
121 0.003029
128 0.003033
128 0.00299
131 0.00296
142 0.004002
155 0.00503
163 0.006969
173 0.00697
179 0.006014
186 0.00601
188 0.007978
145 0.005984
95 0.007978
84 0.005992
88 0.006957
92 0.003995
102 0.001998
108 0.002951
107 0.00203
107 0.002048
114 0.002011
127 0.001985
134 0.002064
146 0.001994
155 0.002042
164 0.001003
171 0.002027
172 0.0
122 0.002028
71 0.001028
68 0.002028
77 0.002044
81 0.002052
93 0.001992
101 0.0
100 0.000997
102 0.000997
116 0.004
126 0.003025
143 0.004012
157 0.002982
167 0.002992
177 0.003992
182 0.004041
132 0.005016
89 0.006002
83 0.004992
92 0.004989
103 0.005017
112 0.004991
121 0.004021
121 0.005969
122 0.004015
132 0.006028
147 0.004987
153 0.004987
164 0.005008
171 0.005015
182 0.005019
192 0.001995
170 0.002992
95 0.0
74 0.003965
74 0.002016
80 0.0
83 0.0
94 0.000997
96 0.0
95 0.000996
103 0.000998
112 0.000987
123 0.0
137 0.0
147 0.000998
159 0.0
169 0.000998
172 0.002033
111 0.002995
59 0.00299
49 0.004981
54 0.005022
60 0.006017
65 0.006977
75 0.007018
74 0.004001
75 0.005019
86 0.002948
103 0.0
111 0.000961
125 0.0
134 0.0
147 0.000999
157 0.0
150 0.000964
72 0.0
31 0.000998
28 0.000997
40 0.002991
45 0.000998
60 0.0
67 0.0
65 0.002042
71 0.001996
87 0.002029
105 0.002012
119 0.002
133 0.001852
143 0.002001
157 0.001995
155 0.002992
83 0.002992
39 0.003993
43 0.005026
60 0.005959
76 0.005962
89 0.006979
95 0.005994
94 0.005976
103 0.006972
121 0.006965
129 0.006034
144 0.005012
155 0.007014
165 0.004993
175 0.006027
141 0.003973
76 0.006149
43 0.004987
48 0.005029
60 0.004036
73 0.002978
80 0.00399
83 0.004017
83 0.004026
92 0.000988
108 0.0
115 0.0
132 0.000997
145 0.002027
154 0.001995
156 0.001998
78 0.002994
37 0.004004
24 0.004984
37 0.00499
42 0.00498
55 0.004979
67 0.00499
70 0.004978
74 0.004992
83 0.005978
102 0.007027
121 0.006969
132 0.00783
145 0.006024
157 0.007984
162 0.003991
89 0.002002
26 0.001995
22 0.0
34 0.0
39 0.000951
56 0.0
66 0.001037
67 0.001014
71 0.000998
88 0.00202
100 0.002033
120 0.002988
133 0.00299
145 0.002974
158 0.002995
167 0.003006
116 0.002992
40 0.00303
31 0.002991
48 0.003995
64 0.004957
78 0.005978
92 0.005977
92 0.006017
93 0.005986
108 0.005983
130 0.003005
144 0.002959
162 0.001997
173 0.002994
185 0.0
182 0.002034
115 0.0
61 0.0
57 0.0
67 0.0
81 0.0
99 0.0
107 0.000842
108 0.000997
112 0.000998
122 0.002037
143 0.003001
155 0.002992
171 0.004997
190 0.004988
197 0.004845
206 0.004979
126 0.006963
86 0.004988
47 0.003988
59 0.003983
67 0.003983
80 0.00302
92 0.005036
98 0.00301
100 0.005015
108 0.002996
124 0.004871
142 0.00501
154 0.004026
169 0.004028
179 0.004024
192 0.003991
203 0.002002
169 0.004027
72 0.002011
49 0.0
58 0.0
70 0.0
77 0.0
95 0.0
100 0.000975
101 0.000969
116 0.000997
131 0.0
142 0.001996
160 0.002983
174 0.002994
184 0.002995
199 0.003947
207 0.003943
217 0.003999
163 0.004023
79 0.003984
41 0.004026
52 0.005985
63 0.005942
80 0.006982
93 0.006982
100 0.007017
98 0.00499
103 0.007016
120 0.002959
142 0.003008
154 0.002995
173 0.002985
189 0.002976
197 0.001988
212 0.001994
214 0.001995
120 0.001996
57 0.00404
49 0.001998
67 0.003989
90 0.004057
104 0.002993
116 0.002992
115 0.002993
117 0.002992
132 0.00095
148 0.0
162 0.001996
182 0.002011
191 0.001996
206 0.001996
211 0.003959
156 0.004013
56 0.005026
39 0.004995
51 0.00598
68 0.006023
81 0.005987
102 0.005984
105 0.00798
104 0.00598
113 0.007979
134 0.006981
147 0.007981
168 0.007023
179 0.007012
196 0.007018
208 0.004026
173 0.006031
58 0.00399
17 0.002001
23 0.001994
40 0.001996
50 0.002
72 0.001995
78 0.001987
78 0.0
90 0.000966
104 0.002043
122 0.0
139 0.002028
154 0.000968
169 0.003001
175 0.0
124 0.000998
20 0.003013
0 0.003023
11 0.003959
28 0.005961
50 0.006931
61 0.007013
65 0.006983
67 0.005988
77 0.007998
93 0.005987
116 0.003996
128 0.003991
146 0.003989
158 0.00399
147 0.00414
40 0.001981
4 0.001998
8 0.001998
24 0.00299
42 0.0
62 0.002026
71 0.0
71 0.0
80 0.002024
96 0.002998
118 0.002992
136 0.002987
148 0.002975
166 0.002858
143 0.003959
82 0.003993
25 0.003974
38 0.005983
53 0.006024
71 0.005949
92 0.005989
97 0.006156
102 0.005976
109 0.005985
130 0.005003
150 0.005954
162 0.004994
180 0.002996
193 0.005024
181 0.002992
102 0.003991
46 0.001994
47 0.002025
60 0.002025
71 0.0
85 0.002028
97 0.001013
97 0.002027
101 0.0
119 0.0
133 0.0
153 0.0
173 0.002
182 0.001996
196 0.002034
169 0.00203
81 0.002993
57 0.004988
63 0.004984
73 0.005982
83 0.006979
99 0.006982
105 0.006978
108 0.006981
115 0.006981
133 0.006981
145 0.005984
161 0.007984
177 0.007995
185 0.007979
198 0.007815
205 0.007975
169 0.007022
81 0.003988
60 0.006018
65 0.003986
73 0.002982
81 0.00497
96 0.002012
99 0.001966
99 0.001978
110 0.001995
124 0.003027
138 0.0
150 0.0
159 0.0
176 0.0
188 0.0
195 0.0
206 0.000998
179 0.000998
91 0.000997
67 0.000954
74 0.00198
85 0.002992
99 0.002992
109 0.002992
113 0.002977
113 0.002988
123 0.002992
144 0.002991
153 0.003002
168 0.003985
184 0.005989
195 0.006009
206 0.006016
215 0.006023
192 0.006004
121 0.007983
89 0.005981
82 0.007014
96 0.006983
99 0.006016
113 0.005983
122 0.001994
123 0.002991
126 0.0
138 0.000955
149 0.000998
167 0.000983
184 0.001987
195 0.00102
211 0.000968
225 0.002008
226 0.004042
148 0.003993
98 0.003994
73 0.003989
81 0.00499
84 0.005991
91 0.00595
104 0.00795
107 0.005986
110 0.007982
121 0.007976
127 0.007963
145 0.006019
157 0.006981
176 0.005984
193 0.002998
202 0.00403
215 0.0
164 0.001014
105 0.001004
56 0.0
62 0.0
68 0.0
80 0.001007
93 0.0
99 0.000965
101 0.003953
109 0.003977
120 0.00399
141 0.003991
152 0.004001
172 0.005985
185 0.006019
195 0.005965
206 0.005978
205 0.005984
149 0.006981
67 0.006981
53 0.004987
62 0.005987
76 0.002992
95 0.001996
103 0.001987
104 0.0
107 0.0
116 0.001012
138 0.0
146 0.000991
170 0.0
185 0.001996
195 0.0
206 0.0
163 0.0
72 0.0
55 0.000998
66 0.000964
86 0.001009
104 0.00199
117 0.003
120 0.004008
127 0.002956
142 0.00399
170 0.00399
183 0.003949
201 0.00399
222 0.004989
232 0.004988
240 0.005016
193 0.005018
89 0.005018
62 0.005018
70 0.004986
88 0.004988
106 0.004989
115 0.004988
120 0.005989
121 0.005986
132 0.006017
143 0.007972
160 0.005979
179 0.00797
194 0.006029
203 0.006016
217 0.005992
208 0.005976
103 0.005984
39 0.001995
47 0.0
58 0.0
76 0.0
88 0.0
99 0.0
99 0.0
103 0.001013
117 0.000964
136 0.001999
148 0.002992
164 0.003961
179 0.004023
186 0.003988
197 0.003948
165 0.00396
72 0.003955
12 0.004986
15 0.006016
36 0.006985
51 0.005978
66 0.007977
77 0.003026
77 0.001969
81 0.001992
99 0.0
122 0.0
136 0.000968
158 0.00099
170 0.001002
188 0.0
188 0.002975
135 0.001082
39 0.003017
31 0.0
50 0.0
76 0.0
96 0.001995
104 0.001995
104 0.002997
109 0.005024
119 0.006016
142 0.005984
155 0.006024
174 0.00698
189 0.00698
200 0.007022
210 0.004986
130 0.004987
59 0.004955
17 0.004997
35 0.002991
46 0.001995
68 0.001996
87 0.001985
88 0.0
87 0.002014
96 0.0
111 0.002025
135 0.002001
150 0.0
174 0.0
188 0.0
202 0.0
182 0.0
84 0.0
20 0.000998
18 0.002998
30 0.002977
50 0.002992
73 0.002992
83 0.002991
85 0.002994
88 0.002961
105 0.002994
127 0.003
140 0.005017
155 0.006979
172 0.006983
182 0.005001
190 0.003119
110 0.004025
8 0.001995
0 0.001996
16 0.001
30 0.002991
55 0.00303
72 0.001994
76 0.002004
75 0.00395
91 0.00396
105 0.003992
130 0.005984
154 0.005983
163 0.006021
183 0.006983
180 0.004988
117 0.003988
20 0.003991
15 0.00196
30 0.0
56 0.0
80 0.001995
92 0.0
92 0.0
96 0.0
106 0.0
131 0.0
144 0.0
166 0.0
178 0.0
193 0.0
169 0.0
65 0.001016
0 0.002011
66 0.003993
76 0.004984
81 0.005024
94 0.006981
100 0.004986
100 0.005004
105 0.001995
115 0.001996
124 0.002026
137 0.002008
145 0.002026
151 0.0
158 0.002004
137 0.000968
86 0.002993
58 0.003015
62 0.002994
72 0.002996
78 0.002998
91 0.003035
98 0.0
99 0.001989
105 0.0
111 0.002039
124 0.0
135 0.000969
141 0.001028
151 0.001007
159 0.001966
156 0.001958
99 0.000997
64 0.002043
65 0.004022
76 0.004985
83 0.005981
94 0.005982
101 0.006015
102 0.005964
103 0.006022
113 0.005972
120 0.004949
133 0.00798
142 0.004997
147 0.006981
154 0.004987
159 0.006985
149 0.004991
86 0.004994
65 0.003992
67 0.001988
79 0.001992
86 0.0
98 0.0
103 0.001
102 0.001995
106 0.001995
118 0.001998
126 0.002028
138 0.00403
145 0.003954
152 0.004982
160 0.006016
137 0.007018
98 0.007035
67 0.007017
71 0.00691
83 0.006983
95 0.004986
105 0.006981
112 0.002997
112 0.002026
115 0.002025
127 0.001996
140 0.001983
147 0.001997
157 0.002992
163 0.002001
171 0.0
160 0.001002
96 0.001995
72 0.003955
73 0.004989
81 0.007022
86 0.00598
97 0.006982
108 0.006986
109 0.006981
112 0.006981
122 0.002995
129 0.004986
141 0.00203
153 0.002995
159 0.003003
167 0.001996
171 0.0
127 0.0
75 0.000994
70 0.0
81 0.0
86 0.0
94 0.0
104 0.002003
108 0.000985
108 0.001996
114 0.002031
121 0.003954
133 0.004997
142 0.00499
151 0.004954
158 0.005028
166 0.004986
165 0.003993
109 0.003975
78 0.005009
68 0.005989
77 0.005984
85 0.00799
96 0.005992
106 0.003993
107 0.003987
108 0.00397
114 0.004006
125 0.003978
138 0.003001
145 0.002992
155 0.001985
162 0.003034
168 0.0
155 0.001043
98 0.000998
82 0.001962
89 0.002992
99 0.002956
109 0.003962
120 0.004024
123 0.002986
122 0.004994
128 0.005938
137 0.006928
147 0.006952
156 0.006928
164 0.007974
172 0.004972
182 0.002977
176 0.002979
124 0.001993
100 0.002995
104 0.00298
115 0.001998
122 0.00399
131 0.0
135 0.00203
136 0.001994
138 0.0
149 0.000997
157 0.000997
165 0.002995
173 0.004023
182 0.005028
186 0.006021
192 0.006981
158 0.003974
128 0.005018
109 0.001997
116 0.003001
120 0.00299
128 0.0
136 0.001999
139 0.000995
139 0.003012
144 0.0
151 0.000998
162 0.002025
169 0.001996
178 0.001996
185 0.002993
190 0.00399
194 0.005984
166 0.007977
129 0.007975
116 0.007978
122 0.004985
127 0.007978
133 0.005009
141 0.003995
142 0.002992
143 0.002995
146 0.002994
154 0.002001
163 0.00299
169 0.003004
177 0.001989
182 0.003019
186 0.0
210 0.002999
169 0.0
116 0.002998
97 0.002996
103 0.001993
113 0.001994
124 0.0
130 0.002976
130 0.000956
129 0.003031
134 0.001024
146 0.002036
155 0.002028
167 0.00403
178 0.004989
184 0.004989
195 0.004869
155 0.004994
116 0.004988
90 0.005017
96 0.00498
111 0.005036
128 0.004996
135 0.004956
136 0.004971
136 0.005985
140 0.005971
153 0.007985
162 0.005003
173 0.007979
186 0.007941
190 0.00702
199 0.005022
153 0.002993
112 0.003988
86 0.0
97 0.0
104 0.0
119 0.0
128 0.0
128 0.0
127 0.0
128 0.0
142 0.001033
155 0.0
162 0.0
176 0.0
186 0.000997
190 0.000998
139 0.002938
96 0.001981
73 0.003991
83 0.00502
98 0.005988
111 0.005986
121 0.00794
123 0.002965
121 0.005972
128 0.00298
141 0.0
149 0.0
161 0.000967
172 0.000995
178 0.0
187 0.002026
148 0.003008
104 0.001933
72 0.003026
78 0.003644
93 0.002992
106 0.00399
113 0.003984
112 0.003951
108 0.003995
113 0.004955
123 0.004988
136 0.005996
147 0.007014
161 0.006981
166 0.007977
176 0.005016
164 0.001993
119 0.004024
62 0.00199
63 0.00298
74 0.002981
89 0.0
105 0.000951
107 0.000951
105 0.00103
107 0.0
116 0.000963
132 0.003043
140 0.0
153 0.0
166 0.0
173 0.002005
126 0.002618
84 0.002004
65 0.002948
79 0.002992
98 0.003044
121 0.004024
137 0.005978
136 0.006972
134 0.006988
140 0.005994
150 0.005978
169 0.005019
179 0.003975
185 0.003983
193 0.003938
164 0.003002
85 0.003983
61 0.005986
69 0.002965
83 0.005984
94 0.003985
107 0.005984
112 0.003962
109 0.004979
116 0.004025
132 0.003002
140 0.00399
154 0.002998
163 0.002993
174 0.0
138 0.00202
87 0.000964
46 0.0
59 0.000934
69 0.000982
84 0.0
95 0.0
103 0.000968
103 0.001995
107 0.0
118 0.0
136 0.0
144 0.0
158 0.0
165 0.0
173 0.0
129 0.0
61 0.0
35 0.0
43 0.0
54 0.0
69 0.000998
80 0.002031
85 0.0
83 0.002992
89 0.004006
104 0.004988
120 0.005983
126 0.005969
140 0.003982
151 0.003994
157 0.002008
138 0.001979
68 0.003989
28 0.0
32 0.00096
50 0.001012
60 0.000953
80 0.000998
86 0.0
84 0.001007
90 0.002033
104 0.000998
119 0.001994
136 0.000997
146 0.001995
160 0.002001
173 0.003949
158 0.003991
75 0.003952
47 0.003991
52 0.003901
72 0.004005
85 0.003952
103 0.005024
107 0.006971
106 0.006962
112 0.006978
121 0.006015
139 0.006983
155 0.006982
164 0.003997
178 0.008004
186 0.005983
195 0.006982
168 0.007018
109 0.006981
49 0.006992
55 0.003004
67 0.006198
81 0.003975
98 0.001
103 0.0
105 0.002993
113 0.000966
123 0.000945
141 0.0
155 0.000997
165 0.000997
180 0.002034
188 0.002035
199 0.00203
181 0.004018
124 0.002024
59 0.002992
58 0.003991
75 0.005027
89 0.004029
104 0.00399
114 0.005004
113 0.006018
111 0.006026
119 0.005982
136 0.005998
148 0.007027
162 0.004984
174 0.007974
185 0.004024
194 0.004996
200 0.004975
145 0.003946
61 0.004985
46 0.004986
59 0.004003
71 0.003003
89 0.002991
101 0.00502
103 0.003003
102 0.004953
112 0.004023
121 0.00304
140 0.001966
154 0.0
166 0.000965
177 0.002042
188 0.004954
194 0.005024
125 0.00399
50 0.005036
43 0.004022
64 0.003946
79 0.00396
104 0.005033
114 0.004982
110 0.004978
108 0.00485
118 0.007029
128 0.006981
144 0.007018
159 0.00602
168 0.006017
183 0.004978
189 0.004996
119 0.005022
54 0.002046
50 0.005021
72 0.003009
88 0.004994
114 0.001995
126 0.001994
126 0.000997
128 0.0
140 0.00195
149 0.000953
166 0.001992
177 0.0
195 0.0
206 0.000982
167 0.000948
86 0.00302
48 0.000981
55 0.003005
77 0.00302
91 0.00305
110 0.002993
119 0.0
122 0.0
128 0.0
144 0.002043
154 0.001996
171 0.002042
181 0.001953
195 0.003002
194 0.002994
144 0.004989
62 0.004978
55 0.004945
68 0.005006
84 0.004031
103 0.005966
111 0.004995
109 0.001994
109 0.006022
117 0.003063
129 0.006021
144 0.003991
157 0.005986
173 0.005984
182 0.006016
173 0.00497
116 0.006018
34 0.00502
27 0.002994
38 0.004986
56 0.002999
75 0.001988
79 0.002004
76 0.001004
78 0.002977
90 0.0
107 0.000948
117 0.001994
128 0.0
140 0.0
148 0.0
120 0.001995
34 0.001991
127 0.002016
126 0.003023
125 0.002011
126 0.001992
125 0.003036
125 0.003046
125 0.002995
125 0.004004
126 0.004986
126 0.005145
126 0.005045
126 0.005016
139 0.004951
138 0.00502
60 0.005984
0 0.003989
0 0.003987
24 0.001992
51 0.0
68 0.000951
80 0.002993
79 0.005031
86 0.000986
102 0.00203
122 0.001042
144 0.002993
167 0.003025
179 0.004033
190 0.003023
113 0.000997
22 0.0
3 0.000966
20 0.0
45 0.000997
67 0.0
82 0.0
88 0.0
89 0.002993
99 0.00399
124 0.004035
149 0.003989
160 0.003994
179 0.003983
187 0.003953
154 0.004987
36 0.004999
10 0.006981
11 0.005983
34 0.007012
44 0.004988
67 0.007986
79 0.006983
79 0.006019
85 0.006015
97 0.004977
122 0.005026
144 0.002991
158 0.001971
177 0.0
189 0.001994
187 0.0
79 0.0
20 0.0
9 0.000989
31 0.002994
44 0.000971
67 0.001954
82 0.003014
82 0.004012
84 0.00399
96 0.004952
113 0.005976
130 0.005978
148 0.006017
159 0.006028
175 0.005974
183 0.005983
192 0.007979
155 0.004044
33 0.002986
2 0.003973
18 0.003009
34 0.003009
55 0.00306
80 0.002093
84 0.002961
83 0.0
92 0.002994
111 0.0
130 0.003024
147 0.0
163 0.002028
179 0.001984
187 0.00301
201 0.003022
181 0.0
112 0.0
44 0.001995
44 0.002999
64 0.003987
94 0.005996
117 0.006036
126 0.007968
123 0.004938
128 0.004988
140 0.004988
167 0.004941
180 0.004001
199 0.004979
216 0.003984
226 0.005023
240 0.00399
238 0.003992
133 0.003978
68 0.007022
62 0.00399
81 0.003983
100 0.005036
115 0.004024
134 0.004021
135 0.004022
139 0.003986
155 0.003993
170 0.003991
193 0.0
213 0.001005
226 0.0
243 0.0
254 0.0
254 0.0
196 0.001009
145 0.0
75 0.0
84 0.0
99 0.0
119 0.0
132 0.001023
147 0.000997
149 0.001994
151 0.003985
170 0.004979
188 0.005026
204 0.004978
218 0.004993
236 0.005018
188 0.005023
195 0.005019
198 0.004978
199 0.005986
146 0.006974
117 0.007983
105 0.00403
115 0.004996
122 0.004987
133 0.003022
141 0.001998
141 0.001993
140 0.000966
144 0.003031
153 0.000966
161 0.003007
169 0.0
176 0.001997
185 0.0
189 0.0
195 0.0
200 0.0
193 0.002046
146 0.002039
110 0.002013
103 0.001997
116 0.001998
123 0.001998
134 0.003991
137 0.004941
135 0.004987
133 0.006018
139 0.006015
144 0.006015
153 0.005968
157 0.004952
166 0.005966
173 0.005989
177 0.00594
181 0.004987
183 0.006049
147 0.003995
103 0.00602
87 0.004039
93 0.005983
107 0.005991
114 0.006018
124 0.004986
122 0.002992
120 0.005023
125 0.001052
131 0.003013
143 0.0
151 0.000998
161 0.002993
166 0.004013
174 0.00599
180 0.006026
167 0.005989
111 0.005955
91 0.006982
97 0.005952
115 0.006981
125 0.005001
133 0.007973
133 0.007979
131 0.007981
132 0.006978
142 0.004063
147 0.006026
158 0.002986
167 0.002961
173 0.002993
180 0.0
176 0.0
142 0.000965
97 0.000998
84 0.004013
89 0.003989
101 0.00499
112 0.004985
116 0.005989
118 0.005985
117 0.007965
120 0.003988
128 0.00702
139 0.004979
145 0.005012
154 0.005034
159 0.004988
165 0.005028
167 0.001992
138 0.002984
92 0.000998
73 0.001993
77 0.002
89 0.002006
100 0.002005
105 0.002861
107 0.002993
108 0.002992
112 0.002988
124 0.003991
131 0.004008
140 0.005984
150 0.005989
156 0.005983
163 0.005972
163 0.006985
124 0.006984
81 0.006981
70 0.006983
76 0.006988
87 0.007016
93 0.007013
101 0.006986
100 0.006824
98 0.006985
102 0.004965
107 0.006017
119 0.003014
129 0.003939
134 0.003944
141 0.003
147 0.003043
150 0.001988
112 0.0
69 0.003004
57 0.0
64 0.002046
71 0.0
83 0.0
93 0.000997
94 0.000997
93 0.002
98 0.001997
107 0.000997
117 0.002015
127 0.001992
135 0.001011
145 0.001006
149 0.002993
158 0.003972
131 0.004976
96 0.005018
70 0.005985
82 0.00598
89 0.005985
104 0.00499
115 0.005152
116 0.004981
116 0.004971
119 0.003986
129 0.003033
139 0.002015
150 0.002028
157 0.002025
167 0.000961
171 0.000998
175 0.000998
139 0.001002
93 0.000997
77 0.001993
87 0.002012
95 0.000997
106 0.001951
113 0.001995
117 0.005983
115 0.005984
120 0.006925
126 0.006927
138 0.005973
145 0.004989
155 0.003967
164 0.003987
168 0.003996
168 0.003987
123 0.007015
89 0.007015
72 0.005982
77 0.005985
89 0.006015
100 0.004023
106 0.006018
110 0.0
110 0.0
113 0.0
124 0.001024
136 0.0
140 0.0
151 0.0
161 0.00303
165 0.004005
163 0.005993
103 0.005988
84 0.005981
71 0.004984
81 0.007977
86 0.004988
95 0.006976
103 0.004981
104 0.007021
103 0.007044
105 0.007018
115 0.007102
122 0.007014
133 0.007012
143 0.003993
146 0.006983
153 0.00396
141 0.002993
103 0.002992
62 0.0
66 0.001001
76 0.0
88 0.0
97 0.0
103 0.0
102 0.00299
105 0.0
113 0.003023
125 0.0
131 0.0
140 0.0
146 0.0
156 0.0
158 0.002018
118 0.002003
79 0.002992
72 0.003961
81 0.003984
95 0.003984
110 0.006008
115 0.006991
115 0.006987
116 0.00701
122 0.004987
135 0.005985
142 0.00603
153 0.003006
163 0.002996
169 0.003002
174 0.000962
142 0.002027
91 0.000997
73 0.002009
82 0.001995
89 0.001895
99 0.002031
108 0.002014
113 0.002
113 0.002025
117 0.002025
126 0.002
137 0.001991
144 0.001989
154 0.002033
165 0.004006
169 0.003986
170 0.003986
142 0.003908
86 0.00397
78 0.00399
86 0.004006
96 0.004987
108 0.006014
114 0.006017
115 0.004988
115 0.006003
121 0.00399
131 0.004022
144 0.003994
151 0.003025
161 0.003029
168 0.0
172 0.002992
178 0.0
162 0.003025
98 0.0
74 0.00101
79 0.0
91 0.0
97 0.0
109 0.0
112 0.0
110 0.00203
112 0.002957
121 0.003946
128 0.004932
139 0.006001
149 0.005988
154 0.005981
161 0.005984
167 0.006976
151 0.004988
102 0.007975
75 0.004976
78 0.00698
94 0.004987
103 0.005983
118 0.005031
119 0.001985
118 0.004987
122 0.001992
134 0.001982
142 0.0
152 0.0
157 0.0
168 0.0
177 0.002988
171 0.001003
121 0.00096
84 0.002992
85 0.00399
99 0.004987
109 0.00596
119 0.006018
125 0.00698
124 0.006977
125 0.00698
132 0.007978
145 0.005001
152 0.005984
162 0.003972
171 0.002989
175 0.002032
177 0.002008
148 0.002992
89 0.0
81 0.0
88 0.0
100 0.0
110 0.003028
119 0.0
121 0.00296
121 0.0
126 0.000998
137 0.003027
146 0.006017
155 0.005983
162 0.007975
172 0.007015
176 0.005984
170 0.005984
108 0.00299
84 0.005984
84 0.002996
98 0.001982
104 0.001994
117 0.0
121 0.002991
121 0.0
123 0.002028
127 0.0
138 0.0
144 0.0
153 0.0
159 0.002992
165 0.000857
169 0.002984
119 0.002992
86 0.0
73 0.001969
84 0.001995
95 0.001963
106 0.002996
115 0.003973
115 0.005987
113 0.00595
122 0.006948
127 0.006982
140 0.003975
147 0.006949
157 0.003996
167 0.00399
170 0.003984
122 0.002988
81 0.002964
81 0.002994
99 0.002992
112 0.004153
126 0.0
131 0.0
127 0.0
127 0.0
134 0.001015
140 0.000964
152 0.002004
162 0.001995
171 0.002993
177 0.00303
169 0.002992
131 0.003989
79 0.003989
74 0.00396
85 0.003961
95 0.003989
104 0.003984
116 0.003988
117 0.003956
118 0.003955
125 0.003902
132 0.004004
145 0.003992
156 0.003974
161 0.00399
167 0.005969
167 0.006981
134 0.00597
80 0.005985
76 0.005983
84 0.007949
95 0.006981
102 0.00697
112 0.00695
114 0.00408
114 0.006985
119 0.004009
126 0.006982
139 0.003973
149 0.002985
155 0.002993
162 0.002991
165 0.0
137 0.000953
80 0.000997
71 0.002003
81 0.0
91 0.003026
102 0.000963
111 0.002993
110 0.002996
109 0.000997
114 0.001953
123 0.001992
133 0.004002
141 0.004005
150 0.004956
156 0.006019
159 0.006015
129 0.006017
77 0.006021
74 0.004979
80 0.005992
98 0.005982
119 0.005984
128 0.005985
132 0.004972
131 0.004956
134 0.005981
142 0.007972
150 0.004992
158 0.006981
170 0.006971
176 0.006981
143 0.006977
104 0.006981
81 0.00399
90 0.003991
98 0.002985
113 0.00101
122 0.0
122 0.0
122 0.0
131 0.0
139 0.0
150 0.0
157 0.000945
166 0.001016
174 0.001001
159 0.001006
97 0.001003
78 0.00196
85 0.001994
95 0.002002
100 0.001993
114 0.002046
116 0.00399
115 0.004987
119 0.005002
129 0.007014
136 0.006981
145 0.007978
155 0.002992
160 0.004984
165 0.002991
116 0.002989
88 0.002995
79 0.003004
85 0.002989
93 0.002992
106 0.002987
112 0.003002
112 0.003018
112 0.003987
118 0.002995
125 0.003022
133 0.000999
140 0.000994
147 0.0
151 0.0
154 0.0
117 0.0
79 0.0
71 0.002008
82 0.002991
88 0.003034
101 0.003996
108 0.003992
108 0.003995
110 0.004985
115 0.005026
127 0.005949
141 0.005964
148 0.005968
156 0.006006
160 0.005985
160 0.005983
112 0.005951
91 0.006015
90 0.005012
105 0.007976
111 0.004988
124 0.007983
128 0.004991
129 0.006981
131 0.006963
137 0.005988
