59 0.02996
59 0.001986
59 0.002001
60 0.003015
60 0.002964
62 0.003004
61 0.002993
65 0.002989
75 0.001994
86 0.003991
89 0.001994
98 0.002215
97 0.001994
90 0.002957
88 0.002991
76 0.003031
66 0.001996
76 0.002972
82 0.002992
86 0.002992
89 0.002026
87 0.002992
86 0.002992
94 0.002938
93 0.003025
95 0.003985
101 0.003992
112 0.00299
122 0.00297
130 0.002994
140 0.002959
135 0.003006
128 0.003986
92 0.002991
88 0.003948
108 0.003996
123 0.002991
122 0.003989
125 0.003988
122 0.003024
118 0.003024
117 0.003038
114 0.003962
120 0.00399
126 0.003028
136 0.004987
142 0.003035
151 0.003025
152 0.002992
143 0.00404
128 0.00399
96 0.002993
100 0.002968
117 0.002992
125 0.003989
127 0.004012
134 0.002992
135 0.003989
131 0.002993
126 0.002982
126 0.00299
128 0.00396
131 0.003958
134 0.002975
152 0.002992
159 0.003016
150 0.004987
144 0.004984
112 0.00399
87 0.004987
102 0.00399
115 0.00399
121 0.003984
127 0.004987
130 0.004987
120 0.002992
115 0.003996
121 0.004024
126 0.00504
124 0.004987
133 0.004987
146 0.003993
151 0.005019
147 0.004009
136 0.004987
119 0.005024
84 0.004987
73 0.00502
92 0.003981
101 0.004975
109 0.004986
112 0.004984
116 0.005022
107 0.005
105 0.004975
113 0.003989
127 0.004027
136 0.004022
139 0.004945
142 0.005985
153 0.004991
153 0.005018
151 0.00502
137 0.005101
111 0.005017
110 0.004986
121 0.004987
136 0.003953
141 0.004988
142 0.004987
140 0.004987
129 0.005984
122 0.004975
121 0.004987
126 0.00502
128 0.006027
132 0.005984
143 0.006036
148 0.005998
149 0.006031
140 0.005032
116 0.005017
88 0.005966
90 0.005987
107 0.005021
115 0.005032
118 0.005001
126 0.00498
116 0.005047
111 0.006018
113 0.006015
119 0.004988
127 0.004986
132 0.004987
138 0.005983
149 0.006018
162 0.004987
161 0.00499
148 0.006004
138 0.006952
106 0.005966
110 0.005984
118 0.006035
121 0.006024
120 0.006019
122 0.005942
119 0.005985
122 0.005984
125 0.00599
118 0.006017
119 0.006023
125 0.00602
127 0.006018
139 0.006979
144 0.007028
128 0.006004
117 0.00602
98 0.005984
85 0.00602
93 0.006982
110 0.00603
115 0.005989
115 0.006939
111 0.005984
98 0.006981
94 0.006982
93 0.006978
98 0.006986
109 0.005984
113 0.00604
113 0.006021
118 0.007018
119 0.006982
115 0.006983
141 0.006018
134 0.006981
85 0.006981
84 0.007021
100 0.006981
104 0.006982
97 0.007026
97 0.007015
97 0.005966
88 0.007979
81 0.007979
90 0.007013
98 0.006981
95 0.006025
105 0.007016
113 0.007017
125 0.008011
129 0.007019
135 0.006998
122 0.007016
90 0.006971
63 0.007943
68 0.007977
77 0.006982
78 0.006984
81 0.006982
77 0.00702
69 0.007917
64 0.006983
69 0.007947
73 0.007981
89 0.007978
96 0.007049
102 0.007975
108 0.007979
112 0.006982
117 0.006977
124 0.007948
108 0.006981
86 0.006982
70 0.007949
77 0.007955
84 0.007014
86 0.007004
86 0.00701
87 0.007014
81 0.006981
76 0.007015
73 0.006987
77 0.007993
80 0.00798
83 0.007979
92 0.007986
93 0.007984
102 0.007992
102 0.006979
99 0.007979
82 0.007016
61 0.007028
31 0.006568
37 0.006998
55 0.006981
47 0.006982
44 0.007971
47 0.006981
47 0.00798
39 0.007946
46 0.007012
46 0.007017
56 0.007016
62 0.007015
68 0.006981
69 0.007017
79 0.006988
85 0.006978
85 0.006978
75 0.00693
56 0.006955
33 0.006986
46 0.00602
56 0.006982
58 0.005984
59 0.00603
68 0.006026
72 0.005985
66 0.005988
76 0.00698
86 0.006939
98 0.006981
99 0.006985
107 0.006972
121 0.007015
133 0.006016
144 0.005975
143 0.005988
129 0.005984
98 0.006032
86 0.005983
106 0.005986
119 0.005994
122 0.006003
121 0.005996
118 0.005991
119 0.006016
120 0.00607
122 0.006028
126 0.004986
132 0.005984
143 0.006017
153 0.005
167 0.00599
175 0.005987
174 0.006032
163 0.00599
150 0.005985
122 0.006038
131 0.006033
147 0.005984
152 0.006101
150 0.005982
163 0.005982
162 0.004985
153 0.004986
153 0.004955
160 0.004959
170 0.004978
179 0.004986
185 0.005022
195 0.004943
194 0.004985
190 0.006031
175 0.005984
155 0.006018
122 0.005978
122 0.005021
148 0.004966
155 0.004975
153 0.004991
148 0.005015
150 0.005021
134 0.004988
126 0.004988
135 0.00502
137 0.004987
144 0.00399
154 0.003972
160 0.005007
162 0.005022
157 0.004984
143 0.004987
120 0.00498
102 0.005022
109 0.004987
116 0.00499
124 0.004988
126 0.005029
129 0.00399
129 0.003948
119 0.004018
125 0.003955
129 0.004036
129 0.003942
134 0.003959
142 0.004023
151 0.003989
165 0.003989
169 0.00399
155 0.004025
128 0.003989
107 0.004289
122 0.003997
140 0.003952
143 0.003991
147 0.003987
148 0.003973
141 0.004227
130 0.004021
132 0.004023
138 0.003991
139 0.003989
151 0.003946
156 0.00399
162 0.003975
165 0.003986
154 0.003984
136 0.003011
112 0.002986
110 0.003991
127 0.004031
143 0.004038
144 0.004015
141 0.004555
143 0.002986
134 0.003614
133 0.003974
138 0.003986
139 0.003989
141 0.002993
139 0.002994
144 0.002977
153 0.003772
153 0.002991
142 0.003988
127 0.00395
94 0.003952
100 0.003966
113 0.003979
110 0.002989
107 0.002989
104 0.002977
101 0.002981
93 0.002992
92 0.003023
97 0.002992
98 0.002992
103 0.002992
111 0.002989
113 0.002992
118 0.002992
114 0.001996
89 0.001995
67 0.001996
64 0.002992
81 0.002992
87 0.003044
83 0.003029
87 0.002991
89 0.001996
75 0.001978
67 0.001996
78 0.002037
80 0.001998
85 0.002042
96 0.001992
100 0.002964
110 0.001961
111 0.002026
109 0.002025
97 0.001994
74 0.001995
73 0.001926
89 0.003033
95 0.001995
99 0.001994
107 0.001977
102 0.002009
97 0.001974
99 0.002008
100 0.002036
110 0.001057
117 0.002029
124 0.001994
136 0.001995
137 0.001986
135 0.002032
126 0.001983
106 0.002004
90 0.00099
90 0.001036
102 0.001006
108 0.001995
116 0.001029
118 0.000986
114 0.000997
102 0.000998
100 0.000995
104 0.001975
101 0.001995
107 0.002031
123 0.002011
131 0.001991
137 0.001995
138 0.000998
116 0.000997
95 0.000998
76 0.000997
83 0.001007
92 0.001003
86 0.000999
81 0.000997
89 0.000985
79 0.002037
75 0.002045
74 0.001994
74 0.001032
82 0.000997
89 0.000999
99 0.001007
110 0.000997
120 0.00102
122 0.000997
103 0.000991
82 0.000998
54 0.001003
62 0.000999
76 0.0
71 0.000998
78 0.000997
79 0.001995
75 0.000999
71 0.000997
72 0.000999
72 0.000998
76 0.000999
78 0.0
85 0.0
92 0.000998
105 0.0
108 0.0
97 0.0
80 0.0
43 0.0
42 0.0
57 0.0
67 0.0
71 0.0
78 0.0
76 0.0
67 0.0
66 0.0
66 0.0
65 0.000998
73 0.0
87 0.0
97 0.0
104 0.0
115 0.0
117 0.0
104 0.0
80 0.0
67 0.0
80 0.0
100 0.0
110 0.0
112 0.000994
113 0.0
94 0.0
93 0.0
100 0.0
101 0.0
105 0.000957
112 0.000868
113 0.001044
122 0.0
124 0.000998
134 0.000998
133 0.000998
112 0.0
89 0.000998
78 0.000997
87 0.0
93 0.0
98 0.0
99 0.0
102 0.0
95 0.000966
92 0.00107
89 0.0
90 0.000991
86 0.0
94 0.0
96 0.000998
99 0.000997
106 0.0
106 0.0
96 0.0
76 0.000997
50 0.000999
45 0.0
56 0.001053
67 0.001036
64 0.000966
69 0.0
63 0.001024
51 0.000995
53 0.0
57 0.001026
63 0.0
68 0.00196
73 0.000997
78 0.000968
91 0.000998
94 0.000998
84 0.000994
71 0.001005
51 0.000997
35 0.00203
49 0.000993
56 0.00103
55 0.000998
58 0.000996
56 0.001996
50 0.000999
36 0.002027
29 0.002031
58 0.001042
73 0.001
84 0.002002
90 0.002026
103 0.000988
122 0.001035
103 0.001035
99 0.00101
97 0.001995
85 0.001007
78 0.000998
81 0.00098
86 0.000995
80 0.000971
77 0.002028
78 0.002045
78 0.001993
86 0.001035
86 0.001009
76 0.001994
71 0.001997
63 0.002001
62 0.001
63 0.00103
60 0.001007
52 0.000988
52 0.002043
47 0.002028
19 0.001998
24 0.001976
37 0.001955
35 0.002992
25 0.002992
44 0.001976
44 0.002992
42 0.001996
53 0.001994
52 0.002027
60 0.002019
69 0.002993
65 0.003023
52 0.002025
44 0.001919
54 0.002008
55 0.002992
50 0.004026
26 0.002027
33 0.004026
59 0.001993
55 0.002028
52 0.001994
50 0.002992
51 0.003991
76 0.002992
83 0.002992
81 0.001993
82 0.003032
89 0.002992
92 0.002071
116 0.003003
134 0.003028
137 0.003024
140 0.001973
109 0.003023
70 0.004034
51 0.002992
68 0.00293
75 0.002993
76 0.00399
72 0.003989
73 0.002996
56 0.002997
70 0.002977
79 0.004022
72 0.003025
57 0.004023
64 0.004052
77 0.004022
93 0.004037
101 0.004028
104 0.004023
69 0.00404
37 0.003003
56 0.004025
81 0.003002
94 0.003024
112 0.001951
116 0.00404
106 0.005032
103 0.002961
106 0.002992
101 0.004023
107 0.00399
107 0.003989
116 0.003009
121 0.003989
117 0.00302
114 0.003027
99 0.002977
71 0.004987
56 0.004982
72 0.00399
77 0.004015
70 0.004278
70 0.004023
75 0.004987
70 0.003988
77 0.004986
91 0.004028
104 0.004023
102 0.003952
114 0.00403
113 0.005027
120 0.005033
123 0.003992
111 0.004002
84 0.004019
56 0.004986
65 0.003989
72 0.004987
78 0.004973
91 0.004108
103 0.003991
104 0.004025
103 0.006041
101 0.005021
111 0.004028
110 0.005022
117 0.004971
117 0.005986
136 0.004012
142 0.005028
125 0.005043
98 0.004042
65 0.003991
63 0.003991
70 0.00502
81 0.005985
76 0.004984
78 0.00502
82 0.005004
71 0.006018
78 0.004711
81 0.005982
91 0.005978
105 0.005026
116 0.004997
127 0.005198
140 0.006031
144 0.006018
129 0.004988
112 0.004991
85 0.004987
82 0.004986
103 0.005021
109 0.006047
112 0.005991
120 0.004968
118 0.005028
115 0.003989
124 0.006453
135 0.006026
135 0.005016
145 0.00498
164 0.004975
177 0.005989
189 0.005985
183 0.006931
179 0.007018
134 0.005989
109 0.005978
100 0.005018
115 0.006379
119 0.006985
121 0.005977
133 0.006015
135 0.006045
127 0.005984
130 0.005653
134 0.007005
137 0.006996
148 0.006022
162 0.006023
172 0.006019
175 0.006983
180 0.006987
172 0.005988
153 0.005985
106 0.005018
104 0.006991
112 0.005989
110 0.006982
113 0.00702
128 0.007013
126 0.006015
126 0.006017
131 0.006025
144 0.00703
153 0.007021
170 0.006984
182 0.006982
192 0.006024
203 0.007045
191 0.007012
167 0.007023
124 0.006983
105 0.006982
114 0.006018
118 0.005997
117 0.007015
115 0.007021
115 0.007018
113 0.007018
112 0.007027
125 0.007013
137 0.006969
146 0.007979
158 0.007979
171 0.006983
185 0.007033
192 0.007022
198 0.007022
190 0.007014
159 0.007975
101 0.00695
97 0.006964
106 0.007038
107 0.007025
111 0.008016
122 0.007021
111 0.006996
106 0.007013
110 0.00701
117 0.007979
132 0.007974
133 0.007016
146 0.007027
166 0.007026
178 0.007007
186 0.006982
181 0.007978
166 0.00698
117 0.007021
102 0.006999
119 0.006972
132 0.007964
134 0.007972
148 0.007966
152 0.006989
145 0.006922
158 0.006976
164 0.006981
181 0.00798
202 0.007978
214 0.007016
220 0.007016
234 0.00697
231 0.006984
223 0.00698
185 0.006973
126 0.007022
125 0.006982
145 0.007996
149 0.007018
154 0.006983
163 0.006985
160 0.007009
161 0.006986
159 0.007018
155 0.007978
163 0.006964
163 0.006995
160 0.007017
171 0.006984
175 0.006977
167 0.006947
165 0.006987
126 0.006973
89 0.006012
95 0.00698
107 0.006019
113 0.006007
109 0.006023
118 0.005991
124 0.00698
123 0.006985
127 0.00697
132 0.006981
136 0.006985
145 0.006985
148 0.006023
162 0.006012
166 0.005968
152 0.005981
144 0.006023
113 0.006032
67 0.006018
79 0.006981
93 0.006969
102 0.00701
106 0.006966
114 0.005985
115 0.005978
118 0.005984
120 0.005977
131 0.005988
143 0.005955
155 0.005983
167 0.006035
188 0.005984
200 0.006053
188 0.005992
169 0.005987
117 0.006015
92 0.005986
98 0.004987
112 0.005984
114 0.005983
119 0.005984
127 0.004983
120 0.005026
116 0.004949
127 0.004951
138 0.006015
148 0.005984
152 0.005978
160 0.006009
180 0.004964
189 0.004985
182 0.005004
167 0.004987
136 0.004978
91 0.005023
107 0.004988
132 0.004991
133 0.004949
137 0.004934
142 0.005982
139 0.005986
133 0.005984
142 0.004988
146 0.00498
154 0.004976
165 0.004977
185 0.004988
199 0.004997
199 0.004991
185 0.004993
163 0.004986
117 0.004985
96 0.005017
112 0.004985
125 0.00493
127 0.003988
129 0.00502
133 0.004999
133 0.005245
141 0.004956
147 0.004988
150 0.004983
162 0.004991
174 0.004954
174 0.003955
186 0.003978
198 0.003953
189 0.00399
176 0.003945
136 0.003993
111 0.003979
129 0.003951
131 0.003952
128 0.004947
127 0.003948
116 0.005002
108 0.004996
106 0.004022
109 0.004994
120 0.003942
130 0.003958
135 0.003991
152 0.003997
158 0.003958
149 0.003983
134 0.003989
104 0.003932
68 0.003949
69 0.003959
87 0.003959
87 0.003989
80 0.003988
87 0.00403
86 0.002991
85 0.003999
87 0.003994
95 0.003956
108 0.00399
112 0.003954
119 0.00399
126 0.00394
127 0.003988
136 0.003991
135 0.003957
115 0.002979
74 0.002957
51 0.003997
64 0.004003
66 0.003987
53 0.003035
62 0.003007
66 0.003995
62 0.002998
66 0.003963
104 0.003974
120 0.003003
133 0.003991
134 0.002986
131 0.003009
139 0.002993
146 0.002994
150 0.003961
149 0.003033
119 0.003957
72 0.001957
67 0.003011
80 0.003
91 0.002992
88 0.002992
95 0.002992
94 0.003017
95 0.002992
98 0.002975
100 0.002988
117 0.002994
122 0.002995
133 0.002989
146 0.003027
156 0.002998
168 0.002977
171 0.002992
168 0.002999
120 0.001997
90 0.001959
96 0.002993
103 0.001991
94 0.002022
94 0.002964
98 0.003037
95 0.002992
93 0.00299
98 0.002993
103 0.003028
105 0.002989
115 0.002015
118 0.001997
117 0.002
127 0.001983
138 0.002032
126 0.001962
112 0.001996
66 0.001999
32 0.00237
36 0.001994
50 0.001983
51 0.001992
58 0.002004
58 0.001982
49 0.002038
47 0.001994
44 0.001988
56 0.001991
66 0.001978
72 0.002008
78 0.001994
88 0.001001
99 0.000986
98 0.001051
96 0.001961
66 0.001965
25 0.001995
21 0.001975
38 0.001995
41 0.001995
44 0.001993
50 0.000997
52 0.000964
48 0.002005
55 0.000968
67 0.002026
75 0.000992
86 0.001996
96 0.002001
107 0.001971
122 0.001982
137 0.001993
133 0.002006
125 0.00198
88 0.000959
50 0.000994
60 0.000992
96 0.000997
95 0.001021
111 0.000996
117 0.000999
113 0.001
118 0.000994
131 0.000993
143 0.000994
149 0.002002
161 0.001017
175 0.001005
178 0.000997
184 0.0
178 0.001996
147 0.0
94 0.0
72 0.000998
86 0.001015
104 0.001001
99 0.001004
101 0.001
107 0.001012
106 0.001013
98 0.000986
107 0.0
120 0.001007
128 0.0
141 0.000984
152 0.000998
159 0.000999
164 0.00102
158 0.001
127 0.0
72 0.001014
59 0.001004
75 0.0
80 0.001005
84 0.0
90 0.0
87 0.0
85 0.0
95 0.0
102 0.0
111 0.0
124 0.0
137 0.0
153 0.0
168 0.0
164 0.0
138 0.0
93 0.0
85 0.0
107 0.000954
121 0.000945
123 0.001035
133 0.000991
142 0.0
138 0.0
144 0.0
152 0.001037
168 0.0
177 0.000916
188 0.000997
206 0.0
215 0.0
213 0.0
198 0.0
165 0.0
142 0.000971
164 0.0
185 0.0
192 0.0
203 0.0
200 0.000994
201 0.001018
201 0.0
204 0.0
213 0.000963
221 0.001051
225 0.001006
238 0.0
231 0.0
220 0.0
195 0.0
156 0.0
152 0.0
167 0.000984
176 0.001033
173 0.0
181 0.0
178 0.0
169 0.000961
166 0.001007
168 0.0
171 0.000962
179 0.001
191 0.000998
197 0.0
190 0.00201
178 0.002035
147 0.0
118 0.000997
103 0.000961
126 0.000993
135 0.000999
129 0.0
134 0.0
128 0.000997
128 0.000954
134 0.000993
138 0.001995
142 0.002031
149 0.001042
158 0.001074
173 0.001059
170 0.001984
159 0.000991
129 0.001015
92 0.001026
96 0.001055
106 0.001045
106 0.000988
109 0.001995
118 0.002028
106 0.001029
102 0.000997
107 0.00103
120 0.001977
128 0.00203
131 0.000995
146 0.000999
165 0.00101
161 0.002035
150 0.00199
131 0.002001
90 0.002006
81 0.001
107 0.000987
111 0.000946
103 0.002035
106 0.001994
116 0.000954
98 0.000954
102 0.000991
117 0.001993
122 0.000999
123 0.001994
128 0.001994
146 0.002045
147 0.001017
135 0.001961
142 0.00204
122 0.003026
86 0.000989
96 0.000996
113 0.002032
108 0.001999
111 0.000947
109 0.002009
101 0.003027
98 0.003024
98 0.001975
100 0.001221
106 0.002023
110 0.00402
118 0.003989
139 0.001991
145 0.003022
122 0.001993
94 0.001964
59 0.001998
48 0.002992
50 0.003002
56 0.001999
57 0.000992
62 0.00201
55 0.003948
47 0.004022
67 0.002991
67 0.003989
63 0.003029
70 0.001967
80 0.002045
82 0.003046
80 0.003653
83 0.002993
81 0.00202
62 0.001992
21 0.004022
12 0.004017
27 0.004023
27 0.003989
26 0.002003
34 0.00196
34 0.002026
35 0.005043
36 0.004028
46 0.002978
55 0.002992
62 0.002979
69 0.003992
76 0.003969
92 0.003988
92 0.004022
91 0.00298
69 0.003405
29 0.003042
32 0.005023
44 0.004023
54 0.003008
52 0.00296
62 0.003007
58 0.004022
54 0.004026
58 0.004016
68 0.003989
90 0.003024
100 0.002978
109 0.003031
125 0.005022
139 0.00503
160 0.00297
160 0.002994
157 0.002979
133 0.00502
105 0.005036
131 0.004993
142 0.004989
139 0.003027
142 0.002983
146 0.003988
147 0.003991
146 0.005025
148 0.003967
147 0.004106
163 0.003024
163 0.004981
173 0.00502
183 0.004023
189 0.005984
180 0.004987
165 0.00402
129 0.003994
111 0.003881
121 0.004987
139 0.004983
135 0.003946
135 0.003989
135 0.004981
127 0.005017
123 0.004021
128 0.004987
129 0.00598
135 0.004972
138 0.005022
147 0.003972
148 0.005989
152 0.004984
136 0.00502
120 0.003998
76 0.004
56 0.005025
72 0.005017
82 0.006024
77 0.005985
80 0.005021
79 0.004941
74 0.005016
78 0.006016
86 0.00602
93 0.00501
99 0.005009
106 0.006022
116 0.006019
131 0.005986
135 0.006982
127 0.005984
92 0.004984
53 0.004959
60 0.004991
77 0.006019
82 0.007016
81 0.004956
87 0.00502
81 0.005013
78 0.006984
90 0.005027
98 0.006982
111 0.006985
125 0.00502
137 0.005989
147 0.004986
156 0.005983
162 0.006015
147 0.005599
125 0.005998
98 0.005015
102 0.004988
121 0.004981
126 0.005982
133 0.005947
134 0.004997
135 0.004985
141 0.005801
141 0.007012
146 0.006979
157 0.005974
157 0.006028
161 0.00602
179 0.004973
181 0.006023
173 0.006979
154 0.007011
108 0.00604
100 0.006005
117 0.005985
130 0.005994
130 0.007017
137 0.007979
147 0.006024
144 0.006021
139 0.006012
147 0.006982
145 0.006981
156 0.006982
172 0.007971
176 0.005982
184 0.006019
181 0.006015
172 0.007012
144 0.007026
114 0.005985
125 0.005994
139 0.005975
136 0.007039
134 0.006977
142 0.007977
140 0.007978
136 0.006981
144 0.007032
148 0.007014
153 0.007983
153 0.007976
171 0.005999
184 0.006019
165 0.005992
154 0.007001
116 0.00699
81 0.007979
75 0.007988
95 0.006988
99 0.006974
100 0.007019
114 0.007967
113 0.006984
107 0.007013
108 0.005985
111 0.006982
109 0.006982
114 0.006957
128 0.007978
139 0.007966
136 0.006982
136 0.006939
127 0.006944
70 0.00797
74 0.007975
92 0.006976
103 0.006982
111 0.007012
100 0.00701
90 0.006969
96 0.006977
96 0.006981
92 0.006974
98 0.006982
105 0.00698
110 0.007947
125 0.006983
147 0.006939
139 0.006969
93 0.006984
57 0.006976
49 0.007013
72 0.007021
86 0.006983
93 0.006979
108 0.00698
104 0.006951
98 0.006931
97 0.006977
106 0.006986
106 0.006986
124 0.007017
143 0.006949
153 0.006022
155 0.007015
136 0.006986
112 0.006996
65 0.006998
57 0.00697
79 0.005993
90 0.005973
91 0.005989
98 0.005992
99 0.007014
84 0.006029
88 0.006006
86 0.005986
87 0.005986
97 0.005985
117 0.006981
133 0.006977
141 0.006972
127 0.006983
116 0.005976
43 0.007018
34 0.006987
55 0.005968
54 0.006026
51 0.006017
55 0.005994
50 0.005983
30 0.005989
32 0.005979
35 0.005975
38 0.006981
44 0.006981
70 0.006017
84 0.006017
93 0.006031
87 0.006015
65 0.006027
16 0.005977
0 0.005983
15 0.00595
32 0.005983
43 0.004995
66 0.006012
73 0.005017
67 0.005021
83 0.005021
97 0.005983
103 0.006001
110 0.006029
119 0.005993
123 0.005966
142 0.005983
152 0.005984
153 0.005984
135 0.005986
92 0.005953
70 0.005018
66 0.004984
50 0.005019
58 0.004977
79 0.004982
96 0.004982
85 0.004989
72 0.005963
62 0.006
51 0.004987
40 0.004984
32 0.004981
43 0.005027
60 0.006038
46 0.005021
36 0.005103
0 0.005014
39 0.004996
44 0.005019
49 0.004986
43 0.004993
43 0.00499
45 0.00499
42 0.004987
43 0.00502
49 0.004988
54 0.003997
62 0.004021
74 0.004023
89 0.004991
93 0.004976
89 0.004991
79 0.004986
51 0.004989
37 0.004987
43 0.004992
52 0.004991
56 0.004987
72 0.003996
87 0.004023
89 0.005021
92 0.003985
97 0.003991
102 0.003955
108 0.003989
122 0.004986
134 0.00496
139 0.00499
136 0.005021
121 0.00502
103 0.00502
105 0.00399
113 0.004026
122 0.003985
135 0.004
145 0.003957
139 0.003959
137 0.003995
143 0.003958
149 0.00397
158 0.004041
166 0.004025
175 0.003025
174 0.002994
167 0.003049
153 0.002954
122 0.00396
107 0.002993
103 0.002992
108 0.00399
109 0.003989
105 0.003989
108 0.003025
107 0.003041
112 0.004027
120 0.003952
127 0.003955
138 0.00397
145 0.003961
152 0.004013
150 0.003993
146 0.003985
124 0.004001
96 0.003012
104 0.002992
113 0.003054
119 0.003022
125 0.002991
124 0.002992
117 0.002977
118 0.00399
119 0.003956
118 0.003956
125 0.003954
141 0.003983
183 0.003978
188 0.00305
170 0.002992
147 0.003023
114 0.003026
109 0.002992
113 0.002991
121 0.002992
126 0.002992
141 0.00299
137 0.002989
133 0.00296
135 0.002029
140 0.002045
143 0.00203
150 0.003034
158 0.002001
168 0.001995
165 0.001983
166 0.001995
160 0.001991
140 0.001991
130 0.002993
142 0.002998
148 0.002992
154 0.002993
159 0.003024
158 0.002992
156 0.001995
158 0.001995
164 0.002026
163 0.001998
165 0.001995
161 0.001999
172 0.001996
180 0.001998
175 0.002005
167 0.001995
145 0.002992
129 0.002993
135 0.002993
147 0.001996
145 0.001995
146 0.002029
153 0.001996
160 0.001982
150 0.001983
154 0.001993
161 0.001992
157 0.002027
161 0.002041
165 0.001996
172 0.001996
170 0.001996
166 0.000987
151 0.001003
122 0.001001
105 0.001006
116 0.001008
122 0.000989
114 0.002028
115 0.002037
115 0.001995
117 0.001966
110 0.000997
121 0.001964
124 0.002028
127 0.001999
135 0.001995
144 0.001042
147 0.001046
142 0.000997
150 0.000997
123 0.000997
97 0.000998
95 0.001995
105 0.000998
106 0.001008
105 0.001056
112 0.000965
112 0.000999
106 0.002017
110 0.000996
117 0.000997
116 0.001995
124 0.002057
121 0.0
123 0.000998
138 0.000998
143 0.000998
133 0.000999
127 0.000999
99 0.001009
86 0.001008
96 0.00103
113 0.000998
117 0.000997
124 0.000997
123 0.000998
116 0.0
117 0.0
121 0.0
120 0.0
124 0.0
129 0.0
132 0.001011
138 0.000994
159 0.000999
155 0.000998
132 0.000998
87 0.0
72 0.0
94 0.0
114 0.0
115 0.0
119 0.0
123 0.0
118 0.0
109 0.0
116 0.0
127 0.000997
128 0.0
141 0.0
148 0.0
160 0.0
169 0.0
150 0.000948
127 0.0
94 0.0
75 0.0
83 0.0
109 0.000998
106 0.0
112 0.000998
109 0.002003
101 0.0
109 0.0
115 0.0
112 0.000986
114 0.000997
120 0.0
124 0.0
128 0.0
121 0.0
102 0.0
63 0.000998
47 0.000998
61 0.0
69 0.0
64 0.0
66 0.000993
64 0.001
49 0.0
49 0.000993
54 0.0
55 0.0
65 0.0
81 0.000997
86 0.001003
89 0.0
80 0.0
68 0.0
31 0.000994
0 0.00103
6 0.000989
20 0.0
24 0.0
25 0.000997
30 0.000997
24 0.000998
22 0.002029
24 0.001995
38 0.0
50 0.0
58 0.001005
71 0.000956
81 0.000965
79 0.0
72 0.0
18 0.0
0 0.0
2 0.0
22 0.001996
26 0.001962
26 0.000998
33 0.001045
23 0.000984
16 0.000997
19 0.000982
36 0.000964
43 0.001005
57 0.001001
74 0.001002
89 0.000994
90 0.002042
82 0.002998
54 0.000981
17 0.000986
12 0.001018
30 0.001002
44 0.002031
50 0.000983
62 0.001023
59 0.000985
61 0.002002
65 0.000996
78 0.001995
85 0.001995
97 0.001017
103 0.001027
117 0.001007
123 0.002043
130 0.003025
119 0.002
76 0.002992
60 0.000997
77 0.001015
95 0.000952
88 0.002954
103 0.002971
98 0.001995
84 0.001997
89 0.000998
99 0.002983
101 0.002995
116 0.000999
131 0.00299
149 0.000995
153 0.000994
145 0.001007
114 0.001994
96 0.002992
70 0.001983
81 0.001999
108 0.001024
128 0.003021
129 0.002991
132 0.002003
131 0.003019
118 0.001035
126 0.002034
137 0.002985
138 0.002025
148 0.002992
159 0.003026
163 0.00193
168 0.001945
172 0.001978
161 0.00399
127 0.00399
96 0.004021
109 0.003053
115 0.000947
112 0.001983
115 0.001975
114 0.003989
103 0.00399
102 0.001985
107 0.002022
115 0.001988
127 0.004034
137 0.003992
143 0.004026
152 0.004021
156 0.00201
148 0.001997
146 0.002003
122 0.00399
99 0.004016
110 0.00198
123 0.002992
124 0.00199
122 0.003982
125 0.00402
116 0.003989
116 0.004021
127 0.001988
131 0.002015
141 0.002015
150 0.00402
152 0.004023
151 0.002
156 0.002993
163 0.002984
162 0.003975
150 0.00399
84 0.003985
73 0.003995
85 0.002981
91 0.002952
86 0.002982
89 0.004021
80 0.003989
70 0.003039
66 0.001973
67 0.002935
67 0.003991
71 0.004988
102 0.00498
112 0.004987
133 0.003011
154 0.002969
159 0.002979
145 0.003979
144 0.003989
107 0.00402
91 0.003946
100 0.003975
116 0.004988
118 0.004978
129 0.004988
116 0.00499
102 0.002999
113 0.002992
119 0.002994
121 0.005986
132 0.005984
143 0.003991
150 0.003959
160 0.003957
163 0.003941
175 0.00399
163 0.004027
142 0.004987
101 0.005043
68 0.003988
80 0.004022
87 0.004019
97 0.006096
100 0.006016
97 0.003964
91 0.00396
88 0.003957
93 0.003986
101 0.003985
99 0.005989
102 0.004987
120 0.003989
132 0.004994
143 0.004982
135 0.005985
126 0.005984
86 0.005023
47 0.00502
25 0.003986
42 0.003998
43 0.003965
52 0.006016
57 0.006032
61 0.003992
53 0.004953
43 0.005009
47 0.00603
61 0.005984
72 0.004956
71 0.005002
82 0.004971
93 0.005016
93 0.004015
97 0.005984
91 0.005981
62 0.004019
29 0.004988
19 0.004986
30 0.006978
32 0.006973
38 0.004991
42 0.00499
46 0.004945
41 0.003996
46 0.00499
49 0.005984
58 0.005984
70 0.006016
78 0.006012
83 0.004971
101 0.007014
111 0.006982
124 0.004966
115 0.004999
90 0.00499
37 0.004986
42 0.005952
50 0.007012
51 0.006983
56 0.006016
61 0.005989
66 0.006024
59 0.007015
65 0.007013
83 0.004987
86 0.005985
83 0.004988
100 0.004997
104 0.004993
110 0.006017
113 0.007015
118 0.005976
114 0.005984
73 0.005987
35 0.007395
40 0.007952
52 0.00698
63 0.004987
59 0.004981
73 0.005984
61 0.006002
54 0.005981
67 0.007961
82 0.007984
91 0.005993
104 0.006002
120 0.005984
140 0.007013
143 0.007014
154 0.006027
148 0.006241
116 0.005952
73 0.005984
63 0.005975
88 0.007979
105 0.00802
108 0.007015
106 0.006982
114 0.00598
113 0.007975
115 0.00798
117 0.007031
130 0.005994
153 0.005987
162 0.005983
171 0.005989
179 0.007979
187 0.007979
172 0.005945
154 0.006987
100 0.006985
60 0.00798
69 0.007985
84 0.006986
84 0.007944
88 0.006989
84 0.007021
83 0.007013
78 0.007974
77 0.007021
79 0.006952
101 0.006976
104 0.006979
117 0.006981
123 0.00801
119 0.006982
103 0.007974
80 0.006993
9 0.007
6 0.006979
26 0.006978
31 0.007016
27 0.006978
34 0.006975
36 0.00698
33 0.007
36 0.006967
44 0.006973
55 0.007978
75 0.006982
83 0.006981
96 0.006979
101 0.006983
99 0.006987
95 0.006967
56 0.007006
10 0.006983
9 0.007016
31 0.006982
42 0.006971
42 0.006015
44 0.006029
44 0.006016
52 0.007027
75 0.006984
75 0.007012
85 0.007013
92 0.006933
100 0.007014
110 0.006977
122 0.006979
116 0.006976
98 0.006028
41 0.006018
21 0.006015
35 0.006015
37 0.006018
39 0.006016
59 0.006015
73 0.006016
66 0.006014
74 0.00602
78 0.005977
93 0.005945
112 0.005985
111 0.005983
123 0.006014
127 0.007019
126 0.005014
128 0.005975
108 0.005992
43 0.006014
41 0.006015
59 0.005977
69 0.005988
71 0.005985
89 0.005982
88 0.006018
88 0.006017
97 0.005952
96 0.005983
104 0.005024
118 0.005021
145 0.00597
159 0.005971
177 0.00602
184 0.00601
181 0.005965
119 0.006019
82 0.005982
85 0.006021
100 0.006016
99 0.00502
101 0.005021
108 0.005019
109 0.006015
117 0.005037
121 0.004987
133 0.004989
149 0.004987
169 0.005021
178 0.004988
190 0.00502
192 0.005895
184 0.006015
166 0.005021
113 0.004991
75 0.005017
84 0.005018
94 0.004991
94 0.004978
103 0.00497
110 0.005023
102 0.005025
103 0.005017
113 0.003989
124 0.003939
126 0.004023
133 0.005019
149 0.005002
150 0.004988
152 0.005024
145 0.004971
86 0.005023
59 0.005019
57 0.00499
72 0.005018
73 0.004023
75 0.004021
89 0.003992
91 0.00399
93 0.003991
114 0.003995
140 0.004022
146 0.004985
160 0.003992
170 0.004989
179 0.004988
181 0.005029
182 0.005021
175 0.00401
129 0.004017
89 0.003995
97 0.003991
112 0.004034
109 0.003958
121 0.003954
129 0.003991
116 0.003996
115 0.004027
130 0.003995
133 0.004989
144 0.00405
159 0.004042
157 0.00399
166 0.003984
182 0.004021
182 0.004028
177 0.004017
163 0.003991
128 0.003986
102 0.003989
105 0.003955
113 0.002992
114 0.002993
119 0.002995
119 0.00403
113 0.002992
126 0.003987
132 0.003991
137 0.003978
153 0.003978
167 0.003991
157 0.003032
162 0.002992
174 0.003042
184 0.003991
185 0.002992
182 0.004045
167 0.002992
98 0.003079
89 0.002992
99 0.00301
103 0.002992
108 0.002992
111 0.002992
106 0.002994
105 0.002992
110 0.002993
119 0.003026
126 0.003032
137 0.002992
152 0.002992
149 0.002992
151 0.001991
168 0.002995
176 0.002028
170 0.001993
163 0.001995
123 0.002028
69 0.001993
71 0.00203
78 0.001996
74 0.002028
76 0.002992
89 0.003004
93 0.002998
80 0.002992
81 0.002992
89 0.002025
94 0.002001
94 0.001995
95 0.001995
107 0.001995
116 0.00201
136 0.002
135 0.001995
129 0.002032
100 0.001996
18 0.002993
19 0.00204
31 0.001995
34 0.001996
40 0.001994
62 0.002024
59 0.002029
43 0.001995
42 0.001995
50 0.001996
65 0.001993
79 0.002032
96 0.002045
93 0.001995
95 0.000998
97 0.000998
103 0.000999
105 0.001995
69 0.000999
11 0.000998
8 0.001024
37 0.000999
49 0.000997
60 0.000998
83 0.000998
92 0.002008
88 0.002001
94 0.002028
106 0.000997
113 0.002002
126 0.001029
136 0.000998
126 0.000998
121 0.000998
152 0.000997
160 0.000997
151 0.000982
111 0.00101
56 0.000997
47 0.002029
57 0.000997
61 0.002
64 0.000998
74 0.000998
80 0.000998
80 0.000998
83 0.000997
105 0.001995
123 0.001996
134 0.002027
143 0.0
140 0.000962
139 0.000997
147 0.000997
147 0.000998
139 0.000964
106 0.000997
39 0.000998
6 0.000997
42 0.000997
45 0.0
46 0.0
51 0.0
48 0.0
51 0.0
55 0.0
72 0.0
90 0.0
101 0.0
103 0.0
112 0.0
142 0.000998
148 0.0
141 0.0
124 0.0
76 0.0
24 0.0
22 0.0
33 0.0
44 0.0
43 0.0
55 0.0
65 0.0
67 0.0
81 0.0
100 0.0
107 0.0
111 0.0
117 0.0
122 0.0
138 0.0
145 0.0
125 0.000997
66 0.0
20 0.0
19 0.0
33 0.0
39 0.00204
47 0.002047
62 0.0
63 0.0
64 0.0
70 0.002044
82 0.002043
100 0.0
111 0.0
127 0.0
139 0.0
139 0.0
138 0.001023
114 0.000999
27 0.0
0 0.0
0 0.0
14 0.002027
17 0.002028
12 0.000966
29 0.0
28 0.000994
26 0.0
40 0.0
52 0.001994
70 0.001992
84 0.0
89 0.0
113 0.0
126 0.0
134 0.001036
124 0.001045
92 0.000998
0 0.000998
0 0.001022
0 0.000997
0 0.001
21 0.002045
50 0.002027
50 0.0
53 0.001003
60 0.0
76 0.001023
86 0.000997
105 0.0
115 0.001008
132 0.000997
147 0.0
153 0.0
147 0.002027
112 0.002008
27 0.0
22 0.0
38 0.0
43 0.002028
41 0.002041
70 0.000998
69 0.002026
68 0.000968
73 0.001994
92 0.001995
106 0.001995
115 0.001995
128 0.002027
138 0.0
142 0.000971
152 0.001995
153 0.001995
129 0.000992
45 0.001995
18 0.001009
37 0.001004
43 0.000965
43 0.002993
58 0.003022
75 0.001991
71 0.001953
77 0.001999
86 0.001995
96 0.001993
110 0.001995
120 0.002047
134 0.000975
141 0.001045
143 0.000996
136 0.002992
116 0.003026
28 0.000998
50 0.000996
56 0.001016
67 0.003027
67 0.002992
67 0.001961
77 0.002992
73 0.0
78 0.001996
86 0.001991
89 0.002992
95 0.003037
107 0.002026
105 0.001991
110 0.002028
114 0.003025
116 0.003028
108 0.00199
63 0.002992
52 0.00198
57 0.001984
59 0.001999
58 0.002992
67 0.002992
78 0.000998
76 0.002001
81 0.001979
89 0.002038
97 0.004023
104 0.004021
115 0.003025
118 0.003001
126 0.001041
129 0.002981
131 0.001997
124 0.004046
84 0.003989
55 0.001997
60 0.001999
63 0.002002
64 0.003989
71 0.00403
87 0.003027
86 0.002994
93 0.002983
99 0.002016
108 0.002029
116 0.00402
122 0.003987
128 0.002022
131 0.001981
137 0.002014
141 0.003959
143 0.002013
126 0.00399
82 0.003986
62 0.001995
71 0.001994
74 0.002015
73 0.003992
82 0.003959
95 0.001974
94 0.002025
97 0.002034
97 0.003989
111 0.001997
122 0.003989
131 0.003991
137 0.001995
144 0.00299
146 0.001998
156 0.004991
160 0.004985
152 0.002988
105 0.002981
61 0.002979
56 0.004989
72 0.002952
72 0.004987
87 0.004987
102 0.00298
101 0.002996
104 0.002981
117 0.005036
123 0.003989
138 0.002995
146 0.002993
153 0.003963
158 0.003991
170 0.001995
178 0.004987
183 0.005017
178 0.002991
135 0.002995
91 0.002985
89 0.004902
101 0.005021
102 0.00399
110 0.003975
128 0.003944
127 0.004962
133 0.003994
141 0.005018
151 0.004975
163 0.003
171 0.002983
177 0.002988
179 0.00499
185 0.005984
194 0.005984
200 0.004003
201 0.003984
177 0.00402
110 0.004034
115 0.00399
123 0.004987
121 0.004984
122 0.004
140 0.004011
146 0.003994
141 0.005019
144 0.005986
155 0.002991
160 0.00399
166 0.00399
169 0.00399
176 0.003989
181 0.006022
186 0.005986
196 0.004001
194 0.003993
160 0.004985
119 0.005026
116 0.005984
127 0.004999
122 0.003987
120 0.004021
138 0.003984
138 0.003984
140 0.005984
141 0.005973
153 0.004976
155 0.003026
161 0.004992
168 0.006982
169 0.007015
175 0.004974
180 0.004986
189 0.004992
184 0.004959
145 0.004991
112 0.005984
112 0.005981
121 0.003973
117 0.003943
120 0.003993
133 0.00698
135 0.006981
133 0.004989
137 0.004987
150 0.005004
152 0.004998
159 0.004987
163 0.006011
168 0.007017
172 0.005984
178 0.00499
181 0.005952
182 0.006982
161 0.007005
112 0.004986
107 0.004987
121 0.004984
119 0.00495
117 0.004995
124 0.006981
123 0.00702
121 0.004985
127 0.005951
138 0.006003
139 0.007012
139 0.006965
149 0.005981
150 0.005992
151 0.006696
160 0.006025
159 0.004987
156 0.004987
109 0.007978
77 0.007978
76 0.005989
78 0.005978
80 0.005982
75 0.007028
91 0.006981
89 0.006995
81 0.007955
92 0.004947
98 0.006982
99 0.005985
95 0.007979
94 0.007969
101 0.005946
109 0.006952
107 0.006966
110 0.007973
65 0.007953
26 0.005953
36 0.007978
38 0.006017
41 0.006018
45 0.005986
40 0.007974
37 0.007979
36 0.005991
44 0.005984
43 0.006025
61 0.006987
63 0.00798
63 0.006032
74 0.007979
84 0.005983
86 0.005981
52 0.006986
30 0.007947
0 0.007966
0 0.005985
8 0.005985
5 0.005984
0 0.007978
7 0.007975
13 0.006982
9 0.00695
25 0.006977
42 0.005966
50 0.006981
63 0.007016
63 0.007013
78 0.006982
86 0.006992
85 0.006981
75 0.007945
24 0.007015
0 0.007
12 0.007013
17 0.00699
18 0.006981
32 0.006982
33 0.007014
28 0.007015
47 0.006967
56 0.006975
65 0.006927
72 0.006982
93 0.006986
101 0.00699
113 0.00603
111 0.006983
111 0.007
92 0.006134
35 0.005927
28 0.006016
36 0.006991
48 0.006981
55 0.006983
69 0.006019
70 0.006014
61 0.006983
72 0.007019
82 0.006981
98 0.006968
104 0.006968
118 0.006983
127 0.006027
139 0.007018
136 0.006984
138 0.005984
121 0.006015
83 0.00602
70 0.005986
87 0.005986
94 0.005989
98 0.005974
100 0.006987
104 0.006982
107 0.006983
112 0.006982
123 0.006983
129 0.00598
139 0.006026
150 0.006014
163 0.00598
173 0.006008
177 0.005969
153 0.005968
106 0.005004
81 0.005968
88 0.005984
96 0.005021
105 0.006026
113 0.006007
121 0.005985
120 0.005979
121 0.005992
132 0.005948
131 0.005977
145 0.005995
159 0.005976
161 0.006019
171 0.004988
177 0.005022
159 0.005031
145 0.005021
103 0.005023
71 0.005019
95 0.004991
96 0.004991
88 0.004953
104 0.005985
103 0.00598
94 0.006011
98 0.006019
104 0.006019
115 0.005025
123 0.005021
128 0.005021
134 0.005024
155 0.004981
151 0.005033
149 0.003967
118 0.005024
71 0.005018
68 0.004971
81 0.004982
86 0.00602
85 0.00502
97 0.005019
99 0.004982
96 0.005018
109 0.005019
115 0.004974
116 0.004984
136 0.005016
140 0.004992
140 0.005017
156 0.004026
159 0.004022
150 0.003991
137 0.005022
93 0.005053
62 0.00502
80 0.004986
83 0.004987
80 0.004989
91 0.004014
91 0.005015
87 0.004024
93 0.004968
104 0.004973
106 0.004986
116 0.004988
125 0.004982
130 0.004988
142 0.003989
148 0.004016
148 0.003982
136 0.003989
83 0.003991
50 0.004002
50 0.004023
58 0.003985
54 0.003991
59 0.00501
67 0.005021
62 0.004021
64 0.003987
77 0.003952
90 0.003993
103 0.003989
113 0.003992
121 0.004023
131 0.004023
133 0.003986
138 0.003989
120 0.003989
83 0.00399
25 0.002976
36 0.003956
40 0.003988
29 0.003987
27 0.003955
41 0.004
40 0.003989
39 0.004045
44 0.003023
56 0.004031
68 0.003989
79 0.00399
98 0.003992
106 0.004026
114 0.002995
114 0.002975
114 0.003024
64 0.003009
20 0.002992
16 0.003027
27 0.004035
25 0.003958
19 0.003998
44 0.003991
49 0.003955
52 0.002984
67 0.003997
75 0.002999
86 0.003028
94 0.003991
107 0.003024
114 0.002996
126 0.002992
136 0.002993
136 0.002993
133 0.002985
39 0.002991
25 0.002992
40 0.001986
44 0.001996
38 0.002993
66 0.002992
75 0.003027
67 0.002992
71 0.002992
85 0.002992
102 0.002993
106 0.003024
126 0.002977
134 0.002991
141 0.002995
145 0.001997
159 0.001998
164 0.001995
144 0.001995
76 0.001995
49 0.001956
56 0.001995
67 0.003002
69 0.002993
101 0.002995
108 0.002992
106 0.002992
122 0.001995
135 0.001995
145 0.001995
162 0.002
171 0.001995
170 0.001995
173 0.002028
184 0.001996
195 0.002034
192 0.001983
152 0.002981
101 0.002957
84 0.001994
98 0.001996
102 0.001997
104 0.00205
117 0.001995
132 0.001995
129 0.001995
136 0.001996
154 0.002024
161 0.001963
165 0.001987
178 0.000997
194 0.000988
199 0.000999
197 0.000997
206 0.002035
218 0.001996
204 0.001992
143 0.001995
105 0.001994
122 0.001995
120 0.001994
120 0.001994
142 0.000999
146 0.001031
141 0.001004
142 0.000966
158 0.000998
165 0.000998
173 0.000998
185 0.000955
191 0.000948
196 0.002066
200 0.001988
213 0.002007
211 0.001009
203 0.001004
154 0.000998
105 0.000997
106 0.000997
112 0.000998
110 0.000997
109 0.000997
131 0.000998
133 0.001995
134 0.001026
142 0.0
150 0.0
161 0.000997
172 0.0
171 0.000997
177 0.000998
187 0.000999
194 0.000989
198 0.000957
196 0.000998
139 0.000996
91 0.001015
86 0.0
103 0.0
100 0.0
99 0.000962
115 0.0
124 0.0
115 0.0
115 0.0
130 0.0
145 0.0
146 0.0
152 0.0
158 0.0
164 0.0
169 0.0
179 0.0
173 0.0
123 0.0
58 0.0
67 0.0
72 0.000998
67 0.0
83 0.0
89 0.0
80 0.0
81 0.000994
94 0.0
111 0.0
114 0.0
119 0.000964
123 0.00304
129 0.001995
132 0.0
138 0.0
133 0.0
99 0.000987
41 0.000981
23 0.000967
32 0.001018
28 0.0
28 0.000965
42 0.000961
52 0.001023
55 0.001034
66 0.001004
81 0.001018
92 0.0
105 0.001
111 0.0
116 0.002035
120 0.002022
131 0.0
131 0.0
123 0.0
67 0.002046
20 0.001028
18 0.001022
26 0.0
25 0.0
34 0.000964
48 0.0
49 0.002011
56 0.002027
68 0.000995
89 0.0
110 0.0
119 0.002031
124 0.002043
135 0.001995
145 0.0
148 0.002026
147 0.0
95 0.001001
42 0.0
32 0.001995
43 0.001992
46 0.0
43 0.0
62 0.001009
65 0.001988
64 0.002029
76 0.0
90 0.00202
114 0.0
100 0.0
115 0.0
114 0.002046
113 0.002046
130 0.0
119 0.000952
86 0.000952
28 0.001995
4 0.002006
31 0.002044
30 0.001953
40 0.00094
47 0.0
48 0.0
40 0.001994
48 0.00295
59 0.000607
68 0.002009
80 0.001999
80 0.002989
97 0.003032
102 0.002955
103 0.002993
91 0.001027
26 0.0
0 0.001025
0 0.00296
0 0.002057
0 0.001994
0 0.002003
16 0.000995
20 0.002992
16 0.002999
38 0.002993
59 0.002994
72 0.001008
77 0.002007
87 0.001992
98 0.002993
94 0.003022
95 0.001996
91 0.002945
37 0.001994
0 0.002993
0 0.003034
0 0.003989
0 0.00399
6 0.002029
30 0.001974
21 0.001983
24 0.002993
44 0.003014
52 0.001024
65 0.002
76 0.001998
77 0.003002
92 0.003989
101 0.002987
110 0.002937
115 0.003923
43 0.002995
49 0.001994
44 0.001976
56 0.003989
58 0.004024
67 0.001989
78 0.001985
80 0.001978
79 0.004023
92 0.002042
101 0.002988
105 0.00399
110 0.001978
119 0.003003
120 0.003001
127 0.004024
131 0.004022
136 0.001995
122 0.001994
84 0.002993
53 0.003986
67 0.000998
71 0.004037
70 0.003989
86 0.002033
90 0.001974
87 0.001989
90 0.004987
102 0.005017
112 0.002951
120 0.00296
129 0.002991
133 0.003989
141 0.002987
144 0.004033
139 0.003994
133 0.002962
97 0.00198
71 0.001939
74 0.004992
83 0.005016
87 0.002997
92 0.002992
104 0.002991
105 0.005027
106 0.002015
111 0.004037
122 0.004987
128 0.002025
133 0.002956
138 0.001996
146 0.004988
148 0.004985
151 0.002993
150 0.002993
120 0.002939
85 0.005018
90 0.00203
92 0.004988
94 0.004958
109 0.00396
116 0.003986
113 0.003044
117 0.006018
125 0.005983
132 0.003991
145 0.003018
156 0.004004
160 0.003023
162 0.002992
169 0.00502
168 0.004995
168 0.005031
113 0.003954
86 0.003994
89 0.003942
94 0.005985
97 0.005984
108 0.003986
119 0.002978
119 0.003028
122 0.003022
135 0.004011
143 0.006054
148 0.005985
160 0.003988
166 0.003994
172 0.004028
176 0.006016
172 0.005986
172 0.00399
142 0.003992
79 0.003994
88 0.003988
96 0.004002
91 0.005983
100 0.006028
114 0.005011
115 0.005163
116 0.00399
123 0.006023
133 0.006982
145 0.003987
148 0.003986
155 0.004993
164 0.004987
165 0.004956
169 0.006982
170 0.006019
142 0.004025
97 0.00399
85 0.003992
97 0.005984
99 0.005981
100 0.002988
118 0.004002
122 0.003989
124 0.004985
135 0.00499
146 0.007018
153 0.006985
163 0.00502
164 0.004997
172 0.004971
174 0.006962
179 0.007014
181 0.004989
165 0.004994
104 0.005001
103 0.006004
112 0.004955
112 0.006267
112 0.007942
130 0.004986
134 0.00598
133 0.00597
139 0.007014
145 0.008011
156 0.006026
164 0.005986
171 0.006009
178 0.005955
182 0.005934
181 0.007977
185 0.007977
163 0.007984
122 0.005036
108 0.005972
117 0.004985
121 0.006937
112 0.006983
124 0.004986
140 0.007976
137 0.00595
142 0.005951
153 0.005974
158 0.007945
165 0.007975
171 0.005989
173 0.005986
180 0.005976
185 0.007974
184 0.007976
183 0.005981
141 0.007977
116 0.00695
121 0.006951
128 0.005986
119 0.007945
130 0.00796
135 0.006983
131 0.005962
132 0.005983
140 0.007982
146 0.007976
156 0.007977
158 0.007981
167 0.005952
165 0.005986
170 0.006975
177 0.006978
172 0.006984
163 0.006951
113 0.00698
105 0.006981
107 0.00699
112 0.007056
102 0.008001
117 0.007943
119 0.006018
116 0.006012
121 0.006038
132 0.007979
136 0.006983
146 0.006945
158 0.006959
157 0.006947
165 0.007013
173 0.007015
180 0.006986
175 0.006979
154 0.006035
100 0.006917
83 0.006983
88 0.006979
88 0.006979
83 0.006947
103 0.006949
102 0.005983
94 0.007016
93 0.007014
113 0.005974
115 0.005978
121 0.00698
125 0.006696
133 0.005984
132 0.005984
140 0.005984
146 0.00598
140 0.006013
101 0.00598
52 0.005982
42 0.006018
53 0.005993
47 0.006989
49 0.007026
63 0.006967
61 0.005974
60 0.005968
71 0.005984
74 0.006012
85 0.005984
99 0.006007
96 0.005965
99 0.00598
114 0.005946
116 0.005985
118 0.005987
83 0.005988
29 0.004986
17 0.005988
23 0.006025
24 0.005947
18 0.00599
29 0.005966
39 0.005995
38 0.006019
44 0.005984
55 0.005983
65 0.005978
75 0.004997
82 0.004988
84 0.004979
95 0.004987
98 0.006026
107 0.005985
105 0.004986
66 0.005984
15 0.006025
5 0.005985
14 0.005978
12 0.00499
22 0.004983
36 0.004986
36 0.004986
36 0.005
45 0.005021
59 0.004987
70 0.005017
82 0.005471
91 0.004984
101 0.005018
111 0.004994
111 0.004992
117 0.004983
95 0.005016
31 0.005027
1 0.004986
15 0.003991
27 0.004986
28 0.004978
40 0.004976
48 0.004986
44 0.00399
52 0.004987
63 0.004986
77 0.00401
89 0.003959
98 0.00396
99 0.003989
112 0.004952
124 0.003988
123 0.004955
119 0.004988
39 0.004955
13 0.004933
27 0.00399
43 0.003992
45 0.003989
59 0.003958
71 0.003948
73 0.004002
74 0.003982
84 0.003991
99 0.003981
108 0.003954
122 0.004002
128 0.005009
141 0.00399
146 0.003992
154 0.003989
147 0.00399
99 0.003976
59 0.003949
58 0.004008
69 0.003987
78 0.00399
80 0.003991
101 0.002973
103 0.003972
107 0.003995
116 0.003992
127 0.004003
139 0.003984
148 0.00399
157 0.003951
165 0.003978
169 0.003986
179 0.004019
182 0.004037
103 0.003996
88 0.003978
100 0.002967
108 0.003029
106 0.002992
119 0.003953
130 0.003027
130 0.003034
135 0.00399
141 0.002991
152 0.002982
162 0.003002
185 0.002978
186 0.002965
193 0.003005
189 0.002988
189 0.002982
163 0.002993
117 0.002992
101 0.002994
114 0.00301
130 0.002956
123 0.002992
135 0.00304
140 0.002994
135 0.002986
145 0.002988
150 0.002986
157 0.003008
167 0.003029
180 0.002991
184 0.002008
184 0.002
190 0.001998
182 0.001994
153 0.001994
88 0.002029
92 0.002979
99 0.003044
104 0.002987
110 0.002983
114 0.001948
107 0.002017
108 0.001964
109 0.001994
116 0.002036
125 0.001989
134 0.00202
135 0.001996
147 0.003002
156 0.002993
148 0.002991
133 0.001999
77 0.001996
49 0.001994
56 0.001966
56 0.002003
54 0.002017
61 0.002031
71 0.002026
67 0.001994
69 0.001984
75 0.003038
84 0.001993
95 0.000998
92 0.000997
102 0.001994
106 0.000955
108 0.000997
108 0.00103
76 0.001996
5 0.000993
6 0.002005
17 0.001992
5 0.001992
16 0.00197
32 0.002016
35 0.001999
36 0.00097
41 0.001006
56 0.002001
71 0.001001
72 0.000998
93 0.001991
98 0.001989
96 0.001994
93 0.000999
54 0.000956
4 0.001009
0 0.001009
9 0.001005
3 0.002023
8 0.001995
35 0.002033
36 0.002043
40 0.001964
51 0.00099
65 0.001053
81 0.002028
84 0.000959
91 0.000966
104 0.000953
108 0.000999
110 0.001001
115 0.000993
68 0.000996
16 0.000998
22 0.001993
29 0.001995
26 0.0
48 0.0
59 0.0
58 0.0
60 0.000993
79 0.001024
88 0.000997
103 0.001004
115 0.000997
130 0.000996
146 0.000996
154 0.001
146 0.00099
140 0.0
83 0.0
37 0.0
41 0.0
61 0.0
65 0.0
75 0.0
79 0.0
72 0.0
92 0.001013
105 0.001
112 0.0
134 0.0
148 0.0
158 0.0
166 0.0
171 0.0
185 0.0
180 0.0
162 0.0
128 0.0
66 0.0
71 0.0
82 0.0
86 0.0
102 0.0
99 0.0
91 0.0
109 0.0
121 0.000997
124 0.002002
150 0.0
156 0.0
153 0.0
169 0.000987
175 0.0
176 0.001997
171 0.001974
161 0.0
99 0.0
65 0.000989
70 0.002037
75 0.001993
68 0.000994
84 0.000997
108 0.0
108 0.0
115 0.0
122 0.001995
134 0.001984
148 0.0
152 0.0
156 0.0
158 0.001988
165 0.003
180 0.0
182 0.00096
179 0.000996
135 0.0
83 0.0
75 0.002993
84 0.001997
83 0.000985
87 0.001014
108 0.0
110 0.001993
110 0.002024
123 0.0
133 0.002001
149 0.000954
157 0.00096
164 0.0
164 0.002027
169 0.002018
179 0.000983
189 0.00099
188 0.000997
186 0.002034
136 0.001997
78 0.002069
77 0.001999
82 0.002029
73 0.0
90 0.0
109 0.000958
106 0.001981
105 0.001993
119 0.0
134 0.0
138 0.0
145 0.002991
153 0.002028
157 0.002018
159 0.001996
176 0.000996
177 0.000986
172 0.0
139 0.002991
90 0.00204
68 0.000965
78 0.0
82 0.0
80 0.002001
101 0.002029
116 0.001993
109 0.001994
128 0.0
139 0.001
155 0.000997
159 0.002992
167 0.003001
167 0.0
169 0.0
170 0.0
168 0.002026
168 0.002989
123 0.002993
51 0.002994
33 0.0
40 0.000969
47 0.002988
44 0.002994
52 0.002961
66 0.002983
63 0.002998
68 0.002002
78 0.002994
83 0.002993
104 0.002987
111 0.003024
116 0.000963
122 0.000968
130 0.000971
138 0.002954
140 0.002992
77 0.00096
14 0.003
4 0.001995
16 0.003029
16 0.002957
19 0.002025
42 0.002992
49 0.0
45 0.002023
54 0.00199
64 0.003952
76 0.002982
85 0.002042
97 0.002003
100 0.001695
109 0.002994
119 0.003
123 0.002946
96 0.003958
26 0.003961
0 0.002998
4 0.00205
14 0.002027
13 0.002994
28 0.002992
51 0.001994
50 0.001991
53 0.002032
61 0.003951
82 0.001994
91 0.00297
101 0.004
110 0.002965
120 0.002989
121 0.002955
128 0.003964
125 0.003947
29 0.002993
0 0.002024
0 0.003008
12 0.001999
12 0.000999
35 0.003991
52 0.004009
50 0.002002
54 0.003017
66 0.001989
81 0.004011
87 0.003996
103 0.001974
106 0.002986
103 0.00204
110 0.001985
118 0.001951
83 0.004955
2 0.00498
47 0.001994
54 0.001994
62 0.002993
68 0.004987
77 0.006026
78 0.002022
80 0.001986
83 0.003971
91 0.001995
97 0.002007
104 0.004982
107 0.00499
113 0.003976
118 0.002984
122 0.003027
117 0.005986
87 0.004955
40 0.001994
40 0.002992
49 0.002999
51 0.002977
63 0.002958
72 0.005036
71 0.005012
74 0.002969
81 0.002995
86 0.002985
95 0.004949
101 0.006015
110 0.002998
112 0.002983
114 0.003043
108 0.002981
67 0.003989
35 0.004987
33 0.004988
44 0.002976
46 0.003018
60 0.002979
76 0.006019
73 0.005985
75 0.00396
80 0.003992
86 0.003961
86 0.002993
95 0.002992
107 0.005021
109 0.005986
110 0.006985
112 0.004004
78 0.002993
34 0.002993
23 0.004995
35 0.005988
42 0.003982
46 0.003957
68 0.003992
68 0.004009
67 0.002992
75 0.005987
87 0.006003
93 0.004957
102 0.002988
103 0.002996
107 0.006984
111 0.005985
115 0.003953
84 0.004
17 0.003983
22 0.004004
32 0.003985
35 0.005986
50 0.006995
71 0.00399
67 0.00402
72 0.00394
83 0.007013
94 0.005986
103 0.004014
112 0.003995
129 0.003996
134 0.003995
135 0.005046
137 0.005985
114 0.006977
55 0.004983
49 0.003967
63 0.003989
71 0.007027
79 0.007012
100 0.004987
105 0.003004
107 0.004021
119 0.003974
136 0.003986
147 0.007015
150 0.007016
157 0.004951
167 0.004953
171 0.004958
168 0.007012
159 0.007022
104 0.00598
82 0.006984
92 0.003964
94 0.004983
96 0.005034
117 0.00796
121 0.00798
125 0.00496
130 0.005048
141 0.003936
149 0.006959
157 0.007015
165 0.004986
176 0.006989
180 0.004986
182 0.004986
182 0.004978
149 0.008031
106 0.007013
101 0.007975
106 0.005016
100 0.004941
106 0.008023
126 0.008017
133 0.007071
131 0.007016
141 0.00698
158 0.005962
162 0.004987
166 0.005983
178 0.007939
180 0.007975
187 0.004986
197 0.005024
202 0.004989
188 0.007978
161 0.007964
119 0.007975
124 0.007032
128 0.005955
132 0.005931
140 0.005974
146 0.007978
149 0.007481
148 0.005985
155 0.005984
166 0.005965
172 0.007971
179 0.007981
185 0.007976
190 0.00698
195 0.005938
197 0.005999
200 0.005929
184 0.007975
138 0.008001
122 0.005934
125 0.006054
131 0.005995
131 0.007948
140 0.006981
142 0.007978
138 0.006987
150 0.00698
151 0.006979
154 0.005984
161 0.006981
165 0.006986
166 0.005953
165 0.005956
171 0.005953
174 0.006983
180 0.006979
158 0.006953
114 0.007013
93 0.006958
97 0.00695
102 0.00698
96 0.007008
104 0.006962
114 0.006952
112 0.006002
112 0.006019
119 0.006
122 0.00685
138 0.007007
141 0.007023
148 0.006952
150 0.006979
154 0.006974
160 0.006982
160 0.006983
148 0.006976
112 0.005968
81 0.005984
76 0.005985
81 0.005985
75 0.006018
84 0.005985
94 0.005998
91 0.005974
92 0.006967
97 0.006897
104 0.007074
114 0.005705
117 0.006045
119 0.005992
124 0.005973
131 0.005989
136 0.005982
139 0.005984
144 0.005968
108 0.006019
75 0.006928
65 0.005967
66 0.005994
61 0.005982
66 0.005984
77 0.00598
76 0.005982
76 0.005974
89 0.005969
90 0.005983
93 0.004986
104 0.005987
110 0.005984
112 0.005971
111 0.005984
117 0.005984
123 0.005985
124 0.004985
122 0.004985
67 0.004955
44 0.005983
45 0.005019
50 0.006015
49 0.00501
53 0.004957
64 0.004979
63 0.004955
66 0.005993
69 0.006029
75 0.005982
87 0.005898
97 0.005029
103 0.004995
108 0.005019
111 0.005016
120 0.004987
127 0.004985
131 0.004949
116 0.004986
72 0.003927
38 0.004949
46 0.004978
52 0.004952
53 0.004985
67 0.004985
68 0.005019
69 0.004963
72 0.004981
82 0.004996
88 0.004985
97 0.004991
103 0.005016
110 0.004998
113 0.003991
118 0.004957
132 0.004042
131 0.004953
117 0.00402
64 0.003981
36 0.00401
44 0.003957
47 0.003956
44 0.00399
55 0.003995
70 0.003989
69 0.004986
76 0.003968
84 0.004986
95 0.004987
106 0.005003
115 0.00495
122 0.004982
125 0.004014
131 0.003955
131 0.003949
140 0.003971
135 0.003986
71 0.00399
40 0.003954
53 0.00399
48 0.004023
49 0.003991
67 0.003991
77 0.003987
75 0.00398
76 0.002993
90 0.00397
102 0.003962
110 0.004003
120 0.003957
131 0.003965
141 0.00399
148 0.003997
151 0.003989
152 0.003984
110 0.003986
52 0.002991
50 0.003955
63 0.00299
67 0.003957
72 0.003018
91 0.003919
93 0.003949
91 0.003954
101 0.003989
112 0.004036
116 0.003987
124 0.003964
131 0.00399
135 0.00399
141 0.003989
148 0.002998
148 0.002997
108 0.003006
45 0.002992
46 0.002989
56 0.003027
61 0.003023
73 0.002954
84 0.001994
86 0.001994
88 0.001978
101 0.002995
94 0.002991
101 0.003036
114 0.003003
123 0.002992
131 0.003023
133 0.003026
138 0.002969
123 0.002958
70 0.003024
30 0.002993
41 0.001929
51 0.001998
55 0.002007
64 0.001979
82 0.001966
85 0.001996
94 0.00196
103 0.001996
111 0.001996
121 0.001962
126 0.002999
139 0.002945
145 0.002958
149 0.002998
150 0.002992
129 0.002991
77 0.001994
59 0.002003
70 0.001995
74 0.002044
82 0.001996
101 0.001945
105 0.002007
105 0.001995
115 0.001946
128 0.001
136 0.000997
141 0.000956
153 0.00196
168 0.001996
169 0.001954
172 0.000999
155 0.000999
105 0.001995
75 0.002002
85 0.001999
103 0.001968
98 0.001998
119 0.001992
134 0.001996
134 0.001984
140 0.000999
147 0.002094
154 0.001027
166 0.000997
168 0.001999
172 0.00198
180 0.000997
187 0.001995
186 0.000996
164 0.000997
120 0.001993
101 0.000996
112 0.001999
123 0.001996
141 0.002024
143 0.002
147 0.001993
152 0.002035
161 0.000985
168 0.001027
183 0.001006
191 0.000996
196 0.001002
199 0.000992
210 0.000997
211 0.002
195 0.002033
157 0.002022
136 0.0
146 0.0
153 0.0
154 0.000994
166 0.000993
174 0.000997
172 0.000997
171 0.000997
176 0.000987
182 0.0
188 0.0
195 0.0
197 0.0
195 0.0
194 0.0
182 0.0
150 0.0
98 0.0
86 0.0
101 0.0
108 0.000997
106 0.000998
114 0.0
112 0.0
107 0.000993
108 0.000996
115 0.0
118 0.0
130 0.0
143 0.0
151 0.0
159 0.0
159 0.0
150 0.0
117 0.0
70 0.0
71 0.0
80 0.0
83 0.0
86 0.0
99 0.0
98 0.0
97 0.0
106 0.0
113 0.0
123 0.000998
139 0.0
143 0.0
148 0.000994
158 0.0
155 0.0
146 0.0
114 0.001991
69 0.001995
62 0.0
85 0.001994
89 0.001007
94 0.0
109 0.000966
102 0.002028
101 0.001995
116 0.0
128 0.0
139 0.0
148 0.00299
158 0.003004
168 0.0
173 0.002984
172 0.0
164 0.0
123 0.0
81 0.00198
78 0.001998
96 0.0
98 0.0
100 0.000995
114 0.001966
115 0.001995
110 0.0
119 0.002
134 0.0
142 0.000962
151 0.0
159 0.003025
167 0.003015
171 0.0
167 0.0
162 0.0
122 0.002005
81 0.00198
86 0.0
104 0.002032
106 0.0
116 0.0
120 0.0
113 0.002036
117 0.002042
125 0.000994
132 0.0
141 0.0
150 0.0
156 0.003015
161 0.003
163 0.003037
157 0.003024
119 0.0
78 0.001018
73 0.000991
89 0.003041
95 0.00299
98 0.0
107 0.000998
108 0.0
105 0.001998
108 0.002986
119 0.002026
129 0.002026
140 0.0
150 0.0
157 0.0
162 0.002754
160 0.002987
145 0.0
101 0.0
75 0.0
82 0.002978
96 0.00203
107 0.003
118 0.002994
126 0.0
120 0.0
122 0.0
130 0.003044
138 0.002992
149 0.0
159 0.0
168 0.000965
175 0.002985
173 0.000965
166 0.003024
127 0.002993
83 0.0
91 0.002002
107 0.001977
112 0.003036
117 0.00305
126 0.0
122 0.0
126 0.001027
132 0.003824
142 0.001995
151 0.003989
161 0.002989
163 0.001993
164 0.001994
159 0.002005
151 0.003961
121 0.004456
65 0.0
64 0.001995
78 0.000999
85 0.002988
93 0.001996
97 0.004021
91 0.002992
90 0.002989
101 0.00301
110 0.002998
117 0.003997
126 0.003959
140 0.0
143 0.002999
139 0.0
135 0.002987
80 0.000994
48 0.002993
53 0.002988
70 0.003004
73 0.00098
80 0.002016
91 0.002944
86 0.004002
82 0.000968
88 0.0
91 0.0
99 0.002037
115 0.001994
128 0.001994
137 0.002981
137 0.00399
129 0.002992
88 0.002999
51 0.002001
52 0.002938
67 0.002962
77 0.001033
87 0.0
100 0.002979
96 0.002039
98 0.002041
106 0.004021
115 0.003986
126 0.001995
138 0.001995
151 0.00203
161 0.003991
158 0.004033
149 0.0
121 0.001991
81 0.001996
82 0.002992
97 0.002997
102 0.003994
109 0.004995
118 0.00299
113 0.002989
116 0.002997
121 0.00504
127 0.004997
137 0.001983
146 0.002997
155 0.003
167 0.002033
167 0.002029
165 0.005025
137 0.004019
90 0.001993
95 0.003989
112 0.003043
119 0.005021
125 0.005023
139 0.00399
136 0.003038
132 0.003037
141 0.00202
147 0.002008
152 0.005041
158 0.004989
169 0.002004
177 0.001997
172 0.002992
164 0.005986
150 0.005979
96 0.003008
82 0.002984
95 0.003984
102 0.003028
100 0.002975
106 0.004933
101 0.004935
92 0.002019
94 0.002994
101 0.002994
106 0.005984
109 0.005985
116 0.00399
122 0.003991
123 0.002993
112 0.003
93 0.002999
55 0.005022
32 0.004992
43 0.002993
55 0.00299
57 0.004008
64 0.003003
71 0.007025
70 0.00601
72 0.003009
80 0.005985
91 0.002956
99 0.002991
106 0.003002
114 0.005982
123 0.005983
123 0.002989
117 0.003004
95 0.004022
54 0.006983
39 0.007021
56 0.004981
71 0.006015
71 0.002993
76 0.003035
70 0.003986
64 0.006022
72 0.005994
87 0.00399
95 0.004005
102 0.003024
109 0.006002
119 0.005983
132 0.004995
132 0.005979
124 0.005006
84 0.003987
59 0.003987
64 0.006969
81 0.007016
93 0.003995
103 0.003959
110 0.003989
105 0.006986
103 0.007015
119 0.003994
139 0.005982
144 0.00399
152 0.003991
165 0.00503
168 0.007042
168 0.007015
159 0.004989
140 0.005009
97 0.004986
83 0.00701
92 0.006981
102 0.004986
99 0.00698
115 0.004955
113 0.003991
110 0.004987
114 0.007978
115 0.007968
117 0.004995
120 0.004989
129 0.004989
137 0.007014
135 0.006982
123 0.005004
102 0.006954
29 0.003989
9 0.004969
16 0.004941
29 0.006976
38 0.00698
56 0.004986
62 0.004951
55 0.003989
49 0.007978
52 0.007978
61 0.004986
74 0.007966
80 0.006982
96 0.004987
96 0.004988
86 0.004984
66 0.007959
0 0.007977
0 0.005956
0 0.005981
0 0.005986
0 0.007852
0 0.00798
0 0.007946
0 0.00796
0 0.005978
0 0.004986
0 0.005019
12 0.007977
30 0.007981
44 0.005951
50 0.005996
45 0.005984
17 0.006981
0 0.005951
0 0.006979
0 0.006981
0 0.005998
0 0.005961
0 0.005956
0 0.007978
0 0.007977
7 0.005983
22 0.005984
34 0.005951
48 0.007004
67 0.006927
93 0.006976
94 0.00695
88 0.006941
47 0.006939
0 0.005984
57 0.006952
67 0.007986
72 0.006928
80 0.006018
83 0.006979
83 0.006981
93 0.006981
103 0.005971
112 0.006958
119 0.006006
128 0.005985
137 0.005984
140 0.006979
139 0.005984
129 0.005984
109 0.006021
103 0.006017
113 0.005982
126 0.006983
130 0.006972
139 0.006975
142 0.005982
145 0.006977
149 0.005984
161 0.006981
168 0.005985
180 0.006015
189 0.006006
196 0.00598
201 0.005978
206 0.005987
191 0.006018
170 0.006029
168 0.006021
176 0.005953
179 0.00604
183 0.006951
192 0.006018
194 0.005984
198 0.00599
202 0.005956
205 0.005988
211 0.005955
216 0.005972
221 0.006015
219 0.006016
207 0.005996
195 0.005976
170 0.004989
154 0.005011
154 0.004999
157 0.004945
157 0.005998
161 0.006026
165 0.006472
160 0.004987
157 0.004986
159 0.004993
161 0.004987
163 0.005058
170 0.006014
178 0.005982
180 0.005986
171 0.005986
161 0.006013
146 0.004982
147 0.004984
153 0.004989
154 0.005159
154 0.005018
148 0.004989
139 0.004987
135 0.004962
137 0.005021
142 0.004949
153 0.004992
164 0.004948
170 0.004935
164 0.004959
156 0.004991
144 0.003941
127 0.004975
134 0.004986
148 0.004987
156 0.004988
161 0.005154
163 0.004988
156 0.004984
153 0.005022
157 0.004987
163 0.00399
167 0.004987
175 0.004045
184 0.004041
186 0.00399
182 0.004002
171 0.003956
141 0.003991
123 0.003992
127 0.003999
132 0.004964
143 0.00399
146 0.004986
143 0.005008
142 0.004987
146 0.004026
155 0.003967
158 0.004019
159 0.003959
161 0.003958
162 0.003996
158 0.003963
154 0.003954
138 0.003989
138 0.003986
141 0.004016
137 0.004032
137 0.004044
137 0.003992
127 0.004005
125 0.003991
129 0.003977
134 0.00399
136 0.003987
124 0.004008
119 0.003989
119 0.002989
114 0.003024
100 0.003963
55 0.003968
28 0.002991
31 0.002991
43 0.003949
56 0.003987
64 0.003988
50 0.003988
17 0.003987
5 0.003983
7 0.003957
8 0.004023
23 0.00399
44 0.004034
64 0.003026
67 0.003028
57 0.003027
27 0.003046
0 0.002992
0 0.002993
14 0.002996
14 0.003022
29 0.00303
35 0.002992
31 0.003991
37 0.003025
48 0.002994
71 0.001994
89 0.002992
106 0.00399
122 0.00299
134 0.002985
130 0.003025
102 0.002992
62 0.002996
57 0.002992
64 0.003024
61 0.002988
57 0.003025
74 0.003023
79 0.003026
78 0.003006
80 0.002028
81 0.002953
79 0.002992
82 0.002992
96 0.003031
121 0.002992
132 0.003039
119 0.00303
107 0.003058
70 0.003026
60 0.002026
67 0.00203
68 0.001995
63 0.001993
63 0.001947
63 0.001995
57 0.001979
58 0.001998
60 0.001995
61 0.001994
61 0.002024
64 0.001985
70 0.003029
77 0.003027
86 0.003002
86 0.001996
79 0.001997
32 0.001995
26 0.002033
42 0.002009
46 0.002004
48 0.002038
57 0.002027
60 0.001995
57 0.001995
60 0.001941
66 0.001948
73 0.001994
83 0.002949
88 0.001996
92 0.000998
101 0.001997
108 0.002041
109 0.001002
103 0.000998
80 0.001004
48 0.000998
57 0.002045
67 0.001993
69 0.001995
77 0.001999
78 0.00199
72 0.001004
66 0.000998
70 0.001047
75 0.000997
83 0.002025
86 0.002001
87 0.001996
90 0.002038
97 0.000962
106 0.001992
105 0.001984
99 0.001995
72 0.001013
52 0.000975
60 0.000966
68 0.000997
69 0.000998
68 0.001996
83 0.00206
79 0.002062
75 0.001997
82 0.001994
94 0.002026
104 0.002043
113 0.001001
123 0.001964
125 0.002026
121 0.0
123 0.002005
122 0.0
123 0.0
106 0.0
80 0.0
83 0.0
108 0.000994
113 0.000996
123 0.000997
133 0.000998
131 0.000965
135 0.0
143 0.0
150 0.0
154 0.0
154 0.0
158 0.0
165 0.0
170 0.0
172 0.000994
167 0.0
162 0.000971
118 0.0
94 0.0
100 0.0
110 0.0
111 0.0
115 0.0
117 0.0
108 0.0
97 0.0
99 0.0
103 0.0
108 0.0
113 0.0
115 0.0
116 0.001
121 0.0
119 0.0
107 0.0
89 0.0
46 0.0
42 0.002021
43 0.000966
40 0.0
32 0.0
30 0.003038
21 0.003025
18 0.0
20 0.0
26 0.0
37 0.002958
48 0.002993
61 0.0
65 0.002029
79 0.0
83 0.001007
65 0.001017
52 0.002042
20 0.002027
7 0.001011
20 0.0
30 0.0
33 0.002025
39 0.003004
44 0.0
41 0.002993
46 0.0
48 0.000997
56 0.0
67 0.001999
74 0.001995
83 0.0
96 0.000963
104 0.0
98 0.00304
91 0.002976
37 0.003021
22 0.002028
41 0.000967
52 0.0
54 0.0
61 0.002992
62 0.003013
56 0.0
57 0.0
67 0.0
75 0.003037
81 0.003029
94 0.003022
105 0.003026
113 0.000953
116 0.0
114 0.0
94 0.002027
57 0.002026
47 0.0
59 0.0
65 0.0
70 0.003024
79 0.002991
75 0.002991
70 0.00299
75 0.0
79 0.0
87 0.0
98 0.0
106 0.003001
115 0.003039
121 0.0
116 0.0
104 0.0
65 0.002989
23 0.0
33 0.003018
42 0.001995
47 0.000997
53 0.000998
55 0.0
52 0.002992
57 0.002959
62 0.0
65 0.0
73 0.0
83 0.002026
103 0.000998
106 0.002991
100 0.001946
83 0.0
37 0.0
13 0.000964
15 0.003017
29 0.002025
35 0.000968
44 0.0
53 0.0
51 0.002986
56 0.0
60 0.003025
69 0.003023
76 0.0
84 0.0
97 0.0
106 0.002994
106 0.002996
92 0.0
56 0.0
27 0.0
27 0.003006
44 0.0
47 0.003004
59 0.002966
66 0.0
64 0.002
72 0.002
76 0.003027
78 0.003947
92 0.003003
101 0.002985
113 0.000969
125 0.002958
122 0.003007
118 0.003035
83 0.002993
60 0.003004
75 0.002995
90 0.004004
96 0.002993
106 0.002992
114 0.001993
111 0.002028
115 0.002994
125 0.003007
140 0.002015
147 0.003989
155 0.002987
169 0.001996
173 0.002041
166 0.002948
158 0.003002
126 0.002965
88 0.003003
92 0.003042
103 0.002012
111 0.003037
122 0.002012
126 0.004036
118 0.004988
118 0.004025
121 0.002993
121 0.002994
127 0.002986
137 0.004019
150 0.00399
161 0.002981
157 0.002973
135 0.002163
97 0.002988
76 0.002994
81 0.004986
92 0.004986
93 0.002992
98 0.002993
104 0.002993
98 0.003989
95 0.003992
98 0.00299
103 0.003001
119 0.003011
126 0.00202
137 0.003002
144 0.004987
141 0.00499
127 0.003005
99 0.002992
65 0.002994
58 0.004988
70 0.005015
77 0.002992
77 0.002994
88 0.002992
88 0.003029
89 0.002982
96 0.005017
99 0.004986
106 0.002012
111 0.00299
115 0.002026
125 0.004987
133 0.004944
133 0.003031
123 0.002003
68 0.002992
51 0.001999
58 0.001994
66 0.00502
70 0.004989
80 0.002048
87 0.003042
86 0.001996
88 0.004981
97 0.005979
107 0.001994
114 0.002993
137 0.002992
150 0.002997
158 0.002994
171 0.005029
177 0.005018
176 0.002995
158 0.001993
116 0.00198
97 0.006034
108 0.006033
120 0.002975
122 0.003005
132 0.002998
129 0.003957
126 0.003008
130 0.005984
141 0.005984
153 0.006021
162 0.004009
168 0.003028
173 0.002994
177 0.005984
186 0.005985
193 0.002986
181 0.006052
145 0.002998
119 0.002995
123 0.003953
136 0.007022
140 0.006016
141 0.003996
146 0.002991
141 0.003981
137 0.006019
138 0.006018
147 0.002946
156 0.005981
160 0.002996
164 0.00299
170 0.003011
174 0.006017
170 0.006999
157 0.003989
137 0.00399
96 0.003976
77 0.006981
85 0.007189
93 0.003987
96 0.006046
96 0.003995
91 0.003994
85 0.002953
83 0.005988
84 0.005768
91 0.00399
99 0.00399
103 0.003988
109 0.006982
115 0.006981
125 0.006982
120 0.007015
107 0.003988
73 0.003991
47 0.003971
52 0.007019
70 0.006981
80 0.00399
84 0.004991
92 0.004988
84 0.00798
71 0.007971
77 0.006986
85 0.006981
95 0.004009
104 0.004033
110 0.00404
114 0.006985
121 0.006986
116 0.00401
102 0.004012
91 0.004
63 0.005988
42 0.007035
67 0.007962
77 0.007946
83 0.005
98 0.004998
99 0.004013
92 0.007984
93 0.00802
100 0.004994
110 0.004001
118 0.005
126 0.007015
130 0.00702
142 0.007979
148 0.007971
146 0.004985
138 0.004984
104 0.004987
72 0.00499
72 0.007976
84 0.006975
84 0.006008
84 0.004983
90 0.003982
88 0.006978
85 0.005983
92 0.007982
98 0.007979
107 0.004974
114 0.004986
118 0.006012
127 0.00798
137 0.007975
136 0.005011
126 0.005984
110 0.005954
55 0.006983
47 0.005936
59 0.006981
57 0.006981
58 0.004987
69 0.005984
70 0.005
67 0.007968
76 0.007977
85 0.005984
93 0.004986
97 0.005963
106 0.006983
118 0.005988
127 0.006973
131 0.00698
129 0.005982
105 0.00599
62 0.005985
45 0.006964
55 0.00699
64 0.005981
69 0.00598
77 0.005967
80 0.006949
73 0.005978
77 0.006946
85 0.007017
89 0.00599
91 0.005968
93 0.006006
107 0.006972
118 0.006977
126 0.005976
118 0.005952
106 0.00598
51 0.005985
31 0.005984
38 0.006016
45 0.005983
47 0.005963
53 0.006971
54 0.005981
53 0.006973
58 0.006989
74 0.006978
85 0.005983
99 0.005984
112 0.006022
119 0.006035
131 0.005985
135 0.006019
126 0.00602
91 0.006008
48 0.005979
39 0.00598
50 0.006015
61 0.005979
62 0.005114
69 0.006027
66 0.00597
67 0.005988
75 0.005982
80 0.006018
89 0.006028
105 0.005947
114 0.005983
122 0.005958
132 0.005984
138 0.004987
129 0.005984
100 0.004986
35 0.004988
41 0.004989
55 0.004991
59 0.004954
60 0.005019
72 0.00498
71 0.005983
68 0.005983
74 0.006034
81 0.006017
88 0.005977
99 0.004939
117 0.00495
125 0.004983
128 0.004989
123 0.005017
115 0.005016
54 0.004985
23 0.004954
28 0.005001
38 0.004989
37 0.004949
41 0.004954
49 0.004989
45 0.005997
47 0.004987
53 0.004966
64 0.005018
75 0.004987
83 0.004983
92 0.004986
101 0.004984
106 0.003984
102 0.003988
89 0.003989
38 0.003974
0 0.003982
8 0.003953
15 0.004052
14 0.003954
30 0.00399
40 0.003959
32 0.003956
35 0.004982
44 0.004988
55 0.004989
69 0.004983
81 0.004952
95 0.00399
105 0.003987
110 0.003961
106 0.004002
89 0.003993
25 0.004986
10 0.003993
20 0.004987
30 0.003989
35 0.003991
46 0.003019
54 0.005067
44 0.004981
55 0.00395
65 0.004986
77 0.003989
91 0.003991
102 0.004219
113 0.004046
127 0.002988
135 0.003961
129 0.004037
116 0.003989
51 0.003989
13 0.00399
35 0.003993
48 0.004019
54 0.003976
70 0.00399
75 0.00399
67 0.00399
71 0.003989
79 0.003025
87 0.002986
96 0.002992
108 0.003991
121 0.002993
133 0.00399
130 0.004023
120 0.003991
91 0.003977
30 0.004025
4 0.003985
23 0.003992
35 0.003024
37 0.002992
53 0.002992
61 0.003989
55 0.002992
63 0.003029
72 0.002994
83 0.004028
95 0.002992
107 0.002993
118 0.002993
127 0.00299
124 0.003024
116 0.002992
97 0.002987
8 0.002998
12 0.002992
33 0.002006
32 0.002992
33 0.003025
44 0.001996
42 0.002029
40 0.00203
48 0.001996
60 0.001996
74 0.001995
85 0.002992
96 0.002996
103 0.002992
116 0.003026
121 0.002983
115 0.00296
88 0.003026
24 0.001995
59 0.001991
67 0.002004
72 0.002991
73 0.002993
80 0.002994
83 0.002993
83 0.001993
89 0.001999
94 0.001997
101 0.002035
109 0.002027
113 0.002038
117 0.002028
121 0.002001
127 0.002993
128 0.003025
123 0.001995
80 0.00207
