159 0.013985
160 0.002993
163 0.00101
163 0.001004
159 0.001994
125 0.001995
78 0.00199
77 0.001998
95 0.001996
104 0.001992
111 0.001019
114 0.00302
117 0.001996
117 0.002
116 0.000995
117 0.002012
122 0.001992
126 0.003007
133 0.002961
140 0.001995
143 0.002992
148 0.002991
150 0.001985
154 0.001995
156 0.001959
159 0.002957
160 0.000997
162 0.001045
162 0.001988
156 0.002963
93 0.0
75 0.003025
85 0.00299
101 0.001996
107 0.001995
110 0.002007
114 0.001984
116 0.001994
115 0.001988
113 0.001994
113 0.002993
118 0.003013
124 0.002992
128 0.002994
133 0.002992
137 0.00305
141 0.001996
143 0.002032
145 0.002046
146 0.003026
147 0.003026
150 0.001995
150 0.002053
137 0.001995
62 0.001995
53 0.003028
68 0.00399
82 0.003992
92 0.003049
96 0.003002
98 0.003027
100 0.002992
102 0.002992
103 0.002972
105 0.002992
109 0.002992
120 0.001996
124 0.00202
128 0.00399
131 0.004023
136 0.002959
139 0.002992
141 0.002992
142 0.003989
145 0.004021
148 0.003022
149 0.002983
146 0.002992
85 0.002992
52 0.003991
65 0.00399
83 0.003996
93 0.003992
99 0.002986
104 0.002992
107 0.003991
110 0.004031
110 0.002991
112 0.002992
116 0.003027
124 0.003994
129 0.00399
134 0.00399
139 0.004023
145 0.003997
149 0.00399
152 0.003989
155 0.003989
157 0.003975
158 0.002991
160 0.002993
161 0.003198
135 0.002996
84 0.002984
61 0.003963
72 0.004017
90 0.003956
98 0.003991
102 0.003943
106 0.004022
107 0.004986
107 0.00399
105 0.003989
105 0.003989
112 0.00399
116 0.00399
123 0.003992
126 0.004988
129 0.004029
133 0.003989
137 0.003991
138 0.004954
140 0.004954
140 0.003989
117 0.003983
68 0.00399
48 0.003981
68 0.00399
84 0.005749
91 0.004992
96 0.00399
101 0.003987
101 0.003989
101 0.004035
101 0.004987
104 0.005029
112 0.004028
120 0.005985
125 0.004987
128 0.005022
132 0.005026
136 0.004998
138 0.004987
141 0.004988
143 0.005019
145 0.003986
146 0.005017
127 0.004987
52 0.004026
32 0.006027
60 0.004957
76 0.005029
82 0.005012
85 0.004982
91 0.004977
96 0.004988
98 0.004986
99 0.004987
103 0.004987
107 0.005036
115 0.003982
123 0.005985
129 0.004988
131 0.004987
134 0.004988
137 0.005985
139 0.005984
142 0.004988
144 0.004987
146 0.00502
150 0.004938
150 0.004986
128 0.00503
38 0.005987
44 0.005032
68 0.005024
84 0.004986
91 0.005994
95 0.005954
102 0.004955
106 0.004987
107 0.004987
109 0.005019
112 0.005984
120 0.005033
128 0.006983
135 0.005985
137 0.005979
140 0.005985
145 0.005985
147 0.005984
149 0.006068
153 0.00502
155 0.005017
156 0.005984
158 0.006016
162 0.005985
161 0.006982
117 0.006019
66 0.006023
59 0.006014
79 0.006025
98 0.005984
106 0.005984
110 0.006019
115 0.005028
118 0.005984
117 0.005984
116 0.005984
121 0.00702
129 0.006018
134 0.005956
139 0.005985
144 0.00694
146 0.006941
149 0.00593
150 0.005984
152 0.005976
153 0.007017
157 0.005937
157 0.006022
144 0.006978
94 0.007003
54 0.006982
59 0.006981
79 0.006947
96 0.006982
101 0.006947
106 0.006021
110 0.005997
111 0.005974
111 0.007016
112 0.007979
120 0.007969
129 0.007984
132 0.006944
137 0.007017
139 0.006972
143 0.007015
146 0.006952
148 0.007035
151 0.006962
152 0.006008
154 0.006981
156 0.007984
154 0.007985
119 0.007971
57 0.007004
38 0.006983
47 0.006982
75 0.007015
87 0.00702
91 0.006981
94 0.007015
100 0.006023
102 0.007018
104 0.007024
108 0.007979
116 0.007975
122 0.007033
128 0.006979
133 0.006948
138 0.007978
140 0.007979
144 0.007001
147 0.006975
150 0.007979
154 0.007978
156 0.007979
161 0.007976
162 0.007976
162 0.006982
153 0.006956
105 0.006951
57 0.007949
62 0.006979
83 0.00698
97 0.006972
103 0.006951
107 0.008012
110 0.007978
113 0.007982
114 0.007974
118 0.007988
121 0.006982
126 0.00799
136 0.007064
140 0.007975
144 0.006947
147 0.006937
150 0.00698
153 0.007979
156 0.006978
158 0.007018
161 0.007002
163 0.007017
155 0.006988
145 0.007979
76 0.007995
61 0.00798
92 0.00798
101 0.006963
109 0.007978
112 0.006981
117 0.007013
115 0.007024
114 0.007017
117 0.007015
121 0.007022
127 0.006967
131 0.007039
134 0.007015
137 0.007979
139 0.007979
144 0.007017
146 0.006982
149 0.006989
151 0.00702
152 0.007011
141 0.00701
70 0.007009
36 0.006988
48 0.006961
71 0.007013
85 0.006982
93 0.006981
97 0.00602
101 0.006021
102 0.007017
98 0.006994
95 0.007006
97 0.006987
103 0.007013
108 0.005989
113 0.006018
117 0.005983
120 0.007023
124 0.005984
126 0.006008
128 0.005984
130 0.004982
133 0.006014
137 0.006017
140 0.006012
126 0.005989
65 0.006044
12 0.00698
9 0.006013
37 0.00694
68 0.006978
78 0.005985
83 0.006017
95 0.006018
98 0.006019
99 0.006021
102 0.006007
107 0.005016
115 0.004985
122 0.006016
128 0.006025
133 0.005996
140 0.006983
142 0.006014
147 0.006023
150 0.005998
153 0.00602
157 0.006026
161 0.006216
158 0.006028
123 0.006024
66 0.006004
53 0.00502
73 0.005047
98 0.006017
105 0.005024
111 0.005022
114 0.005025
116 0.00603
116 0.006016
117 0.006017
121 0.005982
128 0.004987
134 0.004986
139 0.005989
143 0.006018
147 0.004979
147 0.004967
150 0.004972
151 0.004981
153 0.005016
139 0.004986
86 0.003997
38 0.004981
55 0.00502
79 0.006023
94 0.006003
100 0.006025
105 0.005019
109 0.004997
108 0.005012
109 0.005013
113 0.005027
118 0.005019
123 0.005025
130 0.00503
135 0.003987
138 0.003942
140 0.003979
143 0.005984
144 0.004987
146 0.005032
148 0.005025
152 0.004968
140 0.004993
82 0.005025
22 0.003974
15 0.00397
51 0.003997
71 0.004026
79 0.004023
81 0.004039
89 0.005026
98 0.004987
100 0.005033
104 0.005025
109 0.004022
117 0.003986
124 0.004014
129 0.003939
134 0.004023
138 0.00297
141 0.003989
143 0.003997
145 0.004028
149 0.004013
151 0.003991
154 0.003953
157 0.003989
159 0.003988
160 0.004032
128 0.004001
35 0.00399
14 0.003997
39 0.003962
68 0.004038
84 0.003954
90 0.004022
99 0.00399
105 0.003987
108 0.003989
111 0.003991
115 0.003996
121 0.003021
131 0.00399
137 0.003988
142 0.004037
146 0.003033
149 0.003991
152 0.003991
155 0.003989
158 0.004013
162 0.004016
164 0.003987
167 0.004044
170 0.003024
173 0.003021
174 0.003017
163 0.002999
108 0.004037
58 0.004021
69 0.003992
100 0.003989
112 0.003009
115 0.002991
119 0.004043
120 0.003027
119 0.00299
118 0.003019
121 0.003058
127 0.002993
133 0.003034
139 0.003021
144 0.002993
147 0.003024
151 0.003022
151 0.003022
152 0.003023
154 0.002053
156 0.002992
159 0.00203
161 0.003022
152 0.003001
103 0.002992
46 0.003025
56 0.00303
81 0.003023
93 0.002017
99 0.003008
103 0.002972
107 0.001995
107 0.001995
107 0.00299
110 0.003023
115 0.002987
121 0.002992
127 0.002959
135 0.001995
138 0.002027
141 0.001996
144 0.001952
146 0.001995
148 0.002028
149 0.001962
151 0.001994
155 0.002029
157 0.002025
152 0.002992
110 0.002992
21 0.002024
33 0.001991
60 0.001994
82 0.002025
87 0.001981
89 0.001995
95 0.002
100 0.002029
102 0.001994
104 0.002011
109 0.001989
115 0.001988
125 0.002041
130 0.000965
134 0.001033
139 0.000997
140 0.000993
142 0.001026
144 0.000997
146 0.00199
149 0.001998
152 0.001994
154 0.002027
158 0.002018
161 0.002047
138 0.002034
68 0.001995
22 0.001991
42 0.000996
70 0.001958
86 0.001994
91 0.002004
96 0.001964
102 0.001033
105 0.000997
106 0.000998
111 0.001037
117 0.001029
124 0.001995
133 0.001995
138 0.002047
142 0.001989
146 0.001994
148 0.00103
151 0.001038
153 0.000975
156 0.000997
158 0.000997
163 0.000956
166 0.00103
168 0.000998
171 0.001027
168 0.000998
129 0.0
62 0.0
40 0.001028
60 0.0
91 0.001051
100 0.000998
104 0.000997
110 0.000997
111 0.001018
112 0.001021
113 0.001025
115 0.000998
122 0.000999
128 0.0
133 0.0
137 0.001044
142 0.0
145 0.0
148 0.0
151 0.001002
153 0.000957
155 0.001
158 0.0
163 0.000993
165 0.0
152 0.0
104 0.0
62 0.0
71 0.0
94 0.0
113 0.0
117 0.0
122 0.001039
124 0.0
122 0.00105
120 0.0
123 0.0
127 0.0
132 0.0
138 0.0
142 0.0
145 0.0
149 0.0
151 0.0
153 0.0
154 0.0
154 0.0
115 0.0
62 0.001037
56 0.0
73 0.0
94 0.0
106 0.0
110 0.0
115 0.0
114 0.0
111 0.0
112 0.0
119 0.0
125 0.0
131 0.0
140 0.0
142 0.0
145 0.000997
146 0.0
146 0.000998
147 0.0
149 0.0
139 0.0
59 0.0
5 0.0
7 0.0
37 0.000972
62 0.0
66 0.001002
68 0.0
79 0.001033
89 0.000999
95 0.0
98 0.000962
103 0.000995
111 0.0
120 0.0
125 0.000971
130 0.002014
135 0.0
138 0.0
141 0.0
143 0.00101
144 0.000997
149 0.0
151 0.001996
144 0.001994
55 0.0
0 0.000999
0 0.0
22 0.000982
49 0.001009
62 0.0
66 0.0
78 0.001037
90 0.000999
97 0.000998
103 0.00203
108 0.002044
119 0.00096
126 0.000996
131 0.001999
136 0.001994
140 0.001997
144 0.000967
146 0.000998
148 0.000992
151 0.000997
155 0.0
159 0.000999
160 0.001996
163 0.000999
166 0.000998
168 0.000997
166 0.002946
135 0.001946
27 0.000888
2 0.002008
30 0.000997
64 0.001967
87 0.001989
89 0.001963
95 0.001003
104 0.000996
107 0.000989
110 0.000998
116 0.001952
123 0.002032
132 0.001004
139 0.002021
145 0.002062
151 0.000988
153 0.002047
156 0.001993
158 0.002994
161 0.000967
163 0.001996
166 0.001995
169 0.001995
172 0.003027
175 0.002005
177 0.000942
179 0.000964
160 0.001004
97 0.000972
45 0.003006
53 0.003005
91 0.001996
107 0.001995
114 0.001995
118 0.00303
121 0.00304
122 0.002018
123 0.001997
124 0.002007
131 0.001995
137 0.001995
143 0.003027
148 0.003029
151 0.002008
154 0.002026
155 0.00204
156 0.003007
156 0.003025
159 0.002003
160 0.002994
161 0.00195
166 0.001978
168 0.002006
159 0.001975
110 0.00302
47 0.003036
45 0.001986
74 0.001994
94 0.002032
102 0.00399
106 0.003985
111 0.002042
113 0.003026
115 0.001995
117 0.001977
122 0.003037
128 0.00399
134 0.004024
142 0.002994
145 0.003028
147 0.00403
150 0.00399
152 0.003951
154 0.002974
156 0.002024
159 0.001997
162 0.002962
164 0.001987
166 0.003978
168 0.00399
141 0.002962
75 0.003048
35 0.002999
48 0.003994
75 0.004033
96 0.00399
100 0.004027
105 0.004023
110 0.002959
111 0.002961
112 0.004024
114 0.004022
121 0.002992
127 0.002959
134 0.002994
139 0.003989
142 0.003997
147 0.004025
148 0.002993
151 0.003988
153 0.00399
154 0.003978
156 0.00503
159 0.004025
161 0.00399
165 0.00403
166 0.00303
149 0.005026
88 0.005032
32 0.003964
49 0.004022
89 0.003944
98 0.004026
102 0.00399
107 0.005031
110 0.004987
111 0.004038
112 0.00399
115 0.004035
120 0.00399
127 0.004989
133 0.004988
140 0.002989
146 0.003959
150 0.003953
151 0.003989
153 0.004987
155 0.004952
159 0.003977
161 0.004996
164 0.004978
166 0.005025
168 0.005949
167 0.005015
121 0.004986
63 0.004995
59 0.003965
84 0.003991
101 0.003991
109 0.00502
113 0.005024
119 0.004039
119 0.003988
117 0.004987
118 0.005985
120 0.006018
129 0.005024
135 0.005986
141 0.005022
144 0.005002
146 0.004987
148 0.005014
150 0.00503
151 0.003983
152 0.003992
154 0.004983
155 0.005987
158 0.005986
157 0.005984
124 0.00603
44 0.004986
36 0.005019
62 0.004989
85 0.006017
98 0.006033
102 0.005027
106 0.005021
110 0.004988
109 0.004983
109 0.005033
115 0.005984
122 0.005988
132 0.005028
136 0.004952
140 0.004986
144 0.006019
146 0.005994
148 0.005003
150 0.004979
152 0.005987
152 0.006984
155 0.00699
160 0.006012
161 0.005947
144 0.005963
57 0.005016
22 0.004988
39 0.005969
68 0.00697
89 0.004986
93 0.004987
96 0.006022
101 0.006984
102 0.007035
105 0.006977
109 0.006982
116 0.006018
120 0.005985
130 0.004995
135 0.005981
138 0.005987
142 0.005013
144 0.005985
146 0.006952
148 0.006983
152 0.006997
156 0.007015
158 0.007034
161 0.005986
162 0.005986
142 0.005985
74 0.006985
17 0.006019
33 0.005983
64 0.005983
83 0.005977
91 0.007009
94 0.006982
103 0.007006
104 0.007014
106 0.006021
111 0.006004
116 0.006014
123 0.007027
130 0.007011
136 0.007974
141 0.007016
144 0.005992
147 0.007014
149 0.007014
153 0.005979
156 0.006989
159 0.006981
162 0.005985
165 0.006028
168 0.005982
170 0.007979
163 0.007969
117 0.006983
48 0.006982
33 0.007033
78 0.007013
96 0.006014
103 0.006955
107 0.007028
112 0.006968
113 0.006979
113 0.007012
115 0.007977
120 0.007984
128 0.007013
134 0.006982
139 0.006981
146 0.007013
149 0.00702
151 0.007971
152 0.007978
154 0.006013
157 0.007
159 0.007962
161 0.007979
165 0.00798
168 0.006827
158 0.006951
111 0.006991
49 0.007033
70 0.007035
99 0.00797
108 0.007978
112 0.007018
116 0.006977
116 0.007014
114 0.008016
113 0.00798
115 0.007012
120 0.007012
126 0.006948
135 0.006996
139 0.006009
141 0.006973
143 0.006953
144 0.007002
145 0.006974
146 0.006979
148 0.007012
150 0.007014
152 0.006981
152 0.006014
122 0.007982
28 0.006969
11 0.007015
43 0.007978
69 0.007014
80 0.006983
83 0.007011
91 0.00698
95 0.006978
97 0.007012
101 0.005976
106 0.007007
113 0.006956
124 0.007018
130 0.00701
135 0.00702
138 0.007015
140 0.006992
142 0.00701
144 0.00698
146 0.007014
148 0.007015
151 0.00702
152 0.007008
155 0.006985
155 0.007014
120 0.006986
36 0.006018
0 0.006016
9 0.005966
54 0.006984
71 0.006002
75 0.006018
79 0.006973
88 0.006981
96 0.007071
100 0.006982
107 0.007027
114 0.007022
122 0.006982
128 0.007012
134 0.007
140 0.006043
142 0.006987
144 0.005971
147 0.006012
149 0.005984
151 0.006023
155 0.006024
158 0.006014
160 0.005985
162 0.004992
164 0.005994
166 0.005995
167 0.006014
146 0.006004
72 0.006019
9 0.006021
11 0.006015
57 0.006031
79 0.006018
87 0.00599
92 0.005984
98 0.005982
103 0.004981
107 0.004977
113 0.006021
119 0.006039
127 0.006015
133 0.006023
139 0.006023
146 0.006025
150 0.005985
152 0.006021
154 0.006017
156 0.004969
159 0.004977
160 0.004982
163 0.004994
166 0.005022
168 0.005011
170 0.00502
173 0.005989
173 0.006013
132 0.005984
44 0.006022
39 0.006014
70 0.005022
94 0.005008
105 0.004966
111 0.005016
115 0.00496
117 0.005001
118 0.004972
118 0.005021
122 0.005031
131 0.005024
140 0.006029
146 0.005987
150 0.005019
152 0.00498
154 0.005025
156 0.00502
158 0.005023
159 0.005017
161 0.004983
163 0.004988
166 0.004017
168 0.004033
170 0.00502
169 0.00502
146 0.004989
83 0.004998
38 0.004989
49 0.004992
85 0.004006
101 0.004955
106 0.005021
110 0.004998
112 0.005021
111 0.005019
110 0.003992
114 0.004027
120 0.003989
127 0.003986
133 0.004021
138 0.004022
142 0.00502
144 0.005018
145 0.004988
146 0.004024
147 0.005033
150 0.005019
152 0.005018
155 0.004023
157 0.003958
159 0.003991
162 0.00399
163 0.003989
150 0.004023
91 0.003995
27 0.004987
21 0.004986
50 0.005021
84 0.004022
91 0.00403
95 0.003955
101 0.004034
105 0.004023
107 0.00399
109 0.003983
114 0.003012
120 0.004026
126 0.004019
132 0.002994
136 0.00302
140 0.00399
142 0.003024
145 0.004025
148 0.00399
150 0.003957
152 0.003989
154 0.004028
157 0.003976
159 0.004025
162 0.003022
164 0.003988
165 0.002999
114 0.003032
47 0.003027
31 0.004021
60 0.003991
83 0.003024
93 0.004031
97 0.002981
102 0.002991
105 0.003028
106 0.003022
108 0.002987
114 0.002993
121 0.003022
128 0.004029
137 0.003037
141 0.003028
144 0.001985
147 0.003959
149 0.003992
151 0.002927
154 0.002992
156 0.003024
158 0.003025
163 0.003025
164 0.002985
167 0.002992
170 0.002992
170 0.002936
154 0.00205
99 0.003021
55 0.002026
67 0.003
91 0.001999
104 0.003015
110 0.002991
115 0.002991
117 0.002961
116 0.002992
115 0.002998
118 0.002993
123 0.002992
130 0.001992
136 0.001995
140 0.001994
145 0.002032
147 0.001985
149 0.002024
151 0.002037
152 0.002027
154 0.002051
156 0.002992
159 0.003031
161 0.002999
162 0.001995
149 0.002988
98 0.002957
44 0.002039
56 0.001955
80 0.00198
99 0.001995
103 0.00205
107 0.001995
108 0.002027
105 0.001995
105 0.001991
108 0.002039
112 0.002028
119 0.001965
127 0.001993
131 0.002024
135 0.001994
138 0.001994
140 0.001996
142 0.001996
143 0.002018
145 0.002071
148 0.002028
150 0.002043
152 0.001994
148 0.001995
82 0.002035
20 0.001001
15 0.001994
60 0.002
76 0.001994
80 0.002002
83 0.00196
90 0.000983
94 0.001028
98 0.001028
100 0.001029
105 0.001029
113 0.00103
120 0.001107
125 0.001993
132 0.001995
134 0.001995
136 0.001995
138 0.001994
140 0.000883
142 0.00103
144 0.00103
147 0.001029
149 0.000998
151 0.001036
133 0.000999
68 0.001051
2 0.00099
27 0.001997
58 0.002004
75 0.001998
79 0.001046
86 0.001021
92 0.001001
97 0.000998
99 0.001004
105 0.00099
112 0.000999
119 0.001032
130 0.000997
135 0.000997
139 0.000962
143 0.000997
146 0.0
149 0.00101
151 0.000967
152 0.0
155 0.0
158 0.0
161 0.000999
166 0.000997
161 0.000998
120 0.000997
49 0.000998
25 0.001013
49 0.000895
85 0.0
96 0.0
99 0.0
104 0.0
108 0.001055
109 0.0
111 0.000997
118 0.000998
126 0.0
132 0.001021
137 0.000987
142 0.0
145 0.0
146 0.0
147 0.0
149 0.0
151 0.0
153 0.0
155 0.0
158 0.0
160 0.0
156 0.0
117 0.0
38 0.0
6 0.0
37 0.0
67 0.0
81 0.0
85 0.0
94 0.0
99 0.0
101 0.0
103 0.0
109 0.0
117 0.0
127 0.001011
133 0.0
137 0.0
140 0.0
142 0.000989
143 0.0
147 0.0
150 0.0
153 0.000965
155 0.001011
157 0.001004
159 0.000997
161 0.0
163 0.0
161 0.002028
105 0.0
23 0.0
0 0.000984
23 0.001044
69 0.0
77 0.001028
78 0.000998
88 0.0
95 0.0
101 0.0
104 0.0
109 0.002046
119 0.0
123 0.000997
131 0.000997
138 0.001997
144 0.0
148 0.000995
150 0.000997
152 0.0
154 0.0
157 0.0
160 0.001015
163 0.000966
167 0.0
169 0.0
170 0.000996
171 0.000994
171 0.0
142 0.001033
71 0.000999
27 0.001008
51 0.0
80 0.0
96 0.0
100 0.002028
103 0.001985
110 0.000966
113 0.0
116 0.000997
122 0.0
129 0.0
135 0.001029
141 0.000997
149 0.0
151 0.000974
154 0.000967
156 0.000997
158 0.00196
159 0.000998
162 0.000966
166 0.0
168 0.002002
170 0.000982
172 0.000997
173 0.001995
175 0.0
161 0.000984
109 0.000979
60 0.002038
64 0.00203
96 0.00096
111 0.000956
119 0.000998
122 0.000999
122 0.002041
120 0.001995
119 0.002
121 0.001014
125 0.002021
132 0.00101
137 0.001961
141 0.001948
145 0.001984
147 0.00096
149 0.000965
149 0.000987
150 0.000946
152 0.001995
154 0.001996
157 0.000998
160 0.001993
162 0.001008
149 0.003021
95 0.003028
29 0.000983
39 0.000963
81 0.001987
91 0.002004
95 0.000983
99 0.002984
104 0.002992
106 0.00099
108 0.000977
110 0.001963
116 0.001996
122 0.00299
131 0.000986
136 0.001985
143 0.001995
146 0.00203
147 0.001996
149 0.002971
152 0.003028
154 0.002023
156 0.002052
159 0.001951
161 0.003997
164 0.003025
166 0.001948
147 0.001962
43 0.001993
26 0.001995
51 0.002011
76 0.002993
89 0.002992
95 0.002046
99 0.002006
103 0.003034
105 0.002022
107 0.003028
110 0.004025
117 0.002036
126 0.004022
135 0.001994
140 0.001993
144 0.001993
147 0.003025
149 0.002992
152 0.002987
155 0.002047
157 0.001995
160 0.004029
163 0.004023
167 0.003014
171 0.003998
164 0.002025
121 0.002029
62 0.002982
51 0.002992
74 0.002992
99 0.002995
108 0.003
112 0.002995
115 0.003991
117 0.00399
119 0.002039
119 0.004021
125 0.003026
131 0.003012
137 0.001995
143 0.003989
147 0.003989
151 0.002041
154 0.001971
155 0.001999
156 0.00399
157 0.004024
160 0.003008
163 0.004989
165 0.002992
148 0.001992
99 0.002975
61 0.004024
68 0.004028
96 0.002994
108 0.003026
114 0.002032
118 0.004026
121 0.004023
120 0.004024
119 0.004022
121 0.001975
126 0.002998
133 0.003027
139 0.004987
143 0.004992
147 0.002993
149 0.002994
150 0.003996
151 0.00404
153 0.003978
154 0.003988
144 0.003991
74 0.004024
28 0.004029
34 0.004023
61 0.005018
81 0.004987
91 0.002995
93 0.004027
98 0.003032
100 0.00503
101 0.005015
103 0.004988
108 0.004986
118 0.004023
125 0.003982
130 0.003989
133 0.004987
136 0.005019
138 0.003997
139 0.004023
141 0.003996
144 0.004989
146 0.005022
142 0.00503
99 0.004985
0 0.003011
0 0.004018
12 0.004021
43 0.005984
58 0.004977
60 0.005984
70 0.004024
82 0.003957
88 0.003961
92 0.005017
100 0.003991
108 0.004986
116 0.005044
124 0.003988
129 0.00402
133 0.004022
136 0.005984
139 0.005984
142 0.005036
145 0.003987
148 0.003957
150 0.005996
154 0.003984
156 0.005043
159 0.005021
160 0.004999
145 0.004037
74 0.004986
0 0.006031
0 0.006021
30 0.005026
57 0.004982
66 0.004978
69 0.005994
86 0.004995
95 0.006015
100 0.005995
107 0.00399
115 0.003935
123 0.004958
130 0.006023
136 0.005987
143 0.004955
146 0.004988
149 0.00499
152 0.006018
157 0.00502
159 0.005984
162 0.005984
167 0.004988
168 0.004967
171 0.004022
174 0.007021
176 0.006972
177 0.004957
167 0.004957
112 0.004958
42 0.005984
50 0.004988
83 0.005975
100 0.006018
107 0.004991
111 0.00502
115 0.005017
116 0.005984
116 0.006981
119 0.006017
125 0.004955
133 0.004956
144 0.004968
147 0.004992
150 0.005984
152 0.005983
154 0.004986
156 0.005956
158 0.005953
159 0.006981
160 0.007014
163 0.005985
167 0.006024
168 0.005979
136 0.005994
60 0.006017
12 0.007025
26 0.007029
70 0.004968
86 0.004991
91 0.004991
96 0.007011
103 0.007038
107 0.005954
108 0.006001
111 0.005785
122 0.005996
129 0.006018
136 0.006019
141 0.006981
144 0.007019
148 0.004933
150 0.004989
151 0.006935
153 0.007979
155 0.007979
157 0.00595
159 0.005954
163 0.005979
165 0.005977
166 0.005992
151 0.007034
82 0.007015
0 0.006018
1 0.006023
37 0.00602
63 0.007949
72 0.007952
75 0.006984
84 0.006982
97 0.005978
101 0.00598
104 0.005982
110 0.006985
118 0.007013
128 0.006978
133 0.006965
138 0.006967
142 0.00798
145 0.007981
148 0.006951
150 0.00695
154 0.006993
157 0.006959
160 0.007013
162 0.007979
166 0.007973
168 0.006972
171 0.006976
169 0.006985
123 0.007988
67 0.007986
7 0.006987
41 0.007012
80 0.007005
92 0.007016
95 0.007014
101 0.007978
109 0.007977
113 0.006991
114 0.00698
119 0.006966
128 0.006969
136 0.006987
143 0.006982
148 0.006978
155 0.006982
156 0.00699
159 0.006984
161 0.007979
164 0.007019
168 0.006981
169 0.006974
172 0.006994
176 0.007017
179 0.006981
179 0.006956
156 0.006974
74 0.006937
58 0.006979
76 0.006986
106 0.007017
117 0.00702
123 0.007016
127 0.007012
128 0.00702
128 0.006984
128 0.006973
131 0.006972
138 0.006986
148 0.006978
151 0.006952
156 0.006971
158 0.006015
160 0.006023
162 0.007022
164 0.007017
165 0.006975
167 0.006973
168 0.00698
171 0.006987
166 0.007016
126 0.007022
56 0.00598
54 0.006964
86 0.006017
104 0.006023
112 0.005984
118 0.005987
122 0.006016
122 0.007013
120 0.007011
120 0.006996
127 0.00697
134 0.006983
142 0.006014
147 0.006015
151 0.005974
153 0.005974
154 0.006018
155 0.006014
155 0.00599
155 0.005955
156 0.005007
158 0.005978
161 0.007028
147 0.006033
53 0.005965
0 0.006019
1 0.006041
36 0.006018
61 0.006019
73 0.006014
76 0.006016
84 0.005009
91 0.006019
95 0.005979
102 0.006017
107 0.005023
117 0.006017
124 0.005994
130 0.006015
135 0.005984
139 0.005984
142 0.006024
144 0.006016
146 0.005982
149 0.005017
151 0.004954
155 0.00602
158 0.005037
162 0.005017
159 0.005023
119 0.005024
29 0.006015
0 0.005057
14 0.005019
50 0.004988
68 0.005973
74 0.006035
77 0.005997
92 0.005019
97 0.005023
103 0.005974
109 0.005989
116 0.005016
125 0.005018
132 0.004987
139 0.00499
144 0.00502
147 0.004973
150 0.005018
151 0.003988
155 0.004987
158 0.005993
161 0.004987
163 0.005044
166 0.004974
169 0.004984
171 0.005024
155 0.005018
87 0.004987
8 0.004944
65 0.004987
82 0.003989
104 0.005023
108 0.004025
111 0.005026
115 0.005031
117 0.005023
118 0.005023
120 0.005022
123 0.005007
128 0.003998
132 0.004934
135 0.003959
137 0.003986
140 0.005021
141 0.003952
142 0.00396
143 0.00402
145 0.004027
146 0.003957
147 0.004985
148 0.00402
150 0.005021
151 0.004988
152 0.003996
151 0.00402
106 0.003985
78 0.004023
81 0.004021
105 0.003987
114 0.004021
118 0.003993
120 0.003989
122 0.004024
123 0.003989
123 0.00299
125 0.003983
129 0.003992
133 0.00402
137 0.003993
139 0.004021
142 0.003989
143 0.00402
143 0.00403
144 0.004028
145 0.004023
146 0.004022
147 0.003031
149 0.003023
151 0.003023
151 0.003991
138 0.003992
107 0.004036
90 0.004023
102 0.003991
115 0.003959
122 0.004023
125 0.00399
128 0.002992
130 0.003027
129 0.003031
128 0.002983
131 0.003992
136 0.003027
143 0.003039
148 0.003989
152 0.00399
154 0.003991
155 0.00399
156 0.003958
158 0.003957
158 0.003021
158 0.003023
161 0.002992
163 0.003023
153 0.002992
110 0.002995
48 0.003022
56 0.003991
82 0.003045
99 0.003991
107 0.003989
112 0.003995
114 0.003034
114 0.003032
114 0.00299
116 0.003025
121 0.002992
126 0.002993
132 0.003025
136 0.003026
138 0.002992
139 0.002993
140 0.002993
141 0.003024
142 0.002007
144 0.002031
148 0.002997
147 0.002992
124 0.003027
51 0.003086
0 0.002992
71 0.003028
86 0.002992
96 0.002992
99 0.003029
100 0.002993
108 0.002028
113 0.002042
117 0.002029
119 0.001995
122 0.003041
125 0.003033
129 0.002993
132 0.002993
134 0.001994
135 0.002029
137 0.001996
136 0.001995
137 0.002027
138 0.002036
141 0.002031
142 0.002068
144 0.001996
145 0.001995
142 0.001018
108 0.001029
71 0.001995
66 0.001995
80 0.002038
95 0.002008
104 0.002016
105 0.000976
113 0.002035
117 0.001996
119 0.001972
121 0.002046
122 0.00199
125 0.001994
129 0.001961
131 0.001996
134 0.001996
136 0.001958
138 0.001994
140 0.001994
142 0.001994
142 0.001995
144 0.001994
145 0.001995
146 0.001001
147 0.001994
148 0.001995
149 0.000997
148 0.001996
135 0.001994
85 0.001041
73 0.000998
94 0.002044
106 0.001995
111 0.001028
113 0.000998
116 0.000998
121 0.000997
123 0.00098
121 0.000997
125 0.000997
130 0.001995
137 0.00103
143 0.001994
146 0.001995
147 0.001995
149 0.000997
149 0.000997
151 0.000998
153 0.000997
155 0.000999
157 0.000998
159 0.000998
161 0.000997
163 0.0
166 0.0
165 0.000997
152 0.0
113 0.0
75 0.0
80 0.001052
103 0.000965
113 0.000998
116 0.000998
117 0.000999
118 0.000996
118 0.000985
118 0.000985
123 0.000997
130 0.000998
134 0.000977
137 0.0
139 0.000999
140 0.000969
141 0.000998
143 0.0
144 0.000997
144 0.0
144 0.0
148 0.0
151 0.0
154 0.0
146 0.0
119 0.0
89 0.0
89 0.0
109 0.0
118 0.0
122 0.0
125 0.0
127 0.0
125 0.0
124 0.0
124 0.0
125 0.0
127 0.0
129 0.0
130 0.0
132 0.0
133 0.0
133 0.0
133 0.0
135 0.0
136 0.0
138 0.0
141 0.000991
138 0.001011
85 0.0
28 0.0
22 0.0
48 0.000995
73 0.001027
89 0.0
94 0.0
99 0.000962
107 0.0
109 0.0
111 0.001996
115 0.001003
122 0.0
127 0.0
131 0.0
134 0.002033
136 0.00203
140 0.0
141 0.0
143 0.000954
146 0.000999
150 0.0
153 0.000998
153 0.001908
125 0.0
76 0.0
56 0.0
72 0.000998
92 0.002004
105 0.0
110 0.0
118 0.0
119 0.0
119 0.0
121 0.001011
124 0.000947
131 0.0
137 0.0
139 0.000994
144 0.002038
147 0.000999
149 0.0
150 0.000999
154 0.000984
156 0.0
151 0.001014
107 0.0
62 0.000968
61 0.002003
90 0.0
104 0.0
108 0.000996
114 0.000995
119 0.001059
122 0.0
122 0.001955
125 0.0
129 0.000943
134 0.0
139 0.000999
143 0.000998
147 0.0
149 0.000999
151 0.0
152 0.001995
153 0.001995
155 0.0
157 0.002035
160 0.001001
157 0.000998
127 0.001997
61 0.001042
28 0.001996
52 0.000952
75 0.000953
87 0.001046
89 0.002028
95 0.002028
105 0.00103
112 0.002063
115 0.0
119 0.001986
124 0.000981
130 0.003024
135 0.002992
141 0.001
144 0.001014
147 0.000963
149 0.001987
151 0.001995
154 0.001987
157 0.001983
159 0.002005
162 0.000951
164 0.001039
166 0.001996
168 0.001995
167 0.002041
139 0.00201
74 0.001025
38 0.003004
52 0.002992
84 0.000993
98 0.003028
103 0.000996
109 0.000982
113 0.000983
116 0.002983
119 0.001999
123 0.000954
128 0.000964
134 0.002001
140 0.002994
144 0.002992
147 0.001983
150 0.002992
153 0.001029
154 0.000949
156 0.00099
158 0.003036
160 0.00303
163 0.001977
166 0.001944
169 0.001969
170 0.00399
172 0.003038
174 0.001998
174 0.003027
153 0.001996
100 0.002025
64 0.001994
75 0.002992
96 0.003025
111 0.00103
115 0.002028
118 0.001997
121 0.003989
123 0.004035
126 0.000986
128 0.004024
132 0.003025
138 0.002039
142 0.002025
146 0.002036
149 0.00402
151 0.00399
154 0.001984
155 0.001984
157 0.001972
159 0.00402
162 0.001998
165 0.002992
166 0.00303
168 0.001998
170 0.002992
170 0.002021
161 0.00402
125 0.00403
89 0.001994
96 0.003023
109 0.001987
118 0.003989
126 0.001997
130 0.003989
131 0.003989
131 0.001937
131 0.001994
132 0.001989
135 0.003991
138 0.003989
144 0.003005
146 0.002991
149 0.002991
152 0.004022
156 0.002995
157 0.003989
157 0.00404
160 0.00297
161 0.002998
161 0.003027
152 0.003989
119 0.004987
84 0.001984
91 0.002994
104 0.003025
112 0.004986
119 0.002996
122 0.005022
124 0.00503
124 0.002993
124 0.002997
126 0.002997
129 0.00403
134 0.005024
139 0.003964
144 0.004035
147 0.003989
150 0.005022
153 0.004025
154 0.004988
155 0.005033
157 0.00299
158 0.003001
159 0.003958
151 0.004021
115 0.005984
62 0.003995
67 0.00399
85 0.003992
96 0.004987
103 0.003984
107 0.004986
111 0.00502
114 0.002992
116 0.003036
118 0.003027
121 0.005024
125 0.005021
130 0.005986
135 0.003957
138 0.003993
142 0.003994
145 0.003995
148 0.003994
149 0.004988
152 0.005023
154 0.00399
156 0.004028
158 0.00399
159 0.005022
157 0.006026
119 0.00398
65 0.003983
48 0.003986
80 0.003989
93 0.004001
99 0.004987
101 0.004986
107 0.003996
110 0.003995
112 0.005004
114 0.005984
118 0.006061
122 0.004995
127 0.003976
132 0.005021
138 0.003998
140 0.004002
142 0.005985
145 0.006022
148 0.005005
149 0.003997
152 0.004989
154 0.005984
156 0.005985
158 0.004987
161 0.004987
159 0.004966
137 0.005029
86 0.005035
56 0.005987
69 0.006018
93 0.004994
102 0.00499
106 0.004989
110 0.006013
114 0.00702
116 0.003993
117 0.003988
121 0.005018
124 0.004989
128 0.004993
132 0.006013
136 0.005977
139 0.004961
141 0.005019
144 0.00502
145 0.00601
146 0.006948
148 0.004987
150 0.005008
154 0.004955
155 0.005007
143 0.004982
103 0.005965
65 0.006017
76 0.006011
94 0.005977
104 0.00502
109 0.006981
113 0.006981
117 0.004955
118 0.004979
118 0.004988
121 0.005982
124 0.004989
129 0.006982
135 0.007944
138 0.005992
141 0.005987
143 0.005985
144 0.007019
146 0.007014
148 0.005976
150 0.005989
153 0.006003
153 0.006024
134 0.004988
80 0.004993
39 0.00796
57 0.007976
79 0.005983
89 0.00598
94 0.005991
98 0.007989
102 0.007027
108 0.005986
110 0.006982
115 0.006978
119 0.005975
124 0.006985
131 0.007973
134 0.007977
136 0.005974
139 0.005985
141 0.005995
143 0.007975
146 0.007963
149 0.006962
153 0.00697
154 0.006951
157 0.005989
158 0.007
132 0.007986
64 0.007975
23 0.006981
36 0.007013
65 0.00598
84 0.007968
89 0.007972
94 0.005998
104 0.007017
107 0.005991
109 0.005987
113 0.006981
120 0.007978
125 0.007996
131 0.006979
135 0.006025
138 0.006986
142 0.007955
145 0.007977
146 0.005981
150 0.00701
152 0.005985
155 0.005984
158 0.006982
160 0.007022
163 0.006981
162 0.006984
136 0.006976
94 0.006984
27 0.006983
43 0.008021
86 0.007015
95 0.007979
101 0.006978
106 0.00597
110 0.006959
112 0.007013
114 0.00701
116 0.006974
123 0.006979
129 0.006967
133 0.006964
136 0.007014
141 0.005986
143 0.006015
144 0.006983
146 0.006988
147 0.006979
149 0.007013
151 0.007012
152 0.006981
144 0.00698
76 0.006968
24 0.007015
31 0.006982
82 0.005986
97 0.006012
104 0.006982
111 0.005954
114 0.005986
114 0.007039
112 0.007033
117 0.006948
120 0.006968
128 0.006965
132 0.006959
135 0.007012
136 0.006025
137 0.006023
136 0.007013
136 0.006015
142 0.006015
150 0.005984
149 0.006017
125 0.006019
12 0.00597
0 0.00697
14 0.007007
51 0.007016
80 0.006014
84 0.005985
95 0.005968
106 0.006019
112 0.006022
115 0.006015
119 0.005974
125 0.006014
131 0.006014
137 0.006013
142 0.005977
148 0.005985
151 0.005177
153 0.005018
154 0.006982
159 0.005984
161 0.004987
163 0.005954
166 0.006026
169 0.00603
171 0.005996
158 0.005985
90 0.006018
8 0.006028
24 0.005016
61 0.005017
85 0.005986
98 0.005021
106 0.005025
115 0.005018
121 0.005022
124 0.00502
122 0.005033
125 0.00602
132 0.006017
139 0.006028
148 0.005977
152 0.006009
155 0.006021
158 0.006042
160 0.006015
161 0.005982
163 0.005014
166 0.005026
170 0.005018
165 0.005022
126 0.005035
50 0.004987
48 0.003945
83 0.004988
105 0.005021
116 0.006022
123 0.004983
129 0.005035
132 0.005024
134 0.005042
136 0.004988
139 0.005019
143 0.005019
147 0.00502
153 0.004977
155 0.004975
156 0.004986
157 0.004004
158 0.005016
160 0.005017
162 0.00396
165 0.003989
168 0.004024
171 0.005028
172 0.004987
96 0.005002
24 0.004988
21 0.004981
55 0.005027
87 0.005027
105 0.005022
111 0.005047
117 0.005029
123 0.004938
126 0.003962
128 0.004022
132 0.004033
141 0.005027
147 0.003991
152 0.003988
155 0.004084
158 0.00399
162 0.003046
163 0.004096
166 0.003989
169 0.005024
170 0.00399
173 0.004024
176 0.005024
176 0.004956
155 0.003978
84 0.004026
36 0.004012
53 0.003989
99 0.004031
117 0.004003
125 0.003958
131 0.003985
137 0.004024
140 0.004047
141 0.003986
145 0.00399
150 0.00399
154 0.00401
158 0.004047
161 0.003997
164 0.003956
166 0.003954
167 0.003989
167 0.003993
167 0.003967
169 0.00399
171 0.003989
173 0.003017
161 0.003025
116 0.003021
60 0.003989
65 0.003027
108 0.003991
125 0.004001
133 0.00399
138 0.004021
142 0.004025
141 0.00399
139 0.003989
141 0.003037
145 0.002994
149 0.002988
153 0.002992
155 0.002992
158 0.002992
158 0.002983
158 0.00399
158 0.00399
158 0.003991
160 0.003994
160 0.003041
101 0.003023
21 0.003027
10 0.002987
45 0.002993
83 0.002992
106 0.003992
112 0.003026
119 0.002993
123 0.002993
126 0.00403
128 0.001995
131 0.002005
140 0.002992
145 0.003035
148 0.00304
150 0.002009
153 0.003027
155 0.003026
156 0.002995
157 0.001994
158 0.003024
160 0.002026
162 0.001997
157 0.001978
82 0.002007
0 0.002959
14 0.002991
60 0.003027
90 0.002953
104 0.002961
112 0.002992
119 0.001995
123 0.002031
125 0.001995
127 0.002011
134 0.000965
140 0.002018
145 0.003041
149 0.002004
152 0.00199
155 0.002994
155 0.003043
157 0.002999
159 0.002031
159 0.002048
160 0.002043
162 0.002059
164 0.002035
165 0.001984
132 0.001968
34 0.000998
0 0.001995
13 0.002031
61 0.002032
97 0.002006
107 0.001996
113 0.00206
119 0.001995
122 0.002004
126 0.002017
131 0.002029
138 0.001996
143 0.000989
147 0.001995
151 0.001995
153 0.002019
156 0.000998
157 0.00203
158 0.001952
159 0.000999
161 0.002038
163 0.002026
164 0.001989
166 0.00105
167 0.001938
152 0.001001
82 0.000997
16 0.000997
40 0.000997
82 0.000999
105 0.00099
116 0.000998
122 0.00099
130 0.001018
131 0.000997
132 0.0
134 0.0
138 0.001015
144 0.00199
148 0.001013
151 0.001
154 0.000997
156 0.001014
157 0.001015
157 0.000996
159 0.001029
160 0.001044
163 0.001031
163 0.0
157 0.0
121 0.001008
63 0.000998
69 0.0
101 0.0
118 0.0
126 0.0
131 0.000999
135 0.000999
133 0.001
130 0.001012
131 0.0
135 0.0
139 0.0
141 0.000997
143 0.0
146 0.0
147 0.0
147 0.0
148 0.0
149 0.0
151 0.0
147 0.001002
94 0.0
16 0.0
4 0.0
40 0.0
74 0.0
94 0.0
100 0.000997
106 0.000998
109 0.0
111 0.000998
114 0.0
118 0.0
125 0.0
131 0.0
135 0.0
138 0.0
141 0.0
143 0.0
145 0.0
147 0.0
148 0.0
150 0.000997
152 0.000963
154 0.0
145 0.0
81 0.0
0 0.0
0 0.0
45 0.0
73 0.001042
86 0.001038
94 0.0
104 0.001961
109 0.0
112 0.0
115 0.0
120 0.002029
126 0.001991
133 0.0
137 0.0
140 0.0
143 0.00204
146 0.00203
147 0.0
150 0.001998
152 0.000957
155 0.0
155 0.000964
158 0.00205
161 0.000999
161 0.0
137 0.000966
55 0.00099
2 0.002058
19 0.002025
70 0.0
95 0.00199
104 0.000961
109 0.00096
113 0.0
114 0.00203
116 0.002048
121 0.000948
126 0.001006
132 0.0
138 0.002042
141 0.002032
145 0.0
149 0.001995
152 0.000965
153 0.001017
155 0.000986
158 0.001993
161 0.001995
163 0.0
166 0.0
169 0.0
170 0.001993
167 0.002007
139 0.002029
41 0.002044
53 0.002023
95 0.0
110 0.0
119 0.0
124 0.002028
129 0.002033
131 0.0
130 0.0
131 0.0
135 0.002043
139 0.002029
145 0.000996
150 0.000999
154 0.000976
156 0.001029
158 0.0
160 0.00201
161 0.001995
164 0.001041
165 0.0
166 0.0
169 0.002032
168 0.002029
128 0.002045
80 0.001009
74 0.000961
103 0.0
116 0.000988
123 0.002992
128 0.002993
132 0.001992
130 0.00199
128 0.002011
127 0.001995
129 0.002
136 0.002049
139 0.001988
144 0.0
146 0.000964
148 0.000963
150 0.00199
151 0.001988
152 0.001993
154 0.00201
155 0.001991
156 0.003035
144 0.002993
43 0.003031
17 0.003023
54 0.001011
78 0.0
89 0.001998
94 0.001995
100 0.001995
104 0.001997
105 0.000996
107 0.002013
108 0.00204
113 0.003045
122 0.003045
127 0.003054
133 0.002
135 0.001005
138 0.002003
140 0.003026
142 0.002977
144 0.001986
146 0.002
148 0.001991
151 0.002992
144 0.002975
91 0.002993
15 0.003018
10 0.001967
47 0.002046
72 0.001993
83 0.002992
88 0.004022
96 0.001958
100 0.002006
102 0.002036
104 0.003005
112 0.001952
118 0.004025
125 0.003991
131 0.001993
135 0.002049
138 0.001991
140 0.001024
141 0.002992
143 0.004025
146 0.002008
148 0.000997
151 0.002025
155 0.001009
158 0.001979
158 0.00398
138 0.004021
32 0.001986
0 0.001978
21 0.001992
58 0.002979
79 0.003023
89 0.002012
96 0.000997
102 0.002
106 0.002
108 0.00203
113 0.00399
119 0.004025
128 0.002987
133 0.002985
137 0.002002
141 0.003989
144 0.004023
147 0.002992
149 0.003001
152 0.002981
156 0.002988
158 0.001974
161 0.004022
164 0.004025
167 0.002035
159 0.001996
110 0.00204
40 0.004021
31 0.003985
75 0.002985
96 0.002016
106 0.00299
115 0.003011
118 0.002994
120 0.004991
120 0.005026
123 0.002957
128 0.002991
134 0.003001
140 0.003989
144 0.004986
148 0.002975
150 0.001995
151 0.003021
153 0.002957
155 0.002994
158 0.005024
161 0.005013
165 0.002961
162 0.003005
131 0.002981
82 0.004026
71 0.005017
101 0.003001
117 0.003994
125 0.003982
134 0.003043
135 0.003027
134 0.006021
130 0.004988
131 0.00302
136 0.003979
140 0.002996
144 0.005986
149 0.005992
152 0.002998
153 0.003025
154 0.003991
156 0.002998
157 0.003996
150 0.006021
114 0.006033
40 0.003989
43 0.003015
72 0.00296
93 0.005025
104 0.004987
112 0.00302
115 0.002989
114 0.005991
112 0.004052
114 0.003977
120 0.003999
126 0.005965
132 0.005955
138 0.003963
140 0.003989
142 0.00399
144 0.005988
143 0.006029
146 0.004
147 0.006016
123 0.003991
39 0.003968
0 0.004006
0 0.005987
20 0.005986
51 0.003971
55 0.003988
58 0.003997
72 0.005984
85 0.005983
94 0.003992
100 0.006994
110 0.004978
117 0.00495
124 0.004986
129 0.005955
134 0.005986
138 0.003989
141 0.00399
143 0.004007
145 0.006034
147 0.006027
151 0.003991
154 0.006984
142 0.004958
67 0.004997
0 0.00395
0 0.007026
5 0.005985
44 0.004988
53 0.004028
54 0.003971
69 0.00603
87 0.00602
99 0.00399
107 0.007012
116 0.004956
125 0.004958
133 0.004957
139 0.006987
143 0.006983
149 0.004967
151 0.004991
152 0.004997
155 0.007015
158 0.006993
160 0.005989
164 0.006985
166 0.004988
168 0.004955
170 0.004946
171 0.006952
172 0.006983
175 0.004989
174 0.00499
142 0.005006
40 0.006979
58 0.007013
72 0.005984
96 0.008013
106 0.005952
107 0.005954
112 0.005982
117 0.006984
120 0.006984
123 0.005938
126 0.004942
130 0.004987
134 0.006981
137 0.006981
140 0.004989
143 0.007976
143 0.005971
144 0.006008
145 0.006984
146 0.006986
147 0.006992
148 0.00798
149 0.005027
150 0.004998
151 0.005985
152 0.007981
153 0.007968
144 0.007789
121 0.007979
68 0.005945
69 0.005983
89 0.006011
108 0.007975
113 0.00701
115 0.00598
119 0.004955
121 0.006005
123 0.007958
125 0.007975
129 0.007979
133 0.007976
137 0.005952
139 0.006986
141 0.005985
143 0.007977
144 0.00798
146 0.005987
146 0.006985
147 0.006992
149 0.007012
151 0.006952
152 0.007973
153 0.007972
154 0.005977
155 0.006982
150 0.006951
124 0.007979
87 0.007013
95 0.005986
110 0.005979
120 0.006932
125 0.006982
129 0.006951
131 0.006982
130 0.006986
130 0.006979
133 0.006992
137 0.00698
141 0.007014
143 0.007973
145 0.006007
148 0.00698
148 0.006972
148 0.007014
149 0.006965
150 0.007012
151 0.007015
153 0.006948
155 0.006974
156 0.005987
147 0.006982
108 0.007014
63 0.005984
71 0.006972
88 0.006927
107 0.00695
116 0.00698
120 0.007025
121 0.007018
120 0.006935
120 0.006975
122 0.006983
127 0.005984
132 0.006017
136 0.006978
139 0.005978
141 0.005968
143 0.006016
144 0.005995
145 0.006974
146 0.006984
147 0.006951
149 0.005977
151 0.006021
149 0.006019
124 0.006975
48 0.006946
37 0.005976
59 0.006016
83 0.005988
97 0.005993
100 0.006003
106 0.00602
110 0.006025
113 0.006019
116 0.00698
119 0.006013
124 0.006077
129 0.007012
133 0.00697
137 0.005968
139 0.005982
142 0.006014
144 0.005966
144 0.006046
146 0.005985
147 0.005018
149 0.005982
151 0.005023
152 0.00499
133 0.00598
53 0.00599
33 0.00602
52 0.005987
89 0.005969
97 0.005976
100 0.005986
107 0.005977
113 0.005979
116 0.005967
118 0.004983
121 0.004988
126 0.005983
132 0.005037
136 0.005018
139 0.005029
143 0.004976
144 0.005981
146 0.004976
147 0.005995
149 0.005969
151 0.004991
152 0.004987
154 0.005021
155 0.006019
158 0.004984
159 0.004987
155 0.004982
120 0.004999
59 0.00495
43 0.005023
63 0.005015
93 0.005992
103 0.004982
107 0.005033
110 0.00499
114 0.00598
117 0.005021
118 0.005018
124 0.005013
129 0.004951
134 0.004959
137 0.005018
140 0.003989
143 0.00399
144 0.004987
145 0.003997
146 0.005018
148 0.005046
150 0.00502
151 0.005044
154 0.004996
156 0.004993
157 0.005029
159 0.005022
161 0.004988
149 0.003987
102 0.003982
59 0.003956
62 0.003988
86 0.005033
106 0.003989
112 0.00402
118 0.003989
120 0.003992
121 0.004975
122 0.005004
124 0.004019
128 0.005028
134 0.004942
138 0.004993
141 0.003988
144 0.005001
145 0.004947
148 0.004951
149 0.003989
151 0.004021
153 0.003988
154 0.003973
157 0.003023
158 0.00299
160 0.005028
162 0.00499
162 0.003023
153 0.003989
117 0.003986
75 0.004039
93 0.003986
113 0.003996
120 0.004024
124 0.003985
127 0.004022
129 0.004022
129 0.002992
128 0.002989
129 0.003999
133 0.003989
136 0.003026
141 0.003022
144 0.003019
146 0.003956
147 0.003955
149 0.003997
149 0.002992
149 0.003992
151 0.003992
153 0.002942
154 0.003003
156 0.002992
156 0.00303
134 0.003993
86 0.00299
88 0.002962
105 0.002992
115 0.001997
121 0.003014
125 0.003049
127 0.002995
126 0.003023
125 0.003002
125 0.002994
127 0.003024
131 0.002993
136 0.002993
139 0.003025
141 0.001963
142 0.002998
143 0.002998
144 0.002963
145 0.002054
146 0.003009
147 0.002995
149 0.00306
150 0.002005
152 0.001995
136 0.00202
72 0.003028
48 0.002992
61 0.002994
84 0.003031
96 0.002989
101 0.002972
104 0.003036
108 0.002978
109 0.003023
110 0.003054
114 0.002993
118 0.001968
124 0.001995
128 0.00205
132 0.00197
134 0.002047
136 0.002994
137 0.002044
139 0.002995
140 0.002139
141 0.001995
143 0.001945
146 0.002024
148 0.001991
150 0.001994
152 0.001997
153 0.002032
148 0.002044
113 0.002047
58 0.002008
49 0.00296
72 0.001988
89 0.001995
98 0.001984
102 0.002024
106 0.001959
108 0.001966
110 0.002049
113 0.002033
116 0.00204
121 0.001988
126 0.001947
131 0.003021
133 0.001037
135 0.001961
137 0.001995
139 0.003005
140 0.002999
142 0.001066
144 0.002035
146 0.001028
147 0.001029
150 0.001047
151 0.000968
153 0.002009
154 0.001012
156 0.001995
154 0.001993
98 0.001965
58 0.001016
60 0.001035
89 0.002027
101 0.000943
106 0.000964
109 0.001033
112 0.00199
113 0.001033
114 0.0
116 0.000994
119 0.001995
126 0.001001
130 0.001027
134 0.001996
137 0.001031
138 0.000999
140 0.000965
141 0.000999
142 0.000999
144 0.000963
146 0.000965
148 0.000995
149 0.000998
153 0.0
154 0.001008
156 0.000967
157 0.000998
154 0.002001
133 0.001001
90 0.001045
71 0.000962
91 0.001032
105 0.000975
113 0.000997
115 0.000997
120 0.000999
121 0.000967
121 0.000998
122 0.0
125 0.001055
129 0.0
133 0.0
135 0.0
139 0.0
141 0.0
142 0.0
143 0.0
144 0.001993
146 0.000997
147 0.0
148 0.000997
151 0.0
152 0.0
154 0.0
155 0.0
156 0.001038
142 0.0
111 0.0
93 0.0
107 0.0
116 0.0
122 0.0
125 0.001003
129 0.0
129 0.0
128 0.0
127 0.0
129 0.0
132 0.0
135 0.0
141 0.0
143 0.0
145 0.0
146 0.001037
148 0.001044
149 0.0
150 0.0
151 0.000997
152 0.001011
154 0.000939
155 0.0
151 0.003043
110 0.004005
92 0.002037
103 0.0
112 0.0
117 0.0
121 0.001985
124 0.001002
125 0.0
123 0.0
121 0.0
121 0.002992
124 0.002002
129 0.001991
132 0.001995
135 0.000951
136 0.000955
137 0.000943
137 0.002003
138 0.000992
147 0.001002
151 0.0
152 0.0
132 0.002056
60 0.002
0 0.002003
8 0.002005
48 0.0
60 0.000984
63 0.000963
70 0.002991
77 0.001995
82 0.000958
85 0.001006
90 0.000964
98 0.002031
105 0.00204
118 0.002045
124 0.002037
130 0.0
133 0.000982
135 0.00201
138 0.002003
140 0.002007
144 0.000937
148 0.000947
152 0.001002
156 0.002027
157 0.002021
63 0.002029
0 0.003017
0 0.0
0 0.0
28 0.0
41 0.002003
42 0.002001
52 0.002006
69 0.0
77 0.0
84 0.0
91 0.002026
106 0.0
115 0.003046
122 0.002992
131 0.00096
135 0.0
139 0.0
141 0.002024
146 0.002004
149 0.000997
153 0.000952
156 0.0
160 0.00205
167 0.0
170 0.002024
173 0.001988
176 0.000963
179 0.001007
179 0.001041
153 0.003043
60 0.003032
48 0.0
58 0.000996
80 0.001003
93 0.003003
99 0.0
102 0.003041
106 0.003027
110 0.0
112 0.00099
116 0.0
120 0.003022
124 0.00303
130 0.000962
133 0.000987
135 0.000942
138 0.0
139 0.000953
140 0.003019
141 0.003024
143 0.00299
145 0.001016
147 0.000984
149 0.002994
150 0.003027
153 0.000965
154 0.0
156 0.0
152 0.001995
124 0.0
77 0.004007
60 0.003002
83 0.000994
99 0.000963
107 0.00098
109 0.002984
113 0.002995
117 0.000967
118 0.002993
120 0.002992
124 0.001986
129 0.0
133 0.004023
136 0.00404
140 0.000965
142 0.000971
143 0.002001
144 0.004009
145 0.003987
147 0.002045
149 0.001997
152 0.00202
155 0.002002
156 0.001992
158 0.003025
159 0.003991
157 0.002991
140 0.00199
108 0.002018
94 0.004023
104 0.004038
116 0.00404
124 0.002986
127 0.001983
131 0.00201
131 0.001995
130 0.002
129 0.00303
131 0.00399
136 0.002014
140 0.002981
144 0.001976
147 0.004028
149 0.004
152 0.001029
153 0.002991
155 0.002981
156 0.001981
157 0.001981
160 0.004024
161 0.004025
158 0.002005
136 0.001996
99 0.002992
84 0.004957
97 0.004019
113 0.002009
119 0.002005
125 0.001995
127 0.001996
125 0.001969
123 0.004032
123 0.004023
126 0.00298
130 0.002991
134 0.00201
137 0.005018
140 0.00502
143 0.002025
145 0.00203
146 0.001998
147 0.002998
148 0.001986
150 0.003989
138 0.003989
81 0.000996
47 0.001995
54 0.002993
75 0.004987
88 0.004982
94 0.002982
97 0.001983
103 0.00199
105 0.003016
107 0.001993
108 0.004986
113 0.004024
120 0.003016
124 0.003009
128 0.003991
131 0.005002
133 0.005023
135 0.002956
137 0.004987
138 0.003002
138 0.004002
138 0.002975
142 0.005979
141 0.005992
97 0.003007
37 0.003007
23 0.003023
45 0.004993
68 0.005986
83 0.003961
87 0.006014
96 0.002992
101 0.003016
104 0.002976
106 0.005035
110 0.00502
118 0.002992
124 0.003992
128 0.003025
133 0.005035
135 0.004988
138 0.002998
140 0.005042
143 0.002969
145 0.003023
147 0.003021
150 0.006021
152 0.005022
155 0.002961
157 0.002993
159 0.003942
151 0.00303
108 0.007018
47 0.004985
47 0.005021
74 0.004991
92 0.003952
96 0.00396
100 0.003993
104 0.006047
107 0.006019
110 0.00395
114 0.005005
118 0.004
123 0.007014
129 0.007014
136 0.006983
139 0.005992
141 0.003992
143 0.00395
145 0.003947
147 0.006036
149 0.006017
153 0.004008
155 0.004987
157 0.004954
159 0.006983
161 0.006983
165 0.005887
159 0.007015
105 0.003964
56 0.00395
57 0.004021
80 0.006018
97 0.006019
107 0.004004
111 0.004012
114 0.00399
116 0.007038
117 0.00702
121 0.006014
125 0.006983
132 0.004993
137 0.00499
141 0.00498
144 0.007044
148 0.007011
150 0.004988
152 0.003989
153 0.003993
155 0.007975
157 0.007012
160 0.00603
162 0.00602
165 0.004991
166 0.004982
167 0.004993
164 0.006983
141 0.007019
86 0.004987
80 0.005951
97 0.005983
113 0.007977
118 0.006981
125 0.007011
127 0.006981
127 0.005027
126 0.004991
127 0.005988
132 0.007972
135 0.006986
140 0.005998
144 0.005979
147 0.00499
149 0.007948
150 0.007981
153 0.007989
154 0.00798
155 0.004982
156 0.004959
157 0.004958
159 0.006983
160 0.007998
160 0.005987
150 0.005931
112 0.005971
74 0.00798
86 0.004957
101 0.006938
111 0.007966
114 0.00599
119 0.005936
120 0.005022
119 0.007981
118 0.007979
120 0.007982
124 0.005963
128 0.005985
132 0.005985
138 0.005022
142 0.005022
144 0.00696
146 0.007968
147 0.005945
149 0.005987
150 0.005955
152 0.007982
154 0.00795
154 0.005952
156 0.005987
155 0.005972
109 0.005974
65 0.005973
64 0.006985
83 0.006986
96 0.005974
102 0.006019
105 0.005942
110 0.007998
112 0.007974
113 0.005954
115 0.005997
118 0.00598
124 0.005977
128 0.005985
132 0.007976
137 0.006976
141 0.006976
141 0.005974
144 0.006953
146 0.006961
147 0.00701
149 0.006941
152 0.006963
153 0.006979
155 0.006978
156 0.005986
142 0.006986
98 0.007948
58 0.005984
67 0.006017
80 0.006019
97 0.007956
103 0.007017
107 0.006952
110 0.00695
112 0.006953
113 0.00698
114 0.006976
120 0.007018
124 0.00699
129 0.006979
133 0.006982
137 0.006014
139 0.005983
142 0.005978
143 0.006971
145 0.00698
147 0.006956
151 0.006976
152 0.006967
154 0.006984
155 0.007012
156 0.006967
146 0.006978
108 0.006974
64 0.006996
74 0.005992
96 0.005984
106 0.006017
111 0.00598
117 0.00698
118 0.006984
117 0.006982
118 0.005967
121 0.006997
124 0.006946
130 0.006015
135 0.007017
138 0.006017
141 0.005976
144 0.005982
146 0.006014
149 0.005981
149 0.005978
151 0.005969
153 0.005984
155 0.005974
156 0.005015
158 0.005023
151 0.006051
121 0.006042
84 0.006014
81 0.005975
101 0.00602
112 0.005979
116 0.005984
119 0.006003
120 0.004992
119 0.005983
118 0.005985
119 0.005998
123 0.005019
126 0.005121
131 0.005015
135 0.004985
139 0.004995
141 0.005985
142 0.005986
143 0.005985
144 0.005977
151 0.005982
154 0.005981
156 0.006025
157 0.005979
160 0.005985
153 0.004977
86 0.006056
18 0.00502
43 0.00499
69 0.004997
82 0.004986
88 0.004995
93 0.005003
98 0.005988
98 0.004989
99 0.005979
102 0.005986
107 0.005007
116 0.004987
124 0.00502
130 0.005017
134 0.004988
138 0.004984
139 0.005008
142 0.004988
145 0.005018
148 0.003991
151 0.004996
155 0.004971
157 0.004983
161 0.005016
161 0.004973
122 0.005017
44 0.005001
4 0.004961
24 0.004941
56 0.004989
77 0.004993
83 0.004024
88 0.004042
92 0.005014
95 0.003974
98 0.004956
102 0.00405
112 0.004024
119 0.004029
126 0.003938
131 0.005027
135 0.004961
139 0.004985
142 0.005031
144 0.004042
146 0.004976
150 0.004032
155 0.003967
159 0.004015
164 0.003988
167 0.004021
163 0.004024
127 0.004021
59 0.004934
29 0.004988
63 0.003989
85 0.005044
96 0.003995
102 0.003989
106 0.004033
111 0.004026
112 0.004021
115 0.004023
121 0.003998
127 0.003982
133 0.003995
138 0.004008
144 0.003986
147 0.003993
150 0.003986
151 0.002991
154 0.002991
157 0.00399
159 0.002992
164 0.003989
166 0.004032
169 0.004017
160 0.003981
117 0.003957
53 0.003952
60 0.003982
84 0.004043
102 0.003026
110 0.003989
118 0.003001
119 0.003989
115 0.003951
113 0.003023
114 0.003023
120 0.003059
127 0.003016
134 0.003003
138 0.003049
141 0.003025
143 0.003029
146 0.002992
147 0.00403
148 0.00399
151 0.003962
154 0.003002
158 0.00302
161 0.003026
159 0.002993
106 0.002024
29 0.002
7 0.002994
34 0.002039
73 0.002993
81 0.003021
85 0.002995
91 0.004035
94 0.003038
96 0.00299
100 0.003005
105 0.002959
114 0.00303
122 0.001972
127 0.003005
131 0.003013
137 0.002981
140 0.003038
142 0.003027
144 0.002969
147 0.002032
150 0.002999
153 0.002936
156 0.003015
160 0.002026
148 0.002958
88 0.002031
4 0.002031
8 0.001996
44 0.002044
66 0.001992
76 0.001993
83 0.002009
91 0.001961
96 0.001985
98 0.002044
103 0.003043
112 0.002041
121 0.001997
128 0.002031
138 0.001986
143 0.001992
146 0.002033
148 0.002041
152 0.00197
155 0.00196
157 0.003034
161 0.000996
164 0.003001
168 0.001995
171 0.001031
171 0.000996
96 0.001995
28 0.002026
25 0.001995
60 0.002033
90 0.001997
98 0.002048
104 0.001963
109 0.001994
112 0.001951
113 0.002034
115 0.001986
120 0.001962
132 0.001995
138 0.002008
143 0.002994
147 0.001994
150 0.001997
152 0.000966
154 0.000998
155 0.001028
156 0.0
159 0.00099
162 0.0
165 0.001028
158 0.001964
108 0.001995
29 0.001995
12 0.001999
54 0.000965
79 0.000964
92 0.000943
98 0.000964
104 0.0
107 0.000965
105 0.0
107 0.000998
117 0.000998
125 0.000973
132 0.0
138 0.0
143 0.000997
146 0.001043
147 0.000964
148 0.001033
150 0.001046
153 0.00094
155 0.0
159 0.00097
165 0.000998
167 0.000995
144 0.000998
59 0.000997
52 0.000999
62 0.000996
82 0.0
94 0.0
99 0.0
103 0.000988
107 0.00103
112 0.001007
114 0.0
117 0.0
121 0.001005
125 0.000998
130 0.000997
133 0.000969
135 0.0
136 0.0
138 0.0
139 0.0
140 0.0
142 0.0
144 0.0
146 0.0
147 0.0
149 0.0
149 0.0
123 0.000995
73 0.0
55 0.0
69 0.0
89 0.0
103 0.0
107 0.0
113 0.0
116 0.0
118 0.0
120 0.0
123 0.001032
128 0.001043
132 0.003036
136 0.000997
139 0.000997
141 0.000967
143 0.003019
145 0.0
146 0.002992
147 0.003043
149 0.0
151 0.0
153 0.0
154 0.001981
156 0.001994
151 0.000998
126 0.000997
89 0.001001
82 0.001999
107 0.000977
116 0.001983
121 0.002003
124 0.0
126 0.0
126 0.0
126 0.003002
127 0.001998
130 0.000964
134 0.0
137 0.0
139 0.002042
142 0.000953
144 0.00204
144 0.00204
145 0.001013
146 0.001005
147 0.000952
148 0.00201
149 0.001981
151 0.000999
151 0.0
139 0.0
105 0.003024
76 0.0
92 0.002026
106 0.001995
114 0.0
118 0.0
120 0.0
122 0.001993
121 0.001996
121 0.000997
124 0.001008
127 0.000967
131 0.001982
136 0.000973
138 0.001995
140 0.002029
141 0.0
142 0.001001
143 0.0
144 0.003029
145 0.003024
146 0.000952
148 0.0
149 0.000967
151 0.002036
135 0.0
91 0.0
62 0.002025
68 0.002027
91 0.001024
101 0.0
105 0.0
108 0.002004
111 0.004032
115 0.001025
116 0.000967
119 0.0
123 0.0
127 0.0
130 0.002029
134 0.002027
137 0.0
138 0.0
140 0.000966
141 0.002024
148 0.002992
151 0.000992
153 0.000965
157 0.000947
160 0.001003
161 0.0
156 0.002993
119 0.002977
54 0.0
58 0.0
82 0.000999
98 0.003024
106 0.004005
111 0.000992
115 0.0
118 0.0
119 0.001996
121 0.00101
126 0.002026
131 0.003005
137 0.00301
141 0.000966
144 0.001032
146 0.003034
147 0.00399
149 0.0
150 0.000996
153 0.001973
155 0.002005
157 0.0
159 0.002992
156 0.003034
112 0.001989
61 0.001995
56 0.000953
79 0.004021
98 0.002993
109 0.000944
113 0.000969
117 0.0
116 0.002996
115 0.003016
117 0.003052
121 0.002996
129 0.00301
133 0.001995
137 0.002042
140 0.003985
142 0.003026
143 0.001031
145 0.000999
147 0.001997
149 0.001998
151 0.00195
152 0.004025
155 0.004042
155 0.00199
129 0.001996
63 0.002006
24 0.004024
36 0.004023
70 0.002004
84 0.002997
91 0.002992
97 0.002993
102 0.002989
105 0.004027
108 0.002989
113 0.002991
118 0.002992
123 0.002023
129 0.004027
133 0.004023
135 0.004025
139 0.001994
140 0.005019
142 0.001999
144 0.002001
146 0.000988
148 0.003955
150 0.004021
153 0.00301
155 0.000999
148 0.001985
102 0.004024
34 0.004042
28 0.001994
66 0.004022
87 0.002002
92 0.001995
98 0.002024
104 0.00502
108 0.005002
112 0.001995
116 0.001995
121 0.002995
126 0.004027
132 0.004028
139 0.003989
144 0.004991
147 0.001994
148 0.00301
151 0.001994
152 0.003994
154 0.005021
158 0.003012
160 0.002044
161 0.002
164 0.004987
166 0.005022
163 0.004986
130 0.005022
60 0.001985
58 0.002
83 0.002992
100 0.004897
110 0.005021
116 0.002003
119 0.002962
121 0.002972
122 0.004988
123 0.005019
128 0.00502
134 0.005021
140 0.003008
143 0.001996
146 0.002989
148 0.004987
149 0.005984
150 0.001994
151 0.002992
153 0.002997
155 0.005984
156 0.005985
160 0.004987
158 0.005019
128 0.002991
73 0.002943
50 0.002024
69 0.004969
92 0.005023
106 0.002999
112 0.003987
117 0.002994
119 0.00502
118 0.005024
121 0.006015
125 0.005022
132 0.003007
136 0.002967
140 0.002994
143 0.006017
145 0.005987
146 0.003
147 0.003005
148 0.003986
149 0.005993
151 0.005985
155 0.002991
158 0.005989
159 0.006028
124 0.003996
59 0.002962
30 0.003025
47 0.005986
72 0.006016
90 0.003018
93 0.003988
97 0.003036
103 0.006017
109 0.002961
112 0.006018
116 0.006006
122 0.002984
128 0.003023
133 0.003987
136 0.006016
139 0.005983
141 0.004004
142 0.003992
144 0.00399
146 0.005951
150 0.003976
152 0.006021
155 0.005966
154 0.003991
128 0.004038
66 0.004011
32 0.006981
47 0.007013
81 0.00399
94 0.003988
99 0.004
106 0.007991
113 0.005004
116 0.006025
118 0.007016
123 0.003973
129 0.004991
134 0.004954
139 0.007014
143 0.006976
146 0.004025
147 0.004993
149 0.004049
151 0.007981
153 0.003989
155 0.006974
157 0.00698
160 0.004988
161 0.004989
143 0.005019
89 0.006945
49 0.007018
68 0.004988
92 0.003977
105 0.005006
113 0.004009
117 0.003997
119 0.007979
119 0.007013
120 0.004985
125 0.004991
131 0.004981
137 0.007979
140 0.007993
144 0.004985
145 0.003997
146 0.00397
147 0.003992
148 0.004989
150 0.006986
152 0.006959
154 0.005928
149 0.005992
114 0.00602
46 0.00801
25 0.007978
56 0.004987
79 0.005018
88 0.004954
97 0.004984
105 0.004989
109 0.004996
112 0.007982
115 0.007978
121 0.005984
127 0.006001
132 0.005985
137 0.00798
141 0.00798
143 0.005985
145 0.005989
147 0.004985
149 0.005994
150 0.005982
153 0.007982
156 0.006983
157 0.005948
150 0.005951
107 0.005991
33 0.007965
19 0.007976
46 0.005013
70 0.005989
82 0.005962
87 0.005937
97 0.004986
105 0.007979
111 0.006981
115 0.005985
121 0.005984
128 0.005983
135 0.006982
140 0.008013
144 0.00598
147 0.005973
150 0.005984
152 0.004981
154 0.006064
157 0.006943
160 0.007985
162 0.005984
165 0.005982
166 0.005986
149 0.00798
90 0.006961
39 0.006004
44 0.005986
89 0.005951
100 0.005991
104 0.005991
112 0.006978
118 0.006024
121 0.005985
123 0.00698
127 0.005974
134 0.006989
140 0.006969
146 0.006978
148 0.005982
152 0.005983
154 0.005981
155 0.005984
157 0.006988
159 0.006014
160 0.00695
163 0.006937
165 0.00598
167 0.006982
159 0.006981
98 0.005953
62 0.005978
70 0.005983
96 0.005984
109 0.00692
116 0.007037
121 0.007016
123 0.00598
122 0.005984
121 0.005961
126 0.006031
131 0.005984
136 0.005024
142 0.005979
148 0.006945
149 0.005985
150 0.006979
151 0.007012
153 0.006015
154 0.006977
155 0.005976
158 0.006019
160 0.005973
156 0.006061
104 0.005978
32 0.006017
39 0.006017
75 0.005981
89 0.005969
95 0.005971
100 0.006017
107 0.005987
113 0.00505
115 0.004977
117 0.006988
123 0.006032
129 0.005984
138 0.006013
142 0.00602
146 0.005956
148 0.005986
150 0.005985
151 0.006017
152 0.005985
155 0.00597
157 0.005028
160 0.005027
162 0.005002
160 0.004986
90 0.005956
35 0.005944
46 0.005951
75 0.005986
92 0.006001
98 0.006009
102 0.006019
111 0.005988
115 0.004976
119 0.00498
123 0.005017
127 0.004967
137 0.005021
143 0.005021
149 0.004987
152 0.004986
155 0.005021
157 0.005014
158 0.004984
161 0.006002
163 0.005989
165 0.004974
168 0.005013
170 0.004954
173 0.005017
161 0.004987
102 0.004988
71 0.004989
83 0.004984
104 0.004986
116 0.005017
123 0.004977
128 0.003992
132 0.003953
133 0.004026
134 0.005018
137 0.004988
141 0.005041
147 0.004977
150 0.004967
153 0.004996
155 0.005017
156 0.005019
157 0.005032
159 0.003989
160 0.00402
160 0.003972
161 0.003989
148 0.003989
123 0.004024
102 0.004953
109 0.004984
119 0.004987
126 0.005016
131 0.005066
137 0.005034
138 0.004988
136 0.004981
135 0.004004
136 0.004034
142 0.004985
146 0.00402
150 0.004023
152 0.003985
152 0.003956
152 0.00399
150 0.004027
145 0.004
131 0.00411
98 0.003984
71 0.003982
78 0.004971
104 0.004992
112 0.004021
118 0.004026
124 0.004036
124 0.004022
120 0.00399
118 0.003989
120 0.004042
126 0.004032
131 0.003999
136 0.00395
141 0.00402
144 0.003023
146 0.00303
144 0.003025
104 0.004023
38 0.004
14 0.003952
31 0.00399
59 0.00399
78 0.004024
82 0.004022
89 0.004018
100 0.00299
103 0.002992
106 0.003024
111 0.002992
120 0.003002
125 0.004024
131 0.003025
134 0.00399
137 0.003992
139 0.004014
141 0.003027
143 0.002996
134 0.003026
74 0.003027
5 0.002992
0 0.002992
20 0.003026
33 0.003023
28 0.002985
25 0.003028
42 0.002992
72 0.001994
85 0.00396
94 0.00299
108 0.003035
118 0.003042
126 0.003027
133 0.002993
140 0.003023
143 0.001974
146 0.003035
149 0.001995
152 0.002996
155 0.004022
157 0.002031
159 0.001993
163 0.001996
160 0.001992
112 0.002998
20 0.002978
0 0.002993
22 0.002992
43 0.00305
49 0.003041
44 0.002992
61 0.003023
83 0.003025
98 0.002017
109 0.002026
119 0.001996
130 0.002026
139 0.002026
149 0.001996
152 0.003026
155 0.002993
157 0.003052
159 0.002992
162 0.003059
165 0.003001
168 0.00196
171 0.001993
172 0.001995
174 0.002038
175 0.001996
176 0.001961
177 0.002024
179 0.002029
180 0.001995
176 0.00195
131 0.001994
16 0.002032
10 0.00103
57 0.002029
79 0.002031
81 0.001996
80 0.001937
92 0.002025
107 0.001959
113 0.002026
119 0.001995
128 0.002041
138 0.002034
150 0.001996
155 0.001995
161 0.001995
162 0.001994
164 0.001995
166 0.002992
168 0.002993
170 0.003005
172 0.003006
174 0.002025
176 0.00204
176 0.001992
179 0.002027
180 0.001961
178 0.001997
145 0.001995
51 0.001959
20 0.002994
37 0.001995
82 0.002101
103 0.001962
110 0.001003
117 0.001043
127 0.001955
134 0.00098
139 0.000998
146 0.000997
154 0.000998
160 0.000998
164 0.000997
167 0.000997
170 0.000998
172 0.0
173 0.0
174 0.000997
175 0.0
176 0.000998
178 0.000998
180 0.000966
182 0.000999
177 0.000998
141 0.000997
61 0.000995
48 0.000988
82 0.000997
113 0.000999
127 0.000997
135 0.0
143 0.0
143 0.001006
141 0.0
143 0.000995
149 0.0
154 0.000997
159 0.000998
162 0.0
163 0.0
164 0.0
165 0.0
165 0.0
166 0.0
167 0.0
165 0.0
131 0.0
44 0.0
21 0.0
42 0.0
86 0.0
105 0.0
113 0.0
121 0.0
128 0.0
130 0.0
130 0.0
135 0.0
145 0.0
150 0.0
155 0.000998
157 0.0
159 0.0
160 0.0
160 0.0
161 0.0
162 0.0
164 0.0
158 0.0
99 0.0
7 0.0
10 0.001013
38 0.001002
67 0.000997
81 0.0
82 0.003039
95 0.002962
113 0.0
119 0.0
122 0.0
134 0.0
142 0.000998
148 0.002027
152 0.003026
156 0.0
157 0.0
159 0.0
160 0.002984
161 0.003022
163 0.0
165 0.0
166 0.0
167 0.00095
149 0.0
56 0.003025
2 0.00303
16 0.000965
48 0.0
73 0.000944
79 0.002012
80 0.002
97 0.0
110 0.000998
117 0.0
125 0.0
134 0.0
142 0.002992
148 0.003036
153 0.0
155 0.0
157 0.0
158 0.003029
159 0.003026
161 0.0
163 0.0
166 0.000987
167 0.0
167 0.0
168 0.002028
169 0.002031
169 0.001017
143 0.0
42 0.0
0 0.00303
12 0.002943
57 0.0
82 0.0
91 0.0
99 0.0
109 0.0
115 0.002993
119 0.001992
126 0.000973
135 0.000951
143 0.0
148 0.003037
152 0.002993
156 0.001049
158 0.0
160 0.000995
162 0.0
163 0.0
164 0.003039
165 0.003023
167 0.002988
167 0.000999
169 0.0
170 0.0
170 0.003026
151 0.003014
36 0.0
11 0.00307
55 0.0
86 0.0
101 0.0
105 0.002992
111 0.002962
120 0.0
123 0.0
126 0.0
130 0.002949
136 0.003024
144 0.0
150 0.003022
154 0.001006
156 0.0
158 0.001005
160 0.002028
161 0.002058
164 0.0
164 0.000989
166 0.0
167 0.002027
168 0.002027
170 0.000976
171 0.002026
171 0.0
153 0.0
79 0.0
26 0.003032
38 0.002992
85 0.0
105 0.0
115 0.0
120 0.001998
125 0.002991
127 0.002953
129 0.003007
133 0.0
138 0.0
142 0.0
146 0.003023
150 0.004023
153 0.002995
154 0.000966
155 0.002994
157 0.003034
157 0.003016
159 0.001993
161 0.003023
163 0.0
162 0.003008
145 0.0
84 0.003022
38 0.002992
64 0.002991
94 0.0
110 0.003011
117 0.004007
124 0.004022
129 0.0
128 0.002994
129 0.002993
133 0.002994
138 0.002991
142 0.002988
146 0.003029
149 0.002962
151 0.002998
152 0.001996
152 0.003991
153 0.00403
154 0.001996
155 0.004023
150 0.002992
109 0.002043
30 0.00299
12 0.004021
36 0.00402
77 0.001995
91 0.001994
96 0.002992
103 0.001978
109 0.003948
114 0.002001
117 0.003989
121 0.004025
128 0.002991
133 0.002995
138 0.003016
141 0.003995
143 0.004022
146 0.002989
147 0.002992
148 0.002985
150 0.004032
153 0.003032
155 0.004988
145 0.004992
48 0.002999
0 0.00299
8 0.003022
40 0.00502
67 0.004983
80 0.002985
83 0.003021
94 0.002988
103 0.00502
112 0.003001
116 0.004024
122 0.004014
131 0.001998
136 0.002027
140 0.001994
144 0.004992
147 0.004991
149 0.00199
152 0.001995
153 0.001997
154 0.004994
157 0.002999
159 0.004993
161 0.00502
145 0.002991
61 0.001998
1 0.001987
4 0.005022
36 0.005018
73 0.002005
82 0.001994
85 0.002028
95 0.005025
108 0.001991
112 0.005021
116 0.004987
126 0.002996
135 0.002992
141 0.002994
146 0.005985
149 0.005957
152 0.002994
154 0.002993
156 0.002995
157 0.004993
160 0.003017
163 0.004987
165 0.006019
166 0.001997
167 0.002993
168 0.002994
169 0.005983
158 0.006016
54 0.002996
3 0.002995
12 0.002006
47 0.004991
86 0.003963
90 0.00503
95 0.006017
106 0.00301
111 0.002992
114 0.003993
119 0.005996
127 0.006015
137 0.002989
142 0.003004
147 0.003008
150 0.006018
153 0.003958
155 0.006018
157 0.005989
159 0.006014
161 0.002996
163 0.002994
165 0.002962
167 0.005971
170 0.006976
172 0.002986
171 0.002993
145 0.001986
27 0.004025
27 0.002029
60 0.006018
90 0.005995
105 0.002995
109 0.003032
116 0.002991
122 0.005983
124 0.006981
128 0.002991
133 0.00399
139 0.00399
147 0.004986
151 0.003827
155 0.005983
157 0.006018
160 0.003016
161 0.003028
162 0.003993
164 0.005984
166 0.006018
169 0.002992
171 0.004024
171 0.005009
147 0.004024
77 0.003992
39 0.007019
58 0.006989
96 0.003991
110 0.003989
117 0.003994
123 0.006949
125 0.006976
126 0.003985
126 0.003989
133 0.004996
138 0.005036
144 0.005034
149 0.006978
151 0.006979
153 0.003952
155 0.003955
156 0.003985
156 0.006979
158 0.007011
159 0.003024
161 0.004986
162 0.003988
151 0.005001
88 0.004992
16 0.006979
12 0.006962
51 0.004989
75 0.00398
84 0.003991
87 0.006973
96 0.007975
107 0.00499
111 0.00499
117 0.004985
123 0.003959
130 0.004989
137 0.007985
140 0.007944
144 0.004994
147 0.003989
148 0.00499
151 0.007991
152 0.007974
154 0.00498
156 0.00498
159 0.004979
161 0.004989
162 0.004992
161 0.007978
130 0.007972
68 0.007941
0 0.004984
15 0.005001
49 0.004928
72 0.007948
79 0.007979
83 0.00498
104 0.007981
110 0.004991
115 0.00502
120 0.005004
131 0.007962
138 0.007978
144 0.003992
148 0.005939
152 0.004993
154 0.006983
156 0.006981
158 0.004993
161 0.007014
162 0.004002
162 0.004952
164 0.004982
166 0.00797
168 0.00698
170 0.005986
172 0.005999
163 0.005989
82 0.007019
23 0.006984
29 0.004987
80 0.006982
94 0.005984
97 0.005983
100 0.005025
110 0.00698
115 0.006997
118 0.004978
122 0.00598
128 0.005983
138 0.006982
144 0.006955
148 0.005981
153 0.00698
154 0.005978
156 0.005998
157 0.005984
159 0.006974
161 0.006976
164 0.005094
166 0.005974
167 0.005992
170 0.005984
172 0.005951
158 0.006986
104 0.006983
49 0.005947
56 0.005974
84 0.005994
106 0.006982
111 0.00698
115 0.005985
121 0.005965
123 0.006013
122 0.005977
121 0.006021
126 0.005989
130 0.00599
135 0.005983
138 0.00598
140 0.00598
142 0.007031
143 0.007029
143 0.005977
145 0.005015
147 0.006984
149 0.006982
152 0.006015
155 0.006021
154 0.006009
114 0.005993
58 0.00598
47 0.005975
71 0.005976
93 0.006054
108 0.005986
113 0.005983
118 0.006057
120 0.005961
121 0.005983
128 0.005983
132 0.006014
138 0.00598
144 0.005972
147 0.005984
149 0.006015
151 0.006016
153 0.00602
152 0.005988
150 0.004987
150 0.005028
151 0.005022
124 0.004975
84 0.004955
61 0.004962
74 0.005983
94 0.004987
107 0.005985
114 0.00502
119 0.005977
116 0.005975
111 0.005965
108 0.005982
110 0.005975
117 0.005005
121 0.004969
124 0.005997
126 0.004988
128 0.004987
130 0.004981
131 0.004987
130 0.005023
95 0.004951
39 0.005971
21 0.005982
41 0.005985
82 0.005009
94 0.004991
102 0.004975
110 0.004986
109 0.004943
106 0.003951
105 0.005049
110 0.005019
120 0.004986
127 0.003968
133 0.005001
138 0.00399
143 0.00499
144 0.004953
137 0.005026
73 0.005016
27 0.004985
33 0.004981
62 0.00502
86 0.003949
100 0.004948
107 0.004991
114 0.003985
117 0.003957
117 0.00403
121 0.004987
126 0.003991
134 0.004986
140 0.004944
143 0.004948
145 0.005038
148 0.005019
150 0.004978
152 0.004979
154 0.003955
145 0.00402
31 0.003958
0 0.004037
1 0.003957
28 0.003988
36 0.004987
31 0.003985
37 0.003992
58 0.004024
85 0.004951
96 0.004952
102 0.00495
118 0.004955
130 0.004029
140 0.004024
146 0.003989
152 0.003989
154 0.004045
155 0.003946
157 0.003956
159 0.003952
161 0.003943
164 0.004957
165 0.003989
168 0.003977
168 0.002992
170 0.00399
171 0.004001
